
1  2023-10-27 13:54:05.041719
2  2023-10-27 13:54:05.089062
3  2023-10-27 13:54:05.120977
4  2023-10-27 13:54:05.167888
5  2023-10-27 13:54:05.213760
6  2023-10-27 13:54:05.260632
7  2023-10-27 13:54:05.292547
8  2023-10-27 13:54:05.338425
9  2023-10-27 13:54:05.385270
10  2023-10-27 13:54:05.416227
11  2023-10-27 13:54:05.462096
12  2023-10-27 13:54:05.509980
13  2023-10-27 13:54:05.541966
14  2023-10-27 13:54:05.589798
15  2023-10-27 13:54:05.621678
16  2023-10-27 13:54:05.669550
17  2023-10-27 13:54:05.717426
18  2023-10-27 13:54:05.749437
19  2023-10-27 13:54:05.797308
20  2023-10-27 13:54:05.829183
21  2023-10-27 13:54:05.877090
22  2023-10-27 13:54:05.924928
23  2023-10-27 13:54:05.955845
24  2023-10-27 13:54:06.002192
25  2023-10-27 13:54:06.050091
26  2023-10-27 13:54:06.082005
27  2023-10-27 13:54:06.129877
28  2023-10-27 13:54:06.177749
29  2023-10-27 13:54:06.209664
30  2023-10-27 13:54:06.257621
31  2023-10-27 13:54:06.289494
32  2023-10-27 13:54:06.337410
33  2023-10-27 13:54:06.384286
34  2023-10-27 13:54:06.416207
35  2023-10-27 13:54:06.464072
36  2023-10-27 13:54:06.495999
37  2023-10-27 13:54:06.543866
38  2023-10-27 13:54:06.590733
39  2023-10-27 13:54:06.621746
40  2023-10-27 13:54:06.667625
41  2023-10-27 13:54:06.715507
42  2023-10-27 13:54:06.746431
43  2023-10-27 13:54:06.794256
44  2023-10-27 13:54:06.842157
45  2023-10-27 13:54:06.874074
46  2023-10-27 13:54:06.919920
47  2023-10-27 13:54:06.967823
48  2023-10-27 13:54:06.999736
49  2023-10-27 13:54:07.047617
50  2023-10-27 13:54:07.079493
51  2023-10-27 13:54:07.127365
52  2023-10-27 13:54:07.175286
53  2023-10-27 13:54:07.207201
54  2023-10-27 13:54:07.254226
55  2023-10-27 13:54:07.300950
56  2023-10-27 13:54:07.331915
57  2023-10-27 13:54:07.378794
58  2023-10-27 13:54:07.426615
59  2023-10-27 13:54:07.458576
60  2023-10-27 13:54:07.506437
61  2023-10-27 13:54:07.538360
62  2023-10-27 13:54:07.585190
63  2023-10-27 13:54:07.633062
64  2023-10-27 13:54:07.665026
65  2023-10-27 13:54:07.712849
66  2023-10-27 13:54:07.760756
67  2023-10-27 13:54:07.792636
68  2023-10-27 13:54:07.840543
69  2023-10-27 13:54:07.872423
70  2023-10-27 13:54:07.920295
71  2023-10-27 13:54:07.968167
72  2023-10-27 13:54:08.000082
73  2023-10-27 13:54:08.048100
74  2023-10-27 13:54:08.079017
75  2023-10-27 13:54:08.126889
76  2023-10-27 13:54:08.173764
77  2023-10-27 13:54:08.204681
78  2023-10-27 13:54:08.250585
79  2023-10-27 13:54:08.298430
80  2023-10-27 13:54:08.330421
81  2023-10-27 13:54:08.378290
82  2023-10-27 13:54:08.426131
83  2023-10-27 13:54:08.457056
84  2023-10-27 13:54:08.502965
85  2023-10-27 13:54:08.549800
86  2023-10-27 13:54:08.580728
87  2023-10-27 13:54:08.627592
88  2023-10-27 13:54:08.675464
89  2023-10-27 13:54:08.706391
90  2023-10-27 13:54:08.753256
91  2023-10-27 13:54:08.799171
92  2023-10-27 13:54:08.831048
93  2023-10-27 13:54:08.878921
94  2023-10-27 13:54:08.926793
95  2023-10-27 13:54:08.958707
96  2023-10-27 13:54:09.006592
97  2023-10-27 13:54:09.038529
98  2023-10-27 13:54:09.086382
99  2023-10-27 13:54:09.134310
100  2023-10-27 13:54:09.166224
101  2023-10-27 13:54:09.214097
102  2023-10-27 13:54:09.246011
103  2023-10-27 13:54:09.291888
104  2023-10-27 13:54:09.339761
105  2023-10-27 13:54:09.370678
106  2023-10-27 13:54:09.417553
107  2023-10-27 13:54:09.465555
108  2023-10-27 13:54:09.496808
109  2023-10-27 13:54:09.544683
110  2023-10-27 13:54:09.592523
111  2023-10-27 13:54:09.624434
112  2023-10-27 13:54:09.672341
113  2023-10-27 13:54:09.704307
114  2023-10-27 13:54:09.752289
115  2023-10-27 13:54:09.798227
116  2023-10-27 13:54:09.830141
117  2023-10-27 13:54:09.877050
118  2023-10-27 13:54:09.923943
119  2023-10-27 13:54:09.955808
120  2023-10-27 13:54:10.003718
121  2023-10-27 13:54:10.051552
122  2023-10-27 13:54:10.083496
123  2023-10-27 13:54:10.130372
124  2023-10-27 13:54:10.162253
125  2023-10-27 13:54:10.209609
126  2023-10-27 13:54:10.257611
127  2023-10-27 13:54:10.289514
128  2023-10-27 13:54:10.336349
129  2023-10-27 13:54:10.383435
130  2023-10-27 13:54:10.415320
131  2023-10-27 13:54:10.463257
132  2023-10-27 13:54:10.509144
133  2023-10-27 13:54:10.541064
134  2023-10-27 13:54:10.586929
135  2023-10-27 13:54:10.633801
136  2023-10-27 13:54:10.663721
137  2023-10-27 13:54:10.710672
138  2023-10-27 13:54:10.757588
139  2023-10-27 13:54:10.788537
140  2023-10-27 13:54:10.836432
141  2023-10-27 13:54:10.884367
142  2023-10-27 13:54:10.916281
143  2023-10-27 13:54:10.963253
144  2023-10-27 13:54:11.011117
145  2023-10-27 13:54:11.042999
146  2023-10-27 13:54:11.090902
147  2023-10-27 13:54:11.122781
148  2023-10-27 13:54:11.169694
149  2023-10-27 13:54:11.216570
150  2023-10-27 13:54:11.248480
151  2023-10-27 13:54:11.296354
152  2023-10-27 13:54:11.344225
153  2023-10-27 13:54:11.376279
154  2023-10-27 13:54:11.424011
155  2023-10-27 13:54:11.455891
156  2023-10-27 13:54:11.503807
157  2023-10-27 13:54:11.550637
158  2023-10-27 13:54:11.582591
159  2023-10-27 13:54:11.630460
160  2023-10-27 13:54:11.662378
161  2023-10-27 13:54:11.708216
162  2023-10-27 13:54:11.756087
163  2023-10-27 13:54:11.788002
164  2023-10-27 13:54:11.834010
165  2023-10-27 13:54:11.879937
166  2023-10-27 13:54:11.927794
167  2023-10-27 13:54:11.958715
168  2023-10-27 13:54:12.005551
169  2023-10-27 13:54:12.037544
170  2023-10-27 13:54:12.084349
171  2023-10-27 13:54:12.132219
172  2023-10-27 13:54:12.164127
173  2023-10-27 13:54:12.212001
174  2023-10-27 13:54:12.259872
175  2023-10-27 13:54:12.291060
176  2023-10-27 13:54:12.338085
177  2023-10-27 13:54:12.384951
178  2023-10-27 13:54:12.416865
179  2023-10-27 13:54:12.463743
180  2023-10-27 13:54:12.510578
181  2023-10-27 13:54:12.542525
182  2023-10-27 13:54:12.589409
183  2023-10-27 13:54:12.621320
184  2023-10-27 13:54:12.669154
185  2023-10-27 13:54:12.716028
186  2023-10-27 13:54:12.746946
187  2023-10-27 13:54:12.794853
188  2023-10-27 13:54:12.842690
189  2023-10-27 13:54:12.874218
190  2023-10-27 13:54:12.922214
191  2023-10-27 13:54:12.954126
192  2023-10-27 13:54:12.999971
193  2023-10-27 13:54:13.047902
194  2023-10-27 13:54:13.079840
195  2023-10-27 13:54:13.127804
196  2023-10-27 13:54:13.175677
197  2023-10-27 13:54:13.207219
198  2023-10-27 13:54:13.255133
199  2023-10-27 13:54:13.301966
200  2023-10-27 13:54:13.332883
201  2023-10-27 13:54:13.379800
202  2023-10-27 13:54:13.426779
203  2023-10-27 13:54:13.458547
204  2023-10-27 13:54:13.506458
205  2023-10-27 13:54:13.538367
206  2023-10-27 13:54:13.585238
207  2023-10-27 13:54:13.631126
208  2023-10-27 13:54:13.663032
209  2023-10-27 13:54:13.710873
210  2023-10-27 13:54:13.758789
211  2023-10-27 13:54:13.790690
212  2023-10-27 13:54:13.838587
213  2023-10-27 13:54:13.885406
214  2023-10-27 13:54:13.917369
215  2023-10-27 13:54:13.964252
216  2023-10-27 13:54:14.011070
217  2023-10-27 13:54:14.042985
218  2023-10-27 13:54:14.090857
219  2023-10-27 13:54:14.121816
220  2023-10-27 13:54:14.168234
221  2023-10-27 13:54:14.216140
222  2023-10-27 13:54:14.247068
223  2023-10-27 13:54:14.293930
224  2023-10-27 13:54:14.341770
225  2023-10-27 13:54:14.373685
226  2023-10-27 13:54:14.421601
227  2023-10-27 13:54:14.468432
228  2023-10-27 13:54:14.499349
229  2023-10-27 13:54:14.547267
230  2023-10-27 13:54:14.579174
231  2023-10-27 13:54:14.627008
232  2023-10-27 13:54:14.674913
233  2023-10-27 13:54:14.705798
234  2023-10-27 13:54:14.753778
235  2023-10-27 13:54:14.801575
236  2023-10-27 13:54:14.833573
237  2023-10-27 13:54:14.881454
238  2023-10-27 13:54:14.913413
239  2023-10-27 13:54:14.961247
240  2023-10-27 13:54:15.009179
241  2023-10-27 13:54:15.041115
242  2023-10-27 13:54:15.088985
243  2023-10-27 13:54:15.120903
244  2023-10-27 13:54:15.168780
245  2023-10-27 13:54:15.216646
246  2023-10-27 13:54:15.248528
247  2023-10-27 13:54:15.296401
248  2023-10-27 13:54:15.344272
249  2023-10-27 13:54:15.374223
250  2023-10-27 13:54:15.420104
251  2023-10-27 13:54:15.467982
252  2023-10-27 13:54:15.497894
253  2023-10-27 13:54:15.545733
254  2023-10-27 13:54:15.592648
255  2023-10-27 13:54:15.624579
256  2023-10-27 13:54:15.672394
257  2023-10-27 13:54:15.704309
258  2023-10-27 13:54:15.750297
259  2023-10-27 13:54:15.798138
260  2023-10-27 13:54:15.830097
261  2023-10-27 13:54:15.876970
262  2023-10-27 13:54:15.924842
263  2023-10-27 13:54:15.956754
264  2023-10-27 13:54:16.003589
265  2023-10-27 13:54:16.051548
266  2023-10-27 13:54:16.083496
267  2023-10-27 13:54:16.131392
268  2023-10-27 13:54:16.163305
269  2023-10-27 13:54:16.211202
270  2023-10-27 13:54:16.259049
271  2023-10-27 13:54:16.290997
272  2023-10-27 13:54:16.338836
273  2023-10-27 13:54:16.370751
274  2023-10-27 13:54:16.416677
275  2023-10-27 13:54:16.464563
276  2023-10-27 13:54:16.495541
277  2023-10-27 13:54:16.542386
278  2023-10-27 13:54:16.590295
279  2023-10-27 13:54:16.622203
280  2023-10-27 13:54:16.669083
281  2023-10-27 13:54:16.715955
282  2023-10-27 13:54:16.747837
283  2023-10-27 13:54:16.795744
284  2023-10-27 13:54:16.843614
285  2023-10-27 13:54:16.874515
286  2023-10-27 13:54:16.921101
287  2023-10-27 13:54:16.966985
288  2023-10-27 13:54:16.998921
289  2023-10-27 13:54:17.046793
290  2023-10-27 13:54:17.093713
291  2023-10-27 13:54:17.124698
292  2023-10-27 13:54:17.172539
293  2023-10-27 13:54:17.204454
294  2023-10-27 13:54:17.252335
295  2023-10-27 13:54:17.300198
296  2023-10-27 13:54:17.332112
297  2023-10-27 13:54:17.379984
298  2023-10-27 13:54:17.426859
299  2023-10-27 13:54:17.457809
300  2023-10-27 13:54:17.505648
301  2023-10-27 13:54:17.537563
302  2023-10-27 13:54:17.585436
303  2023-10-27 13:54:17.633307
304  2023-10-27 13:54:17.665222
305  2023-10-27 13:54:17.713097
306  2023-10-27 13:54:17.759997
307  2023-10-27 13:54:17.790918
308  2023-10-27 13:54:17.837802
309  2023-10-27 13:54:17.884693
310  2023-10-27 13:54:17.916579
311  2023-10-27 13:54:17.963463
312  2023-10-27 13:54:18.010347
313  2023-10-27 13:54:18.042280
314  2023-10-27 13:54:18.090126
315  2023-10-27 13:54:18.121039
316  2023-10-27 13:54:18.168875
317  2023-10-27 13:54:18.214787
318  2023-10-27 13:54:18.246699
319  2023-10-27 13:54:18.294589
320  2023-10-27 13:54:18.342411
321  2023-10-27 13:54:18.374332
322  2023-10-27 13:54:18.420206
323  2023-10-27 13:54:18.466081
324  2023-10-27 13:54:18.497995
325  2023-10-27 13:54:18.545875
326  2023-10-27 13:54:18.647596
327  2023-10-27 13:54:18.669587
328  2023-10-27 13:54:18.716532
329  2023-10-27 13:54:18.747455
330  2023-10-27 13:54:18.794325
331  2023-10-27 13:54:18.842212
332  2023-10-27 13:54:18.874393
333  2023-10-27 13:54:18.922056
334  2023-10-27 13:54:18.954004
335  2023-10-27 13:54:19.001827
336  2023-10-27 13:54:19.049730
337  2023-10-27 13:54:19.080615
338  2023-10-27 13:54:19.128527
339  2023-10-27 13:54:19.176359
340  2023-10-27 13:54:19.208274
341  2023-10-27 13:54:19.256188
342  2023-10-27 13:54:19.288107
343  2023-10-27 13:54:19.335936
344  2023-10-27 13:54:19.383846
345  2023-10-27 13:54:19.415768
346  2023-10-27 13:54:19.463625
347  2023-10-27 13:54:19.495544
348  2023-10-27 13:54:19.543378
349  2023-10-27 13:54:19.591283
350  2023-10-27 13:54:19.623205
351  2023-10-27 13:54:19.671037
352  2023-10-27 13:54:19.718945
353  2023-10-27 13:54:19.749859
354  2023-10-27 13:54:19.796701
355  2023-10-27 13:54:19.842637
356  2023-10-27 13:54:19.874532
357  2023-10-27 13:54:19.922379
358  2023-10-27 13:54:19.954313
359  2023-10-27 13:54:20.001156
360  2023-10-27 13:54:20.048035
361  2023-10-27 13:54:20.079945
362  2023-10-27 13:54:20.127817
363  2023-10-27 13:54:20.175689
364  2023-10-27 13:54:20.207603
365  2023-10-27 13:54:20.255476
366  2023-10-27 13:54:20.301384
367  2023-10-27 13:54:20.333268
368  2023-10-27 13:54:20.381140
369  2023-10-27 13:54:20.413095
370  2023-10-27 13:54:20.460960
371  2023-10-27 13:54:20.508840
372  2023-10-27 13:54:20.539716
373  2023-10-27 13:54:20.587624
374  2023-10-27 13:54:20.635491
375  2023-10-27 13:54:20.667404
376  2023-10-27 13:54:20.713252
377  2023-10-27 13:54:20.761123
378  2023-10-27 13:54:20.793039
379  2023-10-27 13:54:20.840911
380  2023-10-27 13:54:20.872862
381  2023-10-27 13:54:20.920927
382  2023-10-27 13:54:20.966575
383  2023-10-27 13:54:20.998489
384  2023-10-27 13:54:21.046393
385  2023-10-27 13:54:21.094265
386  2023-10-27 13:54:21.126179
387  2023-10-27 13:54:21.174020
388  2023-10-27 13:54:21.204937
389  2023-10-27 13:54:21.250815
390  2023-10-27 13:54:21.295482
391  2023-10-27 13:54:21.344343
392  2023-10-27 13:54:21.375325
393  2023-10-27 13:54:21.423188
394  2023-10-27 13:54:21.454105
395  2023-10-27 13:54:21.501021
396  2023-10-27 13:54:21.548913
397  2023-10-27 13:54:21.579811
398  2023-10-27 13:54:21.626810
399  2023-10-27 13:54:21.672818
400  2023-10-27 13:54:21.704639
401  2023-10-27 13:54:21.751471
402  2023-10-27 13:54:21.799316
403  2023-10-27 13:54:21.831233
404  2023-10-27 13:54:21.878924
405  2023-10-27 13:54:21.926985
406  2023-10-27 13:54:21.958898
407  2023-10-27 13:54:22.006736
408  2023-10-27 13:54:22.038651
409  2023-10-27 13:54:22.084529
410  2023-10-27 13:54:22.132400
411  2023-10-27 13:54:22.164315
412  2023-10-27 13:54:22.212260
413  2023-10-27 13:54:22.258292
414  2023-10-27 13:54:22.290206
415  2023-10-27 13:54:22.338078
416  2023-10-27 13:54:22.384953
417  2023-10-27 13:54:22.415870
418  2023-10-27 13:54:22.462744
419  2023-10-27 13:54:22.510616
420  2023-10-27 13:54:22.542567
421  2023-10-27 13:54:22.590403
422  2023-10-27 13:54:22.622358
423  2023-10-27 13:54:22.670219
424  2023-10-27 13:54:22.718196
425  2023-10-27 13:54:22.750017
426  2023-10-27 13:54:22.797905
427  2023-10-27 13:54:22.843743
428  2023-10-27 13:54:22.874660
429  2023-10-27 13:54:22.921535
430  2023-10-27 13:54:22.969146
431  2023-10-27 13:54:23.001061
432  2023-10-27 13:54:23.049047
433  2023-10-27 13:54:23.080957
434  2023-10-27 13:54:23.128828
435  2023-10-27 13:54:23.176707
436  2023-10-27 13:54:23.208623
437  2023-10-27 13:54:23.256516
438  2023-10-27 13:54:23.288420
439  2023-10-27 13:54:23.335246
440  2023-10-27 13:54:23.382119
441  2023-10-27 13:54:23.413038
442  2023-10-27 13:54:23.459911
443  2023-10-27 13:54:23.507817
444  2023-10-27 13:54:23.539698
445  2023-10-27 13:54:23.586620
446  2023-10-27 13:54:23.633455
447  2023-10-27 13:54:23.665362
448  2023-10-27 13:54:23.713234
449  2023-10-27 13:54:23.761106
450  2023-10-27 13:54:23.793020
451  2023-10-27 13:54:23.842018
452  2023-10-27 13:54:23.872969
453  2023-10-27 13:54:23.920797
454  2023-10-27 13:54:23.968669
455  2023-10-27 13:54:23.998668
456  2023-10-27 13:54:24.046589
457  2023-10-27 13:54:24.094446
458  2023-10-27 13:54:24.125372
459  2023-10-27 13:54:24.176236
460  2023-10-27 13:54:24.218150
461  2023-10-27 13:54:24.250069
462  2023-10-27 13:54:24.297909
463  2023-10-27 13:54:24.329898
464  2023-10-27 13:54:24.377765
465  2023-10-27 13:54:24.425716
466  2023-10-27 13:54:24.457631
467  2023-10-27 13:54:24.505462
468  2023-10-27 13:54:24.537411
469  2023-10-27 13:54:24.585278
470  2023-10-27 13:54:24.633160
471  2023-10-27 13:54:24.665154
472  2023-10-27 13:54:24.711033
473  2023-10-27 13:54:24.758975
474  2023-10-27 13:54:24.790890
475  2023-10-27 13:54:24.838729
476  2023-10-27 13:54:24.884668
477  2023-10-27 13:54:24.916521
478  2023-10-27 13:54:24.964393
479  2023-10-27 13:54:24.996308
480  2023-10-27 13:54:25.044213
481  2023-10-27 13:54:25.092090
482  2023-10-27 13:54:25.124060
483  2023-10-27 13:54:25.170919
484  2023-10-27 13:54:25.217795
485  2023-10-27 13:54:25.250742
486  2023-10-27 13:54:25.297580
487  2023-10-27 13:54:25.343621
488  2023-10-27 13:54:25.375493
489  2023-10-27 13:54:25.423365
490  2023-10-27 13:54:25.455279
491  2023-10-27 13:54:25.503204
492  2023-10-27 13:54:25.550291
493  2023-10-27 13:54:25.581209
494  2023-10-27 13:54:25.628132
495  2023-10-27 13:54:25.675007
496  2023-10-27 13:54:25.706918
497  2023-10-27 13:54:25.754783
498  2023-10-27 13:54:25.802659
499  2023-10-27 13:54:25.834577
500  2023-10-27 13:54:25.882437
501  2023-10-27 13:54:25.913369
502  2023-10-27 13:54:25.960238
503  2023-10-27 13:54:26.007112
504  2023-10-27 13:54:26.038985
505  2023-10-27 13:54:26.085867
506  2023-10-27 13:54:26.132734
507  2023-10-27 13:54:26.162656
508  2023-10-27 13:54:26.209529
509  2023-10-27 13:54:26.256404
510  2023-10-27 13:54:26.287321
511  2023-10-27 13:54:26.333198
512  2023-10-27 13:54:26.380114
513  2023-10-27 13:54:26.426987
514  2023-10-27 13:54:26.457898
515  2023-10-27 13:54:26.505771
516  2023-10-27 13:54:26.537692
517  2023-10-27 13:54:26.585557
518  2023-10-27 13:54:26.632432
519  2023-10-27 13:54:26.662352
520  2023-10-27 13:54:26.709194
521  2023-10-27 13:54:26.756100
522  2023-10-27 13:54:26.788034
523  2023-10-27 13:54:26.835854
524  2023-10-27 13:54:26.882730
525  2023-10-27 13:54:26.913651
526  2023-10-27 13:54:26.960778
527  2023-10-27 13:54:27.007887
528  2023-10-27 13:54:27.039617
529  2023-10-27 13:54:27.087567
530  2023-10-27 13:54:27.135556
531  2023-10-27 13:54:27.167475
532  2023-10-27 13:54:27.214346
533  2023-10-27 13:54:27.246261
534  2023-10-27 13:54:27.294255
535  2023-10-27 13:54:27.340277
536  2023-10-27 13:54:27.372261
537  2023-10-27 13:54:27.418328
538  2023-10-27 13:54:27.466169
539  2023-10-27 13:54:27.498157
540  2023-10-27 13:54:27.545031
541  2023-10-27 13:54:27.591006
542  2023-10-27 13:54:27.621906
543  2023-10-27 13:54:27.669745
544  2023-10-27 13:54:27.717668
545  2023-10-27 13:54:27.749565
546  2023-10-27 13:54:27.796407
547  2023-10-27 13:54:27.843425
548  2023-10-27 13:54:27.875233
549  2023-10-27 13:54:27.923127
550  2023-10-27 13:54:27.955026
551  2023-10-27 13:54:28.002854
552  2023-10-27 13:54:28.050753
553  2023-10-27 13:54:28.082642
554  2023-10-27 13:54:28.130513
555  2023-10-27 13:54:28.162429
556  2023-10-27 13:54:28.210341
557  2023-10-27 13:54:28.257174
558  2023-10-27 13:54:28.289094
559  2023-10-27 13:54:28.336961
560  2023-10-27 13:54:28.384961
561  2023-10-27 13:54:28.417747
562  2023-10-27 13:54:28.462625
563  2023-10-27 13:54:28.510497
564  2023-10-27 13:54:28.542411
565  2023-10-27 13:54:28.590283
566  2023-10-27 13:54:28.622198
567  2023-10-27 13:54:28.670070
568  2023-10-27 13:54:28.717942
569  2023-10-27 13:54:28.749963
570  2023-10-27 13:54:28.797835
571  2023-10-27 13:54:28.829750
572  2023-10-27 13:54:28.877706
573  2023-10-27 13:54:28.925494
574  2023-10-27 13:54:28.956411
575  2023-10-27 13:54:29.003286
576  2023-10-27 13:54:29.051267
577  2023-10-27 13:54:29.081212
578  2023-10-27 13:54:29.127151
579  2023-10-27 13:54:29.175187
580  2023-10-27 13:54:29.205121
581  2023-10-27 13:54:29.252941
582  2023-10-27 13:54:29.299815
583  2023-10-27 13:54:29.331729
584  2023-10-27 13:54:29.379642
585  2023-10-27 13:54:29.426476
586  2023-10-27 13:54:29.457393
587  2023-10-27 13:54:29.504268
588  2023-10-27 13:54:29.552141
589  2023-10-27 13:54:29.584055
590  2023-10-27 13:54:29.630929
591  2023-10-27 13:54:29.676807
592  2023-10-27 13:54:29.707724
593  2023-10-27 13:54:29.755596
594  2023-10-27 13:54:29.787510
595  2023-10-27 13:54:29.835383
596  2023-10-27 13:54:29.883255
597  2023-10-27 13:54:29.915169
598  2023-10-27 13:54:29.961088
599  2023-10-27 13:54:30.008963
600  2023-10-27 13:54:30.040873
601  2023-10-27 13:54:30.088749
602  2023-10-27 13:54:30.120661
603  2023-10-27 13:54:30.168539
604  2023-10-27 13:54:30.216527
605  2023-10-27 13:54:30.247445
606  2023-10-27 13:54:30.294433
607  2023-10-27 13:54:30.342270
608  2023-10-27 13:54:30.373227
609  2023-10-27 13:54:30.421089
610  2023-10-27 13:54:30.468932
611  2023-10-27 13:54:30.499850
612  2023-10-27 13:54:30.547771
613  2023-10-27 13:54:30.593599
614  2023-10-27 13:54:30.624676
615  2023-10-27 13:54:30.672548
616  2023-10-27 13:54:30.704462
617  2023-10-27 13:54:30.751337
618  2023-10-27 13:54:30.798212
619  2023-10-27 13:54:30.830126
620  2023-10-27 13:54:30.877998
621  2023-10-27 13:54:30.925873
622  2023-10-27 13:54:30.957785
623  2023-10-27 13:54:31.004660
624  2023-10-27 13:54:31.051534
625  2023-10-27 13:54:31.082486
626  2023-10-27 13:54:31.129361
627  2023-10-27 13:54:31.177232
628  2023-10-27 13:54:31.209169
629  2023-10-27 13:54:31.257029
630  2023-10-27 13:54:31.288953
631  2023-10-27 13:54:31.336812
632  2023-10-27 13:54:31.384678
633  2023-10-27 13:54:31.416597
634  2023-10-27 13:54:31.464469
635  2023-10-27 13:54:31.496382
636  2023-10-27 13:54:31.544217
637  2023-10-27 13:54:31.592138
638  2023-10-27 13:54:31.624039
639  2023-10-27 13:54:31.671919
640  2023-10-27 13:54:31.718792
641  2023-10-27 13:54:31.749709
642  2023-10-27 13:54:31.796582
643  2023-10-27 13:54:31.843453
644  2023-10-27 13:54:31.875334
645  2023-10-27 13:54:31.923229
646  2023-10-27 13:54:31.955156
647  2023-10-27 13:54:31.999999
648  2023-10-27 13:54:32.044879
649  2023-10-27 13:54:32.092751
650  2023-10-27 13:54:32.123668
651  2023-10-27 13:54:32.170585
652  2023-10-27 13:54:32.218415
653  2023-10-27 13:54:32.250116
654  2023-10-27 13:54:32.298018
655  2023-10-27 13:54:32.329930
656  2023-10-27 13:54:32.377858
657  2023-10-27 13:54:32.425771
658  2023-10-27 13:54:32.457685
659  2023-10-27 13:54:32.504399
660  2023-10-27 13:54:32.550764
661  2023-10-27 13:54:32.582648
662  2023-10-27 13:54:32.630652
663  2023-10-27 13:54:32.676518
664  2023-10-27 13:54:32.706708
665  2023-10-27 13:54:32.755632
666  2023-10-27 13:54:32.799570
667  2023-10-27 13:54:32.830487
668  2023-10-27 13:54:32.878359
669  2023-10-27 13:54:32.926232
670  2023-10-27 13:54:32.958146
671  2023-10-27 13:54:33.005153
672  2023-10-27 13:54:33.051114
673  2023-10-27 13:54:33.081989
674  2023-10-27 13:54:33.129861
675  2023-10-27 13:54:33.176807
676  2023-10-27 13:54:33.206791
677  2023-10-27 13:54:33.253648
678  2023-10-27 13:54:33.301506
679  2023-10-27 13:54:33.332427
680  2023-10-27 13:54:33.377465
681  2023-10-27 13:54:33.425301
682  2023-10-27 13:54:33.458280
683  2023-10-27 13:54:33.504317
684  2023-10-27 13:54:33.551254
685  2023-10-27 13:54:33.583169
686  2023-10-27 13:54:33.631041
687  2023-10-27 13:54:33.676918
688  2023-10-27 13:54:33.708833
689  2023-10-27 13:54:33.754710
690  2023-10-27 13:54:33.800627
691  2023-10-27 13:54:33.831543
692  2023-10-27 13:54:33.878419
693  2023-10-27 13:54:33.925297
694  2023-10-27 13:54:33.956197
695  2023-10-27 13:54:34.003078
696  2023-10-27 13:54:34.049961
697  2023-10-27 13:54:34.082868
698  2023-10-27 13:54:34.127713
699  2023-10-27 13:54:34.175585
700  2023-10-27 13:54:34.207500
701  2023-10-27 13:54:34.254810
702  2023-10-27 13:54:34.300688
703  2023-10-27 13:54:34.332602
704  2023-10-27 13:54:34.380484
705  2023-10-27 13:54:34.412389
706  2023-10-27 13:54:34.459264
707  2023-10-27 13:54:34.506174
708  2023-10-27 13:54:34.552065
709  2023-10-27 13:54:34.583987
710  2023-10-27 13:54:34.631842
711  2023-10-27 13:54:34.663810
712  2023-10-27 13:54:34.711799
713  2023-10-27 13:54:34.759671
714  2023-10-27 13:54:34.791614
715  2023-10-27 13:54:34.839486
716  2023-10-27 13:54:34.871404
717  2023-10-27 13:54:34.917279
718  2023-10-27 13:54:34.964274
719  2023-10-27 13:54:35.010253
720  2023-10-27 13:54:35.042154
721  2023-10-27 13:54:35.090067
722  2023-10-27 13:54:35.121972
723  2023-10-27 13:54:35.168857
724  2023-10-27 13:54:35.216687
725  2023-10-27 13:54:35.246605
726  2023-10-27 13:54:35.294477
727  2023-10-27 13:54:35.340355
728  2023-10-27 13:54:35.372269
729  2023-10-27 13:54:35.420141
730  2023-10-27 13:54:35.468013
731  2023-10-27 13:54:35.498931
732  2023-10-27 13:54:35.545805
733  2023-10-27 13:54:35.593823
734  2023-10-27 13:54:35.625750
735  2023-10-27 13:54:35.673665
736  2023-10-27 13:54:35.705637
737  2023-10-27 13:54:35.752568
738  2023-10-27 13:54:35.799413
739  2023-10-27 13:54:35.831445
740  2023-10-27 13:54:35.879307
741  2023-10-27 13:54:35.927203
742  2023-10-27 13:54:35.959096
743  2023-10-27 13:54:36.006962
744  2023-10-27 13:54:36.038885
745  2023-10-27 13:54:36.086752
746  2023-10-27 13:54:36.134627
747  2023-10-27 13:54:36.166541
748  2023-10-27 13:54:36.214415
749  2023-10-27 13:54:36.246330
750  2023-10-27 13:54:36.294205
751  2023-10-27 13:54:36.342039
752  2023-10-27 13:54:36.374026
753  2023-10-27 13:54:36.421950
754  2023-10-27 13:54:36.453857
755  2023-10-27 13:54:36.499814
756  2023-10-27 13:54:36.544746
757  2023-10-27 13:54:36.592650
758  2023-10-27 13:54:36.624533
759  2023-10-27 13:54:36.673530
760  2023-10-27 13:54:36.705645
761  2023-10-27 13:54:36.752479
762  2023-10-27 13:54:36.800350
763  2023-10-27 13:54:36.831467
764  2023-10-27 13:54:36.878342
765  2023-10-27 13:54:36.926214
766  2023-10-27 13:54:36.958260
767  2023-10-27 13:54:37.007230
768  2023-10-27 13:54:37.052332
769  2023-10-27 13:54:37.083291
770  2023-10-27 13:54:37.129207
771  2023-10-27 13:54:37.177041
772  2023-10-27 13:54:37.208042
773  2023-10-27 13:54:37.254969
774  2023-10-27 13:54:37.301837
775  2023-10-27 13:54:37.332800
776  2023-10-27 13:54:37.380672
777  2023-10-27 13:54:37.412589
778  2023-10-27 13:54:37.460460
779  2023-10-27 13:54:37.507302
780  2023-10-27 13:54:37.538255
781  2023-10-27 13:54:37.586091
782  2023-10-27 13:54:37.633996
783  2023-10-27 13:54:37.664912
784  2023-10-27 13:54:37.711043
785  2023-10-27 13:54:37.757052
786  2023-10-27 13:54:37.788066
787  2023-10-27 13:54:37.836077
788  2023-10-27 13:54:37.884061
789  2023-10-27 13:54:37.916231
790  2023-10-27 13:54:37.963970
791  2023-10-27 13:54:37.995885
792  2023-10-27 13:54:38.043757
793  2023-10-27 13:54:38.091629
794  2023-10-27 13:54:38.123678
795  2023-10-27 13:54:38.169453
796  2023-10-27 13:54:38.217293
797  2023-10-27 13:54:38.249208
798  2023-10-27 13:54:38.295134
799  2023-10-27 13:54:38.341995
800  2023-10-27 13:54:38.372912
801  2023-10-27 13:54:38.420630
802  2023-10-27 13:54:38.468604
803  2023-10-27 13:54:38.500521
804  2023-10-27 13:54:38.547393
805  2023-10-27 13:54:38.579405
806  2023-10-27 13:54:38.626275
807  2023-10-27 13:54:38.673143
808  2023-10-27 13:54:38.705069
809  2023-10-27 13:54:38.752029
810  2023-10-27 13:54:38.796964
811  2023-10-27 13:54:38.828879
812  2023-10-27 13:54:38.876751
813  2023-10-27 13:54:38.924623
814  2023-10-27 13:54:38.956538
815  2023-10-27 13:54:39.004506
816  2023-10-27 13:54:39.052385
817  2023-10-27 13:54:39.084431
818  2023-10-27 13:54:39.132303
819  2023-10-27 13:54:39.164217
820  2023-10-27 13:54:39.212095
821  2023-10-27 13:54:39.259961
822  2023-10-27 13:54:39.289963
823  2023-10-27 13:54:39.337796
824  2023-10-27 13:54:39.385845
825  2023-10-27 13:54:39.417804
826  2023-10-27 13:54:39.465836
827  2023-10-27 13:54:39.495788
828  2023-10-27 13:54:39.542693
829  2023-10-27 13:54:39.589604
830  2023-10-27 13:54:39.621489
831  2023-10-27 13:54:39.669438
832  2023-10-27 13:54:39.716321
833  2023-10-27 13:54:39.748200
834  2023-10-27 13:54:39.794127
835  2023-10-27 13:54:39.841950
836  2023-10-27 13:54:39.873864
837  2023-10-27 13:54:39.921771
838  2023-10-27 13:54:39.968709
839  2023-10-27 13:54:40.000523
840  2023-10-27 13:54:40.048395
841  2023-10-27 13:54:40.080341
842  2023-10-27 13:54:40.128182
843  2023-10-27 13:54:40.174178
844  2023-10-27 13:54:40.205944
845  2023-10-27 13:54:40.253815
846  2023-10-27 13:54:40.298695
847  2023-10-27 13:54:40.329645
848  2023-10-27 13:54:40.377484
849  2023-10-27 13:54:40.424397
850  2023-10-27 13:54:40.456273
851  2023-10-27 13:54:40.504202
852  2023-10-27 13:54:40.552051
853  2023-10-27 13:54:40.583965
854  2023-10-27 13:54:40.631840
855  2023-10-27 13:54:40.663749
856  2023-10-27 13:54:40.711624
857  2023-10-27 13:54:40.759495
858  2023-10-27 13:54:40.791410
859  2023-10-27 13:54:40.838255
860  2023-10-27 13:54:40.885159
861  2023-10-27 13:54:40.916089
862  2023-10-27 13:54:40.962952
863  2023-10-27 13:54:41.009808
864  2023-10-27 13:54:41.040742
865  2023-10-27 13:54:41.088616
866  2023-10-27 13:54:41.120531
867  2023-10-27 13:54:41.168406
868  2023-10-27 13:54:41.216273
869  2023-10-27 13:54:41.248189
870  2023-10-27 13:54:41.295066
871  2023-10-27 13:54:41.341918
872  2023-10-27 13:54:41.372868
873  2023-10-27 13:54:41.419699
874  2023-10-27 13:54:41.466710
875  2023-10-27 13:54:41.497520
876  2023-10-27 13:54:41.543368
877  2023-10-27 13:54:41.590274
878  2023-10-27 13:54:41.620599
879  2023-10-27 13:54:41.666556
880  2023-10-27 13:54:41.714464
881  2023-10-27 13:54:41.760296
882  2023-10-27 13:54:41.792245
883  2023-10-27 13:54:41.840117
884  2023-10-27 13:54:41.872031
885  2023-10-27 13:54:41.919869
886  2023-10-27 13:54:41.967780
887  2023-10-27 13:54:41.997709
888  2023-10-27 13:54:42.045541
889  2023-10-27 13:54:42.092408
890  2023-10-27 13:54:42.123325
891  2023-10-27 13:54:42.169251
892  2023-10-27 13:54:42.217207
893  2023-10-27 13:54:42.249082
894  2023-10-27 13:54:42.297033
895  2023-10-27 13:54:42.328958
896  2023-10-27 13:54:42.376859
897  2023-10-27 13:54:42.423784
898  2023-10-27 13:54:42.454653
899  2023-10-27 13:54:42.502555
900  2023-10-27 13:54:42.550425
901  2023-10-27 13:54:42.582344
902  2023-10-27 13:54:42.630217
903  2023-10-27 13:54:42.677113
904  2023-10-27 13:54:42.709003
905  2023-10-27 13:54:42.756845
906  2023-10-27 13:54:42.802753
907  2023-10-27 13:54:42.834635
908  2023-10-27 13:54:42.882507
909  2023-10-27 13:54:42.914468
910  2023-10-27 13:54:42.962295
911  2023-10-27 13:54:43.009214
912  2023-10-27 13:54:43.039121
913  2023-10-27 13:54:43.086994
914  2023-10-27 13:54:43.134867
915  2023-10-27 13:54:43.166782
916  2023-10-27 13:54:43.212734
917  2023-10-27 13:54:43.260606
918  2023-10-27 13:54:43.292564
919  2023-10-27 13:54:43.340394
920  2023-10-27 13:54:43.372388
921  2023-10-27 13:54:43.420184
922  2023-10-27 13:54:43.468184
923  2023-10-27 13:54:43.499141
924  2023-10-27 13:54:43.545030
925  2023-10-27 13:54:43.591942
926  2023-10-27 13:54:43.622875
927  2023-10-27 13:54:43.669727
928  2023-10-27 13:54:43.716603
929  2023-10-27 13:54:43.747682
930  2023-10-27 13:54:43.794555
931  2023-10-27 13:54:43.840562
932  2023-10-27 13:54:43.872462
933  2023-10-27 13:54:43.919300
934  2023-10-27 13:54:43.965210
935  2023-10-27 13:54:43.996127
936  2023-10-27 13:54:44.043968
937  2023-10-27 13:54:44.090842
938  2023-10-27 13:54:44.122756
939  2023-10-27 13:54:44.170629
940  2023-10-27 13:54:44.217503
941  2023-10-27 13:54:44.248421
942  2023-10-27 13:54:44.296325
943  2023-10-27 13:54:44.343167
944  2023-10-27 13:54:44.375082
945  2023-10-27 13:54:44.422990
946  2023-10-27 13:54:44.454904
947  2023-10-27 13:54:44.502774
948  2023-10-27 13:54:44.548650
949  2023-10-27 13:54:44.580534
950  2023-10-27 13:54:44.628438
951  2023-10-27 13:54:44.676308
952  2023-10-27 13:54:44.708234
953  2023-10-27 13:54:44.757062
954  2023-10-27 13:54:44.788011
955  2023-10-27 13:54:44.835885
956  2023-10-27 13:54:44.883755
957  2023-10-27 13:54:44.915669
958  2023-10-27 13:54:44.962542
959  2023-10-27 13:54:45.009418
960  2023-10-27 13:54:45.041337
961  2023-10-27 13:54:45.089213
962  2023-10-27 13:54:45.121161
963  2023-10-27 13:54:45.168994
964  2023-10-27 13:54:45.215892
965  2023-10-27 13:54:45.247794
966  2023-10-27 13:54:45.294664
967  2023-10-27 13:54:45.341528
968  2023-10-27 13:54:45.373443
969  2023-10-27 13:54:45.421316
970  2023-10-27 13:54:45.469187
971  2023-10-27 13:54:45.501105
972  2023-10-27 13:54:45.548944
973  2023-10-27 13:54:45.580858
974  2023-10-27 13:54:45.628730
975  2023-10-27 13:54:45.676636
976  2023-10-27 13:54:45.708551
977  2023-10-27 13:54:45.756426
978  2023-10-27 13:54:45.788338
979  2023-10-27 13:54:45.836212
980  2023-10-27 13:54:45.884079
981  2023-10-27 13:54:45.915994
982  2023-10-27 13:54:45.963891
983  2023-10-27 13:54:45.995750
984  2023-10-27 13:54:46.043654
985  2023-10-27 13:54:46.090496
986  2023-10-27 13:54:46.121413
987  2023-10-27 13:54:46.169317
988  2023-10-27 13:54:46.217157
989  2023-10-27 13:54:46.249108
990  2023-10-27 13:54:46.296976
991  2023-10-27 13:54:46.328896
992  2023-10-27 13:54:46.374828
993  2023-10-27 13:54:46.422734
994  2023-10-27 13:54:46.454660
995  2023-10-27 13:54:46.500533
996  2023-10-27 13:54:46.547398
997  2023-10-27 13:54:46.579318
998  2023-10-27 13:54:46.627199
999  2023-10-27 13:54:46.675060
1000  2023-10-27 13:54:46.706976
1001  2023-10-27 13:54:46.754855
1002  2023-10-27 13:54:46.802178
1003  2023-10-27 13:54:46.834134
1004  2023-10-27 13:54:46.882044
1005  2023-10-27 13:54:46.913959
1006  2023-10-27 13:54:46.960870
1007  2023-10-27 13:54:47.007746
1008  2023-10-27 13:54:47.038690
1009  2023-10-27 13:54:47.085536
1010  2023-10-27 13:54:47.132406
1011  2023-10-27 13:54:47.163458
1012  2023-10-27 13:54:47.211176
1013  2023-10-27 13:54:47.259090
1014  2023-10-27 13:54:47.292001
1015  2023-10-27 13:54:47.338863
1016  2023-10-27 13:54:47.370778
1017  2023-10-27 13:54:47.417612
1018  2023-10-27 13:54:47.465619
1019  2023-10-27 13:54:47.510401
1020  2023-10-27 13:54:47.542279
1021  2023-10-27 13:54:47.588204
1022  2023-10-27 13:54:47.636059
1023  2023-10-27 13:54:47.667990
1024  2023-10-27 13:54:47.715891
1025  2023-10-27 13:54:47.747780
1026  2023-10-27 13:54:47.794685
1027  2023-10-27 13:54:47.841597
1028  2023-10-27 13:54:47.873542
1029  2023-10-27 13:54:47.921414
1030  2023-10-27 13:54:47.969287
1031  2023-10-27 13:54:47.999215
1032  2023-10-27 13:54:48.047088
1033  2023-10-27 13:54:48.079009
1034  2023-10-27 13:54:48.126868
1035  2023-10-27 13:54:48.173745
1036  2023-10-27 13:54:48.205655
1037  2023-10-27 13:54:48.252531
1038  2023-10-27 13:54:48.299403
1039  2023-10-27 13:54:48.329342
1040  2023-10-27 13:54:48.377165
1041  2023-10-27 13:54:48.424069
1042  2023-10-27 13:54:48.456021
1043  2023-10-27 13:54:48.502864
1044  2023-10-27 13:54:48.549737
1045  2023-10-27 13:54:48.581648
1046  2023-10-27 13:54:48.629521
1047  2023-10-27 13:54:48.676399
1048  2023-10-27 13:54:48.708314
1049  2023-10-27 13:54:48.755194
1050  2023-10-27 13:54:48.802030
1051  2023-10-27 13:54:48.832981
1052  2023-10-27 13:54:48.880820
1053  2023-10-27 13:54:48.912775
1054  2023-10-27 13:54:48.958666
1055  2023-10-27 13:54:49.006647
1056  2023-10-27 13:54:49.038570
1057  2023-10-27 13:54:49.086426
1058  2023-10-27 13:54:49.134306
1059  2023-10-27 13:54:49.166210
1060  2023-10-27 13:54:49.213091
1061  2023-10-27 13:54:49.259965
1062  2023-10-27 13:54:49.291888
1063  2023-10-27 13:54:49.339746
1064  2023-10-27 13:54:49.371676
1065  2023-10-27 13:54:49.419532
1066  2023-10-27 13:54:49.465414
1067  2023-10-27 13:54:49.497347
1068  2023-10-27 13:54:49.545209
1069  2023-10-27 13:54:49.593038
1070  2023-10-27 13:54:49.623987
1071  2023-10-27 13:54:49.670909
1072  2023-10-27 13:54:49.716790
1073  2023-10-27 13:54:49.747671
1074  2023-10-27 13:54:49.794580
1075  2023-10-27 13:54:49.840460
1076  2023-10-27 13:54:49.873334
1077  2023-10-27 13:54:49.918248
1078  2023-10-27 13:54:49.966128
1079  2023-10-27 13:54:49.997037
1080  2023-10-27 13:54:50.042914
1081  2023-10-27 13:54:50.089789
1082  2023-10-27 13:54:50.120674
1083  2023-10-27 13:54:50.168584
1084  2023-10-27 13:54:50.216449
1085  2023-10-27 13:54:50.249376
1086  2023-10-27 13:54:50.293249
1087  2023-10-27 13:54:50.341083
1088  2023-10-27 13:54:50.371041
1089  2023-10-27 13:54:50.417878
1090  2023-10-27 13:54:50.463884
1091  2023-10-27 13:54:50.509673
1092  2023-10-27 13:54:50.541578
1093  2023-10-27 13:54:50.587468
1094  2023-10-27 13:54:50.635332
1095  2023-10-27 13:54:50.667242
1096  2023-10-27 13:54:50.715118
1097  2023-10-27 13:54:50.746003
1098  2023-10-27 13:54:50.792902
1099  2023-10-27 13:54:50.840749
1100  2023-10-27 13:54:50.870700
1101  2023-10-27 13:54:50.917577
1102  2023-10-27 13:54:50.963457
1103  2023-10-27 13:54:51.010335
1104  2023-10-27 13:54:51.042254
1105  2023-10-27 13:54:51.090081
1106  2023-10-27 13:54:51.121996
1107  2023-10-27 13:54:51.169880
1108  2023-10-27 13:54:51.217740
1109  2023-10-27 13:54:51.249655
1110  2023-10-27 13:54:51.297526
1111  2023-10-27 13:54:51.343468
1112  2023-10-27 13:54:51.374385
1113  2023-10-27 13:54:51.421292
1114  2023-10-27 13:54:51.468267
1115  2023-10-27 13:54:51.499182
1116  2023-10-27 13:54:51.547312
1117  2023-10-27 13:54:51.593831
1118  2023-10-27 13:54:51.625734
1119  2023-10-27 13:54:51.673697
1120  2023-10-27 13:54:51.705607
1121  2023-10-27 13:54:51.753491
1122  2023-10-27 13:54:51.800369
1123  2023-10-27 13:54:51.830285
1124  2023-10-27 13:54:51.878146
1125  2023-10-27 13:54:51.926018
1126  2023-10-27 13:54:51.956936
1127  2023-10-27 13:54:52.004802
1128  2023-10-27 13:54:52.052675
1129  2023-10-27 13:54:52.083563
1130  2023-10-27 13:54:52.130438
1131  2023-10-27 13:54:52.176350
1132  2023-10-27 13:54:52.208230
1133  2023-10-27 13:54:52.254133
1134  2023-10-27 13:54:52.302015
1135  2023-10-27 13:54:52.333892
1136  2023-10-27 13:54:52.381798
1137  2023-10-27 13:54:52.413828
1138  2023-10-27 13:54:52.461705
1139  2023-10-27 13:54:52.509572
1140  2023-10-27 13:54:52.541482
1141  2023-10-27 13:54:52.589364
1142  2023-10-27 13:54:52.621272
1143  2023-10-27 13:54:52.669149
1144  2023-10-27 13:54:52.717020
1145  2023-10-27 13:54:52.747937
1146  2023-10-27 13:54:52.794824
1147  2023-10-27 13:54:52.842678
1148  2023-10-27 13:54:52.874592
1149  2023-10-27 13:54:52.921468
1150  2023-10-27 13:54:52.968345
1151  2023-10-27 13:54:52.999266
1152  2023-10-27 13:54:53.047142
1153  2023-10-27 13:54:53.079056
1154  2023-10-27 13:54:53.126887
1155  2023-10-27 13:54:53.175834
1156  2023-10-27 13:54:53.207699
1157  2023-10-27 13:54:53.253582
1158  2023-10-27 13:54:53.301454
1159  2023-10-27 13:54:53.333366
1160  2023-10-27 13:54:53.381244
1161  2023-10-27 13:54:53.413157
1162  2023-10-27 13:54:53.459996
1163  2023-10-27 13:54:53.507906
1164  2023-10-27 13:54:53.539784
1165  2023-10-27 13:54:53.586673
1166  2023-10-27 13:54:53.633532
1167  2023-10-27 13:54:53.665447
1168  2023-10-27 13:54:53.713350
1169  2023-10-27 13:54:53.760194
1170  2023-10-27 13:54:53.791111
1171  2023-10-27 13:54:53.838023
1172  2023-10-27 13:54:53.883897
1173  2023-10-27 13:54:53.915812
1174  2023-10-27 13:54:53.961686
1175  2023-10-27 13:54:54.007567
1176  2023-10-27 13:54:54.039478
1177  2023-10-27 13:54:54.085357
1178  2023-10-27 13:54:54.132201
1179  2023-10-27 13:54:54.163150
1180  2023-10-27 13:54:54.209999
1181  2023-10-27 13:54:54.257864
1182  2023-10-27 13:54:54.289778
1183  2023-10-27 13:54:54.336652
1184  2023-10-27 13:54:54.384558
1185  2023-10-27 13:54:54.416440
1186  2023-10-27 13:54:54.464311
1187  2023-10-27 13:54:54.510189
1188  2023-10-27 13:54:54.541139
1189  2023-10-27 13:54:54.589010
1190  2023-10-27 13:54:54.620925
1191  2023-10-27 13:54:54.667801
1192  2023-10-27 13:54:54.714706
1193  2023-10-27 13:54:54.746592
1194  2023-10-27 13:54:54.793469
1195  2023-10-27 13:54:54.840337
1196  2023-10-27 13:54:54.872248
1197  2023-10-27 13:54:54.920127
1198  2023-10-27 13:54:54.968000
1199  2023-10-27 13:54:54.999913
1200  2023-10-27 13:54:55.045791
1201  2023-10-27 13:54:55.094670
1202  2023-10-27 13:54:55.124546
1203  2023-10-27 13:54:55.171432
1204  2023-10-27 13:54:55.219341
1205  2023-10-27 13:54:55.251241
1206  2023-10-27 13:54:55.298083
1207  2023-10-27 13:54:55.328999
1208  2023-10-27 13:54:55.375874
1209  2023-10-27 13:54:55.423746
1210  2023-10-27 13:54:55.454663
1211  2023-10-27 13:54:55.501576
1212  2023-10-27 13:54:55.548445
1213  2023-10-27 13:54:55.579362
1214  2023-10-27 13:54:55.626239
1215  2023-10-27 13:54:55.673116
1216  2023-10-27 13:54:55.705031
1217  2023-10-27 13:54:55.752901
1218  2023-10-27 13:54:55.800776
1219  2023-10-27 13:54:55.832689
1220  2023-10-27 13:54:55.880820
1221  2023-10-27 13:54:55.912739
1222  2023-10-27 13:54:55.960603
1223  2023-10-27 13:54:56.006484
1224  2023-10-27 13:54:56.038398
1225  2023-10-27 13:54:56.087266
1226  2023-10-27 13:54:56.133154
1227  2023-10-27 13:54:56.164030
1228  2023-10-27 13:54:56.211942
1229  2023-10-27 13:54:56.259787
1230  2023-10-27 13:54:56.291686
1231  2023-10-27 13:54:56.339558
1232  2023-10-27 13:54:56.371484
1233  2023-10-27 13:54:56.419381
1234  2023-10-27 13:54:56.467218
1235  2023-10-27 13:54:56.498135
1236  2023-10-27 13:54:56.545042
1237  2023-10-27 13:54:56.591884
1238  2023-10-27 13:54:56.623798
1239  2023-10-27 13:54:56.669676
1240  2023-10-27 13:54:56.715592
1241  2023-10-27 13:54:56.747507
1242  2023-10-27 13:54:56.795374
1243  2023-10-27 13:54:56.842268
1244  2023-10-27 13:54:56.873163
1245  2023-10-27 13:54:56.921044
1246  2023-10-27 13:54:56.966916
1247  2023-10-27 13:54:56.997946
1248  2023-10-27 13:54:57.043774
1249  2023-10-27 13:54:57.090628
1250  2023-10-27 13:54:57.121535
1251  2023-10-27 13:54:57.169407
1252  2023-10-27 13:54:57.217279
1253  2023-10-27 13:54:57.250225
1254  2023-10-27 13:54:57.295071
1255  2023-10-27 13:54:57.342943
1256  2023-10-27 13:54:57.374857
1257  2023-10-27 13:54:57.422729
1258  2023-10-27 13:54:57.454644
1259  2023-10-27 13:54:57.500561
1260  2023-10-27 13:54:57.546456
1261  2023-10-27 13:54:57.594306
1262  2023-10-27 13:54:57.626215
1263  2023-10-27 13:54:57.674094
1264  2023-10-27 13:54:57.706004
1265  2023-10-27 13:54:57.753880
1266  2023-10-27 13:54:57.801749
1267  2023-10-27 13:54:57.833666
1268  2023-10-27 13:54:57.881536
1269  2023-10-27 13:54:57.912455
1270  2023-10-27 13:54:57.959330
1271  2023-10-27 13:54:58.007207
1272  2023-10-27 13:54:58.039117
1273  2023-10-27 13:54:58.086989
1274  2023-10-27 13:54:58.134861
1275  2023-10-27 13:54:58.164777
1276  2023-10-27 13:54:58.212868
1277  2023-10-27 13:54:58.260739
1278  2023-10-27 13:54:58.292656
1279  2023-10-27 13:54:58.340541
1280  2023-10-27 13:54:58.372617
1281  2023-10-27 13:54:58.419319
1282  2023-10-27 13:54:58.467184
1283  2023-10-27 13:54:58.499067
1284  2023-10-27 13:54:58.546972
1285  2023-10-27 13:54:58.578866
1286  2023-10-27 13:54:58.626758
1287  2023-10-27 13:54:58.674645
1288  2023-10-27 13:54:58.706558
1289  2023-10-27 13:54:58.752565
1290  2023-10-27 13:54:58.799551
1291  2023-10-27 13:54:58.830468
1292  2023-10-27 13:54:58.878340
1293  2023-10-27 13:54:58.925215
1294  2023-10-27 13:54:58.956627
1295  2023-10-27 13:54:59.004499
1296  2023-10-27 13:54:59.052371
1297  2023-10-27 13:54:59.084285
1298  2023-10-27 13:54:59.132158
1299  2023-10-27 13:54:59.163075
1300  2023-10-27 13:54:59.209988
1301  2023-10-27 13:54:59.256906
1302  2023-10-27 13:54:59.287780
1303  2023-10-27 13:54:59.335648
1304  2023-10-27 13:54:59.383522
1305  2023-10-27 13:54:59.415432
1306  2023-10-27 13:54:59.461278
1307  2023-10-27 13:54:59.509150
1308  2023-10-27 13:54:59.540103
1309  2023-10-27 13:54:59.586135
1310  2023-10-27 13:54:59.631098
1311  2023-10-27 13:54:59.663012
1312  2023-10-27 13:54:59.710884
1313  2023-10-27 13:54:59.758756
1314  2023-10-27 13:54:59.790680
1315  2023-10-27 13:54:59.838543
1316  2023-10-27 13:54:59.870458
1317  2023-10-27 13:54:59.918330
1318  2023-10-27 13:54:59.965204
1319  2023-10-27 13:54:59.996122
1320  2023-10-27 13:55:00.043994
1321  2023-10-27 13:55:00.091901
1322  2023-10-27 13:55:00.122814
1323  2023-10-27 13:55:00.169690
1324  2023-10-27 13:55:00.215586
1325  2023-10-27 13:55:00.246485
1326  2023-10-27 13:55:00.293359
1327  2023-10-27 13:55:00.339356
1328  2023-10-27 13:55:00.371239
1329  2023-10-27 13:55:00.419160
1330  2023-10-27 13:55:00.468021
1331  2023-10-27 13:55:00.498025
1332  2023-10-27 13:55:00.544886
1333  2023-10-27 13:55:00.592758
1334  2023-10-27 13:55:00.624673
1335  2023-10-27 13:55:00.670552
1336  2023-10-27 13:55:00.718422
1337  2023-10-27 13:55:00.750423
1338  2023-10-27 13:55:00.798209
1339  2023-10-27 13:55:00.830123
1340  2023-10-27 13:55:00.877995
1341  2023-10-27 13:55:00.923873
1342  2023-10-27 13:55:00.955787
1343  2023-10-27 13:55:01.003660
1344  2023-10-27 13:55:01.051531
1345  2023-10-27 13:55:01.083482
1346  2023-10-27 13:55:01.131318
1347  2023-10-27 13:55:01.162268
1348  2023-10-27 13:55:01.209159
1349  2023-10-27 13:55:01.257032
1350  2023-10-27 13:55:01.288938
1351  2023-10-27 13:55:01.335806
1352  2023-10-27 13:55:01.381682
1353  2023-10-27 13:55:01.413596
1354  2023-10-27 13:55:01.461469
1355  2023-10-27 13:55:01.509338
1356  2023-10-27 13:55:01.541208
1357  2023-10-27 13:55:01.589077
1358  2023-10-27 13:55:01.621002
1359  2023-10-27 13:55:01.668864
1360  2023-10-27 13:55:01.716814
1361  2023-10-27 13:55:01.748718
1362  2023-10-27 13:55:01.797555
1363  2023-10-27 13:55:01.844476
1364  2023-10-27 13:55:01.875378
1365  2023-10-27 13:55:01.924246
1366  2023-10-27 13:55:01.969095
1367  2023-10-27 13:55:02.000012
1368  2023-10-27 13:55:02.045889
1369  2023-10-27 13:55:02.093761
1370  2023-10-27 13:55:02.123682
1371  2023-10-27 13:55:02.171760
1372  2023-10-27 13:55:02.218683
1373  2023-10-27 13:55:02.248424
1374  2023-10-27 13:55:02.296327
1375  2023-10-27 13:55:02.344265
1376  2023-10-27 13:55:02.376286
1377  2023-10-27 13:55:02.424154
1378  2023-10-27 13:55:02.456257
1379  2023-10-27 13:55:02.503956
1380  2023-10-27 13:55:02.551817
1381  2023-10-27 13:55:02.583730
1382  2023-10-27 13:55:02.631606
1383  2023-10-27 13:55:02.663484
1384  2023-10-27 13:55:02.711407
1385  2023-10-27 13:55:02.759273
1386  2023-10-27 13:55:02.790184
1387  2023-10-27 13:55:02.837059
1388  2023-10-27 13:55:02.884929
1389  2023-10-27 13:55:02.915809
1390  2023-10-27 13:55:02.963711
1391  2023-10-27 13:55:03.009749
1392  2023-10-27 13:55:03.040777
1393  2023-10-27 13:55:03.088778
1394  2023-10-27 13:55:03.120693
1395  2023-10-27 13:55:03.166571
1396  2023-10-27 13:55:03.214442
1397  2023-10-27 13:55:03.259323
1398  2023-10-27 13:55:03.290240
1399  2023-10-27 13:55:03.337941
1400  2023-10-27 13:55:03.384940
1401  2023-10-27 13:55:03.415826
1402  2023-10-27 13:55:03.463724
1403  2023-10-27 13:55:03.495643
1404  2023-10-27 13:55:03.541591
1405  2023-10-27 13:55:03.589467
1406  2023-10-27 13:55:03.621371
1407  2023-10-27 13:55:03.669341
1408  2023-10-27 13:55:03.717209
1409  2023-10-27 13:55:03.749129
1410  2023-10-27 13:55:03.796001
1411  2023-10-27 13:55:03.843869
1412  2023-10-27 13:55:03.876787
1413  2023-10-27 13:55:03.922675
1414  2023-10-27 13:55:03.968504
1415  2023-10-27 13:55:03.999421
1416  2023-10-27 13:55:04.045298
1417  2023-10-27 13:55:04.093170
1418  2023-10-27 13:55:04.125085
1419  2023-10-27 13:55:04.172957
1420  2023-10-27 13:55:04.203910
1421  2023-10-27 13:55:04.250757
1422  2023-10-27 13:55:04.296626
1423  2023-10-27 13:55:04.343532
1424  2023-10-27 13:55:04.374570
1425  2023-10-27 13:55:04.422442
1426  2023-10-27 13:55:04.454324
1427  2023-10-27 13:55:04.501199
1428  2023-10-27 13:55:04.548109
1429  2023-10-27 13:55:04.580114
1430  2023-10-27 13:55:04.627898
1431  2023-10-27 13:55:04.676740
1432  2023-10-27 13:55:04.707647
1433  2023-10-27 13:55:04.755554
1434  2023-10-27 13:55:04.787480
1435  2023-10-27 13:55:04.833357
1436  2023-10-27 13:55:04.881224
1437  2023-10-27 13:55:04.914124
1438  2023-10-27 13:55:04.959971
1439  2023-10-27 13:55:05.007850
1440  2023-10-27 13:55:05.040757
1441  2023-10-27 13:55:05.087636
1442  2023-10-27 13:55:05.135502
1443  2023-10-27 13:55:05.165422
1444  2023-10-27 13:55:05.213294
1445  2023-10-27 13:55:05.260169
1446  2023-10-27 13:55:05.291086
1447  2023-10-27 13:55:05.337996
1448  2023-10-27 13:55:05.384873
1449  2023-10-27 13:55:05.416783
1450  2023-10-27 13:55:05.463625
1451  2023-10-27 13:55:05.509502
1452  2023-10-27 13:55:05.540452
1453  2023-10-27 13:55:05.587889
1454  2023-10-27 13:55:05.635743
1455  2023-10-27 13:55:05.667657
1456  2023-10-27 13:55:05.715500
1457  2023-10-27 13:55:05.747443
1458  2023-10-27 13:55:05.795428
1459  2023-10-27 13:55:05.844331
1460  2023-10-27 13:55:05.876212
1461  2023-10-27 13:55:05.923119
1462  2023-10-27 13:55:05.956029
1463  2023-10-27 13:55:06.001905
1464  2023-10-27 13:55:06.048533
1465  2023-10-27 13:55:06.080449
1466  2023-10-27 13:55:06.128417
1467  2023-10-27 13:55:06.176292
1468  2023-10-27 13:55:06.207163
1469  2023-10-27 13:55:06.252088
1470  2023-10-27 13:55:06.300030
1471  2023-10-27 13:55:06.331944
1472  2023-10-27 13:55:06.379816
1473  2023-10-27 13:55:06.425694
1474  2023-10-27 13:55:06.457609
1475  2023-10-27 13:55:06.505514
1476  2023-10-27 13:55:06.537427
1477  2023-10-27 13:55:06.585301
1478  2023-10-27 13:55:06.633139
1479  2023-10-27 13:55:06.665054
1480  2023-10-27 13:55:06.711961
1481  2023-10-27 13:55:06.758847
1482  2023-10-27 13:55:06.790751
1483  2023-10-27 13:55:06.838627
1484  2023-10-27 13:55:06.870537
1485  2023-10-27 13:55:06.918409
1486  2023-10-27 13:55:06.965288
1487  2023-10-27 13:55:06.996214
1488  2023-10-27 13:55:07.044126
1489  2023-10-27 13:55:07.090967
1490  2023-10-27 13:55:07.122882
1491  2023-10-27 13:55:07.170755
1492  2023-10-27 13:55:07.218662
1493  2023-10-27 13:55:07.249545
1494  2023-10-27 13:55:07.297468
1495  2023-10-27 13:55:07.329330
1496  2023-10-27 13:55:07.377237
1497  2023-10-27 13:55:07.424108
1498  2023-10-27 13:55:07.453996
1499  2023-10-27 13:55:07.499874
1500  2023-10-27 13:55:07.546789
1501  2023-10-27 13:55:07.593656
1502  2023-10-27 13:55:07.624574
1503  2023-10-27 13:55:07.672413
1504  2023-10-27 13:55:07.704358
1505  2023-10-27 13:55:07.752374
1506  2023-10-27 13:55:07.800196
1507  2023-10-27 13:55:07.832110
1508  2023-10-27 13:55:07.878023
1509  2023-10-27 13:55:07.925014
1510  2023-10-27 13:55:07.956830
1511  2023-10-27 13:55:08.004688
1512  2023-10-27 13:55:08.051572
1513  2023-10-27 13:55:08.083440
1514  2023-10-27 13:55:08.131431
1515  2023-10-27 13:55:08.163343
1516  2023-10-27 13:55:08.211216
1517  2023-10-27 13:55:08.258094
1518  2023-10-27 13:55:08.289023
1519  2023-10-27 13:55:08.336876
1520  2023-10-27 13:55:08.384757
1521  2023-10-27 13:55:08.415670
1522  2023-10-27 13:55:08.464839
1523  2023-10-27 13:55:08.496754
1524  2023-10-27 13:55:08.543610
1525  2023-10-27 13:55:08.591479
1526  2023-10-27 13:55:08.623417
1527  2023-10-27 13:55:08.671288
1528  2023-10-27 13:55:08.718133
1529  2023-10-27 13:55:08.749369
1530  2023-10-27 13:55:08.794333
1531  2023-10-27 13:55:08.841207
1532  2023-10-27 13:55:08.872124
1533  2023-10-27 13:55:08.918999
1534  2023-10-27 13:55:08.967092
1535  2023-10-27 13:55:08.998000
1536  2023-10-27 13:55:09.044992
1537  2023-10-27 13:55:09.090860
1538  2023-10-27 13:55:09.122772
1539  2023-10-27 13:55:09.169652
1540  2023-10-27 13:55:09.216539
1541  2023-10-27 13:55:09.247407
1542  2023-10-27 13:55:09.296358
1543  2023-10-27 13:55:09.344355
1544  2023-10-27 13:55:09.376263
1545  2023-10-27 13:55:09.424138
1546  2023-10-27 13:55:09.455051
1547  2023-10-27 13:55:09.500955
1548  2023-10-27 13:55:09.548826
1549  2023-10-27 13:55:09.580741
1550  2023-10-27 13:55:09.628613
1551  2023-10-27 13:55:09.674491
1552  2023-10-27 13:55:09.706405
1553  2023-10-27 13:55:09.753398
1554  2023-10-27 13:55:09.799275
1555  2023-10-27 13:55:09.831190
1556  2023-10-27 13:55:09.877104
1557  2023-10-27 13:55:09.924973
1558  2023-10-27 13:55:09.956886
1559  2023-10-27 13:55:10.004772
1560  2023-10-27 13:55:10.051637
1561  2023-10-27 13:55:10.083516
1562  2023-10-27 13:55:10.131422
1563  2023-10-27 13:55:10.163345
1564  2023-10-27 13:55:10.211176
1565  2023-10-27 13:55:10.259078
1566  2023-10-27 13:55:10.290999
1567  2023-10-27 13:55:10.338866
1568  2023-10-27 13:55:10.370749
1569  2023-10-27 13:55:10.418619
1570  2023-10-27 13:55:10.466525
1571  2023-10-27 13:55:10.498440
1572  2023-10-27 13:55:10.543314
1573  2023-10-27 13:55:10.590193
1574  2023-10-27 13:55:10.622112
1575  2023-10-27 13:55:10.669994
1576  2023-10-27 13:55:10.718818
1577  2023-10-27 13:55:10.749907
1578  2023-10-27 13:55:10.797773
1579  2023-10-27 13:55:10.829648
1580  2023-10-27 13:55:10.878066
1581  2023-10-27 13:55:10.923992
1582  2023-10-27 13:55:10.954909
1583  2023-10-27 13:55:11.000787
1584  2023-10-27 13:55:11.048693
1585  2023-10-27 13:55:11.080718
1586  2023-10-27 13:55:11.128631
1587  2023-10-27 13:55:11.176699
1588  2023-10-27 13:55:11.208614
1589  2023-10-27 13:55:11.256572
1590  2023-10-27 13:55:11.288460
1591  2023-10-27 13:55:11.336358
1592  2023-10-27 13:55:11.384233
1593  2023-10-27 13:55:11.416146
1594  2023-10-27 13:55:11.462985
1595  2023-10-27 13:55:11.509901
1596  2023-10-27 13:55:11.540818
1597  2023-10-27 13:55:11.588686
1598  2023-10-27 13:55:11.620609
1599  2023-10-27 13:55:11.668469
1600  2023-10-27 13:55:11.716339
1601  2023-10-27 13:55:11.748253
1602  2023-10-27 13:55:11.794146
1603  2023-10-27 13:55:11.841972
1604  2023-10-27 13:55:11.873900
1605  2023-10-27 13:55:11.921786
1606  2023-10-27 13:55:11.967676
1607  2023-10-27 13:55:11.999585
1608  2023-10-27 13:55:12.047469
1609  2023-10-27 13:55:12.080369
1610  2023-10-27 13:55:12.127210
1611  2023-10-27 13:55:12.174084
1612  2023-10-27 13:55:12.207027
1613  2023-10-27 13:55:12.254902
1614  2023-10-27 13:55:12.302773
1615  2023-10-27 13:55:12.334684
1616  2023-10-27 13:55:12.381575
1617  2023-10-27 13:55:12.427406
1618  2023-10-27 13:55:12.459323
1619  2023-10-27 13:55:12.505271
1620  2023-10-27 13:55:12.537181
1621  2023-10-27 13:55:12.585098
1622  2023-10-27 13:55:12.633029
1623  2023-10-27 13:55:12.662949
1624  2023-10-27 13:55:12.710860
1625  2023-10-27 13:55:12.758734
1626  2023-10-27 13:55:12.790715
1627  2023-10-27 13:55:12.838588
1628  2023-10-27 13:55:12.870494
1629  2023-10-27 13:55:12.917378
1630  2023-10-27 13:55:12.965211
1631  2023-10-27 13:55:12.996128
1632  2023-10-27 13:55:13.043004
1633  2023-10-27 13:55:13.090999
1634  2023-10-27 13:55:13.121823
1635  2023-10-27 13:55:13.168730
1636  2023-10-27 13:55:13.216594
1637  2023-10-27 13:55:13.247489
1638  2023-10-27 13:55:13.295363
1639  2023-10-27 13:55:13.343234
1640  2023-10-27 13:55:13.375155
1641  2023-10-27 13:55:13.423020
1642  2023-10-27 13:55:13.453905
1643  2023-10-27 13:55:13.500810
1644  2023-10-27 13:55:13.548682
1645  2023-10-27 13:55:13.593531
1646  2023-10-27 13:55:13.625446
1647  2023-10-27 13:55:13.671353
1648  2023-10-27 13:55:13.719227
1649  2023-10-27 13:55:13.751143
1650  2023-10-27 13:55:13.798983
1651  2023-10-27 13:55:13.830897
1652  2023-10-27 13:55:13.878807
1653  2023-10-27 13:55:13.926642
1654  2023-10-27 13:55:13.957599
1655  2023-10-27 13:55:14.003463
1656  2023-10-27 13:55:14.050346
1657  2023-10-27 13:55:14.082227
1658  2023-10-27 13:55:14.129148
1659  2023-10-27 13:55:14.176009
1660  2023-10-27 13:55:14.207916
1661  2023-10-27 13:55:14.255798
1662  2023-10-27 13:55:14.287710
1663  2023-10-27 13:55:14.335580
1664  2023-10-27 13:55:14.382471
1665  2023-10-27 13:55:14.414381
1666  2023-10-27 13:55:14.461213
1667  2023-10-27 13:55:14.508121
1668  2023-10-27 13:55:14.540050
1669  2023-10-27 13:55:14.585917
1670  2023-10-27 13:55:14.633751
1671  2023-10-27 13:55:14.665666
1672  2023-10-27 13:55:14.713567
1673  2023-10-27 13:55:14.745554
1674  2023-10-27 13:55:14.792471
1675  2023-10-27 13:55:14.839380
1676  2023-10-27 13:55:14.871300
1677  2023-10-27 13:55:14.919172
1678  2023-10-27 13:55:14.966007
1679  2023-10-27 13:55:14.996925
1680  2023-10-27 13:55:15.044831
1681  2023-10-27 13:55:15.092669
1682  2023-10-27 13:55:15.123617
1683  2023-10-27 13:55:15.170508
1684  2023-10-27 13:55:15.218366
1685  2023-10-27 13:55:15.250274
1686  2023-10-27 13:55:15.298153
1687  2023-10-27 13:55:15.330081
1688  2023-10-27 13:55:15.376943
1689  2023-10-27 13:55:15.424833
1690  2023-10-27 13:55:15.456731
1691  2023-10-27 13:55:15.504601
1692  2023-10-27 13:55:15.550480
1693  2023-10-27 13:55:15.582410
1694  2023-10-27 13:55:15.630262
1695  2023-10-27 13:55:15.677146
1696  2023-10-27 13:55:15.708055
1697  2023-10-27 13:55:15.755927
1698  2023-10-27 13:55:15.801774
1699  2023-10-27 13:55:15.832690
1700  2023-10-27 13:55:15.880603
1701  2023-10-27 13:55:15.927437
1702  2023-10-27 13:55:15.959387
1703  2023-10-27 13:55:16.007257
1704  2023-10-27 13:55:16.037185
1705  2023-10-27 13:55:16.085061
1706  2023-10-27 13:55:16.132888
1707  2023-10-27 13:55:16.164942
1708  2023-10-27 13:55:16.212677
1709  2023-10-27 13:55:16.260547
1710  2023-10-27 13:55:16.292461
1711  2023-10-27 13:55:16.340372
1712  2023-10-27 13:55:16.372264
1713  2023-10-27 13:55:16.420150
1714  2023-10-27 13:55:16.467994
1715  2023-10-27 13:55:16.500032
1716  2023-10-27 13:55:16.547903
1717  2023-10-27 13:55:16.579854
1718  2023-10-27 13:55:16.627689
1719  2023-10-27 13:55:16.675562
1720  2023-10-27 13:55:16.707523
1721  2023-10-27 13:55:16.755395
1722  2023-10-27 13:55:16.801347
1723  2023-10-27 13:55:16.833188
1724  2023-10-27 13:55:16.881047
1725  2023-10-27 13:55:16.912959
1726  2023-10-27 13:55:16.958850
1727  2023-10-27 13:55:17.006713
1728  2023-10-27 13:55:17.038627
1729  2023-10-27 13:55:17.086497
1730  2023-10-27 13:55:17.134376
1731  2023-10-27 13:55:17.166302
1732  2023-10-27 13:55:17.214246
1733  2023-10-27 13:55:17.246162
1734  2023-10-27 13:55:17.293042
1735  2023-10-27 13:55:17.340876
1736  2023-10-27 13:55:17.370842
1737  2023-10-27 13:55:17.418708
1738  2023-10-27 13:55:17.466572
1739  2023-10-27 13:55:17.498479
1740  2023-10-27 13:55:17.544365
1741  2023-10-27 13:55:17.592238
1742  2023-10-27 13:55:17.623154
1743  2023-10-27 13:55:17.670029
1744  2023-10-27 13:55:17.717903
1745  2023-10-27 13:55:17.749816
1746  2023-10-27 13:55:17.797655
1747  2023-10-27 13:55:17.829570
1748  2023-10-27 13:55:17.876447
1749  2023-10-27 13:55:17.923319
1750  2023-10-27 13:55:17.954238
1751  2023-10-27 13:55:18.001144
1752  2023-10-27 13:55:18.048020
1753  2023-10-27 13:55:18.078938
1754  2023-10-27 13:55:18.125812
1755  2023-10-27 13:55:18.173686
1756  2023-10-27 13:55:18.205599
1757  2023-10-27 13:55:18.253487
1758  2023-10-27 13:55:18.301341
1759  2023-10-27 13:55:18.332258
1760  2023-10-27 13:55:18.380133
1761  2023-10-27 13:55:18.426983
1762  2023-10-27 13:55:18.458889
1763  2023-10-27 13:55:18.506819
1764  2023-10-27 13:55:18.538674
1765  2023-10-27 13:55:18.584586
1766  2023-10-27 13:55:18.632423
1767  2023-10-27 13:55:18.664338
1768  2023-10-27 13:55:18.712240
1769  2023-10-27 13:55:18.760117
1770  2023-10-27 13:55:18.792036
1771  2023-10-27 13:55:18.838904
1772  2023-10-27 13:55:18.885815
1773  2023-10-27 13:55:18.917709
1774  2023-10-27 13:55:18.965655
1775  2023-10-27 13:55:18.996573
1776  2023-10-27 13:55:19.043478
1777  2023-10-27 13:55:19.091319
1778  2023-10-27 13:55:19.122237
1779  2023-10-27 13:55:19.169154
1780  2023-10-27 13:55:19.217026
1781  2023-10-27 13:55:19.248060
1782  2023-10-27 13:55:19.294816
1783  2023-10-27 13:55:19.341683
1784  2023-10-27 13:55:19.372616
1785  2023-10-27 13:55:19.420563
1786  2023-10-27 13:55:19.467437
1787  2023-10-27 13:55:19.498322
1788  2023-10-27 13:55:19.544244
1789  2023-10-27 13:55:19.591107
1790  2023-10-27 13:55:19.623021
1791  2023-10-27 13:55:19.670892
1792  2023-10-27 13:55:19.718773
1793  2023-10-27 13:55:19.749683
1794  2023-10-27 13:55:19.795794
1795  2023-10-27 13:55:19.842705
1796  2023-10-27 13:55:19.874627
1797  2023-10-27 13:55:19.920503
1798  2023-10-27 13:55:19.968367
1799  2023-10-27 13:55:19.999290
1800  2023-10-27 13:55:20.046155
1801  2023-10-27 13:55:20.094032
1802  2023-10-27 13:55:20.125954
1803  2023-10-27 13:55:20.172817
1804  2023-10-27 13:55:20.204734
1805  2023-10-27 13:55:20.252605
1806  2023-10-27 13:55:20.300444
1807  2023-10-27 13:55:20.332359
1808  2023-10-27 13:55:20.380262
1809  2023-10-27 13:55:20.412179
1810  2023-10-27 13:55:20.460049
1811  2023-10-27 13:55:20.507924
1812  2023-10-27 13:55:20.539839
1813  2023-10-27 13:55:20.586713
1814  2023-10-27 13:55:20.634585
1815  2023-10-27 13:55:20.665496
1816  2023-10-27 13:55:20.713379
1817  2023-10-27 13:55:20.761246
1818  2023-10-27 13:55:20.790171
1819  2023-10-27 13:55:20.837045
1820  2023-10-27 13:55:20.884917
1821  2023-10-27 13:55:20.916832
1822  2023-10-27 13:55:20.963807
1823  2023-10-27 13:55:21.010547
1824  2023-10-27 13:55:21.042462
1825  2023-10-27 13:55:21.090333
1826  2023-10-27 13:55:21.122247
1827  2023-10-27 13:55:21.170153
1828  2023-10-27 13:55:21.217028
1829  2023-10-27 13:55:21.248951
1830  2023-10-27 13:55:21.296871
1831  2023-10-27 13:55:21.343705
1832  2023-10-27 13:55:21.375571
1833  2023-10-27 13:55:21.423442
1834  2023-10-27 13:55:21.454395
1835  2023-10-27 13:55:21.501264
1836  2023-10-27 13:55:21.549142
1837  2023-10-27 13:55:21.581054
1838  2023-10-27 13:55:21.627927
1839  2023-10-27 13:55:21.674802
1840  2023-10-27 13:55:21.705699
1841  2023-10-27 13:55:21.752593
1842  2023-10-27 13:55:21.800588
1843  2023-10-27 13:55:21.831353
1844  2023-10-27 13:55:21.880252
1845  2023-10-27 13:55:21.928125
1846  2023-10-27 13:55:21.959049
1847  2023-10-27 13:55:22.006916
1848  2023-10-27 13:55:22.037839
1849  2023-10-27 13:55:22.084708
1850  2023-10-27 13:55:22.132589
1851  2023-10-27 13:55:22.164497
1852  2023-10-27 13:55:22.211369
1853  2023-10-27 13:55:22.258210
1854  2023-10-27 13:55:22.290125
1855  2023-10-27 13:55:22.336002
1856  2023-10-27 13:55:22.383043
1857  2023-10-27 13:55:22.413964
1858  2023-10-27 13:55:22.459917
1859  2023-10-27 13:55:22.505796
1860  2023-10-27 13:55:22.537711
1861  2023-10-27 13:55:22.585591
1862  2023-10-27 13:55:22.632460
1863  2023-10-27 13:55:22.664341
1864  2023-10-27 13:55:22.709256
1865  2023-10-27 13:55:22.757126
1866  2023-10-27 13:55:22.788042
1867  2023-10-27 13:55:22.834991
1868  2023-10-27 13:55:22.882896
1869  2023-10-27 13:55:22.913815
1870  2023-10-27 13:55:22.960782
1871  2023-10-27 13:55:23.006664
1872  2023-10-27 13:55:23.037668
1873  2023-10-27 13:55:23.085536
1874  2023-10-27 13:55:23.132465
1875  2023-10-27 13:55:23.164384
1876  2023-10-27 13:55:23.211258
1877  2023-10-27 13:55:23.257257
1878  2023-10-27 13:55:23.288161
1879  2023-10-27 13:55:23.336033
1880  2023-10-27 13:55:23.383905
1881  2023-10-27 13:55:23.415822
1882  2023-10-27 13:55:23.463702
1883  2023-10-27 13:55:23.508568
1884  2023-10-27 13:55:23.540482
1885  2023-10-27 13:55:23.588476
1886  2023-10-27 13:55:23.635340
1887  2023-10-27 13:55:23.666227
1888  2023-10-27 13:55:23.715176
1889  2023-10-27 13:55:23.760117
1890  2023-10-27 13:55:23.792031
1891  2023-10-27 13:55:23.838940
1892  2023-10-27 13:55:23.885812
1893  2023-10-27 13:55:23.917726
1894  2023-10-27 13:55:23.965598
1895  2023-10-27 13:55:23.997515
1896  2023-10-27 13:55:24.043393
1897  2023-10-27 13:55:24.091261
1898  2023-10-27 13:55:24.121199
1899  2023-10-27 13:55:24.168026
1900  2023-10-27 13:55:24.214934
1901  2023-10-27 13:55:24.247813
1902  2023-10-27 13:55:24.295686
1903  2023-10-27 13:55:24.341562
1904  2023-10-27 13:55:24.372480
1905  2023-10-27 13:55:24.420384
1906  2023-10-27 13:55:24.466229
1907  2023-10-27 13:55:24.498143
1908  2023-10-27 13:55:24.546017
1909  2023-10-27 13:55:24.593887
1910  2023-10-27 13:55:24.625802
1911  2023-10-27 13:55:24.674709
1912  2023-10-27 13:55:24.705622
1913  2023-10-27 13:55:24.752504
1914  2023-10-27 13:55:24.798373
1915  2023-10-27 13:55:24.829288
1916  2023-10-27 13:55:24.877132
1917  2023-10-27 13:55:24.925037
1918  2023-10-27 13:55:24.956963
1919  2023-10-27 13:55:25.004822
1920  2023-10-27 13:55:25.052710
1921  2023-10-27 13:55:25.083579
1922  2023-10-27 13:55:25.131452
1923  2023-10-27 13:55:25.163406
1924  2023-10-27 13:55:25.210272
1925  2023-10-27 13:55:25.257162
1926  2023-10-27 13:55:25.303025
1927  2023-10-27 13:55:25.334908
1928  2023-10-27 13:55:25.379821
1929  2023-10-27 13:55:25.427694
1930  2023-10-27 13:55:25.459574
1931  2023-10-27 13:55:25.506500
1932  2023-10-27 13:55:25.537367
1933  2023-10-27 13:55:25.585268
1934  2023-10-27 13:55:25.633383
1935  2023-10-27 13:55:25.665173
1936  2023-10-27 13:55:25.713080
1937  2023-10-27 13:55:25.760158
1938  2023-10-27 13:55:25.791076
1939  2023-10-27 13:55:25.838948
1940  2023-10-27 13:55:25.870862
1941  2023-10-27 13:55:25.918766
1942  2023-10-27 13:55:25.966606
1943  2023-10-27 13:55:25.997557
1944  2023-10-27 13:55:26.043431
1945  2023-10-27 13:55:26.091307
1946  2023-10-27 13:55:26.122225
1947  2023-10-27 13:55:26.169069
1948  2023-10-27 13:55:26.216968
1949  2023-10-27 13:55:26.248889
1950  2023-10-27 13:55:26.296764
1951  2023-10-27 13:55:26.343639
1952  2023-10-27 13:55:26.374556
1953  2023-10-27 13:55:26.420427
1954  2023-10-27 13:55:26.467316
1955  2023-10-27 13:55:26.498185
1956  2023-10-27 13:55:26.546058
1957  2023-10-27 13:55:26.593929
1958  2023-10-27 13:55:26.625844
1959  2023-10-27 13:55:26.672719
1960  2023-10-27 13:55:26.704666
1961  2023-10-27 13:55:26.750511
1962  2023-10-27 13:55:26.796422
1963  2023-10-27 13:55:26.844260
1964  2023-10-27 13:55:26.876174
1965  2023-10-27 13:55:26.922058
1966  2023-10-27 13:55:26.954006
1967  2023-10-27 13:55:26.999844
1968  2023-10-27 13:55:27.047718
1969  2023-10-27 13:55:27.079767
1970  2023-10-27 13:55:27.127693
1971  2023-10-27 13:55:27.175602
1972  2023-10-27 13:55:27.207521
1973  2023-10-27 13:55:27.254449
1974  2023-10-27 13:55:27.301447
1975  2023-10-27 13:55:27.332345
1976  2023-10-27 13:55:27.378192
1977  2023-10-27 13:55:27.425066
1978  2023-10-27 13:55:27.455983
1979  2023-10-27 13:55:27.502024
1980  2023-10-27 13:55:27.550021
1981  2023-10-27 13:55:27.581814
1982  2023-10-27 13:55:27.629647
1983  2023-10-27 13:55:27.677548
1984  2023-10-27 13:55:27.708472
1985  2023-10-27 13:55:27.755346
1986  2023-10-27 13:55:27.787257
1987  2023-10-27 13:55:27.835098
1988  2023-10-27 13:55:27.882018
1989  2023-10-27 13:55:27.912924
1990  2023-10-27 13:55:27.959795
1991  2023-10-27 13:55:28.005691
1992  2023-10-27 13:55:28.037585
1993  2023-10-27 13:55:28.085470
1994  2023-10-27 13:55:28.131306
1995  2023-10-27 13:55:28.163221
1996  2023-10-27 13:55:28.211128
1997  2023-10-27 13:55:28.258964
1998  2023-10-27 13:55:28.290886
1999  2023-10-27 13:55:28.338753
2000  2023-10-27 13:55:28.370767
2001  2023-10-27 13:55:28.418693
2002  2023-10-27 13:55:28.466564
2003  2023-10-27 13:55:28.498731
2004  2023-10-27 13:55:28.546503
2005  2023-10-27 13:55:28.594338
2006  2023-10-27 13:55:28.625256
2007  2023-10-27 13:55:28.673129
2008  2023-10-27 13:55:28.705044
2009  2023-10-27 13:55:28.751949
2010  2023-10-27 13:55:28.799890
2011  2023-10-27 13:55:28.829813
2012  2023-10-27 13:55:28.877770
2013  2023-10-27 13:55:28.925634
2014  2023-10-27 13:55:28.957530
2015  2023-10-27 13:55:29.003404
2016  2023-10-27 13:55:29.051392
2017  2023-10-27 13:55:29.083303
2018  2023-10-27 13:55:29.131180
2019  2023-10-27 13:55:29.162255
2020  2023-10-27 13:55:29.209969
2021  2023-10-27 13:55:29.255843
2022  2023-10-27 13:55:29.287760
2023  2023-10-27 13:55:29.334644
2024  2023-10-27 13:55:29.381475
2025  2023-10-27 13:55:29.413390
2026  2023-10-27 13:55:29.462293
2027  2023-10-27 13:55:29.509184
2028  2023-10-27 13:55:29.541082
2029  2023-10-27 13:55:29.588953
2030  2023-10-27 13:55:29.636838
2031  2023-10-27 13:55:29.668733
2032  2023-10-27 13:55:29.716627
2033  2023-10-27 13:55:29.749491
2034  2023-10-27 13:55:29.795368
2035  2023-10-27 13:55:29.843288
2036  2023-10-27 13:55:29.876154
2037  2023-10-27 13:55:29.921032
2038  2023-10-27 13:55:29.966916
2039  2023-10-27 13:55:29.998824
2040  2023-10-27 13:55:30.046427
2041  2023-10-27 13:55:30.094304
2042  2023-10-27 13:55:30.126213
2043  2023-10-27 13:55:30.174134
2044  2023-10-27 13:55:30.205048
2045  2023-10-27 13:55:30.251966
2046  2023-10-27 13:55:30.298738
2047  2023-10-27 13:55:30.330769
2048  2023-10-27 13:55:30.378772
2049  2023-10-27 13:55:30.426650
2050  2023-10-27 13:55:30.457529
2051  2023-10-27 13:55:30.505399
2052  2023-10-27 13:55:30.551310
2053  2023-10-27 13:55:30.582246
2054  2023-10-27 13:55:30.629069
2055  2023-10-27 13:55:30.676987
2056  2023-10-27 13:55:30.708890
2057  2023-10-27 13:55:30.754787
2058  2023-10-27 13:55:30.800610
2059  2023-10-27 13:55:30.831527
2060  2023-10-27 13:55:30.879399
2061  2023-10-27 13:55:30.927271
2062  2023-10-27 13:55:30.959186
2063  2023-10-27 13:55:31.005127
2064  2023-10-27 13:55:31.052044
2065  2023-10-27 13:55:31.082953
2066  2023-10-27 13:55:31.130792
2067  2023-10-27 13:55:31.162707
2068  2023-10-27 13:55:31.210579
2069  2023-10-27 13:55:31.257500
2070  2023-10-27 13:55:31.289411
2071  2023-10-27 13:55:31.337289
2072  2023-10-27 13:55:31.385152
2073  2023-10-27 13:55:31.416066
2074  2023-10-27 13:55:31.463938
2075  2023-10-27 13:55:31.509833
2076  2023-10-27 13:55:31.541726
2077  2023-10-27 13:55:31.589599
2078  2023-10-27 13:55:31.621513
2079  2023-10-27 13:55:31.668354
2080  2023-10-27 13:55:31.716259
2081  2023-10-27 13:55:31.749178
2082  2023-10-27 13:55:31.797055
2083  2023-10-27 13:55:31.844915
2084  2023-10-27 13:55:31.875836
2085  2023-10-27 13:55:31.923704
2086  2023-10-27 13:55:31.955612
2087  2023-10-27 13:55:32.000468
2088  2023-10-27 13:55:32.048339
2089  2023-10-27 13:55:32.094216
2090  2023-10-27 13:55:32.125134
2091  2023-10-27 13:55:32.172009
2092  2023-10-27 13:55:32.203923
2093  2023-10-27 13:55:32.251795
2094  2023-10-27 13:55:32.299666
2095  2023-10-27 13:55:32.331582
2096  2023-10-27 13:55:32.379498
2097  2023-10-27 13:55:32.427349
2098  2023-10-27 13:55:32.459276
2099  2023-10-27 13:55:32.507111
2100  2023-10-27 13:55:32.539066
2101  2023-10-27 13:55:32.586939
2102  2023-10-27 13:55:32.634770
2103  2023-10-27 13:55:32.666684
2104  2023-10-27 13:55:32.712608
2105  2023-10-27 13:55:32.760590
2106  2023-10-27 13:55:32.791504
2107  2023-10-27 13:55:32.839485
2108  2023-10-27 13:55:32.871367
2109  2023-10-27 13:55:32.919287
2110  2023-10-27 13:55:32.966257
2111  2023-10-27 13:55:32.997069
2112  2023-10-27 13:55:33.045934
2113  2023-10-27 13:55:33.092808
2114  2023-10-27 13:55:33.124380
2115  2023-10-27 13:55:33.173433
2116  2023-10-27 13:55:33.205325
2117  2023-10-27 13:55:33.252177
2118  2023-10-27 13:55:33.300038
2119  2023-10-27 13:55:33.331987
2120  2023-10-27 13:55:33.379828
2121  2023-10-27 13:55:33.426748
2122  2023-10-27 13:55:33.456620
2123  2023-10-27 13:55:33.503494
2124  2023-10-27 13:55:33.551366
2125  2023-10-27 13:55:33.583503
2126  2023-10-27 13:55:33.631375
2127  2023-10-27 13:55:33.663289
2128  2023-10-27 13:55:33.711161
2129  2023-10-27 13:55:33.759033
2130  2023-10-27 13:55:33.789951
2131  2023-10-27 13:55:33.836825
2132  2023-10-27 13:55:33.883745
2133  2023-10-27 13:55:33.914653
2134  2023-10-27 13:55:33.962526
2135  2023-10-27 13:55:34.010393
2136  2023-10-27 13:55:34.041312
2137  2023-10-27 13:55:34.088195
2138  2023-10-27 13:55:34.135061
2139  2023-10-27 13:55:34.165982
2140  2023-10-27 13:55:34.213852
2141  2023-10-27 13:55:34.260692
2142  2023-10-27 13:55:34.292726
2143  2023-10-27 13:55:34.340510
2144  2023-10-27 13:55:34.372393
2145  2023-10-27 13:55:34.420301
2146  2023-10-27 13:55:34.466191
2147  2023-10-27 13:55:34.498090
2148  2023-10-27 13:55:34.545986
2149  2023-10-27 13:55:34.592805
2150  2023-10-27 13:55:34.623731
2151  2023-10-27 13:55:34.669599
2152  2023-10-27 13:55:34.717511
2153  2023-10-27 13:55:34.749628
2154  2023-10-27 13:55:34.797639
2155  2023-10-27 13:55:34.843497
2156  2023-10-27 13:55:34.874400
2157  2023-10-27 13:55:34.922314
2158  2023-10-27 13:55:34.954246
2159  2023-10-27 13:55:35.002096
2160  2023-10-27 13:55:35.047969
2161  2023-10-27 13:55:35.079882
2162  2023-10-27 13:55:35.127765
2163  2023-10-27 13:55:35.175644
2164  2023-10-27 13:55:35.207548
2165  2023-10-27 13:55:35.255412
2166  2023-10-27 13:55:35.287344
2167  2023-10-27 13:55:35.335168
2168  2023-10-27 13:55:35.381095
2169  2023-10-27 13:55:35.413160
2170  2023-10-27 13:55:35.460832
2171  2023-10-27 13:55:35.508856
2172  2023-10-27 13:55:35.540816
2173  2023-10-27 13:55:35.589641
2174  2023-10-27 13:55:35.635548
2175  2023-10-27 13:55:35.667463
2176  2023-10-27 13:55:35.715304
2177  2023-10-27 13:55:35.747217
2178  2023-10-27 13:55:35.794121
2179  2023-10-27 13:55:35.841991
2180  2023-10-27 13:55:35.871884
2181  2023-10-27 13:55:35.919756
2182  2023-10-27 13:55:35.966630
2183  2023-10-27 13:55:35.998572
2184  2023-10-27 13:55:36.045447
2185  2023-10-27 13:55:36.091358
2186  2023-10-27 13:55:36.122273
2187  2023-10-27 13:55:36.169152
2188  2023-10-27 13:55:36.215030
2189  2023-10-27 13:55:36.245912
2190  2023-10-27 13:55:36.293821
2191  2023-10-27 13:55:36.341771
2192  2023-10-27 13:55:36.373651
2193  2023-10-27 13:55:36.421562
2194  2023-10-27 13:55:36.468441
2195  2023-10-27 13:55:36.499360
2196  2023-10-27 13:55:36.547189
2197  2023-10-27 13:55:36.594110
2198  2023-10-27 13:55:36.625012
2199  2023-10-27 13:55:36.673897
2200  2023-10-27 13:55:36.703769
2201  2023-10-27 13:55:36.748649
2202  2023-10-27 13:55:36.795571
2203  2023-10-27 13:55:36.843395
2204  2023-10-27 13:55:36.875310
2205  2023-10-27 13:55:36.923230
2206  2023-10-27 13:55:36.955144
2207  2023-10-27 13:55:37.002970
2208  2023-10-27 13:55:37.050875
2209  2023-10-27 13:55:37.082791
2210  2023-10-27 13:55:37.130629
2211  2023-10-27 13:55:37.162576
2212  2023-10-27 13:55:37.210535
2213  2023-10-27 13:55:37.258437
2214  2023-10-27 13:55:37.290364
2215  2023-10-27 13:55:37.338193
2216  2023-10-27 13:55:37.384110
2217  2023-10-27 13:55:37.416030
2218  2023-10-27 13:55:37.462896
2219  2023-10-27 13:55:37.509795
2220  2023-10-27 13:55:37.541680
2221  2023-10-27 13:55:37.589532
2222  2023-10-27 13:55:37.621460
2223  2023-10-27 13:55:37.669343
2224  2023-10-27 13:55:37.716183
2225  2023-10-27 13:55:37.748098
2226  2023-10-27 13:55:37.795009
2227  2023-10-27 13:55:37.841888
2228  2023-10-27 13:55:37.873794
2229  2023-10-27 13:55:37.920672
2230  2023-10-27 13:55:37.966586
2231  2023-10-27 13:55:37.997542
2232  2023-10-27 13:55:38.045574
2233  2023-10-27 13:55:38.093308
2234  2023-10-27 13:55:38.124266
2235  2023-10-27 13:55:38.171100
2236  2023-10-27 13:55:38.217018
2237  2023-10-27 13:55:38.247937
2238  2023-10-27 13:55:38.295766
2239  2023-10-27 13:55:38.343671
2240  2023-10-27 13:55:38.375553
2241  2023-10-27 13:55:38.421432
2242  2023-10-27 13:55:38.467346
2243  2023-10-27 13:55:38.499268
2244  2023-10-27 13:55:38.547147
2245  2023-10-27 13:55:38.579043
2246  2023-10-27 13:55:38.626918
2247  2023-10-27 13:55:38.674819
2248  2023-10-27 13:55:38.706673
2249  2023-10-27 13:55:38.752614
2250  2023-10-27 13:55:38.800450
2251  2023-10-27 13:55:38.832369
2252  2023-10-27 13:55:38.880250
2253  2023-10-27 13:55:38.928107
2254  2023-10-27 13:55:38.960037
2255  2023-10-27 13:55:39.005868
2256  2023-10-27 13:55:39.051745
2257  2023-10-27 13:55:39.081706
2258  2023-10-27 13:55:39.128540
2259  2023-10-27 13:55:39.175415
2260  2023-10-27 13:55:39.206363
2261  2023-10-27 13:55:39.254418
2262  2023-10-27 13:55:39.302121
2263  2023-10-27 13:55:39.334032
2264  2023-10-27 13:55:39.380868
2265  2023-10-27 13:55:39.412822
2266  2023-10-27 13:55:39.460653
2267  2023-10-27 13:55:39.508558
2268  2023-10-27 13:55:39.540188
2269  2023-10-27 13:55:39.588150
2270  2023-10-27 13:55:39.635029
2271  2023-10-27 13:55:39.665946
2272  2023-10-27 13:55:39.714011
2273  2023-10-27 13:55:39.746930
2274  2023-10-27 13:55:39.793818
2275  2023-10-27 13:55:39.841674
2276  2023-10-27 13:55:39.873597
2277  2023-10-27 13:55:39.921467
2278  2023-10-27 13:55:39.969341
2279  2023-10-27 13:55:40.001250
2280  2023-10-27 13:55:40.049081
2281  2023-10-27 13:55:40.081033
2282  2023-10-27 13:55:40.128868
2283  2023-10-27 13:55:40.177788
2284  2023-10-27 13:55:40.208699
2285  2023-10-27 13:55:40.257567
2286  2023-10-27 13:55:40.288657
2287  2023-10-27 13:55:40.337349
2288  2023-10-27 13:55:40.383222
2289  2023-10-27 13:55:40.415137
2290  2023-10-27 13:55:40.460980
2291  2023-10-27 13:55:40.506857
2292  2023-10-27 13:55:40.537775
2293  2023-10-27 13:55:40.584691
2294  2023-10-27 13:55:40.631558
2295  2023-10-27 13:55:40.663562
2296  2023-10-27 13:55:40.711481
2297  2023-10-27 13:55:40.759348
2298  2023-10-27 13:55:40.791265
2299  2023-10-27 13:55:40.839126
2300  2023-10-27 13:55:40.871045
2301  2023-10-27 13:55:40.918922
2302  2023-10-27 13:55:40.965754
2303  2023-10-27 13:55:40.996783
2304  2023-10-27 13:55:41.044650
2305  2023-10-27 13:55:41.092491
2306  2023-10-27 13:55:41.124437
2307  2023-10-27 13:55:41.172319
2308  2023-10-27 13:55:41.204245
2309  2023-10-27 13:55:41.252101
2310  2023-10-27 13:55:41.299973
2311  2023-10-27 13:55:41.331893
2312  2023-10-27 13:55:41.378758
2313  2023-10-27 13:55:41.426634
2314  2023-10-27 13:55:41.459512
2315  2023-10-27 13:55:41.505421
2316  2023-10-27 13:55:41.552305
2317  2023-10-27 13:55:41.584287
2318  2023-10-27 13:55:41.632098
2319  2023-10-27 13:55:41.664993
2320  2023-10-27 13:55:41.712879
2321  2023-10-27 13:55:41.759738
2322  2023-10-27 13:55:41.792675
2323  2023-10-27 13:55:41.839530
2324  2023-10-27 13:55:41.872439
2325  2023-10-27 13:55:41.919328
2326  2023-10-27 13:55:41.968188
2327  2023-10-27 13:55:41.999233
2328  2023-10-27 13:55:42.048112
2329  2023-10-27 13:55:42.079024
2330  2023-10-27 13:55:42.128857
2331  2023-10-27 13:55:42.173762
2332  2023-10-27 13:55:42.204775
2333  2023-10-27 13:55:42.254673
2334  2023-10-27 13:55:42.300519
2335  2023-10-27 13:55:42.332433
2336  2023-10-27 13:55:42.379308
2337  2023-10-27 13:55:42.426242
2338  2023-10-27 13:55:42.458130
2339  2023-10-27 13:55:42.505970
2340  2023-10-27 13:55:42.537884
2341  2023-10-27 13:55:42.585754
2342  2023-10-27 13:55:42.633586
2343  2023-10-27 13:55:42.665502
2344  2023-10-27 13:55:42.712408
2345  2023-10-27 13:55:42.758262
2346  2023-10-27 13:55:42.789232
2347  2023-10-27 13:55:42.837042
2348  2023-10-27 13:55:42.884915
2349  2023-10-27 13:55:42.916829
2350  2023-10-27 13:55:42.964701
2351  2023-10-27 13:55:42.995647
2352  2023-10-27 13:55:43.043575
2353  2023-10-27 13:55:43.090482
2354  2023-10-27 13:55:43.122400
2355  2023-10-27 13:55:43.170265
2356  2023-10-27 13:55:43.217143
2357  2023-10-27 13:55:43.248077
2358  2023-10-27 13:55:43.295988
2359  2023-10-27 13:55:43.344039
2360  2023-10-27 13:55:43.375861
2361  2023-10-27 13:55:43.423723
2362  2023-10-27 13:55:43.455641
2363  2023-10-27 13:55:43.504191
2364  2023-10-27 13:55:43.550026
2365  2023-10-27 13:55:43.580969
2366  2023-10-27 13:55:43.629837
2367  2023-10-27 13:55:43.675682
2368  2023-10-27 13:55:43.706600
2369  2023-10-27 13:55:43.753505
2370  2023-10-27 13:55:43.801346
2371  2023-10-27 13:55:43.833261
2372  2023-10-27 13:55:43.881167
2373  2023-10-27 13:55:43.913215
2374  2023-10-27 13:55:43.960954
2375  2023-10-27 13:55:44.008792
2376  2023-10-27 13:55:44.040706
2377  2023-10-27 13:55:44.086620
2378  2023-10-27 13:55:44.134456
2379  2023-10-27 13:55:44.166370
2380  2023-10-27 13:55:44.214295
2381  2023-10-27 13:55:44.246369
2382  2023-10-27 13:55:44.294048
2383  2023-10-27 13:55:44.340969
2384  2023-10-27 13:55:44.371885
2385  2023-10-27 13:55:44.419713
2386  2023-10-27 13:55:44.466623
2387  2023-10-27 13:55:44.498535
2388  2023-10-27 13:55:44.546407
2389  2023-10-27 13:55:44.593282
2390  2023-10-27 13:55:44.624198
2391  2023-10-27 13:55:44.672039
2392  2023-10-27 13:55:44.703986
2393  2023-10-27 13:55:44.751825
2394  2023-10-27 13:55:44.799727
2395  2023-10-27 13:55:44.831658
2396  2023-10-27 13:55:44.880481
2397  2023-10-27 13:55:44.926390
2398  2023-10-27 13:55:44.957313
2399  2023-10-27 13:55:45.002155
2400  2023-10-27 13:55:45.049077
2401  2023-10-27 13:55:45.080978
2402  2023-10-27 13:55:45.127862
2403  2023-10-27 13:55:45.174694
2404  2023-10-27 13:55:45.206609
2405  2023-10-27 13:55:45.254521
2406  2023-10-27 13:55:45.302358
2407  2023-10-27 13:55:45.334268
2408  2023-10-27 13:55:45.380181
2409  2023-10-27 13:55:45.412202
2410  2023-10-27 13:55:45.460152
2411  2023-10-27 13:55:45.507026
2412  2023-10-27 13:55:45.537941
2413  2023-10-27 13:55:45.585812
2414  2023-10-27 13:55:45.633763
2415  2023-10-27 13:55:45.663750
2416  2023-10-27 13:55:45.712586
2417  2023-10-27 13:55:45.757496
2418  2023-10-27 13:55:45.789121
2419  2023-10-27 13:55:45.836098
2420  2023-10-27 13:55:45.882935
2421  2023-10-27 13:55:45.914849
2422  2023-10-27 13:55:45.962750
2423  2023-10-27 13:55:46.009595
2424  2023-10-27 13:55:46.040513
2425  2023-10-27 13:55:46.087434
2426  2023-10-27 13:55:46.135259
2427  2023-10-27 13:55:46.167174
2428  2023-10-27 13:55:46.213083
2429  2023-10-27 13:55:46.258962
2430  2023-10-27 13:55:46.290895
2431  2023-10-27 13:55:46.338747
2432  2023-10-27 13:55:46.384594
2433  2023-10-27 13:55:46.416509
2434  2023-10-27 13:55:46.462418
2435  2023-10-27 13:55:46.509260
2436  2023-10-27 13:55:46.540214
2437  2023-10-27 13:55:46.588085
2438  2023-10-27 13:55:46.635975
2439  2023-10-27 13:55:46.667869
2440  2023-10-27 13:55:46.716738
2441  2023-10-27 13:55:46.747652
2442  2023-10-27 13:55:46.795534
2443  2023-10-27 13:55:46.842370
2444  2023-10-27 13:55:46.873286
2445  2023-10-27 13:55:46.921190
2446  2023-10-27 13:55:46.969030
2447  2023-10-27 13:55:47.000945
2448  2023-10-27 13:55:47.048937
2449  2023-10-27 13:55:47.080859
2450  2023-10-27 13:55:47.128779
2451  2023-10-27 13:55:47.176603
2452  2023-10-27 13:55:47.208520
2453  2023-10-27 13:55:47.255436
2454  2023-10-27 13:55:47.302385
2455  2023-10-27 13:55:47.334336
2456  2023-10-27 13:55:47.382320
2457  2023-10-27 13:55:47.414236
2458  2023-10-27 13:55:47.460108
2459  2023-10-27 13:55:47.507981
2460  2023-10-27 13:55:47.539893
2461  2023-10-27 13:55:47.587734
2462  2023-10-27 13:55:47.635605
2463  2023-10-27 13:55:47.667520
2464  2023-10-27 13:55:47.715419
2465  2023-10-27 13:55:47.747334
2466  2023-10-27 13:55:47.794209
2467  2023-10-27 13:55:47.841119
2468  2023-10-27 13:55:47.872998
2469  2023-10-27 13:55:47.920887
2470  2023-10-27 13:55:47.968854
2471  2023-10-27 13:55:48.000767
2472  2023-10-27 13:55:48.048630
2473  2023-10-27 13:55:48.093518
2474  2023-10-27 13:55:48.125435
2475  2023-10-27 13:55:48.173309
2476  2023-10-27 13:55:48.219186
2477  2023-10-27 13:55:48.251107
2478  2023-10-27 13:55:48.298973
2479  2023-10-27 13:55:48.328908
2480  2023-10-27 13:55:48.376731
2481  2023-10-27 13:55:48.423636
2482  2023-10-27 13:55:48.455550
2483  2023-10-27 13:55:48.503392
2484  2023-10-27 13:55:48.551346
2485  2023-10-27 13:55:48.583260
2486  2023-10-27 13:55:48.631181
2487  2023-10-27 13:55:48.663096
2488  2023-10-27 13:55:48.709002
2489  2023-10-27 13:55:48.756848
2490  2023-10-27 13:55:48.788817
2491  2023-10-27 13:55:48.836632
2492  2023-10-27 13:55:48.884536
2493  2023-10-27 13:55:48.916464
2494  2023-10-27 13:55:48.964291
2495  2023-10-27 13:55:49.010219
2496  2023-10-27 13:55:49.042085
2497  2023-10-27 13:55:49.090954
2498  2023-10-27 13:55:49.122869
2499  2023-10-27 13:55:49.168786
2500  2023-10-27 13:55:49.216619
2501  2023-10-27 13:55:49.248602
2502  2023-10-27 13:55:49.293447
2503  2023-10-27 13:55:49.341401
2504  2023-10-27 13:55:49.373237
2505  2023-10-27 13:55:49.421102
2506  2023-10-27 13:55:49.468977
2507  2023-10-27 13:55:49.500887
2508  2023-10-27 13:55:49.548805
2509  2023-10-27 13:55:49.579808
2510  2023-10-27 13:55:49.626704
2511  2023-10-27 13:55:49.672580
2512  2023-10-27 13:55:49.718494
2513  2023-10-27 13:55:49.750408
2514  2023-10-27 13:55:49.798290
2515  2023-10-27 13:55:49.830159
2516  2023-10-27 13:55:49.876037
2517  2023-10-27 13:55:49.922911
2518  2023-10-27 13:55:49.954826
2519  2023-10-27 13:55:50.001733
2520  2023-10-27 13:55:50.048576
2521  2023-10-27 13:55:50.093495
2522  2023-10-27 13:55:50.125404
2523  2023-10-27 13:55:50.173242
2524  2023-10-27 13:55:50.204192
2525  2023-10-27 13:55:50.252062
2526  2023-10-27 13:55:50.297942
2527  2023-10-27 13:55:50.330852
2528  2023-10-27 13:55:50.374703
2529  2023-10-27 13:55:50.421613
2530  2023-10-27 13:55:50.468452
2531  2023-10-27 13:55:50.499370
2532  2023-10-27 13:55:50.547281
2533  2023-10-27 13:55:50.594153
2534  2023-10-27 13:55:50.626031
2535  2023-10-27 13:55:50.673905
2536  2023-10-27 13:55:50.703849
2537  2023-10-27 13:55:50.751747
2538  2023-10-27 13:55:50.798600
2539  2023-10-27 13:55:50.829529
2540  2023-10-27 13:55:50.877513
2541  2023-10-27 13:55:50.925353
2542  2023-10-27 13:55:50.957302
2543  2023-10-27 13:55:51.005216
2544  2023-10-27 13:55:51.037137
2545  2023-10-27 13:55:51.085002
2546  2023-10-27 13:55:51.132871
2547  2023-10-27 13:55:51.163792
2548  2023-10-27 13:55:51.211674
2549  2023-10-27 13:55:51.259536
2550  2023-10-27 13:55:51.291452
2551  2023-10-27 13:55:51.338324
2552  2023-10-27 13:55:51.386196
2553  2023-10-27 13:55:51.418111
2554  2023-10-27 13:55:51.463068
2555  2023-10-27 13:55:51.510945
2556  2023-10-27 13:55:51.542859
2557  2023-10-27 13:55:51.590740
2558  2023-10-27 13:55:51.622718
2559  2023-10-27 13:55:51.668591
2560  2023-10-27 13:55:51.716467
2561  2023-10-27 13:55:51.748379
2562  2023-10-27 13:55:51.793290
2563  2023-10-27 13:55:51.840184
2564  2023-10-27 13:55:51.872098
2565  2023-10-27 13:55:51.919970
2566  2023-10-27 13:55:51.965967
2567  2023-10-27 13:55:51.996851
2568  2023-10-27 13:55:52.044726
2569  2023-10-27 13:55:52.090873
2570  2023-10-27 13:55:52.123778
2571  2023-10-27 13:55:52.169658
2572  2023-10-27 13:55:52.214673
2573  2023-10-27 13:55:52.246578
2574  2023-10-27 13:55:52.294418
2575  2023-10-27 13:55:52.342323
2576  2023-10-27 13:55:52.373207
2577  2023-10-27 13:55:52.421120
2578  2023-10-27 13:55:52.467954
2579  2023-10-27 13:55:52.499102
2580  2023-10-27 13:55:52.545893
2581  2023-10-27 13:55:52.593733
2582  2023-10-27 13:55:52.624740
2583  2023-10-27 13:55:52.671567
2584  2023-10-27 13:55:52.717445
2585  2023-10-27 13:55:52.748363
2586  2023-10-27 13:55:52.795321
2587  2023-10-27 13:55:52.843192
2588  2023-10-27 13:55:52.875117
2589  2023-10-27 13:55:52.920988
2590  2023-10-27 13:55:52.968868
2591  2023-10-27 13:55:53.000774
2592  2023-10-27 13:55:53.048640
2593  2023-10-27 13:55:53.093531
2594  2023-10-27 13:55:53.124442
2595  2023-10-27 13:55:53.172277
2596  2023-10-27 13:55:53.204192
2597  2023-10-27 13:55:53.252092
2598  2023-10-27 13:55:53.299936
2599  2023-10-27 13:55:53.330854
2600  2023-10-27 13:55:53.377771
2601  2023-10-27 13:55:53.426628
2602  2023-10-27 13:55:53.458570
2603  2023-10-27 13:55:53.505420
2604  2023-10-27 13:55:53.537302
2605  2023-10-27 13:55:53.585189
2606  2023-10-27 13:55:53.633082
2607  2023-10-27 13:55:53.663963
2608  2023-10-27 13:55:53.709881
2609  2023-10-27 13:55:53.756754
2610  2023-10-27 13:55:53.788660
2611  2023-10-27 13:55:53.836532
2612  2023-10-27 13:55:53.884405
2613  2023-10-27 13:55:53.916322
2614  2023-10-27 13:55:53.962220
2615  2023-10-27 13:55:54.009041
2616  2023-10-27 13:55:54.039993
2617  2023-10-27 13:55:54.088870
2618  2023-10-27 13:55:54.136735
2619  2023-10-27 13:55:54.165622
2620  2023-10-27 13:55:54.211574
2621  2023-10-27 13:55:54.258854
2622  2023-10-27 13:55:54.290772
2623  2023-10-27 13:55:54.337606
2624  2023-10-27 13:55:54.385510
2625  2023-10-27 13:55:54.417430
2626  2023-10-27 13:55:54.464306
2627  2023-10-27 13:55:54.496182
2628  2023-10-27 13:55:54.544092
2629  2023-10-27 13:55:54.591958
2630  2023-10-27 13:55:54.623883
2631  2023-10-27 13:55:54.670751
2632  2023-10-27 13:55:54.718623
2633  2023-10-27 13:55:54.749540
2634  2023-10-27 13:55:54.796413
2635  2023-10-27 13:55:54.843254
2636  2023-10-27 13:55:54.875244
2637  2023-10-27 13:55:54.923116
2638  2023-10-27 13:55:54.955031
2639  2023-10-27 13:55:55.002933
2640  2023-10-27 13:55:55.049648
2641  2023-10-27 13:55:55.080637
2642  2023-10-27 13:55:55.128507
2643  2023-10-27 13:55:55.177380
2644  2023-10-27 13:55:55.207296
2645  2023-10-27 13:55:55.256240
2646  2023-10-27 13:55:55.301079
2647  2023-10-27 13:55:55.331996
2648  2023-10-27 13:55:55.377927
2649  2023-10-27 13:55:55.425746
2650  2023-10-27 13:55:55.458658
2651  2023-10-27 13:55:55.504535
2652  2023-10-27 13:55:55.551444
2653  2023-10-27 13:55:55.583356
2654  2023-10-27 13:55:55.631246
2655  2023-10-27 13:55:55.663140
2656  2023-10-27 13:55:55.711015
2657  2023-10-27 13:55:55.757864
2658  2023-10-27 13:55:55.788814
2659  2023-10-27 13:55:55.835705
2660  2023-10-27 13:55:55.882664
2661  2023-10-27 13:55:55.914581
2662  2023-10-27 13:55:55.962557
2663  2023-10-27 13:55:56.009394
2664  2023-10-27 13:55:56.040342
2665  2023-10-27 13:55:56.088216
2666  2023-10-27 13:55:56.135092
2667  2023-10-27 13:55:56.167009
2668  2023-10-27 13:55:56.214884
2669  2023-10-27 13:55:56.246971
2670  2023-10-27 13:55:56.292668
2671  2023-10-27 13:55:56.340544
2672  2023-10-27 13:55:56.372424
2673  2023-10-27 13:55:56.420298
2674  2023-10-27 13:55:56.466173
2675  2023-10-27 13:55:56.498087
2676  2023-10-27 13:55:56.545995
2677  2023-10-27 13:55:56.594018
2678  2023-10-27 13:55:56.627061
2679  2023-10-27 13:55:56.673898
2680  2023-10-27 13:55:56.705850
2681  2023-10-27 13:55:56.753730
2682  2023-10-27 13:55:56.801638
2683  2023-10-27 13:55:56.832963
2684  2023-10-27 13:55:56.880835
2685  2023-10-27 13:55:56.912782
2686  2023-10-27 13:55:56.960622
2687  2023-10-27 13:55:57.008514
2688  2023-10-27 13:55:57.039411
2689  2023-10-27 13:55:57.087361
2690  2023-10-27 13:55:57.135202
2691  2023-10-27 13:55:57.167159
2692  2023-10-27 13:55:57.214988
2693  2023-10-27 13:55:57.246942
2694  2023-10-27 13:55:57.292856
2695  2023-10-27 13:55:57.340733
2696  2023-10-27 13:55:57.372610
2697  2023-10-27 13:55:57.418519
2698  2023-10-27 13:55:57.466395
2699  2023-10-27 13:55:57.497367
2700  2023-10-27 13:55:57.544325
2701  2023-10-27 13:55:57.592195
2702  2023-10-27 13:55:57.625129
2703  2023-10-27 13:55:57.670952
2704  2023-10-27 13:55:57.718824
2705  2023-10-27 13:55:57.750779
2706  2023-10-27 13:55:57.798672
2707  2023-10-27 13:55:57.842537
2708  2023-10-27 13:55:57.872449
2709  2023-10-27 13:55:57.920285
2710  2023-10-27 13:55:57.968253
2711  2023-10-27 13:55:57.999171
2712  2023-10-27 13:55:58.045048
2713  2023-10-27 13:55:58.090957
2714  2023-10-27 13:55:58.121875
2715  2023-10-27 13:55:58.169749
2716  2023-10-27 13:55:58.216637
2717  2023-10-27 13:55:58.248538
2718  2023-10-27 13:55:58.294428
2719  2023-10-27 13:55:58.342298
2720  2023-10-27 13:55:58.374170
2721  2023-10-27 13:55:58.422042
2722  2023-10-27 13:55:58.467954
2723  2023-10-27 13:55:58.498835
2724  2023-10-27 13:55:58.544713
2725  2023-10-27 13:55:58.591587
2726  2023-10-27 13:55:58.622536
2727  2023-10-27 13:55:58.670410
2728  2023-10-27 13:55:58.718384
2729  2023-10-27 13:55:58.749202
2730  2023-10-27 13:55:58.796075
2731  2023-10-27 13:55:58.843953
2732  2023-10-27 13:55:58.875827
2733  2023-10-27 13:55:58.923733
2734  2023-10-27 13:55:58.955647
2735  2023-10-27 13:55:59.001571
2736  2023-10-27 13:55:59.049342
2737  2023-10-27 13:55:59.081240
2738  2023-10-27 13:55:59.129132
2739  2023-10-27 13:55:59.176002
2740  2023-10-27 13:55:59.207904
2741  2023-10-27 13:55:59.254746
2742  2023-10-27 13:55:59.301656
2743  2023-10-27 13:55:59.333708
2744  2023-10-27 13:55:59.381408
2745  2023-10-27 13:55:59.413359
2746  2023-10-27 13:55:59.459311
2747  2023-10-27 13:55:59.505232
2748  2023-10-27 13:55:59.537099
2749  2023-10-27 13:55:59.582977
2750  2023-10-27 13:55:59.628903
2751  2023-10-27 13:55:59.676863
2752  2023-10-27 13:55:59.706818
2753  2023-10-27 13:55:59.754855
2754  2023-10-27 13:55:59.800176
2755  2023-10-27 13:55:59.832094
2756  2023-10-27 13:55:59.878969
2757  2023-10-27 13:55:59.926906
2758  2023-10-27 13:55:59.957812
2759  2023-10-27 13:56:00.007678
2760  2023-10-27 13:56:00.037599
2761  2023-10-27 13:56:00.085516
2762  2023-10-27 13:56:00.133377
2763  2023-10-27 13:56:00.165292
2764  2023-10-27 13:56:00.213174
2765  2023-10-27 13:56:00.261108
2766  2023-10-27 13:56:00.293020
2767  2023-10-27 13:56:00.340942
2768  2023-10-27 13:56:00.372865
2769  2023-10-27 13:56:00.421795
2770  2023-10-27 13:56:00.466709
2771  2023-10-27 13:56:00.497627
2772  2023-10-27 13:56:00.543504
2773  2023-10-27 13:56:00.589381
2774  2023-10-27 13:56:00.621345
2775  2023-10-27 13:56:00.667219
2776  2023-10-27 13:56:00.715083
2777  2023-10-27 13:56:00.746996
2778  2023-10-27 13:56:00.794867
2779  2023-10-27 13:56:00.841707
2780  2023-10-27 13:56:00.873621
2781  2023-10-27 13:56:00.921494
2782  2023-10-27 13:56:00.968403
2783  2023-10-27 13:56:00.999316
2784  2023-10-27 13:56:01.047262
2785  2023-10-27 13:56:01.079298
2786  2023-10-27 13:56:01.127138
2787  2023-10-27 13:56:01.173101
2788  2023-10-27 13:56:01.205027
2789  2023-10-27 13:56:01.253889
2790  2023-10-27 13:56:01.300780
2791  2023-10-27 13:56:01.332683
2792  2023-10-27 13:56:01.376560
2793  2023-10-27 13:56:01.424402
2794  2023-10-27 13:56:01.456349
2795  2023-10-27 13:56:01.504236
2796  2023-10-27 13:56:01.552062
2797  2023-10-27 13:56:01.582979
2798  2023-10-27 13:56:01.629860
2799  2023-10-27 13:56:01.676728
2800  2023-10-27 13:56:01.707692
2801  2023-10-27 13:56:01.754747
2802  2023-10-27 13:56:01.801540
2803  2023-10-27 13:56:01.833633
2804  2023-10-27 13:56:01.881505
2805  2023-10-27 13:56:01.913417
2806  2023-10-27 13:56:01.961302
2807  2023-10-27 13:56:02.009132
2808  2023-10-27 13:56:02.040102
2809  2023-10-27 13:56:02.088953
2810  2023-10-27 13:56:02.134834
2811  2023-10-27 13:56:02.166717
2812  2023-10-27 13:56:02.214628
2813  2023-10-27 13:56:02.246539
2814  2023-10-27 13:56:02.295367
2815  2023-10-27 13:56:02.341391
2816  2023-10-27 13:56:02.372292
2817  2023-10-27 13:56:02.421169
2818  2023-10-27 13:56:02.468025
2819  2023-10-27 13:56:02.499940
2820  2023-10-27 13:56:02.548812
2821  2023-10-27 13:56:02.592748
2822  2023-10-27 13:56:02.623711
2823  2023-10-27 13:56:02.671715
2824  2023-10-27 13:56:02.704786
2825  2023-10-27 13:56:02.749678
2826  2023-10-27 13:56:02.796837
2827  2023-10-27 13:56:02.841358
2828  2023-10-27 13:56:02.872370
2829  2023-10-27 13:56:02.919421
2830  2023-10-27 13:56:02.967372
2831  2023-10-27 13:56:02.999279
2832  2023-10-27 13:56:03.045151
2833  2023-10-27 13:56:03.091995
2834  2023-10-27 13:56:03.124906
2835  2023-10-27 13:56:03.171815
2836  2023-10-27 13:56:03.216716
2837  2023-10-27 13:56:03.248609
2838  2023-10-27 13:56:03.294491
2839  2023-10-27 13:56:03.341326
2840  2023-10-27 13:56:03.372282
2841  2023-10-27 13:56:03.420444
2842  2023-10-27 13:56:03.466197
2843  2023-10-27 13:56:03.497623
2844  2023-10-27 13:56:03.545487
2845  2023-10-27 13:56:03.593438
2846  2023-10-27 13:56:03.625348
2847  2023-10-27 13:56:03.671247
2848  2023-10-27 13:56:03.719180
2849  2023-10-27 13:56:03.751113
2850  2023-10-27 13:56:03.799067
2851  2023-10-27 13:56:03.829851
2852  2023-10-27 13:56:03.877757
2853  2023-10-27 13:56:03.926603
2854  2023-10-27 13:56:03.957539
2855  2023-10-27 13:56:04.005382
2856  2023-10-27 13:56:04.052288
2857  2023-10-27 13:56:04.084219
2858  2023-10-27 13:56:04.131079
2859  2023-10-27 13:56:04.176729
2860  2023-10-27 13:56:04.208693
2861  2023-10-27 13:56:04.256517
2862  2023-10-27 13:56:04.288431
2863  2023-10-27 13:56:04.334505
2864  2023-10-27 13:56:04.382377
2865  2023-10-27 13:56:04.414292
2866  2023-10-27 13:56:04.462198
2867  2023-10-27 13:56:04.510036
2868  2023-10-27 13:56:04.542097
2869  2023-10-27 13:56:04.589976
2870  2023-10-27 13:56:04.621885
2871  2023-10-27 13:56:04.668760
2872  2023-10-27 13:56:04.715634
2873  2023-10-27 13:56:04.747549
2874  2023-10-27 13:56:04.795454
2875  2023-10-27 13:56:04.841333
2876  2023-10-27 13:56:04.873291
2877  2023-10-27 13:56:04.921198
2878  2023-10-27 13:56:04.968723
2879  2023-10-27 13:56:04.999636
2880  2023-10-27 13:56:05.046641
2881  2023-10-27 13:56:05.094482
2882  2023-10-27 13:56:05.125398
2883  2023-10-27 13:56:05.170323
2884  2023-10-27 13:56:05.218180
2885  2023-10-27 13:56:05.247071
2886  2023-10-27 13:56:05.294947
2887  2023-10-27 13:56:05.341818
2888  2023-10-27 13:56:05.372774
2889  2023-10-27 13:56:05.418613
2890  2023-10-27 13:56:05.465521
2891  2023-10-27 13:56:05.496441
2892  2023-10-27 13:56:05.544315
2893  2023-10-27 13:56:05.592188
2894  2023-10-27 13:56:05.624184
2895  2023-10-27 13:56:05.670065
2896  2023-10-27 13:56:05.717899
2897  2023-10-27 13:56:05.749848
2898  2023-10-27 13:56:05.797729
2899  2023-10-27 13:56:05.829631
2900  2023-10-27 13:56:05.877539
2901  2023-10-27 13:56:05.925378
2902  2023-10-27 13:56:05.956296
2903  2023-10-27 13:56:06.002171
2904  2023-10-27 13:56:06.050072
2905  2023-10-27 13:56:06.082958
2906  2023-10-27 13:56:06.129871
2907  2023-10-27 13:56:06.178894
2908  2023-10-27 13:56:06.207760
2909  2023-10-27 13:56:06.254635
2910  2023-10-27 13:56:06.301509
2911  2023-10-27 13:56:06.332428
2912  2023-10-27 13:56:06.379301
2913  2023-10-27 13:56:06.427204
2914  2023-10-27 13:56:06.459125
2915  2023-10-27 13:56:06.506960
2916  2023-10-27 13:56:06.538924
2917  2023-10-27 13:56:06.586747
2918  2023-10-27 13:56:06.634657
2919  2023-10-27 13:56:06.666536
2920  2023-10-27 13:56:06.712463
2921  2023-10-27 13:56:06.760285
2922  2023-10-27 13:56:06.790255
2923  2023-10-27 13:56:06.836114
2924  2023-10-27 13:56:06.882992
2925  2023-10-27 13:56:06.914909
2926  2023-10-27 13:56:06.962803
2927  2023-10-27 13:56:07.007671
2928  2023-10-27 13:56:07.040584
2929  2023-10-27 13:56:07.085516
2930  2023-10-27 13:56:07.132418
2931  2023-10-27 13:56:07.163336
2932  2023-10-27 13:56:07.211396
2933  2023-10-27 13:56:07.257202
2934  2023-10-27 13:56:07.289122
2935  2023-10-27 13:56:07.334999
2936  2023-10-27 13:56:07.382911
2937  2023-10-27 13:56:07.414536
2938  2023-10-27 13:56:07.462653
2939  2023-10-27 13:56:07.509608
2940  2023-10-27 13:56:07.540444
2941  2023-10-27 13:56:07.590321
2942  2023-10-27 13:56:07.635299
2943  2023-10-27 13:56:07.667181
2944  2023-10-27 13:56:07.714043
2945  2023-10-27 13:56:07.761964
2946  2023-10-27 13:56:07.789839
2947  2023-10-27 13:56:07.837711
2948  2023-10-27 13:56:07.883670
2949  2023-10-27 13:56:07.915584
2950  2023-10-27 13:56:07.962491
2951  2023-10-27 13:56:08.009364
2952  2023-10-27 13:56:08.041284
2953  2023-10-27 13:56:08.088123
2954  2023-10-27 13:56:08.135034
2955  2023-10-27 13:56:08.164951
2956  2023-10-27 13:56:08.212860
2957  2023-10-27 13:56:08.260832
2958  2023-10-27 13:56:08.292761
2959  2023-10-27 13:56:08.340616
2960  2023-10-27 13:56:08.372497
2961  2023-10-27 13:56:08.420384
2962  2023-10-27 13:56:08.467290
2963  2023-10-27 13:56:08.497213
2964  2023-10-27 13:56:08.545088
2965  2023-10-27 13:56:08.590926
2966  2023-10-27 13:56:08.624866
2967  2023-10-27 13:56:08.669715
2968  2023-10-27 13:56:08.715593
2969  2023-10-27 13:56:08.746548
2970  2023-10-27 13:56:08.792439
2971  2023-10-27 13:56:08.839295
2972  2023-10-27 13:56:08.885175
2973  2023-10-27 13:56:08.917092
2974  2023-10-27 13:56:08.964962
2975  2023-10-27 13:56:08.996885
2976  2023-10-27 13:56:09.044746
2977  2023-10-27 13:56:09.092586
2978  2023-10-27 13:56:09.123505
2979  2023-10-27 13:56:09.169418
2980  2023-10-27 13:56:09.217253
2981  2023-10-27 13:56:09.249360
2982  2023-10-27 13:56:09.297071
2983  2023-10-27 13:56:09.344941
2984  2023-10-27 13:56:09.376896
2985  2023-10-27 13:56:09.424836
2986  2023-10-27 13:56:09.456847
2987  2023-10-27 13:56:09.501675
2988  2023-10-27 13:56:09.549548
2989  2023-10-27 13:56:09.579468
2990  2023-10-27 13:56:09.625387
2991  2023-10-27 13:56:09.673217
2992  2023-10-27 13:56:09.705133
2993  2023-10-27 13:56:09.753059
2994  2023-10-27 13:56:09.800877
2995  2023-10-27 13:56:09.830838
2996  2023-10-27 13:56:09.878702
2997  2023-10-27 13:56:09.926572
2998  2023-10-27 13:56:09.958494
2999  2023-10-27 13:56:10.004371
3000  2023-10-27 13:56:10.052329
3001  2023-10-27 13:56:10.084216
3002  2023-10-27 13:56:10.132114
3003  2023-10-27 13:56:10.164187
3004  2023-10-27 13:56:10.211894
3005  2023-10-27 13:56:10.259779
3006  2023-10-27 13:56:10.290688
3007  2023-10-27 13:56:10.338559
3008  2023-10-27 13:56:10.370471
3009  2023-10-27 13:56:10.418356
3010  2023-10-27 13:56:10.466222
3011  2023-10-27 13:56:10.498148
3012  2023-10-27 13:56:10.546005
3013  2023-10-27 13:56:10.591893
3014  2023-10-27 13:56:10.623794
3015  2023-10-27 13:56:10.669639
3016  2023-10-27 13:56:10.715516
3017  2023-10-27 13:56:10.746471
3018  2023-10-27 13:56:10.793311
3019  2023-10-27 13:56:10.839216
3020  2023-10-27 13:56:10.871149
3021  2023-10-27 13:56:10.918005
3022  2023-10-27 13:56:10.965881
3023  2023-10-27 13:56:10.997793
3024  2023-10-27 13:56:11.043641
3025  2023-10-27 13:56:11.091556
3026  2023-10-27 13:56:11.123599
3027  2023-10-27 13:56:11.171461
3028  2023-10-27 13:56:11.218356
3029  2023-10-27 13:56:11.247270
3030  2023-10-27 13:56:11.295376
3031  2023-10-27 13:56:11.341295
3032  2023-10-27 13:56:11.373343
3033  2023-10-27 13:56:11.420837
3034  2023-10-27 13:56:11.468751
3035  2023-10-27 13:56:11.500688
3036  2023-10-27 13:56:11.548589
3037  2023-10-27 13:56:11.580505
3038  2023-10-27 13:56:11.627413
3039  2023-10-27 13:56:11.674253
3040  2023-10-27 13:56:11.706201
3041  2023-10-27 13:56:11.754076
3042  2023-10-27 13:56:11.801913
3043  2023-10-27 13:56:11.831865
3044  2023-10-27 13:56:11.879738
3045  2023-10-27 13:56:11.927607
3046  2023-10-27 13:56:11.959524
3047  2023-10-27 13:56:12.007363
3048  2023-10-27 13:56:12.039312
3049  2023-10-27 13:56:12.087184
3050  2023-10-27 13:56:12.135063
3051  2023-10-27 13:56:12.166969
3052  2023-10-27 13:56:12.214839
3053  2023-10-27 13:56:12.260745
3054  2023-10-27 13:56:12.292651
3055  2023-10-27 13:56:12.339512
3056  2023-10-27 13:56:12.370443
3057  2023-10-27 13:56:12.417316
3058  2023-10-27 13:56:12.463179
3059  2023-10-27 13:56:12.511048
3060  2023-10-27 13:56:12.540936
3061  2023-10-27 13:56:12.588808
3062  2023-10-27 13:56:12.634816
3063  2023-10-27 13:56:12.666633
3064  2023-10-27 13:56:12.712511
3065  2023-10-27 13:56:12.759391
3066  2023-10-27 13:56:12.790275
3067  2023-10-27 13:56:12.838146
3068  2023-10-27 13:56:12.884019
3069  2023-10-27 13:56:12.914937
3070  2023-10-27 13:56:12.962847
3071  2023-10-27 13:56:13.007057
3072  2023-10-27 13:56:13.038987
3073  2023-10-27 13:56:13.087199
3074  2023-10-27 13:56:13.137052
3075  2023-10-27 13:56:13.166988
3076  2023-10-27 13:56:13.214843
3077  2023-10-27 13:56:13.262760
3078  2023-10-27 13:56:13.290809
3079  2023-10-27 13:56:13.337826
3080  2023-10-27 13:56:13.383603
3081  2023-10-27 13:56:13.415508
3082  2023-10-27 13:56:13.462766
3083  2023-10-27 13:56:13.509657
3084  2023-10-27 13:56:13.541562
3085  2023-10-27 13:56:13.589434
3086  2023-10-27 13:56:13.621312
3087  2023-10-27 13:56:13.666226
3088  2023-10-27 13:56:13.715064
3089  2023-10-27 13:56:13.759969
3090  2023-10-27 13:56:13.790901
3091  2023-10-27 13:56:13.838772
3092  2023-10-27 13:56:13.886603
3093  2023-10-27 13:56:13.918553
3094  2023-10-27 13:56:13.962433
3095  2023-10-27 13:56:14.008277
3096  2023-10-27 13:56:14.039195
3097  2023-10-27 13:56:14.086102
3098  2023-10-27 13:56:14.133977
3099  2023-10-27 13:56:14.165887
3100  2023-10-27 13:56:14.213759
3101  2023-10-27 13:56:14.260790
3102  2023-10-27 13:56:14.291556
3103  2023-10-27 13:56:14.337431
3104  2023-10-27 13:56:14.384303
3105  2023-10-27 13:56:14.416238
3106  2023-10-27 13:56:14.464093
3107  2023-10-27 13:56:14.496007
3108  2023-10-27 13:56:14.541883
3109  2023-10-27 13:56:14.589757
3110  2023-10-27 13:56:14.621684
3111  2023-10-27 13:56:14.669546
3112  2023-10-27 13:56:14.718434
3113  2023-10-27 13:56:14.747303
3114  2023-10-27 13:56:14.792219
3115  2023-10-27 13:56:14.840055
3116  2023-10-27 13:56:14.871013
3117  2023-10-27 13:56:14.917879
3118  2023-10-27 13:56:14.965765
3119  2023-10-27 13:56:14.997678
3120  2023-10-27 13:56:15.043659
3121  2023-10-27 13:56:15.091413
3122  2023-10-27 13:56:15.123328
3123  2023-10-27 13:56:15.169209
3124  2023-10-27 13:56:15.217079
3125  2023-10-27 13:56:15.250003
3126  2023-10-27 13:56:15.296863
3127  2023-10-27 13:56:15.343739
3128  2023-10-27 13:56:15.373658
3129  2023-10-27 13:56:15.421547
3130  2023-10-27 13:56:15.466420
3131  2023-10-27 13:56:15.498331
3132  2023-10-27 13:56:15.546167
3133  2023-10-27 13:56:15.593084
3134  2023-10-27 13:56:15.625017
3135  2023-10-27 13:56:15.671862
3136  2023-10-27 13:56:15.718739
3137  2023-10-27 13:56:15.750649
3138  2023-10-27 13:56:15.798521
3139  2023-10-27 13:56:15.830623
3140  2023-10-27 13:56:15.878310
3141  2023-10-27 13:56:15.925191
3142  2023-10-27 13:56:15.956101
3143  2023-10-27 13:56:16.003974
3144  2023-10-27 13:56:16.049821
3145  2023-10-27 13:56:16.081770
3146  2023-10-27 13:56:16.129627
3147  2023-10-27 13:56:16.177516
3148  2023-10-27 13:56:16.207434
3149  2023-10-27 13:56:16.255302
3150  2023-10-27 13:56:16.303144
3151  2023-10-27 13:56:16.333097
3152  2023-10-27 13:56:16.380965
3153  2023-10-27 13:56:16.412880
3154  2023-10-27 13:56:16.460753
3155  2023-10-27 13:56:16.508633
3156  2023-10-27 13:56:16.540541
3157  2023-10-27 13:56:16.588410
3158  2023-10-27 13:56:16.633295
3159  2023-10-27 13:56:16.665205
3160  2023-10-27 13:56:16.713090
3161  2023-10-27 13:56:16.759954
3162  2023-10-27 13:56:16.791867
3163  2023-10-27 13:56:16.837745
3164  2023-10-27 13:56:16.883621
3165  2023-10-27 13:56:16.915564
3166  2023-10-27 13:56:16.962411
3167  2023-10-27 13:56:17.010305
3168  2023-10-27 13:56:17.042200
3169  2023-10-27 13:56:17.088077
3170  2023-10-27 13:56:17.134953
3171  2023-10-27 13:56:17.166865
3172  2023-10-27 13:56:17.214784
3173  2023-10-27 13:56:17.246658
3174  2023-10-27 13:56:17.294525
3175  2023-10-27 13:56:17.340410
3176  2023-10-27 13:56:17.372316
3177  2023-10-27 13:56:17.420198
3178  2023-10-27 13:56:17.468060
3179  2023-10-27 13:56:17.500003
3180  2023-10-27 13:56:17.545821
3181  2023-10-27 13:56:17.591730
3182  2023-10-27 13:56:17.623642
3183  2023-10-27 13:56:17.670517
3184  2023-10-27 13:56:17.717411
3185  2023-10-27 13:56:17.748310
3186  2023-10-27 13:56:17.795188
3187  2023-10-27 13:56:17.843059
3188  2023-10-27 13:56:17.874971
3189  2023-10-27 13:56:17.922845
3190  2023-10-27 13:56:17.954761
3191  2023-10-27 13:56:18.002664
3192  2023-10-27 13:56:18.050535
3193  2023-10-27 13:56:18.080499
3194  2023-10-27 13:56:18.128363
3195  2023-10-27 13:56:18.176229
3196  2023-10-27 13:56:18.208169
3197  2023-10-27 13:56:18.256022
3198  2023-10-27 13:56:18.287935
3199  2023-10-27 13:56:18.336822
3200  2023-10-27 13:56:18.383644
3201  2023-10-27 13:56:18.416614
3202  2023-10-27 13:56:18.463469
3203  2023-10-27 13:56:18.495379
3204  2023-10-27 13:56:18.543255
3205  2023-10-27 13:56:18.591126
3206  2023-10-27 13:56:18.623038
3207  2023-10-27 13:56:18.670908
3208  2023-10-27 13:56:18.717785
3209  2023-10-27 13:56:18.748706
3210  2023-10-27 13:56:18.795592
3211  2023-10-27 13:56:18.841453
3212  2023-10-27 13:56:18.872370
3213  2023-10-27 13:56:18.920240
3214  2023-10-27 13:56:18.967122
3215  2023-10-27 13:56:18.999040
3216  2023-10-27 13:56:19.047021
3217  2023-10-27 13:56:19.078935
3218  2023-10-27 13:56:19.126937
3219  2023-10-27 13:56:19.174639
3220  2023-10-27 13:56:19.206554
3221  2023-10-27 13:56:19.254462
3222  2023-10-27 13:56:19.302362
3223  2023-10-27 13:56:19.334244
3224  2023-10-27 13:56:19.381121
3225  2023-10-27 13:56:19.412118
3226  2023-10-27 13:56:19.459956
3227  2023-10-27 13:56:19.507907
3228  2023-10-27 13:56:19.539816
3229  2023-10-27 13:56:19.587690
3230  2023-10-27 13:56:19.634560
3231  2023-10-27 13:56:19.665479
3232  2023-10-27 13:56:19.713356
3233  2023-10-27 13:56:19.760226
3234  2023-10-27 13:56:19.791148
3235  2023-10-27 13:56:19.838014
3236  2023-10-27 13:56:19.884911
3237  2023-10-27 13:56:19.914804
3238  2023-10-27 13:56:19.962684
3239  2023-10-27 13:56:20.011554
3240  2023-10-27 13:56:20.042472
3241  2023-10-27 13:56:20.088316
3242  2023-10-27 13:56:20.135222
3243  2023-10-27 13:56:20.166143
3244  2023-10-27 13:56:20.214022
3245  2023-10-27 13:56:20.245899
3246  2023-10-27 13:56:20.293795
3247  2023-10-27 13:56:20.341672
3248  2023-10-27 13:56:20.373553
3249  2023-10-27 13:56:20.420464
3250  2023-10-27 13:56:20.467303
3251  2023-10-27 13:56:20.498221
3252  2023-10-27 13:56:20.544141
3253  2023-10-27 13:56:20.590007
3254  2023-10-27 13:56:20.636886
3255  2023-10-27 13:56:20.666802
3256  2023-10-27 13:56:20.714684
3257  2023-10-27 13:56:20.762601
3258  2023-10-27 13:56:20.794585
3259  2023-10-27 13:56:20.838658
3260  2023-10-27 13:56:20.870385
3261  2023-10-27 13:56:20.917253
3262  2023-10-27 13:56:20.964170
3263  2023-10-27 13:56:20.996016
3264  2023-10-27 13:56:21.042890
3265  2023-10-27 13:56:21.089764
3266  2023-10-27 13:56:21.136639
3267  2023-10-27 13:56:21.166558
3268  2023-10-27 13:56:21.212437
3269  2023-10-27 13:56:21.259344
3270  2023-10-27 13:56:21.291259
3271  2023-10-27 13:56:21.339134
3272  2023-10-27 13:56:21.371013
3273  2023-10-27 13:56:21.417932
3274  2023-10-27 13:56:21.465792
3275  2023-10-27 13:56:21.497707
3276  2023-10-27 13:56:21.542584
3277  2023-10-27 13:56:21.588467
3278  2023-10-27 13:56:21.620376
3279  2023-10-27 13:56:21.668301
3280  2023-10-27 13:56:21.715276
3281  2023-10-27 13:56:21.746169
3282  2023-10-27 13:56:21.794059
3283  2023-10-27 13:56:21.841831
3284  2023-10-27 13:56:21.873801
3285  2023-10-27 13:56:21.921679
3286  2023-10-27 13:56:21.968549
3287  2023-10-27 13:56:21.998506
3288  2023-10-27 13:56:22.044378
3289  2023-10-27 13:56:22.091221
3290  2023-10-27 13:56:22.124163
3291  2023-10-27 13:56:22.170061
3292  2023-10-27 13:56:22.214890
3293  2023-10-27 13:56:22.246835
3294  2023-10-27 13:56:22.294708
3295  2023-10-27 13:56:22.342577
3296  2023-10-27 13:56:22.373495
3297  2023-10-27 13:56:22.420340
3298  2023-10-27 13:56:22.466251
3299  2023-10-27 13:56:22.498168
3300  2023-10-27 13:56:22.544180
3301  2023-10-27 13:56:22.592134
3302  2023-10-27 13:56:22.624051
3303  2023-10-27 13:56:22.670920
3304  2023-10-27 13:56:22.716794
3305  2023-10-27 13:56:22.747682
3306  2023-10-27 13:56:22.793600
3307  2023-10-27 13:56:22.841431
3308  2023-10-27 13:56:22.873346
3309  2023-10-27 13:56:22.921334
3310  2023-10-27 13:56:22.969205
3311  2023-10-27 13:56:22.999121
3312  2023-10-27 13:56:23.045015
3313  2023-10-27 13:56:23.092834
3314  2023-10-27 13:56:23.124781
3315  2023-10-27 13:56:23.171622
3316  2023-10-27 13:56:23.217536
3317  2023-10-27 13:56:23.249445
3318  2023-10-27 13:56:23.297287
3319  2023-10-27 13:56:23.329232
3320  2023-10-27 13:56:23.377107
3321  2023-10-27 13:56:23.422996
3322  2023-10-27 13:56:23.454903
3323  2023-10-27 13:56:23.501781
3324  2023-10-27 13:56:23.548646
3325  2023-10-27 13:56:23.580565
3326  2023-10-27 13:56:23.628460
3327  2023-10-27 13:56:23.676304
3328  2023-10-27 13:56:23.708218
3329  2023-10-27 13:56:23.756060
3330  2023-10-27 13:56:23.788014
3331  2023-10-27 13:56:23.834875
3332  2023-10-27 13:56:23.882754
3333  2023-10-27 13:56:23.914827
3334  2023-10-27 13:56:23.962548
3335  2023-10-27 13:56:24.009383
3336  2023-10-27 13:56:24.041327
3337  2023-10-27 13:56:24.089210
3338  2023-10-27 13:56:24.134084
3339  2023-10-27 13:56:24.166001
3340  2023-10-27 13:56:24.213868
3341  2023-10-27 13:56:24.245784
3342  2023-10-27 13:56:24.293656
3343  2023-10-27 13:56:24.341541
3344  2023-10-27 13:56:24.372445
3345  2023-10-27 13:56:24.420316
3346  2023-10-27 13:56:24.467196
3347  2023-10-27 13:56:24.499073
3348  2023-10-27 13:56:24.544952
3349  2023-10-27 13:56:24.592891
3350  2023-10-27 13:56:24.622784
3351  2023-10-27 13:56:24.669690
3352  2023-10-27 13:56:24.716533
3353  2023-10-27 13:56:24.747501
3354  2023-10-27 13:56:24.794407
3355  2023-10-27 13:56:24.840257
3356  2023-10-27 13:56:24.872171
3357  2023-10-27 13:56:24.920133
3358  2023-10-27 13:56:24.968137
3359  2023-10-27 13:56:24.999915
3360  2023-10-27 13:56:25.047784
3361  2023-10-27 13:56:25.079726
3362  2023-10-27 13:56:25.128552
3363  2023-10-27 13:56:25.176437
3364  2023-10-27 13:56:25.208321
3365  2023-10-27 13:56:25.256195
3366  2023-10-27 13:56:25.301108
3367  2023-10-27 13:56:25.332990
3368  2023-10-27 13:56:25.379870
3369  2023-10-27 13:56:25.427586
3370  2023-10-27 13:56:25.459468
3371  2023-10-27 13:56:25.506351
3372  2023-10-27 13:56:25.537292
3373  2023-10-27 13:56:25.585197
3374  2023-10-27 13:56:25.633037
3375  2023-10-27 13:56:25.663953
3376  2023-10-27 13:56:25.710830
3377  2023-10-27 13:56:25.758701
3378  2023-10-27 13:56:25.790620
3379  2023-10-27 13:56:25.838489
3380  2023-10-27 13:56:25.870398
3381  2023-10-27 13:56:25.918274
3382  2023-10-27 13:56:25.966144
3383  2023-10-27 13:56:25.998059
3384  2023-10-27 13:56:26.045933
3385  2023-10-27 13:56:26.092813
3386  2023-10-27 13:56:26.123737
3387  2023-10-27 13:56:26.169619
3388  2023-10-27 13:56:26.218482
3389  2023-10-27 13:56:26.249388
3390  2023-10-27 13:56:26.297227
3391  2023-10-27 13:56:26.329180
3392  2023-10-27 13:56:26.378061
3393  2023-10-27 13:56:26.424108
3394  2023-10-27 13:56:26.457832
3395  2023-10-27 13:56:26.503727
3396  2023-10-27 13:56:26.550581
3397  2023-10-27 13:56:26.583565
3398  2023-10-27 13:56:26.631501
3399  2023-10-27 13:56:26.679284
3400  2023-10-27 13:56:26.709232
3401  2023-10-27 13:56:26.756324
3402  2023-10-27 13:56:26.787081
3403  2023-10-27 13:56:26.834986
3404  2023-10-27 13:56:26.882825
3405  2023-10-27 13:56:26.914772
3406  2023-10-27 13:56:26.962647
3407  2023-10-27 13:56:27.008658
3408  2023-10-27 13:56:27.040586
3409  2023-10-27 13:56:27.088489
3410  2023-10-27 13:56:27.120404
3411  2023-10-27 13:56:27.168353
3412  2023-10-27 13:56:27.216246
3413  2023-10-27 13:56:27.248180
3414  2023-10-27 13:56:27.295023
3415  2023-10-27 13:56:27.342929
3416  2023-10-27 13:56:27.372846
3417  2023-10-27 13:56:27.420723
3418  2023-10-27 13:56:27.466600
3419  2023-10-27 13:56:27.497512
3420  2023-10-27 13:56:27.546386
3421  2023-10-27 13:56:27.593253
3422  2023-10-27 13:56:27.625278
3423  2023-10-27 13:56:27.671152
3424  2023-10-27 13:56:27.719028
3425  2023-10-27 13:56:27.747961
3426  2023-10-27 13:56:27.795819
3427  2023-10-27 13:56:27.843699
3428  2023-10-27 13:56:27.874606
3429  2023-10-27 13:56:27.921449
3430  2023-10-27 13:56:27.968324
3431  2023-10-27 13:56:27.999278
3432  2023-10-27 13:56:28.046116
3433  2023-10-27 13:56:28.092025
3434  2023-10-27 13:56:28.122945
3435  2023-10-27 13:56:28.170784
3436  2023-10-27 13:56:28.216696
3437  2023-10-27 13:56:28.248610
3438  2023-10-27 13:56:28.297481
3439  2023-10-27 13:56:28.343359
3440  2023-10-27 13:56:28.375273
3441  2023-10-27 13:56:28.420147
3442  2023-10-27 13:56:28.468986
3443  2023-10-27 13:56:28.499904
3444  2023-10-27 13:56:28.547858
3445  2023-10-27 13:56:28.578779
3446  2023-10-27 13:56:28.626776
3447  2023-10-27 13:56:28.674615
3448  2023-10-27 13:56:28.705565
3449  2023-10-27 13:56:28.753403
3450  2023-10-27 13:56:28.801276
3451  2023-10-27 13:56:28.833193
3452  2023-10-27 13:56:28.881065
3453  2023-10-27 13:56:28.913141
3454  2023-10-27 13:56:28.961122
3455  2023-10-27 13:56:29.009029
3456  2023-10-27 13:56:29.040944
3457  2023-10-27 13:56:29.088848
3458  2023-10-27 13:56:29.120734
3459  2023-10-27 13:56:29.166640
3460  2023-10-27 13:56:29.212535
3461  2023-10-27 13:56:29.260357
3462  2023-10-27 13:56:29.292272
3463  2023-10-27 13:56:29.340144
3464  2023-10-27 13:56:29.371061
3465  2023-10-27 13:56:29.418016
3466  2023-10-27 13:56:29.465894
3467  2023-10-27 13:56:29.497798
3468  2023-10-27 13:56:29.545669
3469  2023-10-27 13:56:29.592427
3470  2023-10-27 13:56:29.625340
3471  2023-10-27 13:56:29.672288
3472  2023-10-27 13:56:29.705217
3473  2023-10-27 13:56:29.752079
3474  2023-10-27 13:56:29.799948
3475  2023-10-27 13:56:29.831863
3476  2023-10-27 13:56:29.879732
3477  2023-10-27 13:56:29.927604
3478  2023-10-27 13:56:29.959488
3479  2023-10-27 13:56:30.008407
3480  2023-10-27 13:56:30.038280
3481  2023-10-27 13:56:30.086185
3482  2023-10-27 13:56:30.131031
3483  2023-10-27 13:56:30.176980
3484  2023-10-27 13:56:30.208870
3485  2023-10-27 13:56:30.254699
3486  2023-10-27 13:56:30.301609
3487  2023-10-27 13:56:30.332528
3488  2023-10-27 13:56:30.379401
3489  2023-10-27 13:56:30.425245
3490  2023-10-27 13:56:30.457193
3491  2023-10-27 13:56:30.504067
3492  2023-10-27 13:56:30.550939
3493  2023-10-27 13:56:30.583852
3494  2023-10-27 13:56:30.630751
3495  2023-10-27 13:56:30.677603
3496  2023-10-27 13:56:30.709546
3497  2023-10-27 13:56:30.757392
3498  2023-10-27 13:56:30.789300
3499  2023-10-27 13:56:30.837293
3500  2023-10-27 13:56:30.883181
3501  2023-10-27 13:56:30.915077
3502  2023-10-27 13:56:30.962927
3503  2023-10-27 13:56:31.009801
3504  2023-10-27 13:56:31.041715
3505  2023-10-27 13:56:31.089587
3506  2023-10-27 13:56:31.120504
3507  2023-10-27 13:56:31.166384
3508  2023-10-27 13:56:31.212261
3509  2023-10-27 13:56:31.258173
3510  2023-10-27 13:56:31.290084
3511  2023-10-27 13:56:31.338135
3512  2023-10-27 13:56:31.384831
3513  2023-10-27 13:56:31.415751
3514  2023-10-27 13:56:31.463632
3515  2023-10-27 13:56:31.510125
3516  2023-10-27 13:56:31.542028
3517  2023-10-27 13:56:31.588978
3518  2023-10-27 13:56:31.620848
3519  2023-10-27 13:56:31.669785
3520  2023-10-27 13:56:31.717806
3521  2023-10-27 13:56:31.748694
3522  2023-10-27 13:56:31.794684
3523  2023-10-27 13:56:31.841550
3524  2023-10-27 13:56:31.872472
3525  2023-10-27 13:56:31.920313
3526  2023-10-27 13:56:31.968185
3527  2023-10-27 13:56:31.999103
3528  2023-10-27 13:56:32.045978
3529  2023-10-27 13:56:32.092888
3530  2023-10-27 13:56:32.123801
3531  2023-10-27 13:56:32.169686
3532  2023-10-27 13:56:32.215541
3533  2023-10-27 13:56:32.247488
3534  2023-10-27 13:56:32.295342
3535  2023-10-27 13:56:32.342221
3536  2023-10-27 13:56:32.371134
3537  2023-10-27 13:56:32.421134
3538  2023-10-27 13:56:32.466068
3539  2023-10-27 13:56:32.496984
3540  2023-10-27 13:56:32.544898
3541  2023-10-27 13:56:32.592728
3542  2023-10-27 13:56:32.623748
3543  2023-10-27 13:56:32.670622
3544  2023-10-27 13:56:32.718495
3545  2023-10-27 13:56:32.750409
3546  2023-10-27 13:56:32.798312
3547  2023-10-27 13:56:32.830227
3548  2023-10-27 13:56:32.878099
3549  2023-10-27 13:56:32.924884
3550  2023-10-27 13:56:32.956838
3551  2023-10-27 13:56:33.002760
3552  2023-10-27 13:56:33.049617
3553  2023-10-27 13:56:33.080534
3554  2023-10-27 13:56:33.128475
3555  2023-10-27 13:56:33.176378
3556  2023-10-27 13:56:33.208260
3557  2023-10-27 13:56:33.253142
3558  2023-10-27 13:56:33.301014
3559  2023-10-27 13:56:33.331008
3560  2023-10-27 13:56:33.376892
3561  2023-10-27 13:56:33.424853
