
1  2023-10-18 13:45:35.616690
2  2023-10-18 13:45:35.648603
3  2023-10-18 13:45:35.696539
4  2023-10-18 13:45:35.728453
5  2023-10-18 13:45:35.776325
6  2023-10-18 13:45:35.824198
7  2023-10-18 13:45:35.856112
8  2023-10-18 13:45:35.902987
9  2023-10-18 13:45:35.950663
10  2023-10-18 13:45:35.982581
11  2023-10-18 13:45:36.030453
12  2023-10-18 13:45:36.062364
13  2023-10-18 13:45:36.110271
14  2023-10-18 13:45:36.158108
15  2023-10-18 13:45:36.190022
16  2023-10-18 13:45:36.236937
17  2023-10-18 13:45:36.268844
18  2023-10-18 13:45:36.316715
19  2023-10-18 13:45:36.363605
20  2023-10-18 13:45:36.395520
21  2023-10-18 13:45:36.443392
22  2023-10-18 13:45:36.491177
23  2023-10-18 13:45:36.523139
24  2023-10-18 13:45:36.571154
25  2023-10-18 13:45:36.616921
26  2023-10-18 13:45:36.648756
27  2023-10-18 13:45:36.695631
28  2023-10-18 13:45:36.732533
29  2023-10-18 13:45:36.773423
30  2023-10-18 13:45:36.821354
31  2023-10-18 13:45:36.853335
32  2023-10-18 13:45:36.902205
33  2023-10-18 13:45:36.949046
34  2023-10-18 13:45:36.980960
35  2023-10-18 13:45:37.028863
36  2023-10-18 13:45:37.060804
37  2023-10-18 13:45:37.108651
38  2023-10-18 13:45:37.156491
39  2023-10-18 13:45:37.188406
40  2023-10-18 13:45:37.236278
41  2023-10-18 13:45:37.284298
42  2023-10-18 13:45:37.316104
43  2023-10-18 13:45:37.363977
44  2023-10-18 13:45:37.396891
45  2023-10-18 13:45:37.443764
46  2023-10-18 13:45:37.491636
47  2023-10-18 13:45:37.523550
48  2023-10-18 13:45:37.571516
49  2023-10-18 13:45:37.603338
50  2023-10-18 13:45:37.651266
51  2023-10-18 13:45:37.699081
52  2023-10-18 13:45:37.730996
53  2023-10-18 13:45:37.778907
54  2023-10-18 13:45:37.810855
55  2023-10-18 13:45:37.858703
56  2023-10-18 13:45:37.906575
57  2023-10-18 13:45:37.938536
58  2023-10-18 13:45:37.986361
59  2023-10-18 13:45:38.034283
60  2023-10-18 13:45:38.066149
61  2023-10-18 13:45:38.113023
62  2023-10-18 13:45:38.143982
63  2023-10-18 13:45:38.191854
64  2023-10-18 13:45:38.239685
65  2023-10-18 13:45:38.269609
66  2023-10-18 13:45:38.317553
67  2023-10-18 13:45:38.365505
68  2023-10-18 13:45:38.397340
69  2023-10-18 13:45:38.446259
70  2023-10-18 13:45:38.477176
71  2023-10-18 13:45:38.525997
72  2023-10-18 13:45:38.571911
73  2023-10-18 13:45:38.603971
74  2023-10-18 13:45:38.651660
75  2023-10-18 13:45:38.698534
76  2023-10-18 13:45:38.729452
77  2023-10-18 13:45:38.776559
78  2023-10-18 13:45:38.823434
79  2023-10-18 13:45:38.855349
80  2023-10-18 13:45:38.904227
81  2023-10-18 13:45:38.950132
82  2023-10-18 13:45:38.982065
83  2023-10-18 13:45:39.028887
84  2023-10-18 13:45:39.061799
85  2023-10-18 13:45:39.108671
86  2023-10-18 13:45:39.157604
87  2023-10-18 13:45:39.187607
88  2023-10-18 13:45:39.236517
89  2023-10-18 13:45:39.283385
90  2023-10-18 13:45:39.315266
91  2023-10-18 13:45:39.362145
92  2023-10-18 13:45:39.409015
93  2023-10-18 13:45:39.440930
94  2023-10-18 13:45:39.488802
95  2023-10-18 13:45:39.520716
96  2023-10-18 13:45:39.568629
97  2023-10-18 13:45:39.616460
98  2023-10-18 13:45:39.648375
99  2023-10-18 13:45:39.694285
100  2023-10-18 13:45:39.742202
101  2023-10-18 13:45:39.774112
102  2023-10-18 13:45:39.822948
103  2023-10-18 13:45:39.853964
104  2023-10-18 13:45:39.901855
105  2023-10-18 13:45:39.949694
106  2023-10-18 13:45:39.981646
107  2023-10-18 13:45:40.029482
108  2023-10-18 13:45:40.061395
109  2023-10-18 13:45:40.109313
110  2023-10-18 13:45:40.157139
111  2023-10-18 13:45:40.189054
112  2023-10-18 13:45:40.236962
113  2023-10-18 13:45:40.283800
114  2023-10-18 13:45:40.315715
115  2023-10-18 13:45:40.363587
116  2023-10-18 13:45:40.395533
117  2023-10-18 13:45:40.443419
118  2023-10-18 13:45:40.491246
119  2023-10-18 13:45:40.523161
120  2023-10-18 13:45:40.571074
121  2023-10-18 13:45:40.601985
122  2023-10-18 13:45:40.649822
123  2023-10-18 13:45:40.698745
124  2023-10-18 13:45:40.729609
125  2023-10-18 13:45:40.777482
126  2023-10-18 13:45:40.825403
127  2023-10-18 13:45:40.857267
128  2023-10-18 13:45:40.905141
129  2023-10-18 13:45:40.937087
130  2023-10-18 13:45:40.984958
131  2023-10-18 13:45:41.032835
132  2023-10-18 13:45:41.064716
133  2023-10-18 13:45:41.111618
134  2023-10-18 13:45:41.158462
135  2023-10-18 13:45:41.190410
136  2023-10-18 13:45:41.238280
137  2023-10-18 13:45:41.270196
138  2023-10-18 13:45:41.317038
139  2023-10-18 13:45:41.364942
140  2023-10-18 13:45:41.396825
141  2023-10-18 13:45:41.444732
142  2023-10-18 13:45:41.492569
143  2023-10-18 13:45:41.524484
144  2023-10-18 13:45:41.572356
145  2023-10-18 13:45:41.603275
146  2023-10-18 13:45:41.650194
147  2023-10-18 13:45:41.697055
148  2023-10-18 13:45:41.728970
149  2023-10-18 13:45:41.775812
150  2023-10-18 13:45:41.823684
151  2023-10-18 13:45:41.856599
152  2023-10-18 13:45:41.904514
153  2023-10-18 13:45:41.935385
154  2023-10-18 13:45:41.983257
155  2023-10-18 13:45:42.472949
156  2023-10-18 13:45:42.491898
157  2023-10-18 13:45:42.523814
158  2023-10-18 13:45:42.571737
159  2023-10-18 13:45:42.603638
160  2023-10-18 13:45:42.650508
161  2023-10-18 13:45:42.697350
162  2023-10-18 13:45:42.729406
163  2023-10-18 13:45:42.777136
164  2023-10-18 13:45:42.824062
165  2023-10-18 13:45:42.855004
166  2023-10-18 13:45:42.902840
167  2023-10-18 13:45:42.950719
168  2023-10-18 13:45:42.982630
169  2023-10-18 13:45:43.030501
170  2023-10-18 13:45:43.062445
171  2023-10-18 13:45:43.110332
172  2023-10-18 13:45:43.158116
173  2023-10-18 13:45:43.190031
174  2023-10-18 13:45:43.235952
175  2023-10-18 13:45:43.283833
176  2023-10-18 13:45:43.315742
177  2023-10-18 13:45:43.364568
178  2023-10-18 13:45:43.396494
179  2023-10-18 13:45:43.443355
180  2023-10-18 13:45:43.491229
181  2023-10-18 13:45:43.523142
182  2023-10-18 13:45:43.571015
183  2023-10-18 13:45:43.616892
184  2023-10-18 13:45:43.647809
185  2023-10-18 13:45:43.696677
186  2023-10-18 13:45:43.727595
187  2023-10-18 13:45:43.773518
188  2023-10-18 13:45:43.821348
189  2023-10-18 13:45:43.852261
190  2023-10-18 13:45:43.900164
191  2023-10-18 13:45:43.948037
192  2023-10-18 13:45:43.979955
193  2023-10-18 13:45:44.027880
194  2023-10-18 13:45:44.075799
195  2023-10-18 13:45:44.106715
196  2023-10-18 13:45:44.154541
197  2023-10-18 13:45:44.186456
198  2023-10-18 13:45:44.234376
199  2023-10-18 13:45:44.282200
200  2023-10-18 13:45:44.314115
201  2023-10-18 13:45:44.361986
202  2023-10-18 13:45:44.393901
203  2023-10-18 13:45:44.441776
204  2023-10-18 13:45:44.489694
205  2023-10-18 13:45:44.521560
206  2023-10-18 13:45:44.569466
207  2023-10-18 13:45:44.617304
208  2023-10-18 13:45:44.649219
209  2023-10-18 13:45:44.697146
210  2023-10-18 13:45:44.729053
211  2023-10-18 13:45:44.776925
212  2023-10-18 13:45:44.823791
213  2023-10-18 13:45:44.855702
214  2023-10-18 13:45:44.903583
215  2023-10-18 13:45:44.935505
216  2023-10-18 13:45:44.982361
217  2023-10-18 13:45:45.030233
218  2023-10-18 13:45:45.062146
219  2023-10-18 13:45:45.110039
220  2023-10-18 13:45:45.157908
221  2023-10-18 13:45:45.189774
222  2023-10-18 13:45:45.237679
223  2023-10-18 13:45:45.269594
224  2023-10-18 13:45:45.317466
225  2023-10-18 13:45:45.365330
226  2023-10-18 13:45:45.397255
227  2023-10-18 13:45:45.445093
228  2023-10-18 13:45:45.477039
229  2023-10-18 13:45:45.524910
230  2023-10-18 13:45:45.572782
231  2023-10-18 13:45:45.604711
232  2023-10-18 13:45:45.652569
233  2023-10-18 13:45:45.700411
234  2023-10-18 13:45:45.732361
235  2023-10-18 13:45:45.780228
236  2023-10-18 13:45:45.812143
237  2023-10-18 13:45:45.860024
238  2023-10-18 13:45:45.907854
239  2023-10-18 13:45:45.939797
240  2023-10-18 13:45:45.987641
241  2023-10-18 13:45:46.018654
242  2023-10-18 13:45:46.066492
243  2023-10-18 13:45:46.114354
244  2023-10-18 13:45:46.146269
245  2023-10-18 13:45:46.194983
246  2023-10-18 13:45:46.241858
247  2023-10-18 13:45:46.272808
248  2023-10-18 13:45:46.319651
249  2023-10-18 13:45:46.367521
250  2023-10-18 13:45:46.399435
251  2023-10-18 13:45:46.446343
252  2023-10-18 13:45:46.478251
253  2023-10-18 13:45:46.526097
254  2023-10-18 13:45:46.574021
255  2023-10-18 13:45:46.605915
256  2023-10-18 13:45:46.653756
257  2023-10-18 13:45:46.685670
258  2023-10-18 13:45:46.733542
259  2023-10-18 13:45:46.781462
260  2023-10-18 13:45:46.813362
261  2023-10-18 13:45:46.861201
262  2023-10-18 13:45:46.909106
263  2023-10-18 13:45:46.941018
264  2023-10-18 13:45:46.988864
265  2023-10-18 13:45:47.019779
266  2023-10-18 13:45:47.067684
267  2023-10-18 13:45:47.114604
268  2023-10-18 13:45:47.145495
269  2023-10-18 13:45:47.193474
270  2023-10-18 13:45:47.241312
271  2023-10-18 13:45:47.273215
272  2023-10-18 13:45:47.321107
273  2023-10-18 13:45:47.352969
274  2023-10-18 13:45:47.399851
275  2023-10-18 13:45:47.446752
276  2023-10-18 13:45:47.479707
277  2023-10-18 13:45:47.526505
278  2023-10-18 13:45:47.852634
279  2023-10-18 13:45:47.861611
280  2023-10-18 13:45:47.908539
281  2023-10-18 13:45:47.941433
282  2023-10-18 13:45:47.988308
283  2023-10-18 13:45:48.020220
284  2023-10-18 13:45:48.068060
285  2023-10-18 13:45:48.115969
286  2023-10-18 13:45:48.147878
287  2023-10-18 13:45:48.195764
288  2023-10-18 13:45:48.227633
289  2023-10-18 13:45:48.275503
290  2023-10-18 13:45:48.343323
291  2023-10-18 13:45:48.354329
292  2023-10-18 13:45:48.401286
293  2023-10-18 13:45:48.448244
294  2023-10-18 13:45:48.480154
295  2023-10-18 13:45:48.528092
296  2023-10-18 13:45:48.575015
297  2023-10-18 13:45:48.606915
298  2023-10-18 13:45:48.653756
299  2023-10-18 13:45:48.701629
300  2023-10-18 13:45:48.733543
301  2023-10-18 13:45:48.779459
302  2023-10-18 13:45:48.811379
303  2023-10-18 13:45:48.859207
304  2023-10-18 13:45:48.907115
305  2023-10-18 13:45:48.939149
306  2023-10-18 13:45:48.986865
307  2023-10-18 13:45:49.018780
308  2023-10-18 13:45:49.066689
309  2023-10-18 13:45:49.114556
310  2023-10-18 13:45:49.146471
311  2023-10-18 13:45:49.193314
312  2023-10-18 13:45:49.241230
313  2023-10-18 13:45:49.273103
314  2023-10-18 13:45:49.320973
315  2023-10-18 13:45:49.366889
316  2023-10-18 13:45:49.398797
317  2023-10-18 13:45:49.446684
318  2023-10-18 13:45:49.478583
319  2023-10-18 13:45:49.526448
320  2023-10-18 13:45:49.574358
321  2023-10-18 13:45:49.605244
322  2023-10-18 13:45:49.653109
323  2023-10-18 13:45:49.700033
324  2023-10-18 13:45:49.732876
325  2023-10-18 13:45:49.779794
326  2023-10-18 13:45:49.810702
327  2023-10-18 13:45:49.857540
328  2023-10-18 13:45:49.904444
329  2023-10-18 13:45:49.936362
330  2023-10-18 13:45:49.984240
331  2023-10-18 13:45:50.033106
332  2023-10-18 13:45:50.064985
333  2023-10-18 13:45:50.111891
334  2023-10-18 13:45:50.143813
335  2023-10-18 13:45:50.191683
336  2023-10-18 13:45:50.239548
337  2023-10-18 13:45:50.271470
338  2023-10-18 13:45:50.319339
339  2023-10-18 13:45:50.367207
340  2023-10-18 13:45:50.399125
341  2023-10-18 13:45:50.446995
342  2023-10-18 13:45:50.478913
343  2023-10-18 13:45:50.526783
344  2023-10-18 13:45:50.574654
345  2023-10-18 13:45:50.606580
346  2023-10-18 13:45:50.654462
347  2023-10-18 13:45:50.686323
348  2023-10-18 13:45:50.734253
349  2023-10-18 13:45:50.782154
350  2023-10-18 13:45:50.814031
351  2023-10-18 13:45:50.862853
352  2023-10-18 13:45:50.893768
353  2023-10-18 13:45:50.941683
354  2023-10-18 13:45:50.990515
355  2023-10-18 13:45:51.022429
356  2023-10-18 13:45:51.068301
357  2023-10-18 13:45:51.116223
358  2023-10-18 13:45:51.148123
359  2023-10-18 13:45:51.195969
360  2023-10-18 13:45:51.227874
361  2023-10-18 13:45:51.275867
362  2023-10-18 13:45:51.323619
363  2023-10-18 13:45:51.355533
364  2023-10-18 13:45:51.403405
365  2023-10-18 13:45:51.435320
366  2023-10-18 13:45:51.483192
367  2023-10-18 13:45:51.530099
368  2023-10-18 13:45:51.561981
369  2023-10-18 13:45:51.610852
370  2023-10-18 13:45:51.656728
371  2023-10-18 13:45:51.687691
372  2023-10-18 13:45:51.735560
373  2023-10-18 13:45:51.783390
374  2023-10-18 13:45:51.814307
375  2023-10-18 13:45:51.861213
376  2023-10-18 13:45:51.909085
377  2023-10-18 13:45:51.941000
378  2023-10-18 13:45:51.987879
379  2023-10-18 13:45:52.019758
380  2023-10-18 13:45:52.067669
381  2023-10-18 13:45:52.115546
382  2023-10-18 13:45:52.147456
383  2023-10-18 13:45:52.194306
384  2023-10-18 13:45:52.242165
385  2023-10-18 13:45:52.274109
386  2023-10-18 13:45:52.321979
387  2023-10-18 13:45:52.353906
388  2023-10-18 13:45:52.402734
389  2023-10-18 13:45:52.449653
390  2023-10-18 13:45:52.481561
391  2023-10-18 13:45:52.529427
392  2023-10-18 13:45:52.561352
393  2023-10-18 13:45:52.609211
394  2023-10-18 13:45:52.657054
395  2023-10-18 13:45:52.689017
396  2023-10-18 13:45:52.737840
397  2023-10-18 13:45:52.768806
398  2023-10-18 13:45:52.816659
399  2023-10-18 13:45:52.863537
400  2023-10-18 13:45:52.896431
401  2023-10-18 13:45:52.943328
402  2023-10-18 13:45:52.991195
403  2023-10-18 13:45:53.024074
404  2023-10-18 13:45:53.069950
405  2023-10-18 13:45:53.116825
406  2023-10-18 13:45:53.449936
407  2023-10-18 13:45:53.481884
408  2023-10-18 13:45:53.529770
409  2023-10-18 13:45:53.560669
410  2023-10-18 13:45:53.609509
411  2023-10-18 13:45:53.655428
412  2023-10-18 13:45:53.686892
413  2023-10-18 13:45:53.734736
414  2023-10-18 13:45:53.781726
415  2023-10-18 13:45:53.812641
416  2023-10-18 13:45:53.860514
417  2023-10-18 13:45:53.907314
418  2023-10-18 13:45:53.939333
419  2023-10-18 13:45:53.987211
420  2023-10-18 13:45:54.035076
421  2023-10-18 13:45:54.066967
422  2023-10-18 13:45:54.113874
423  2023-10-18 13:45:54.145793
424  2023-10-18 13:45:54.193660
425  2023-10-18 13:45:54.241547
426  2023-10-18 13:45:54.273446
427  2023-10-18 13:45:54.321319
428  2023-10-18 13:45:54.353242
429  2023-10-18 13:45:54.401109
430  2023-10-18 13:45:54.448991
431  2023-10-18 13:45:54.480891
432  2023-10-18 13:45:54.529730
433  2023-10-18 13:45:54.575607
434  2023-10-18 13:45:54.606564
435  2023-10-18 13:45:54.655394
436  2023-10-18 13:45:54.686335
437  2023-10-18 13:45:54.734182
438  2023-10-18 13:45:54.781104
439  2023-10-18 13:45:54.812028
440  2023-10-18 13:45:54.859847
441  2023-10-18 13:45:54.907749
442  2023-10-18 13:45:54.938666
443  2023-10-18 13:45:54.986507
444  2023-10-18 13:45:55.033382
445  2023-10-18 13:45:55.065297
446  2023-10-18 13:45:55.113206
447  2023-10-18 13:45:55.145136
448  2023-10-18 13:45:55.192955
449  2023-10-18 13:45:55.240830
450  2023-10-18 13:45:55.272813
451  2023-10-18 13:45:55.319649
452  2023-10-18 13:45:55.367613
453  2023-10-18 13:45:55.399435
454  2023-10-18 13:45:55.447309
455  2023-10-18 13:45:55.479190
456  2023-10-18 13:45:55.527062
457  2023-10-18 13:45:55.573969
458  2023-10-18 13:45:55.605883
459  2023-10-18 13:45:55.653723
460  2023-10-18 13:45:55.700648
461  2023-10-18 13:45:55.732547
462  2023-10-18 13:45:55.779425
463  2023-10-18 13:45:55.811302
464  2023-10-18 13:45:55.859207
465  2023-10-18 13:45:55.905083
466  2023-10-18 13:45:55.937965
467  2023-10-18 13:45:55.984863
468  2023-10-18 13:45:56.032758
469  2023-10-18 13:45:56.064625
470  2023-10-18 13:45:56.111532
471  2023-10-18 13:45:56.158498
472  2023-10-18 13:45:56.190333
473  2023-10-18 13:45:56.237195
474  2023-10-18 13:45:56.269112
475  2023-10-18 13:45:56.316979
476  2023-10-18 13:45:56.363859
477  2023-10-18 13:45:56.395740
478  2023-10-18 13:45:56.443645
479  2023-10-18 13:45:56.492483
480  2023-10-18 13:45:56.523399
481  2023-10-18 13:45:56.571304
482  2023-10-18 13:45:56.603239
483  2023-10-18 13:45:56.650094
484  2023-10-18 13:45:56.697932
485  2023-10-18 13:45:56.730031
486  2023-10-18 13:45:56.777719
487  2023-10-18 13:45:56.825591
488  2023-10-18 13:45:56.857505
489  2023-10-18 13:45:56.905379
490  2023-10-18 13:45:56.937304
491  2023-10-18 13:45:56.986162
492  2023-10-18 13:45:57.033037
493  2023-10-18 13:45:57.064997
494  2023-10-18 13:45:57.112855
495  2023-10-18 13:45:57.143779
496  2023-10-18 13:45:57.191753
497  2023-10-18 13:45:57.240483
498  2023-10-18 13:45:57.272400
499  2023-10-18 13:45:57.319271
500  2023-10-18 13:45:57.367169
501  2023-10-18 13:45:57.400057
502  2023-10-18 13:45:57.446930
503  2023-10-18 13:45:57.478873
504  2023-10-18 13:45:57.525719
505  2023-10-18 13:45:57.573622
506  2023-10-18 13:45:57.604557
507  2023-10-18 13:45:57.652381
508  2023-10-18 13:45:57.701251
509  2023-10-18 13:45:57.732214
510  2023-10-18 13:45:57.780093
511  2023-10-18 13:45:57.812002
512  2023-10-18 13:45:57.859864
513  2023-10-18 13:45:57.907699
514  2023-10-18 13:45:57.938616
515  2023-10-18 13:45:57.986488
516  2023-10-18 13:45:58.033433
517  2023-10-18 13:45:58.065379
518  2023-10-18 13:45:58.113251
519  2023-10-18 13:45:58.145165
520  2023-10-18 13:45:58.193067
521  2023-10-18 13:45:58.240862
522  2023-10-18 13:45:58.272814
523  2023-10-18 13:45:58.320681
524  2023-10-18 13:45:58.352599
525  2023-10-18 13:45:58.400470
526  2023-10-18 13:45:58.448350
527  2023-10-18 13:45:58.480288
528  2023-10-18 13:45:58.528129
529  2023-10-18 13:45:58.575015
530  2023-10-18 13:45:58.606914
531  2023-10-18 13:45:58.654787
532  2023-10-18 13:45:58.686726
533  2023-10-18 13:45:58.832284
534  2023-10-18 13:45:58.862233
535  2023-10-18 13:45:58.908119
536  2023-10-18 13:45:58.940103
537  2023-10-18 13:45:58.987982
538  2023-10-18 13:45:59.019886
539  2023-10-18 13:45:59.067758
540  2023-10-18 13:45:59.114651
541  2023-10-18 13:45:59.146555
542  2023-10-18 13:45:59.194389
543  2023-10-18 13:45:59.242293
544  2023-10-18 13:45:59.274206
545  2023-10-18 13:45:59.322047
546  2023-10-18 13:45:59.354018
547  2023-10-18 13:45:59.401866
548  2023-10-18 13:45:59.449739
549  2023-10-18 13:45:59.481668
550  2023-10-18 13:45:59.529493
551  2023-10-18 13:45:59.561407
552  2023-10-18 13:45:59.609280
553  2023-10-18 13:45:59.657155
554  2023-10-18 13:45:59.688069
555  2023-10-18 13:45:59.735967
556  2023-10-18 13:45:59.783813
557  2023-10-18 13:45:59.816726
558  2023-10-18 13:45:59.863635
559  2023-10-18 13:45:59.895514
560  2023-10-18 13:45:59.943412
561  2023-10-18 13:45:59.991258
562  2023-10-18 13:46:00.023184
563  2023-10-18 13:46:00.071078
564  2023-10-18 13:46:00.102985
565  2023-10-18 13:46:00.150832
566  2023-10-18 13:46:00.198703
567  2023-10-18 13:46:00.230654
568  2023-10-18 13:46:00.278490
569  2023-10-18 13:46:00.310432
570  2023-10-18 13:46:00.357280
571  2023-10-18 13:46:00.405182
572  2023-10-18 13:46:00.437100
573  2023-10-18 13:46:00.484938
574  2023-10-18 13:46:00.531850
575  2023-10-18 13:46:00.563790
576  2023-10-18 13:46:00.610644
577  2023-10-18 13:46:00.658475
578  2023-10-18 13:46:00.690438
579  2023-10-18 13:46:00.739262
580  2023-10-18 13:46:00.771176
581  2023-10-18 13:46:00.818226
582  2023-10-18 13:46:00.866974
583  2023-10-18 13:46:00.898969
584  2023-10-18 13:46:00.945873
585  2023-10-18 13:46:00.977788
586  2023-10-18 13:46:01.025655
587  2023-10-18 13:46:01.073500
588  2023-10-18 13:46:01.105446
589  2023-10-18 13:46:01.153286
590  2023-10-18 13:46:01.200195
591  2023-10-18 13:46:01.232110
592  2023-10-18 13:46:01.279980
593  2023-10-18 13:46:01.310916
594  2023-10-18 13:46:01.358768
595  2023-10-18 13:46:01.406645
596  2023-10-18 13:46:01.438560
597  2023-10-18 13:46:01.485273
598  2023-10-18 13:46:01.533207
599  2023-10-18 13:46:01.565083
600  2023-10-18 13:46:01.610993
601  2023-10-18 13:46:01.658863
602  2023-10-18 13:46:01.690778
603  2023-10-18 13:46:01.738620
604  2023-10-18 13:46:01.770536
605  2023-10-18 13:46:01.818433
606  2023-10-18 13:46:01.866319
607  2023-10-18 13:46:01.898228
608  2023-10-18 13:46:01.946073
609  2023-10-18 13:46:01.978006
610  2023-10-18 13:46:02.025851
611  2023-10-18 13:46:02.073725
612  2023-10-18 13:46:02.106636
613  2023-10-18 13:46:02.153540
614  2023-10-18 13:46:02.185455
615  2023-10-18 13:46:02.233328
616  2023-10-18 13:46:02.281212
617  2023-10-18 13:46:02.312122
618  2023-10-18 13:46:02.360037
619  2023-10-18 13:46:02.408828
620  2023-10-18 13:46:02.440745
621  2023-10-18 13:46:02.487616
622  2023-10-18 13:46:02.520530
623  2023-10-18 13:46:02.565441
624  2023-10-18 13:46:02.613306
625  2023-10-18 13:46:02.645226
626  2023-10-18 13:46:02.692069
627  2023-10-18 13:46:02.739982
628  2023-10-18 13:46:02.771894
629  2023-10-18 13:46:02.819728
630  2023-10-18 13:46:02.866604
631  2023-10-18 13:46:02.899556
632  2023-10-18 13:46:02.946390
633  2023-10-18 13:46:02.978305
634  2023-10-18 13:46:03.026200
635  2023-10-18 13:46:03.074048
636  2023-10-18 13:46:03.105990
637  2023-10-18 13:46:03.153835
638  2023-10-18 13:46:03.185780
639  2023-10-18 13:46:03.233648
640  2023-10-18 13:46:03.281494
641  2023-10-18 13:46:03.313409
642  2023-10-18 13:46:03.362280
643  2023-10-18 13:46:03.409184
644  2023-10-18 13:46:03.440145
645  2023-10-18 13:46:03.488062
646  2023-10-18 13:46:03.519964
647  2023-10-18 13:46:03.567837
648  2023-10-18 13:46:03.615726
649  2023-10-18 13:46:03.647610
650  2023-10-18 13:46:03.695482
651  2023-10-18 13:46:03.727463
652  2023-10-18 13:46:03.775337
653  2023-10-18 13:46:03.824177
654  2023-10-18 13:46:03.855122
655  2023-10-18 13:46:03.902993
656  2023-10-18 13:46:03.950870
657  2023-10-18 13:46:03.982781
658  2023-10-18 13:46:04.030622
659  2023-10-18 13:46:04.061572
660  2023-10-18 13:46:04.109443
661  2023-10-18 13:46:04.157322
662  2023-10-18 13:46:04.188224
663  2023-10-18 13:46:04.236117
664  2023-10-18 13:46:04.282947
665  2023-10-18 13:46:04.417586
666  2023-10-18 13:46:04.442519
667  2023-10-18 13:46:04.490392
668  2023-10-18 13:46:04.523308
669  2023-10-18 13:46:04.570210
670  2023-10-18 13:46:04.617096
671  2023-10-18 13:46:04.649971
672  2023-10-18 13:46:04.696876
673  2023-10-18 13:46:04.728784
674  2023-10-18 13:46:04.776660
675  2023-10-18 13:46:04.824500
676  2023-10-18 13:46:04.855955
677  2023-10-18 13:46:04.903830
678  2023-10-18 13:46:04.951704
679  2023-10-18 13:46:04.983619
680  2023-10-18 13:46:05.030489
681  2023-10-18 13:46:05.062404
682  2023-10-18 13:46:05.110307
683  2023-10-18 13:46:05.158148
684  2023-10-18 13:46:05.191061
685  2023-10-18 13:46:05.237967
686  2023-10-18 13:46:05.268884
687  2023-10-18 13:46:05.316724
688  2023-10-18 13:46:05.364629
689  2023-10-18 13:46:05.396543
690  2023-10-18 13:46:05.443386
691  2023-10-18 13:46:05.491290
692  2023-10-18 13:46:05.523172
693  2023-10-18 13:46:05.571084
694  2023-10-18 13:46:05.603958
695  2023-10-18 13:46:05.650978
696  2023-10-18 13:46:05.698705
697  2023-10-18 13:46:05.731616
698  2023-10-18 13:46:05.778490
699  2023-10-18 13:46:05.811404
700  2023-10-18 13:46:05.856311
701  2023-10-18 13:46:05.904153
702  2023-10-18 13:46:05.936094
703  2023-10-18 13:46:05.983941
704  2023-10-18 13:46:06.031812
705  2023-10-18 13:46:06.063758
706  2023-10-18 13:46:06.110637
707  2023-10-18 13:46:06.158473
708  2023-10-18 13:46:06.188434
709  2023-10-18 13:46:06.236290
710  2023-10-18 13:46:06.284344
711  2023-10-18 13:46:06.315078
712  2023-10-18 13:46:06.362959
713  2023-10-18 13:46:06.394893
714  2023-10-18 13:46:06.442749
715  2023-10-18 13:46:06.490587
716  2023-10-18 13:46:06.522504
717  2023-10-18 13:46:06.568500
718  2023-10-18 13:46:06.616339
719  2023-10-18 13:46:06.647975
720  2023-10-18 13:46:06.694890
721  2023-10-18 13:46:06.741786
722  2023-10-18 13:46:06.772707
723  2023-10-18 13:46:06.820545
724  2023-10-18 13:46:06.852460
725  2023-10-18 13:46:06.900376
726  2023-10-18 13:46:06.948204
727  2023-10-18 13:46:06.980119
728  2023-10-18 13:46:07.028025
729  2023-10-18 13:46:07.075863
730  2023-10-18 13:46:07.107779
731  2023-10-18 13:46:07.155649
732  2023-10-18 13:46:07.187564
733  2023-10-18 13:46:07.235472
734  2023-10-18 13:46:07.282342
735  2023-10-18 13:46:07.314273
736  2023-10-18 13:46:07.361132
737  2023-10-18 13:46:07.408972
738  2023-10-18 13:46:07.439922
739  2023-10-18 13:46:07.487795
740  2023-10-18 13:46:07.519720
741  2023-10-18 13:46:07.567579
742  2023-10-18 13:46:07.615454
743  2023-10-18 13:46:07.647467
744  2023-10-18 13:46:07.695239
745  2023-10-18 13:46:07.727152
746  2023-10-18 13:46:07.775028
747  2023-10-18 13:46:07.822902
748  2023-10-18 13:46:07.853816
749  2023-10-18 13:46:07.902782
750  2023-10-18 13:46:07.949687
751  2023-10-18 13:46:07.980601
752  2023-10-18 13:46:08.028442
753  2023-10-18 13:46:08.061354
754  2023-10-18 13:46:08.108263
755  2023-10-18 13:46:08.156132
756  2023-10-18 13:46:08.188049
757  2023-10-18 13:46:08.235917
758  2023-10-18 13:46:08.284759
759  2023-10-18 13:46:08.316674
760  2023-10-18 13:46:08.363577
761  2023-10-18 13:46:08.395496
762  2023-10-18 13:46:08.443386
763  2023-10-18 13:46:08.490262
764  2023-10-18 13:46:08.522171
765  2023-10-18 13:46:08.570029
766  2023-10-18 13:46:08.617908
767  2023-10-18 13:46:08.648826
768  2023-10-18 13:46:08.696655
769  2023-10-18 13:46:08.729570
770  2023-10-18 13:46:08.776481
771  2023-10-18 13:46:08.824314
772  2023-10-18 13:46:08.856264
773  2023-10-18 13:46:08.904136
774  2023-10-18 13:46:08.936041
775  2023-10-18 13:46:08.984888
776  2023-10-18 13:46:09.030795
777  2023-10-18 13:46:09.061680
778  2023-10-18 13:46:09.108647
779  2023-10-18 13:46:09.157488
780  2023-10-18 13:46:09.188403
781  2023-10-18 13:46:09.236308
782  2023-10-18 13:46:09.284147
783  2023-10-18 13:46:09.316062
784  2023-10-18 13:46:09.363959
785  2023-10-18 13:46:09.395879
786  2023-10-18 13:46:09.443721
787  2023-10-18 13:46:09.508574
788  2023-10-18 13:46:09.523538
789  2023-10-18 13:46:09.571424
790  2023-10-18 13:46:09.603295
791  2023-10-18 13:46:09.651166
792  2023-10-18 13:46:09.698041
793  2023-10-18 13:46:09.730985
794  2023-10-18 13:46:09.777828
795  2023-10-18 13:46:09.826700
796  2023-10-18 13:46:09.857622
797  2023-10-18 13:46:09.905486
798  2023-10-18 13:46:09.937435
799  2023-10-18 13:46:09.984308
800  2023-10-18 13:46:10.032174
801  2023-10-18 13:46:10.064096
802  2023-10-18 13:46:10.111934
803  2023-10-18 13:46:10.143849
804  2023-10-18 13:46:10.191891
805  2023-10-18 13:46:10.239738
806  2023-10-18 13:46:10.271684
807  2023-10-18 13:46:10.319574
808  2023-10-18 13:46:10.367431
809  2023-10-18 13:46:10.398368
810  2023-10-18 13:46:10.445221
811  2023-10-18 13:46:10.477151
812  2023-10-18 13:46:10.525982
813  2023-10-18 13:46:10.572847
814  2023-10-18 13:46:10.603797
815  2023-10-18 13:46:10.651670
816  2023-10-18 13:46:10.699509
817  2023-10-18 13:46:10.731424
818  2023-10-18 13:46:10.779341
819  2023-10-18 13:46:10.811243
820  2023-10-18 13:46:10.859114
821  2023-10-18 13:46:10.906985
822  2023-10-18 13:46:10.938915
823  2023-10-18 13:46:10.987748
824  2023-10-18 13:46:11.033640
825  2023-10-18 13:46:11.065561
826  2023-10-18 13:46:11.113435
827  2023-10-18 13:46:11.145352
828  2023-10-18 13:46:11.193223
829  2023-10-18 13:46:11.241108
830  2023-10-18 13:46:11.273009
831  2023-10-18 13:46:11.320848
832  2023-10-18 13:46:11.352812
833  2023-10-18 13:46:11.400669
834  2023-10-18 13:46:11.448538
835  2023-10-18 13:46:11.480454
836  2023-10-18 13:46:11.528293
837  2023-10-18 13:46:11.575202
838  2023-10-18 13:46:11.607116
839  2023-10-18 13:46:11.653988
840  2023-10-18 13:46:11.685872
841  2023-10-18 13:46:11.733910
842  2023-10-18 13:46:11.781642
843  2023-10-18 13:46:11.813564
844  2023-10-18 13:46:11.861435
845  2023-10-18 13:46:11.908278
846  2023-10-18 13:46:11.940227
847  2023-10-18 13:46:11.988065
848  2023-10-18 13:46:12.019979
849  2023-10-18 13:46:12.067889
850  2023-10-18 13:46:12.116754
851  2023-10-18 13:46:12.147638
852  2023-10-18 13:46:12.196554
853  2023-10-18 13:46:12.228434
854  2023-10-18 13:46:12.275334
855  2023-10-18 13:46:12.323168
856  2023-10-18 13:46:12.355083
857  2023-10-18 13:46:12.402957
858  2023-10-18 13:46:12.450827
859  2023-10-18 13:46:12.482742
860  2023-10-18 13:46:12.531613
861  2023-10-18 13:46:12.562574
862  2023-10-18 13:46:12.610402
863  2023-10-18 13:46:12.656278
864  2023-10-18 13:46:12.687348
865  2023-10-18 13:46:12.735067
866  2023-10-18 13:46:12.782975
867  2023-10-18 13:46:12.814886
868  2023-10-18 13:46:12.862756
869  2023-10-18 13:46:12.894680
870  2023-10-18 13:46:12.942512
871  2023-10-18 13:46:12.991409
872  2023-10-18 13:46:13.022333
873  2023-10-18 13:46:13.069205
874  2023-10-18 13:46:13.117078
875  2023-10-18 13:46:13.149011
876  2023-10-18 13:46:13.196864
877  2023-10-18 13:46:13.229748
878  2023-10-18 13:46:13.276732
879  2023-10-18 13:46:13.324608
880  2023-10-18 13:46:13.357491
881  2023-10-18 13:46:13.404363
882  2023-10-18 13:46:13.435325
883  2023-10-18 13:46:13.483192
884  2023-10-18 13:46:13.530057
885  2023-10-18 13:46:13.561941
886  2023-10-18 13:46:13.609856
887  2023-10-18 13:46:13.656689
888  2023-10-18 13:46:13.687606
889  2023-10-18 13:46:13.735501
890  2023-10-18 13:46:13.783382
891  2023-10-18 13:46:13.815305
892  2023-10-18 13:46:13.863196
893  2023-10-18 13:46:13.895087
894  2023-10-18 13:46:13.941958
895  2023-10-18 13:46:13.990797
896  2023-10-18 13:46:14.021745
897  2023-10-18 13:46:14.069629
898  2023-10-18 13:46:14.117488
899  2023-10-18 13:46:14.149401
900  2023-10-18 13:46:14.197274
901  2023-10-18 13:46:14.229194
902  2023-10-18 13:46:14.277061
903  2023-10-18 13:46:14.324932
904  2023-10-18 13:46:14.356848
905  2023-10-18 13:46:14.404702
906  2023-10-18 13:46:14.436605
907  2023-10-18 13:46:14.484524
908  2023-10-18 13:46:14.532350
909  2023-10-18 13:46:14.564293
910  2023-10-18 13:46:14.611186
911  2023-10-18 13:46:14.659010
912  2023-10-18 13:46:14.690925
913  2023-10-18 13:46:14.738805
914  2023-10-18 13:46:14.770712
915  2023-10-18 13:46:14.817586
916  2023-10-18 13:46:14.865518
917  2023-10-18 13:46:14.897414
918  2023-10-18 13:46:14.945245
919  2023-10-18 13:46:14.977159
920  2023-10-18 13:46:15.024034
921  2023-10-18 13:46:15.071941
922  2023-10-18 13:46:15.104820
923  2023-10-18 13:46:15.151724
924  2023-10-18 13:46:15.200566
925  2023-10-18 13:46:15.231626
926  2023-10-18 13:46:15.279351
927  2023-10-18 13:46:15.311266
928  2023-10-18 13:46:15.359168
929  2023-10-18 13:46:15.407010
930  2023-10-18 13:46:15.437969
931  2023-10-18 13:46:15.485846
932  2023-10-18 13:46:15.533672
933  2023-10-18 13:46:15.565586
934  2023-10-18 13:46:15.613509
935  2023-10-18 13:46:15.645412
936  2023-10-18 13:46:15.693297
937  2023-10-18 13:46:15.741166
938  2023-10-18 13:46:15.772034
939  2023-10-18 13:46:15.820069
940  2023-10-18 13:46:15.866815
941  2023-10-18 13:46:15.898728
942  2023-10-18 13:46:15.946602
943  2023-10-18 13:46:15.978535
944  2023-10-18 13:46:16.025387
945  2023-10-18 13:46:16.073264
946  2023-10-18 13:46:16.105171
947  2023-10-18 13:46:16.153015
948  2023-10-18 13:46:16.199920
949  2023-10-18 13:46:16.231832
950  2023-10-18 13:46:16.279710
951  2023-10-18 13:46:16.311643
952  2023-10-18 13:46:16.359493
953  2023-10-18 13:46:16.408344
954  2023-10-18 13:46:16.439287
955  2023-10-18 13:46:16.487152
956  2023-10-18 13:46:16.519067
957  2023-10-18 13:46:16.566938
958  2023-10-18 13:46:16.614820
959  2023-10-18 13:46:16.647720
960  2023-10-18 13:46:16.694600
961  2023-10-18 13:46:16.742470
962  2023-10-18 13:46:16.774384
963  2023-10-18 13:46:16.822360
964  2023-10-18 13:46:16.854166
965  2023-10-18 13:46:16.902055
966  2023-10-18 13:46:16.950893
967  2023-10-18 13:46:16.982941
968  2023-10-18 13:46:17.029846
969  2023-10-18 13:46:17.061784
970  2023-10-18 13:46:17.109659
971  2023-10-18 13:46:17.157501
972  2023-10-18 13:46:17.189498
973  2023-10-18 13:46:17.237287
974  2023-10-18 13:46:17.270168
975  2023-10-18 13:46:17.317076
976  2023-10-18 13:46:17.364971
977  2023-10-18 13:46:17.396861
978  2023-10-18 13:46:17.444730
979  2023-10-18 13:46:17.490578
980  2023-10-18 13:46:17.522541
981  2023-10-18 13:46:17.570399
982  2023-10-18 13:46:17.603280
983  2023-10-18 13:46:17.651149
984  2023-10-18 13:46:17.698060
985  2023-10-18 13:46:17.729971
986  2023-10-18 13:46:17.777811
987  2023-10-18 13:46:17.825721
988  2023-10-18 13:46:17.857682
989  2023-10-18 13:46:17.905531
990  2023-10-18 13:46:17.938384
991  2023-10-18 13:46:17.985255
992  2023-10-18 13:46:18.034170
993  2023-10-18 13:46:18.065077
994  2023-10-18 13:46:18.113914
995  2023-10-18 13:46:18.145861
996  2023-10-18 13:46:18.193700
997  2023-10-18 13:46:18.240573
998  2023-10-18 13:46:18.272488
999  2023-10-18 13:46:18.320360
1000  2023-10-18 13:46:18.352274
1001  2023-10-18 13:46:18.400172
1002  2023-10-18 13:46:18.448018
1003  2023-10-18 13:46:18.479933
1004  2023-10-18 13:46:18.527805
1005  2023-10-18 13:46:18.575677
1006  2023-10-18 13:46:18.608589
1007  2023-10-18 13:46:18.655464
1008  2023-10-18 13:46:18.686418
1009  2023-10-18 13:46:18.734301
1010  2023-10-18 13:46:18.782168
1011  2023-10-18 13:46:18.814070
1012  2023-10-18 13:46:18.861936
1013  2023-10-18 13:46:18.894869
1014  2023-10-18 13:46:18.941698
1015  2023-10-18 13:46:18.989637
1016  2023-10-18 13:46:19.022484
1017  2023-10-18 13:46:19.069397
1018  2023-10-18 13:46:19.117259
1019  2023-10-18 13:46:19.149178
1020  2023-10-18 13:46:19.197016
1021  2023-10-18 13:46:19.229944
1022  2023-10-18 13:46:19.276803
1023  2023-10-18 13:46:19.324712
1024  2023-10-18 13:46:19.356620
1025  2023-10-18 13:46:19.404535
1026  2023-10-18 13:46:19.436491
1027  2023-10-18 13:46:19.484393
1028  2023-10-18 13:46:19.532261
1029  2023-10-18 13:46:19.564150
1030  2023-10-18 13:46:19.612061
1031  2023-10-18 13:46:19.643937
1032  2023-10-18 13:46:19.691852
1033  2023-10-18 13:46:19.739712
1034  2023-10-18 13:46:19.771640
1035  2023-10-18 13:46:19.817522
1036  2023-10-18 13:46:19.865475
1037  2023-10-18 13:46:19.897374
1038  2023-10-18 13:46:19.945215
1039  2023-10-18 13:46:19.978142
1040  2023-10-18 13:46:20.025033
1041  2023-10-18 13:46:20.098807
1042  2023-10-18 13:46:20.105788
1043  2023-10-18 13:46:20.152324
1044  2023-10-18 13:46:20.199202
1045  2023-10-18 13:46:20.231192
1046  2023-10-18 13:46:20.279202
1047  2023-10-18 13:46:20.311292
1048  2023-10-18 13:46:20.358989
1049  2023-10-18 13:46:20.405860
1050  2023-10-18 13:46:20.436799
1051  2023-10-18 13:46:20.483687
1052  2023-10-18 13:46:20.531535
1053  2023-10-18 13:46:20.563445
1054  2023-10-18 13:46:20.612282
1055  2023-10-18 13:46:20.658191
1056  2023-10-18 13:46:20.690072
1057  2023-10-18 13:46:20.737978
1058  2023-10-18 13:46:20.769892
1059  2023-10-18 13:46:20.817765
1060  2023-10-18 13:46:20.865655
1061  2023-10-18 13:46:20.898516
1062  2023-10-18 13:46:20.945390
1063  2023-10-18 13:46:20.978302
1064  2023-10-18 13:46:21.023207
1065  2023-10-18 13:46:21.071087
1066  2023-10-18 13:46:21.102996
1067  2023-10-18 13:46:21.150875
1068  2023-10-18 13:46:21.198785
1069  2023-10-18 13:46:21.229757
1070  2023-10-18 13:46:21.277663
1071  2023-10-18 13:46:21.325482
1072  2023-10-18 13:46:21.357442
1073  2023-10-18 13:46:21.404304
1074  2023-10-18 13:46:21.435424
1075  2023-10-18 13:46:21.483328
1076  2023-10-18 13:46:21.532204
1077  2023-10-18 13:46:21.563083
1078  2023-10-18 13:46:21.610005
1079  2023-10-18 13:46:21.657831
1080  2023-10-18 13:46:21.689745
1081  2023-10-18 13:46:21.737617
1082  2023-10-18 13:46:21.769558
1083  2023-10-18 13:46:21.815441
1084  2023-10-18 13:46:21.863314
1085  2023-10-18 13:46:21.894226
1086  2023-10-18 13:46:21.942102
1087  2023-10-18 13:46:21.990106
1088  2023-10-18 13:46:22.021896
1089  2023-10-18 13:46:22.069763
1090  2023-10-18 13:46:22.116637
1091  2023-10-18 13:46:22.149546
1092  2023-10-18 13:46:22.196424
1093  2023-10-18 13:46:22.228336
1094  2023-10-18 13:46:22.275180
1095  2023-10-18 13:46:22.322079
1096  2023-10-18 13:46:22.354002
1097  2023-10-18 13:46:22.401868
1098  2023-10-18 13:46:22.449746
1099  2023-10-18 13:46:22.481628
1100  2023-10-18 13:46:22.528537
1101  2023-10-18 13:46:22.575386
1102  2023-10-18 13:46:22.608332
1103  2023-10-18 13:46:22.655198
1104  2023-10-18 13:46:22.688078
1105  2023-10-18 13:46:22.736004
1106  2023-10-18 13:46:22.783868
1107  2023-10-18 13:46:22.814737
1108  2023-10-18 13:46:22.863609
1109  2023-10-18 13:46:22.895522
1110  2023-10-18 13:46:22.942396
1111  2023-10-18 13:46:22.989301
1112  2023-10-18 13:46:23.022224
1113  2023-10-18 13:46:23.069057
1114  2023-10-18 13:46:23.115982
1115  2023-10-18 13:46:23.147879
1116  2023-10-18 13:46:23.195719
1117  2023-10-18 13:46:23.227670
1118  2023-10-18 13:46:23.275505
1119  2023-10-18 13:46:23.323413
1120  2023-10-18 13:46:23.354295
1121  2023-10-18 13:46:23.402191
1122  2023-10-18 13:46:23.450063
1123  2023-10-18 13:46:23.482005
1124  2023-10-18 13:46:23.529857
1125  2023-10-18 13:46:23.561740
1126  2023-10-18 13:46:23.609658
1127  2023-10-18 13:46:23.657527
1128  2023-10-18 13:46:23.689462
1129  2023-10-18 13:46:23.737301
1130  2023-10-18 13:46:23.769227
1131  2023-10-18 13:46:23.818058
1132  2023-10-18 13:46:23.864930
1133  2023-10-18 13:46:23.896872
1134  2023-10-18 13:46:23.944743
1135  2023-10-18 13:46:23.991591
1136  2023-10-18 13:46:24.022567
1137  2023-10-18 13:46:24.070413
1138  2023-10-18 13:46:24.102383
1139  2023-10-18 13:46:24.150317
1140  2023-10-18 13:46:24.198191
1141  2023-10-18 13:46:24.230072
1142  2023-10-18 13:46:24.277943
1143  2023-10-18 13:46:24.325815
1144  2023-10-18 13:46:24.357763
1145  2023-10-18 13:46:24.405649
1146  2023-10-18 13:46:24.437518
1147  2023-10-18 13:46:24.484426
1148  2023-10-18 13:46:24.532264
1149  2023-10-18 13:46:24.564218
1150  2023-10-18 13:46:24.612081
1151  2023-10-18 13:46:24.644964
1152  2023-10-18 13:46:24.691871
1153  2023-10-18 13:46:24.739709
1154  2023-10-18 13:46:24.772622
1155  2023-10-18 13:46:24.820494
1156  2023-10-18 13:46:24.867415
1157  2023-10-18 13:46:24.899346
1158  2023-10-18 13:46:24.948257
1159  2023-10-18 13:46:24.980266
1160  2023-10-18 13:46:25.027146
1161  2023-10-18 13:46:25.075013
1162  2023-10-18 13:46:25.105963
1163  2023-10-18 13:46:25.154801
1164  2023-10-18 13:46:25.185717
1165  2023-10-18 13:46:25.234586
1166  2023-10-18 13:46:25.281490
1167  2023-10-18 13:46:25.313409
1168  2023-10-18 13:46:25.362245
1169  2023-10-18 13:46:25.409148
1170  2023-10-18 13:46:25.441034
1171  2023-10-18 13:46:25.487940
1172  2023-10-18 13:46:25.519855
1173  2023-10-18 13:46:25.567728
1174  2023-10-18 13:46:25.615568
1175  2023-10-18 13:46:25.647483
1176  2023-10-18 13:46:25.695405
1177  2023-10-18 13:46:25.727299
1178  2023-10-18 13:46:25.775142
1179  2023-10-18 13:46:25.823053
1180  2023-10-18 13:46:25.855050
1181  2023-10-18 13:46:25.902832
1182  2023-10-18 13:46:25.950704
1183  2023-10-18 13:46:25.982618
1184  2023-10-18 13:46:26.030488
1185  2023-10-18 13:46:26.063370
1186  2023-10-18 13:46:26.110245
1187  2023-10-18 13:46:26.158120
1188  2023-10-18 13:46:26.190033
1189  2023-10-18 13:46:26.236906
1190  2023-10-18 13:46:26.283814
1191  2023-10-18 13:46:26.315725
1192  2023-10-18 13:46:26.361602
1193  2023-10-18 13:46:26.408495
1194  2023-10-18 13:46:26.439398
1195  2023-10-18 13:46:26.487262
1196  2023-10-18 13:46:26.520149
1197  2023-10-18 13:46:26.567064
1198  2023-10-18 13:46:26.614936
1199  2023-10-18 13:46:26.646875
1200  2023-10-18 13:46:26.694710
1201  2023-10-18 13:46:26.741592
1202  2023-10-18 13:46:26.773503
1203  2023-10-18 13:46:26.820377
1204  2023-10-18 13:46:26.853483
1205  2023-10-18 13:46:26.900372
1206  2023-10-18 13:46:26.948231
1207  2023-10-18 13:46:26.979163
1208  2023-10-18 13:46:27.027045
1209  2023-10-18 13:46:27.075860
1210  2023-10-18 13:46:27.107776
1211  2023-10-18 13:46:27.154835
1212  2023-10-18 13:46:27.187588
1213  2023-10-18 13:46:27.235434
1214  2023-10-18 13:46:27.282358
1215  2023-10-18 13:46:27.314274
1216  2023-10-18 13:46:27.362153
1217  2023-10-18 13:46:27.395006
1218  2023-10-18 13:46:27.441913
1219  2023-10-18 13:46:27.489782
1220  2023-10-18 13:46:27.521718
1221  2023-10-18 13:46:27.569589
1222  2023-10-18 13:46:27.617442
1223  2023-10-18 13:46:27.649357
1224  2023-10-18 13:46:27.697235
1225  2023-10-18 13:46:27.729137
1226  2023-10-18 13:46:27.775986
1227  2023-10-18 13:46:27.824857
1228  2023-10-18 13:46:27.855800
1229  2023-10-18 13:46:27.903677
1230  2023-10-18 13:46:27.936559
1231  2023-10-18 13:46:27.982435
1232  2023-10-18 13:46:28.030340
1233  2023-10-18 13:46:28.062257
1234  2023-10-18 13:46:28.110146
1235  2023-10-18 13:46:28.158019
1236  2023-10-18 13:46:28.190905
1237  2023-10-18 13:46:28.237786
1238  2023-10-18 13:46:28.270666
1239  2023-10-18 13:46:28.317567
1240  2023-10-18 13:46:28.365435
1241  2023-10-18 13:46:28.398334
1242  2023-10-18 13:46:28.444200
1243  2023-10-18 13:46:28.492103
1244  2023-10-18 13:46:28.524015
1245  2023-10-18 13:46:28.571892
1246  2023-10-18 13:46:28.603806
1247  2023-10-18 13:46:28.650686
1248  2023-10-18 13:46:28.698520
1249  2023-10-18 13:46:28.730434
1250  2023-10-18 13:46:28.778307
1251  2023-10-18 13:46:28.810267
1252  2023-10-18 13:46:28.858126
1253  2023-10-18 13:46:28.905998
1254  2023-10-18 13:46:28.937880
1255  2023-10-18 13:46:28.985779
1256  2023-10-18 13:46:29.033661
1257  2023-10-18 13:46:29.065539
1258  2023-10-18 13:46:29.113411
1259  2023-10-18 13:46:29.144363
1260  2023-10-18 13:46:29.193199
1261  2023-10-18 13:46:29.240127
1262  2023-10-18 13:46:29.272019
1263  2023-10-18 13:46:29.319883
1264  2023-10-18 13:46:29.366766
1265  2023-10-18 13:46:29.398682
1266  2023-10-18 13:46:29.446687
1267  2023-10-18 13:46:29.478465
1268  2023-10-18 13:46:29.526354
1269  2023-10-18 13:46:29.574219
1270  2023-10-18 13:46:29.607093
1271  2023-10-18 13:46:29.653967
1272  2023-10-18 13:46:29.686879
1273  2023-10-18 13:46:29.733798
1274  2023-10-18 13:46:29.780658
1275  2023-10-18 13:46:29.812567
1276  2023-10-18 13:46:29.860445
1277  2023-10-18 13:46:29.908327
1278  2023-10-18 13:46:29.940231
1279  2023-10-18 13:46:29.988077
1280  2023-10-18 13:46:30.019026
1281  2023-10-18 13:46:30.065897
1282  2023-10-18 13:46:30.113769
1283  2023-10-18 13:46:30.145684
1284  2023-10-18 13:46:30.193556
1285  2023-10-18 13:46:30.241428
1286  2023-10-18 13:46:30.273312
1287  2023-10-18 13:46:30.320224
1288  2023-10-18 13:46:30.352131
1289  2023-10-18 13:46:30.400000
1290  2023-10-18 13:46:30.447843
1291  2023-10-18 13:46:30.479809
1292  2023-10-18 13:46:30.528628
1293  2023-10-18 13:46:30.575574
1294  2023-10-18 13:46:30.607501
1295  2023-10-18 13:46:30.655432
1296  2023-10-18 13:46:30.687320
1297  2023-10-18 13:46:30.735204
1298  2023-10-18 13:46:30.783063
1299  2023-10-18 13:46:30.815207
1300  2023-10-18 13:46:30.862996
1301  2023-10-18 13:46:30.894915
1302  2023-10-18 13:46:30.942788
1303  2023-10-18 13:46:30.990659
1304  2023-10-18 13:46:31.022576
1305  2023-10-18 13:46:31.070446
1306  2023-10-18 13:46:31.102370
1307  2023-10-18 13:46:31.150232
1308  2023-10-18 13:46:31.198101
1309  2023-10-18 13:46:31.230018
1310  2023-10-18 13:46:31.277892
1311  2023-10-18 13:46:31.325799
1312  2023-10-18 13:46:31.358643
1313  2023-10-18 13:46:31.405554
1314  2023-10-18 13:46:31.437431
1315  2023-10-18 13:46:31.485417
1316  2023-10-18 13:46:31.533176
1317  2023-10-18 13:46:31.565125
1318  2023-10-18 13:46:31.612962
1319  2023-10-18 13:46:31.644927
1320  2023-10-18 13:46:31.693748
1321  2023-10-18 13:46:31.740681
1322  2023-10-18 13:46:31.772536
1323  2023-10-18 13:46:31.821433
1324  2023-10-18 13:46:31.852356
1325  2023-10-18 13:46:31.900226
1326  2023-10-18 13:46:31.949065
1327  2023-10-18 13:46:31.980016
1328  2023-10-18 13:46:32.027879
1329  2023-10-18 13:46:32.075784
1330  2023-10-18 13:46:32.107675
1331  2023-10-18 13:46:32.155536
1332  2023-10-18 13:46:32.187462
1333  2023-10-18 13:46:32.235298
1334  2023-10-18 13:46:32.282209
1335  2023-10-18 13:46:32.314088
1336  2023-10-18 13:46:32.361994
1337  2023-10-18 13:46:32.394897
1338  2023-10-18 13:46:32.441746
1339  2023-10-18 13:46:32.488648
1340  2023-10-18 13:46:32.520560
1341  2023-10-18 13:46:32.568453
1342  2023-10-18 13:46:32.616280
1343  2023-10-18 13:46:32.648194
1344  2023-10-18 13:46:32.696066
1345  2023-10-18 13:46:32.727880
1346  2023-10-18 13:46:32.775418
1347  2023-10-18 13:46:32.822387
1348  2023-10-18 13:46:32.854297
1349  2023-10-18 13:46:32.902162
1350  2023-10-18 13:46:32.950044
1351  2023-10-18 13:46:32.981951
1352  2023-10-18 13:46:33.030860
1353  2023-10-18 13:46:33.061776
1354  2023-10-18 13:46:33.110646
1355  2023-10-18 13:46:33.156553
1356  2023-10-18 13:46:33.188525
1357  2023-10-18 13:46:33.236501
1358  2023-10-18 13:46:33.283345
1359  2023-10-18 13:46:33.314294
1360  2023-10-18 13:46:33.363246
1361  2023-10-18 13:46:33.394211
1362  2023-10-18 13:46:33.442069
1363  2023-10-18 13:46:33.489907
1364  2023-10-18 13:46:33.521821
1365  2023-10-18 13:46:33.569727
1366  2023-10-18 13:46:33.616601
1367  2023-10-18 13:46:33.648513
1368  2023-10-18 13:46:33.696386
1369  2023-10-18 13:46:33.728294
1370  2023-10-18 13:46:33.776172
1371  2023-10-18 13:46:33.824048
1372  2023-10-18 13:46:33.855961
1373  2023-10-18 13:46:33.903838
1374  2023-10-18 13:46:33.935759
1375  2023-10-18 13:46:33.983618
1376  2023-10-18 13:46:34.032458
1377  2023-10-18 13:46:34.063409
1378  2023-10-18 13:46:34.111271
1379  2023-10-18 13:46:34.158164
1380  2023-10-18 13:46:34.191036
1381  2023-10-18 13:46:34.237938
1382  2023-10-18 13:46:34.270822
1383  2023-10-18 13:46:34.317762
1384  2023-10-18 13:46:34.365597
1385  2023-10-18 13:46:34.398478
1386  2023-10-18 13:46:34.445377
1387  2023-10-18 13:46:34.477321
1388  2023-10-18 13:46:34.526146
1389  2023-10-18 13:46:34.573043
1390  2023-10-18 13:46:34.605133
1391  2023-10-18 13:46:34.653205
1392  2023-10-18 13:46:34.700083
1393  2023-10-18 13:46:34.731999
1394  2023-10-18 13:46:34.779866
1395  2023-10-18 13:46:34.811781
1396  2023-10-18 13:46:34.859651
1397  2023-10-18 13:46:34.907631
1398  2023-10-18 13:46:34.939461
1399  2023-10-18 13:46:34.987304
1400  2023-10-18 13:46:35.019248
1401  2023-10-18 13:46:35.067115
1402  2023-10-18 13:46:35.114941
1403  2023-10-18 13:46:35.146856
1404  2023-10-18 13:46:35.194727
1405  2023-10-18 13:46:35.242598
1406  2023-10-18 13:46:35.274516
1407  2023-10-18 13:46:35.321416
1408  2023-10-18 13:46:35.353429
1409  2023-10-18 13:46:35.401302
1410  2023-10-18 13:46:35.449201
1411  2023-10-18 13:46:35.481094
1412  2023-10-18 13:46:35.528990
1413  2023-10-18 13:46:35.560876
1414  2023-10-18 13:46:35.608715
1415  2023-10-18 13:46:35.656640
1416  2023-10-18 13:46:35.687504
1417  2023-10-18 13:46:35.735409
1418  2023-10-18 13:46:35.783296
1419  2023-10-18 13:46:35.815198
1420  2023-10-18 13:46:35.863035
1421  2023-10-18 13:46:35.895983
1422  2023-10-18 13:46:35.941865
1423  2023-10-18 13:46:35.988730
1424  2023-10-18 13:46:36.021614
1425  2023-10-18 13:46:36.068525
1426  2023-10-18 13:46:36.116381
1427  2023-10-18 13:46:36.148323
1428  2023-10-18 13:46:36.195183
1429  2023-10-18 13:46:36.242046
1430  2023-10-18 13:46:36.273969
1431  2023-10-18 13:46:36.321942
1432  2023-10-18 13:46:36.353857
1433  2023-10-18 13:46:36.401755
1434  2023-10-18 13:46:36.448632
1435  2023-10-18 13:46:36.480592
1436  2023-10-18 13:46:36.529417
1437  2023-10-18 13:46:36.561331
1438  2023-10-18 13:46:36.608207
1439  2023-10-18 13:46:36.657075
1440  2023-10-18 13:46:36.688105
1441  2023-10-18 13:46:36.736076
1442  2023-10-18 13:46:36.783937
1443  2023-10-18 13:46:36.815801
1444  2023-10-18 13:46:36.863673
1445  2023-10-18 13:46:36.895648
1446  2023-10-18 13:46:36.943558
1447  2023-10-18 13:46:36.991439
1448  2023-10-18 13:46:37.022414
1449  2023-10-18 13:46:37.069404
1450  2023-10-18 13:46:37.117164
1451  2023-10-18 13:46:37.149077
1452  2023-10-18 13:46:37.196941
1453  2023-10-18 13:46:37.229919
1454  2023-10-18 13:46:37.276787
1455  2023-10-18 13:46:37.325726
1456  2023-10-18 13:46:37.357686
1457  2023-10-18 13:46:37.405558
1458  2023-10-18 13:46:37.436477
1459  2023-10-18 13:46:37.484395
1460  2023-10-18 13:46:37.532220
1461  2023-10-18 13:46:37.564135
1462  2023-10-18 13:46:37.612007
1463  2023-10-18 13:46:37.643921
1464  2023-10-18 13:46:37.690795
1465  2023-10-18 13:46:37.738719
1466  2023-10-18 13:46:37.770645
1467  2023-10-18 13:46:37.818520
1468  2023-10-18 13:46:37.866462
1469  2023-10-18 13:46:37.898285
1470  2023-10-18 13:46:37.946188
1471  2023-10-18 13:46:37.978088
1472  2023-10-18 13:46:38.024925
1473  2023-10-18 13:46:38.072830
1474  2023-10-18 13:46:38.104745
1475  2023-10-18 13:46:38.153580
1476  2023-10-18 13:46:38.201478
1477  2023-10-18 13:46:38.232394
1478  2023-10-18 13:46:38.281240
1479  2023-10-18 13:46:38.311197
1480  2023-10-18 13:46:38.358066
1481  2023-10-18 13:46:38.405936
1482  2023-10-18 13:46:38.437850
1483  2023-10-18 13:46:38.486690
1484  2023-10-18 13:46:38.533675
1485  2023-10-18 13:46:38.565513
1486  2023-10-18 13:46:38.614348
1487  2023-10-18 13:46:38.645296
1488  2023-10-18 13:46:38.693138
1489  2023-10-18 13:46:38.740036
1490  2023-10-18 13:46:38.771953
1491  2023-10-18 13:46:38.819799
1492  2023-10-18 13:46:38.866700
1493  2023-10-18 13:46:38.899590
1494  2023-10-18 13:46:38.946484
1495  2023-10-18 13:46:38.978399
1496  2023-10-18 13:46:39.026285
1497  2023-10-18 13:46:39.073157
1498  2023-10-18 13:46:39.104069
1499  2023-10-18 13:46:39.151910
1500  2023-10-18 13:46:39.200821
1501  2023-10-18 13:46:39.231727
1502  2023-10-18 13:46:39.278603
1503  2023-10-18 13:46:39.311485
1504  2023-10-18 13:46:39.358384
1505  2023-10-18 13:46:39.406261
1506  2023-10-18 13:46:39.437180
1507  2023-10-18 13:46:39.485059
1508  2023-10-18 13:46:39.531944
1509  2023-10-18 13:46:39.564807
1510  2023-10-18 13:46:39.610720
1511  2023-10-18 13:46:39.658603
1512  2023-10-18 13:46:39.691471
1513  2023-10-18 13:46:39.737387
1514  2023-10-18 13:46:39.784223
1515  2023-10-18 13:46:39.816136
1516  2023-10-18 13:46:39.864009
1517  2023-10-18 13:46:39.893953
1518  2023-10-18 13:46:39.941832
1519  2023-10-18 13:46:39.990670
1520  2023-10-18 13:46:40.021590
1521  2023-10-18 13:46:40.069490
1522  2023-10-18 13:46:40.117365
1523  2023-10-18 13:46:40.148284
1524  2023-10-18 13:46:40.196151
1525  2023-10-18 13:46:40.228061
1526  2023-10-18 13:46:40.275938
1527  2023-10-18 13:46:40.322780
1528  2023-10-18 13:46:40.353697
1529  2023-10-18 13:46:40.401601
1530  2023-10-18 13:46:40.449490
1531  2023-10-18 13:46:40.481389
1532  2023-10-18 13:46:40.529266
1533  2023-10-18 13:46:40.575157
1534  2023-10-18 13:46:40.607069
1535  2023-10-18 13:46:40.654892
1536  2023-10-18 13:46:40.686833
1537  2023-10-18 13:46:40.734719
1538  2023-10-18 13:46:40.782594
1539  2023-10-18 13:46:40.814489
1540  2023-10-18 13:46:40.863337
1541  2023-10-18 13:46:40.908245
1542  2023-10-18 13:46:40.940162
1543  2023-10-18 13:46:40.988027
1544  2023-10-18 13:46:41.018952
1545  2023-10-18 13:46:41.066824
1546  2023-10-18 13:46:41.114688
1547  2023-10-18 13:46:41.146655
1548  2023-10-18 13:46:41.195498
1549  2023-10-18 13:46:41.242376
1550  2023-10-18 13:46:41.274432
1551  2023-10-18 13:46:41.321984
1552  2023-10-18 13:46:41.353867
1553  2023-10-18 13:46:41.400743
1554  2023-10-18 13:46:41.448692
1555  2023-10-18 13:46:41.480643
1556  2023-10-18 13:46:41.527514
1557  2023-10-18 13:46:41.574388
1558  2023-10-18 13:46:41.606313
1559  2023-10-18 13:46:41.653181
1560  2023-10-18 13:46:41.700069
1561  2023-10-18 13:46:41.732029
1562  2023-10-18 13:46:41.779868
1563  2023-10-18 13:46:41.811781
1564  2023-10-18 13:46:41.859725
1565  2023-10-18 13:46:41.907531
1566  2023-10-18 13:46:41.939476
1567  2023-10-18 13:46:41.986315
1568  2023-10-18 13:46:42.034221
1569  2023-10-18 13:46:42.066140
1570  2023-10-18 13:46:42.113007
1571  2023-10-18 13:46:42.144891
1572  2023-10-18 13:46:42.192796
1573  2023-10-18 13:46:42.240681
1574  2023-10-18 13:46:42.272576
1575  2023-10-18 13:46:42.320421
1576  2023-10-18 13:46:42.352460
1577  2023-10-18 13:46:42.400361
1578  2023-10-18 13:46:42.448206
1579  2023-10-18 13:46:42.480154
1580  2023-10-18 13:46:42.528020
1581  2023-10-18 13:46:42.574892
1582  2023-10-18 13:46:42.607836
1583  2023-10-18 13:46:42.654685
1584  2023-10-18 13:46:42.686598
1585  2023-10-18 13:46:42.734474
1586  2023-10-18 13:46:42.782311
1587  2023-10-18 13:46:42.814257
1588  2023-10-18 13:46:42.862135
1589  2023-10-18 13:46:42.909004
1590  2023-10-18 13:46:42.940919
1591  2023-10-18 13:46:42.989757
1592  2023-10-18 13:46:43.021672
1593  2023-10-18 13:46:43.068547
1594  2023-10-18 13:46:43.116442
1595  2023-10-18 13:46:43.147384
1596  2023-10-18 13:46:43.195243
1597  2023-10-18 13:46:43.227158
1598  2023-10-18 13:46:43.274996
1599  2023-10-18 13:46:43.322914
1600  2023-10-18 13:46:43.354815
1601  2023-10-18 13:46:43.401683
1602  2023-10-18 13:46:43.448753
1603  2023-10-18 13:46:43.480659
1604  2023-10-18 13:46:43.528541
1605  2023-10-18 13:46:43.560456
1606  2023-10-18 13:46:43.608328
1607  2023-10-18 13:46:43.656169
1608  2023-10-18 13:46:43.688086
1609  2023-10-18 13:46:43.734987
1610  2023-10-18 13:46:43.782871
1611  2023-10-18 13:46:43.814774
1612  2023-10-18 13:46:43.863645
1613  2023-10-18 13:46:43.895528
1614  2023-10-18 13:46:43.943410
1615  2023-10-18 13:46:43.989275
1616  2023-10-18 13:46:44.020220
1617  2023-10-18 13:46:44.068106
1618  2023-10-18 13:46:44.115984
1619  2023-10-18 13:46:44.147852
1620  2023-10-18 13:46:44.195755
1621  2023-10-18 13:46:44.227639
1622  2023-10-18 13:46:44.275534
1623  2023-10-18 13:46:44.322385
1624  2023-10-18 13:46:44.353302
1625  2023-10-18 13:46:44.400205
1626  2023-10-18 13:46:44.448134
1627  2023-10-18 13:46:44.479996
1628  2023-10-18 13:46:44.527871
1629  2023-10-18 13:46:44.574743
1630  2023-10-18 13:46:44.606658
1631  2023-10-18 13:46:44.654530
1632  2023-10-18 13:46:44.686457
1633  2023-10-18 13:46:44.734320
1634  2023-10-18 13:46:44.782156
1635  2023-10-18 13:46:44.814105
1636  2023-10-18 13:46:44.861976
1637  2023-10-18 13:46:44.893943
1638  2023-10-18 13:46:44.939959
1639  2023-10-18 13:46:44.986874
1640  2023-10-18 13:46:45.018749
1641  2023-10-18 13:46:45.066623
1642  2023-10-18 13:46:45.114464
1643  2023-10-18 13:46:45.145414
1644  2023-10-18 13:46:45.194264
1645  2023-10-18 13:46:45.241171
1646  2023-10-18 13:46:45.273063
1647  2023-10-18 13:46:45.320920
1648  2023-10-18 13:46:45.353824
1649  2023-10-18 13:46:45.400875
1650  2023-10-18 13:46:45.448749
1651  2023-10-18 13:46:45.480661
1652  2023-10-18 13:46:45.529507
1653  2023-10-18 13:46:45.560425
1654  2023-10-18 13:46:45.608337
1655  2023-10-18 13:46:45.657167
1656  2023-10-18 13:46:45.688131
1657  2023-10-18 13:46:45.734990
1658  2023-10-18 13:46:45.781882
1659  2023-10-18 13:46:45.813979
1660  2023-10-18 13:46:45.862655
1661  2023-10-18 13:46:45.908734
1662  2023-10-18 13:46:45.939644
1663  2023-10-18 13:46:45.986494
1664  2023-10-18 13:46:46.034414
1665  2023-10-18 13:46:46.066282
1666  2023-10-18 13:46:46.113155
1667  2023-10-18 13:46:46.145070
1668  2023-10-18 13:46:46.192968
1669  2023-10-18 13:46:46.239866
1670  2023-10-18 13:46:46.271765
1671  2023-10-18 13:46:46.319649
1672  2023-10-18 13:46:46.366510
1673  2023-10-18 13:46:46.399419
1674  2023-10-18 13:46:46.445316
1675  2023-10-18 13:46:46.477215
1676  2023-10-18 13:46:46.526223
1677  2023-10-18 13:46:46.573127
1678  2023-10-18 13:46:46.605041
1679  2023-10-18 13:46:46.652881
1680  2023-10-18 13:46:46.699787
1681  2023-10-18 13:46:46.731700
1682  2023-10-18 13:46:46.779683
1683  2023-10-18 13:46:46.811487
1684  2023-10-18 13:46:46.859361
1685  2023-10-18 13:46:46.906236
1686  2023-10-18 13:46:46.938151
1687  2023-10-18 13:46:46.985991
1688  2023-10-18 13:46:47.033864
1689  2023-10-18 13:46:47.065813
1690  2023-10-18 13:46:47.113672
1691  2023-10-18 13:46:47.145567
1692  2023-10-18 13:46:47.194493
1693  2023-10-18 13:46:47.240349
1694  2023-10-18 13:46:47.273223
1695  2023-10-18 13:46:47.320123
1696  2023-10-18 13:46:47.352043
1697  2023-10-18 13:46:47.400135
1698  2023-10-18 13:46:47.447000
1699  2023-10-18 13:46:47.478922
1700  2023-10-18 13:46:47.526789
1701  2023-10-18 13:46:47.574665
1702  2023-10-18 13:46:47.605728
1703  2023-10-18 13:46:47.653433
1704  2023-10-18 13:46:47.685371
1705  2023-10-18 13:46:47.733244
1706  2023-10-18 13:46:47.782081
1707  2023-10-18 13:46:47.813130
1708  2023-10-18 13:46:47.861867
1709  2023-10-18 13:46:47.909740
1710  2023-10-18 13:46:47.941692
1711  2023-10-18 13:46:47.989527
1712  2023-10-18 13:46:48.021442
1713  2023-10-18 13:46:48.069315
1714  2023-10-18 13:46:48.116189
1715  2023-10-18 13:46:48.147104
1716  2023-10-18 13:46:48.195012
1717  2023-10-18 13:46:48.226891
1718  2023-10-18 13:46:48.273884
1719  2023-10-18 13:46:48.321637
1720  2023-10-18 13:46:48.353551
1721  2023-10-18 13:46:48.401451
1722  2023-10-18 13:46:48.449296
1723  2023-10-18 13:46:48.481210
1724  2023-10-18 13:46:48.529309
1725  2023-10-18 13:46:48.561997
1726  2023-10-18 13:46:48.608918
1727  2023-10-18 13:46:48.656741
1728  2023-10-18 13:46:48.688656
1729  2023-10-18 13:46:48.736553
1730  2023-10-18 13:46:48.783402
1731  2023-10-18 13:46:48.815317
1732  2023-10-18 13:46:48.863237
1733  2023-10-18 13:46:48.895138
1734  2023-10-18 13:46:48.942976
1735  2023-10-18 13:46:48.990885
1736  2023-10-18 13:46:49.022812
1737  2023-10-18 13:46:49.070666
1738  2023-10-18 13:46:49.103583
1739  2023-10-18 13:46:49.150456
1740  2023-10-18 13:46:49.198344
1741  2023-10-18 13:46:49.231208
1742  2023-10-18 13:46:49.278115
1743  2023-10-18 13:46:49.324993
1744  2023-10-18 13:46:49.357868
1745  2023-10-18 13:46:49.404772
1746  2023-10-18 13:46:49.436687
1747  2023-10-18 13:46:49.484567
1748  2023-10-18 13:46:49.532428
1749  2023-10-18 13:46:49.564340
1750  2023-10-18 13:46:49.612187
1751  2023-10-18 13:46:49.644133
1752  2023-10-18 13:46:49.692011
1753  2023-10-18 13:46:49.739846
1754  2023-10-18 13:46:49.771760
1755  2023-10-18 13:46:49.819663
1756  2023-10-18 13:46:49.866509
1757  2023-10-18 13:46:49.898534
1758  2023-10-18 13:46:49.946321
1759  2023-10-18 13:46:49.978242
1760  2023-10-18 13:46:50.025127
1761  2023-10-18 13:46:50.072988
1762  2023-10-18 13:46:50.104912
1763  2023-10-18 13:46:50.153786
1764  2023-10-18 13:46:50.200647
1765  2023-10-18 13:46:50.233527
1766  2023-10-18 13:46:50.280448
1767  2023-10-18 13:46:50.312351
1768  2023-10-18 13:46:50.360220
1769  2023-10-18 13:46:50.408093
1770  2023-10-18 13:46:50.440008
1771  2023-10-18 13:46:50.487899
1772  2023-10-18 13:46:50.519827
1773  2023-10-18 13:46:50.567682
1774  2023-10-18 13:46:50.615555
1775  2023-10-18 13:46:50.647452
1776  2023-10-18 13:46:50.696396
1777  2023-10-18 13:46:50.727311
1778  2023-10-18 13:46:50.775229
1779  2023-10-18 13:46:50.824099
1780  2023-10-18 13:46:50.856020
1781  2023-10-18 13:46:50.902924
1782  2023-10-18 13:46:50.951794
1783  2023-10-18 13:46:50.982702
1784  2023-10-18 13:46:51.030586
1785  2023-10-18 13:46:51.062495
1786  2023-10-18 13:46:51.110372
1787  2023-10-18 13:46:51.157246
1788  2023-10-18 13:46:51.188165
1789  2023-10-18 13:46:51.236028
1790  2023-10-18 13:46:51.284872
1791  2023-10-18 13:46:51.316820
1792  2023-10-18 13:46:51.364657
1793  2023-10-18 13:46:51.396573
1794  2023-10-18 13:46:51.444445
1795  2023-10-18 13:46:51.490320
1796  2023-10-18 13:46:51.522235
1797  2023-10-18 13:46:51.571108
1798  2023-10-18 13:46:51.602070
1799  2023-10-18 13:46:51.649894
1800  2023-10-18 13:46:51.696797
1801  2023-10-18 13:46:51.728708
1802  2023-10-18 13:46:51.776555
1803  2023-10-18 13:46:51.824464
1804  2023-10-18 13:46:51.856342
1805  2023-10-18 13:46:51.904268
1806  2023-10-18 13:46:51.937143
1807  2023-10-18 13:46:51.984001
1808  2023-10-18 13:46:52.031874
1809  2023-10-18 13:46:52.063790
1810  2023-10-18 13:46:52.110662
1811  2023-10-18 13:46:52.158559
1812  2023-10-18 13:46:52.190479
1813  2023-10-18 13:46:52.238352
1814  2023-10-18 13:46:52.270263
1815  2023-10-18 13:46:52.318141
1816  2023-10-18 13:46:52.366025
1817  2023-10-18 13:46:52.397943
1818  2023-10-18 13:46:52.444769
1819  2023-10-18 13:46:52.491691
1820  2023-10-18 13:46:52.524588
1821  2023-10-18 13:46:52.571470
1822  2023-10-18 13:46:52.603398
1823  2023-10-18 13:46:52.651217
1824  2023-10-18 13:46:52.699137
1825  2023-10-18 13:46:52.731038
1826  2023-10-18 13:46:52.778921
1827  2023-10-18 13:46:52.810791
1828  2023-10-18 13:46:52.858719
1829  2023-10-18 13:46:52.906584
1830  2023-10-18 13:46:52.938476
1831  2023-10-18 13:46:52.986591
1832  2023-10-18 13:46:53.033297
1833  2023-10-18 13:46:53.066242
1834  2023-10-18 13:46:53.113083
1835  2023-10-18 13:46:53.144995
1836  2023-10-18 13:46:53.193837
1837  2023-10-18 13:46:53.241707
1838  2023-10-18 13:46:53.272653
1839  2023-10-18 13:46:53.320556
1840  2023-10-18 13:46:53.352442
1841  2023-10-18 13:46:53.400324
1842  2023-10-18 13:46:53.448188
1843  2023-10-18 13:46:53.480100
1844  2023-10-18 13:46:53.528941
1845  2023-10-18 13:46:53.574857
1846  2023-10-18 13:46:53.606766
1847  2023-10-18 13:46:53.654602
1848  2023-10-18 13:46:53.687516
1849  2023-10-18 13:46:53.735388
1850  2023-10-18 13:46:53.783260
1851  2023-10-18 13:46:53.815175
1852  2023-10-18 13:46:53.863078
1853  2023-10-18 13:46:53.895989
1854  2023-10-18 13:46:53.941888
1855  2023-10-18 13:46:53.990741
1856  2023-10-18 13:46:54.021854
1857  2023-10-18 13:46:54.069517
1858  2023-10-18 13:46:54.118398
1859  2023-10-18 13:46:54.151308
1860  2023-10-18 13:46:54.197191
1861  2023-10-18 13:46:54.229100
1862  2023-10-18 13:46:54.276977
1863  2023-10-18 13:46:54.324841
1864  2023-10-18 13:46:54.357725
1865  2023-10-18 13:46:54.404623
1866  2023-10-18 13:46:54.436547
1867  2023-10-18 13:46:54.484412
1868  2023-10-18 13:46:54.532257
1869  2023-10-18 13:46:54.564171
1870  2023-10-18 13:46:54.612081
1871  2023-10-18 13:46:54.643993
1872  2023-10-18 13:46:54.691829
1873  2023-10-18 13:46:54.739734
1874  2023-10-18 13:46:54.771656
1875  2023-10-18 13:46:54.819560
1876  2023-10-18 13:46:54.867395
1877  2023-10-18 13:46:54.899217
1878  2023-10-18 13:46:54.947172
1879  2023-10-18 13:46:54.979079
1880  2023-10-18 13:46:55.026947
1881  2023-10-18 13:46:55.074813
1882  2023-10-18 13:46:55.106698
1883  2023-10-18 13:46:55.154570
1884  2023-10-18 13:46:55.186484
1885  2023-10-18 13:46:55.234358
1886  2023-10-18 13:46:55.282231
1887  2023-10-18 13:46:55.314182
1888  2023-10-18 13:46:55.363081
1889  2023-10-18 13:46:55.410885
1890  2023-10-18 13:46:55.440854
1891  2023-10-18 13:46:55.488676
1892  2023-10-18 13:46:55.519593
1893  2023-10-18 13:46:55.566501
1894  2023-10-18 13:46:55.614371
1895  2023-10-18 13:46:55.645257
1896  2023-10-18 13:46:55.694142
1897  2023-10-18 13:46:55.741073
1898  2023-10-18 13:46:55.773113
1899  2023-10-18 13:46:55.820943
1900  2023-10-18 13:46:55.852858
1901  2023-10-18 13:46:55.900760
1902  2023-10-18 13:46:55.948647
1903  2023-10-18 13:46:55.980561
1904  2023-10-18 13:46:56.027424
1905  2023-10-18 13:46:56.075263
1906  2023-10-18 13:46:56.107211
1907  2023-10-18 13:46:56.155050
1908  2023-10-18 13:46:56.186996
1909  2023-10-18 13:46:56.233874
1910  2023-10-18 13:46:56.281747
1911  2023-10-18 13:46:56.313674
1912  2023-10-18 13:46:56.361524
1913  2023-10-18 13:46:56.408399
1914  2023-10-18 13:46:56.440320
1915  2023-10-18 13:46:56.487243
1916  2023-10-18 13:46:56.534068
1917  2023-10-18 13:46:56.565983
1918  2023-10-18 13:46:56.611879
1919  2023-10-18 13:46:56.643774
1920  2023-10-18 13:46:56.691615
1921  2023-10-18 13:46:56.739489
1922  2023-10-18 13:46:56.771404
1923  2023-10-18 13:46:56.819274
1924  2023-10-18 13:46:56.867149
1925  2023-10-18 13:46:56.900059
1926  2023-10-18 13:46:56.946964
1927  2023-10-18 13:46:56.977921
1928  2023-10-18 13:46:57.026721
1929  2023-10-18 13:46:57.074593
1930  2023-10-18 13:46:57.105509
1931  2023-10-18 13:46:57.153413
1932  2023-10-18 13:46:57.186293
1933  2023-10-18 13:46:57.234176
1934  2023-10-18 13:46:57.280042
1935  2023-10-18 13:46:57.312955
1936  2023-10-18 13:46:57.360827
1937  2023-10-18 13:46:57.405736
1938  2023-10-18 13:46:57.437656
1939  2023-10-18 13:46:57.484495
1940  2023-10-18 13:46:57.532392
1941  2023-10-18 13:46:57.565280
1942  2023-10-18 13:46:57.611209
1943  2023-10-18 13:46:57.659060
1944  2023-10-18 13:46:57.690989
1945  2023-10-18 13:46:57.738856
1946  2023-10-18 13:46:57.770762
1947  2023-10-18 13:46:57.818636
1948  2023-10-18 13:46:57.866505
1949  2023-10-18 13:46:57.899387
1950  2023-10-18 13:46:57.946294
1951  2023-10-18 13:46:57.978208
1952  2023-10-18 13:46:58.026082
1953  2023-10-18 13:46:58.073952
1954  2023-10-18 13:46:58.106834
1955  2023-10-18 13:46:58.153706
1956  2023-10-18 13:46:58.185654
1957  2023-10-18 13:46:58.233496
1958  2023-10-18 13:46:58.281396
1959  2023-10-18 13:46:58.313312
1960  2023-10-18 13:46:58.361185
1961  2023-10-18 13:46:58.408060
1962  2023-10-18 13:46:58.439979
1963  2023-10-18 13:46:58.487863
1964  2023-10-18 13:46:58.519728
1965  2023-10-18 13:46:58.567627
1966  2023-10-18 13:46:58.615501
1967  2023-10-18 13:46:58.647413
1968  2023-10-18 13:46:58.695291
1969  2023-10-18 13:46:58.727208
1970  2023-10-18 13:46:58.775070
1971  2023-10-18 13:46:58.822965
1972  2023-10-18 13:46:58.855833
1973  2023-10-18 13:46:58.902738
1974  2023-10-18 13:46:58.950610
1975  2023-10-18 13:46:58.983598
1976  2023-10-18 13:46:59.030694
1977  2023-10-18 13:46:59.062609
1978  2023-10-18 13:46:59.110507
1979  2023-10-18 13:46:59.157385
1980  2023-10-18 13:46:59.190272
1981  2023-10-18 13:46:59.237113
1982  2023-10-18 13:46:59.275055
1983  2023-10-18 13:46:59.316924
1984  2023-10-18 13:46:59.366841
1985  2023-10-18 13:46:59.398679
1986  2023-10-18 13:46:59.444580
1987  2023-10-18 13:46:59.492429
1988  2023-10-18 13:46:59.523345
1989  2023-10-18 13:46:59.572215
1990  2023-10-18 13:46:59.605150
1991  2023-10-18 13:46:59.651058
1992  2023-10-18 13:46:59.697905
1993  2023-10-18 13:46:59.730828
1994  2023-10-18 13:46:59.777691
1995  2023-10-18 13:46:59.825688
1996  2023-10-18 13:46:59.856646
1997  2023-10-18 13:46:59.905493
1998  2023-10-18 13:46:59.937388
1999  2023-10-18 13:46:59.984295
2000  2023-10-18 13:47:00.032133
2001  2023-10-18 13:47:00.064086
2002  2023-10-18 13:47:00.109957
2003  2023-10-18 13:47:00.157798
2004  2023-10-18 13:47:00.190710
2005  2023-10-18 13:47:00.236610
2006  2023-10-18 13:47:00.268541
2007  2023-10-18 13:47:00.316373
2008  2023-10-18 13:47:00.364285
2009  2023-10-18 13:47:00.395192
2010  2023-10-18 13:47:00.443058
2011  2023-10-18 13:47:00.489961
2012  2023-10-18 13:47:00.521853
2013  2023-10-18 13:47:00.568731
2014  2023-10-18 13:47:00.616600
2015  2023-10-18 13:47:00.648517
2016  2023-10-18 13:47:00.696389
2017  2023-10-18 13:47:00.728325
2018  2023-10-18 13:47:00.776169
2019  2023-10-18 13:47:00.825090
2020  2023-10-18 13:47:00.856930
2021  2023-10-18 13:47:00.903864
2022  2023-10-18 13:47:00.935749
2023  2023-10-18 13:47:00.983589
2024  2023-10-18 13:47:01.030495
2025  2023-10-18 13:47:01.062378
2026  2023-10-18 13:47:01.109287
2027  2023-10-18 13:47:01.157142
2028  2023-10-18 13:47:01.188076
2029  2023-10-18 13:47:01.236921
2030  2023-10-18 13:47:01.283789
2031  2023-10-18 13:47:01.314738
2032  2023-10-18 13:47:01.361623
2033  2023-10-18 13:47:01.394493
2034  2023-10-18 13:47:01.441398
2035  2023-10-18 13:47:01.489270
2036  2023-10-18 13:47:01.520155
2037  2023-10-18 13:47:01.568065
2038  2023-10-18 13:47:01.615932
2039  2023-10-18 13:47:01.646850
2040  2023-10-18 13:47:01.695692
2041  2023-10-18 13:47:01.741595
2042  2023-10-18 13:47:01.773509
2043  2023-10-18 13:47:01.822349
2044  2023-10-18 13:47:01.853387
2045  2023-10-18 13:47:01.902202
2046  2023-10-18 13:47:01.949152
2047  2023-10-18 13:47:01.981067
2048  2023-10-18 13:47:02.029937
2049  2023-10-18 13:47:02.060853
2050  2023-10-18 13:47:02.107755
2051  2023-10-18 13:47:02.155600
2052  2023-10-18 13:47:02.188516
2053  2023-10-18 13:47:02.235420
2054  2023-10-18 13:47:02.283292
2055  2023-10-18 13:47:02.316171
2056  2023-10-18 13:47:02.362084
2057  2023-10-18 13:47:02.393995
2058  2023-10-18 13:47:02.440930
2059  2023-10-18 13:47:02.487791
2060  2023-10-18 13:47:02.528714
2061  2023-10-18 13:47:02.567580
2062  2023-10-18 13:47:02.615448
2063  2023-10-18 13:47:02.647364
2064  2023-10-18 13:47:02.695311
2065  2023-10-18 13:47:02.728192
2066  2023-10-18 13:47:02.775105
2067  2023-10-18 13:47:02.823940
2068  2023-10-18 13:47:02.854883
2069  2023-10-18 13:47:02.902761
2070  2023-10-18 13:47:02.950596
2071  2023-10-18 13:47:02.982510
2072  2023-10-18 13:47:03.029416
2073  2023-10-18 13:47:03.061332
2074  2023-10-18 13:47:03.108209
2075  2023-10-18 13:47:03.157046
2076  2023-10-18 13:47:03.188962
2077  2023-10-18 13:47:03.235917
2078  2023-10-18 13:47:03.284727
2079  2023-10-18 13:47:03.315621
2080  2023-10-18 13:47:03.363518
2081  2023-10-18 13:47:03.408405
2082  2023-10-18 13:47:03.440338
2083  2023-10-18 13:47:03.488206
2084  2023-10-18 13:47:03.520103
2085  2023-10-18 13:47:03.567978
2086  2023-10-18 13:47:03.615848
2087  2023-10-18 13:47:03.647765
2088  2023-10-18 13:47:03.695635
2089  2023-10-18 13:47:03.727548
2090  2023-10-18 13:47:03.775415
2091  2023-10-18 13:47:03.824262
2092  2023-10-18 13:47:03.854211
2093  2023-10-18 13:47:03.903052
2094  2023-10-18 13:47:03.949955
2095  2023-10-18 13:47:03.981880
2096  2023-10-18 13:47:04.027753
2097  2023-10-18 13:47:04.075619
2098  2023-10-18 13:47:04.107534
2099  2023-10-18 13:47:04.153381
2100  2023-10-18 13:47:04.185295
2101  2023-10-18 13:47:04.234218
2102  2023-10-18 13:47:04.281085
2103  2023-10-18 13:47:04.312988
2104  2023-10-18 13:47:04.360037
2105  2023-10-18 13:47:04.406801
2106  2023-10-18 13:47:04.438765
2107  2023-10-18 13:47:04.486600
2108  2023-10-18 13:47:04.518504
2109  2023-10-18 13:47:04.566463
2110  2023-10-18 13:47:04.614295
2111  2023-10-18 13:47:04.646264
2112  2023-10-18 13:47:04.695085
2113  2023-10-18 13:47:04.741986
2114  2023-10-18 13:47:04.773917
2115  2023-10-18 13:47:04.820768
2116  2023-10-18 13:47:04.852691
2117  2023-10-18 13:47:04.901562
2118  2023-10-18 13:47:04.948501
2119  2023-10-18 13:47:04.980386
2120  2023-10-18 13:47:05.029289
2121  2023-10-18 13:47:05.060291
2122  2023-10-18 13:47:05.108078
2123  2023-10-18 13:47:05.156917
2124  2023-10-18 13:47:05.187864
2125  2023-10-18 13:47:05.236702
2126  2023-10-18 13:47:05.282612
2127  2023-10-18 13:47:05.314526
2128  2023-10-18 13:47:05.363361
2129  2023-10-18 13:47:05.395279
2130  2023-10-18 13:47:05.442180
2131  2023-10-18 13:47:05.490024
2132  2023-10-18 13:47:05.521986
2133  2023-10-18 13:47:05.569875
2134  2023-10-18 13:47:05.616888
2135  2023-10-18 13:47:05.648643
2136  2023-10-18 13:47:05.696504
2137  2023-10-18 13:47:05.728420
2138  2023-10-18 13:47:05.775289
2139  2023-10-18 13:47:05.823184
2140  2023-10-18 13:47:05.854050
2141  2023-10-18 13:47:05.902922
2142  2023-10-18 13:47:05.949827
2143  2023-10-18 13:47:05.981744
2144  2023-10-18 13:47:06.029611
2145  2023-10-18 13:47:06.061543
2146  2023-10-18 13:47:06.110365
2147  2023-10-18 13:47:06.155244
2148  2023-10-18 13:47:06.187159
2149  2023-10-18 13:47:06.235083
2150  2023-10-18 13:47:06.281936
2151  2023-10-18 13:47:06.313869
2152  2023-10-18 13:47:06.361716
2153  2023-10-18 13:47:06.393663
2154  2023-10-18 13:47:06.441485
2155  2023-10-18 13:47:06.489351
2156  2023-10-18 13:47:06.520270
2157  2023-10-18 13:47:06.568182
2158  2023-10-18 13:47:06.616012
2159  2023-10-18 13:47:06.647961
2160  2023-10-18 13:47:06.694802
2161  2023-10-18 13:47:06.741722
2162  2023-10-18 13:47:06.773624
2163  2023-10-18 13:47:06.821500
2164  2023-10-18 13:47:06.853426
2165  2023-10-18 13:47:06.901298
2166  2023-10-18 13:47:06.949154
2167  2023-10-18 13:47:06.981036
2168  2023-10-18 13:47:07.029908
2169  2023-10-18 13:47:07.060828
2170  2023-10-18 13:47:07.108738
2171  2023-10-18 13:47:07.156603
2172  2023-10-18 13:47:07.188507
2173  2023-10-18 13:47:07.235397
2174  2023-10-18 13:47:07.281268
2175  2023-10-18 13:47:07.313183
2176  2023-10-18 13:47:07.362021
2177  2023-10-18 13:47:07.408928
2178  2023-10-18 13:47:07.439845
2179  2023-10-18 13:47:07.487721
2180  2023-10-18 13:47:07.520604
2181  2023-10-18 13:47:07.567508
2182  2023-10-18 13:47:07.615373
2183  2023-10-18 13:47:07.647335
2184  2023-10-18 13:47:07.696227
2185  2023-10-18 13:47:07.728141
2186  2023-10-18 13:47:07.775040
2187  2023-10-18 13:47:07.822929
2188  2023-10-18 13:47:07.854802
2189  2023-10-18 13:47:07.902707
2190  2023-10-18 13:47:07.950546
2191  2023-10-18 13:47:07.982491
2192  2023-10-18 13:47:08.031336
2193  2023-10-18 13:47:08.062252
2194  2023-10-18 13:47:08.109157
2195  2023-10-18 13:47:08.158033
2196  2023-10-18 13:47:08.189910
2197  2023-10-18 13:47:08.236807
2198  2023-10-18 13:47:08.269695
2199  2023-10-18 13:47:08.316608
2200  2023-10-18 13:47:08.364496
2201  2023-10-18 13:47:08.394390
2202  2023-10-18 13:47:08.442232
2203  2023-10-18 13:47:08.490103
2204  2023-10-18 13:47:08.522018
2205  2023-10-18 13:47:08.570919
2206  2023-10-18 13:47:08.601838
2207  2023-10-18 13:47:08.648712
2208  2023-10-18 13:47:08.697550
2209  2023-10-18 13:47:08.729467
2210  2023-10-18 13:47:08.776371
2211  2023-10-18 13:47:08.824210
2212  2023-10-18 13:47:08.856125
2213  2023-10-18 13:47:08.904030
2214  2023-10-18 13:47:08.935942
2215  2023-10-18 13:47:08.983784
2216  2023-10-18 13:47:09.031702
2217  2023-10-18 13:47:09.063597
2218  2023-10-18 13:47:09.111474
2219  2023-10-18 13:47:09.158318
2220  2023-10-18 13:47:09.190257
2221  2023-10-18 13:47:09.238140
2222  2023-10-18 13:47:09.269023
2223  2023-10-18 13:47:09.316925
2224  2023-10-18 13:47:09.363823
2225  2023-10-18 13:47:09.394730
2226  2023-10-18 13:47:09.441604
2227  2023-10-18 13:47:09.489464
2228  2023-10-18 13:47:09.520386
2229  2023-10-18 13:47:09.568270
2230  2023-10-18 13:47:09.615131
2231  2023-10-18 13:47:09.647045
2232  2023-10-18 13:47:09.694936
2233  2023-10-18 13:47:09.726829
2234  2023-10-18 13:47:09.773705
2235  2023-10-18 13:47:09.822545
2236  2023-10-18 13:47:09.853493
2237  2023-10-18 13:47:09.902330
2238  2023-10-18 13:47:09.948246
2239  2023-10-18 13:47:09.980120
2240  2023-10-18 13:47:10.028021
2241  2023-10-18 13:47:10.075915
2242  2023-10-18 13:47:10.107917
2243  2023-10-18 13:47:10.155784
2244  2023-10-18 13:47:10.187778
2245  2023-10-18 13:47:10.233654
2246  2023-10-18 13:47:10.280571
2247  2023-10-18 13:47:10.312487
2248  2023-10-18 13:47:10.361313
2249  2023-10-18 13:47:10.408224
2250  2023-10-18 13:47:10.440102
2251  2023-10-18 13:47:10.489010
2252  2023-10-18 13:47:10.518920
2253  2023-10-18 13:47:10.566787
2254  2023-10-18 13:47:10.614635
2255  2023-10-18 13:47:10.646550
2256  2023-10-18 13:47:10.695423
2257  2023-10-18 13:47:10.742337
2258  2023-10-18 13:47:10.774241
2259  2023-10-18 13:47:10.822298
2260  2023-10-18 13:47:10.853995
2261  2023-10-18 13:47:10.901912
2262  2023-10-18 13:47:10.950738
2263  2023-10-18 13:47:10.982652
2264  2023-10-18 13:47:11.029567
2265  2023-10-18 13:47:11.061483
2266  2023-10-18 13:47:11.109345
2267  2023-10-18 13:47:11.157214
2268  2023-10-18 13:47:11.189131
2269  2023-10-18 13:47:11.237019
2270  2023-10-18 13:47:11.268928
2271  2023-10-18 13:47:11.316790
2272  2023-10-18 13:47:11.363665
2273  2023-10-18 13:47:11.394609
2274  2023-10-18 13:47:11.442422
2275  2023-10-18 13:47:11.490327
2276  2023-10-18 13:47:11.522209
2277  2023-10-18 13:47:11.570106
2278  2023-10-18 13:47:11.602032
2279  2023-10-18 13:47:11.649897
2280  2023-10-18 13:47:11.698739
2281  2023-10-18 13:47:11.730651
2282  2023-10-18 13:47:11.777556
2283  2023-10-18 13:47:11.825430
2284  2023-10-18 13:47:11.857345
2285  2023-10-18 13:47:11.906226
2286  2023-10-18 13:47:11.938105
2287  2023-10-18 13:47:11.985009
2288  2023-10-18 13:47:12.033851
2289  2023-10-18 13:47:12.064789
2290  2023-10-18 13:47:12.112661
2291  2023-10-18 13:47:12.144587
2292  2023-10-18 13:47:12.192451
2293  2023-10-18 13:47:12.241323
2294  2023-10-18 13:47:12.271258
2295  2023-10-18 13:47:12.319111
2296  2023-10-18 13:47:12.366974
2297  2023-10-18 13:47:12.398895
2298  2023-10-18 13:47:12.446767
2299  2023-10-18 13:47:12.478683
2300  2023-10-18 13:47:12.526531
2301  2023-10-18 13:47:12.573361
2302  2023-10-18 13:47:12.605415
2303  2023-10-18 13:47:12.652215
2304  2023-10-18 13:47:12.700086
2305  2023-10-18 13:47:12.732001
2306  2023-10-18 13:47:12.779881
2307  2023-10-18 13:47:12.811789
2308  2023-10-18 13:47:12.859660
2309  2023-10-18 13:47:12.907533
2310  2023-10-18 13:47:12.939446
2311  2023-10-18 13:47:12.986324
2312  2023-10-18 13:47:13.033164
2313  2023-10-18 13:47:13.065081
2314  2023-10-18 13:47:13.110991
2315  2023-10-18 13:47:13.156832
2316  2023-10-18 13:47:13.188791
2317  2023-10-18 13:47:13.236654
2318  2023-10-18 13:47:13.269532
2319  2023-10-18 13:47:13.317403
2320  2023-10-18 13:47:13.363316
2321  2023-10-18 13:47:13.395227
2322  2023-10-18 13:47:13.443067
2323  2023-10-18 13:47:13.490969
2324  2023-10-18 13:47:13.522854
2325  2023-10-18 13:47:13.570759
2326  2023-10-18 13:47:13.603651
2327  2023-10-18 13:47:13.650545
2328  2023-10-18 13:47:13.698431
2329  2023-10-18 13:47:13.730333
2330  2023-10-18 13:47:13.778203
2331  2023-10-18 13:47:13.825098
2332  2023-10-18 13:47:13.857993
2333  2023-10-18 13:47:13.905832
2334  2023-10-18 13:47:13.937746
2335  2023-10-18 13:47:13.984645
2336  2023-10-18 13:47:14.031535
2337  2023-10-18 13:47:14.064433
2338  2023-10-18 13:47:14.111315
2339  2023-10-18 13:47:14.158214
2340  2023-10-18 13:47:14.191071
2341  2023-10-18 13:47:14.237966
2342  2023-10-18 13:47:14.269908
2343  2023-10-18 13:47:14.317763
2344  2023-10-18 13:47:14.364654
2345  2023-10-18 13:47:14.397519
2346  2023-10-18 13:47:14.444418
2347  2023-10-18 13:47:14.492296
2348  2023-10-18 13:47:14.524177
2349  2023-10-18 13:47:14.572081
2350  2023-10-18 13:47:14.604006
2351  2023-10-18 13:47:14.651866
2352  2023-10-18 13:47:14.699750
2353  2023-10-18 13:47:14.731623
2354  2023-10-18 13:47:14.779523
2355  2023-10-18 13:47:14.811449
2356  2023-10-18 13:47:14.859326
2357  2023-10-18 13:47:14.907155
2358  2023-10-18 13:47:14.939102
2359  2023-10-18 13:47:14.986973
2360  2023-10-18 13:47:15.018888
2361  2023-10-18 13:47:15.066760
2362  2023-10-18 13:47:15.114606
2363  2023-10-18 13:47:15.146521
2364  2023-10-18 13:47:15.194404
2365  2023-10-18 13:47:15.243241
2366  2023-10-18 13:47:15.275155
2367  2023-10-18 13:47:15.321081
2368  2023-10-18 13:47:15.353943
2369  2023-10-18 13:47:15.399860
2370  2023-10-18 13:47:15.447691
2371  2023-10-18 13:47:15.479642
2372  2023-10-18 13:47:15.528477
2373  2023-10-18 13:47:15.574386
2374  2023-10-18 13:47:15.606272
2375  2023-10-18 13:47:15.653142
2376  2023-10-18 13:47:15.700072
2377  2023-10-18 13:47:15.732934
2378  2023-10-18 13:47:15.779838
2379  2023-10-18 13:47:15.811749
2380  2023-10-18 13:47:15.859629
2381  2023-10-18 13:47:15.907511
2382  2023-10-18 13:47:15.939379
2383  2023-10-18 13:47:15.986251
2384  2023-10-18 13:47:16.033153
2385  2023-10-18 13:47:16.066076
2386  2023-10-18 13:47:16.110950
2387  2023-10-18 13:47:16.158831
2388  2023-10-18 13:47:16.190737
2389  2023-10-18 13:47:16.238610
2390  2023-10-18 13:47:16.270517
2391  2023-10-18 13:47:16.318397
2392  2023-10-18 13:47:16.367293
2393  2023-10-18 13:47:16.399150
2394  2023-10-18 13:47:16.446077
2395  2023-10-18 13:47:16.477969
2396  2023-10-18 13:47:16.525835
2397  2023-10-18 13:47:16.573754
2398  2023-10-18 13:47:16.605669
2399  2023-10-18 13:47:16.653542
2400  2023-10-18 13:47:16.685455
2401  2023-10-18 13:47:16.733329
2402  2023-10-18 13:47:16.781262
2403  2023-10-18 13:47:16.814200
2404  2023-10-18 13:47:16.860049
2405  2023-10-18 13:47:16.907923
2406  2023-10-18 13:47:16.939837
2407  2023-10-18 13:47:16.987739
2408  2023-10-18 13:47:17.019653
2409  2023-10-18 13:47:17.067520
2410  2023-10-18 13:47:17.115394
2411  2023-10-18 13:47:17.147284
2412  2023-10-18 13:47:17.197333
2413  2023-10-18 13:47:17.227249
2414  2023-10-18 13:47:17.275081
2415  2023-10-18 13:47:17.322950
2416  2023-10-18 13:47:17.354896
2417  2023-10-18 13:47:17.403738
2418  2023-10-18 13:47:17.450639
2419  2023-10-18 13:47:17.482594
2420  2023-10-18 13:47:17.530575
2421  2023-10-18 13:47:17.562490
2422  2023-10-18 13:47:17.610431
2423  2023-10-18 13:47:17.658437
2424  2023-10-18 13:47:17.690351
2425  2023-10-18 13:47:17.739190
2426  2023-10-18 13:47:17.771113
2427  2023-10-18 13:47:17.818009
2428  2023-10-18 13:47:17.865884
2429  2023-10-18 13:47:17.897800
2430  2023-10-18 13:47:17.945670
2431  2023-10-18 13:47:17.977584
2432  2023-10-18 13:47:18.025461
2433  2023-10-18 13:47:18.073349
2434  2023-10-18 13:47:18.105239
2435  2023-10-18 13:47:18.152118
2436  2023-10-18 13:47:18.200956
2437  2023-10-18 13:47:18.232881
2438  2023-10-18 13:47:18.280743
2439  2023-10-18 13:47:18.312659
2440  2023-10-18 13:47:18.360529
2441  2023-10-18 13:47:18.408428
2442  2023-10-18 13:47:18.440318
2443  2023-10-18 13:47:18.488234
2444  2023-10-18 13:47:18.520104
2445  2023-10-18 13:47:18.569006
2446  2023-10-18 13:47:18.615886
2447  2023-10-18 13:47:18.647810
2448  2023-10-18 13:47:18.693677
2449  2023-10-18 13:47:18.741549
2450  2023-10-18 13:47:18.772525
2451  2023-10-18 13:47:18.820373
2452  2023-10-18 13:47:18.852287
2453  2023-10-18 13:47:18.900201
2454  2023-10-18 13:47:18.948031
2455  2023-10-18 13:47:18.979946
2456  2023-10-18 13:47:19.028821
2457  2023-10-18 13:47:19.075720
2458  2023-10-18 13:47:19.107629
2459  2023-10-18 13:47:19.155477
2460  2023-10-18 13:47:19.187391
2461  2023-10-18 13:47:19.234303
2462  2023-10-18 13:47:19.282184
2463  2023-10-18 13:47:19.314053
2464  2023-10-18 13:47:19.360959
2465  2023-10-18 13:47:19.408925
2466  2023-10-18 13:47:19.439894
2467  2023-10-18 13:47:19.487768
2468  2023-10-18 13:47:19.519675
2469  2023-10-18 13:47:19.567553
2470  2023-10-18 13:47:19.614429
2471  2023-10-18 13:47:19.646307
2472  2023-10-18 13:47:19.694183
2473  2023-10-18 13:47:19.741083
2474  2023-10-18 13:47:19.773001
2475  2023-10-18 13:47:19.820840
2476  2023-10-18 13:47:19.852785
2477  2023-10-18 13:47:19.901624
2478  2023-10-18 13:47:19.948599
2479  2023-10-18 13:47:19.980508
2480  2023-10-18 13:47:20.029358
2481  2023-10-18 13:47:20.060289
2482  2023-10-18 13:47:20.107173
2483  2023-10-18 13:47:20.154045
2484  2023-10-18 13:47:20.185979
2485  2023-10-18 13:47:20.233860
2486  2023-10-18 13:47:20.281845
2487  2023-10-18 13:47:20.313738
2488  2023-10-18 13:47:20.361569
2489  2023-10-18 13:47:20.393521
2490  2023-10-18 13:47:20.442355
2491  2023-10-18 13:47:20.489265
2492  2023-10-18 13:47:20.521143
2493  2023-10-18 13:47:20.569052
2494  2023-10-18 13:47:20.616919
2495  2023-10-18 13:47:20.646923
2496  2023-10-18 13:47:20.694750
2497  2023-10-18 13:47:20.741624
2498  2023-10-18 13:47:20.775539
2499  2023-10-18 13:47:20.823542
2500  2023-10-18 13:47:20.852434
2501  2023-10-18 13:47:20.900345
2502  2023-10-18 13:47:20.948178
2503  2023-10-18 13:47:20.980093
2504  2023-10-18 13:47:21.026969
2505  2023-10-18 13:47:21.075839
2506  2023-10-18 13:47:21.134681
2507  2023-10-18 13:47:21.154665
2508  2023-10-18 13:47:21.186573
2509  2023-10-18 13:47:21.235413
2510  2023-10-18 13:47:21.282323
2511  2023-10-18 13:47:21.314200
2512  2023-10-18 13:47:21.362106
2513  2023-10-18 13:47:21.394016
2514  2023-10-18 13:47:21.441890
2515  2023-10-18 13:47:21.488768
2516  2023-10-18 13:47:21.520701
2517  2023-10-18 13:47:21.568546
2518  2023-10-18 13:47:21.616392
2519  2023-10-18 13:47:21.648345
2520  2023-10-18 13:47:21.696205
2521  2023-10-18 13:47:21.728318
2522  2023-10-18 13:47:21.776195
2523  2023-10-18 13:47:21.824066
2524  2023-10-18 13:47:21.855951
2525  2023-10-18 13:47:21.902972
2526  2023-10-18 13:47:21.950738
2527  2023-10-18 13:47:21.982614
2528  2023-10-18 13:47:22.030520
2529  2023-10-18 13:47:22.061402
2530  2023-10-18 13:47:22.109301
2531  2023-10-18 13:47:22.158145
2532  2023-10-18 13:47:22.189116
2533  2023-10-18 13:47:22.235938
2534  2023-10-18 13:47:22.283838
2535  2023-10-18 13:47:22.316732
2536  2023-10-18 13:47:22.362626
2537  2023-10-18 13:47:22.395537
2538  2023-10-18 13:47:22.443388
2539  2023-10-18 13:47:22.490290
2540  2023-10-18 13:47:22.522200
2541  2023-10-18 13:47:22.571043
2542  2023-10-18 13:47:22.602957
2543  2023-10-18 13:47:22.649863
2544  2023-10-18 13:47:22.697702
2545  2023-10-18 13:47:22.729617
2546  2023-10-18 13:47:22.778486
2547  2023-10-18 13:47:22.827404
2548  2023-10-18 13:47:22.857308
2549  2023-10-18 13:47:22.905197
2550  2023-10-18 13:47:22.936282
2551  2023-10-18 13:47:22.983966
2552  2023-10-18 13:47:23.031847
2553  2023-10-18 13:47:23.064722
2554  2023-10-18 13:47:23.111625
2555  2023-10-18 13:47:23.143541
2556  2023-10-18 13:47:23.191383
2557  2023-10-18 13:47:23.239279
2558  2023-10-18 13:47:23.271201
2559  2023-10-18 13:47:23.318075
2560  2023-10-18 13:47:23.365945
2561  2023-10-18 13:47:23.398908
2562  2023-10-18 13:47:23.445738
2563  2023-10-18 13:47:23.478615
2564  2023-10-18 13:47:23.526487
2565  2023-10-18 13:47:23.574382
2566  2023-10-18 13:47:23.604278
2567  2023-10-18 13:47:23.652150
2568  2023-10-18 13:47:23.701049
2569  2023-10-18 13:47:23.732948
2570  2023-10-18 13:47:23.778975
2571  2023-10-18 13:47:23.824885
2572  2023-10-18 13:47:23.856767
2573  2023-10-18 13:47:23.904669
2574  2023-10-18 13:47:23.936584
2575  2023-10-18 13:47:23.984456
2576  2023-10-18 13:47:24.033334
2577  2023-10-18 13:47:24.064244
2578  2023-10-18 13:47:24.112134
2579  2023-10-18 13:47:24.144997
2580  2023-10-18 13:47:24.190923
2581  2023-10-18 13:47:24.238777
2582  2023-10-18 13:47:24.271659
2583  2023-10-18 13:47:24.318581
2584  2023-10-18 13:47:24.366439
2585  2023-10-18 13:47:24.399343
2586  2023-10-18 13:47:24.445229
2587  2023-10-18 13:47:24.477145
2588  2023-10-18 13:47:24.525024
2589  2023-10-18 13:47:24.572885
2590  2023-10-18 13:47:24.604915
2591  2023-10-18 13:47:24.652640
2592  2023-10-18 13:47:24.700583
2593  2023-10-18 13:47:24.733532
2594  2023-10-18 13:47:24.781404
2595  2023-10-18 13:47:24.812327
2596  2023-10-18 13:47:24.859220
2597  2023-10-18 13:47:24.908066
2598  2023-10-18 13:47:24.939016
2599  2023-10-18 13:47:24.986881
2600  2023-10-18 13:47:25.019769
2601  2023-10-18 13:47:25.066641
2602  2023-10-18 13:47:25.114547
2603  2023-10-18 13:47:25.146471
2604  2023-10-18 13:47:25.194326
2605  2023-10-18 13:47:25.241177
2606  2023-10-18 13:47:25.275128
2607  2023-10-18 13:47:25.322108
2608  2023-10-18 13:47:25.352035
2609  2023-10-18 13:47:25.399937
2610  2023-10-18 13:47:25.447961
2611  2023-10-18 13:47:25.479790
2612  2023-10-18 13:47:25.526668
2613  2023-10-18 13:47:25.574532
2614  2023-10-18 13:47:25.606472
2615  2023-10-18 13:47:25.654324
2616  2023-10-18 13:47:25.686212
2617  2023-10-18 13:47:25.734112
2618  2023-10-18 13:47:25.780958
2619  2023-10-18 13:47:25.812888
2620  2023-10-18 13:47:25.861737
2621  2023-10-18 13:47:25.907615
2622  2023-10-18 13:47:25.939531
2623  2023-10-18 13:47:25.987401
2624  2023-10-18 13:47:26.021311
2625  2023-10-18 13:47:26.067225
2626  2023-10-18 13:47:26.117056
2627  2023-10-18 13:47:26.146974
2628  2023-10-18 13:47:26.196887
2629  2023-10-18 13:47:26.227762
2630  2023-10-18 13:47:26.274664
2631  2023-10-18 13:47:26.321540
2632  2023-10-18 13:47:26.353455
2633  2023-10-18 13:47:26.401341
2634  2023-10-18 13:47:26.449199
2635  2023-10-18 13:47:26.481113
2636  2023-10-18 13:47:26.528953
2637  2023-10-18 13:47:26.560893
2638  2023-10-18 13:47:26.608777
2639  2023-10-18 13:47:26.656611
2640  2023-10-18 13:47:26.688563
2641  2023-10-18 13:47:26.737397
2642  2023-10-18 13:47:26.783305
2643  2023-10-18 13:47:26.815223
2644  2023-10-18 13:47:26.863124
2645  2023-10-18 13:47:26.896060
2646  2023-10-18 13:47:26.941981
2647  2023-10-18 13:47:26.990807
2648  2023-10-18 13:47:27.021750
2649  2023-10-18 13:47:27.069632
2650  2023-10-18 13:47:27.116476
2651  2023-10-18 13:47:27.148390
2652  2023-10-18 13:47:27.196298
2653  2023-10-18 13:47:27.228207
2654  2023-10-18 13:47:27.276083
2655  2023-10-18 13:47:27.323915
2656  2023-10-18 13:47:27.356831
2657  2023-10-18 13:47:27.403744
2658  2023-10-18 13:47:27.435619
2659  2023-10-18 13:47:27.483522
2660  2023-10-18 13:47:27.531360
2661  2023-10-18 13:47:27.563275
2662  2023-10-18 13:47:27.612146
2663  2023-10-18 13:47:27.659052
2664  2023-10-18 13:47:27.690934
2665  2023-10-18 13:47:27.738842
2666  2023-10-18 13:47:27.771722
2667  2023-10-18 13:47:27.818592
2668  2023-10-18 13:47:27.866465
2669  2023-10-18 13:47:27.898379
2670  2023-10-18 13:47:27.946315
2671  2023-10-18 13:47:27.978237
2672  2023-10-18 13:47:28.026165
2673  2023-10-18 13:47:28.074056
2674  2023-10-18 13:47:28.105962
2675  2023-10-18 13:47:28.152835
2676  2023-10-18 13:47:28.200705
2677  2023-10-18 13:47:28.232617
2678  2023-10-18 13:47:28.280504
2679  2023-10-18 13:47:28.313411
2680  2023-10-18 13:47:28.360270
2681  2023-10-18 13:47:28.408145
2682  2023-10-18 13:47:28.440064
2683  2023-10-18 13:47:28.487930
2684  2023-10-18 13:47:28.519840
2685  2023-10-18 13:47:28.567738
2686  2023-10-18 13:47:28.616610
2687  2023-10-18 13:47:28.648471
2688  2023-10-18 13:47:28.694381
2689  2023-10-18 13:47:28.742398
2690  2023-10-18 13:47:28.774385
2691  2023-10-18 13:47:28.821219
2692  2023-10-18 13:47:28.853136
2693  2023-10-18 13:47:28.901971
2694  2023-10-18 13:47:28.948877
2695  2023-10-18 13:47:28.980819
2696  2023-10-18 13:47:29.027660
2697  2023-10-18 13:47:29.075549
2698  2023-10-18 13:47:29.108420
2699  2023-10-18 13:47:29.155329
2700  2023-10-18 13:47:29.188208
2701  2023-10-18 13:47:29.236079
2702  2023-10-18 13:47:29.283982
2703  2023-10-18 13:47:29.315901
2704  2023-10-18 13:47:29.364734
2705  2023-10-18 13:47:29.395683
2706  2023-10-18 13:47:29.441527
2707  2023-10-18 13:47:29.489400
2708  2023-10-18 13:47:29.521348
2709  2023-10-18 13:47:29.570185
2710  2023-10-18 13:47:29.618057
2711  2023-10-18 13:47:29.649004
2712  2023-10-18 13:47:29.696845
2713  2023-10-18 13:47:29.728759
2714  2023-10-18 13:47:29.776670
2715  2023-10-18 13:47:29.825529
2716  2023-10-18 13:47:29.856488
2717  2023-10-18 13:47:29.904316
2718  2023-10-18 13:47:29.936294
2719  2023-10-18 13:47:29.984217
2720  2023-10-18 13:47:30.032063
2721  2023-10-18 13:47:30.064952
2722  2023-10-18 13:47:30.111857
2723  2023-10-18 13:47:30.143786
2724  2023-10-18 13:47:30.191614
2725  2023-10-18 13:47:30.238537
2726  2023-10-18 13:47:30.270426
2727  2023-10-18 13:47:30.317323
2728  2023-10-18 13:47:30.364150
2729  2023-10-18 13:47:30.396100
2730  2023-10-18 13:47:30.443968
2731  2023-10-18 13:47:30.491998
2732  2023-10-18 13:47:30.523724
2733  2023-10-18 13:47:30.571603
2734  2023-10-18 13:47:30.603512
2735  2023-10-18 13:47:30.651417
2736  2023-10-18 13:47:30.698290
2737  2023-10-18 13:47:30.730225
2738  2023-10-18 13:47:30.779045
2739  2023-10-18 13:47:30.825023
2740  2023-10-18 13:47:30.856865
2741  2023-10-18 13:47:30.904749
2742  2023-10-18 13:47:30.936675
2743  2023-10-18 13:47:30.984668
2744  2023-10-18 13:47:31.032545
2745  2023-10-18 13:47:31.063423
2746  2023-10-18 13:47:31.110339
2747  2023-10-18 13:47:31.158198
2748  2023-10-18 13:47:31.189111
2749  2023-10-18 13:47:31.237967
2750  2023-10-18 13:47:31.269871
2751  2023-10-18 13:47:31.316770
2752  2023-10-18 13:47:31.364678
2753  2023-10-18 13:47:31.396564
2754  2023-10-18 13:47:31.444452
2755  2023-10-18 13:47:31.491311
2756  2023-10-18 13:47:31.523225
2757  2023-10-18 13:47:31.571139
2758  2023-10-18 13:47:31.618963
2759  2023-10-18 13:47:31.650852
2760  2023-10-18 13:47:31.698752
2761  2023-10-18 13:47:31.730672
2762  2023-10-18 13:47:31.776516
2763  2023-10-18 13:47:31.825386
2764  2023-10-18 13:47:31.856347
2765  2023-10-18 13:47:31.904198
2766  2023-10-18 13:47:31.937087
2767  2023-10-18 13:47:31.984006
2768  2023-10-18 13:47:32.030941
2769  2023-10-18 13:47:32.062856
2770  2023-10-18 13:47:32.110735
2771  2023-10-18 13:47:32.158575
2772  2023-10-18 13:47:32.190520
2773  2023-10-18 13:47:32.238511
2774  2023-10-18 13:47:32.270308
2775  2023-10-18 13:47:32.318193
2776  2023-10-18 13:47:32.366059
2777  2023-10-18 13:47:32.395941
2778  2023-10-18 13:47:32.443858
2779  2023-10-18 13:47:32.491716
2780  2023-10-18 13:47:32.523599
2781  2023-10-18 13:47:32.571507
2782  2023-10-18 13:47:32.616383
2783  2023-10-18 13:47:32.647304
2784  2023-10-18 13:47:32.695190
2785  2023-10-18 13:47:32.727222
2786  2023-10-18 13:47:32.776970
2787  2023-10-18 13:47:32.822842
2788  2023-10-18 13:47:32.854758
2789  2023-10-18 13:47:32.901590
2790  2023-10-18 13:47:32.948494
2791  2023-10-18 13:47:32.980409
2792  2023-10-18 13:47:33.028281
2793  2023-10-18 13:47:33.060201
2794  2023-10-18 13:47:33.108038
2795  2023-10-18 13:47:33.155934
2796  2023-10-18 13:47:33.187854
2797  2023-10-18 13:47:33.236695
2798  2023-10-18 13:47:33.283600
2799  2023-10-18 13:47:33.314521
2800  2023-10-18 13:47:33.362382
2801  2023-10-18 13:47:33.409262
2802  2023-10-18 13:47:33.442179
2803  2023-10-18 13:47:33.490086
2804  2023-10-18 13:47:33.519175
2805  2023-10-18 13:47:33.567942
2806  2023-10-18 13:47:33.614861
2807  2023-10-18 13:47:33.646776
2808  2023-10-18 13:47:33.695601
2809  2023-10-18 13:47:33.741526
2810  2023-10-18 13:47:33.773441
2811  2023-10-18 13:47:33.822297
2812  2023-10-18 13:47:33.853213
2813  2023-10-18 13:47:33.901051
2814  2023-10-18 13:47:33.946929
2815  2023-10-18 13:47:33.978878
2816  2023-10-18 13:47:34.025765
2817  2023-10-18 13:47:34.074589
2818  2023-10-18 13:47:34.106503
2819  2023-10-18 13:47:34.153376
2820  2023-10-18 13:47:34.185323
2821  2023-10-18 13:47:34.233195
2822  2023-10-18 13:47:34.282034
2823  2023-10-18 13:47:34.312983
2824  2023-10-18 13:47:34.360822
2825  2023-10-18 13:47:34.408698
2826  2023-10-18 13:47:34.439637
2827  2023-10-18 13:47:34.487485
2828  2023-10-18 13:47:34.519460
2829  2023-10-18 13:47:34.567325
2830  2023-10-18 13:47:34.615187
2831  2023-10-18 13:47:34.647115
2832  2023-10-18 13:47:34.694962
2833  2023-10-18 13:47:34.726886
2834  2023-10-18 13:47:34.774760
2835  2023-10-18 13:47:34.822623
2836  2023-10-18 13:47:34.854502
2837  2023-10-18 13:47:34.900382
2838  2023-10-18 13:47:34.948299
2839  2023-10-18 13:47:34.980203
2840  2023-10-18 13:47:35.029044
2841  2023-10-18 13:47:35.074947
2842  2023-10-18 13:47:35.106867
2843  2023-10-18 13:47:35.154727
2844  2023-10-18 13:47:35.186652
2845  2023-10-18 13:47:35.234516
2846  2023-10-18 13:47:35.282395
2847  2023-10-18 13:47:35.313329
2848  2023-10-18 13:47:35.361184
2849  2023-10-18 13:47:35.409021
2850  2023-10-18 13:47:35.440936
2851  2023-10-18 13:47:35.488842
2852  2023-10-18 13:47:35.521729
2853  2023-10-18 13:47:35.567598
2854  2023-10-18 13:47:35.614505
2855  2023-10-18 13:47:35.646430
2856  2023-10-18 13:47:35.695256
2857  2023-10-18 13:47:35.743185
2858  2023-10-18 13:47:35.774045
2859  2023-10-18 13:47:35.822914
2860  2023-10-18 13:47:35.852902
2861  2023-10-18 13:47:35.899708
2862  2023-10-18 13:47:35.947615
2863  2023-10-18 13:47:35.979546
2864  2023-10-18 13:47:36.026370
2865  2023-10-18 13:47:36.074276
2866  2023-10-18 13:47:36.106186
2867  2023-10-18 13:47:36.154098
2868  2023-10-18 13:47:36.186065
2869  2023-10-18 13:47:36.232957
2870  2023-10-18 13:47:36.280942
2871  2023-10-18 13:47:36.312828
2872  2023-10-18 13:47:36.360805
2873  2023-10-18 13:47:36.408584
2874  2023-10-18 13:47:36.440489
2875  2023-10-18 13:47:36.488368
2876  2023-10-18 13:47:36.521247
2877  2023-10-18 13:47:36.568155
2878  2023-10-18 13:47:36.616024
2879  2023-10-18 13:47:36.648908
2880  2023-10-18 13:47:36.695819
2881  2023-10-18 13:47:36.727734
2882  2023-10-18 13:47:36.775631
2883  2023-10-18 13:47:36.822538
2884  2023-10-18 13:47:36.854420
2885  2023-10-18 13:47:36.902293
2886  2023-10-18 13:47:36.950195
2887  2023-10-18 13:47:36.983120
2888  2023-10-18 13:47:37.029035
2889  2023-10-18 13:47:37.060951
2890  2023-10-18 13:47:37.108809
2891  2023-10-18 13:47:37.156703
2892  2023-10-18 13:47:37.188611
2893  2023-10-18 13:47:37.237488
2894  2023-10-18 13:47:37.282338
2895  2023-10-18 13:47:37.314254
2896  2023-10-18 13:47:37.363100
2897  2023-10-18 13:47:37.399003
2898  2023-10-18 13:47:37.440938
2899  2023-10-18 13:47:37.488804
2900  2023-10-18 13:47:37.520724
2901  2023-10-18 13:47:37.568133
2902  2023-10-18 13:47:37.616050
2903  2023-10-18 13:47:37.647983
2904  2023-10-18 13:47:37.695792
2905  2023-10-18 13:47:37.741717
2906  2023-10-18 13:47:37.773582
2907  2023-10-18 13:47:37.822452
2908  2023-10-18 13:47:37.853370
2909  2023-10-18 13:47:37.900245
2910  2023-10-18 13:47:37.949120
2911  2023-10-18 13:47:37.980032
2912  2023-10-18 13:47:38.027943
2913  2023-10-18 13:47:38.074808
2914  2023-10-18 13:47:38.106737
2915  2023-10-18 13:47:38.152617
2916  2023-10-18 13:47:38.200472
2917  2023-10-18 13:47:38.232401
2918  2023-10-18 13:47:38.280272
2919  2023-10-18 13:47:38.311190
2920  2023-10-18 13:47:38.359062
2921  2023-10-18 13:47:38.406921
2922  2023-10-18 13:47:38.438957
2923  2023-10-18 13:47:38.486713
2924  2023-10-18 13:47:38.518625
2925  2023-10-18 13:47:38.566502
2926  2023-10-18 13:47:38.615333
2927  2023-10-18 13:47:38.646290
2928  2023-10-18 13:47:38.694121
2929  2023-10-18 13:47:38.742038
2930  2023-10-18 13:47:38.773910
2931  2023-10-18 13:47:38.819816
2932  2023-10-18 13:47:38.866662
2933  2023-10-18 13:47:38.899578
2934  2023-10-18 13:47:38.946475
2935  2023-10-18 13:47:38.977400
2936  2023-10-18 13:47:39.025277
2937  2023-10-18 13:47:39.073139
2938  2023-10-18 13:47:39.105056
2939  2023-10-18 13:47:39.151930
2940  2023-10-18 13:47:39.200768
2941  2023-10-18 13:47:39.231685
2942  2023-10-18 13:47:39.279639
2943  2023-10-18 13:47:39.326533
2944  2023-10-18 13:47:39.358429
2945  2023-10-18 13:47:39.405344
2946  2023-10-18 13:47:39.436261
2947  2023-10-18 13:47:39.483168
2948  2023-10-18 13:47:39.530042
2949  2023-10-18 13:47:39.562928
2950  2023-10-18 13:47:39.609838
2951  2023-10-18 13:47:39.656672
2952  2023-10-18 13:47:39.688623
2953  2023-10-18 13:47:39.736491
2954  2023-10-18 13:47:39.783373
2955  2023-10-18 13:47:39.816282
2956  2023-10-18 13:47:39.862123
2957  2023-10-18 13:47:39.909032
2958  2023-10-18 13:47:39.940949
2959  2023-10-18 13:47:39.988817
2960  2023-10-18 13:47:40.019733
2961  2023-10-18 13:47:40.069641
2962  2023-10-18 13:47:40.115481
2963  2023-10-18 13:47:40.147391
2964  2023-10-18 13:47:40.197275
2965  2023-10-18 13:47:40.229215
2966  2023-10-18 13:47:40.276063
2967  2023-10-18 13:47:40.324886
2968  2023-10-18 13:47:40.356851
2969  2023-10-18 13:47:40.404707
2970  2023-10-18 13:47:40.450598
2971  2023-10-18 13:47:40.483510
2972  2023-10-18 13:47:40.530361
2973  2023-10-18 13:47:40.564279
2974  2023-10-18 13:47:40.610168
2975  2023-10-18 13:47:40.657995
2976  2023-10-18 13:47:40.688914
2977  2023-10-18 13:47:40.736827
2978  2023-10-18 13:47:40.782705
2979  2023-10-18 13:47:40.814625
2980  2023-10-18 13:47:40.862481
2981  2023-10-18 13:47:40.908367
2982  2023-10-18 13:47:40.940304
2983  2023-10-18 13:47:40.988149
2984  2023-10-18 13:47:41.020063
2985  2023-10-18 13:47:41.068033
2986  2023-10-18 13:47:41.116977
2987  2023-10-18 13:47:41.147927
2988  2023-10-18 13:47:41.195797
2989  2023-10-18 13:47:41.227775
2990  2023-10-18 13:47:41.275674
2991  2023-10-18 13:47:41.323519
2992  2023-10-18 13:47:41.355466
2993  2023-10-18 13:47:41.402335
2994  2023-10-18 13:47:41.450182
2995  2023-10-18 13:47:41.482096
2996  2023-10-18 13:47:41.529000
2997  2023-10-18 13:47:41.575846
2998  2023-10-18 13:47:41.607762
2999  2023-10-18 13:47:41.654634
3000  2023-10-18 13:47:41.686575
3001  2023-10-18 13:47:41.734448
3002  2023-10-18 13:47:41.782317
3003  2023-10-18 13:47:41.813235
3004  2023-10-18 13:47:41.861112
3005  2023-10-18 13:47:41.907991
3006  2023-10-18 13:47:41.940902
3007  2023-10-18 13:47:41.987791
3008  2023-10-18 13:47:42.019690
3009  2023-10-18 13:47:42.067533
3010  2023-10-18 13:47:42.115435
3011  2023-10-18 13:47:42.148317
3012  2023-10-18 13:47:42.195317
3013  2023-10-18 13:47:42.227135
3014  2023-10-18 13:47:42.275007
3015  2023-10-18 13:47:42.322882
3016  2023-10-18 13:47:42.355761
3017  2023-10-18 13:47:42.402637
3018  2023-10-18 13:47:42.448543
3019  2023-10-18 13:47:42.480458
3020  2023-10-18 13:47:42.528332
3021  2023-10-18 13:47:42.575204
3022  2023-10-18 13:47:42.606123
3023  2023-10-18 13:47:42.652001
3024  2023-10-18 13:47:42.697845
3025  2023-10-18 13:47:42.729760
3026  2023-10-18 13:47:42.778630
3027  2023-10-18 13:47:42.825504
3028  2023-10-18 13:47:42.857523
3029  2023-10-18 13:47:42.905322
3030  2023-10-18 13:47:42.937231
3031  2023-10-18 13:47:42.995084
3032  2023-10-18 13:47:43.032019
3033  2023-10-18 13:47:43.063906
3034  2023-10-18 13:47:43.111905
3035  2023-10-18 13:47:43.144785
3036  2023-10-18 13:47:43.191659
3037  2023-10-18 13:47:43.237554
3038  2023-10-18 13:47:43.269505
3039  2023-10-18 13:47:43.317324
3040  2023-10-18 13:47:43.363234
3041  2023-10-18 13:47:43.395172
3042  2023-10-18 13:47:43.442990
3043  2023-10-18 13:47:43.489897
3044  2023-10-18 13:47:43.522804
3045  2023-10-18 13:47:43.570647
3046  2023-10-18 13:47:43.616554
3047  2023-10-18 13:47:43.648441
3048  2023-10-18 13:47:43.696422
3049  2023-10-18 13:47:43.727347
3050  2023-10-18 13:47:43.775292
3051  2023-10-18 13:47:43.824133
3052  2023-10-18 13:47:43.854076
3053  2023-10-18 13:47:43.902923
3054  2023-10-18 13:47:43.949832
3055  2023-10-18 13:47:43.981743
3056  2023-10-18 13:47:44.030620
3057  2023-10-18 13:47:44.063518
3058  2023-10-18 13:47:44.109368
3059  2023-10-18 13:47:44.157241
3060  2023-10-18 13:47:44.189202
3061  2023-10-18 13:47:44.238057
3062  2023-10-18 13:47:44.282971
3063  2023-10-18 13:47:44.314851
3064  2023-10-18 13:47:44.362691
3065  2023-10-18 13:47:44.393608
3066  2023-10-18 13:47:44.442478
3067  2023-10-18 13:47:44.489352
3068  2023-10-18 13:47:44.521317
3069  2023-10-18 13:47:44.569168
3070  2023-10-18 13:47:44.616039
3071  2023-10-18 13:47:44.648927
3072  2023-10-18 13:47:44.695801
3073  2023-10-18 13:47:44.741679
3074  2023-10-18 13:47:44.773593
3075  2023-10-18 13:47:44.821511
3076  2023-10-18 13:47:44.853379
3077  2023-10-18 13:47:44.901324
3078  2023-10-18 13:47:44.948159
3079  2023-10-18 13:47:44.980071
3080  2023-10-18 13:47:45.028912
3081  2023-10-18 13:47:45.074801
3082  2023-10-18 13:47:45.107700
3083  2023-10-18 13:47:45.153607
3084  2023-10-18 13:47:45.186530
3085  2023-10-18 13:47:45.234406
3086  2023-10-18 13:47:45.282299
3087  2023-10-18 13:47:45.313183
3088  2023-10-18 13:47:45.361048
3089  2023-10-18 13:47:45.408928
3090  2023-10-18 13:47:45.440874
3091  2023-10-18 13:47:45.488786
3092  2023-10-18 13:47:45.519750
3093  2023-10-18 13:47:45.567573
3094  2023-10-18 13:47:45.613453
3095  2023-10-18 13:47:45.645384
3096  2023-10-18 13:47:45.694208
3097  2023-10-18 13:47:45.740117
3098  2023-10-18 13:47:45.773027
3099  2023-10-18 13:47:45.820892
3100  2023-10-18 13:47:45.868777
3101  2023-10-18 13:47:45.898659
3102  2023-10-18 13:47:45.948562
3103  2023-10-18 13:47:45.980483
3104  2023-10-18 13:47:46.026318
3105  2023-10-18 13:47:46.074332
3106  2023-10-18 13:47:46.106129
3107  2023-10-18 13:47:46.153024
3108  2023-10-18 13:47:46.199889
3109  2023-10-18 13:47:46.230803
3110  2023-10-18 13:47:46.278669
3111  2023-10-18 13:47:46.310592
3112  2023-10-18 13:47:46.357597
3113  2023-10-18 13:47:46.405347
3114  2023-10-18 13:47:46.437221
3115  2023-10-18 13:47:46.486154
3116  2023-10-18 13:47:46.532998
3117  2023-10-18 13:47:46.564910
3118  2023-10-18 13:47:46.612774
3119  2023-10-18 13:47:46.644714
3120  2023-10-18 13:47:46.691772
3121  2023-10-18 13:47:46.739476
3122  2023-10-18 13:47:46.771470
3123  2023-10-18 13:47:46.819384
3124  2023-10-18 13:47:46.867221
3125  2023-10-18 13:47:46.898442
3126  2023-10-18 13:47:46.945251
3127  2023-10-18 13:47:46.977274
3128  2023-10-18 13:47:47.025143
3129  2023-10-18 13:47:47.073087
3130  2023-10-18 13:47:47.103045
3131  2023-10-18 13:47:47.150910
3132  2023-10-18 13:47:47.198751
3133  2023-10-18 13:47:47.230665
3134  2023-10-18 13:47:47.278537
3135  2023-10-18 13:47:47.310453
3136  2023-10-18 13:47:47.358325
3137  2023-10-18 13:47:47.405231
3138  2023-10-18 13:47:47.437151
3139  2023-10-18 13:47:47.484022
3140  2023-10-18 13:47:47.531891
3141  2023-10-18 13:47:47.564782
3142  2023-10-18 13:47:47.612646
3143  2023-10-18 13:47:47.644585
3144  2023-10-18 13:47:47.691470
3145  2023-10-18 13:47:47.740305
3146  2023-10-18 13:47:47.772231
3147  2023-10-18 13:47:47.820091
3148  2023-10-18 13:47:47.867990
3149  2023-10-18 13:47:47.899879
3150  2023-10-18 13:47:47.948778
3151  2023-10-18 13:47:47.980695
3152  2023-10-18 13:47:48.026540
3153  2023-10-18 13:47:48.075441
3154  2023-10-18 13:47:48.108369
3155  2023-10-18 13:47:48.156233
3156  2023-10-18 13:47:48.186154
3157  2023-10-18 13:47:48.233027
3158  2023-10-18 13:47:48.279902
3159  2023-10-18 13:47:48.310819
3160  2023-10-18 13:47:48.357774
3161  2023-10-18 13:47:48.405615
3162  2023-10-18 13:47:48.438530
3163  2023-10-18 13:47:48.485427
3164  2023-10-18 13:47:48.534272
3165  2023-10-18 13:47:48.565186
3166  2023-10-18 13:47:48.613116
3167  2023-10-18 13:47:48.645007
3168  2023-10-18 13:47:48.692845
3169  2023-10-18 13:47:48.740750
3170  2023-10-18 13:47:48.772713
3171  2023-10-18 13:47:48.820790
3172  2023-10-18 13:47:48.852521
3173  2023-10-18 13:47:48.900470
3174  2023-10-18 13:47:48.949310
3175  2023-10-18 13:47:48.980276
3176  2023-10-18 13:47:49.029135
3177  2023-10-18 13:47:49.074975
3178  2023-10-18 13:47:49.106889
3179  2023-10-18 13:47:49.153796
3180  2023-10-18 13:47:49.185720
3181  2023-10-18 13:47:49.233614
3182  2023-10-18 13:47:49.281422
3183  2023-10-18 13:47:49.312371
3184  2023-10-18 13:47:49.358280
3185  2023-10-18 13:47:49.408115
3186  2023-10-18 13:47:49.438048
3187  2023-10-18 13:47:49.485912
3188  2023-10-18 13:47:49.533781
3189  2023-10-18 13:47:49.566661
3190  2023-10-18 13:47:49.613563
3191  2023-10-18 13:47:49.645480
3192  2023-10-18 13:47:49.692322
3193  2023-10-18 13:47:49.740232
3194  2023-10-18 13:47:49.772164
3195  2023-10-18 13:47:49.819983
3196  2023-10-18 13:47:49.866890
3197  2023-10-18 13:47:49.898803
3198  2023-10-18 13:47:49.947642
3199  2023-10-18 13:47:49.978591
3200  2023-10-18 13:47:50.026469
3201  2023-10-18 13:47:50.073309
3202  2023-10-18 13:47:50.104271
3203  2023-10-18 13:47:50.152153
3204  2023-10-18 13:47:50.200001
3205  2023-10-18 13:47:50.231921
3206  2023-10-18 13:47:50.279827
3207  2023-10-18 13:47:50.311726
3208  2023-10-18 13:47:50.359608
3209  2023-10-18 13:47:50.407453
3210  2023-10-18 13:47:50.438498
3211  2023-10-18 13:47:50.486371
3212  2023-10-18 13:47:50.533377
3213  2023-10-18 13:47:50.565290
3214  2023-10-18 13:47:50.614115
3215  2023-10-18 13:47:50.646031
3216  2023-10-18 13:47:50.692940
3217  2023-10-18 13:47:50.740806
3218  2023-10-18 13:47:50.772732
3219  2023-10-18 13:47:50.820639
3220  2023-10-18 13:47:50.852555
3221  2023-10-18 13:47:50.900426
3222  2023-10-18 13:47:50.948299
3223  2023-10-18 13:47:50.981211
3224  2023-10-18 13:47:51.028085
3225  2023-10-18 13:47:51.074960
3226  2023-10-18 13:47:51.105909
3227  2023-10-18 13:47:51.152783
3228  2023-10-18 13:47:51.199745
3229  2023-10-18 13:47:51.232625
3230  2023-10-18 13:47:51.279532
3231  2023-10-18 13:47:51.310447
3232  2023-10-18 13:47:51.358325
3233  2023-10-18 13:47:51.405196
3234  2023-10-18 13:47:51.438113
3235  2023-10-18 13:47:51.484983
3236  2023-10-18 13:47:51.533820
3237  2023-10-18 13:47:51.564743
3238  2023-10-18 13:47:51.611612
3239  2023-10-18 13:47:51.643558
3240  2023-10-18 13:47:51.691425
3241  2023-10-18 13:47:51.740319
3242  2023-10-18 13:47:51.771218
3243  2023-10-18 13:47:51.819087
3244  2023-10-18 13:47:51.867928
3245  2023-10-18 13:47:51.898874
3246  2023-10-18 13:47:51.946741
3247  2023-10-18 13:47:51.979632
3248  2023-10-18 13:47:52.026535
3249  2023-10-18 13:47:52.074444
3250  2023-10-18 13:47:52.106353
3251  2023-10-18 13:47:52.155173
3252  2023-10-18 13:47:52.187118
3253  2023-10-18 13:47:52.233978
3254  2023-10-18 13:47:52.281849
3255  2023-10-18 13:47:52.313766
3256  2023-10-18 13:47:52.361853
3257  2023-10-18 13:47:52.394756
3258  2023-10-18 13:47:52.441641
3259  2023-10-18 13:47:52.489515
3260  2023-10-18 13:47:52.522465
3261  2023-10-18 13:47:52.569341
3262  2023-10-18 13:47:52.618219
3263  2023-10-18 13:47:52.650251
3264  2023-10-18 13:47:52.697091
3265  2023-10-18 13:47:52.727113
3266  2023-10-18 13:47:52.775107
3267  2023-10-18 13:47:52.823005
3268  2023-10-18 13:47:52.855919
3269  2023-10-18 13:47:52.902793
3270  2023-10-18 13:47:52.950665
3271  2023-10-18 13:47:52.981620
3272  2023-10-18 13:47:53.030490
3273  2023-10-18 13:47:53.061368
3274  2023-10-18 13:47:53.109279
3275  2023-10-18 13:47:53.157111
3276  2023-10-18 13:47:53.189058
3277  2023-10-18 13:47:53.236930
3278  2023-10-18 13:47:53.268845
3279  2023-10-18 13:47:53.316685
3280  2023-10-18 13:47:53.364581
3281  2023-10-18 13:47:53.396473
3282  2023-10-18 13:47:53.444369
3283  2023-10-18 13:47:53.491249
3284  2023-10-18 13:47:53.523171
3285  2023-10-18 13:47:53.571047
3286  2023-10-18 13:47:53.602955
3287  2023-10-18 13:47:53.650792
3288  2023-10-18 13:47:53.698664
3289  2023-10-18 13:47:53.730579
3290  2023-10-18 13:47:53.778475
3291  2023-10-18 13:47:53.810391
3292  2023-10-18 13:47:53.858282
3293  2023-10-18 13:47:53.906117
3294  2023-10-18 13:47:53.937059
3295  2023-10-18 13:47:53.983931
3296  2023-10-18 13:47:54.031806
3297  2023-10-18 13:47:54.063722
3298  2023-10-18 13:47:54.110594
3299  2023-10-18 13:47:54.159447
3300  2023-10-18 13:47:54.191398
3301  2023-10-18 13:47:54.238263
3302  2023-10-18 13:47:54.270153
3303  2023-10-18 13:47:54.318109
3304  2023-10-18 13:47:54.365971
3305  2023-10-18 13:47:54.397898
3306  2023-10-18 13:47:54.446751
3307  2023-10-18 13:47:54.491632
3308  2023-10-18 13:47:54.524514
3309  2023-10-18 13:47:54.570423
3310  2023-10-18 13:47:54.602347
3311  2023-10-18 13:47:54.650211
3312  2023-10-18 13:47:54.698086
3313  2023-10-18 13:47:54.729997
3314  2023-10-18 13:47:54.777864
3315  2023-10-18 13:47:54.824744
3316  2023-10-18 13:47:54.857624
3317  2023-10-18 13:47:54.906490
3318  2023-10-18 13:47:54.936455
3319  2023-10-18 13:47:54.985280
3320  2023-10-18 13:47:55.033189
3321  2023-10-18 13:47:55.065068
3322  2023-10-18 13:47:55.112975
3323  2023-10-18 13:47:55.160840
3324  2023-10-18 13:47:55.192755
3325  2023-10-18 13:47:55.238695
3326  2023-10-18 13:47:55.270622
3327  2023-10-18 13:47:55.318490
3328  2023-10-18 13:47:55.366349
3329  2023-10-18 13:47:55.398283
3330  2023-10-18 13:47:55.446180
3331  2023-10-18 13:47:55.478066
3332  2023-10-18 13:47:55.525896
3333  2023-10-18 13:47:55.573812
3334  2023-10-18 13:47:55.605716
3335  2023-10-18 13:47:55.654552
3336  2023-10-18 13:47:55.686469
3337  2023-10-18 13:47:55.734339
3338  2023-10-18 13:47:55.780254
3339  2023-10-18 13:47:55.812162
3340  2023-10-18 13:47:55.860003
3341  2023-10-18 13:47:55.906888
3342  2023-10-18 13:47:55.938831
3343  2023-10-18 13:47:55.986704
3344  2023-10-18 13:47:56.033577
3345  2023-10-18 13:47:56.066489
3346  2023-10-18 13:47:56.113465
3347  2023-10-18 13:47:56.145311
3348  2023-10-18 13:47:56.193176
3349  2023-10-18 13:47:56.241053
3350  2023-10-18 13:47:56.273044
3351  2023-10-18 13:47:56.321007
3352  2023-10-18 13:47:56.352936
3353  2023-10-18 13:47:56.400789
3354  2023-10-18 13:47:56.447676
3355  2023-10-18 13:47:56.479602
3356  2023-10-18 13:47:56.527459
3357  2023-10-18 13:47:56.575332
3358  2023-10-18 13:47:56.607242
3359  2023-10-18 13:47:56.654114
3360  2023-10-18 13:47:56.700010
3361  2023-10-18 13:47:56.732882
3362  2023-10-18 13:47:56.779795
3363  2023-10-18 13:47:56.812699
3364  2023-10-18 13:47:56.859570
3365  2023-10-18 13:47:56.906443
3366  2023-10-18 13:47:56.938353
3367  2023-10-18 13:47:56.986259
3368  2023-10-18 13:47:57.033099
3369  2023-10-18 13:47:57.065021
3370  2023-10-18 13:47:57.112893
3371  2023-10-18 13:47:57.144829
3372  2023-10-18 13:47:57.192647
3373  2023-10-18 13:47:57.240553
3374  2023-10-18 13:47:57.272474
3375  2023-10-18 13:47:57.320357
3376  2023-10-18 13:47:57.352282
3377  2023-10-18 13:47:57.400150
3378  2023-10-18 13:47:57.447981
3379  2023-10-18 13:47:57.479913
3380  2023-10-18 13:47:57.524797
3381  2023-10-18 13:47:57.572680
3382  2023-10-18 13:47:57.603589
3383  2023-10-18 13:47:57.650457
3384  2023-10-18 13:47:57.698297
3385  2023-10-18 13:47:57.728247
3386  2023-10-18 13:47:57.776086
3387  2023-10-18 13:47:57.824962
3388  2023-10-18 13:47:57.855909
3389  2023-10-18 13:47:57.903781
3390  2023-10-18 13:47:57.951648
3391  2023-10-18 13:47:57.982534
3392  2023-10-18 13:47:58.030438
3393  2023-10-18 13:47:58.063319
3394  2023-10-18 13:47:58.110243
3395  2023-10-18 13:47:58.159063
3396  2023-10-18 13:47:58.190994
3397  2023-10-18 13:47:58.237853
3398  2023-10-18 13:47:58.269801
3399  2023-10-18 13:47:58.317639
3400  2023-10-18 13:47:58.366509
3401  2023-10-18 13:47:58.398425
3402  2023-10-18 13:47:58.445297
3403  2023-10-18 13:47:58.477249
3404  2023-10-18 13:47:58.525086
3405  2023-10-18 13:47:58.572994
3406  2023-10-18 13:47:58.603922
3407  2023-10-18 13:47:58.651746
3408  2023-10-18 13:47:58.698652
3409  2023-10-18 13:47:58.730565
3410  2023-10-18 13:47:58.778460
3411  2023-10-18 13:47:58.810322
3412  2023-10-18 13:47:58.858195
3413  2023-10-18 13:47:58.905098
3414  2023-10-18 13:47:58.935967
3415  2023-10-18 13:47:58.983932
3416  2023-10-18 13:47:59.031806
3417  2023-10-18 13:47:59.063688
3418  2023-10-18 13:47:59.111597
3419  2023-10-18 13:47:59.143509
3420  2023-10-18 13:47:59.190383
3421  2023-10-18 13:47:59.239258
3422  2023-10-18 13:47:59.271134
3423  2023-10-18 13:47:59.319007
3424  2023-10-18 13:47:59.366918
3425  2023-10-18 13:47:59.398832
3426  2023-10-18 13:47:59.446665
3427  2023-10-18 13:47:59.479611
3428  2023-10-18 13:47:59.526452
3429  2023-10-18 13:47:59.573376
3430  2023-10-18 13:47:59.605287
3431  2023-10-18 13:47:59.653115
3432  2023-10-18 13:47:59.699999
3433  2023-10-18 13:47:59.731950
3434  2023-10-18 13:47:59.778776
3435  2023-10-18 13:47:59.810691
3436  2023-10-18 13:47:59.857565
3437  2023-10-18 13:47:59.906437
3438  2023-10-18 13:47:59.936330
3439  2023-10-18 13:47:59.984302
3440  2023-10-18 13:48:00.033139
3441  2023-10-18 13:48:00.063062
3442  2023-10-18 13:48:00.110060
3443  2023-10-18 13:48:00.158830
3444  2023-10-18 13:48:00.190746
3445  2023-10-18 13:48:00.237722
3446  2023-10-18 13:48:00.272596
3447  2023-10-18 13:48:00.317475
3448  2023-10-18 13:48:00.364404
3449  2023-10-18 13:48:00.396295
3450  2023-10-18 13:48:00.444196
3451  2023-10-18 13:48:00.492062
3452  2023-10-18 13:48:00.523953
3453  2023-10-18 13:48:00.571827
3454  2023-10-18 13:48:00.603782
3455  2023-10-18 13:48:00.651612
3456  2023-10-18 13:48:00.699495
3457  2023-10-18 13:48:00.730409
3458  2023-10-18 13:48:00.778283
3459  2023-10-18 13:48:00.810205
3460  2023-10-18 13:48:00.858035
3461  2023-10-18 13:48:00.904938
3462  2023-10-18 13:48:00.936844
3463  2023-10-18 13:48:00.984745
3464  2023-10-18 13:48:01.032595
3465  2023-10-18 13:48:01.064479
3466  2023-10-18 13:48:01.112389
3467  2023-10-18 13:48:01.144396
3468  2023-10-18 13:48:01.192164
3469  2023-10-18 13:48:01.240049
3470  2023-10-18 13:48:01.271963
3471  2023-10-18 13:48:01.319822
3472  2023-10-18 13:48:01.351743
3473  2023-10-18 13:48:01.399615
3474  2023-10-18 13:48:01.447528
3475  2023-10-18 13:48:01.479428
3476  2023-10-18 13:48:01.526294
3477  2023-10-18 13:48:01.574148
3478  2023-10-18 13:48:01.606031
3479  2023-10-18 13:48:01.654933
3480  2023-10-18 13:48:01.701846
3481  2023-10-18 13:48:01.729771
3482  2023-10-18 13:48:01.778642
3483  2023-10-18 13:48:01.826513
3484  2023-10-18 13:48:01.857462
3485  2023-10-18 13:48:01.905436
3486  2023-10-18 13:48:01.937302
3487  2023-10-18 13:48:01.983178
3488  2023-10-18 13:48:02.031228
3489  2023-10-18 13:48:02.064123
3490  2023-10-18 13:48:02.110996
3491  2023-10-18 13:48:02.158955
3492  2023-10-18 13:48:02.191870
3493  2023-10-18 13:48:02.238848
3494  2023-10-18 13:48:02.271810
3495  2023-10-18 13:48:02.318787
3496  2023-10-18 13:48:02.366678
3497  2023-10-18 13:48:02.398632
3498  2023-10-18 13:48:02.446501
3499  2023-10-18 13:48:02.478401
3500  2023-10-18 13:48:02.527236
3501  2023-10-18 13:48:02.574110
3502  2023-10-18 13:48:02.606059
3503  2023-10-18 13:48:02.653937
3504  2023-10-18 13:48:02.685837
3505  2023-10-18 13:48:02.733685
3506  2023-10-18 13:48:02.781597
3507  2023-10-18 13:48:02.813470
3508  2023-10-18 13:48:02.860371
3509  2023-10-18 13:48:02.908245
3510  2023-10-18 13:48:02.939161
3511  2023-10-18 13:48:02.987006
3512  2023-10-18 13:48:03.019920
3513  2023-10-18 13:48:03.066830
3514  2023-10-18 13:48:03.114704
3515  2023-10-18 13:48:03.146617
3516  2023-10-18 13:48:03.194610
3517  2023-10-18 13:48:03.241508
3518  2023-10-18 13:48:03.274390
3519  2023-10-18 13:48:03.321352
3520  2023-10-18 13:48:03.354279
3521  2023-10-18 13:48:03.401156
3522  2023-10-18 13:48:03.449980
3523  2023-10-18 13:48:03.480919
3524  2023-10-18 13:48:03.528767
3525  2023-10-18 13:48:03.560712
3526  2023-10-18 13:48:03.608591
3527  2023-10-18 13:48:03.659468
3528  2023-10-18 13:48:03.689339
3529  2023-10-18 13:48:03.736270
3530  2023-10-18 13:48:03.784086
3531  2023-10-18 13:48:03.816003
3532  2023-10-18 13:48:03.860909
3533  2023-10-18 13:48:03.909819
3534  2023-10-18 13:48:03.941665
3535  2023-10-18 13:48:03.988569
3536  2023-10-18 13:48:04.020489
3537  2023-10-18 13:48:04.069337
3538  2023-10-18 13:48:04.117229
3539  2023-10-18 13:48:04.149145
3540  2023-10-18 13:48:04.197048
3541  2023-10-18 13:48:04.228939
3542  2023-10-18 13:48:04.277795
3543  2023-10-18 13:48:04.324640
3544  2023-10-18 13:48:04.356555
3545  2023-10-18 13:48:04.405456
3546  2023-10-18 13:48:04.437369
3547  2023-10-18 13:48:04.485264
3548  2023-10-18 13:48:04.531124
3549  2023-10-18 13:48:04.562054
3550  2023-10-18 13:48:04.609876
3551  2023-10-18 13:48:04.656777
3552  2023-10-18 13:48:04.688698
3553  2023-10-18 13:48:04.736538
3554  2023-10-18 13:48:04.769452
3555  2023-10-18 13:48:04.816349
3556  2023-10-18 13:48:04.863243
3557  2023-10-18 13:48:04.896147
3558  2023-10-18 13:48:04.942023
3559  2023-10-18 13:48:04.990877
3560  2023-10-18 13:48:05.022775
3561  2023-10-18 13:48:05.069786
