
1  2023-10-27 14:36:13.081529
2  2023-10-27 14:36:13.113442
3  2023-10-27 14:36:13.145461
4  2023-10-27 14:36:13.177344
5  2023-10-27 14:36:13.209301
6  2023-10-27 14:36:13.241314
7  2023-10-27 14:36:13.273226
8  2023-10-27 14:36:13.305105
9  2023-10-27 14:36:13.338039
10  2023-10-27 14:36:13.369959
11  2023-10-27 14:36:13.401843
12  2023-10-27 14:36:13.433793
13  2023-10-27 14:36:13.481630
14  2023-10-27 14:36:13.513544
15  2023-10-27 14:36:13.545459
16  2023-10-27 14:36:13.577421
17  2023-10-27 14:36:13.609429
18  2023-10-27 14:36:13.641349
19  2023-10-27 14:36:13.673257
20  2023-10-27 14:36:13.705173
21  2023-10-27 14:36:13.737216
22  2023-10-27 14:36:13.770177
23  2023-10-27 14:36:13.802165
24  2023-10-27 14:36:13.833249
25  2023-10-27 14:36:13.881078
26  2023-10-27 14:36:13.913990
27  2023-10-27 14:36:13.945906
28  2023-10-27 14:36:13.977820
29  2023-10-27 14:36:14.009574
30  2023-10-27 14:36:14.041521
31  2023-10-27 14:36:14.073404
32  2023-10-27 14:36:14.105318
33  2023-10-27 14:36:14.137234
34  2023-10-27 14:36:14.169147
35  2023-10-27 14:36:14.202059
36  2023-10-27 14:36:14.234039
37  2023-10-27 14:36:14.280991
38  2023-10-27 14:36:14.313878
39  2023-10-27 14:36:14.345793
40  2023-10-27 14:36:14.377746
41  2023-10-27 14:36:14.409684
42  2023-10-27 14:36:14.441610
43  2023-10-27 14:36:14.473567
44  2023-10-27 14:36:14.505470
45  2023-10-27 14:36:14.537391
46  2023-10-27 14:36:14.569300
47  2023-10-27 14:36:14.601183
48  2023-10-27 14:36:14.633169
49  2023-10-27 14:36:14.680970
50  2023-10-27 14:36:14.713935
51  2023-10-27 14:36:14.745873
52  2023-10-27 14:36:14.777788
53  2023-10-27 14:36:14.809733
54  2023-10-27 14:36:14.841617
55  2023-10-27 14:36:14.873563
56  2023-10-27 14:36:14.905480
57  2023-10-27 14:36:14.937361
58  2023-10-27 14:36:14.969325
59  2023-10-27 14:36:15.001191
60  2023-10-27 14:36:15.034134
61  2023-10-27 14:36:15.082036
62  2023-10-27 14:36:15.113951
63  2023-10-27 14:36:15.145866
64  2023-10-27 14:36:15.177782
65  2023-10-27 14:36:15.209695
66  2023-10-27 14:36:15.241639
67  2023-10-27 14:36:15.273554
68  2023-10-27 14:36:15.305475
69  2023-10-27 14:36:15.337388
70  2023-10-27 14:36:15.369318
71  2023-10-27 14:36:15.401215
72  2023-10-27 14:36:15.449091
73  2023-10-27 14:36:15.481143
74  2023-10-27 14:36:15.513051
75  2023-10-27 14:36:15.545966
76  2023-10-27 14:36:15.577883
77  2023-10-27 14:36:15.609787
78  2023-10-27 14:36:15.641671
79  2023-10-27 14:36:15.673625
80  2023-10-27 14:36:15.705532
81  2023-10-27 14:36:15.737452
82  2023-10-27 14:36:15.769363
83  2023-10-27 14:36:15.801298
84  2023-10-27 14:36:15.849116
85  2023-10-27 14:36:15.881031
86  2023-10-27 14:36:15.913943
87  2023-10-27 14:36:15.945889
88  2023-10-27 14:36:15.977772
89  2023-10-27 14:36:16.009687
90  2023-10-27 14:36:16.041602
91  2023-10-27 14:36:16.073516
92  2023-10-27 14:36:16.105462
93  2023-10-27 14:36:16.138345
94  2023-10-27 14:36:16.169299
95  2023-10-27 14:36:16.201211
96  2023-10-27 14:36:16.249083
97  2023-10-27 14:36:16.280975
98  2023-10-27 14:36:16.313876
99  2023-10-27 14:36:16.345798
100  2023-10-27 14:36:16.377705
101  2023-10-27 14:36:16.409618
102  2023-10-27 14:36:16.441565
103  2023-10-27 14:36:16.473485
104  2023-10-27 14:36:16.505398
105  2023-10-27 14:36:16.537322
106  2023-10-27 14:36:16.569244
107  2023-10-27 14:36:16.601163
108  2023-10-27 14:36:16.649031
109  2023-10-27 14:36:16.681054
110  2023-10-27 14:36:16.713963
111  2023-10-27 14:36:16.745878
112  2023-10-27 14:36:16.777866
113  2023-10-27 14:36:16.809754
114  2023-10-27 14:36:16.841669
115  2023-10-27 14:36:16.873584
116  2023-10-27 14:36:16.905499
117  2023-10-27 14:36:16.937414
118  2023-10-27 14:36:16.969329
119  2023-10-27 14:36:17.002241
120  2023-10-27 14:36:17.050155
121  2023-10-27 14:36:17.081191
122  2023-10-27 14:36:17.113062
123  2023-10-27 14:36:17.146010
124  2023-10-27 14:36:17.177892
125  2023-10-27 14:36:17.209804
126  2023-10-27 14:36:17.241725
127  2023-10-27 14:36:17.273634
128  2023-10-27 14:36:17.305639
129  2023-10-27 14:36:17.337581
130  2023-10-27 14:36:17.369510
131  2023-10-27 14:36:17.401424
132  2023-10-27 14:36:17.449304
133  2023-10-27 14:36:17.481305
134  2023-10-27 14:36:17.513218
135  2023-10-27 14:36:17.545096
136  2023-10-27 14:36:17.577010
137  2023-10-27 14:36:17.609953
138  2023-10-27 14:36:17.641883
139  2023-10-27 14:36:17.673788
140  2023-10-27 14:36:17.705697
141  2023-10-27 14:36:17.737621
142  2023-10-27 14:36:17.769540
143  2023-10-27 14:36:17.801455
144  2023-10-27 14:36:17.849338
145  2023-10-27 14:36:17.881269
146  2023-10-27 14:36:17.913841
147  2023-10-27 14:36:17.945830
148  2023-10-27 14:36:17.977752
149  2023-10-27 14:36:18.009666
150  2023-10-27 14:36:18.041547
151  2023-10-27 14:36:18.073486
152  2023-10-27 14:36:18.105425
153  2023-10-27 14:36:18.137343
154  2023-10-27 14:36:18.170258
155  2023-10-27 14:36:18.201154
156  2023-10-27 14:36:18.249026
157  2023-10-27 14:36:18.281906
158  2023-10-27 14:36:18.313863
159  2023-10-27 14:36:18.345767
160  2023-10-27 14:36:18.377683
161  2023-10-27 14:36:18.409570
162  2023-10-27 14:36:18.441564
163  2023-10-27 14:36:18.473435
164  2023-10-27 14:36:18.505444
165  2023-10-27 14:36:18.537347
166  2023-10-27 14:36:18.569277
167  2023-10-27 14:36:18.609120
168  2023-10-27 14:36:18.649015
169  2023-10-27 14:36:18.681967
170  2023-10-27 14:36:18.713876
171  2023-10-27 14:36:18.745790
172  2023-10-27 14:36:18.777701
173  2023-10-27 14:36:18.809583
174  2023-10-27 14:36:18.841529
175  2023-10-27 14:36:18.873445
176  2023-10-27 14:36:18.905358
177  2023-10-27 14:36:18.937277
178  2023-10-27 14:36:18.969197
179  2023-10-27 14:36:19.001103
180  2023-10-27 14:36:19.049977
181  2023-10-27 14:36:19.081886
182  2023-10-27 14:36:19.113803
183  2023-10-27 14:36:19.145718
184  2023-10-27 14:36:19.177632
185  2023-10-27 14:36:19.209517
186  2023-10-27 14:36:19.241477
187  2023-10-27 14:36:19.273375
188  2023-10-27 14:36:19.305315
189  2023-10-27 14:36:19.337207
190  2023-10-27 14:36:19.369128
191  2023-10-27 14:36:19.417957
192  2023-10-27 14:36:19.449874
193  2023-10-27 14:36:19.481788
194  2023-10-27 14:36:19.513702
195  2023-10-27 14:36:19.545616
196  2023-10-27 14:36:19.577530
197  2023-10-27 14:36:19.609445
198  2023-10-27 14:36:19.641399
199  2023-10-27 14:36:19.673316
200  2023-10-27 14:36:19.705228
201  2023-10-27 14:36:19.737134
202  2023-10-27 14:36:19.769021
203  2023-10-27 14:36:19.817922
204  2023-10-27 14:36:19.849840
205  2023-10-27 14:36:19.881717
206  2023-10-27 14:36:19.913663
207  2023-10-27 14:36:19.945572
208  2023-10-27 14:36:19.977486
209  2023-10-27 14:36:20.009445
210  2023-10-27 14:36:20.041338
211  2023-10-27 14:36:20.073241
212  2023-10-27 14:36:20.105269
213  2023-10-27 14:36:20.137240
214  2023-10-27 14:36:20.169114
215  2023-10-27 14:36:20.217085
216  2023-10-27 14:36:20.250030
217  2023-10-27 14:36:20.281943
218  2023-10-27 14:36:20.313855
219  2023-10-27 14:36:20.345824
220  2023-10-27 14:36:20.377775
221  2023-10-27 14:36:20.409652
222  2023-10-27 14:36:20.441615
223  2023-10-27 14:36:20.473527
224  2023-10-27 14:36:20.505440
225  2023-10-27 14:36:20.537387
226  2023-10-27 14:36:20.569191
227  2023-10-27 14:36:20.617080
228  2023-10-27 14:36:20.649959
229  2023-10-27 14:36:20.681858
230  2023-10-27 14:36:20.713829
231  2023-10-27 14:36:20.745724
232  2023-10-27 14:36:20.777604
233  2023-10-27 14:36:20.809517
234  2023-10-27 14:36:20.841479
235  2023-10-27 14:36:20.873479
236  2023-10-27 14:36:20.905512
237  2023-10-27 14:36:20.937395
238  2023-10-27 14:36:20.969429
239  2023-10-27 14:36:21.017301
240  2023-10-27 14:36:21.049214
241  2023-10-27 14:36:21.081132
242  2023-10-27 14:36:21.114069
243  2023-10-27 14:36:21.144989
244  2023-10-27 14:36:21.177838
245  2023-10-27 14:36:21.209873
246  2023-10-27 14:36:21.241833
247  2023-10-27 14:36:21.273711
248  2023-10-27 14:36:21.305671
249  2023-10-27 14:36:21.337623
250  2023-10-27 14:36:21.369570
251  2023-10-27 14:36:21.417529
252  2023-10-27 14:36:21.448969
253  2023-10-27 14:36:21.480997
254  2023-10-27 14:36:21.513903
255  2023-10-27 14:36:21.545895
256  2023-10-27 14:36:21.577851
257  2023-10-27 14:36:21.609725
258  2023-10-27 14:36:21.641720
259  2023-10-27 14:36:21.673637
260  2023-10-27 14:36:21.705518
261  2023-10-27 14:36:21.737475
262  2023-10-27 14:36:21.769509
263  2023-10-27 14:36:21.817374
264  2023-10-27 14:36:21.849304
265  2023-10-27 14:36:21.881343
266  2023-10-27 14:36:21.913333
267  2023-10-27 14:36:21.945237
268  2023-10-27 14:36:21.977241
269  2023-10-27 14:36:22.010153
270  2023-10-27 14:36:22.041228
271  2023-10-27 14:36:22.073134
272  2023-10-27 14:36:22.106078
273  2023-10-27 14:36:22.137993
274  2023-10-27 14:36:22.169942
275  2023-10-27 14:36:22.217809
276  2023-10-27 14:36:22.249728
277  2023-10-27 14:36:22.281646
278  2023-10-27 14:36:22.313563
279  2023-10-27 14:36:22.345602
280  2023-10-27 14:36:22.377479
281  2023-10-27 14:36:22.409436
282  2023-10-27 14:36:22.441350
283  2023-10-27 14:36:22.473266
284  2023-10-27 14:36:22.505174
285  2023-10-27 14:36:22.537087
286  2023-10-27 14:36:22.569998
287  2023-10-27 14:36:22.617871
288  2023-10-27 14:36:22.649757
289  2023-10-27 14:36:22.681854
290  2023-10-27 14:36:22.713775
291  2023-10-27 14:36:22.745651
292  2023-10-27 14:36:22.777598
293  2023-10-27 14:36:22.809516
294  2023-10-27 14:36:22.841429
295  2023-10-27 14:36:22.873352
296  2023-10-27 14:36:22.905274
297  2023-10-27 14:36:22.937175
298  2023-10-27 14:36:22.985013
299  2023-10-27 14:36:23.017972
300  2023-10-27 14:36:23.049921
301  2023-10-27 14:36:23.081923
302  2023-10-27 14:36:23.113836
303  2023-10-27 14:36:23.145828
304  2023-10-27 14:36:23.177746
305  2023-10-27 14:36:23.209705
306  2023-10-27 14:36:23.241628
307  2023-10-27 14:36:23.273501
308  2023-10-27 14:36:23.305416
309  2023-10-27 14:36:23.337478
310  2023-10-27 14:36:23.385334
311  2023-10-27 14:36:23.417342
312  2023-10-27 14:36:23.449242
313  2023-10-27 14:36:23.481157
314  2023-10-27 14:36:23.513085
315  2023-10-27 14:36:23.545951
316  2023-10-27 14:36:23.577874
317  2023-10-27 14:36:23.609667
318  2023-10-27 14:36:23.641668
319  2023-10-27 14:36:23.673542
320  2023-10-27 14:36:23.705499
321  2023-10-27 14:36:23.737437
322  2023-10-27 14:36:23.785458
323  2023-10-27 14:36:23.817351
324  2023-10-27 14:36:23.849289
325  2023-10-27 14:36:23.881142
326  2023-10-27 14:36:23.913090
327  2023-10-27 14:36:23.945005
328  2023-10-27 14:36:23.977887
329  2023-10-27 14:36:24.009807
330  2023-10-27 14:36:24.041862
331  2023-10-27 14:36:24.073863
332  2023-10-27 14:36:24.105766
333  2023-10-27 14:36:24.137676
334  2023-10-27 14:36:24.185555
335  2023-10-27 14:36:24.217473
336  2023-10-27 14:36:24.249388
337  2023-10-27 14:36:24.281302
338  2023-10-27 14:36:24.313259
339  2023-10-27 14:36:24.345215
340  2023-10-27 14:36:24.377081
341  2023-10-27 14:36:24.408996
342  2023-10-27 14:36:24.441908
343  2023-10-27 14:36:24.473876
344  2023-10-27 14:36:24.505772
345  2023-10-27 14:36:24.537686
346  2023-10-27 14:36:24.585524
347  2023-10-27 14:36:24.617439
348  2023-10-27 14:36:24.649403
349  2023-10-27 14:36:24.681313
350  2023-10-27 14:36:24.713214
351  2023-10-27 14:36:24.745147
352  2023-10-27 14:36:24.777048
353  2023-10-27 14:36:24.808962
354  2023-10-27 14:36:24.841839
355  2023-10-27 14:36:24.873791
356  2023-10-27 14:36:24.905737
357  2023-10-27 14:36:24.937652
358  2023-10-27 14:36:24.985562
359  2023-10-27 14:36:25.017476
360  2023-10-27 14:36:25.049391
361  2023-10-27 14:36:25.081347
362  2023-10-27 14:36:25.113253
363  2023-10-27 14:36:25.145181
364  2023-10-27 14:36:25.177050
365  2023-10-27 14:36:25.208964
366  2023-10-27 14:36:25.241876
367  2023-10-27 14:36:25.273826
368  2023-10-27 14:36:25.305737
369  2023-10-27 14:36:25.337656
370  2023-10-27 14:36:25.385619
371  2023-10-27 14:36:25.417534
372  2023-10-27 14:36:25.449449
373  2023-10-27 14:36:25.481363
374  2023-10-27 14:36:25.513278
375  2023-10-27 14:36:25.545193
376  2023-10-27 14:36:25.578105
377  2023-10-27 14:36:25.609028
378  2023-10-27 14:36:25.641934
379  2023-10-27 14:36:25.673887
380  2023-10-27 14:36:25.705764
381  2023-10-27 14:36:25.737721
382  2023-10-27 14:36:25.785550
383  2023-10-27 14:36:25.817465
384  2023-10-27 14:36:25.849380
385  2023-10-27 14:36:25.881294
386  2023-10-27 14:36:25.913209
387  2023-10-27 14:36:25.945124
388  2023-10-27 14:36:25.978211
389  2023-10-27 14:36:26.009197
390  2023-10-27 14:36:26.041112
391  2023-10-27 14:36:26.073064
392  2023-10-27 14:36:26.105998
393  2023-10-27 14:36:26.137901
394  2023-10-27 14:36:26.185725
395  2023-10-27 14:36:26.217640
396  2023-10-27 14:36:26.249555
397  2023-10-27 14:36:26.281470
398  2023-10-27 14:36:26.313384
399  2023-10-27 14:36:26.345299
400  2023-10-27 14:36:26.377213
401  2023-10-27 14:36:26.409134
402  2023-10-27 14:36:26.441043
403  2023-10-27 14:36:26.472996
404  2023-10-27 14:36:26.505903
405  2023-10-27 14:36:26.537831
406  2023-10-27 14:36:26.585656
407  2023-10-27 14:36:26.617571
408  2023-10-27 14:36:26.649493
409  2023-10-27 14:36:26.681401
410  2023-10-27 14:36:26.713315
411  2023-10-27 14:36:26.745230
412  2023-10-27 14:36:26.777144
413  2023-10-27 14:36:26.810057
414  2023-10-27 14:36:26.840973
415  2023-10-27 14:36:26.873919
416  2023-10-27 14:36:26.905901
417  2023-10-27 14:36:26.953812
418  2023-10-27 14:36:26.985749
419  2023-10-27 14:36:27.017673
420  2023-10-27 14:36:27.049557
421  2023-10-27 14:36:27.081471
422  2023-10-27 14:36:27.113386
423  2023-10-27 14:36:27.145333
424  2023-10-27 14:36:27.177215
425  2023-10-27 14:36:27.209130
426  2023-10-27 14:36:27.241045
427  2023-10-27 14:36:27.273993
428  2023-10-27 14:36:27.305907
429  2023-10-27 14:36:27.353743
430  2023-10-27 14:36:27.385658
431  2023-10-27 14:36:27.417583
432  2023-10-27 14:36:27.449487
433  2023-10-27 14:36:27.481402
434  2023-10-27 14:36:27.513317
435  2023-10-27 14:36:27.545231
436  2023-10-27 14:36:27.577146
437  2023-10-27 14:36:27.609061
438  2023-10-27 14:36:27.640975
439  2023-10-27 14:36:27.673933
440  2023-10-27 14:36:27.705845
441  2023-10-27 14:36:27.753674
442  2023-10-27 14:36:27.785589
443  2023-10-27 14:36:27.817504
444  2023-10-27 14:36:27.849418
445  2023-10-27 14:36:27.881333
446  2023-10-27 14:36:27.913247
447  2023-10-27 14:36:27.945162
448  2023-10-27 14:36:27.977121
449  2023-10-27 14:36:28.009990
450  2023-10-27 14:36:28.041904
451  2023-10-27 14:36:28.073855
452  2023-10-27 14:36:28.105736
453  2023-10-27 14:36:28.153605
454  2023-10-27 14:36:28.185576
455  2023-10-27 14:36:28.217434
456  2023-10-27 14:36:28.249349
457  2023-10-27 14:36:28.281263
458  2023-10-27 14:36:28.313217
459  2023-10-27 14:36:28.345093
460  2023-10-27 14:36:28.377008
461  2023-10-27 14:36:28.409920
462  2023-10-27 14:36:28.441875
463  2023-10-27 14:36:28.473860
464  2023-10-27 14:36:28.505741
465  2023-10-27 14:36:28.553726
466  2023-10-27 14:36:28.585727
467  2023-10-27 14:36:28.617687
468  2023-10-27 14:36:28.649602
469  2023-10-27 14:36:28.681621
470  2023-10-27 14:36:28.713542
471  2023-10-27 14:36:28.745457
472  2023-10-27 14:36:28.777503
473  2023-10-27 14:36:28.810463
474  2023-10-27 14:36:28.841350
475  2023-10-27 14:36:28.873295
476  2023-10-27 14:36:28.905226
477  2023-10-27 14:36:28.953052
478  2023-10-27 14:36:28.985880
479  2023-10-27 14:36:29.017794
480  2023-10-27 14:36:29.049671
481  2023-10-27 14:36:29.081586
482  2023-10-27 14:36:29.113534
483  2023-10-27 14:36:29.145415
484  2023-10-27 14:36:29.177329
485  2023-10-27 14:36:29.209244
486  2023-10-27 14:36:29.241159
487  2023-10-27 14:36:29.273116
488  2023-10-27 14:36:29.305029
489  2023-10-27 14:36:29.353935
490  2023-10-27 14:36:29.385850
491  2023-10-27 14:36:29.417765
492  2023-10-27 14:36:29.449679
493  2023-10-27 14:36:29.481746
494  2023-10-27 14:36:29.513665
495  2023-10-27 14:36:29.545579
496  2023-10-27 14:36:29.577494
497  2023-10-27 14:36:29.609409
498  2023-10-27 14:36:29.642321
499  2023-10-27 14:36:29.673271
500  2023-10-27 14:36:29.705186
501  2023-10-27 14:36:29.753025
502  2023-10-27 14:36:29.784939
503  2023-10-27 14:36:29.817886
504  2023-10-27 14:36:29.849799
505  2023-10-27 14:36:29.881681
506  2023-10-27 14:36:29.913595
507  2023-10-27 14:36:29.945542
508  2023-10-27 14:36:29.977467
509  2023-10-27 14:36:30.009340
510  2023-10-27 14:36:30.041254
511  2023-10-27 14:36:30.073201
512  2023-10-27 14:36:30.105130
513  2023-10-27 14:36:30.152990
514  2023-10-27 14:36:30.185910
515  2023-10-27 14:36:30.217782
516  2023-10-27 14:36:30.249731
517  2023-10-27 14:36:30.281612
518  2023-10-27 14:36:30.313565
519  2023-10-27 14:36:30.345441
520  2023-10-27 14:36:30.377356
521  2023-10-27 14:36:30.409270
522  2023-10-27 14:36:30.441220
523  2023-10-27 14:36:30.473131
524  2023-10-27 14:36:30.505054
525  2023-10-27 14:36:30.553897
526  2023-10-27 14:36:30.585798
527  2023-10-27 14:36:30.617713
528  2023-10-27 14:36:30.649628
529  2023-10-27 14:36:30.681543
530  2023-10-27 14:36:30.713457
531  2023-10-27 14:36:30.745372
532  2023-10-27 14:36:30.777286
533  2023-10-27 14:36:30.809201
534  2023-10-27 14:36:30.842113
535  2023-10-27 14:36:30.873073
536  2023-10-27 14:36:30.921900
537  2023-10-27 14:36:30.953814
538  2023-10-27 14:36:30.985729
539  2023-10-27 14:36:31.017676
540  2023-10-27 14:36:31.049559
541  2023-10-27 14:36:31.081473
542  2023-10-27 14:36:31.113388
543  2023-10-27 14:36:31.145350
544  2023-10-27 14:36:31.177249
545  2023-10-27 14:36:31.209132
546  2023-10-27 14:36:31.241047
547  2023-10-27 14:36:31.273002
548  2023-10-27 14:36:31.321831
549  2023-10-27 14:36:31.353780
550  2023-10-27 14:36:31.385660
551  2023-10-27 14:36:31.417575
552  2023-10-27 14:36:31.449489
553  2023-10-27 14:36:31.481404
554  2023-10-27 14:36:31.513319
555  2023-10-27 14:36:31.545234
556  2023-10-27 14:36:31.577148
557  2023-10-27 14:36:31.609063
558  2023-10-27 14:36:31.640977
559  2023-10-27 14:36:31.673928
560  2023-10-27 14:36:31.721761
561  2023-10-27 14:36:31.753676
562  2023-10-27 14:36:31.785591
563  2023-10-27 14:36:31.817505
564  2023-10-27 14:36:31.849511
565  2023-10-27 14:36:31.881559
566  2023-10-27 14:36:31.913473
567  2023-10-27 14:36:31.945388
568  2023-10-27 14:36:31.978312
569  2023-10-27 14:36:32.010215
570  2023-10-27 14:36:32.042129
571  2023-10-27 14:36:32.073101
572  2023-10-27 14:36:32.122068
573  2023-10-27 14:36:32.152984
574  2023-10-27 14:36:32.185928
575  2023-10-27 14:36:32.217811
576  2023-10-27 14:36:32.249725
577  2023-10-27 14:36:32.281640
578  2023-10-27 14:36:32.313591
579  2023-10-27 14:36:32.345507
580  2023-10-27 14:36:32.377418
581  2023-10-27 14:36:32.409299
582  2023-10-27 14:36:32.441244
583  2023-10-27 14:36:32.473162
584  2023-10-27 14:36:32.521034
585  2023-10-27 14:36:32.552915
586  2023-10-27 14:36:32.585827
587  2023-10-27 14:36:32.617741
588  2023-10-27 14:36:32.649656
589  2023-10-27 14:36:32.681571
590  2023-10-27 14:36:32.713485
591  2023-10-27 14:36:32.745443
592  2023-10-27 14:36:32.777315
593  2023-10-27 14:36:32.809229
594  2023-10-27 14:36:32.842142
595  2023-10-27 14:36:32.873095
596  2023-10-27 14:36:32.921928
597  2023-10-27 14:36:32.953843
598  2023-10-27 14:36:32.985758
599  2023-10-27 14:36:33.017652
600  2023-10-27 14:36:33.049583
601  2023-10-27 14:36:33.081498
602  2023-10-27 14:36:33.113412
603  2023-10-27 14:36:33.146325
604  2023-10-27 14:36:33.178241
605  2023-10-27 14:36:33.209156
606  2023-10-27 14:36:33.241071
607  2023-10-27 14:36:33.273018
608  2023-10-27 14:36:33.321855
609  2023-10-27 14:36:33.353770
610  2023-10-27 14:36:33.385685
611  2023-10-27 14:36:33.417599
612  2023-10-27 14:36:33.449514
613  2023-10-27 14:36:33.481428
614  2023-10-27 14:36:33.513378
615  2023-10-27 14:36:33.545258
616  2023-10-27 14:36:33.577172
617  2023-10-27 14:36:33.609087
618  2023-10-27 14:36:33.642017
619  2023-10-27 14:36:33.673963
620  2023-10-27 14:36:33.721932
621  2023-10-27 14:36:33.753815
622  2023-10-27 14:36:33.785730
623  2023-10-27 14:36:33.817676
624  2023-10-27 14:36:33.849648
625  2023-10-27 14:36:33.881557
626  2023-10-27 14:36:33.913474
627  2023-10-27 14:36:33.945383
628  2023-10-27 14:36:33.977332
629  2023-10-27 14:36:34.009212
630  2023-10-27 14:36:34.041127
631  2023-10-27 14:36:34.073077
632  2023-10-27 14:36:34.121005
633  2023-10-27 14:36:34.153917
634  2023-10-27 14:36:34.185866
635  2023-10-27 14:36:34.217747
636  2023-10-27 14:36:34.249661
637  2023-10-27 14:36:34.281685
638  2023-10-27 14:36:34.313585
639  2023-10-27 14:36:34.345534
640  2023-10-27 14:36:34.377449
641  2023-10-27 14:36:34.409363
642  2023-10-27 14:36:34.441278
643  2023-10-27 14:36:34.489150
644  2023-10-27 14:36:34.521065
645  2023-10-27 14:36:34.552979
646  2023-10-27 14:36:34.585891
647  2023-10-27 14:36:34.617806
648  2023-10-27 14:36:34.649721
649  2023-10-27 14:36:34.681635
650  2023-10-27 14:36:34.713550
651  2023-10-27 14:36:34.745524
652  2023-10-27 14:36:34.777465
653  2023-10-27 14:36:34.809405
654  2023-10-27 14:36:34.842319
655  2023-10-27 14:36:34.890190
656  2023-10-27 14:36:34.921106
657  2023-10-27 14:36:34.953021
658  2023-10-27 14:36:34.986005
659  2023-10-27 14:36:35.017921
660  2023-10-27 14:36:35.049835
661  2023-10-27 14:36:35.081749
662  2023-10-27 14:36:35.113664
663  2023-10-27 14:36:35.145633
664  2023-10-27 14:36:35.177576
665  2023-10-27 14:36:35.209503
666  2023-10-27 14:36:35.241434
667  2023-10-27 14:36:35.289290
668  2023-10-27 14:36:35.321205
669  2023-10-27 14:36:35.353155
670  2023-10-27 14:36:35.386032
671  2023-10-27 14:36:35.417147
672  2023-10-27 14:36:35.449079
673  2023-10-27 14:36:35.481992
674  2023-10-27 14:36:35.512994
675  2023-10-27 14:36:35.545950
676  2023-10-27 14:36:35.577864
677  2023-10-27 14:36:35.609779
678  2023-10-27 14:36:35.641694
679  2023-10-27 14:36:35.689566
680  2023-10-27 14:36:35.721480
681  2023-10-27 14:36:35.753395
682  2023-10-27 14:36:35.785350
683  2023-10-27 14:36:35.817280
684  2023-10-27 14:36:35.849208
685  2023-10-27 14:36:35.882121
686  2023-10-27 14:36:35.914035
687  2023-10-27 14:36:35.945950
688  2023-10-27 14:36:35.977864
689  2023-10-27 14:36:36.009815
690  2023-10-27 14:36:36.041694
691  2023-10-27 14:36:36.089566
692  2023-10-27 14:36:36.121480
693  2023-10-27 14:36:36.153395
694  2023-10-27 14:36:36.185311
695  2023-10-27 14:36:36.217224
696  2023-10-27 14:36:36.249139
697  2023-10-27 14:36:36.282051
698  2023-10-27 14:36:36.313001
699  2023-10-27 14:36:36.345880
700  2023-10-27 14:36:36.377795
701  2023-10-27 14:36:36.409710
702  2023-10-27 14:36:36.441689
703  2023-10-27 14:36:36.489606
704  2023-10-27 14:36:36.521564
705  2023-10-27 14:36:36.553759
706  2023-10-27 14:36:36.585714
707  2023-10-27 14:36:36.617628
708  2023-10-27 14:36:36.649575
709  2023-10-27 14:36:36.681517
710  2023-10-27 14:36:36.713474
711  2023-10-27 14:36:36.745387
712  2023-10-27 14:36:36.777302
713  2023-10-27 14:36:36.809216
714  2023-10-27 14:36:36.841131
715  2023-10-27 14:36:36.889036
716  2023-10-27 14:36:36.921915
717  2023-10-27 14:36:36.953830
718  2023-10-27 14:36:36.985744
719  2023-10-27 14:36:37.017659
720  2023-10-27 14:36:37.049653
721  2023-10-27 14:36:37.081595
722  2023-10-27 14:36:37.113535
723  2023-10-27 14:36:37.145481
724  2023-10-27 14:36:37.177395
725  2023-10-27 14:36:37.209310
726  2023-10-27 14:36:37.241225
727  2023-10-27 14:36:37.289097
728  2023-10-27 14:36:37.322009
729  2023-10-27 14:36:37.353974
730  2023-10-27 14:36:37.385872
731  2023-10-27 14:36:37.417753
732  2023-10-27 14:36:37.449739
733  2023-10-27 14:36:37.481673
734  2023-10-27 14:36:37.513623
735  2023-10-27 14:36:37.545501
736  2023-10-27 14:36:37.577416
737  2023-10-27 14:36:37.609331
738  2023-10-27 14:36:37.641286
739  2023-10-27 14:36:37.689117
740  2023-10-27 14:36:37.721076
741  2023-10-27 14:36:37.753945
742  2023-10-27 14:36:37.785859
743  2023-10-27 14:36:37.817807
744  2023-10-27 14:36:37.849720
745  2023-10-27 14:36:37.881663
746  2023-10-27 14:36:37.913589
747  2023-10-27 14:36:37.945462
748  2023-10-27 14:36:37.977377
749  2023-10-27 14:36:38.009331
750  2023-10-27 14:36:38.041245
751  2023-10-27 14:36:38.089117
752  2023-10-27 14:36:38.121032
753  2023-10-27 14:36:38.152979
754  2023-10-27 14:36:38.185928
755  2023-10-27 14:36:38.217882
756  2023-10-27 14:36:38.249796
757  2023-10-27 14:36:38.281711
758  2023-10-27 14:36:38.313626
759  2023-10-27 14:36:38.345540
760  2023-10-27 14:36:38.377455
761  2023-10-27 14:36:38.409370
762  2023-10-27 14:36:38.457242
763  2023-10-27 14:36:38.489156
764  2023-10-27 14:36:38.521071
765  2023-10-27 14:36:38.552986
766  2023-10-27 14:36:38.585898
767  2023-10-27 14:36:38.617813
768  2023-10-27 14:36:38.649727
769  2023-10-27 14:36:38.681684
770  2023-10-27 14:36:38.713599
771  2023-10-27 14:36:38.745514
772  2023-10-27 14:36:38.777431
773  2023-10-27 14:36:38.809343
774  2023-10-27 14:36:38.857215
775  2023-10-27 14:36:38.890129
776  2023-10-27 14:36:38.921046
777  2023-10-27 14:36:38.953958
778  2023-10-27 14:36:38.985872
779  2023-10-27 14:36:39.017847
780  2023-10-27 14:36:39.049860
781  2023-10-27 14:36:39.081796
782  2023-10-27 14:36:39.113711
783  2023-10-27 14:36:39.145717
784  2023-10-27 14:36:39.177734
785  2023-10-27 14:36:39.209615
786  2023-10-27 14:36:39.257487
787  2023-10-27 14:36:39.289402
788  2023-10-27 14:36:39.321317
789  2023-10-27 14:36:39.353265
790  2023-10-27 14:36:39.385282
791  2023-10-27 14:36:39.417193
792  2023-10-27 14:36:39.449149
793  2023-10-27 14:36:39.482074
794  2023-10-27 14:36:39.512980
795  2023-10-27 14:36:39.545892
796  2023-10-27 14:36:39.577807
797  2023-10-27 14:36:39.609722
798  2023-10-27 14:36:39.657594
799  2023-10-27 14:36:39.689508
800  2023-10-27 14:36:39.721423
801  2023-10-27 14:36:39.753338
802  2023-10-27 14:36:39.785252
803  2023-10-27 14:36:39.817167
804  2023-10-27 14:36:39.849073
805  2023-10-27 14:36:39.882025
806  2023-10-27 14:36:39.913939
807  2023-10-27 14:36:39.945927
808  2023-10-27 14:36:39.977857
809  2023-10-27 14:36:40.009770
810  2023-10-27 14:36:40.058678
811  2023-10-27 14:36:40.089557
812  2023-10-27 14:36:40.121471
813  2023-10-27 14:36:40.153386
814  2023-10-27 14:36:40.185337
815  2023-10-27 14:36:40.218214
816  2023-10-27 14:36:40.249130
817  2023-10-27 14:36:40.282042
818  2023-10-27 14:36:40.313969
819  2023-10-27 14:36:40.345873
820  2023-10-27 14:36:40.377891
821  2023-10-27 14:36:40.409806
822  2023-10-27 14:36:40.457678
823  2023-10-27 14:36:40.489713
824  2023-10-27 14:36:40.521664
825  2023-10-27 14:36:40.553681
826  2023-10-27 14:36:40.585636
827  2023-10-27 14:36:40.618580
828  2023-10-27 14:36:40.649468
829  2023-10-27 14:36:40.682393
830  2023-10-27 14:36:40.714323
831  2023-10-27 14:36:40.746206
832  2023-10-27 14:36:40.778171
833  2023-10-27 14:36:40.810086
834  2023-10-27 14:36:40.857974
835  2023-10-27 14:36:40.889872
836  2023-10-27 14:36:40.921609
837  2023-10-27 14:36:40.953524
838  2023-10-27 14:36:40.985438
839  2023-10-27 14:36:41.017418
840  2023-10-27 14:36:41.050362
841  2023-10-27 14:36:41.081249
842  2023-10-27 14:36:41.114204
843  2023-10-27 14:36:41.146076
844  2023-10-27 14:36:41.177991
845  2023-10-27 14:36:41.209905
846  2023-10-27 14:36:41.257776
847  2023-10-27 14:36:41.289691
848  2023-10-27 14:36:41.321605
849  2023-10-27 14:36:41.353573
850  2023-10-27 14:36:41.386434
851  2023-10-27 14:36:41.417349
852  2023-10-27 14:36:41.449304
853  2023-10-27 14:36:41.482218
854  2023-10-27 14:36:41.513257
855  2023-10-27 14:36:41.546209
856  2023-10-27 14:36:41.577126
857  2023-10-27 14:36:41.610038
858  2023-10-27 14:36:41.657968
859  2023-10-27 14:36:41.689883
860  2023-10-27 14:36:41.721879
861  2023-10-27 14:36:41.753778
862  2023-10-27 14:36:41.785676
863  2023-10-27 14:36:41.817591
864  2023-10-27 14:36:41.850556
865  2023-10-27 14:36:41.881419
866  2023-10-27 14:36:41.913336
867  2023-10-27 14:36:41.945248
868  2023-10-27 14:36:41.978212
869  2023-10-27 14:36:42.025246
870  2023-10-27 14:36:42.057256
871  2023-10-27 14:36:42.089143
872  2023-10-27 14:36:42.122047
873  2023-10-27 14:36:42.154012
874  2023-10-27 14:36:42.185916
875  2023-10-27 14:36:42.217798
876  2023-10-27 14:36:42.249738
877  2023-10-27 14:36:42.281657
878  2023-10-27 14:36:42.313709
879  2023-10-27 14:36:42.345579
880  2023-10-27 14:36:42.378568
881  2023-10-27 14:36:42.425489
882  2023-10-27 14:36:42.458389
883  2023-10-27 14:36:42.490288
884  2023-10-27 14:36:42.521225
885  2023-10-27 14:36:42.553139
886  2023-10-27 14:36:42.586051
887  2023-10-27 14:36:42.617966
888  2023-10-27 14:36:42.649881
889  2023-10-27 14:36:42.681796
890  2023-10-27 14:36:42.713711
891  2023-10-27 14:36:42.745468
892  2023-10-27 14:36:42.777427
893  2023-10-27 14:36:42.825347
894  2023-10-27 14:36:42.858212
895  2023-10-27 14:36:42.889169
896  2023-10-27 14:36:42.921095
897  2023-10-27 14:36:42.953131
898  2023-10-27 14:36:42.986038
899  2023-10-27 14:36:43.017963
900  2023-10-27 14:36:43.049861
901  2023-10-27 14:36:43.081818
902  2023-10-27 14:36:43.113728
903  2023-10-27 14:36:43.145611
904  2023-10-27 14:36:43.177573
905  2023-10-27 14:36:43.225448
906  2023-10-27 14:36:43.257359
907  2023-10-27 14:36:43.289302
908  2023-10-27 14:36:43.321206
909  2023-10-27 14:36:43.353141
910  2023-10-27 14:36:43.386016
911  2023-10-27 14:36:43.417964
912  2023-10-27 14:36:43.449894
913  2023-10-27 14:36:43.481799
914  2023-10-27 14:36:43.513673
915  2023-10-27 14:36:43.545614
916  2023-10-27 14:36:43.577586
917  2023-10-27 14:36:43.625487
918  2023-10-27 14:36:43.657414
919  2023-10-27 14:36:43.689336
920  2023-10-27 14:36:43.721201
921  2023-10-27 14:36:43.753123
922  2023-10-27 14:36:43.785062
923  2023-10-27 14:36:43.817989
924  2023-10-27 14:36:43.849889
925  2023-10-27 14:36:43.881815
926  2023-10-27 14:36:43.913711
927  2023-10-27 14:36:43.945626
928  2023-10-27 14:36:43.977545
929  2023-10-27 14:36:44.025421
930  2023-10-27 14:36:44.057302
931  2023-10-27 14:36:44.089235
932  2023-10-27 14:36:44.121131
933  2023-10-27 14:36:44.153119
934  2023-10-27 14:36:44.186032
935  2023-10-27 14:36:44.217947
936  2023-10-27 14:36:44.249892
937  2023-10-27 14:36:44.281806
938  2023-10-27 14:36:44.313698
939  2023-10-27 14:36:44.345604
940  2023-10-27 14:36:44.377520
941  2023-10-27 14:36:44.425425
942  2023-10-27 14:36:44.457341
943  2023-10-27 14:36:44.489253
944  2023-10-27 14:36:44.521171
945  2023-10-27 14:36:44.553049
946  2023-10-27 14:36:44.585995
947  2023-10-27 14:36:44.617918
948  2023-10-27 14:36:44.649824
949  2023-10-27 14:36:44.681738
950  2023-10-27 14:36:44.713620
951  2023-10-27 14:36:44.745566
952  2023-10-27 14:36:44.777484
953  2023-10-27 14:36:44.825371
954  2023-10-27 14:36:44.857274
955  2023-10-27 14:36:44.889197
956  2023-10-27 14:36:44.921110
957  2023-10-27 14:36:44.952980
958  2023-10-27 14:36:44.985944
959  2023-10-27 14:36:45.017839
960  2023-10-27 14:36:45.049756
961  2023-10-27 14:36:45.081636
962  2023-10-27 14:36:45.113591
963  2023-10-27 14:36:45.145503
964  2023-10-27 14:36:45.177420
965  2023-10-27 14:36:45.225291
966  2023-10-27 14:36:45.257207
967  2023-10-27 14:36:45.289130
968  2023-10-27 14:36:45.322028
969  2023-10-27 14:36:45.353954
970  2023-10-27 14:36:45.385856
971  2023-10-27 14:36:45.417769
972  2023-10-27 14:36:45.449687
973  2023-10-27 14:36:45.481673
974  2023-10-27 14:36:45.513737
975  2023-10-27 14:36:45.545672
976  2023-10-27 14:36:45.577713
977  2023-10-27 14:36:45.625590
978  2023-10-27 14:36:45.657505
979  2023-10-27 14:36:45.689427
980  2023-10-27 14:36:45.721327
981  2023-10-27 14:36:45.753210
982  2023-10-27 14:36:45.785168
983  2023-10-27 14:36:45.817041
984  2023-10-27 14:36:45.849953
985  2023-10-27 14:36:45.881919
986  2023-10-27 14:36:45.913815
987  2023-10-27 14:36:45.945731
988  2023-10-27 14:36:45.993599
989  2023-10-27 14:36:46.025521
990  2023-10-27 14:36:46.057398
991  2023-10-27 14:36:46.089343
992  2023-10-27 14:36:46.121267
993  2023-10-27 14:36:46.153188
994  2023-10-27 14:36:46.185090
995  2023-10-27 14:36:46.216971
996  2023-10-27 14:36:46.249931
997  2023-10-27 14:36:46.281827
998  2023-10-27 14:36:46.313713
999  2023-10-27 14:36:46.345626
1000  2023-10-27 14:36:46.393500
1001  2023-10-27 14:36:46.425475
1002  2023-10-27 14:36:46.457390
1003  2023-10-27 14:36:46.489424
1004  2023-10-27 14:36:46.521346
1005  2023-10-27 14:36:46.553253
1006  2023-10-27 14:36:46.585253
1007  2023-10-27 14:36:46.617219
1008  2023-10-27 14:36:46.649120
1009  2023-10-27 14:36:46.681034
1010  2023-10-27 14:36:46.713909
1011  2023-10-27 14:36:46.745824
1012  2023-10-27 14:36:46.793698
1013  2023-10-27 14:36:46.825642
1014  2023-10-27 14:36:46.857557
1015  2023-10-27 14:36:46.889472
1016  2023-10-27 14:36:46.921385
1017  2023-10-27 14:36:46.953314
1018  2023-10-27 14:36:46.985184
1019  2023-10-27 14:36:47.018133
1020  2023-10-27 14:36:47.050062
1021  2023-10-27 14:36:47.081958
1022  2023-10-27 14:36:47.113872
1023  2023-10-27 14:36:47.145811
1024  2023-10-27 14:36:47.193660
1025  2023-10-27 14:36:47.225586
1026  2023-10-27 14:36:47.257508
1027  2023-10-27 14:36:47.289403
1028  2023-10-27 14:36:47.321322
1029  2023-10-27 14:36:47.353234
1030  2023-10-27 14:36:47.385116
1031  2023-10-27 14:36:47.417090
1032  2023-10-27 14:36:47.448991
1033  2023-10-27 14:36:47.481858
1034  2023-10-27 14:36:47.513772
1035  2023-10-27 14:36:47.545718
1036  2023-10-27 14:36:47.593559
1037  2023-10-27 14:36:47.625503
1038  2023-10-27 14:36:47.657418
1039  2023-10-27 14:36:47.689345
1040  2023-10-27 14:36:47.721292
1041  2023-10-27 14:36:47.753242
1042  2023-10-27 14:36:47.785216
1043  2023-10-27 14:36:47.817135
1044  2023-10-27 14:36:47.849043
1045  2023-10-27 14:36:47.881951
1046  2023-10-27 14:36:47.913827
1047  2023-10-27 14:36:47.945773
1048  2023-10-27 14:36:47.993652
1049  2023-10-27 14:36:48.025569
1050  2023-10-27 14:36:48.057495
1051  2023-10-27 14:36:48.089389
1052  2023-10-27 14:36:48.121306
1053  2023-10-27 14:36:48.153218
1054  2023-10-27 14:36:48.185102
1055  2023-10-27 14:36:48.217050
1056  2023-10-27 14:36:48.249101
1057  2023-10-27 14:36:48.281017
1058  2023-10-27 14:36:48.313942
1059  2023-10-27 14:36:48.345808
1060  2023-10-27 14:36:48.393734
1061  2023-10-27 14:36:48.425630
1062  2023-10-27 14:36:48.457558
1063  2023-10-27 14:36:48.489453
1064  2023-10-27 14:36:48.521374
1065  2023-10-27 14:36:48.554282
1066  2023-10-27 14:36:48.585363
1067  2023-10-27 14:36:48.617279
1068  2023-10-27 14:36:48.649215
1069  2023-10-27 14:36:48.681107
1070  2023-10-27 14:36:48.713984
1071  2023-10-27 14:36:48.745939
1072  2023-10-27 14:36:48.793816
1073  2023-10-27 14:36:48.825718
1074  2023-10-27 14:36:48.857649
1075  2023-10-27 14:36:48.889552
1076  2023-10-27 14:36:48.921475
1077  2023-10-27 14:36:48.953344
1078  2023-10-27 14:36:48.985301
1079  2023-10-27 14:36:49.017226
1080  2023-10-27 14:36:49.049131
1081  2023-10-27 14:36:49.081046
1082  2023-10-27 14:36:49.113948
1083  2023-10-27 14:36:49.145863
1084  2023-10-27 14:36:49.193739
1085  2023-10-27 14:36:49.225646
1086  2023-10-27 14:36:49.257578
1087  2023-10-27 14:36:49.289482
1088  2023-10-27 14:36:49.321390
1089  2023-10-27 14:36:49.353312
1090  2023-10-27 14:36:49.385189
1091  2023-10-27 14:36:49.417154
1092  2023-10-27 14:36:49.449066
1093  2023-10-27 14:36:49.481051
1094  2023-10-27 14:36:49.513969
1095  2023-10-27 14:36:49.561877
1096  2023-10-27 14:36:49.593788
1097  2023-10-27 14:36:49.625703
1098  2023-10-27 14:36:49.657617
1099  2023-10-27 14:36:49.689533
1100  2023-10-27 14:36:49.721450
1101  2023-10-27 14:36:49.753358
1102  2023-10-27 14:36:49.785241
1103  2023-10-27 14:36:49.817193
1104  2023-10-27 14:36:49.849106
1105  2023-10-27 14:36:49.881022
1106  2023-10-27 14:36:49.913947
1107  2023-10-27 14:36:49.961805
1108  2023-10-27 14:36:49.993720
1109  2023-10-27 14:36:50.025818
1110  2023-10-27 14:36:50.057692
1111  2023-10-27 14:36:50.089640
1112  2023-10-27 14:36:50.121553
1113  2023-10-27 14:36:50.153475
1114  2023-10-27 14:36:50.185387
1115  2023-10-27 14:36:50.217266
1116  2023-10-27 14:36:50.249221
1117  2023-10-27 14:36:50.280985
1118  2023-10-27 14:36:50.313996
1119  2023-10-27 14:36:50.361874
1120  2023-10-27 14:36:50.393790
1121  2023-10-27 14:36:50.425699
1122  2023-10-27 14:36:50.457581
1123  2023-10-27 14:36:50.489528
1124  2023-10-27 14:36:50.521452
1125  2023-10-27 14:36:50.553339
1126  2023-10-27 14:36:50.585239
1127  2023-10-27 14:36:50.617169
1128  2023-10-27 14:36:50.649211
1129  2023-10-27 14:36:50.682073
1130  2023-10-27 14:36:50.714035
1131  2023-10-27 14:36:50.761899
1132  2023-10-27 14:36:50.793813
1133  2023-10-27 14:36:50.825719
1134  2023-10-27 14:36:50.857634
1135  2023-10-27 14:36:50.889519
1136  2023-10-27 14:36:50.921596
1137  2023-10-27 14:36:50.953563
1138  2023-10-27 14:36:50.985479
1139  2023-10-27 14:36:51.017395
1140  2023-10-27 14:36:51.049329
1141  2023-10-27 14:36:51.081227
1142  2023-10-27 14:36:51.113141
1143  2023-10-27 14:36:51.161029
1144  2023-10-27 14:36:51.193956
1145  2023-10-27 14:36:51.225926
1146  2023-10-27 14:36:51.257879
1147  2023-10-27 14:36:51.289845
1148  2023-10-27 14:36:51.321758
1149  2023-10-27 14:36:51.353674
1150  2023-10-27 14:36:51.385588
1151  2023-10-27 14:36:51.417470
1152  2023-10-27 14:36:51.449681
1153  2023-10-27 14:36:51.481553
1154  2023-10-27 14:36:51.513615
1155  2023-10-27 14:36:51.561485
1156  2023-10-27 14:36:51.593403
1157  2023-10-27 14:36:51.625348
1158  2023-10-27 14:36:51.657232
1159  2023-10-27 14:36:51.689150
1160  2023-10-27 14:36:51.721060
1161  2023-10-27 14:36:51.753940
1162  2023-10-27 14:36:51.785903
1163  2023-10-27 14:36:51.817807
1164  2023-10-27 14:36:51.849831
1165  2023-10-27 14:36:51.881760
1166  2023-10-27 14:36:51.913834
1167  2023-10-27 14:36:51.961537
1168  2023-10-27 14:36:51.993452
1169  2023-10-27 14:36:52.025482
1170  2023-10-27 14:36:52.057389
1171  2023-10-27 14:36:52.089305
1172  2023-10-27 14:36:52.121216
1173  2023-10-27 14:36:52.153134
1174  2023-10-27 14:36:52.186049
1175  2023-10-27 14:36:52.217929
1176  2023-10-27 14:36:52.249880
1177  2023-10-27 14:36:52.281798
1178  2023-10-27 14:36:52.313674
1179  2023-10-27 14:36:52.361579
1180  2023-10-27 14:36:52.393473
1181  2023-10-27 14:36:52.425405
1182  2023-10-27 14:36:52.457380
1183  2023-10-27 14:36:52.489347
1184  2023-10-27 14:36:52.521258
1185  2023-10-27 14:36:52.553176
1186  2023-10-27 14:36:52.585086
1187  2023-10-27 14:36:52.617961
1188  2023-10-27 14:36:52.649915
1189  2023-10-27 14:36:52.681824
1190  2023-10-27 14:36:52.713705
1191  2023-10-27 14:36:52.761646
1192  2023-10-27 14:36:52.793532
1193  2023-10-27 14:36:52.825527
1194  2023-10-27 14:36:52.857590
1195  2023-10-27 14:36:52.889585
1196  2023-10-27 14:36:52.921491
1197  2023-10-27 14:36:52.953898
1198  2023-10-27 14:36:52.985838
1199  2023-10-27 14:36:53.017753
1200  2023-10-27 14:36:53.049668
1201  2023-10-27 14:36:53.081236
1202  2023-10-27 14:36:53.113151
1203  2023-10-27 14:36:53.161101
1204  2023-10-27 14:36:53.193013
1205  2023-10-27 14:36:53.225928
1206  2023-10-27 14:36:53.257801
1207  2023-10-27 14:36:53.289716
1208  2023-10-27 14:36:53.321672
1209  2023-10-27 14:36:53.353571
1210  2023-10-27 14:36:53.385515
1211  2023-10-27 14:36:53.417407
1212  2023-10-27 14:36:53.449336
1213  2023-10-27 14:36:53.481244
1214  2023-10-27 14:36:53.529118
1215  2023-10-27 14:36:53.561989
1216  2023-10-27 14:36:53.593904
1217  2023-10-27 14:36:53.625855
1218  2023-10-27 14:36:53.657876
1219  2023-10-27 14:36:53.689804
1220  2023-10-27 14:36:53.721812
1221  2023-10-27 14:36:53.753758
1222  2023-10-27 14:36:53.785714
1223  2023-10-27 14:36:53.817598
1224  2023-10-27 14:36:53.849513
1225  2023-10-27 14:36:53.881475
1226  2023-10-27 14:36:53.929342
1227  2023-10-27 14:36:53.961252
1228  2023-10-27 14:36:53.993167
1229  2023-10-27 14:36:54.025081
1230  2023-10-27 14:36:54.057956
1231  2023-10-27 14:36:54.089871
1232  2023-10-27 14:36:54.121787
1233  2023-10-27 14:36:54.153735
1234  2023-10-27 14:36:54.185651
1235  2023-10-27 14:36:54.217562
1236  2023-10-27 14:36:54.249444
1237  2023-10-27 14:36:54.281394
1238  2023-10-27 14:36:54.329267
1239  2023-10-27 14:36:54.361181
1240  2023-10-27 14:36:54.394002
1241  2023-10-27 14:36:54.425916
1242  2023-10-27 14:36:54.457870
1243  2023-10-27 14:36:54.489810
1244  2023-10-27 14:36:54.521757
1245  2023-10-27 14:36:54.553684
1246  2023-10-27 14:36:54.585591
1247  2023-10-27 14:36:54.617469
1248  2023-10-27 14:36:54.649422
1249  2023-10-27 14:36:54.681345
1250  2023-10-27 14:36:54.729212
1251  2023-10-27 14:36:54.761123
1252  2023-10-27 14:36:54.793036
1253  2023-10-27 14:36:54.824951
1254  2023-10-27 14:36:54.857902
1255  2023-10-27 14:36:54.889816
1256  2023-10-27 14:36:54.921755
1257  2023-10-27 14:36:54.953757
1258  2023-10-27 14:36:54.985701
1259  2023-10-27 14:36:55.017682
1260  2023-10-27 14:36:55.049572
1261  2023-10-27 14:36:55.081471
1262  2023-10-27 14:36:55.129317
1263  2023-10-27 14:36:55.161232
1264  2023-10-27 14:36:55.193146
1265  2023-10-27 14:36:55.226059
1266  2023-10-27 14:36:55.257068
1267  2023-10-27 14:36:55.288997
1268  2023-10-27 14:36:55.320940
1269  2023-10-27 14:36:55.353882
1270  2023-10-27 14:36:55.385802
1271  2023-10-27 14:36:55.417683
1272  2023-10-27 14:36:55.449598
1273  2023-10-27 14:36:55.481547
1274  2023-10-27 14:36:55.529495
1275  2023-10-27 14:36:55.561472
1276  2023-10-27 14:36:55.593400
1277  2023-10-27 14:36:55.625302
1278  2023-10-27 14:36:55.657181
1279  2023-10-27 14:36:55.689131
1280  2023-10-27 14:36:55.721046
1281  2023-10-27 14:36:55.753922
1282  2023-10-27 14:36:55.785837
1283  2023-10-27 14:36:55.817752
1284  2023-10-27 14:36:55.849727
1285  2023-10-27 14:36:55.881646
1286  2023-10-27 14:36:55.929514
1287  2023-10-27 14:36:55.961522
1288  2023-10-27 14:36:55.993452
1289  2023-10-27 14:36:56.025357
1290  2023-10-27 14:36:56.057233
1291  2023-10-27 14:36:56.089148
1292  2023-10-27 14:36:56.121099
1293  2023-10-27 14:36:56.153975
1294  2023-10-27 14:36:56.185956
1295  2023-10-27 14:36:56.217870
1296  2023-10-27 14:36:56.249785
1297  2023-10-27 14:36:56.281700
1298  2023-10-27 14:36:56.329689
1299  2023-10-27 14:36:56.361645
1300  2023-10-27 14:36:56.393559
1301  2023-10-27 14:36:56.425474
1302  2023-10-27 14:36:56.457479
1303  2023-10-27 14:36:56.489394
1304  2023-10-27 14:36:56.521350
1305  2023-10-27 14:36:56.553223
1306  2023-10-27 14:36:56.585138
1307  2023-10-27 14:36:56.617053
1308  2023-10-27 14:36:56.649965
1309  2023-10-27 14:36:56.681879
1310  2023-10-27 14:36:56.729786
1311  2023-10-27 14:36:56.761699
1312  2023-10-27 14:36:56.793622
1313  2023-10-27 14:36:56.825577
1314  2023-10-27 14:36:56.857526
1315  2023-10-27 14:36:56.889445
1316  2023-10-27 14:36:56.921355
1317  2023-10-27 14:36:56.953270
1318  2023-10-27 14:36:56.985185
1319  2023-10-27 14:36:57.017099
1320  2023-10-27 14:36:57.050012
1321  2023-10-27 14:36:57.098010
1322  2023-10-27 14:36:57.129937
1323  2023-10-27 14:36:57.161864
1324  2023-10-27 14:36:57.193779
1325  2023-10-27 14:36:57.225694
1326  2023-10-27 14:36:57.257682
1327  2023-10-27 14:36:57.289596
1328  2023-10-27 14:36:57.321511
1329  2023-10-27 14:36:57.353509
1330  2023-10-27 14:36:57.385466
1331  2023-10-27 14:36:57.417380
1332  2023-10-27 14:36:57.449480
1333  2023-10-27 14:36:57.497389
1334  2023-10-27 14:36:57.529374
1335  2023-10-27 14:36:57.561295
1336  2023-10-27 14:36:57.593209
1337  2023-10-27 14:36:57.625132
1338  2023-10-27 14:36:57.657041
1339  2023-10-27 14:36:57.689913
1340  2023-10-27 14:36:57.721827
1341  2023-10-27 14:36:57.753742
1342  2023-10-27 14:36:57.785687
1343  2023-10-27 14:36:57.817676
1344  2023-10-27 14:36:57.849591
1345  2023-10-27 14:36:57.897505
1346  2023-10-27 14:36:57.929411
1347  2023-10-27 14:36:57.961325
1348  2023-10-27 14:36:57.993238
1349  2023-10-27 14:36:58.025159
1350  2023-10-27 14:36:58.058105
1351  2023-10-27 14:36:58.088951
1352  2023-10-27 14:36:58.121863
1353  2023-10-27 14:36:58.153778
1354  2023-10-27 14:36:58.185728
1355  2023-10-27 14:36:58.217607
1356  2023-10-27 14:36:58.249522
1357  2023-10-27 14:36:58.297438
1358  2023-10-27 14:36:58.329350
1359  2023-10-27 14:36:58.361257
1360  2023-10-27 14:36:58.393172
1361  2023-10-27 14:36:58.425090
1362  2023-10-27 14:36:58.457965
1363  2023-10-27 14:36:58.489879
1364  2023-10-27 14:36:58.521864
1365  2023-10-27 14:36:58.553778
1366  2023-10-27 14:36:58.585693
1367  2023-10-27 14:36:58.617608
1368  2023-10-27 14:36:58.649624
1369  2023-10-27 14:36:58.697532
1370  2023-10-27 14:36:58.729442
1371  2023-10-27 14:36:58.761356
1372  2023-10-27 14:36:58.793275
1373  2023-10-27 14:36:58.825185
1374  2023-10-27 14:36:58.857069
1375  2023-10-27 14:36:58.888984
1376  2023-10-27 14:36:58.921977
1377  2023-10-27 14:36:58.953881
1378  2023-10-27 14:36:58.985800
1379  2023-10-27 14:36:59.017754
1380  2023-10-27 14:36:59.049669
1381  2023-10-27 14:36:59.097588
1382  2023-10-27 14:36:59.129498
1383  2023-10-27 14:36:59.161371
1384  2023-10-27 14:36:59.193315
1385  2023-10-27 14:36:59.226232
1386  2023-10-27 14:36:59.258111
1387  2023-10-27 14:36:59.289029
1388  2023-10-27 14:36:59.321941
1389  2023-10-27 14:36:59.353857
1390  2023-10-27 14:36:59.385802
1391  2023-10-27 14:36:59.417685
1392  2023-10-27 14:36:59.449599
1393  2023-10-27 14:36:59.497505
1394  2023-10-27 14:36:59.529422
1395  2023-10-27 14:36:59.561353
1396  2023-10-27 14:36:59.593252
1397  2023-10-27 14:36:59.625165
1398  2023-10-27 14:36:59.657045
1399  2023-10-27 14:36:59.688992
1400  2023-10-27 14:36:59.721919
1401  2023-10-27 14:36:59.753786
1402  2023-10-27 14:36:59.785701
1403  2023-10-27 14:36:59.817655
1404  2023-10-27 14:36:59.849530
1405  2023-10-27 14:36:59.897442
1406  2023-10-27 14:36:59.929355
1407  2023-10-27 14:36:59.961265
1408  2023-10-27 14:36:59.993181
1409  2023-10-27 14:37:00.025095
1410  2023-10-27 14:37:00.056976
1411  2023-10-27 14:37:00.089100
1412  2023-10-27 14:37:00.121983
1413  2023-10-27 14:37:00.153940
1414  2023-10-27 14:37:00.185855
1415  2023-10-27 14:37:00.217771
1416  2023-10-27 14:37:00.249686
1417  2023-10-27 14:37:00.297601
1418  2023-10-27 14:37:00.329679
1419  2023-10-27 14:37:00.361581
1420  2023-10-27 14:37:00.393468
1421  2023-10-27 14:37:00.425417
1422  2023-10-27 14:37:00.457371
1423  2023-10-27 14:37:00.489358
1424  2023-10-27 14:37:00.521304
1425  2023-10-27 14:37:00.553187
1426  2023-10-27 14:37:00.585102
1427  2023-10-27 14:37:00.617017
1428  2023-10-27 14:37:00.649975
1429  2023-10-27 14:37:00.697852
1430  2023-10-27 14:37:00.729748
1431  2023-10-27 14:37:00.761669
1432  2023-10-27 14:37:00.793575
1433  2023-10-27 14:37:00.825488
1434  2023-10-27 14:37:00.857410
1435  2023-10-27 14:37:00.889324
1436  2023-10-27 14:37:00.921203
1437  2023-10-27 14:37:00.953118
1438  2023-10-27 14:37:00.985081
1439  2023-10-27 14:37:01.016980
1440  2023-10-27 14:37:01.065852
1441  2023-10-27 14:37:01.097763
1442  2023-10-27 14:37:01.129684
1443  2023-10-27 14:37:01.161591
1444  2023-10-27 14:37:01.193508
1445  2023-10-27 14:37:01.225424
1446  2023-10-27 14:37:01.257305
1447  2023-10-27 14:37:01.289220
1448  2023-10-27 14:37:01.321134
1449  2023-10-27 14:37:01.353185
1450  2023-10-27 14:37:01.385099
1451  2023-10-27 14:37:01.417013
1452  2023-10-27 14:37:01.465916
1453  2023-10-27 14:37:01.497870
1454  2023-10-27 14:37:01.529806
1455  2023-10-27 14:37:01.561725
1456  2023-10-27 14:37:01.593636
1457  2023-10-27 14:37:01.625550
1458  2023-10-27 14:37:01.657645
1459  2023-10-27 14:37:01.689563
1460  2023-10-27 14:37:01.721477
1461  2023-10-27 14:37:01.753392
1462  2023-10-27 14:37:01.785313
1463  2023-10-27 14:37:01.817221
1464  2023-10-27 14:37:01.865186
1465  2023-10-27 14:37:01.898065
1466  2023-10-27 14:37:01.929979
1467  2023-10-27 14:37:01.961893
1468  2023-10-27 14:37:01.993808
1469  2023-10-27 14:37:02.025835
1470  2023-10-27 14:37:02.057746
1471  2023-10-27 14:37:02.089780
1472  2023-10-27 14:37:02.121694
1473  2023-10-27 14:37:02.153641
1474  2023-10-27 14:37:02.185557
1475  2023-10-27 14:37:02.217438
1476  2023-10-27 14:37:02.265344
1477  2023-10-27 14:37:02.297259
1478  2023-10-27 14:37:02.329251
1479  2023-10-27 14:37:02.361157
1480  2023-10-27 14:37:02.393075
1481  2023-10-27 14:37:02.425950
1482  2023-10-27 14:37:02.457864
1483  2023-10-27 14:37:02.489872
1484  2023-10-27 14:37:02.521786
1485  2023-10-27 14:37:02.553701
1486  2023-10-27 14:37:02.585616
1487  2023-10-27 14:37:02.617530
1488  2023-10-27 14:37:02.665434
1489  2023-10-27 14:37:02.697349
1490  2023-10-27 14:37:02.729268
1491  2023-10-27 14:37:02.762197
1492  2023-10-27 14:37:02.793180
1493  2023-10-27 14:37:02.825095
1494  2023-10-27 14:37:02.857970
1495  2023-10-27 14:37:02.889881
1496  2023-10-27 14:37:02.921797
1497  2023-10-27 14:37:02.953711
1498  2023-10-27 14:37:02.985625
1499  2023-10-27 14:37:03.017541
1500  2023-10-27 14:37:03.065413
1501  2023-10-27 14:37:03.097363
1502  2023-10-27 14:37:03.129313
1503  2023-10-27 14:37:03.161283
1504  2023-10-27 14:37:03.193202
1505  2023-10-27 14:37:03.225117
1506  2023-10-27 14:37:03.256996
1507  2023-10-27 14:37:03.289909
1508  2023-10-27 14:37:03.321823
1509  2023-10-27 14:37:03.353770
1510  2023-10-27 14:37:03.385653
1511  2023-10-27 14:37:03.417567
1512  2023-10-27 14:37:03.465472
1513  2023-10-27 14:37:03.497386
1514  2023-10-27 14:37:03.529302
1515  2023-10-27 14:37:03.561231
1516  2023-10-27 14:37:03.593133
1517  2023-10-27 14:37:03.625045
1518  2023-10-27 14:37:03.657925
1519  2023-10-27 14:37:03.689979
1520  2023-10-27 14:37:03.721893
1521  2023-10-27 14:37:03.753906
1522  2023-10-27 14:37:03.785819
1523  2023-10-27 14:37:03.817733
1524  2023-10-27 14:37:03.865686
1525  2023-10-27 14:37:03.897601
1526  2023-10-27 14:37:03.929487
1527  2023-10-27 14:37:03.961432
1528  2023-10-27 14:37:03.993314
1529  2023-10-27 14:37:04.025229
1530  2023-10-27 14:37:04.057174
1531  2023-10-27 14:37:04.090132
1532  2023-10-27 14:37:04.121049
1533  2023-10-27 14:37:04.152964
1534  2023-10-27 14:37:04.185909
1535  2023-10-27 14:37:04.217790
1536  2023-10-27 14:37:04.266690
1537  2023-10-27 14:37:04.297608
1538  2023-10-27 14:37:04.329531
1539  2023-10-27 14:37:04.361449
1540  2023-10-27 14:37:04.393355
1541  2023-10-27 14:37:04.425270
1542  2023-10-27 14:37:04.457150
1543  2023-10-27 14:37:04.489065
1544  2023-10-27 14:37:04.521011
1545  2023-10-27 14:37:04.553892
1546  2023-10-27 14:37:04.585807
1547  2023-10-27 14:37:04.617721
1548  2023-10-27 14:37:04.665649
1549  2023-10-27 14:37:04.697548
1550  2023-10-27 14:37:04.729472
1551  2023-10-27 14:37:04.761368
1552  2023-10-27 14:37:04.793289
1553  2023-10-27 14:37:04.825199
1554  2023-10-27 14:37:04.858079
1555  2023-10-27 14:37:04.890001
1556  2023-10-27 14:37:04.921908
1557  2023-10-27 14:37:04.953823
1558  2023-10-27 14:37:04.985737
1559  2023-10-27 14:37:05.033643
1560  2023-10-27 14:37:05.065565
1561  2023-10-27 14:37:05.097480
1562  2023-10-27 14:37:05.129479
1563  2023-10-27 14:37:05.161399
1564  2023-10-27 14:37:05.193305
1565  2023-10-27 14:37:05.225222
1566  2023-10-27 14:37:05.257140
1567  2023-10-27 14:37:05.290016
1568  2023-10-27 14:37:05.321076
1569  2023-10-27 14:37:05.354020
1570  2023-10-27 14:37:05.385906
1571  2023-10-27 14:37:05.433292
1572  2023-10-27 14:37:05.465207
1573  2023-10-27 14:37:05.497151
1574  2023-10-27 14:37:05.529187
1575  2023-10-27 14:37:05.561102
1576  2023-10-27 14:37:05.593020
1577  2023-10-27 14:37:05.625955
1578  2023-10-27 14:37:05.657857
1579  2023-10-27 14:37:05.689807
1580  2023-10-27 14:37:05.721721
1581  2023-10-27 14:37:05.753718
1582  2023-10-27 14:37:05.785687
1583  2023-10-27 14:37:05.833591
1584  2023-10-27 14:37:05.865522
1585  2023-10-27 14:37:05.897420
1586  2023-10-27 14:37:05.929343
1587  2023-10-27 14:37:05.961251
1588  2023-10-27 14:37:05.993166
1589  2023-10-27 14:37:06.025164
1590  2023-10-27 14:37:06.057064
1591  2023-10-27 14:37:06.089988
1592  2023-10-27 14:37:06.121902
1593  2023-10-27 14:37:06.153895
1594  2023-10-27 14:37:06.185904
1595  2023-10-27 14:37:06.233743
1596  2023-10-27 14:37:06.265769
1597  2023-10-27 14:37:06.297684
1598  2023-10-27 14:37:06.329690
1599  2023-10-27 14:37:06.361698
1600  2023-10-27 14:37:06.393605
1601  2023-10-27 14:37:06.425489
1602  2023-10-27 14:37:06.457436
1603  2023-10-27 14:37:06.489317
1604  2023-10-27 14:37:06.521270
1605  2023-10-27 14:37:06.554145
1606  2023-10-27 14:37:06.585061
1607  2023-10-27 14:37:06.633966
1608  2023-10-27 14:37:06.665895
1609  2023-10-27 14:37:06.697802
1610  2023-10-27 14:37:06.729677
1611  2023-10-27 14:37:06.761621
1612  2023-10-27 14:37:06.793536
1613  2023-10-27 14:37:06.825492
1614  2023-10-27 14:37:06.857334
1615  2023-10-27 14:37:06.889281
1616  2023-10-27 14:37:06.921163
1617  2023-10-27 14:37:06.954075
1618  2023-10-27 14:37:06.984992
1619  2023-10-27 14:37:07.033967
1620  2023-10-27 14:37:07.065984
1621  2023-10-27 14:37:07.097935
1622  2023-10-27 14:37:07.129840
1623  2023-10-27 14:37:07.161756
1624  2023-10-27 14:37:07.193797
1625  2023-10-27 14:37:07.225842
1626  2023-10-27 14:37:07.257870
1627  2023-10-27 14:37:07.289749
1628  2023-10-27 14:37:07.321750
1629  2023-10-27 14:37:07.353657
1630  2023-10-27 14:37:07.385620
1631  2023-10-27 14:37:07.433523
1632  2023-10-27 14:37:07.466405
1633  2023-10-27 14:37:07.497357
1634  2023-10-27 14:37:07.529269
1635  2023-10-27 14:37:07.562149
1636  2023-10-27 14:37:07.594098
1637  2023-10-27 14:37:07.625014
1638  2023-10-27 14:37:07.657984
1639  2023-10-27 14:37:07.689898
1640  2023-10-27 14:37:07.721866
1641  2023-10-27 14:37:07.753813
1642  2023-10-27 14:37:07.785786
1643  2023-10-27 14:37:07.833791
1644  2023-10-27 14:37:07.865728
1645  2023-10-27 14:37:07.897765
1646  2023-10-27 14:37:07.929665
1647  2023-10-27 14:37:07.961581
1648  2023-10-27 14:37:07.993504
1649  2023-10-27 14:37:08.025437
1650  2023-10-27 14:37:08.057328
1651  2023-10-27 14:37:08.089208
1652  2023-10-27 14:37:08.121123
1653  2023-10-27 14:37:08.153038
1654  2023-10-27 14:37:08.185950
1655  2023-10-27 14:37:08.233863
1656  2023-10-27 14:37:08.265772
1657  2023-10-27 14:37:08.297684
1658  2023-10-27 14:37:08.329602
1659  2023-10-27 14:37:08.361647
1660  2023-10-27 14:37:08.393559
1661  2023-10-27 14:37:08.425521
1662  2023-10-27 14:37:08.457388
1663  2023-10-27 14:37:08.489272
1664  2023-10-27 14:37:08.521188
1665  2023-10-27 14:37:08.553105
1666  2023-10-27 14:37:08.602088
1667  2023-10-27 14:37:08.633040
1668  2023-10-27 14:37:08.665953
1669  2023-10-27 14:37:08.697864
1670  2023-10-27 14:37:08.729777
1671  2023-10-27 14:37:08.761694
1672  2023-10-27 14:37:08.793607
1673  2023-10-27 14:37:08.825518
1674  2023-10-27 14:37:08.857452
1675  2023-10-27 14:37:08.889411
1676  2023-10-27 14:37:08.921326
1677  2023-10-27 14:37:08.953240
1678  2023-10-27 14:37:09.001154
1679  2023-10-27 14:37:09.033090
1680  2023-10-27 14:37:09.066003
1681  2023-10-27 14:37:09.097011
1682  2023-10-27 14:37:09.129968
1683  2023-10-27 14:37:09.161959
1684  2023-10-27 14:37:09.193875
1685  2023-10-27 14:37:09.225835
1686  2023-10-27 14:37:09.257829
1687  2023-10-27 14:37:09.289709
1688  2023-10-27 14:37:09.321702
1689  2023-10-27 14:37:09.353743
1690  2023-10-27 14:37:09.401676
1691  2023-10-27 14:37:09.433676
1692  2023-10-27 14:37:09.465634
1693  2023-10-27 14:37:09.497747
1694  2023-10-27 14:37:09.529660
1695  2023-10-27 14:37:09.561543
1696  2023-10-27 14:37:09.593489
1697  2023-10-27 14:37:09.625402
1698  2023-10-27 14:37:09.657320
1699  2023-10-27 14:37:09.689254
1700  2023-10-27 14:37:09.721152
1701  2023-10-27 14:37:09.753063
1702  2023-10-27 14:37:09.802057
1703  2023-10-27 14:37:09.833005
1704  2023-10-27 14:37:09.865926
1705  2023-10-27 14:37:09.897833
1706  2023-10-27 14:37:09.929791
1707  2023-10-27 14:37:09.961789
1708  2023-10-27 14:37:09.993695
1709  2023-10-27 14:37:10.025609
1710  2023-10-27 14:37:10.057524
1711  2023-10-27 14:37:10.089407
1712  2023-10-27 14:37:10.121472
1713  2023-10-27 14:37:10.153420
1714  2023-10-27 14:37:10.201292
1715  2023-10-27 14:37:10.233205
1716  2023-10-27 14:37:10.266087
1717  2023-10-27 14:37:10.297179
1718  2023-10-27 14:37:10.329098
1719  2023-10-27 14:37:10.363041
1720  2023-10-27 14:37:10.393921
1721  2023-10-27 14:37:10.426835
1722  2023-10-27 14:37:10.458749
1723  2023-10-27 14:37:10.489632
1724  2023-10-27 14:37:10.521547
1725  2023-10-27 14:37:10.554501
1726  2023-10-27 14:37:10.602370
1727  2023-10-27 14:37:10.634247
1728  2023-10-27 14:37:10.666164
1729  2023-10-27 14:37:10.697110
1730  2023-10-27 14:37:10.731037
1731  2023-10-27 14:37:10.761971
1732  2023-10-27 14:37:10.794862
1733  2023-10-27 14:37:10.826772
1734  2023-10-27 14:37:10.858692
1735  2023-10-27 14:37:10.890601
1736  2023-10-27 14:37:10.922604
1737  2023-10-27 14:37:10.954519
1738  2023-10-27 14:37:11.002397
1739  2023-10-27 14:37:11.034355
1740  2023-10-27 14:37:11.067330
1741  2023-10-27 14:37:11.098190
1742  2023-10-27 14:37:11.130140
1743  2023-10-27 14:37:11.162019
1744  2023-10-27 14:37:11.193934
1745  2023-10-27 14:37:11.225851
1746  2023-10-27 14:37:11.257806
1747  2023-10-27 14:37:11.289678
1748  2023-10-27 14:37:11.322621
1749  2023-10-27 14:37:11.354586
1750  2023-10-27 14:37:11.402413
1751  2023-10-27 14:37:11.434428
1752  2023-10-27 14:37:11.466336
1753  2023-10-27 14:37:11.498263
1754  2023-10-27 14:37:11.530146
1755  2023-10-27 14:37:11.562137
1756  2023-10-27 14:37:11.594071
1757  2023-10-27 14:37:11.625973
1758  2023-10-27 14:37:11.658008
1759  2023-10-27 14:37:11.689920
1760  2023-10-27 14:37:11.721973
1761  2023-10-27 14:37:11.753876
1762  2023-10-27 14:37:11.801864
1763  2023-10-27 14:37:11.833783
1764  2023-10-27 14:37:11.865720
1765  2023-10-27 14:37:11.897635
1766  2023-10-27 14:37:11.929549
1767  2023-10-27 14:37:11.961516
1768  2023-10-27 14:37:11.993471
1769  2023-10-27 14:37:12.025382
1770  2023-10-27 14:37:12.057307
1771  2023-10-27 14:37:12.090189
1772  2023-10-27 14:37:12.122127
1773  2023-10-27 14:37:12.154163
1774  2023-10-27 14:37:12.202084
1775  2023-10-27 14:37:12.234031
1776  2023-10-27 14:37:12.265915
1777  2023-10-27 14:37:12.297867
1778  2023-10-27 14:37:12.329806
1779  2023-10-27 14:37:12.361876
1780  2023-10-27 14:37:12.394044
1781  2023-10-27 14:37:12.425955
1782  2023-10-27 14:37:12.457872
1783  2023-10-27 14:37:12.489785
1784  2023-10-27 14:37:12.521843
1785  2023-10-27 14:37:12.569703
1786  2023-10-27 14:37:12.601622
1787  2023-10-27 14:37:12.633524
1788  2023-10-27 14:37:12.665470
1789  2023-10-27 14:37:12.697359
1790  2023-10-27 14:37:12.730277
1791  2023-10-27 14:37:12.762191
1792  2023-10-27 14:37:12.793112
1793  2023-10-27 14:37:12.825994
1794  2023-10-27 14:37:12.857941
1795  2023-10-27 14:37:12.889847
1796  2023-10-27 14:37:12.921671
1797  2023-10-27 14:37:12.969668
1798  2023-10-27 14:37:13.001572
1799  2023-10-27 14:37:13.033495
1800  2023-10-27 14:37:13.065421
1801  2023-10-27 14:37:13.097336
1802  2023-10-27 14:37:13.129206
1803  2023-10-27 14:37:13.161168
1804  2023-10-27 14:37:13.194058
1805  2023-10-27 14:37:13.225948
1806  2023-10-27 14:37:13.257909
1807  2023-10-27 14:37:13.290830
1808  2023-10-27 14:37:13.321712
1809  2023-10-27 14:37:13.370673
1810  2023-10-27 14:37:13.401614
1811  2023-10-27 14:37:13.433524
1812  2023-10-27 14:37:13.466441
1813  2023-10-27 14:37:13.497443
1814  2023-10-27 14:37:13.530586
1815  2023-10-27 14:37:13.561345
1816  2023-10-27 14:37:13.593383
1817  2023-10-27 14:37:13.626262
1818  2023-10-27 14:37:13.657352
1819  2023-10-27 14:37:13.690227
1820  2023-10-27 14:37:13.722184
1821  2023-10-27 14:37:13.770032
1822  2023-10-27 14:37:13.801942
1823  2023-10-27 14:37:13.833875
1824  2023-10-27 14:37:13.865808
1825  2023-10-27 14:37:13.897872
1826  2023-10-27 14:37:13.929876
1827  2023-10-27 14:37:13.961873
1828  2023-10-27 14:37:13.993813
1829  2023-10-27 14:37:14.026750
1830  2023-10-27 14:37:14.057633
1831  2023-10-27 14:37:14.090581
1832  2023-10-27 14:37:14.121476
1833  2023-10-27 14:37:14.170352
1834  2023-10-27 14:37:14.201259
1835  2023-10-27 14:37:14.233177
1836  2023-10-27 14:37:14.266089
1837  2023-10-27 14:37:14.298025
1838  2023-10-27 14:37:14.329944
1839  2023-10-27 14:37:14.361991
1840  2023-10-27 14:37:14.393904
1841  2023-10-27 14:37:14.425819
1842  2023-10-27 14:37:14.457746
1843  2023-10-27 14:37:14.489612
1844  2023-10-27 14:37:14.521597
1845  2023-10-27 14:37:14.569532
1846  2023-10-27 14:37:14.601430
1847  2023-10-27 14:37:14.633297
1848  2023-10-27 14:37:14.665212
1849  2023-10-27 14:37:14.698169
1850  2023-10-27 14:37:14.730134
1851  2023-10-27 14:37:14.761193
1852  2023-10-27 14:37:14.793107
1853  2023-10-27 14:37:14.826061
1854  2023-10-27 14:37:14.857979
1855  2023-10-27 14:37:14.889900
1856  2023-10-27 14:37:14.921851
1857  2023-10-27 14:37:14.969874
1858  2023-10-27 14:37:15.001773
1859  2023-10-27 14:37:15.033715
1860  2023-10-27 14:37:15.065634
1861  2023-10-27 14:37:15.098551
1862  2023-10-27 14:37:15.129485
1863  2023-10-27 14:37:15.161401
1864  2023-10-27 14:37:15.193443
1865  2023-10-27 14:37:15.226348
1866  2023-10-27 14:37:15.258238
1867  2023-10-27 14:37:15.289359
1868  2023-10-27 14:37:15.321242
1869  2023-10-27 14:37:15.369131
1870  2023-10-27 14:37:15.401147
1871  2023-10-27 14:37:15.434061
1872  2023-10-27 14:37:15.465983
1873  2023-10-27 14:37:15.497919
1874  2023-10-27 14:37:15.529793
1875  2023-10-27 14:37:15.561688
1876  2023-10-27 14:37:15.593616
1877  2023-10-27 14:37:15.625530
1878  2023-10-27 14:37:15.657455
1879  2023-10-27 14:37:15.689470
1880  2023-10-27 14:37:15.721500
1881  2023-10-27 14:37:15.769525
1882  2023-10-27 14:37:15.801500
1883  2023-10-27 14:37:15.833523
1884  2023-10-27 14:37:15.865486
1885  2023-10-27 14:37:15.898482
1886  2023-10-27 14:37:15.929355
1887  2023-10-27 14:37:15.961265
1888  2023-10-27 14:37:15.993215
1889  2023-10-27 14:37:16.026127
1890  2023-10-27 14:37:16.058094
1891  2023-10-27 14:37:16.089108
1892  2023-10-27 14:37:16.138009
1893  2023-10-27 14:37:16.169923
1894  2023-10-27 14:37:16.201914
1895  2023-10-27 14:37:16.233831
1896  2023-10-27 14:37:16.265749
1897  2023-10-27 14:37:16.297670
1898  2023-10-27 14:37:16.329579
1899  2023-10-27 14:37:16.361471
1900  2023-10-27 14:37:16.393401
1901  2023-10-27 14:37:16.425323
1902  2023-10-27 14:37:16.458251
1903  2023-10-27 14:37:16.489146
1904  2023-10-27 14:37:16.538037
1905  2023-10-27 14:37:16.569949
1906  2023-10-27 14:37:16.601817
1907  2023-10-27 14:37:16.633780
1908  2023-10-27 14:37:16.665675
1909  2023-10-27 14:37:16.697598
1910  2023-10-27 14:37:16.729472
1911  2023-10-27 14:37:16.762383
1912  2023-10-27 14:37:16.793401
1913  2023-10-27 14:37:16.825404
1914  2023-10-27 14:37:16.857395
1915  2023-10-27 14:37:16.890286
1916  2023-10-27 14:37:16.938198
1917  2023-10-27 14:37:16.970110
1918  2023-10-27 14:37:17.001018
1919  2023-10-27 14:37:17.033935
1920  2023-10-27 14:37:17.065837
1921  2023-10-27 14:37:17.098718
1922  2023-10-27 14:37:17.129685
1923  2023-10-27 14:37:17.161588
1924  2023-10-27 14:37:17.193502
1925  2023-10-27 14:37:17.225410
1926  2023-10-27 14:37:17.257350
1927  2023-10-27 14:37:17.289239
1928  2023-10-27 14:37:17.338076
1929  2023-10-27 14:37:17.370043
1930  2023-10-27 14:37:17.401967
1931  2023-10-27 14:37:17.433855
1932  2023-10-27 14:37:17.465767
1933  2023-10-27 14:37:17.497681
1934  2023-10-27 14:37:17.529566
1935  2023-10-27 14:37:17.561485
1936  2023-10-27 14:37:17.593425
1937  2023-10-27 14:37:17.625350
1938  2023-10-27 14:37:17.657260
1939  2023-10-27 14:37:17.689171
1940  2023-10-27 14:37:17.738008
1941  2023-10-27 14:37:17.769980
1942  2023-10-27 14:37:17.801894
1943  2023-10-27 14:37:17.833912
1944  2023-10-27 14:37:17.865865
1945  2023-10-27 14:37:17.897776
1946  2023-10-27 14:37:17.929723
1947  2023-10-27 14:37:17.961678
1948  2023-10-27 14:37:17.993600
1949  2023-10-27 14:37:18.025514
1950  2023-10-27 14:37:18.058473
1951  2023-10-27 14:37:18.089315
1952  2023-10-27 14:37:18.138191
1953  2023-10-27 14:37:18.169154
1954  2023-10-27 14:37:18.202052
1955  2023-10-27 14:37:18.232983
1956  2023-10-27 14:37:18.265874
1957  2023-10-27 14:37:18.297792
1958  2023-10-27 14:37:18.329864
1959  2023-10-27 14:37:18.361754
1960  2023-10-27 14:37:18.393671
1961  2023-10-27 14:37:18.425659
1962  2023-10-27 14:37:18.457673
1963  2023-10-27 14:37:18.489575
1964  2023-10-27 14:37:18.537448
1965  2023-10-27 14:37:18.569362
1966  2023-10-27 14:37:18.601279
1967  2023-10-27 14:37:18.633193
1968  2023-10-27 14:37:18.665107
1969  2023-10-27 14:37:18.698042
1970  2023-10-27 14:37:18.729976
1971  2023-10-27 14:37:18.761866
1972  2023-10-27 14:37:18.793767
1973  2023-10-27 14:37:18.825682
1974  2023-10-27 14:37:18.857600
1975  2023-10-27 14:37:18.889475
1976  2023-10-27 14:37:18.938367
1977  2023-10-27 14:37:18.970296
1978  2023-10-27 14:37:19.001224
1979  2023-10-27 14:37:19.033125
1980  2023-10-27 14:37:19.066036
1981  2023-10-27 14:37:19.097954
1982  2023-10-27 14:37:19.129867
1983  2023-10-27 14:37:19.161782
1984  2023-10-27 14:37:19.193700
1985  2023-10-27 14:37:19.225578
1986  2023-10-27 14:37:19.257532
1987  2023-10-27 14:37:19.289443
1988  2023-10-27 14:37:19.337279
1989  2023-10-27 14:37:19.369240
1990  2023-10-27 14:37:19.402106
1991  2023-10-27 14:37:19.433067
1992  2023-10-27 14:37:19.465967
1993  2023-10-27 14:37:19.497850
1994  2023-10-27 14:37:19.529813
1995  2023-10-27 14:37:19.561679
1996  2023-10-27 14:37:19.593627
1997  2023-10-27 14:37:19.625538
1998  2023-10-27 14:37:19.657459
1999  2023-10-27 14:37:19.689368
2000  2023-10-27 14:37:19.737238
2001  2023-10-27 14:37:19.769125
2002  2023-10-27 14:37:19.801083
2003  2023-10-27 14:37:19.833993
2004  2023-10-27 14:37:19.865907
2005  2023-10-27 14:37:19.897818
2006  2023-10-27 14:37:19.929732
2007  2023-10-27 14:37:19.961643
2008  2023-10-27 14:37:19.993566
2009  2023-10-27 14:37:20.025477
2010  2023-10-27 14:37:20.057388
2011  2023-10-27 14:37:20.105257
2012  2023-10-27 14:37:20.137173
2013  2023-10-27 14:37:20.169090
2014  2023-10-27 14:37:20.200970
2015  2023-10-27 14:37:20.233915
2016  2023-10-27 14:37:20.265827
2017  2023-10-27 14:37:20.297747
2018  2023-10-27 14:37:20.329660
2019  2023-10-27 14:37:20.361620
2020  2023-10-27 14:37:20.393616
2021  2023-10-27 14:37:20.425527
2022  2023-10-27 14:37:20.457409
2023  2023-10-27 14:37:20.505324
2024  2023-10-27 14:37:20.537234
2025  2023-10-27 14:37:20.569110
2026  2023-10-27 14:37:20.602022
2027  2023-10-27 14:37:20.633975
2028  2023-10-27 14:37:20.665898
2029  2023-10-27 14:37:20.697805
2030  2023-10-27 14:37:20.729714
2031  2023-10-27 14:37:20.761653
2032  2023-10-27 14:37:20.793594
2033  2023-10-27 14:37:20.825513
2034  2023-10-27 14:37:20.857487
2035  2023-10-27 14:37:20.905462
2036  2023-10-27 14:37:20.937441
2037  2023-10-27 14:37:20.969442
2038  2023-10-27 14:37:21.001351
2039  2023-10-27 14:37:21.033226
2040  2023-10-27 14:37:21.065171
2041  2023-10-27 14:37:21.097060
2042  2023-10-27 14:37:21.129004
2043  2023-10-27 14:37:21.161988
2044  2023-10-27 14:37:21.193985
2045  2023-10-27 14:37:21.225888
2046  2023-10-27 14:37:21.257807
2047  2023-10-27 14:37:21.305674
2048  2023-10-27 14:37:21.337594
2049  2023-10-27 14:37:21.369508
2050  2023-10-27 14:37:21.401419
2051  2023-10-27 14:37:21.433346
2052  2023-10-27 14:37:21.465266
2053  2023-10-27 14:37:21.497173
2054  2023-10-27 14:37:21.529089
2055  2023-10-27 14:37:21.561959
2056  2023-10-27 14:37:21.593911
2057  2023-10-27 14:37:21.625844
2058  2023-10-27 14:37:21.657849
2059  2023-10-27 14:37:21.705718
2060  2023-10-27 14:37:21.737684
2061  2023-10-27 14:37:21.769732
2062  2023-10-27 14:37:21.801653
2063  2023-10-27 14:37:21.833560
2064  2023-10-27 14:37:21.865527
2065  2023-10-27 14:37:21.897390
2066  2023-10-27 14:37:21.929304
2067  2023-10-27 14:37:21.961253
2068  2023-10-27 14:37:21.993177
2069  2023-10-27 14:37:22.025080
2070  2023-10-27 14:37:22.057963
2071  2023-10-27 14:37:22.105871
2072  2023-10-27 14:37:22.137748
2073  2023-10-27 14:37:22.169696
2074  2023-10-27 14:37:22.201672
2075  2023-10-27 14:37:22.233634
2076  2023-10-27 14:37:22.265533
2077  2023-10-27 14:37:22.297448
2078  2023-10-27 14:37:22.329493
2079  2023-10-27 14:37:22.361394
2080  2023-10-27 14:37:22.393319
2081  2023-10-27 14:37:22.425225
2082  2023-10-27 14:37:22.457137
2083  2023-10-27 14:37:22.505100
2084  2023-10-27 14:37:22.537989
2085  2023-10-27 14:37:22.569964
2086  2023-10-27 14:37:22.601873
2087  2023-10-27 14:37:22.633803
2088  2023-10-27 14:37:22.665708
2089  2023-10-27 14:37:22.697669
2090  2023-10-27 14:37:22.729584
2091  2023-10-27 14:37:22.762536
2092  2023-10-27 14:37:22.793450
2093  2023-10-27 14:37:22.825353
2094  2023-10-27 14:37:22.857239
2095  2023-10-27 14:37:22.905154
2096  2023-10-27 14:37:22.938057
2097  2023-10-27 14:37:22.969971
2098  2023-10-27 14:37:23.001885
2099  2023-10-27 14:37:23.033800
2100  2023-10-27 14:37:23.065723
2101  2023-10-27 14:37:23.097629
2102  2023-10-27 14:37:23.129512
2103  2023-10-27 14:37:23.161581
2104  2023-10-27 14:37:23.193509
2105  2023-10-27 14:37:23.225409
2106  2023-10-27 14:37:23.257325
2107  2023-10-27 14:37:23.305324
2108  2023-10-27 14:37:23.337307
2109  2023-10-27 14:37:23.369189
2110  2023-10-27 14:37:23.401104
2111  2023-10-27 14:37:23.434099
2112  2023-10-27 14:37:23.465046
2113  2023-10-27 14:37:23.497927
2114  2023-10-27 14:37:23.530032
2115  2023-10-27 14:37:23.561921
2116  2023-10-27 14:37:23.593073
2117  2023-10-27 14:37:23.625049
2118  2023-10-27 14:37:23.673939
2119  2023-10-27 14:37:23.705851
2120  2023-10-27 14:37:23.737749
2121  2023-10-27 14:37:23.769630
2122  2023-10-27 14:37:23.801576
2123  2023-10-27 14:37:23.833459
2124  2023-10-27 14:37:23.865402
2125  2023-10-27 14:37:23.897361
2126  2023-10-27 14:37:23.929392
2127  2023-10-27 14:37:23.961297
2128  2023-10-27 14:37:23.994215
2129  2023-10-27 14:37:24.025122
2130  2023-10-27 14:37:24.073985
2131  2023-10-27 14:37:24.105882
2132  2023-10-27 14:37:24.137817
2133  2023-10-27 14:37:24.169729
2134  2023-10-27 14:37:24.201649
2135  2023-10-27 14:37:24.233529
2136  2023-10-27 14:37:24.265489
2137  2023-10-27 14:37:24.297410
2138  2023-10-27 14:37:24.329307
2139  2023-10-27 14:37:24.361221
2140  2023-10-27 14:37:24.393132
2141  2023-10-27 14:37:24.425051
2142  2023-10-27 14:37:24.473917
2143  2023-10-27 14:37:24.505832
2144  2023-10-27 14:37:24.537748
2145  2023-10-27 14:37:24.569661
2146  2023-10-27 14:37:24.601577
2147  2023-10-27 14:37:24.633492
2148  2023-10-27 14:37:24.665411
2149  2023-10-27 14:37:24.697342
2150  2023-10-27 14:37:24.730201
2151  2023-10-27 14:37:24.761164
2152  2023-10-27 14:37:24.793067
2153  2023-10-27 14:37:24.824979
2154  2023-10-27 14:37:24.873847
2155  2023-10-27 14:37:24.905769
2156  2023-10-27 14:37:24.937675
2157  2023-10-27 14:37:24.969591
2158  2023-10-27 14:37:25.001505
2159  2023-10-27 14:37:25.033436
2160  2023-10-27 14:37:25.065344
2161  2023-10-27 14:37:25.097249
2162  2023-10-27 14:37:25.129167
2163  2023-10-27 14:37:25.161082
2164  2023-10-27 14:37:25.193995
2165  2023-10-27 14:37:25.225953
2166  2023-10-27 14:37:25.273865
2167  2023-10-27 14:37:25.305290
2168  2023-10-27 14:37:25.337200
2169  2023-10-27 14:37:25.369198
2170  2023-10-27 14:37:25.401073
2171  2023-10-27 14:37:25.433086
2172  2023-10-27 14:37:25.465002
2173  2023-10-27 14:37:25.497922
2174  2023-10-27 14:37:25.529825
2175  2023-10-27 14:37:25.561741
2176  2023-10-27 14:37:25.593657
2177  2023-10-27 14:37:25.625571
2178  2023-10-27 14:37:25.673454
2179  2023-10-27 14:37:25.705372
2180  2023-10-27 14:37:25.737271
2181  2023-10-27 14:37:25.769187
2182  2023-10-27 14:37:25.801102
2183  2023-10-27 14:37:25.834016
2184  2023-10-27 14:37:25.864930
2185  2023-10-27 14:37:25.897849
2186  2023-10-27 14:37:25.929756
2187  2023-10-27 14:37:25.961673
2188  2023-10-27 14:37:25.993586
2189  2023-10-27 14:37:26.025512
2190  2023-10-27 14:37:26.073376
2191  2023-10-27 14:37:26.105292
2192  2023-10-27 14:37:26.137215
2193  2023-10-27 14:37:26.169117
2194  2023-10-27 14:37:26.201031
2195  2023-10-27 14:37:26.233946
2196  2023-10-27 14:37:26.265860
2197  2023-10-27 14:37:26.297773
2198  2023-10-27 14:37:26.329776
2199  2023-10-27 14:37:26.361691
2200  2023-10-27 14:37:26.393608
2201  2023-10-27 14:37:26.425527
2202  2023-10-27 14:37:26.473399
2203  2023-10-27 14:37:26.505326
2204  2023-10-27 14:37:26.537232
2205  2023-10-27 14:37:26.569147
2206  2023-10-27 14:37:26.602060
2207  2023-10-27 14:37:26.633052
2208  2023-10-27 14:37:26.665972
2209  2023-10-27 14:37:26.698006
2210  2023-10-27 14:37:26.729920
2211  2023-10-27 14:37:26.761846
2212  2023-10-27 14:37:26.793749
2213  2023-10-27 14:37:26.825662
2214  2023-10-27 14:37:26.873533
2215  2023-10-27 14:37:26.905452
2216  2023-10-27 14:37:26.937363
2217  2023-10-27 14:37:26.969294
2218  2023-10-27 14:37:27.001195
2219  2023-10-27 14:37:27.033124
2220  2023-10-27 14:37:27.065990
2221  2023-10-27 14:37:27.097939
2222  2023-10-27 14:37:27.129862
2223  2023-10-27 14:37:27.161769
2224  2023-10-27 14:37:27.193684
2225  2023-10-27 14:37:27.225598
2226  2023-10-27 14:37:27.273471
2227  2023-10-27 14:37:27.305386
2228  2023-10-27 14:37:27.337296
2229  2023-10-27 14:37:27.369212
2230  2023-10-27 14:37:27.401133
2231  2023-10-27 14:37:27.434036
2232  2023-10-27 14:37:27.465970
2233  2023-10-27 14:37:27.497865
2234  2023-10-27 14:37:27.529781
2235  2023-10-27 14:37:27.561808
2236  2023-10-27 14:37:27.593749
2237  2023-10-27 14:37:27.641791
2238  2023-10-27 14:37:27.673700
2239  2023-10-27 14:37:27.705612
2240  2023-10-27 14:37:27.737525
2241  2023-10-27 14:37:27.769445
2242  2023-10-27 14:37:27.801355
2243  2023-10-27 14:37:27.833281
2244  2023-10-27 14:37:27.865195
2245  2023-10-27 14:37:27.897097
2246  2023-10-27 14:37:27.930014
2247  2023-10-27 14:37:27.961944
2248  2023-10-27 14:37:27.993845
2249  2023-10-27 14:37:28.041754
2250  2023-10-27 14:37:28.073669
2251  2023-10-27 14:37:28.105614
2252  2023-10-27 14:37:28.137529
2253  2023-10-27 14:37:28.169453
2254  2023-10-27 14:37:28.201379
2255  2023-10-27 14:37:28.233359
2256  2023-10-27 14:37:28.265279
2257  2023-10-27 14:37:28.297201
2258  2023-10-27 14:37:28.329102
2259  2023-10-27 14:37:28.361073
2260  2023-10-27 14:37:28.393945
2261  2023-10-27 14:37:28.441988
2262  2023-10-27 14:37:28.473920
2263  2023-10-27 14:37:28.505969
2264  2023-10-27 14:37:28.537014
2265  2023-10-27 14:37:28.569988
2266  2023-10-27 14:37:28.602017
2267  2023-10-27 14:37:28.633937
2268  2023-10-27 14:37:28.665841
2269  2023-10-27 14:37:28.697756
2270  2023-10-27 14:37:28.729673
2271  2023-10-27 14:37:28.761586
2272  2023-10-27 14:37:28.793526
2273  2023-10-27 14:37:28.841341
2274  2023-10-27 14:37:28.873290
2275  2023-10-27 14:37:28.905211
2276  2023-10-27 14:37:28.937131
2277  2023-10-27 14:37:28.969034
2278  2023-10-27 14:37:29.001952
2279  2023-10-27 14:37:29.033882
2280  2023-10-27 14:37:29.065777
2281  2023-10-27 14:37:29.097696
2282  2023-10-27 14:37:29.129604
2283  2023-10-27 14:37:29.161589
2284  2023-10-27 14:37:29.193501
2285  2023-10-27 14:37:29.241340
2286  2023-10-27 14:37:29.273293
2287  2023-10-27 14:37:29.306206
2288  2023-10-27 14:37:29.337120
2289  2023-10-27 14:37:29.369037
2290  2023-10-27 14:37:29.401946
2291  2023-10-27 14:37:29.433862
2292  2023-10-27 14:37:29.465778
2293  2023-10-27 14:37:29.497688
2294  2023-10-27 14:37:29.529604
2295  2023-10-27 14:37:29.561495
2296  2023-10-27 14:37:29.593427
2297  2023-10-27 14:37:29.641307
2298  2023-10-27 14:37:29.673186
2299  2023-10-27 14:37:29.705134
2300  2023-10-27 14:37:29.737052
2301  2023-10-27 14:37:29.769961
2302  2023-10-27 14:37:29.801874
2303  2023-10-27 14:37:29.833790
2304  2023-10-27 14:37:29.865720
2305  2023-10-27 14:37:29.897787
2306  2023-10-27 14:37:29.929700
2307  2023-10-27 14:37:29.961620
2308  2023-10-27 14:37:29.993583
2309  2023-10-27 14:37:30.041580
2310  2023-10-27 14:37:30.073541
2311  2023-10-27 14:37:30.105456
2312  2023-10-27 14:37:30.137442
2313  2023-10-27 14:37:30.169367
2314  2023-10-27 14:37:30.201281
2315  2023-10-27 14:37:30.233186
2316  2023-10-27 14:37:30.265099
2317  2023-10-27 14:37:30.297019
2318  2023-10-27 14:37:30.329931
2319  2023-10-27 14:37:30.361836
2320  2023-10-27 14:37:30.393832
2321  2023-10-27 14:37:30.441669
2322  2023-10-27 14:37:30.473584
2323  2023-10-27 14:37:30.505535
2324  2023-10-27 14:37:30.537450
2325  2023-10-27 14:37:30.569378
2326  2023-10-27 14:37:30.602272
2327  2023-10-27 14:37:30.634155
2328  2023-10-27 14:37:30.666117
2329  2023-10-27 14:37:30.697060
2330  2023-10-27 14:37:30.730030
2331  2023-10-27 14:37:30.761903
2332  2023-10-27 14:37:30.793819
2333  2023-10-27 14:37:30.841690
2334  2023-10-27 14:37:30.873762
2335  2023-10-27 14:37:30.905709
2336  2023-10-27 14:37:30.937622
2337  2023-10-27 14:37:30.969547
2338  2023-10-27 14:37:31.001456
2339  2023-10-27 14:37:31.033383
2340  2023-10-27 14:37:31.065285
2341  2023-10-27 14:37:31.097198
2342  2023-10-27 14:37:31.129121
2343  2023-10-27 14:37:31.161016
2344  2023-10-27 14:37:31.193964
2345  2023-10-27 14:37:31.241915
2346  2023-10-27 14:37:31.273886
2347  2023-10-27 14:37:31.305801
2348  2023-10-27 14:37:31.337907
2349  2023-10-27 14:37:31.369812
2350  2023-10-27 14:37:31.401853
2351  2023-10-27 14:37:31.433768
2352  2023-10-27 14:37:31.465683
2353  2023-10-27 14:37:31.497712
2354  2023-10-27 14:37:31.529635
2355  2023-10-27 14:37:31.561587
2356  2023-10-27 14:37:31.609473
2357  2023-10-27 14:37:31.641388
2358  2023-10-27 14:37:31.674302
2359  2023-10-27 14:37:31.706252
2360  2023-10-27 14:37:31.737164
2361  2023-10-27 14:37:31.770047
2362  2023-10-27 14:37:31.801993
2363  2023-10-27 14:37:31.833920
2364  2023-10-27 14:37:31.865836
2365  2023-10-27 14:37:31.897833
2366  2023-10-27 14:37:31.929716
2367  2023-10-27 14:37:31.961662
2368  2023-10-27 14:37:32.009605
2369  2023-10-27 14:37:32.041519
2370  2023-10-27 14:37:32.073434
2371  2023-10-27 14:37:32.105386
2372  2023-10-27 14:37:32.138304
2373  2023-10-27 14:37:32.169219
2374  2023-10-27 14:37:32.201126
2375  2023-10-27 14:37:32.233040
2376  2023-10-27 14:37:32.265951
2377  2023-10-27 14:37:32.297867
2378  2023-10-27 14:37:32.329782
2379  2023-10-27 14:37:32.361696
2380  2023-10-27 14:37:32.409568
2381  2023-10-27 14:37:32.441518
2382  2023-10-27 14:37:32.473483
2383  2023-10-27 14:37:32.505380
2384  2023-10-27 14:37:32.537295
2385  2023-10-27 14:37:32.569206
2386  2023-10-27 14:37:32.601091
2387  2023-10-27 14:37:32.634040
2388  2023-10-27 14:37:32.665955
2389  2023-10-27 14:37:32.697893
2390  2023-10-27 14:37:32.729747
2391  2023-10-27 14:37:32.761694
2392  2023-10-27 14:37:32.809619
2393  2023-10-27 14:37:32.841539
2394  2023-10-27 14:37:32.873454
2395  2023-10-27 14:37:32.905406
2396  2023-10-27 14:37:32.937331
2397  2023-10-27 14:37:32.969241
2398  2023-10-27 14:37:33.001156
2399  2023-10-27 14:37:33.033061
2400  2023-10-27 14:37:33.064977
2401  2023-10-27 14:37:33.097890
2402  2023-10-27 14:37:33.129800
2403  2023-10-27 14:37:33.161735
2404  2023-10-27 14:37:33.209641
2405  2023-10-27 14:37:33.241556
2406  2023-10-27 14:37:33.273556
2407  2023-10-27 14:37:33.305505
2408  2023-10-27 14:37:33.337418
2409  2023-10-27 14:37:33.369332
2410  2023-10-27 14:37:33.401255
2411  2023-10-27 14:37:33.434129
2412  2023-10-27 14:37:33.466076
2413  2023-10-27 14:37:33.497993
2414  2023-10-27 14:37:33.529925
2415  2023-10-27 14:37:33.561786
2416  2023-10-27 14:37:33.609658
2417  2023-10-27 14:37:33.641573
2418  2023-10-27 14:37:33.673487
2419  2023-10-27 14:37:33.705433
2420  2023-10-27 14:37:33.737318
2421  2023-10-27 14:37:33.769233
2422  2023-10-27 14:37:33.801283
2423  2023-10-27 14:37:33.833310
2424  2023-10-27 14:37:33.865222
2425  2023-10-27 14:37:33.897135
2426  2023-10-27 14:37:33.930014
2427  2023-10-27 14:37:33.961968
2428  2023-10-27 14:37:34.009801
2429  2023-10-27 14:37:34.041716
2430  2023-10-27 14:37:34.073631
2431  2023-10-27 14:37:34.105575
2432  2023-10-27 14:37:34.137491
2433  2023-10-27 14:37:34.169440
2434  2023-10-27 14:37:34.201323
2435  2023-10-27 14:37:34.233344
2436  2023-10-27 14:37:34.265239
2437  2023-10-27 14:37:34.297164
2438  2023-10-27 14:37:34.329068
2439  2023-10-27 14:37:34.360983
2440  2023-10-27 14:37:34.409911
2441  2023-10-27 14:37:34.441903
2442  2023-10-27 14:37:34.473907
2443  2023-10-27 14:37:34.506024
2444  2023-10-27 14:37:34.537946
2445  2023-10-27 14:37:34.569847
2446  2023-10-27 14:37:34.601756
2447  2023-10-27 14:37:34.633685
2448  2023-10-27 14:37:34.665588
2449  2023-10-27 14:37:34.697657
2450  2023-10-27 14:37:34.729529
2451  2023-10-27 14:37:34.761454
2452  2023-10-27 14:37:34.809314
2453  2023-10-27 14:37:34.841234
2454  2023-10-27 14:37:34.873148
2455  2023-10-27 14:37:34.905068
2456  2023-10-27 14:37:34.937971
2457  2023-10-27 14:37:34.969887
2458  2023-10-27 14:37:35.001831
2459  2023-10-27 14:37:35.033845
2460  2023-10-27 14:37:35.065759
2461  2023-10-27 14:37:35.097634
2462  2023-10-27 14:37:35.129593
2463  2023-10-27 14:37:35.177418
2464  2023-10-27 14:37:35.209333
2465  2023-10-27 14:37:35.241248
2466  2023-10-27 14:37:35.273245
2467  2023-10-27 14:37:35.305252
2468  2023-10-27 14:37:35.337165
2469  2023-10-27 14:37:35.369081
2470  2023-10-27 14:37:35.401994
2471  2023-10-27 14:37:35.433875
2472  2023-10-27 14:37:35.465824
2473  2023-10-27 14:37:35.497734
2474  2023-10-27 14:37:35.529651
2475  2023-10-27 14:37:35.577488
2476  2023-10-27 14:37:35.609434
2477  2023-10-27 14:37:35.641318
2478  2023-10-27 14:37:35.673233
2479  2023-10-27 14:37:35.705186
2480  2023-10-27 14:37:35.737107
2481  2023-10-27 14:37:35.770011
2482  2023-10-27 14:37:35.801951
2483  2023-10-27 14:37:35.833834
2484  2023-10-27 14:37:35.865774
2485  2023-10-27 14:37:35.897668
2486  2023-10-27 14:37:35.929586
2487  2023-10-27 14:37:35.977419
2488  2023-10-27 14:37:36.009340
2489  2023-10-27 14:37:36.041248
2490  2023-10-27 14:37:36.073163
2491  2023-10-27 14:37:36.106076
2492  2023-10-27 14:37:36.138024
2493  2023-10-27 14:37:36.169935
2494  2023-10-27 14:37:36.201848
2495  2023-10-27 14:37:36.233770
2496  2023-10-27 14:37:36.265650
2497  2023-10-27 14:37:36.297595
2498  2023-10-27 14:37:36.329521
2499  2023-10-27 14:37:36.377430
2500  2023-10-27 14:37:36.409313
2501  2023-10-27 14:37:36.441261
2502  2023-10-27 14:37:36.473142
2503  2023-10-27 14:37:36.505185
2504  2023-10-27 14:37:36.537140
2505  2023-10-27 14:37:36.569169
2506  2023-10-27 14:37:36.601199
2507  2023-10-27 14:37:36.633106
2508  2023-10-27 14:37:36.665989
2509  2023-10-27 14:37:36.697944
2510  2023-10-27 14:37:36.729853
2511  2023-10-27 14:37:36.777688
2512  2023-10-27 14:37:36.809699
2513  2023-10-27 14:37:36.841720
2514  2023-10-27 14:37:36.873634
2515  2023-10-27 14:37:36.905591
2516  2023-10-27 14:37:36.937499
2517  2023-10-27 14:37:36.969402
2518  2023-10-27 14:37:37.001336
2519  2023-10-27 14:37:37.033246
2520  2023-10-27 14:37:37.065160
2521  2023-10-27 14:37:37.098149
2522  2023-10-27 14:37:37.130132
2523  2023-10-27 14:37:37.178114
2524  2023-10-27 14:37:37.210117
2525  2023-10-27 14:37:37.242032
2526  2023-10-27 14:37:37.273948
2527  2023-10-27 14:37:37.305864
2528  2023-10-27 14:37:37.337810
2529  2023-10-27 14:37:37.369731
2530  2023-10-27 14:37:37.401638
2531  2023-10-27 14:37:37.433521
2532  2023-10-27 14:37:37.465479
2533  2023-10-27 14:37:37.497385
2534  2023-10-27 14:37:37.529305
2535  2023-10-27 14:37:37.577136
2536  2023-10-27 14:37:37.610049
2537  2023-10-27 14:37:37.641001
2538  2023-10-27 14:37:37.673877
2539  2023-10-27 14:37:37.705838
2540  2023-10-27 14:37:37.737743
2541  2023-10-27 14:37:37.769685
2542  2023-10-27 14:37:37.801674
2543  2023-10-27 14:37:37.833591
2544  2023-10-27 14:37:37.865518
2545  2023-10-27 14:37:37.897433
2546  2023-10-27 14:37:37.929437
2547  2023-10-27 14:37:37.977270
2548  2023-10-27 14:37:38.009185
2549  2023-10-27 14:37:38.041102
2550  2023-10-27 14:37:38.073014
2551  2023-10-27 14:37:38.105958
2552  2023-10-27 14:37:38.137876
2553  2023-10-27 14:37:38.169800
2554  2023-10-27 14:37:38.201710
2555  2023-10-27 14:37:38.233624
2556  2023-10-27 14:37:38.265511
2557  2023-10-27 14:37:38.297451
2558  2023-10-27 14:37:38.329364
2559  2023-10-27 14:37:38.377201
2560  2023-10-27 14:37:38.409116
2561  2023-10-27 14:37:38.441067
2562  2023-10-27 14:37:38.473974
2563  2023-10-27 14:37:38.505907
2564  2023-10-27 14:37:38.537812
2565  2023-10-27 14:37:38.569694
2566  2023-10-27 14:37:38.601634
2567  2023-10-27 14:37:38.633547
2568  2023-10-27 14:37:38.665478
2569  2023-10-27 14:37:38.697375
2570  2023-10-27 14:37:38.729300
2571  2023-10-27 14:37:38.777132
2572  2023-10-27 14:37:38.809046
2573  2023-10-27 14:37:38.841049
2574  2023-10-27 14:37:38.873923
2575  2023-10-27 14:37:38.905937
2576  2023-10-27 14:37:38.937874
2577  2023-10-27 14:37:38.969799
2578  2023-10-27 14:37:39.001693
2579  2023-10-27 14:37:39.033571
2580  2023-10-27 14:37:39.065595
2581  2023-10-27 14:37:39.097477
2582  2023-10-27 14:37:39.145377
2583  2023-10-27 14:37:39.177261
2584  2023-10-27 14:37:39.209176
2585  2023-10-27 14:37:39.241090
2586  2023-10-27 14:37:39.273042
2587  2023-10-27 14:37:39.305919
2588  2023-10-27 14:37:39.337866
2589  2023-10-27 14:37:39.369781
2590  2023-10-27 14:37:39.401710
2591  2023-10-27 14:37:39.433722
2592  2023-10-27 14:37:39.465044
2593  2023-10-27 14:37:39.498008
2594  2023-10-27 14:37:39.545065
2595  2023-10-27 14:37:39.576980
2596  2023-10-27 14:37:39.609892
2597  2023-10-27 14:37:39.641806
2598  2023-10-27 14:37:39.673721
2599  2023-10-27 14:37:39.705637
2600  2023-10-27 14:37:39.737581
2601  2023-10-27 14:37:39.769514
2602  2023-10-27 14:37:39.801416
2603  2023-10-27 14:37:39.833337
2604  2023-10-27 14:37:39.865353
2605  2023-10-27 14:37:39.897269
2606  2023-10-27 14:37:39.945094
2607  2023-10-27 14:37:39.977043
2608  2023-10-27 14:37:40.009927
2609  2023-10-27 14:37:40.041836
2610  2023-10-27 14:37:40.073750
2611  2023-10-27 14:37:40.105716
2612  2023-10-27 14:37:40.137616
2613  2023-10-27 14:37:40.169531
2614  2023-10-27 14:37:40.201441
2615  2023-10-27 14:37:40.233359
2616  2023-10-27 14:37:40.265269
2617  2023-10-27 14:37:40.297188
2618  2023-10-27 14:37:40.345025
2619  2023-10-27 14:37:40.377937
2620  2023-10-27 14:37:40.409852
2621  2023-10-27 14:37:40.441893
2622  2023-10-27 14:37:40.473820
2623  2023-10-27 14:37:40.505722
2624  2023-10-27 14:37:40.537636
2625  2023-10-27 14:37:40.569557
2626  2023-10-27 14:37:40.601444
2627  2023-10-27 14:37:40.633386
2628  2023-10-27 14:37:40.665308
2629  2023-10-27 14:37:40.697211
2630  2023-10-27 14:37:40.746048
2631  2023-10-27 14:37:40.777963
2632  2023-10-27 14:37:40.809878
2633  2023-10-27 14:37:40.841792
2634  2023-10-27 14:37:40.873707
2635  2023-10-27 14:37:40.905657
2636  2023-10-27 14:37:40.937587
2637  2023-10-27 14:37:40.970507
2638  2023-10-27 14:37:41.001400
2639  2023-10-27 14:37:41.033314
2640  2023-10-27 14:37:41.066271
2641  2023-10-27 14:37:41.098260
2642  2023-10-27 14:37:41.146253
2643  2023-10-27 14:37:41.177266
2644  2023-10-27 14:37:41.209180
2645  2023-10-27 14:37:41.241098
2646  2023-10-27 14:37:41.274098
2647  2023-10-27 14:37:41.306073
2648  2023-10-27 14:37:41.338042
2649  2023-10-27 14:37:41.369965
2650  2023-10-27 14:37:41.401948
2651  2023-10-27 14:37:41.433838
2652  2023-10-27 14:37:41.465777
2653  2023-10-27 14:37:41.497682
2654  2023-10-27 14:37:41.546624
2655  2023-10-27 14:37:41.577510
2656  2023-10-27 14:37:41.611452
2657  2023-10-27 14:37:41.641371
2658  2023-10-27 14:37:41.673283
2659  2023-10-27 14:37:41.705270
2660  2023-10-27 14:37:41.739151
2661  2023-10-27 14:37:41.769158
2662  2023-10-27 14:37:41.801079
2663  2023-10-27 14:37:41.834986
2664  2023-10-27 14:37:41.866908
2665  2023-10-27 14:37:41.898862
2666  2023-10-27 14:37:41.945811
2667  2023-10-27 14:37:41.978753
2668  2023-10-27 14:37:42.010689
2669  2023-10-27 14:37:42.042588
2670  2023-10-27 14:37:42.074496
2671  2023-10-27 14:37:42.106596
2672  2023-10-27 14:37:42.138501
2673  2023-10-27 14:37:42.170413
2674  2023-10-27 14:37:42.202332
2675  2023-10-27 14:37:42.235256
2676  2023-10-27 14:37:42.267187
2677  2023-10-27 14:37:42.298086
2678  2023-10-27 14:37:42.346942
2679  2023-10-27 14:37:42.378852
2680  2023-10-27 14:37:42.410751
2681  2023-10-27 14:37:42.442686
2682  2023-10-27 14:37:42.474602
2683  2023-10-27 14:37:42.506511
2684  2023-10-27 14:37:42.538431
2685  2023-10-27 14:37:42.570343
2686  2023-10-27 14:37:42.602270
2687  2023-10-27 14:37:42.634187
2688  2023-10-27 14:37:42.666212
2689  2023-10-27 14:37:42.714100
2690  2023-10-27 14:37:42.746974
2691  2023-10-27 14:37:42.777914
2692  2023-10-27 14:37:42.810569
2693  2023-10-27 14:37:42.842424
2694  2023-10-27 14:37:42.874383
2695  2023-10-27 14:37:42.906325
2696  2023-10-27 14:37:42.938337
2697  2023-10-27 14:37:42.970253
2698  2023-10-27 14:37:43.002157
2699  2023-10-27 14:37:43.034079
2700  2023-10-27 14:37:43.065986
2701  2023-10-27 14:37:43.113849
2702  2023-10-27 14:37:43.145740
2703  2023-10-27 14:37:43.178677
2704  2023-10-27 14:37:43.210600
2705  2023-10-27 14:37:43.242548
2706  2023-10-27 14:37:43.274500
2707  2023-10-27 14:37:43.306502
2708  2023-10-27 14:37:43.338401
2709  2023-10-27 14:37:43.370315
2710  2023-10-27 14:37:43.402196
2711  2023-10-27 14:37:43.434161
2712  2023-10-27 14:37:43.466051
2713  2023-10-27 14:37:43.513931
2714  2023-10-27 14:37:43.545845
2715  2023-10-27 14:37:43.577759
2716  2023-10-27 14:37:43.609679
2717  2023-10-27 14:37:43.642599
2718  2023-10-27 14:37:43.674504
2719  2023-10-27 14:37:43.706430
2720  2023-10-27 14:37:43.738357
2721  2023-10-27 14:37:43.770244
2722  2023-10-27 14:37:43.802128
2723  2023-10-27 14:37:43.834075
2724  2023-10-27 14:37:43.865988
2725  2023-10-27 14:37:43.913861
2726  2023-10-27 14:37:43.945775
2727  2023-10-27 14:37:43.977683
2728  2023-10-27 14:37:44.009604
2729  2023-10-27 14:37:44.042520
2730  2023-10-27 14:37:44.073473
2731  2023-10-27 14:37:44.106349
2732  2023-10-27 14:37:44.138265
2733  2023-10-27 14:37:44.170201
2734  2023-10-27 14:37:44.202091
2735  2023-10-27 14:37:44.234009
2736  2023-10-27 14:37:44.265904
2737  2023-10-27 14:37:44.313791
2738  2023-10-27 14:37:44.345707
2739  2023-10-27 14:37:44.377619
2740  2023-10-27 14:37:44.409535
2741  2023-10-27 14:37:44.441469
2742  2023-10-27 14:37:44.473333
2743  2023-10-27 14:37:44.506293
2744  2023-10-27 14:37:44.538208
2745  2023-10-27 14:37:44.570075
2746  2023-10-27 14:37:44.601990
2747  2023-10-27 14:37:44.633939
2748  2023-10-27 14:37:44.665866
2749  2023-10-27 14:37:44.713728
2750  2023-10-27 14:37:44.745651
2751  2023-10-27 14:37:44.777553
2752  2023-10-27 14:37:44.809483
2753  2023-10-27 14:37:44.841380
2754  2023-10-27 14:37:44.873349
2755  2023-10-27 14:37:44.905332
2756  2023-10-27 14:37:44.937230
2757  2023-10-27 14:37:44.969148
2758  2023-10-27 14:37:45.002037
2759  2023-10-27 14:37:45.033952
2760  2023-10-27 14:37:45.065855
2761  2023-10-27 14:37:45.113757
2762  2023-10-27 14:37:45.145715
2763  2023-10-27 14:37:45.177670
2764  2023-10-27 14:37:45.209544
2765  2023-10-27 14:37:45.241458
2766  2023-10-27 14:37:45.273410
2767  2023-10-27 14:37:45.305324
2768  2023-10-27 14:37:45.337282
2769  2023-10-27 14:37:45.371192
2770  2023-10-27 14:37:45.402086
2771  2023-10-27 14:37:45.434016
2772  2023-10-27 14:37:45.465967
2773  2023-10-27 14:37:45.513851
2774  2023-10-27 14:37:45.546888
2775  2023-10-27 14:37:45.578802
2776  2023-10-27 14:37:45.610764
2777  2023-10-27 14:37:45.641630
2778  2023-10-27 14:37:45.673678
2779  2023-10-27 14:37:45.706683
2780  2023-10-27 14:37:45.737542
2781  2023-10-27 14:37:45.770483
2782  2023-10-27 14:37:45.801402
2783  2023-10-27 14:37:45.833321
2784  2023-10-27 14:37:45.865233
2785  2023-10-27 14:37:45.913108
2786  2023-10-27 14:37:45.947128
2787  2023-10-27 14:37:45.979028
2788  2023-10-27 14:37:46.010887
2789  2023-10-27 14:37:46.041831
2790  2023-10-27 14:37:46.073635
2791  2023-10-27 14:37:46.105558
2792  2023-10-27 14:37:46.138590
2793  2023-10-27 14:37:46.170508
2794  2023-10-27 14:37:46.201423
2795  2023-10-27 14:37:46.233326
2796  2023-10-27 14:37:46.266204
2797  2023-10-27 14:37:46.314120
2798  2023-10-27 14:37:46.347030
2799  2023-10-27 14:37:46.378967
2800  2023-10-27 14:37:46.410856
2801  2023-10-27 14:37:46.441765
2802  2023-10-27 14:37:46.474661
2803  2023-10-27 14:37:46.506602
2804  2023-10-27 14:37:46.538522
2805  2023-10-27 14:37:46.571436
2806  2023-10-27 14:37:46.602332
2807  2023-10-27 14:37:46.634221
2808  2023-10-27 14:37:46.682115
2809  2023-10-27 14:37:46.713009
2810  2023-10-27 14:37:46.746955
2811  2023-10-27 14:37:46.778880
2812  2023-10-27 14:37:46.810780
2813  2023-10-27 14:37:46.841698
2814  2023-10-27 14:37:46.873580
2815  2023-10-27 14:37:46.907521
2816  2023-10-27 14:37:46.937410
2817  2023-10-27 14:37:46.971374
2818  2023-10-27 14:37:47.001279
2819  2023-10-27 14:37:47.033165
2820  2023-10-27 14:37:47.081025
2821  2023-10-27 14:37:47.113937
2822  2023-10-27 14:37:47.145883
2823  2023-10-27 14:37:47.177797
2824  2023-10-27 14:37:47.209714
2825  2023-10-27 14:37:47.241596
2826  2023-10-27 14:37:47.273543
2827  2023-10-27 14:37:47.306425
2828  2023-10-27 14:37:47.338375
2829  2023-10-27 14:37:47.370334
2830  2023-10-27 14:37:47.401339
2831  2023-10-27 14:37:47.433266
2832  2023-10-27 14:37:47.481127
2833  2023-10-27 14:37:47.513045
2834  2023-10-27 14:37:47.545954
2835  2023-10-27 14:37:47.577873
2836  2023-10-27 14:37:47.609913
2837  2023-10-27 14:37:47.641807
2838  2023-10-27 14:37:47.673721
2839  2023-10-27 14:37:47.705667
2840  2023-10-27 14:37:47.738580
2841  2023-10-27 14:37:47.770495
2842  2023-10-27 14:37:47.802380
2843  2023-10-27 14:37:47.833481
2844  2023-10-27 14:37:47.881344
2845  2023-10-27 14:37:47.913259
2846  2023-10-27 14:37:47.946217
2847  2023-10-27 14:37:47.978121
2848  2023-10-27 14:37:48.010038
2849  2023-10-27 14:37:48.041915
2850  2023-10-27 14:37:48.073869
2851  2023-10-27 14:37:48.105781
2852  2023-10-27 14:37:48.138658
2853  2023-10-27 14:37:48.170622
2854  2023-10-27 14:37:48.201484
2855  2023-10-27 14:37:48.233537
2856  2023-10-27 14:37:48.281453
2857  2023-10-27 14:37:48.314335
2858  2023-10-27 14:37:48.346249
2859  2023-10-27 14:37:48.377166
2860  2023-10-27 14:37:48.410082
2861  2023-10-27 14:37:48.441994
2862  2023-10-27 14:37:48.473962
2863  2023-10-27 14:37:48.505885
2864  2023-10-27 14:37:48.537875
2865  2023-10-27 14:37:48.569789
2866  2023-10-27 14:37:48.602673
2867  2023-10-27 14:37:48.633619
2868  2023-10-27 14:37:48.683513
2869  2023-10-27 14:37:48.713374
2870  2023-10-27 14:37:48.745341
2871  2023-10-27 14:37:48.777242
2872  2023-10-27 14:37:48.809253
2873  2023-10-27 14:37:48.841181
2874  2023-10-27 14:37:48.873110
2875  2023-10-27 14:37:48.905062
2876  2023-10-27 14:37:48.938121
2877  2023-10-27 14:37:48.970016
2878  2023-10-27 14:37:49.001930
2879  2023-10-27 14:37:49.033844
2880  2023-10-27 14:37:49.081715
2881  2023-10-27 14:37:49.113635
2882  2023-10-27 14:37:49.145550
2883  2023-10-27 14:37:49.177471
2884  2023-10-27 14:37:49.209377
2885  2023-10-27 14:37:49.241301
2886  2023-10-27 14:37:49.273289
2887  2023-10-27 14:37:49.305204
2888  2023-10-27 14:37:49.338203
2889  2023-10-27 14:37:49.370074
2890  2023-10-27 14:37:49.402033
2891  2023-10-27 14:37:49.433905
2892  2023-10-27 14:37:49.481911
2893  2023-10-27 14:37:49.513776
2894  2023-10-27 14:37:49.545690
2895  2023-10-27 14:37:49.577647
2896  2023-10-27 14:37:49.609545
2897  2023-10-27 14:37:49.641480
2898  2023-10-27 14:37:49.673349
2899  2023-10-27 14:37:49.705302
2900  2023-10-27 14:37:49.738237
2901  2023-10-27 14:37:49.770137
2902  2023-10-27 14:37:49.802010
2903  2023-10-27 14:37:49.833967
2904  2023-10-27 14:37:49.881824
2905  2023-10-27 14:37:49.913738
2906  2023-10-27 14:37:49.945653
2907  2023-10-27 14:37:49.977581
2908  2023-10-27 14:37:50.009492
2909  2023-10-27 14:37:50.041468
2910  2023-10-27 14:37:50.073364
2911  2023-10-27 14:37:50.105317
2912  2023-10-27 14:37:50.138258
2913  2023-10-27 14:37:50.169191
2914  2023-10-27 14:37:50.202119
2915  2023-10-27 14:37:50.249973
2916  2023-10-27 14:37:50.281885
2917  2023-10-27 14:37:50.313800
2918  2023-10-27 14:37:50.345715
2919  2023-10-27 14:37:50.377635
2920  2023-10-27 14:37:50.409636
2921  2023-10-27 14:37:50.441562
2922  2023-10-27 14:37:50.473437
2923  2023-10-27 14:37:50.505376
2924  2023-10-27 14:37:50.538304
2925  2023-10-27 14:37:50.569214
2926  2023-10-27 14:37:50.602267
2927  2023-10-27 14:37:50.650191
2928  2023-10-27 14:37:50.682089
2929  2023-10-27 14:37:50.713970
2930  2023-10-27 14:37:50.745882
2931  2023-10-27 14:37:50.777839
2932  2023-10-27 14:37:50.809777
2933  2023-10-27 14:37:50.841626
2934  2023-10-27 14:37:50.873571
2935  2023-10-27 14:37:50.905486
2936  2023-10-27 14:37:50.938401
2937  2023-10-27 14:37:50.969342
2938  2023-10-27 14:37:51.002251
2939  2023-10-27 14:37:51.049073
2940  2023-10-27 14:37:51.082014
2941  2023-10-27 14:37:51.113931
2942  2023-10-27 14:37:51.145843
2943  2023-10-27 14:37:51.177752
2944  2023-10-27 14:37:51.209705
2945  2023-10-27 14:37:51.241620
2946  2023-10-27 14:37:51.273622
2947  2023-10-27 14:37:51.305530
2948  2023-10-27 14:37:51.337445
2949  2023-10-27 14:37:51.369365
2950  2023-10-27 14:37:51.401283
2951  2023-10-27 14:37:51.449147
2952  2023-10-27 14:37:51.482069
2953  2023-10-27 14:37:51.513982
2954  2023-10-27 14:37:51.545856
2955  2023-10-27 14:37:51.577806
2956  2023-10-27 14:37:51.609718
2957  2023-10-27 14:37:51.641602
2958  2023-10-27 14:37:51.673515
2959  2023-10-27 14:37:51.705469
2960  2023-10-27 14:37:51.737378
2961  2023-10-27 14:37:51.769362
2962  2023-10-27 14:37:51.802247
2963  2023-10-27 14:37:51.850151
2964  2023-10-27 14:37:51.881067
2965  2023-10-27 14:37:51.913953
2966  2023-10-27 14:37:51.946022
2967  2023-10-27 14:37:51.978009
2968  2023-10-27 14:37:52.009971
2969  2023-10-27 14:37:52.041902
2970  2023-10-27 14:37:52.073882
2971  2023-10-27 14:37:52.105763
2972  2023-10-27 14:37:52.137677
2973  2023-10-27 14:37:52.169753
2974  2023-10-27 14:37:52.201618
2975  2023-10-27 14:37:52.249522
2976  2023-10-27 14:37:52.281447
2977  2023-10-27 14:37:52.313349
2978  2023-10-27 14:37:52.345276
2979  2023-10-27 14:37:52.377198
2980  2023-10-27 14:37:52.409094
2981  2023-10-27 14:37:52.442008
2982  2023-10-27 14:37:52.473937
2983  2023-10-27 14:37:52.505837
2984  2023-10-27 14:37:52.537752
2985  2023-10-27 14:37:52.569633
2986  2023-10-27 14:37:52.602579
2987  2023-10-27 14:37:52.649493
2988  2023-10-27 14:37:52.681511
2989  2023-10-27 14:37:52.713401
2990  2023-10-27 14:37:52.745287
2991  2023-10-27 14:37:52.777243
2992  2023-10-27 14:37:52.809153
2993  2023-10-27 14:37:52.842071
2994  2023-10-27 14:37:52.873989
2995  2023-10-27 14:37:52.905911
2996  2023-10-27 14:37:52.937829
2997  2023-10-27 14:37:52.969688
2998  2023-10-27 14:37:53.001604
2999  2023-10-27 14:37:53.049508
3000  2023-10-27 14:37:53.081421
3001  2023-10-27 14:37:53.113341
3002  2023-10-27 14:37:53.146216
3003  2023-10-27 14:37:53.178173
3004  2023-10-27 14:37:53.209094
3005  2023-10-27 14:37:53.242025
3006  2023-10-27 14:37:53.273875
3007  2023-10-27 14:37:53.305807
3008  2023-10-27 14:37:53.337740
3009  2023-10-27 14:37:53.369653
3010  2023-10-27 14:37:53.401533
3011  2023-10-27 14:37:53.449448
3012  2023-10-27 14:37:53.482355
3013  2023-10-27 14:37:53.513236
3014  2023-10-27 14:37:53.546146
3015  2023-10-27 14:37:53.577103
3016  2023-10-27 14:37:53.610001
3017  2023-10-27 14:37:53.642022
3018  2023-10-27 14:37:53.673887
3019  2023-10-27 14:37:53.705843
3020  2023-10-27 14:37:53.737860
3021  2023-10-27 14:37:53.769745
3022  2023-10-27 14:37:53.801697
3023  2023-10-27 14:37:53.849565
3024  2023-10-27 14:37:53.881487
3025  2023-10-27 14:37:53.913405
3026  2023-10-27 14:37:53.946315
3027  2023-10-27 14:37:53.977302
3028  2023-10-27 14:37:54.009214
3029  2023-10-27 14:37:54.041134
3030  2023-10-27 14:37:54.073050
3031  2023-10-27 14:37:54.105966
3032  2023-10-27 14:37:54.137877
3033  2023-10-27 14:37:54.169788
3034  2023-10-27 14:37:54.218656
3035  2023-10-27 14:37:54.249575
3036  2023-10-27 14:37:54.281490
3037  2023-10-27 14:37:54.313429
3038  2023-10-27 14:37:54.346319
3039  2023-10-27 14:37:54.377200
3040  2023-10-27 14:37:54.409155
3041  2023-10-27 14:37:54.442027
3042  2023-10-27 14:37:54.473942
3043  2023-10-27 14:37:54.505856
3044  2023-10-27 14:37:54.537771
3045  2023-10-27 14:37:54.569685
3046  2023-10-27 14:37:54.617722
3047  2023-10-27 14:37:54.649612
3048  2023-10-27 14:37:54.681553
3049  2023-10-27 14:37:54.713468
3050  2023-10-27 14:37:54.745274
3051  2023-10-27 14:37:54.777173
3052  2023-10-27 14:37:54.809128
3053  2023-10-27 14:37:54.841161
3054  2023-10-27 14:37:54.873133
3055  2023-10-27 14:37:54.905029
3056  2023-10-27 14:37:54.937952
3057  2023-10-27 14:37:54.969837
3058  2023-10-27 14:37:55.017696
3059  2023-10-27 14:37:55.049646
3060  2023-10-27 14:37:55.081560
3061  2023-10-27 14:37:55.113475
3062  2023-10-27 14:37:55.145437
3063  2023-10-27 14:37:55.177405
3064  2023-10-27 14:37:55.209351
3065  2023-10-27 14:37:55.241267
3066  2023-10-27 14:37:55.274149
3067  2023-10-27 14:37:55.306064
3068  2023-10-27 14:37:55.338013
3069  2023-10-27 14:37:55.369926
3070  2023-10-27 14:37:55.417763
3071  2023-10-27 14:37:55.449717
3072  2023-10-27 14:37:55.481593
3073  2023-10-27 14:37:55.513516
3074  2023-10-27 14:37:55.545485
3075  2023-10-27 14:37:55.577372
3076  2023-10-27 14:37:55.609251
3077  2023-10-27 14:37:55.641208
3078  2023-10-27 14:37:55.673112
3079  2023-10-27 14:37:55.705027
3080  2023-10-27 14:37:55.737947
3081  2023-10-27 14:37:55.769823
3082  2023-10-27 14:37:55.817774
3083  2023-10-27 14:37:55.849645
3084  2023-10-27 14:37:55.881596
3085  2023-10-27 14:37:55.913524
3086  2023-10-27 14:37:55.945465
3087  2023-10-27 14:37:55.977385
3088  2023-10-27 14:37:56.009305
3089  2023-10-27 14:37:56.041220
3090  2023-10-27 14:37:56.073126
3091  2023-10-27 14:37:56.105041
3092  2023-10-27 14:37:56.137965
3093  2023-10-27 14:37:56.169838
3094  2023-10-27 14:37:56.217709
3095  2023-10-27 14:37:56.249666
3096  2023-10-27 14:37:56.281573
3097  2023-10-27 14:37:56.313455
3098  2023-10-27 14:37:56.345370
3099  2023-10-27 14:37:56.377327
3100  2023-10-27 14:37:56.409197
3101  2023-10-27 14:37:56.441150
3102  2023-10-27 14:37:56.474069
3103  2023-10-27 14:37:56.505093
3104  2023-10-27 14:37:56.537984
3105  2023-10-27 14:37:56.569867
3106  2023-10-27 14:37:56.617770
3107  2023-10-27 14:37:56.649685
3108  2023-10-27 14:37:56.681599
3109  2023-10-27 14:37:56.713522
3110  2023-10-27 14:37:56.745430
3111  2023-10-27 14:37:56.777344
3112  2023-10-27 14:37:56.809259
3113  2023-10-27 14:37:56.841177
3114  2023-10-27 14:37:56.873095
3115  2023-10-27 14:37:56.904988
3116  2023-10-27 14:37:56.937883
3117  2023-10-27 14:37:56.969834
3118  2023-10-27 14:37:57.017823
3119  2023-10-27 14:37:57.049664
3120  2023-10-27 14:37:57.081611
3121  2023-10-27 14:37:57.113523
3122  2023-10-27 14:37:57.145412
3123  2023-10-27 14:37:57.177367
3124  2023-10-27 14:37:57.209377
3125  2023-10-27 14:37:57.241299
3126  2023-10-27 14:37:57.273234
3127  2023-10-27 14:37:57.306089
3128  2023-10-27 14:37:57.338038
3129  2023-10-27 14:37:57.369961
3130  2023-10-27 14:37:57.417823
3131  2023-10-27 14:37:57.449737
3132  2023-10-27 14:37:57.481656
3133  2023-10-27 14:37:57.513855
3134  2023-10-27 14:37:57.545867
3135  2023-10-27 14:37:57.577750
3136  2023-10-27 14:37:57.609665
3137  2023-10-27 14:37:57.641616
3138  2023-10-27 14:37:57.674492
3139  2023-10-27 14:37:57.705461
3140  2023-10-27 14:37:57.737363
3141  2023-10-27 14:37:57.785225
3142  2023-10-27 14:37:57.817153
3143  2023-10-27 14:37:57.850023
3144  2023-10-27 14:37:57.881972
3145  2023-10-27 14:37:57.913852
3146  2023-10-27 14:37:57.945857
3147  2023-10-27 14:37:57.977734
3148  2023-10-27 14:37:58.009698
3149  2023-10-27 14:37:58.041648
3150  2023-10-27 14:37:58.073569
3151  2023-10-27 14:37:58.105475
3152  2023-10-27 14:37:58.137391
3153  2023-10-27 14:37:58.185232
3154  2023-10-27 14:37:58.218142
3155  2023-10-27 14:37:58.249091
3156  2023-10-27 14:37:58.282003
3157  2023-10-27 14:37:58.313888
3158  2023-10-27 14:37:58.345839
3159  2023-10-27 14:37:58.377720
3160  2023-10-27 14:37:58.409629
3161  2023-10-27 14:37:58.441578
3162  2023-10-27 14:37:58.473506
3163  2023-10-27 14:37:58.505426
3164  2023-10-27 14:37:58.537324
3165  2023-10-27 14:37:58.585193
3166  2023-10-27 14:37:58.618072
3167  2023-10-27 14:37:58.649986
3168  2023-10-27 14:37:58.681953
3169  2023-10-27 14:37:58.713857
3170  2023-10-27 14:37:58.745761
3171  2023-10-27 14:37:58.777645
3172  2023-10-27 14:37:58.809604
3173  2023-10-27 14:37:58.841507
3174  2023-10-27 14:37:58.873446
3175  2023-10-27 14:37:58.905337
3176  2023-10-27 14:37:58.937276
3177  2023-10-27 14:37:58.985123
3178  2023-10-27 14:37:59.018003
3179  2023-10-27 14:37:59.049918
3180  2023-10-27 14:37:59.081865
3181  2023-10-27 14:37:59.113784
3182  2023-10-27 14:37:59.145696
3183  2023-10-27 14:37:59.177584
3184  2023-10-27 14:37:59.209491
3185  2023-10-27 14:37:59.241466
3186  2023-10-27 14:37:59.273321
3187  2023-10-27 14:37:59.306268
3188  2023-10-27 14:37:59.338148
3189  2023-10-27 14:37:59.386020
3190  2023-10-27 14:37:59.417933
3191  2023-10-27 14:37:59.449848
3192  2023-10-27 14:37:59.481796
3193  2023-10-27 14:37:59.513771
3194  2023-10-27 14:37:59.545714
3195  2023-10-27 14:37:59.577597
3196  2023-10-27 14:37:59.609512
3197  2023-10-27 14:37:59.641484
3198  2023-10-27 14:37:59.673403
3199  2023-10-27 14:37:59.705290
3200  2023-10-27 14:37:59.737210
3201  2023-10-27 14:37:59.785183
3202  2023-10-27 14:37:59.817084
3203  2023-10-27 14:37:59.849004
3204  2023-10-27 14:37:59.881959
3205  2023-10-27 14:37:59.913856
3206  2023-10-27 14:37:59.945787
3207  2023-10-27 14:37:59.977659
3208  2023-10-27 14:38:00.009574
3209  2023-10-27 14:38:00.041520
3210  2023-10-27 14:38:00.073435
3211  2023-10-27 14:38:00.105391
3212  2023-10-27 14:38:00.138230
3213  2023-10-27 14:38:00.186136
3214  2023-10-27 14:38:00.218021
3215  2023-10-27 14:38:00.249931
3216  2023-10-27 14:38:00.281846
3217  2023-10-27 14:38:00.313763
3218  2023-10-27 14:38:00.345715
3219  2023-10-27 14:38:00.377625
3220  2023-10-27 14:38:00.409505
3221  2023-10-27 14:38:00.441450
3222  2023-10-27 14:38:00.473368
3223  2023-10-27 14:38:00.505286
3224  2023-10-27 14:38:00.537204
3225  2023-10-27 14:38:00.585068
3226  2023-10-27 14:38:00.617978
3227  2023-10-27 14:38:00.649937
3228  2023-10-27 14:38:00.681843
3229  2023-10-27 14:38:00.713798
3230  2023-10-27 14:38:00.745713
3231  2023-10-27 14:38:00.777626
3232  2023-10-27 14:38:00.809502
3233  2023-10-27 14:38:00.841417
3234  2023-10-27 14:38:00.873373
3235  2023-10-27 14:38:00.905281
3236  2023-10-27 14:38:00.937194
3237  2023-10-27 14:38:00.985057
3238  2023-10-27 14:38:01.017935
3239  2023-10-27 14:38:01.049916
3240  2023-10-27 14:38:01.081824
3241  2023-10-27 14:38:01.113782
3242  2023-10-27 14:38:01.145663
3243  2023-10-27 14:38:01.177570
3244  2023-10-27 14:38:01.209482
3245  2023-10-27 14:38:01.241397
3246  2023-10-27 14:38:01.273357
3247  2023-10-27 14:38:01.305269
3248  2023-10-27 14:38:01.337178
3249  2023-10-27 14:38:01.385083
3250  2023-10-27 14:38:01.417959
3251  2023-10-27 14:38:01.449931
3252  2023-10-27 14:38:01.481888
3253  2023-10-27 14:38:01.513770
3254  2023-10-27 14:38:01.545734
3255  2023-10-27 14:38:01.577632
3256  2023-10-27 14:38:01.609550
3257  2023-10-27 14:38:01.641463
3258  2023-10-27 14:38:01.673377
3259  2023-10-27 14:38:01.705306
3260  2023-10-27 14:38:01.753165
3261  2023-10-27 14:38:01.785085
3262  2023-10-27 14:38:01.817094
3263  2023-10-27 14:38:01.849082
3264  2023-10-27 14:38:01.881994
3265  2023-10-27 14:38:01.913679
3266  2023-10-27 14:38:01.945245
3267  2023-10-27 14:38:01.977203
3268  2023-10-27 14:38:02.009119
3269  2023-10-27 14:38:02.041034
3270  2023-10-27 14:38:02.073946
3271  2023-10-27 14:38:02.105904
3272  2023-10-27 14:38:02.153733
3273  2023-10-27 14:38:02.185647
3274  2023-10-27 14:38:02.217562
3275  2023-10-27 14:38:02.249477
3276  2023-10-27 14:38:02.281391
3277  2023-10-27 14:38:02.313356
3278  2023-10-27 14:38:02.345257
3279  2023-10-27 14:38:02.377168
3280  2023-10-27 14:38:02.409058
3281  2023-10-27 14:38:02.441001
3282  2023-10-27 14:38:02.473909
3283  2023-10-27 14:38:02.505824
3284  2023-10-27 14:38:02.553701
3285  2023-10-27 14:38:02.585578
3286  2023-10-27 14:38:02.617493
3287  2023-10-27 14:38:02.649441
3288  2023-10-27 14:38:02.681359
3289  2023-10-27 14:38:02.713237
3290  2023-10-27 14:38:02.745195
3291  2023-10-27 14:38:02.777104
3292  2023-10-27 14:38:02.809020
3293  2023-10-27 14:38:02.841893
3294  2023-10-27 14:38:02.873808
3295  2023-10-27 14:38:02.905757
3296  2023-10-27 14:38:02.953594
3297  2023-10-27 14:38:02.985541
3298  2023-10-27 14:38:03.017456
3299  2023-10-27 14:38:03.049338
3300  2023-10-27 14:38:03.081253
3301  2023-10-27 14:38:03.113168
3302  2023-10-27 14:38:03.146081
3303  2023-10-27 14:38:03.177037
3304  2023-10-27 14:38:03.209958
3305  2023-10-27 14:38:03.241824
3306  2023-10-27 14:38:03.273738
3307  2023-10-27 14:38:03.305691
3308  2023-10-27 14:38:03.353525
3309  2023-10-27 14:38:03.385530
3310  2023-10-27 14:38:03.417660
3311  2023-10-27 14:38:03.449460
3312  2023-10-27 14:38:03.481375
3313  2023-10-27 14:38:03.513290
3314  2023-10-27 14:38:03.545205
3315  2023-10-27 14:38:03.577119
3316  2023-10-27 14:38:03.610031
3317  2023-10-27 14:38:03.641948
3318  2023-10-27 14:38:03.673933
3319  2023-10-27 14:38:03.705841
3320  2023-10-27 14:38:03.753713
3321  2023-10-27 14:38:03.785669
3322  2023-10-27 14:38:03.817617
3323  2023-10-27 14:38:03.849550
3324  2023-10-27 14:38:03.881450
3325  2023-10-27 14:38:03.913329
3326  2023-10-27 14:38:03.945243
3327  2023-10-27 14:38:03.977201
3328  2023-10-27 14:38:04.009135
3329  2023-10-27 14:38:04.041066
3330  2023-10-27 14:38:04.073978
3331  2023-10-27 14:38:04.105927
3332  2023-10-27 14:38:04.153795
3333  2023-10-27 14:38:04.185713
3334  2023-10-27 14:38:04.217594
3335  2023-10-27 14:38:04.249509
3336  2023-10-27 14:38:04.281476
3337  2023-10-27 14:38:04.313396
3338  2023-10-27 14:38:04.345316
3339  2023-10-27 14:38:04.377357
3340  2023-10-27 14:38:04.409257
3341  2023-10-27 14:38:04.441293
3342  2023-10-27 14:38:04.473209
3343  2023-10-27 14:38:04.505156
3344  2023-10-27 14:38:04.552995
3345  2023-10-27 14:38:04.585907
3346  2023-10-27 14:38:04.617822
3347  2023-10-27 14:38:04.649737
3348  2023-10-27 14:38:04.681651
3349  2023-10-27 14:38:04.713566
3350  2023-10-27 14:38:04.745481
3351  2023-10-27 14:38:04.777435
3352  2023-10-27 14:38:04.809310
3353  2023-10-27 14:38:04.841225
3354  2023-10-27 14:38:04.874149
3355  2023-10-27 14:38:04.905102
3356  2023-10-27 14:38:04.953924
3357  2023-10-27 14:38:04.985838
3358  2023-10-27 14:38:05.017793
3359  2023-10-27 14:38:05.049667
3360  2023-10-27 14:38:05.081582
3361  2023-10-27 14:38:05.113497
3362  2023-10-27 14:38:05.145444
3363  2023-10-27 14:38:05.177326
3364  2023-10-27 14:38:05.209241
3365  2023-10-27 14:38:05.241155
3366  2023-10-27 14:38:05.274080
3367  2023-10-27 14:38:05.306036
3368  2023-10-27 14:38:05.353898
3369  2023-10-27 14:38:05.385769
3370  2023-10-27 14:38:05.417684
3371  2023-10-27 14:38:05.449598
3372  2023-10-27 14:38:05.481513
3373  2023-10-27 14:38:05.513428
3374  2023-10-27 14:38:05.545342
3375  2023-10-27 14:38:05.577257
3376  2023-10-27 14:38:05.609172
3377  2023-10-27 14:38:05.641086
3378  2023-10-27 14:38:05.673001
3379  2023-10-27 14:38:05.721870
3380  2023-10-27 14:38:05.753785
3381  2023-10-27 14:38:05.785700
3382  2023-10-27 14:38:05.817614
3383  2023-10-27 14:38:05.849529
3384  2023-10-27 14:38:05.881453
3385  2023-10-27 14:38:05.913358
3386  2023-10-27 14:38:05.945273
3387  2023-10-27 14:38:05.978185
3388  2023-10-27 14:38:06.010100
3389  2023-10-27 14:38:06.042014
3390  2023-10-27 14:38:06.073929
3391  2023-10-27 14:38:06.121801
3392  2023-10-27 14:38:06.153716
3393  2023-10-27 14:38:06.185664
3394  2023-10-27 14:38:06.217633
3395  2023-10-27 14:38:06.249528
3396  2023-10-27 14:38:06.281431
3397  2023-10-27 14:38:06.314311
3398  2023-10-27 14:38:06.346254
3399  2023-10-27 14:38:06.377216
3400  2023-10-27 14:38:06.410131
3401  2023-10-27 14:38:06.441165
3402  2023-10-27 14:38:06.474033
3403  2023-10-27 14:38:06.521970
3404  2023-10-27 14:38:06.553883
3405  2023-10-27 14:38:06.585766
3406  2023-10-27 14:38:06.617712
3407  2023-10-27 14:38:06.649592
3408  2023-10-27 14:38:06.681541
3409  2023-10-27 14:38:06.713424
3410  2023-10-27 14:38:06.745372
3411  2023-10-27 14:38:06.777338
3412  2023-10-27 14:38:06.809211
3413  2023-10-27 14:38:06.841259
3414  2023-10-27 14:38:06.873226
3415  2023-10-27 14:38:06.921189
3416  2023-10-27 14:38:06.954101
3417  2023-10-27 14:38:06.985048
3418  2023-10-27 14:38:07.017971
3419  2023-10-27 14:38:07.049845
3420  2023-10-27 14:38:07.081760
3421  2023-10-27 14:38:07.113675
3422  2023-10-27 14:38:07.145589
3423  2023-10-27 14:38:07.177504
3424  2023-10-27 14:38:07.209419
3425  2023-10-27 14:38:07.241333
3426  2023-10-27 14:38:07.273248
3427  2023-10-27 14:38:07.321241
3428  2023-10-27 14:38:07.353155
3429  2023-10-27 14:38:07.385070
3430  2023-10-27 14:38:07.417982
3431  2023-10-27 14:38:07.449902
3432  2023-10-27 14:38:07.481811
3433  2023-10-27 14:38:07.513726
3434  2023-10-27 14:38:07.545641
3435  2023-10-27 14:38:07.577556
3436  2023-10-27 14:38:07.609470
3437  2023-10-27 14:38:07.641385
3438  2023-10-27 14:38:07.674306
3439  2023-10-27 14:38:07.722170
3440  2023-10-27 14:38:07.753086
3441  2023-10-27 14:38:07.785998
3442  2023-10-27 14:38:07.817913
3443  2023-10-27 14:38:07.849832
3444  2023-10-27 14:38:07.881742
3445  2023-10-27 14:38:07.913657
3446  2023-10-27 14:38:07.945676
3447  2023-10-27 14:38:07.977580
3448  2023-10-27 14:38:08.009509
3449  2023-10-27 14:38:08.041438
3450  2023-10-27 14:38:08.073398
3451  2023-10-27 14:38:08.121270
3452  2023-10-27 14:38:08.153185
3453  2023-10-27 14:38:08.185132
3454  2023-10-27 14:38:08.217014
3455  2023-10-27 14:38:08.249926
3456  2023-10-27 14:38:08.281841
3457  2023-10-27 14:38:08.313789
3458  2023-10-27 14:38:08.345727
3459  2023-10-27 14:38:08.377691
3460  2023-10-27 14:38:08.409606
3461  2023-10-27 14:38:08.441551
3462  2023-10-27 14:38:08.473470
3463  2023-10-27 14:38:08.521353
3464  2023-10-27 14:38:08.553222
3465  2023-10-27 14:38:08.585137
3466  2023-10-27 14:38:08.618049
3467  2023-10-27 14:38:08.649000
3468  2023-10-27 14:38:08.681878
3469  2023-10-27 14:38:08.713793
3470  2023-10-27 14:38:08.745708
3471  2023-10-27 14:38:08.777623
3472  2023-10-27 14:38:08.809537
3473  2023-10-27 14:38:08.841452
3474  2023-10-27 14:38:08.873366
3475  2023-10-27 14:38:08.921238
3476  2023-10-27 14:38:08.954150
3477  2023-10-27 14:38:08.985068
3478  2023-10-27 14:38:09.017101
3479  2023-10-27 14:38:09.049016
3480  2023-10-27 14:38:09.081928
3481  2023-10-27 14:38:09.113843
3482  2023-10-27 14:38:09.145757
3483  2023-10-27 14:38:09.177672
3484  2023-10-27 14:38:09.209587
3485  2023-10-27 14:38:09.241501
3486  2023-10-27 14:38:09.289494
3487  2023-10-27 14:38:09.321288
3488  2023-10-27 14:38:09.354323
3489  2023-10-27 14:38:09.386238
3490  2023-10-27 14:38:09.418152
3491  2023-10-27 14:38:09.449070
3492  2023-10-27 14:38:09.482052
3493  2023-10-27 14:38:09.513997
3494  2023-10-27 14:38:09.545912
3495  2023-10-27 14:38:09.577826
3496  2023-10-27 14:38:09.609777
3497  2023-10-27 14:38:09.641656
3498  2023-10-27 14:38:09.689560
3499  2023-10-27 14:38:09.721499
3500  2023-10-27 14:38:09.753357
3501  2023-10-27 14:38:09.785272
3502  2023-10-27 14:38:09.817223
3503  2023-10-27 14:38:09.849145
3504  2023-10-27 14:38:09.882014
3505  2023-10-27 14:38:09.913065
3506  2023-10-27 14:38:09.945943
3507  2023-10-27 14:38:09.977607
3508  2023-10-27 14:38:10.009571
3509  2023-10-27 14:38:10.041479
3510  2023-10-27 14:38:10.089351
3511  2023-10-27 14:38:10.121265
3512  2023-10-27 14:38:10.153215
3513  2023-10-27 14:38:10.185127
3514  2023-10-27 14:38:10.218007
3515  2023-10-27 14:38:10.250007
3516  2023-10-27 14:38:10.281922
3517  2023-10-27 14:38:10.313837
3518  2023-10-27 14:38:10.345751
3519  2023-10-27 14:38:10.377791
3520  2023-10-27 14:38:10.409705
3521  2023-10-27 14:38:10.441591
3522  2023-10-27 14:38:10.489496
3523  2023-10-27 14:38:10.521410
3524  2023-10-27 14:38:10.553325
3525  2023-10-27 14:38:10.585240
3526  2023-10-27 14:38:10.617154
3527  2023-10-27 14:38:10.649069
3528  2023-10-27 14:38:10.681981
3529  2023-10-27 14:38:10.713896
3530  2023-10-27 14:38:10.745817
3531  2023-10-27 14:38:10.777725
3532  2023-10-27 14:38:10.809674
3533  2023-10-27 14:38:10.841554
3534  2023-10-27 14:38:10.889429
3535  2023-10-27 14:38:10.921341
3536  2023-10-27 14:38:10.953256
3537  2023-10-27 14:38:10.985211
3538  2023-10-27 14:38:11.017126
3539  2023-10-27 14:38:11.049997
3540  2023-10-27 14:38:11.081912
3541  2023-10-27 14:38:11.113827
3542  2023-10-27 14:38:11.145741
3543  2023-10-27 14:38:11.177656
3544  2023-10-27 14:38:11.209571
3545  2023-10-27 14:38:11.241485
3546  2023-10-27 14:38:11.289357
3547  2023-10-27 14:38:11.321272
3548  2023-10-27 14:38:11.353187
3549  2023-10-27 14:38:11.385101
3550  2023-10-27 14:38:11.417016
3551  2023-10-27 14:38:11.449929
3552  2023-10-27 14:38:11.481844
3553  2023-10-27 14:38:11.513759
3554  2023-10-27 14:38:11.545674
3555  2023-10-27 14:38:11.577588
3556  2023-10-27 14:38:11.609556
3557  2023-10-27 14:38:11.641416
3558  2023-10-27 14:38:11.689289
3559  2023-10-27 14:38:11.721237
3560  2023-10-27 14:38:11.753117
3561  2023-10-27 14:38:11.786030
