
1  2023-12-04 12:29:08.870479
2  2023-12-04 12:29:08.916353
3  2023-12-04 12:29:08.964263
4  2023-12-04 12:29:08.995226
5  2023-12-04 12:29:09.043099
6  2023-12-04 12:29:09.091134
7  2023-12-04 12:29:09.122919
8  2023-12-04 12:29:09.170804
9  2023-12-04 12:29:09.202718
10  2023-12-04 12:29:09.250544
11  2023-12-04 12:29:09.297419
12  2023-12-04 12:29:09.329333
13  2023-12-04 12:29:09.377205
14  2023-12-04 12:29:09.425077
15  2023-12-04 12:29:09.456991
16  2023-12-04 12:29:09.504864
17  2023-12-04 12:29:09.535946
18  2023-12-04 12:29:09.583768
19  2023-12-04 12:29:09.630675
20  2023-12-04 12:29:09.662635
21  2023-12-04 12:29:09.710544
22  2023-12-04 12:29:09.758417
23  2023-12-04 12:29:09.790381
24  2023-12-04 12:29:09.836208
25  2023-12-04 12:29:09.868123
26  2023-12-04 12:29:09.914998
27  2023-12-04 12:29:09.962912
28  2023-12-04 12:29:09.994786
29  2023-12-04 12:29:10.040674
30  2023-12-04 12:29:10.088564
31  2023-12-04 12:29:10.119534
32  2023-12-04 12:29:10.166432
33  2023-12-04 12:29:10.214347
34  2023-12-04 12:29:10.246250
35  2023-12-04 12:29:10.294132
36  2023-12-04 12:29:10.340966
37  2023-12-04 12:29:10.372882
38  2023-12-04 12:29:10.420755
39  2023-12-04 12:29:10.452668
40  2023-12-04 12:29:10.500544
41  2023-12-04 12:29:10.548443
42  2023-12-04 12:29:10.579795
43  2023-12-04 12:29:10.627612
44  2023-12-04 12:29:10.674527
45  2023-12-04 12:29:10.706441
46  2023-12-04 12:29:10.754273
47  2023-12-04 12:29:10.786188
48  2023-12-04 12:29:10.834059
49  2023-12-04 12:29:10.881931
50  2023-12-04 12:29:10.913488
51  2023-12-04 12:29:10.960459
52  2023-12-04 12:29:11.008316
53  2023-12-04 12:29:11.040199
54  2023-12-04 12:29:11.087105
55  2023-12-04 12:29:11.119031
56  2023-12-04 12:29:11.166902
57  2023-12-04 12:29:11.214763
58  2023-12-04 12:29:11.246679
59  2023-12-04 12:29:11.294563
60  2023-12-04 12:29:11.341198
61  2023-12-04 12:29:11.373116
62  2023-12-04 12:29:11.420888
63  2023-12-04 12:29:11.452803
64  2023-12-04 12:29:11.499719
65  2023-12-04 12:29:11.546628
66  2023-12-04 12:29:11.578559
67  2023-12-04 12:29:11.626468
68  2023-12-04 12:29:11.674303
69  2023-12-04 12:29:11.706217
70  2023-12-04 12:29:11.753125
71  2023-12-04 12:29:11.785040
72  2023-12-04 12:29:11.832879
73  2023-12-04 12:29:11.880791
74  2023-12-04 12:29:11.912806
75  2023-12-04 12:29:11.960826
76  2023-12-04 12:29:12.007662
77  2023-12-04 12:29:12.038579
78  2023-12-04 12:29:12.085454
79  2023-12-04 12:29:12.132328
80  2023-12-04 12:29:12.164243
81  2023-12-04 12:29:12.212115
82  2023-12-04 12:29:12.244030
83  2023-12-04 12:29:12.291902
84  2023-12-04 12:29:12.338776
85  2023-12-04 12:29:12.369744
86  2023-12-04 12:29:12.417571
87  2023-12-04 12:29:12.465438
88  2023-12-04 12:29:12.497396
89  2023-12-04 12:29:12.544227
90  2023-12-04 12:29:12.591102
91  2023-12-04 12:29:12.623016
92  2023-12-04 12:29:12.670888
93  2023-12-04 12:29:12.702803
94  2023-12-04 12:29:12.750675
95  2023-12-04 12:29:12.798612
96  2023-12-04 12:29:12.830527
97  2023-12-04 12:29:12.878430
98  2023-12-04 12:29:12.910349
99  2023-12-04 12:29:12.958184
100  2023-12-04 12:29:13.006178
101  2023-12-04 12:29:13.038092
102  2023-12-04 12:29:13.085014
103  2023-12-04 12:29:13.132966
104  2023-12-04 12:29:13.164882
105  2023-12-04 12:29:13.212828
106  2023-12-04 12:29:13.244686
107  2023-12-04 12:29:13.292558
108  2023-12-04 12:29:13.340523
109  2023-12-04 12:29:13.372565
110  2023-12-04 12:29:13.420510
111  2023-12-04 12:29:13.452407
112  2023-12-04 12:29:13.500290
113  2023-12-04 12:29:13.548140
114  2023-12-04 12:29:13.580035
115  2023-12-04 12:29:13.627935
116  2023-12-04 12:29:13.659823
117  2023-12-04 12:29:13.706696
118  2023-12-04 12:29:13.754614
119  2023-12-04 12:29:13.786530
120  2023-12-04 12:29:13.834355
121  2023-12-04 12:29:13.882227
122  2023-12-04 12:29:13.914141
123  2023-12-04 12:29:13.962048
124  2023-12-04 12:29:13.993972
125  2023-12-04 12:29:14.040803
126  2023-12-04 12:29:14.088723
127  2023-12-04 12:29:14.120633
128  2023-12-04 12:29:14.168461
129  2023-12-04 12:29:14.215544
130  2023-12-04 12:29:14.247471
131  2023-12-04 12:29:14.295325
132  2023-12-04 12:29:14.327252
133  2023-12-04 12:29:14.374082
134  2023-12-04 12:29:14.421998
135  2023-12-04 12:29:14.452908
136  2023-12-04 12:29:14.499745
137  2023-12-04 12:29:14.547618
138  2023-12-04 12:29:14.579534
139  2023-12-04 12:29:14.627404
140  2023-12-04 12:29:14.674279
141  2023-12-04 12:29:14.706349
142  2023-12-04 12:29:14.754066
143  2023-12-04 12:29:14.785980
144  2023-12-04 12:29:14.832900
145  2023-12-04 12:29:14.880727
146  2023-12-04 12:29:14.912686
147  2023-12-04 12:29:14.960562
148  2023-12-04 12:29:15.007422
149  2023-12-04 12:29:15.039348
150  2023-12-04 12:29:15.086177
151  2023-12-04 12:29:15.118139
152  2023-12-04 12:29:15.165964
153  2023-12-04 12:29:15.213836
154  2023-12-04 12:29:15.245751
155  2023-12-04 12:29:15.293623
156  2023-12-04 12:29:15.341534
157  2023-12-04 12:29:15.373409
158  2023-12-04 12:29:15.421282
159  2023-12-04 12:29:15.453261
160  2023-12-04 12:29:15.501135
161  2023-12-04 12:29:15.549018
162  2023-12-04 12:29:15.580934
163  2023-12-04 12:29:15.627805
164  2023-12-04 12:29:15.659720
165  2023-12-04 12:29:15.707550
166  2023-12-04 12:29:15.755466
167  2023-12-04 12:29:15.787383
168  2023-12-04 12:29:15.835209
169  2023-12-04 12:29:15.883112
170  2023-12-04 12:29:15.915040
171  2023-12-04 12:29:15.962914
172  2023-12-04 12:29:15.994824
173  2023-12-04 12:29:16.042664
174  2023-12-04 12:29:16.090567
175  2023-12-04 12:29:16.122507
176  2023-12-04 12:29:16.170312
177  2023-12-04 12:29:16.202227
178  2023-12-04 12:29:16.249138
179  2023-12-04 12:29:16.296016
180  2023-12-04 12:29:16.327928
181  2023-12-04 12:29:16.375767
182  2023-12-04 12:29:16.423674
183  2023-12-04 12:29:16.455551
184  2023-12-04 12:29:16.503421
185  2023-12-04 12:29:16.535336
186  2023-12-04 12:29:16.583240
187  2023-12-04 12:29:16.630083
188  2023-12-04 12:29:16.661998
189  2023-12-04 12:29:16.709869
190  2023-12-04 12:29:16.756745
191  2023-12-04 12:29:16.788660
192  2023-12-04 12:29:16.836531
193  2023-12-04 12:29:16.868445
194  2023-12-04 12:29:16.916415
195  2023-12-04 12:29:16.964290
196  2023-12-04 12:29:16.996269
197  2023-12-04 12:29:17.044248
198  2023-12-04 12:29:17.091018
199  2023-12-04 12:29:17.122933
200  2023-12-04 12:29:17.169809
201  2023-12-04 12:29:17.201725
202  2023-12-04 12:29:17.249562
203  2023-12-04 12:29:17.297436
204  2023-12-04 12:29:17.329390
205  2023-12-04 12:29:17.377253
206  2023-12-04 12:29:17.425206
207  2023-12-04 12:29:17.457121
208  2023-12-04 12:29:17.505084
209  2023-12-04 12:29:17.536999
210  2023-12-04 12:29:17.584871
211  2023-12-04 12:29:17.631745
212  2023-12-04 12:29:17.662704
213  2023-12-04 12:29:17.710576
214  2023-12-04 12:29:17.758452
215  2023-12-04 12:29:17.790366
216  2023-12-04 12:29:17.838238
217  2023-12-04 12:29:17.870153
218  2023-12-04 12:29:17.917980
219  2023-12-04 12:29:17.965897
220  2023-12-04 12:29:17.997811
221  2023-12-04 12:29:18.045680
222  2023-12-04 12:29:18.076597
223  2023-12-04 12:29:18.124459
224  2023-12-04 12:29:18.172341
225  2023-12-04 12:29:18.204214
226  2023-12-04 12:29:18.252132
227  2023-12-04 12:29:18.299989
228  2023-12-04 12:29:18.331916
229  2023-12-04 12:29:18.379787
230  2023-12-04 12:29:18.411806
231  2023-12-04 12:29:18.459643
232  2023-12-04 12:29:18.507618
233  2023-12-04 12:29:18.539526
234  2023-12-04 12:29:18.586401
235  2023-12-04 12:29:18.618316
236  2023-12-04 12:29:18.666191
237  2023-12-04 12:29:18.714063
238  2023-12-04 12:29:18.745977
239  2023-12-04 12:29:18.793855
240  2023-12-04 12:29:18.841811
241  2023-12-04 12:29:18.873725
242  2023-12-04 12:29:18.920645
243  2023-12-04 12:29:18.952521
244  2023-12-04 12:29:19.000562
245  2023-12-04 12:29:19.048438
246  2023-12-04 12:29:19.080349
247  2023-12-04 12:29:19.128247
248  2023-12-04 12:29:19.160135
249  2023-12-04 12:29:19.207978
250  2023-12-04 12:29:19.255841
251  2023-12-04 12:29:19.287925
252  2023-12-04 12:29:19.335757
253  2023-12-04 12:29:19.382754
254  2023-12-04 12:29:19.414669
255  2023-12-04 12:29:19.462573
256  2023-12-04 12:29:19.494454
257  2023-12-04 12:29:19.542326
258  2023-12-04 12:29:19.590204
259  2023-12-04 12:29:19.622124
260  2023-12-04 12:29:19.668987
261  2023-12-04 12:29:19.715862
262  2023-12-04 12:29:19.747314
263  2023-12-04 12:29:19.795184
264  2023-12-04 12:29:19.827098
265  2023-12-04 12:29:19.875081
266  2023-12-04 12:29:19.922854
267  2023-12-04 12:29:19.954728
268  2023-12-04 12:29:20.001640
269  2023-12-04 12:29:20.049503
270  2023-12-04 12:29:20.081418
271  2023-12-04 12:29:20.129289
272  2023-12-04 12:29:20.161210
273  2023-12-04 12:29:20.208120
274  2023-12-04 12:29:20.255990
275  2023-12-04 12:29:20.287974
276  2023-12-04 12:29:20.335852
277  2023-12-04 12:29:20.382933
278  2023-12-04 12:29:20.413843
279  2023-12-04 12:29:20.461716
280  2023-12-04 12:29:20.507596
281  2023-12-04 12:29:20.539475
282  2023-12-04 12:29:20.587469
283  2023-12-04 12:29:20.619387
284  2023-12-04 12:29:20.667262
285  2023-12-04 12:29:20.715224
286  2023-12-04 12:29:20.747138
287  2023-12-04 12:29:20.795041
288  2023-12-04 12:29:20.840938
289  2023-12-04 12:29:20.872802
290  2023-12-04 12:29:20.920706
291  2023-12-04 12:29:20.952630
292  2023-12-04 12:29:21.000505
293  2023-12-04 12:29:21.048383
294  2023-12-04 12:29:21.080282
295  2023-12-04 12:29:21.128164
296  2023-12-04 12:29:21.160089
297  2023-12-04 12:29:21.207950
298  2023-12-04 12:29:21.255824
299  2023-12-04 12:29:21.287738
300  2023-12-04 12:29:21.335608
301  2023-12-04 12:29:21.382441
302  2023-12-04 12:29:21.414356
303  2023-12-04 12:29:21.461229
304  2023-12-04 12:29:21.493144
305  2023-12-04 12:29:21.541015
306  2023-12-04 12:29:21.588931
307  2023-12-04 12:29:21.620802
308  2023-12-04 12:29:21.667262
309  2023-12-04 12:29:21.714137
310  2023-12-04 12:29:21.746051
311  2023-12-04 12:29:21.793923
312  2023-12-04 12:29:21.841918
313  2023-12-04 12:29:21.873833
314  2023-12-04 12:29:21.921705
315  2023-12-04 12:29:21.952623
316  2023-12-04 12:29:22.000495
317  2023-12-04 12:29:22.048367
318  2023-12-04 12:29:22.080286
319  2023-12-04 12:29:22.128153
320  2023-12-04 12:29:22.160068
321  2023-12-04 12:29:22.205945
322  2023-12-04 12:29:22.253817
323  2023-12-04 12:29:22.285066
324  2023-12-04 12:29:22.332938
325  2023-12-04 12:29:22.380810
326  2023-12-04 12:29:22.412725
327  2023-12-04 12:29:22.460649
328  2023-12-04 12:29:22.507472
329  2023-12-04 12:29:22.539386
330  2023-12-04 12:29:22.587382
331  2023-12-04 12:29:22.619306
332  2023-12-04 12:29:22.667228
333  2023-12-04 12:29:22.715099
334  2023-12-04 12:29:22.746971
335  2023-12-04 12:29:22.794873
336  2023-12-04 12:29:22.826799
337  2023-12-04 12:29:22.874671
338  2023-12-04 12:29:22.922547
339  2023-12-04 12:29:22.954453
340  2023-12-04 12:29:23.002327
341  2023-12-04 12:29:23.050206
342  2023-12-04 12:29:23.082120
343  2023-12-04 12:29:23.129994
344  2023-12-04 12:29:23.161920
345  2023-12-04 12:29:23.209775
346  2023-12-04 12:29:23.257646
347  2023-12-04 12:29:23.289562
348  2023-12-04 12:29:23.336438
349  2023-12-04 12:29:23.368350
350  2023-12-04 12:29:23.416212
351  2023-12-04 12:29:23.464094
352  2023-12-04 12:29:23.495993
353  2023-12-04 12:29:23.543955
354  2023-12-04 12:29:23.591788
355  2023-12-04 12:29:23.623805
356  2023-12-04 12:29:23.671721
357  2023-12-04 12:29:23.703603
358  2023-12-04 12:29:23.751510
359  2023-12-04 12:29:23.799347
360  2023-12-04 12:29:23.831307
361  2023-12-04 12:29:23.879175
362  2023-12-04 12:29:23.911219
363  2023-12-04 12:29:23.959082
364  2023-12-04 12:29:24.007075
365  2023-12-04 12:29:24.037883
366  2023-12-04 12:29:24.085709
367  2023-12-04 12:29:24.132583
368  2023-12-04 12:29:24.164542
369  2023-12-04 12:29:24.212631
370  2023-12-04 12:29:24.244405
371  2023-12-04 12:29:24.292454
372  2023-12-04 12:29:24.339304
373  2023-12-04 12:29:24.371371
374  2023-12-04 12:29:24.419231
375  2023-12-04 12:29:24.466105
376  2023-12-04 12:29:24.498020
377  2023-12-04 12:29:24.545892
378  2023-12-04 12:29:24.577807
379  2023-12-04 12:29:24.625679
380  2023-12-04 12:29:24.672553
381  2023-12-04 12:29:24.704468
382  2023-12-04 12:29:24.752340
383  2023-12-04 12:29:24.800212
384  2023-12-04 12:29:24.831236
385  2023-12-04 12:29:24.879108
386  2023-12-04 12:29:24.911022
387  2023-12-04 12:29:24.957948
388  2023-12-04 12:29:25.005781
389  2023-12-04 12:29:25.036879
390  2023-12-04 12:29:25.084618
391  2023-12-04 12:29:25.132531
392  2023-12-04 12:29:25.164452
393  2023-12-04 12:29:25.212277
394  2023-12-04 12:29:25.244191
395  2023-12-04 12:29:25.292112
396  2023-12-04 12:29:25.340090
397  2023-12-04 12:29:25.371007
398  2023-12-04 12:29:25.417922
399  2023-12-04 12:29:25.465796
400  2023-12-04 12:29:25.496784
401  2023-12-04 12:29:25.543663
402  2023-12-04 12:29:25.591517
403  2023-12-04 12:29:25.623461
404  2023-12-04 12:29:25.671378
405  2023-12-04 12:29:25.703292
406  2023-12-04 12:29:25.750122
407  2023-12-04 12:29:25.798124
408  2023-12-04 12:29:25.830043
409  2023-12-04 12:29:25.878037
410  2023-12-04 12:29:25.909949
411  2023-12-04 12:29:25.956824
412  2023-12-04 12:29:26.004661
413  2023-12-04 12:29:26.036623
414  2023-12-04 12:29:26.084482
415  2023-12-04 12:29:26.132405
416  2023-12-04 12:29:26.164320
417  2023-12-04 12:29:26.212192
418  2023-12-04 12:29:26.244137
419  2023-12-04 12:29:26.291012
420  2023-12-04 12:29:26.338853
421  2023-12-04 12:29:26.370768
422  2023-12-04 12:29:26.418641
423  2023-12-04 12:29:26.466518
424  2023-12-04 12:29:26.498471
425  2023-12-04 12:29:26.546308
426  2023-12-04 12:29:26.578213
427  2023-12-04 12:29:26.627089
428  2023-12-04 12:29:26.673958
429  2023-12-04 12:29:26.705873
430  2023-12-04 12:29:26.753750
431  2023-12-04 12:29:26.785666
432  2023-12-04 12:29:26.832533
433  2023-12-04 12:29:26.879407
434  2023-12-04 12:29:26.911322
435  2023-12-04 12:29:26.959194
436  2023-12-04 12:29:27.007070
437  2023-12-04 12:29:27.039126
438  2023-12-04 12:29:27.086001
439  2023-12-04 12:29:27.132920
440  2023-12-04 12:29:27.164840
441  2023-12-04 12:29:27.212662
442  2023-12-04 12:29:27.244577
443  2023-12-04 12:29:27.292497
444  2023-12-04 12:29:27.340321
445  2023-12-04 12:29:27.372235
446  2023-12-04 12:29:27.420113
447  2023-12-04 12:29:27.452022
448  2023-12-04 12:29:27.499894
449  2023-12-04 12:29:27.546769
450  2023-12-04 12:29:27.578683
451  2023-12-04 12:29:27.626609
452  2023-12-04 12:29:27.674560
453  2023-12-04 12:29:27.706342
454  2023-12-04 12:29:27.754324
455  2023-12-04 12:29:27.786275
456  2023-12-04 12:29:27.834145
457  2023-12-04 12:29:27.882018
458  2023-12-04 12:29:27.913890
459  2023-12-04 12:29:27.960819
460  2023-12-04 12:29:28.007640
461  2023-12-04 12:29:28.039533
462  2023-12-04 12:29:28.087478
463  2023-12-04 12:29:28.119402
464  2023-12-04 12:29:28.167274
465  2023-12-04 12:29:28.215143
466  2023-12-04 12:29:28.246054
467  2023-12-04 12:29:28.293072
468  2023-12-04 12:29:28.339828
469  2023-12-04 12:29:28.371730
470  2023-12-04 12:29:28.419591
471  2023-12-04 12:29:28.451477
472  2023-12-04 12:29:28.499373
473  2023-12-04 12:29:28.547254
474  2023-12-04 12:29:28.579173
475  2023-12-04 12:29:28.627035
476  2023-12-04 12:29:28.674872
477  2023-12-04 12:29:28.706827
478  2023-12-04 12:29:28.754659
479  2023-12-04 12:29:28.786615
480  2023-12-04 12:29:28.834446
481  2023-12-04 12:29:28.882318
482  2023-12-04 12:29:28.914232
483  2023-12-04 12:29:28.962137
484  2023-12-04 12:29:28.994019
485  2023-12-04 12:29:29.041929
486  2023-12-04 12:29:29.089797
487  2023-12-04 12:29:29.121678
488  2023-12-04 12:29:29.168673
489  2023-12-04 12:29:29.216541
490  2023-12-04 12:29:29.248455
491  2023-12-04 12:29:29.296340
492  2023-12-04 12:29:29.328275
493  2023-12-04 12:29:29.376244
494  2023-12-04 12:29:29.424068
495  2023-12-04 12:29:29.456158
496  2023-12-04 12:29:29.504038
497  2023-12-04 12:29:29.535943
498  2023-12-04 12:29:29.583812
499  2023-12-04 12:29:29.631709
500  2023-12-04 12:29:29.662600
501  2023-12-04 12:29:29.710472
502  2023-12-04 12:29:29.758344
503  2023-12-04 12:29:29.789261
504  2023-12-04 12:29:29.837133
505  2023-12-04 12:29:29.869048
506  2023-12-04 12:29:29.916920
507  2023-12-04 12:29:29.964833
508  2023-12-04 12:29:29.996707
509  2023-12-04 12:29:30.044587
510  2023-12-04 12:29:30.076493
511  2023-12-04 12:29:30.124418
512  2023-12-04 12:29:30.172237
513  2023-12-04 12:29:30.204299
514  2023-12-04 12:29:30.252024
515  2023-12-04 12:29:30.298945
516  2023-12-04 12:29:30.330863
517  2023-12-04 12:29:30.378685
518  2023-12-04 12:29:30.410600
519  2023-12-04 12:29:30.458518
520  2023-12-04 12:29:30.506344
521  2023-12-04 12:29:30.538345
522  2023-12-04 12:29:30.585263
523  2023-12-04 12:29:30.633127
524  2023-12-04 12:29:30.665037
525  2023-12-04 12:29:30.712879
526  2023-12-04 12:29:30.744951
527  2023-12-04 12:29:30.792708
528  2023-12-04 12:29:30.840553
529  2023-12-04 12:29:30.872453
530  2023-12-04 12:29:30.920362
531  2023-12-04 12:29:30.952240
532  2023-12-04 12:29:31.000112
533  2023-12-04 12:29:31.048019
534  2023-12-04 12:29:31.079945
535  2023-12-04 12:29:31.127808
536  2023-12-04 12:29:31.174645
537  2023-12-04 12:29:31.206632
538  2023-12-04 12:29:31.254546
539  2023-12-04 12:29:31.285423
540  2023-12-04 12:29:31.333321
541  2023-12-04 12:29:31.381293
542  2023-12-04 12:29:31.413208
543  2023-12-04 12:29:31.461103
544  2023-12-04 12:29:31.492995
545  2023-12-04 12:29:31.540885
546  2023-12-04 12:29:31.588739
547  2023-12-04 12:29:31.620653
548  2023-12-04 12:29:31.668526
549  2023-12-04 12:29:31.716405
550  2023-12-04 12:29:31.747306
551  2023-12-04 12:29:31.795197
552  2023-12-04 12:29:31.827068
553  2023-12-04 12:29:31.874165
554  2023-12-04 12:29:31.922034
555  2023-12-04 12:29:31.953914
556  2023-12-04 12:29:32.001830
557  2023-12-04 12:29:32.049659
558  2023-12-04 12:29:32.081580
559  2023-12-04 12:29:32.129450
560  2023-12-04 12:29:32.161350
561  2023-12-04 12:29:32.209222
562  2023-12-04 12:29:32.256095
563  2023-12-04 12:29:32.288010
564  2023-12-04 12:29:32.334885
565  2023-12-04 12:29:32.382844
566  2023-12-04 12:29:32.414642
567  2023-12-04 12:29:32.462552
568  2023-12-04 12:29:32.494455
569  2023-12-04 12:29:32.542331
570  2023-12-04 12:29:32.590172
571  2023-12-04 12:29:32.622088
572  2023-12-04 12:29:32.669960
573  2023-12-04 12:29:32.701874
574  2023-12-04 12:29:32.749746
575  2023-12-04 12:29:32.797649
576  2023-12-04 12:29:32.829532
577  2023-12-04 12:29:32.877623
578  2023-12-04 12:29:32.924455
579  2023-12-04 12:29:32.955406
580  2023-12-04 12:29:33.003274
581  2023-12-04 12:29:33.035191
582  2023-12-04 12:29:33.083066
583  2023-12-04 12:29:33.130945
584  2023-12-04 12:29:33.162853
585  2023-12-04 12:29:33.210689
586  2023-12-04 12:29:33.257616
587  2023-12-04 12:29:33.288520
588  2023-12-04 12:29:33.335396
589  2023-12-04 12:29:33.382270
590  2023-12-04 12:29:33.414147
591  2023-12-04 12:29:33.461056
592  2023-12-04 12:29:33.492966
593  2023-12-04 12:29:33.540806
594  2023-12-04 12:29:33.588734
595  2023-12-04 12:29:33.620631
596  2023-12-04 12:29:33.668465
597  2023-12-04 12:29:33.716338
598  2023-12-04 12:29:33.747335
599  2023-12-04 12:29:33.795162
600  2023-12-04 12:29:33.841039
601  2023-12-04 12:29:33.872953
602  2023-12-04 12:29:33.920833
603  2023-12-04 12:29:33.952741
604  2023-12-04 12:29:34.000619
605  2023-12-04 12:29:34.048482
606  2023-12-04 12:29:34.080412
607  2023-12-04 12:29:34.128272
608  2023-12-04 12:29:34.160183
609  2023-12-04 12:29:34.208057
610  2023-12-04 12:29:34.255912
611  2023-12-04 12:29:34.287838
612  2023-12-04 12:29:34.335799
613  2023-12-04 12:29:34.382569
614  2023-12-04 12:29:34.414505
615  2023-12-04 12:29:34.462366
616  2023-12-04 12:29:34.493285
617  2023-12-04 12:29:34.541149
618  2023-12-04 12:29:34.589025
619  2023-12-04 12:29:34.620940
620  2023-12-04 12:29:34.668940
621  2023-12-04 12:29:34.716776
622  2023-12-04 12:29:34.748692
623  2023-12-04 12:29:34.796613
624  2023-12-04 12:29:34.828527
625  2023-12-04 12:29:34.876350
626  2023-12-04 12:29:34.924233
627  2023-12-04 12:29:34.956136
628  2023-12-04 12:29:35.004041
629  2023-12-04 12:29:35.035964
630  2023-12-04 12:29:35.083795
631  2023-12-04 12:29:35.131703
632  2023-12-04 12:29:35.163620
633  2023-12-04 12:29:35.211453
634  2023-12-04 12:29:35.243368
635  2023-12-04 12:29:35.290274
636  2023-12-04 12:29:35.338144
637  2023-12-04 12:29:35.370145
638  2023-12-04 12:29:35.416935
639  2023-12-04 12:29:35.464776
640  2023-12-04 12:29:35.496690
641  2023-12-04 12:29:35.544562
642  2023-12-04 12:29:35.576477
643  2023-12-04 12:29:35.624395
644  2023-12-04 12:29:35.672221
645  2023-12-04 12:29:35.704180
646  2023-12-04 12:29:35.752147
647  2023-12-04 12:29:35.800030
648  2023-12-04 12:29:35.830936
649  2023-12-04 12:29:35.878822
650  2023-12-04 12:29:35.910692
651  2023-12-04 12:29:35.958602
652  2023-12-04 12:29:36.005532
653  2023-12-04 12:29:36.037440
654  2023-12-04 12:29:36.085313
655  2023-12-04 12:29:36.134218
656  2023-12-04 12:29:36.166128
657  2023-12-04 12:29:36.212973
658  2023-12-04 12:29:36.243919
659  2023-12-04 12:29:36.291800
660  2023-12-04 12:29:36.339632
661  2023-12-04 12:29:36.371547
662  2023-12-04 12:29:36.419543
663  2023-12-04 12:29:36.451417
664  2023-12-04 12:29:36.499288
665  2023-12-04 12:29:36.546189
666  2023-12-04 12:29:36.578078
667  2023-12-04 12:29:36.625987
668  2023-12-04 12:29:36.673855
669  2023-12-04 12:29:36.705769
670  2023-12-04 12:29:36.753642
671  2023-12-04 12:29:36.785557
672  2023-12-04 12:29:36.833438
673  2023-12-04 12:29:36.881316
674  2023-12-04 12:29:36.913310
675  2023-12-04 12:29:36.961251
676  2023-12-04 12:29:36.993207
677  2023-12-04 12:29:37.041070
678  2023-12-04 12:29:37.088942
679  2023-12-04 12:29:37.120866
680  2023-12-04 12:29:37.168730
681  2023-12-04 12:29:37.216686
682  2023-12-04 12:29:37.248547
683  2023-12-04 12:29:37.296453
684  2023-12-04 12:29:37.328368
685  2023-12-04 12:29:37.376237
686  2023-12-04 12:29:37.424107
687  2023-12-04 12:29:37.456022
688  2023-12-04 12:29:37.503909
689  2023-12-04 12:29:37.535810
690  2023-12-04 12:29:37.583701
691  2023-12-04 12:29:37.630566
692  2023-12-04 12:29:37.662474
693  2023-12-04 12:29:37.710358
694  2023-12-04 12:29:37.758216
695  2023-12-04 12:29:37.790223
696  2023-12-04 12:29:37.838065
697  2023-12-04 12:29:37.869012
698  2023-12-04 12:29:37.916082
699  2023-12-04 12:29:37.964011
700  2023-12-04 12:29:37.995919
701  2023-12-04 12:29:38.043802
702  2023-12-04 12:29:38.091775
703  2023-12-04 12:29:38.123730
704  2023-12-04 12:29:38.170682
705  2023-12-04 12:29:38.202669
706  2023-12-04 12:29:38.250534
707  2023-12-04 12:29:38.298409
708  2023-12-04 12:29:38.330332
709  2023-12-04 12:29:38.378167
710  2023-12-04 12:29:38.410080
711  2023-12-04 12:29:38.457996
712  2023-12-04 12:29:38.504868
713  2023-12-04 12:29:38.536788
714  2023-12-04 12:29:38.584668
715  2023-12-04 12:29:38.632526
716  2023-12-04 12:29:38.664437
717  2023-12-04 12:29:38.712271
718  2023-12-04 12:29:38.744186
719  2023-12-04 12:29:38.792098
720  2023-12-04 12:29:38.839930
721  2023-12-04 12:29:38.870882
722  2023-12-04 12:29:38.918752
723  2023-12-04 12:29:38.966635
724  2023-12-04 12:29:38.998547
725  2023-12-04 12:29:39.046412
726  2023-12-04 12:29:39.078325
727  2023-12-04 12:29:39.126167
728  2023-12-04 12:29:39.174036
729  2023-12-04 12:29:39.206076
730  2023-12-04 12:29:39.253860
731  2023-12-04 12:29:39.285856
732  2023-12-04 12:29:39.333696
733  2023-12-04 12:29:39.381645
734  2023-12-04 12:29:39.413514
735  2023-12-04 12:29:39.461395
736  2023-12-04 12:29:39.508356
737  2023-12-04 12:29:39.540144
738  2023-12-04 12:29:39.588055
739  2023-12-04 12:29:39.618933
740  2023-12-04 12:29:39.666805
741  2023-12-04 12:29:39.713680
742  2023-12-04 12:29:39.745594
743  2023-12-04 12:29:39.793610
744  2023-12-04 12:29:39.840485
745  2023-12-04 12:29:39.872400
746  2023-12-04 12:29:39.920272
747  2023-12-04 12:29:39.952187
748  2023-12-04 12:29:40.000058
749  2023-12-04 12:29:40.047930
750  2023-12-04 12:29:40.079911
751  2023-12-04 12:29:40.127892
752  2023-12-04 12:29:40.159855
753  2023-12-04 12:29:40.207808
754  2023-12-04 12:29:40.255709
755  2023-12-04 12:29:40.287624
756  2023-12-04 12:29:40.334540
757  2023-12-04 12:29:40.382403
758  2023-12-04 12:29:40.413320
759  2023-12-04 12:29:40.460204
760  2023-12-04 12:29:40.508086
761  2023-12-04 12:29:40.539085
762  2023-12-04 12:29:40.586944
763  2023-12-04 12:29:40.632840
764  2023-12-04 12:29:40.664848
765  2023-12-04 12:29:40.712675
766  2023-12-04 12:29:40.744591
767  2023-12-04 12:29:40.792509
768  2023-12-04 12:29:40.839336
769  2023-12-04 12:29:40.871251
770  2023-12-04 12:29:40.919156
771  2023-12-04 12:29:40.966000
772  2023-12-04 12:29:40.997950
773  2023-12-04 12:29:41.044787
774  2023-12-04 12:29:41.091662
775  2023-12-04 12:29:41.122579
776  2023-12-04 12:29:41.170451
777  2023-12-04 12:29:41.202366
778  2023-12-04 12:29:41.250239
779  2023-12-04 12:29:41.298112
780  2023-12-04 12:29:41.330025
781  2023-12-04 12:29:41.377897
782  2023-12-04 12:29:41.409908
783  2023-12-04 12:29:41.457867
784  2023-12-04 12:29:41.504742
785  2023-12-04 12:29:41.536871
786  2023-12-04 12:29:41.583920
787  2023-12-04 12:29:41.631652
788  2023-12-04 12:29:41.662569
789  2023-12-04 12:29:41.709483
790  2023-12-04 12:29:41.757421
791  2023-12-04 12:29:41.789426
792  2023-12-04 12:29:41.837290
793  2023-12-04 12:29:41.869205
794  2023-12-04 12:29:41.917040
795  2023-12-04 12:29:41.964954
796  2023-12-04 12:29:41.996875
797  2023-12-04 12:29:42.044747
798  2023-12-04 12:29:42.076735
799  2023-12-04 12:29:42.124711
800  2023-12-04 12:29:42.171656
801  2023-12-04 12:29:42.203583
802  2023-12-04 12:29:42.251447
803  2023-12-04 12:29:42.299321
804  2023-12-04 12:29:42.331226
805  2023-12-04 12:29:42.379100
806  2023-12-04 12:29:42.411100
807  2023-12-04 12:29:42.458965
808  2023-12-04 12:29:42.506994
809  2023-12-04 12:29:42.538912
810  2023-12-04 12:29:42.586879
811  2023-12-04 12:29:42.618975
812  2023-12-04 12:29:42.666720
813  2023-12-04 12:29:42.713627
814  2023-12-04 12:29:42.745699
815  2023-12-04 12:29:42.793670
816  2023-12-04 12:29:42.840545
817  2023-12-04 12:29:42.871460
818  2023-12-04 12:29:42.919295
819  2023-12-04 12:29:42.951259
820  2023-12-04 12:29:43.000124
821  2023-12-04 12:29:43.047149
822  2023-12-04 12:29:43.079038
823  2023-12-04 12:29:43.126880
824  2023-12-04 12:29:43.173753
825  2023-12-04 12:29:43.205669
826  2023-12-04 12:29:43.253663
827  2023-12-04 12:29:43.286621
828  2023-12-04 12:29:43.333449
829  2023-12-04 12:29:43.380444
830  2023-12-04 12:29:43.412358
831  2023-12-04 12:29:43.460230
832  2023-12-04 12:29:43.508102
833  2023-12-04 12:29:43.540016
834  2023-12-04 12:29:43.586891
835  2023-12-04 12:29:43.632768
836  2023-12-04 12:29:43.664683
837  2023-12-04 12:29:43.712680
838  2023-12-04 12:29:43.743597
839  2023-12-04 12:29:43.791469
840  2023-12-04 12:29:43.839341
841  2023-12-04 12:29:43.871307
842  2023-12-04 12:29:43.919179
843  2023-12-04 12:29:43.966054
844  2023-12-04 12:29:43.997969
845  2023-12-04 12:29:44.044888
846  2023-12-04 12:29:44.076758
847  2023-12-04 12:29:44.124677
848  2023-12-04 12:29:44.172547
849  2023-12-04 12:29:44.204461
850  2023-12-04 12:29:44.252455
851  2023-12-04 12:29:44.299377
852  2023-12-04 12:29:44.331285
853  2023-12-04 12:29:44.379296
854  2023-12-04 12:29:44.411211
855  2023-12-04 12:29:44.459132
856  2023-12-04 12:29:44.507103
857  2023-12-04 12:29:44.539068
858  2023-12-04 12:29:44.586988
859  2023-12-04 12:29:44.618896
860  2023-12-04 12:29:44.666771
861  2023-12-04 12:29:44.714865
862  2023-12-04 12:29:44.746864
863  2023-12-04 12:29:44.794726
864  2023-12-04 12:29:44.826783
865  2023-12-04 12:29:44.874769
866  2023-12-04 12:29:44.922647
867  2023-12-04 12:29:44.954661
868  2023-12-04 12:29:45.002510
869  2023-12-04 12:29:45.049380
870  2023-12-04 12:29:45.081359
871  2023-12-04 12:29:45.129355
872  2023-12-04 12:29:45.161413
873  2023-12-04 12:29:45.209406
874  2023-12-04 12:29:45.257272
875  2023-12-04 12:29:45.289191
876  2023-12-04 12:29:45.337064
877  2023-12-04 12:29:45.368979
878  2023-12-04 12:29:45.416966
879  2023-12-04 12:29:45.464996
880  2023-12-04 12:29:45.496948
881  2023-12-04 12:29:45.544778
882  2023-12-04 12:29:45.576693
883  2023-12-04 12:29:45.624607
884  2023-12-04 12:29:45.671485
885  2023-12-04 12:29:45.703465
886  2023-12-04 12:29:45.751342
887  2023-12-04 12:29:45.799200
888  2023-12-04 12:29:45.831128
889  2023-12-04 12:29:45.879006
890  2023-12-04 12:29:45.910914
891  2023-12-04 12:29:45.958799
892  2023-12-04 12:29:46.006661
893  2023-12-04 12:29:46.038559
894  2023-12-04 12:29:46.086516
895  2023-12-04 12:29:46.118448
896  2023-12-04 12:29:46.166315
897  2023-12-04 12:29:46.214306
898  2023-12-04 12:29:46.246209
899  2023-12-04 12:29:46.294083
900  2023-12-04 12:29:46.341097
901  2023-12-04 12:29:46.373011
902  2023-12-04 12:29:46.420874
903  2023-12-04 12:29:46.452860
904  2023-12-04 12:29:46.500829
905  2023-12-04 12:29:46.548662
906  2023-12-04 12:29:46.580602
907  2023-12-04 12:29:46.628487
908  2023-12-04 12:29:46.674324
909  2023-12-04 12:29:46.706238
910  2023-12-04 12:29:46.754198
911  2023-12-04 12:29:46.786025
912  2023-12-04 12:29:46.833897
913  2023-12-04 12:29:46.881769
914  2023-12-04 12:29:46.913683
915  2023-12-04 12:29:46.961556
916  2023-12-04 12:29:46.993470
917  2023-12-04 12:29:47.040345
918  2023-12-04 12:29:47.088217
919  2023-12-04 12:29:47.120131
920  2023-12-04 12:29:47.168003
921  2023-12-04 12:29:47.214862
922  2023-12-04 12:29:47.246777
923  2023-12-04 12:29:47.293714
924  2023-12-04 12:29:47.341603
925  2023-12-04 12:29:47.373644
926  2023-12-04 12:29:47.421540
927  2023-12-04 12:29:47.453455
928  2023-12-04 12:29:47.501327
929  2023-12-04 12:29:47.547204
930  2023-12-04 12:29:47.579248
931  2023-12-04 12:29:47.627168
932  2023-12-04 12:29:47.674046
933  2023-12-04 12:29:47.705949
934  2023-12-04 12:29:47.753824
935  2023-12-04 12:29:47.785879
936  2023-12-04 12:29:47.832612
937  2023-12-04 12:29:47.880655
938  2023-12-04 12:29:47.912558
939  2023-12-04 12:29:47.960429
940  2023-12-04 12:29:48.007306
941  2023-12-04 12:29:48.039218
942  2023-12-04 12:29:48.087091
943  2023-12-04 12:29:48.119001
944  2023-12-04 12:29:48.166886
945  2023-12-04 12:29:48.214761
946  2023-12-04 12:29:48.246672
947  2023-12-04 12:29:48.294526
948  2023-12-04 12:29:48.326457
949  2023-12-04 12:29:48.374282
950  2023-12-04 12:29:48.421194
951  2023-12-04 12:29:48.453105
952  2023-12-04 12:29:48.500977
953  2023-12-04 12:29:48.548816
954  2023-12-04 12:29:48.580776
955  2023-12-04 12:29:48.628748
956  2023-12-04 12:29:48.660708
957  2023-12-04 12:29:48.708570
958  2023-12-04 12:29:48.756460
959  2023-12-04 12:29:48.788368
960  2023-12-04 12:29:48.836198
961  2023-12-04 12:29:48.883336
962  2023-12-04 12:29:48.915115
963  2023-12-04 12:29:48.962159
964  2023-12-04 12:29:48.994073
965  2023-12-04 12:29:49.040948
966  2023-12-04 12:29:49.088820
967  2023-12-04 12:29:49.120734
968  2023-12-04 12:29:49.168606
969  2023-12-04 12:29:49.216634
970  2023-12-04 12:29:49.248549
971  2023-12-04 12:29:49.296421
972  2023-12-04 12:29:49.328335
973  2023-12-04 12:29:49.375224
974  2023-12-04 12:29:49.423236
975  2023-12-04 12:29:49.455307
976  2023-12-04 12:29:49.503179
977  2023-12-04 12:29:49.535094
978  2023-12-04 12:29:49.582426
979  2023-12-04 12:29:49.630298
980  2023-12-04 12:29:49.662213
981  2023-12-04 12:29:49.710186
982  2023-12-04 12:29:49.757090
983  2023-12-04 12:29:49.789004
984  2023-12-04 12:29:49.836876
985  2023-12-04 12:29:49.868791
986  2023-12-04 12:29:49.916677
987  2023-12-04 12:29:49.964578
988  2023-12-04 12:29:49.996449
989  2023-12-04 12:29:50.043273
990  2023-12-04 12:29:50.091219
991  2023-12-04 12:29:50.123134
992  2023-12-04 12:29:50.171002
993  2023-12-04 12:29:50.202928
994  2023-12-04 12:29:50.250788
995  2023-12-04 12:29:50.298664
996  2023-12-04 12:29:50.330589
997  2023-12-04 12:29:50.378417
998  2023-12-04 12:29:50.410372
999  2023-12-04 12:29:50.458237
1000  2023-12-04 12:29:50.506120
1001  2023-12-04 12:29:50.538024
1002  2023-12-04 12:29:50.585908
1003  2023-12-04 12:29:50.632769
1004  2023-12-04 12:29:50.664687
1005  2023-12-04 12:29:50.712559
1006  2023-12-04 12:29:50.744469
1007  2023-12-04 12:29:50.792349
1008  2023-12-04 12:29:50.840216
1009  2023-12-04 12:29:50.872130
1010  2023-12-04 12:29:50.920002
1011  2023-12-04 12:29:50.951913
1012  2023-12-04 12:29:50.999788
1013  2023-12-04 12:29:51.047662
1014  2023-12-04 12:29:51.079584
1015  2023-12-04 12:29:51.127445
1016  2023-12-04 12:29:51.174329
1017  2023-12-04 12:29:51.206243
1018  2023-12-04 12:29:51.254115
1019  2023-12-04 12:29:51.286027
1020  2023-12-04 12:29:51.333895
1021  2023-12-04 12:29:51.381768
1022  2023-12-04 12:29:51.413681
1023  2023-12-04 12:29:51.461554
1024  2023-12-04 12:29:51.493478
1025  2023-12-04 12:29:51.541344
1026  2023-12-04 12:29:51.589210
1027  2023-12-04 12:29:51.621134
1028  2023-12-04 12:29:51.669005
1029  2023-12-04 12:29:51.715874
1030  2023-12-04 12:29:51.747768
1031  2023-12-04 12:29:51.795744
1032  2023-12-04 12:29:51.827682
1033  2023-12-04 12:29:51.875539
1034  2023-12-04 12:29:51.923502
1035  2023-12-04 12:29:51.954290
1036  2023-12-04 12:29:52.002162
1037  2023-12-04 12:29:52.050066
1038  2023-12-04 12:29:52.081949
1039  2023-12-04 12:29:52.128824
1040  2023-12-04 12:29:52.160766
1041  2023-12-04 12:29:52.208662
1042  2023-12-04 12:29:52.257513
1043  2023-12-04 12:29:52.289455
1044  2023-12-04 12:29:52.337318
1045  2023-12-04 12:29:52.368216
1046  2023-12-04 12:29:52.416086
1047  2023-12-04 12:29:52.463963
1048  2023-12-04 12:29:52.495876
1049  2023-12-04 12:29:52.543747
1050  2023-12-04 12:29:52.591618
1051  2023-12-04 12:29:52.623502
1052  2023-12-04 12:29:52.671499
1053  2023-12-04 12:29:52.703385
1054  2023-12-04 12:29:52.751257
1055  2023-12-04 12:29:52.800162
1056  2023-12-04 12:29:52.831204
1057  2023-12-04 12:29:52.880074
1058  2023-12-04 12:29:52.912022
1059  2023-12-04 12:29:52.958005
1060  2023-12-04 12:29:53.004740
1061  2023-12-04 12:29:53.036655
1062  2023-12-04 12:29:53.084527
1063  2023-12-04 12:29:53.131448
1064  2023-12-04 12:29:53.163364
1065  2023-12-04 12:29:53.211188
1066  2023-12-04 12:29:53.243135
1067  2023-12-04 12:29:53.289012
1068  2023-12-04 12:29:53.336883
1069  2023-12-04 12:29:53.368798
1070  2023-12-04 12:29:53.416684
1071  2023-12-04 12:29:53.464547
1072  2023-12-04 12:29:53.496466
1073  2023-12-04 12:29:53.544297
1074  2023-12-04 12:29:53.576256
1075  2023-12-04 12:29:53.624125
1076  2023-12-04 12:29:53.670991
1077  2023-12-04 12:29:53.702917
1078  2023-12-04 12:29:53.750777
1079  2023-12-04 12:29:53.798660
1080  2023-12-04 12:29:53.830563
1081  2023-12-04 12:29:53.878437
1082  2023-12-04 12:29:53.924337
1083  2023-12-04 12:29:53.955211
1084  2023-12-04 12:29:54.003109
1085  2023-12-04 12:29:54.035984
1086  2023-12-04 12:29:54.083857
1087  2023-12-04 12:29:54.131794
1088  2023-12-04 12:29:54.162686
1089  2023-12-04 12:29:54.209553
1090  2023-12-04 12:29:54.257441
1091  2023-12-04 12:29:54.288340
1092  2023-12-04 12:29:54.336189
1093  2023-12-04 12:29:54.368105
1094  2023-12-04 12:29:54.415997
1095  2023-12-04 12:29:54.463044
1096  2023-12-04 12:29:54.495976
1097  2023-12-04 12:29:54.542863
1098  2023-12-04 12:29:54.589692
1099  2023-12-04 12:29:54.621606
1100  2023-12-04 12:29:54.668481
1101  2023-12-04 12:29:54.716353
1102  2023-12-04 12:29:54.748268
1103  2023-12-04 12:29:54.796140
1104  2023-12-04 12:29:54.828054
1105  2023-12-04 12:29:54.875926
1106  2023-12-04 12:29:54.923831
1107  2023-12-04 12:29:54.955713
1108  2023-12-04 12:29:55.003632
1109  2023-12-04 12:29:55.035536
1110  2023-12-04 12:29:55.083409
1111  2023-12-04 12:29:55.131281
1112  2023-12-04 12:29:55.162265
1113  2023-12-04 12:29:55.210186
1114  2023-12-04 12:29:55.258284
1115  2023-12-04 12:29:55.289201
1116  2023-12-04 12:29:55.337070
1117  2023-12-04 12:29:55.368983
1118  2023-12-04 12:29:55.416879
1119  2023-12-04 12:29:55.464729
1120  2023-12-04 12:29:55.496644
1121  2023-12-04 12:29:55.543526
1122  2023-12-04 12:29:55.591390
1123  2023-12-04 12:29:55.623308
1124  2023-12-04 12:29:55.671185
1125  2023-12-04 12:29:55.703091
1126  2023-12-04 12:29:55.751000
1127  2023-12-04 12:29:55.798844
1128  2023-12-04 12:29:55.829720
1129  2023-12-04 12:29:55.877647
1130  2023-12-04 12:29:55.924498
1131  2023-12-04 12:29:55.956414
1132  2023-12-04 12:29:56.004294
1133  2023-12-04 12:29:56.036203
1134  2023-12-04 12:29:56.084084
1135  2023-12-04 12:29:56.129955
1136  2023-12-04 12:29:56.161864
1137  2023-12-04 12:29:56.209736
1138  2023-12-04 12:29:56.257610
1139  2023-12-04 12:29:56.289528
1140  2023-12-04 12:29:56.337398
1141  2023-12-04 12:29:56.369307
1142  2023-12-04 12:29:56.417197
1143  2023-12-04 12:29:56.465053
1144  2023-12-04 12:29:56.496968
1145  2023-12-04 12:29:56.544848
1146  2023-12-04 12:29:56.576755
1147  2023-12-04 12:29:56.624628
1148  2023-12-04 12:29:56.672505
1149  2023-12-04 12:29:56.702418
1150  2023-12-04 12:29:56.750289
1151  2023-12-04 12:29:56.798170
1152  2023-12-04 12:29:56.830089
1153  2023-12-04 12:29:56.876959
1154  2023-12-04 12:29:56.923794
1155  2023-12-04 12:29:56.954746
1156  2023-12-04 12:29:57.002617
1157  2023-12-04 12:29:57.049488
1158  2023-12-04 12:29:57.081504
1159  2023-12-04 12:29:57.127286
1160  2023-12-04 12:29:57.174222
1161  2023-12-04 12:29:57.206125
1162  2023-12-04 12:29:57.253000
1163  2023-12-04 12:29:57.285914
1164  2023-12-04 12:29:57.332815
1165  2023-12-04 12:29:57.381688
1166  2023-12-04 12:29:57.412603
1167  2023-12-04 12:29:57.460442
1168  2023-12-04 12:29:57.508314
1169  2023-12-04 12:29:57.540261
1170  2023-12-04 12:29:57.588140
1171  2023-12-04 12:29:57.620047
1172  2023-12-04 12:29:57.667888
1173  2023-12-04 12:29:57.714796
1174  2023-12-04 12:29:57.746710
1175  2023-12-04 12:29:57.794589
1176  2023-12-04 12:29:57.841455
1177  2023-12-04 12:29:57.873378
1178  2023-12-04 12:29:57.921244
1179  2023-12-04 12:29:57.953158
1180  2023-12-04 12:29:58.001029
1181  2023-12-04 12:29:58.048903
1182  2023-12-04 12:29:58.080817
1183  2023-12-04 12:29:58.128690
1184  2023-12-04 12:29:58.160604
1185  2023-12-04 12:29:58.208476
1186  2023-12-04 12:29:58.254349
1187  2023-12-04 12:29:58.285338
1188  2023-12-04 12:29:58.333142
1189  2023-12-04 12:29:58.381005
1190  2023-12-04 12:29:58.412929
1191  2023-12-04 12:29:58.460800
1192  2023-12-04 12:29:58.507675
1193  2023-12-04 12:29:58.539588
1194  2023-12-04 12:29:58.586460
1195  2023-12-04 12:29:58.618398
1196  2023-12-04 12:29:58.666248
1197  2023-12-04 12:29:58.714115
1198  2023-12-04 12:29:58.745045
1199  2023-12-04 12:29:58.792911
1200  2023-12-04 12:29:58.840784
1201  2023-12-04 12:29:58.872696
1202  2023-12-04 12:29:58.920588
1203  2023-12-04 12:29:58.952569
1204  2023-12-04 12:29:59.000439
1205  2023-12-04 12:29:59.048309
1206  2023-12-04 12:29:59.079227
1207  2023-12-04 12:29:59.127104
1208  2023-12-04 12:29:59.175084
1209  2023-12-04 12:29:59.206996
1210  2023-12-04 12:29:59.253872
1211  2023-12-04 12:29:59.285758
1212  2023-12-04 12:29:59.333630
1213  2023-12-04 12:29:59.380499
1214  2023-12-04 12:29:59.412445
1215  2023-12-04 12:29:59.460317
1216  2023-12-04 12:29:59.508157
1217  2023-12-04 12:29:59.540108
1218  2023-12-04 12:29:59.587975
1219  2023-12-04 12:29:59.619902
1220  2023-12-04 12:29:59.667767
1221  2023-12-04 12:29:59.713640
1222  2023-12-04 12:29:59.745554
1223  2023-12-04 12:29:59.793430
1224  2023-12-04 12:29:59.841295
1225  2023-12-04 12:29:59.873213
1226  2023-12-04 12:29:59.921094
1227  2023-12-04 12:29:59.953004
1228  2023-12-04 12:30:00.000870
1229  2023-12-04 12:30:00.048713
1230  2023-12-04 12:30:00.080628
1231  2023-12-04 12:30:00.128500
1232  2023-12-04 12:30:00.160414
1233  2023-12-04 12:30:00.207288
1234  2023-12-04 12:30:00.255161
1235  2023-12-04 12:30:00.287075
1236  2023-12-04 12:30:00.333980
1237  2023-12-04 12:30:00.381851
1238  2023-12-04 12:30:00.413769
1239  2023-12-04 12:30:00.461286
1240  2023-12-04 12:30:00.493283
1241  2023-12-04 12:30:00.541155
1242  2023-12-04 12:30:00.589025
1243  2023-12-04 12:30:00.621111
1244  2023-12-04 12:30:00.668813
1245  2023-12-04 12:30:00.716686
1246  2023-12-04 12:30:00.748600
1247  2023-12-04 12:30:00.796473
1248  2023-12-04 12:30:00.828387
1249  2023-12-04 12:30:00.875261
1250  2023-12-04 12:30:00.923132
1251  2023-12-04 12:30:00.955051
1252  2023-12-04 12:30:01.002922
1253  2023-12-04 12:30:01.034843
1254  2023-12-04 12:30:01.082707
1255  2023-12-04 12:30:01.130594
1256  2023-12-04 12:30:01.162488
1257  2023-12-04 12:30:01.210505
1258  2023-12-04 12:30:01.259249
1259  2023-12-04 12:30:01.290160
1260  2023-12-04 12:30:01.338027
1261  2023-12-04 12:30:01.369939
1262  2023-12-04 12:30:01.417827
1263  2023-12-04 12:30:01.465736
1264  2023-12-04 12:30:01.497720
1265  2023-12-04 12:30:01.545579
1266  2023-12-04 12:30:01.577501
1267  2023-12-04 12:30:01.625371
1268  2023-12-04 12:30:01.674210
1269  2023-12-04 12:30:01.704163
1270  2023-12-04 12:30:01.752033
1271  2023-12-04 12:30:01.799906
1272  2023-12-04 12:30:01.831820
1273  2023-12-04 12:30:01.879692
1274  2023-12-04 12:30:01.910611
1275  2023-12-04 12:30:01.957454
1276  2023-12-04 12:30:02.006429
1277  2023-12-04 12:30:02.038332
1278  2023-12-04 12:30:02.085208
1279  2023-12-04 12:30:02.132113
1280  2023-12-04 12:30:02.164029
1281  2023-12-04 12:30:02.211867
1282  2023-12-04 12:30:02.257744
1283  2023-12-04 12:30:02.288662
1284  2023-12-04 12:30:02.336534
1285  2023-12-04 12:30:02.368585
1286  2023-12-04 12:30:02.416353
1287  2023-12-04 12:30:02.464224
1288  2023-12-04 12:30:02.496138
1289  2023-12-04 12:30:02.544015
1290  2023-12-04 12:30:02.590889
1291  2023-12-04 12:30:02.621804
1292  2023-12-04 12:30:02.669675
1293  2023-12-04 12:30:02.701590
1294  2023-12-04 12:30:02.749468
1295  2023-12-04 12:30:02.797335
1296  2023-12-04 12:30:02.829249
1297  2023-12-04 12:30:02.877118
1298  2023-12-04 12:30:02.924991
1299  2023-12-04 12:30:02.955909
1300  2023-12-04 12:30:03.003786
1301  2023-12-04 12:30:03.035696
1302  2023-12-04 12:30:03.083573
1303  2023-12-04 12:30:03.130445
1304  2023-12-04 12:30:03.162377
1305  2023-12-04 12:30:03.210241
1306  2023-12-04 12:30:03.258108
1307  2023-12-04 12:30:03.290017
1308  2023-12-04 12:30:03.337886
1309  2023-12-04 12:30:03.369771
1310  2023-12-04 12:30:03.417675
1311  2023-12-04 12:30:03.465559
1312  2023-12-04 12:30:03.496481
1313  2023-12-04 12:30:03.544446
1314  2023-12-04 12:30:03.576362
1315  2023-12-04 12:30:03.624235
1316  2023-12-04 12:30:03.672106
1317  2023-12-04 12:30:03.704020
1318  2023-12-04 12:30:03.751930
1319  2023-12-04 12:30:03.799766
1320  2023-12-04 12:30:03.831685
1321  2023-12-04 12:30:03.879519
1322  2023-12-04 12:30:03.910463
1323  2023-12-04 12:30:03.958337
1324  2023-12-04 12:30:04.006214
1325  2023-12-04 12:30:04.038127
1326  2023-12-04 12:30:04.086008
1327  2023-12-04 12:30:04.117925
1328  2023-12-04 12:30:04.165784
1329  2023-12-04 12:30:04.213668
1330  2023-12-04 12:30:04.245539
1331  2023-12-04 12:30:04.293410
1332  2023-12-04 12:30:04.341282
1333  2023-12-04 12:30:04.373350
1334  2023-12-04 12:30:04.420225
1335  2023-12-04 12:30:04.452106
1336  2023-12-04 12:30:04.500014
1337  2023-12-04 12:30:04.547849
1338  2023-12-04 12:30:04.579911
1339  2023-12-04 12:30:04.627741
1340  2023-12-04 12:30:04.659683
1341  2023-12-04 12:30:04.707577
1342  2023-12-04 12:30:04.755545
1343  2023-12-04 12:30:04.787546
1344  2023-12-04 12:30:04.835419
1345  2023-12-04 12:30:04.883460
1346  2023-12-04 12:30:04.915374
1347  2023-12-04 12:30:04.963246
1348  2023-12-04 12:30:04.996218
1349  2023-12-04 12:30:05.043245
1350  2023-12-04 12:30:05.091117
1351  2023-12-04 12:30:05.123040
1352  2023-12-04 12:30:05.170904
1353  2023-12-04 12:30:05.203900
1354  2023-12-04 12:30:05.250863
1355  2023-12-04 12:30:05.298840
1356  2023-12-04 12:30:05.330754
1357  2023-12-04 12:30:05.378758
1358  2023-12-04 12:30:05.409675
1359  2023-12-04 12:30:05.457547
1360  2023-12-04 12:30:05.505419
1361  2023-12-04 12:30:05.537334
1362  2023-12-04 12:30:05.584208
1363  2023-12-04 12:30:05.632210
1364  2023-12-04 12:30:05.664125
1365  2023-12-04 12:30:05.711997
1366  2023-12-04 12:30:05.743911
1367  2023-12-04 12:30:05.791783
1368  2023-12-04 12:30:05.839655
1369  2023-12-04 12:30:05.871570
1370  2023-12-04 12:30:05.919442
1371  2023-12-04 12:30:05.951356
1372  2023-12-04 12:30:05.999228
1373  2023-12-04 12:30:06.046149
1374  2023-12-04 12:30:06.078018
1375  2023-12-04 12:30:06.125963
1376  2023-12-04 12:30:06.173887
1377  2023-12-04 12:30:06.205806
1378  2023-12-04 12:30:06.253793
1379  2023-12-04 12:30:06.285741
1380  2023-12-04 12:30:06.332713
1381  2023-12-04 12:30:06.380658
1382  2023-12-04 12:30:06.412563
1383  2023-12-04 12:30:06.460546
1384  2023-12-04 12:30:06.508315
1385  2023-12-04 12:30:06.540226
1386  2023-12-04 12:30:06.588195
1387  2023-12-04 12:30:06.620111
1388  2023-12-04 12:30:06.668049
1389  2023-12-04 12:30:06.715966
1390  2023-12-04 12:30:06.747881
1391  2023-12-04 12:30:06.795756
1392  2023-12-04 12:30:06.827665
1393  2023-12-04 12:30:06.875537
1394  2023-12-04 12:30:06.923412
1395  2023-12-04 12:30:06.955330
1396  2023-12-04 12:30:07.003198
1397  2023-12-04 12:30:07.035133
1398  2023-12-04 12:30:07.083089
1399  2023-12-04 12:30:07.130958
1400  2023-12-04 12:30:07.162863
1401  2023-12-04 12:30:07.210732
1402  2023-12-04 12:30:07.257619
1403  2023-12-04 12:30:07.289633
1404  2023-12-04 12:30:07.337497
1405  2023-12-04 12:30:07.369416
1406  2023-12-04 12:30:07.416388
1407  2023-12-04 12:30:07.464113
1408  2023-12-04 12:30:07.496078
1409  2023-12-04 12:30:07.543937
1410  2023-12-04 12:30:07.590820
1411  2023-12-04 12:30:07.621793
1412  2023-12-04 12:30:07.669678
1413  2023-12-04 12:30:07.702589
1414  2023-12-04 12:30:07.749527
1415  2023-12-04 12:30:07.797423
1416  2023-12-04 12:30:07.829493
1417  2023-12-04 12:30:07.877188
1418  2023-12-04 12:30:07.925058
1419  2023-12-04 12:30:07.957003
1420  2023-12-04 12:30:08.004843
1421  2023-12-04 12:30:08.037828
1422  2023-12-04 12:30:08.085736
1423  2023-12-04 12:30:08.133623
1424  2023-12-04 12:30:08.165517
1425  2023-12-04 12:30:08.213412
1426  2023-12-04 12:30:08.244321
1427  2023-12-04 12:30:08.291148
1428  2023-12-04 12:30:08.339020
1429  2023-12-04 12:30:08.370935
1430  2023-12-04 12:30:08.418807
1431  2023-12-04 12:30:08.466678
1432  2023-12-04 12:30:08.498732
1433  2023-12-04 12:30:08.546465
1434  2023-12-04 12:30:08.578380
1435  2023-12-04 12:30:08.626252
1436  2023-12-04 12:30:08.674124
1437  2023-12-04 12:30:08.706038
1438  2023-12-04 12:30:08.753910
1439  2023-12-04 12:30:08.785825
1440  2023-12-04 12:30:08.833697
1441  2023-12-04 12:30:08.881569
1442  2023-12-04 12:30:08.914481
1443  2023-12-04 12:30:08.961356
1444  2023-12-04 12:30:08.993270
1445  2023-12-04 12:30:09.041142
1446  2023-12-04 12:30:09.089014
1447  2023-12-04 12:30:09.120929
1448  2023-12-04 12:30:09.168801
1449  2023-12-04 12:30:09.216801
1450  2023-12-04 12:30:09.248716
1451  2023-12-04 12:30:09.296588
1452  2023-12-04 12:30:09.328502
1453  2023-12-04 12:30:09.376374
1454  2023-12-04 12:30:09.424246
1455  2023-12-04 12:30:09.456161
1456  2023-12-04 12:30:09.503227
1457  2023-12-04 12:30:09.535141
1458  2023-12-04 12:30:09.583013
1459  2023-12-04 12:30:09.629888
1460  2023-12-04 12:30:09.660806
1461  2023-12-04 12:30:09.708677
1462  2023-12-04 12:30:09.755602
1463  2023-12-04 12:30:09.787498
1464  2023-12-04 12:30:09.835383
1465  2023-12-04 12:30:09.883245
1466  2023-12-04 12:30:09.915160
1467  2023-12-04 12:30:09.962407
1468  2023-12-04 12:30:09.993133
1469  2023-12-04 12:30:10.041006
1470  2023-12-04 12:30:10.088876
1471  2023-12-04 12:30:10.120785
1472  2023-12-04 12:30:10.168656
1473  2023-12-04 12:30:10.215531
1474  2023-12-04 12:30:10.248440
1475  2023-12-04 12:30:10.295309
1476  2023-12-04 12:30:10.327199
1477  2023-12-04 12:30:10.375099
1478  2023-12-04 12:30:10.422970
1479  2023-12-04 12:30:10.454908
1480  2023-12-04 12:30:10.502757
1481  2023-12-04 12:30:10.534672
1482  2023-12-04 12:30:10.582540
1483  2023-12-04 12:30:10.630425
1484  2023-12-04 12:30:10.662294
1485  2023-12-04 12:30:10.710201
1486  2023-12-04 12:30:10.758040
1487  2023-12-04 12:30:10.789000
1488  2023-12-04 12:30:10.836829
1489  2023-12-04 12:30:10.869776
1490  2023-12-04 12:30:10.917662
1491  2023-12-04 12:30:10.965592
1492  2023-12-04 12:30:10.996559
1493  2023-12-04 12:30:11.045433
1494  2023-12-04 12:30:11.077365
1495  2023-12-04 12:30:11.125222
1496  2023-12-04 12:30:11.171108
1497  2023-12-04 12:30:11.203974
1498  2023-12-04 12:30:11.250848
1499  2023-12-04 12:30:11.299750
1500  2023-12-04 12:30:11.331697
1501  2023-12-04 12:30:11.379539
1502  2023-12-04 12:30:11.411500
1503  2023-12-04 12:30:11.459368
1504  2023-12-04 12:30:11.507244
1505  2023-12-04 12:30:11.539159
1506  2023-12-04 12:30:11.584988
1507  2023-12-04 12:30:11.632860
1508  2023-12-04 12:30:11.664775
1509  2023-12-04 12:30:11.712778
1510  2023-12-04 12:30:11.744693
1511  2023-12-04 12:30:11.792564
1512  2023-12-04 12:30:11.840437
1513  2023-12-04 12:30:11.872351
1514  2023-12-04 12:30:11.920346
1515  2023-12-04 12:30:11.951309
1516  2023-12-04 12:30:11.998184
1517  2023-12-04 12:30:12.046173
1518  2023-12-04 12:30:12.078085
1519  2023-12-04 12:30:12.125957
1520  2023-12-04 12:30:12.172831
1521  2023-12-04 12:30:12.204746
1522  2023-12-04 12:30:12.252649
1523  2023-12-04 12:30:12.284569
1524  2023-12-04 12:30:12.331442
1525  2023-12-04 12:30:12.378320
1526  2023-12-04 12:30:12.410222
1527  2023-12-04 12:30:12.457184
1528  2023-12-04 12:30:12.505078
1529  2023-12-04 12:30:12.537088
1530  2023-12-04 12:30:12.585138
1531  2023-12-04 12:30:12.632826
1532  2023-12-04 12:30:12.664741
1533  2023-12-04 12:30:12.712620
1534  2023-12-04 12:30:12.744704
1535  2023-12-04 12:30:12.791569
1536  2023-12-04 12:30:12.839432
1537  2023-12-04 12:30:12.871468
1538  2023-12-04 12:30:12.919291
1539  2023-12-04 12:30:12.965368
1540  2023-12-04 12:30:12.997281
1541  2023-12-04 12:30:13.045192
1542  2023-12-04 12:30:13.076193
1543  2023-12-04 12:30:13.124102
1544  2023-12-04 12:30:13.172002
1545  2023-12-04 12:30:13.202883
1546  2023-12-04 12:30:13.250726
1547  2023-12-04 12:30:13.299622
1548  2023-12-04 12:30:13.330514
1549  2023-12-04 12:30:13.379413
1550  2023-12-04 12:30:13.410300
1551  2023-12-04 12:30:13.458213
1552  2023-12-04 12:30:13.506078
1553  2023-12-04 12:30:13.537988
1554  2023-12-04 12:30:13.585879
1555  2023-12-04 12:30:13.633750
1556  2023-12-04 12:30:13.665661
1557  2023-12-04 12:30:13.712492
1558  2023-12-04 12:30:13.743604
1559  2023-12-04 12:30:13.791476
1560  2023-12-04 12:30:13.838351
1561  2023-12-04 12:30:13.869268
1562  2023-12-04 12:30:13.917141
1563  2023-12-04 12:30:13.965013
1564  2023-12-04 12:30:13.996927
1565  2023-12-04 12:30:14.044799
1566  2023-12-04 12:30:14.076714
1567  2023-12-04 12:30:14.123621
1568  2023-12-04 12:30:14.171460
1569  2023-12-04 12:30:14.203375
1570  2023-12-04 12:30:14.251292
1571  2023-12-04 12:30:14.299119
1572  2023-12-04 12:30:14.331090
1573  2023-12-04 12:30:14.379020
1574  2023-12-04 12:30:14.410975
1575  2023-12-04 12:30:14.458849
1576  2023-12-04 12:30:14.506912
1577  2023-12-04 12:30:14.538824
1578  2023-12-04 12:30:14.586698
1579  2023-12-04 12:30:14.618612
1580  2023-12-04 12:30:14.666588
1581  2023-12-04 12:30:14.714354
1582  2023-12-04 12:30:14.746253
1583  2023-12-04 12:30:14.794131
1584  2023-12-04 12:30:14.841010
1585  2023-12-04 12:30:14.872922
1586  2023-12-04 12:30:14.920799
1587  2023-12-04 12:30:14.952713
1588  2023-12-04 12:30:15.000548
1589  2023-12-04 12:30:15.047424
1590  2023-12-04 12:30:15.079393
1591  2023-12-04 12:30:15.127252
1592  2023-12-04 12:30:15.174139
1593  2023-12-04 12:30:15.206051
1594  2023-12-04 12:30:15.253902
1595  2023-12-04 12:30:15.285826
1596  2023-12-04 12:30:15.333706
1597  2023-12-04 12:30:15.381567
1598  2023-12-04 12:30:15.413482
1599  2023-12-04 12:30:15.461362
1600  2023-12-04 12:30:15.508276
1601  2023-12-04 12:30:15.540194
1602  2023-12-04 12:30:15.588201
1603  2023-12-04 12:30:15.619156
1604  2023-12-04 12:30:15.667020
1605  2023-12-04 12:30:15.715909
1606  2023-12-04 12:30:15.746811
1607  2023-12-04 12:30:15.794691
1608  2023-12-04 12:30:15.826596
1609  2023-12-04 12:30:15.874434
1610  2023-12-04 12:30:15.922336
1611  2023-12-04 12:30:15.954220
1612  2023-12-04 12:30:16.002410
1613  2023-12-04 12:30:16.049316
1614  2023-12-04 12:30:16.081199
1615  2023-12-04 12:30:16.129118
1616  2023-12-04 12:30:16.160986
1617  2023-12-04 12:30:16.208893
1618  2023-12-04 12:30:16.255780
1619  2023-12-04 12:30:16.287684
1620  2023-12-04 12:30:16.335558
1621  2023-12-04 12:30:16.382566
1622  2023-12-04 12:30:16.414481
1623  2023-12-04 12:30:16.461355
1624  2023-12-04 12:30:16.493270
1625  2023-12-04 12:30:16.541290
1626  2023-12-04 12:30:16.588215
1627  2023-12-04 12:30:16.620123
1628  2023-12-04 12:30:16.667952
1629  2023-12-04 12:30:16.716002
1630  2023-12-04 12:30:16.747771
1631  2023-12-04 12:30:16.795610
1632  2023-12-04 12:30:16.827557
1633  2023-12-04 12:30:16.874431
1634  2023-12-04 12:30:16.922306
1635  2023-12-04 12:30:16.954225
1636  2023-12-04 12:30:17.002058
1637  2023-12-04 12:30:17.049977
1638  2023-12-04 12:30:17.081880
1639  2023-12-04 12:30:17.129756
1640  2023-12-04 12:30:17.161665
1641  2023-12-04 12:30:17.208538
1642  2023-12-04 12:30:17.256411
1643  2023-12-04 12:30:17.288325
1644  2023-12-04 12:30:17.336165
1645  2023-12-04 12:30:17.368212
1646  2023-12-04 12:30:17.415953
1647  2023-12-04 12:30:17.463823
1648  2023-12-04 12:30:17.495738
1649  2023-12-04 12:30:17.542644
1650  2023-12-04 12:30:17.589528
1651  2023-12-04 12:30:17.621402
1652  2023-12-04 12:30:17.669305
1653  2023-12-04 12:30:17.701242
1654  2023-12-04 12:30:17.749204
1655  2023-12-04 12:30:17.796963
1656  2023-12-04 12:30:17.828883
1657  2023-12-04 12:30:17.876754
1658  2023-12-04 12:30:17.924628
1659  2023-12-04 12:30:17.956548
1660  2023-12-04 12:30:18.004413
1661  2023-12-04 12:30:18.036324
1662  2023-12-04 12:30:18.084200
1663  2023-12-04 12:30:18.132068
1664  2023-12-04 12:30:18.163981
1665  2023-12-04 12:30:18.210860
1666  2023-12-04 12:30:18.257737
1667  2023-12-04 12:30:18.289659
1668  2023-12-04 12:30:18.337520
1669  2023-12-04 12:30:18.369434
1670  2023-12-04 12:30:18.417308
1671  2023-12-04 12:30:18.464188
1672  2023-12-04 12:30:18.496208
1673  2023-12-04 12:30:18.544042
1674  2023-12-04 12:30:18.590956
1675  2023-12-04 12:30:18.622865
1676  2023-12-04 12:30:18.670748
1677  2023-12-04 12:30:18.701660
1678  2023-12-04 12:30:18.749494
1679  2023-12-04 12:30:18.798373
1680  2023-12-04 12:30:18.830314
1681  2023-12-04 12:30:18.878174
1682  2023-12-04 12:30:18.926051
1683  2023-12-04 12:30:18.957978
1684  2023-12-04 12:30:19.003813
1685  2023-12-04 12:30:19.035727
1686  2023-12-04 12:30:19.083633
1687  2023-12-04 12:30:19.131505
1688  2023-12-04 12:30:19.163419
1689  2023-12-04 12:30:19.210296
1690  2023-12-04 12:30:19.258441
1691  2023-12-04 12:30:19.290398
1692  2023-12-04 12:30:19.338236
1693  2023-12-04 12:30:19.370151
1694  2023-12-04 12:30:19.416083
1695  2023-12-04 12:30:19.462903
1696  2023-12-04 12:30:19.494818
1697  2023-12-04 12:30:19.542728
1698  2023-12-04 12:30:19.590592
1699  2023-12-04 12:30:19.622510
1700  2023-12-04 12:30:19.670382
1701  2023-12-04 12:30:19.701267
1702  2023-12-04 12:30:19.747144
1703  2023-12-04 12:30:19.794052
1704  2023-12-04 12:30:19.841078
1705  2023-12-04 12:30:19.872989
1706  2023-12-04 12:30:19.920852
1707  2023-12-04 12:30:19.952764
1708  2023-12-04 12:30:20.000772
1709  2023-12-04 12:30:20.047763
1710  2023-12-04 12:30:20.079683
1711  2023-12-04 12:30:20.127644
1712  2023-12-04 12:30:20.159561
1713  2023-12-04 12:30:20.207430
1714  2023-12-04 12:30:20.255300
1715  2023-12-04 12:30:20.287216
1716  2023-12-04 12:30:20.335087
1717  2023-12-04 12:30:20.382959
1718  2023-12-04 12:30:20.414873
1719  2023-12-04 12:30:20.461750
1720  2023-12-04 12:30:20.493664
1721  2023-12-04 12:30:20.540546
1722  2023-12-04 12:30:20.588411
1723  2023-12-04 12:30:20.620327
1724  2023-12-04 12:30:20.668197
1725  2023-12-04 12:30:20.716074
1726  2023-12-04 12:30:20.746990
1727  2023-12-04 12:30:20.794858
1728  2023-12-04 12:30:20.826785
1729  2023-12-04 12:30:20.873649
1730  2023-12-04 12:30:20.921520
1731  2023-12-04 12:30:20.953439
1732  2023-12-04 12:30:21.001275
1733  2023-12-04 12:30:21.049187
1734  2023-12-04 12:30:21.081091
1735  2023-12-04 12:30:21.128993
1736  2023-12-04 12:30:21.160975
1737  2023-12-04 12:30:21.208915
1738  2023-12-04 12:30:21.256755
1739  2023-12-04 12:30:21.288673
1740  2023-12-04 12:30:21.336597
1741  2023-12-04 12:30:21.368512
1742  2023-12-04 12:30:21.416415
1743  2023-12-04 12:30:21.464397
1744  2023-12-04 12:30:21.496171
1745  2023-12-04 12:30:21.544075
1746  2023-12-04 12:30:21.590950
1747  2023-12-04 12:30:21.622871
1748  2023-12-04 12:30:21.670735
1749  2023-12-04 12:30:21.702619
1750  2023-12-04 12:30:21.751522
1751  2023-12-04 12:30:21.798363
1752  2023-12-04 12:30:21.830277
1753  2023-12-04 12:30:21.878291
1754  2023-12-04 12:30:21.910096
1755  2023-12-04 12:30:21.957951
1756  2023-12-04 12:30:22.005811
1757  2023-12-04 12:30:22.037725
1758  2023-12-04 12:30:22.085608
1759  2023-12-04 12:30:22.132469
1760  2023-12-04 12:30:22.164384
1761  2023-12-04 12:30:22.212316
1762  2023-12-04 12:30:22.244202
1763  2023-12-04 12:30:22.292045
1764  2023-12-04 12:30:22.339915
1765  2023-12-04 12:30:22.371870
1766  2023-12-04 12:30:22.419750
1767  2023-12-04 12:30:22.451617
1768  2023-12-04 12:30:22.499488
1769  2023-12-04 12:30:22.546363
1770  2023-12-04 12:30:22.578277
1771  2023-12-04 12:30:22.625182
1772  2023-12-04 12:30:22.673059
1773  2023-12-04 12:30:22.704938
1774  2023-12-04 12:30:22.752876
1775  2023-12-04 12:30:22.784791
1776  2023-12-04 12:30:22.832663
1777  2023-12-04 12:30:22.879537
1778  2023-12-04 12:30:22.910619
1779  2023-12-04 12:30:22.958405
1780  2023-12-04 12:30:23.006242
1781  2023-12-04 12:30:23.038190
1782  2023-12-04 12:30:23.086060
1783  2023-12-04 12:30:23.117983
1784  2023-12-04 12:30:23.164849
1785  2023-12-04 12:30:23.211729
1786  2023-12-04 12:30:23.243677
1787  2023-12-04 12:30:23.290514
1788  2023-12-04 12:30:23.337357
1789  2023-12-04 12:30:23.369272
1790  2023-12-04 12:30:23.416186
1791  2023-12-04 12:30:23.464018
1792  2023-12-04 12:30:23.495933
1793  2023-12-04 12:30:23.541813
1794  2023-12-04 12:30:23.589871
1795  2023-12-04 12:30:23.620783
1796  2023-12-04 12:30:23.668659
1797  2023-12-04 12:30:23.716533
1798  2023-12-04 12:30:23.748412
1799  2023-12-04 12:30:23.796283
1800  2023-12-04 12:30:23.828198
1801  2023-12-04 12:30:23.876121
1802  2023-12-04 12:30:23.924058
1803  2023-12-04 12:30:23.955014
1804  2023-12-04 12:30:24.002971
1805  2023-12-04 12:30:24.035940
1806  2023-12-04 12:30:24.081915
1807  2023-12-04 12:30:24.129757
1808  2023-12-04 12:30:24.161704
1809  2023-12-04 12:30:24.209543
1810  2023-12-04 12:30:24.257415
1811  2023-12-04 12:30:24.289363
1812  2023-12-04 12:30:24.336236
1813  2023-12-04 12:30:24.368149
1814  2023-12-04 12:30:24.416023
1815  2023-12-04 12:30:24.463893
1816  2023-12-04 12:30:24.495819
1817  2023-12-04 12:30:24.543681
1818  2023-12-04 12:30:24.590558
1819  2023-12-04 12:30:24.622472
1820  2023-12-04 12:30:24.670341
1821  2023-12-04 12:30:24.702258
1822  2023-12-04 12:30:24.750128
1823  2023-12-04 12:30:24.797002
1824  2023-12-04 12:30:24.828918
1825  2023-12-04 12:30:24.876791
1826  2023-12-04 12:30:24.923670
1827  2023-12-04 12:30:24.955581
1828  2023-12-04 12:30:25.003602
1829  2023-12-04 12:30:25.035629
1830  2023-12-04 12:30:25.083513
1831  2023-12-04 12:30:25.131365
1832  2023-12-04 12:30:25.163284
1833  2023-12-04 12:30:25.210149
1834  2023-12-04 12:30:25.259108
1835  2023-12-04 12:30:25.290038
1836  2023-12-04 12:30:25.338891
1837  2023-12-04 12:30:25.369765
1838  2023-12-04 12:30:25.417675
1839  2023-12-04 12:30:25.465543
1840  2023-12-04 12:30:25.497455
1841  2023-12-04 12:30:25.543334
1842  2023-12-04 12:30:25.591209
1843  2023-12-04 12:30:25.623119
1844  2023-12-04 12:30:25.670959
1845  2023-12-04 12:30:25.702874
1846  2023-12-04 12:30:25.750778
1847  2023-12-04 12:30:25.798618
1848  2023-12-04 12:30:25.830533
1849  2023-12-04 12:30:25.878442
1850  2023-12-04 12:30:25.910353
1851  2023-12-04 12:30:25.958236
1852  2023-12-04 12:30:26.006150
1853  2023-12-04 12:30:26.037978
1854  2023-12-04 12:30:26.084906
1855  2023-12-04 12:30:26.132948
1856  2023-12-04 12:30:26.164863
1857  2023-12-04 12:30:26.212779
1858  2023-12-04 12:30:26.244697
1859  2023-12-04 12:30:26.292521
1860  2023-12-04 12:30:26.339397
1861  2023-12-04 12:30:26.371311
1862  2023-12-04 12:30:26.419182
1863  2023-12-04 12:30:26.465931
1864  2023-12-04 12:30:26.497892
1865  2023-12-04 12:30:26.544763
1866  2023-12-04 12:30:26.576677
1867  2023-12-04 12:30:26.624594
1868  2023-12-04 12:30:26.672421
1869  2023-12-04 12:30:26.704384
1870  2023-12-04 12:30:26.752239
1871  2023-12-04 12:30:26.800080
1872  2023-12-04 12:30:26.832028
1873  2023-12-04 12:30:26.879866
1874  2023-12-04 12:30:26.911830
1875  2023-12-04 12:30:26.959736
1876  2023-12-04 12:30:27.007611
1877  2023-12-04 12:30:27.038729
1878  2023-12-04 12:30:27.086603
1879  2023-12-04 12:30:27.118599
1880  2023-12-04 12:30:27.166688
1881  2023-12-04 12:30:27.214659
1882  2023-12-04 12:30:27.246551
1883  2023-12-04 12:30:27.294418
1884  2023-12-04 12:30:27.326332
1885  2023-12-04 12:30:27.374205
1886  2023-12-04 12:30:27.421088
1887  2023-12-04 12:30:27.453035
1888  2023-12-04 12:30:27.500998
1889  2023-12-04 12:30:27.548858
1890  2023-12-04 12:30:27.580777
1891  2023-12-04 12:30:27.627990
1892  2023-12-04 12:30:27.660045
1893  2023-12-04 12:30:27.707025
1894  2023-12-04 12:30:27.754981
1895  2023-12-04 12:30:27.786888
1896  2023-12-04 12:30:27.833728
1897  2023-12-04 12:30:27.880543
1898  2023-12-04 12:30:27.912459
1899  2023-12-04 12:30:27.958440
1900  2023-12-04 12:30:28.006430
1901  2023-12-04 12:30:28.037297
1902  2023-12-04 12:30:28.085203
1903  2023-12-04 12:30:28.133040
1904  2023-12-04 12:30:28.164955
1905  2023-12-04 12:30:28.212860
1906  2023-12-04 12:30:28.244742
1907  2023-12-04 12:30:28.292743
1908  2023-12-04 12:30:28.339702
1909  2023-12-04 12:30:28.371616
1910  2023-12-04 12:30:28.419457
1911  2023-12-04 12:30:28.451411
1912  2023-12-04 12:30:28.498322
1913  2023-12-04 12:30:28.545232
1914  2023-12-04 12:30:28.577147
1915  2023-12-04 12:30:28.625019
1916  2023-12-04 12:30:28.671893
1917  2023-12-04 12:30:28.703808
1918  2023-12-04 12:30:28.751680
1919  2023-12-04 12:30:28.798555
1920  2023-12-04 12:30:28.830469
1921  2023-12-04 12:30:28.878424
1922  2023-12-04 12:30:28.910339
1923  2023-12-04 12:30:28.957384
1924  2023-12-04 12:30:29.005257
1925  2023-12-04 12:30:29.037162
1926  2023-12-04 12:30:29.085033
1927  2023-12-04 12:30:29.131914
1928  2023-12-04 12:30:29.163872
1929  2023-12-04 12:30:29.211772
1930  2023-12-04 12:30:29.243697
1931  2023-12-04 12:30:29.290570
1932  2023-12-04 12:30:29.337450
1933  2023-12-04 12:30:29.369365
1934  2023-12-04 12:30:29.417232
1935  2023-12-04 12:30:29.465062
1936  2023-12-04 12:30:29.497013
1937  2023-12-04 12:30:29.544882
1938  2023-12-04 12:30:29.576810
1939  2023-12-04 12:30:29.623683
1940  2023-12-04 12:30:29.671510
1941  2023-12-04 12:30:29.703467
1942  2023-12-04 12:30:29.750323
1943  2023-12-04 12:30:29.797173
1944  2023-12-04 12:30:29.828091
1945  2023-12-04 12:30:29.874966
1946  2023-12-04 12:30:29.922073
1947  2023-12-04 12:30:29.953982
1948  2023-12-04 12:30:30.001854
1949  2023-12-04 12:30:30.049758
1950  2023-12-04 12:30:30.081640
1951  2023-12-04 12:30:30.129657
1952  2023-12-04 12:30:30.161427
1953  2023-12-04 12:30:30.209299
1954  2023-12-04 12:30:30.257171
1955  2023-12-04 12:30:30.289085
1956  2023-12-04 12:30:30.335960
1957  2023-12-04 12:30:30.367875
1958  2023-12-04 12:30:30.415747
1959  2023-12-04 12:30:30.463619
1960  2023-12-04 12:30:30.495534
1961  2023-12-04 12:30:30.543490
1962  2023-12-04 12:30:30.590404
1963  2023-12-04 12:30:30.622319
1964  2023-12-04 12:30:30.670224
1965  2023-12-04 12:30:30.702139
1966  2023-12-04 12:30:30.749413
1967  2023-12-04 12:30:30.797290
1968  2023-12-04 12:30:30.829205
1969  2023-12-04 12:30:30.877135
1970  2023-12-04 12:30:30.925074
1971  2023-12-04 12:30:30.956984
1972  2023-12-04 12:30:31.003862
1973  2023-12-04 12:30:31.035787
1974  2023-12-04 12:30:31.083645
1975  2023-12-04 12:30:31.131527
1976  2023-12-04 12:30:31.163568
1977  2023-12-04 12:30:31.211318
1978  2023-12-04 12:30:31.243226
1979  2023-12-04 12:30:31.291093
1980  2023-12-04 12:30:31.338973
1981  2023-12-04 12:30:31.369887
1982  2023-12-04 12:30:31.417772
1983  2023-12-04 12:30:31.465633
1984  2023-12-04 12:30:31.497532
1985  2023-12-04 12:30:31.545424
1986  2023-12-04 12:30:31.577332
1987  2023-12-04 12:30:31.625205
1988  2023-12-04 12:30:31.673087
1989  2023-12-04 12:30:31.704951
1990  2023-12-04 12:30:31.752936
1991  2023-12-04 12:30:31.784808
1992  2023-12-04 12:30:31.832728
1993  2023-12-04 12:30:31.880585
1994  2023-12-04 12:30:31.911509
1995  2023-12-04 12:30:31.959382
1996  2023-12-04 12:30:32.007385
1997  2023-12-04 12:30:32.039279
1998  2023-12-04 12:30:32.088297
1999  2023-12-04 12:30:32.120201
2000  2023-12-04 12:30:32.167035
2001  2023-12-04 12:30:32.214944
2002  2023-12-04 12:30:32.247854
2003  2023-12-04 12:30:32.293822
2004  2023-12-04 12:30:32.341744
2005  2023-12-04 12:30:32.373773
2006  2023-12-04 12:30:32.421546
2007  2023-12-04 12:30:32.453456
2008  2023-12-04 12:30:32.501333
2009  2023-12-04 12:30:32.550190
2010  2023-12-04 12:30:32.582116
2011  2023-12-04 12:30:32.630029
2012  2023-12-04 12:30:32.660982
2013  2023-12-04 12:30:32.708858
2014  2023-12-04 12:30:32.756731
2015  2023-12-04 12:30:32.788629
2016  2023-12-04 12:30:32.834480
2017  2023-12-04 12:30:32.882352
2018  2023-12-04 12:30:32.914266
2019  2023-12-04 12:30:32.962138
2020  2023-12-04 12:30:32.994180
2021  2023-12-04 12:30:33.040927
2022  2023-12-04 12:30:33.088799
2023  2023-12-04 12:30:33.120714
2024  2023-12-04 12:30:33.168586
2025  2023-12-04 12:30:33.216458
2026  2023-12-04 12:30:33.247375
2027  2023-12-04 12:30:33.295299
2028  2023-12-04 12:30:33.327162
2029  2023-12-04 12:30:33.375171
2030  2023-12-04 12:30:33.423054
2031  2023-12-04 12:30:33.454958
2032  2023-12-04 12:30:33.501832
2033  2023-12-04 12:30:33.549812
2034  2023-12-04 12:30:33.581724
2035  2023-12-04 12:30:33.629692
2036  2023-12-04 12:30:33.661599
2037  2023-12-04 12:30:33.709437
2038  2023-12-04 12:30:33.756352
2039  2023-12-04 12:30:33.788262
2040  2023-12-04 12:30:33.836098
2041  2023-12-04 12:30:33.868109
2042  2023-12-04 12:30:33.916019
2043  2023-12-04 12:30:33.962902
2044  2023-12-04 12:30:33.994918
2045  2023-12-04 12:30:34.042807
2046  2023-12-04 12:30:34.090750
2047  2023-12-04 12:30:34.122648
2048  2023-12-04 12:30:34.170531
2049  2023-12-04 12:30:34.202431
2050  2023-12-04 12:30:34.250448
2051  2023-12-04 12:30:34.298286
2052  2023-12-04 12:30:34.330307
2053  2023-12-04 12:30:34.378178
2054  2023-12-04 12:30:34.410185
2055  2023-12-04 12:30:34.457016
2056  2023-12-04 12:30:34.503934
2057  2023-12-04 12:30:34.535975
2058  2023-12-04 12:30:34.583846
2059  2023-12-04 12:30:34.631725
2060  2023-12-04 12:30:34.662645
2061  2023-12-04 12:30:34.710688
2062  2023-12-04 12:30:34.757654
2063  2023-12-04 12:30:34.789561
2064  2023-12-04 12:30:34.837559
2065  2023-12-04 12:30:34.869361
2066  2023-12-04 12:30:34.917225
2067  2023-12-04 12:30:34.965100
2068  2023-12-04 12:30:34.997008
2069  2023-12-04 12:30:35.045014
2070  2023-12-04 12:30:35.076927
2071  2023-12-04 12:30:35.124768
2072  2023-12-04 12:30:35.172640
2073  2023-12-04 12:30:35.204554
2074  2023-12-04 12:30:35.253473
2075  2023-12-04 12:30:35.300351
2076  2023-12-04 12:30:35.330218
2077  2023-12-04 12:30:35.376094
2078  2023-12-04 12:30:35.423966
2079  2023-12-04 12:30:35.454979
2080  2023-12-04 12:30:35.500856
2081  2023-12-04 12:30:35.547769
2082  2023-12-04 12:30:35.579686
2083  2023-12-04 12:30:35.627561
2084  2023-12-04 12:30:35.674437
2085  2023-12-04 12:30:35.706337
2086  2023-12-04 12:30:35.754226
2087  2023-12-04 12:30:35.786127
2088  2023-12-04 12:30:35.833998
2089  2023-12-04 12:30:35.881874
2090  2023-12-04 12:30:35.913792
2091  2023-12-04 12:30:35.960666
2092  2023-12-04 12:30:36.007535
2093  2023-12-04 12:30:36.039458
2094  2023-12-04 12:30:36.087325
2095  2023-12-04 12:30:36.119235
2096  2023-12-04 12:30:36.167285
2097  2023-12-04 12:30:36.215146
2098  2023-12-04 12:30:36.247060
2099  2023-12-04 12:30:36.294933
2100  2023-12-04 12:30:36.326847
2101  2023-12-04 12:30:36.374718
2102  2023-12-04 12:30:36.422558
2103  2023-12-04 12:30:36.454520
2104  2023-12-04 12:30:36.502378
2105  2023-12-04 12:30:36.549246
2106  2023-12-04 12:30:36.581186
2107  2023-12-04 12:30:36.629028
2108  2023-12-04 12:30:36.659956
2109  2023-12-04 12:30:36.707848
2110  2023-12-04 12:30:36.755711
2111  2023-12-04 12:30:36.785626
2112  2023-12-04 12:30:36.833507
2113  2023-12-04 12:30:36.881528
2114  2023-12-04 12:30:36.913448
2115  2023-12-04 12:30:36.959273
2116  2023-12-04 12:30:37.007145
2117  2023-12-04 12:30:37.038142
2118  2023-12-04 12:30:37.085121
2119  2023-12-04 12:30:37.132947
2120  2023-12-04 12:30:37.164939
2121  2023-12-04 12:30:37.212854
2122  2023-12-04 12:30:37.244768
2123  2023-12-04 12:30:37.292673
2124  2023-12-04 12:30:37.339688
2125  2023-12-04 12:30:37.371603
2126  2023-12-04 12:30:37.419475
2127  2023-12-04 12:30:37.451432
2128  2023-12-04 12:30:37.499261
2129  2023-12-04 12:30:37.547169
2130  2023-12-04 12:30:37.579048
2131  2023-12-04 12:30:37.626959
2132  2023-12-04 12:30:37.673795
2133  2023-12-04 12:30:37.705709
2134  2023-12-04 12:30:37.753718
2135  2023-12-04 12:30:37.785640
2136  2023-12-04 12:30:37.833470
2137  2023-12-04 12:30:37.881383
2138  2023-12-04 12:30:37.913313
2139  2023-12-04 12:30:37.961166
2140  2023-12-04 12:30:37.993082
2141  2023-12-04 12:30:38.040916
2142  2023-12-04 12:30:38.087844
2143  2023-12-04 12:30:38.119738
2144  2023-12-04 12:30:38.167577
2145  2023-12-04 12:30:38.215485
2146  2023-12-04 12:30:38.247364
2147  2023-12-04 12:30:38.294273
2148  2023-12-04 12:30:38.326185
2149  2023-12-04 12:30:38.373062
2150  2023-12-04 12:30:38.420901
2151  2023-12-04 12:30:38.452851
2152  2023-12-04 12:30:38.500722
2153  2023-12-04 12:30:38.547599
2154  2023-12-04 12:30:38.579526
2155  2023-12-04 12:30:38.627382
2156  2023-12-04 12:30:38.674222
2157  2023-12-04 12:30:38.706169
2158  2023-12-04 12:30:38.754185
2159  2023-12-04 12:30:38.786111
2160  2023-12-04 12:30:38.833979
2161  2023-12-04 12:30:38.881936
2162  2023-12-04 12:30:38.913851
2163  2023-12-04 12:30:38.960770
2164  2023-12-04 12:30:39.008607
2165  2023-12-04 12:30:39.040557
2166  2023-12-04 12:30:39.088434
2167  2023-12-04 12:30:39.120441
2168  2023-12-04 12:30:39.168309
2169  2023-12-04 12:30:39.216192
2170  2023-12-04 12:30:39.248094
2171  2023-12-04 12:30:39.295963
2172  2023-12-04 12:30:39.327893
2173  2023-12-04 12:30:39.373729
2174  2023-12-04 12:30:39.421632
2175  2023-12-04 12:30:39.453542
2176  2023-12-04 12:30:39.501388
2177  2023-12-04 12:30:39.549260
2178  2023-12-04 12:30:39.581174
2179  2023-12-04 12:30:39.629088
2180  2023-12-04 12:30:39.660998
2181  2023-12-04 12:30:39.708001
2182  2023-12-04 12:30:39.755749
2183  2023-12-04 12:30:39.786670
2184  2023-12-04 12:30:39.834497
2185  2023-12-04 12:30:39.882410
2186  2023-12-04 12:30:39.914313
2187  2023-12-04 12:30:39.961350
2188  2023-12-04 12:30:39.993246
2189  2023-12-04 12:30:40.041085
2190  2023-12-04 12:30:40.087968
2191  2023-12-04 12:30:40.119878
2192  2023-12-04 12:30:40.167746
2193  2023-12-04 12:30:40.215729
2194  2023-12-04 12:30:40.247681
2195  2023-12-04 12:30:40.295542
2196  2023-12-04 12:30:40.327465
2197  2023-12-04 12:30:40.374335
2198  2023-12-04 12:30:40.422176
2199  2023-12-04 12:30:40.454132
2200  2023-12-04 12:30:40.502003
2201  2023-12-04 12:30:40.547968
2202  2023-12-04 12:30:40.759368
2203  2023-12-04 12:30:40.785298
2204  2023-12-04 12:30:40.833170
2205  2023-12-04 12:30:40.881042
2206  2023-12-04 12:30:40.911991
2207  2023-12-04 12:30:40.960959
2208  2023-12-04 12:30:41.008826
2209  2023-12-04 12:30:41.039739
2210  2023-12-04 12:30:41.088736
2211  2023-12-04 12:30:41.120658
2212  2023-12-04 12:30:41.168536
2213  2023-12-04 12:30:41.216411
2214  2023-12-04 12:30:41.248444
2215  2023-12-04 12:30:41.296316
2216  2023-12-04 12:30:41.328225
2217  2023-12-04 12:30:41.376101
2218  2023-12-04 12:30:41.420984
2219  2023-12-04 12:30:41.452899
2220  2023-12-04 12:30:41.500732
2221  2023-12-04 12:30:41.548604
2222  2023-12-04 12:30:41.580685
2223  2023-12-04 12:30:41.627426
2224  2023-12-04 12:30:41.674267
2225  2023-12-04 12:30:41.705185
2226  2023-12-04 12:30:41.752250
2227  2023-12-04 12:30:41.800070
2228  2023-12-04 12:30:41.831957
2229  2023-12-04 12:30:41.879832
2230  2023-12-04 12:30:41.911940
2231  2023-12-04 12:30:41.959630
2232  2023-12-04 12:30:42.006526
2233  2023-12-04 12:30:42.038405
2234  2023-12-04 12:30:42.086280
2235  2023-12-04 12:30:42.118193
2236  2023-12-04 12:30:42.166103
2237  2023-12-04 12:30:42.211949
2238  2023-12-04 12:30:42.243898
2239  2023-12-04 12:30:42.291758
2240  2023-12-04 12:30:42.339703
2241  2023-12-04 12:30:42.371626
2242  2023-12-04 12:30:42.419508
2243  2023-12-04 12:30:42.452373
2244  2023-12-04 12:30:42.498279
2245  2023-12-04 12:30:42.546121
2246  2023-12-04 12:30:42.577198
2247  2023-12-04 12:30:42.624942
2248  2023-12-04 12:30:42.672782
2249  2023-12-04 12:30:42.704697
2250  2023-12-04 12:30:42.752600
2251  2023-12-04 12:30:42.784520
2252  2023-12-04 12:30:42.831391
2253  2023-12-04 12:30:42.879276
2254  2023-12-04 12:30:42.910148
2255  2023-12-04 12:30:42.959052
2256  2023-12-04 12:30:43.004931
2257  2023-12-04 12:30:43.036840
2258  2023-12-04 12:30:43.085704
2259  2023-12-04 12:30:43.131595
2260  2023-12-04 12:30:43.163505
2261  2023-12-04 12:30:43.211455
2262  2023-12-04 12:30:43.258377
2263  2023-12-04 12:30:43.290275
2264  2023-12-04 12:30:43.338268
2265  2023-12-04 12:30:43.370031
2266  2023-12-04 12:30:43.417934
2267  2023-12-04 12:30:43.465775
2268  2023-12-04 12:30:43.497727
2269  2023-12-04 12:30:43.545694
2270  2023-12-04 12:30:43.577476
2271  2023-12-04 12:30:43.625394
2272  2023-12-04 12:30:43.672223
2273  2023-12-04 12:30:43.703140
2274  2023-12-04 12:30:43.751043
2275  2023-12-04 12:30:43.798884
2276  2023-12-04 12:30:43.830799
2277  2023-12-04 12:30:43.878727
2278  2023-12-04 12:30:43.910586
2279  2023-12-04 12:30:43.957505
2280  2023-12-04 12:30:44.004370
2281  2023-12-04 12:30:44.036285
2282  2023-12-04 12:30:44.084153
2283  2023-12-04 12:30:44.132024
2284  2023-12-04 12:30:44.162942
2285  2023-12-04 12:30:44.210816
2286  2023-12-04 12:30:44.257695
2287  2023-12-04 12:30:44.289613
2288  2023-12-04 12:30:44.337476
2289  2023-12-04 12:30:44.368397
2290  2023-12-04 12:30:44.416233
2291  2023-12-04 12:30:44.464137
2292  2023-12-04 12:30:44.495965
2293  2023-12-04 12:30:44.542935
2294  2023-12-04 12:30:44.590810
2295  2023-12-04 12:30:44.622720
2296  2023-12-04 12:30:44.670593
2297  2023-12-04 12:30:44.702527
2298  2023-12-04 12:30:44.749388
2299  2023-12-04 12:30:44.797408
2300  2023-12-04 12:30:44.830308
2301  2023-12-04 12:30:44.877184
2302  2023-12-04 12:30:44.926050
2303  2023-12-04 12:30:44.957970
2304  2023-12-04 12:30:45.004843
2305  2023-12-04 12:30:45.037748
2306  2023-12-04 12:30:45.083628
2307  2023-12-04 12:30:45.132499
2308  2023-12-04 12:30:45.164424
2309  2023-12-04 12:30:45.210259
2310  2023-12-04 12:30:45.258251
2311  2023-12-04 12:30:45.290248
2312  2023-12-04 12:30:45.337941
2313  2023-12-04 12:30:45.369856
2314  2023-12-04 12:30:45.416763
2315  2023-12-04 12:30:45.464602
2316  2023-12-04 12:30:45.496517
2317  2023-12-04 12:30:45.544389
2318  2023-12-04 12:30:45.576331
2319  2023-12-04 12:30:45.624218
2320  2023-12-04 12:30:45.672048
2321  2023-12-04 12:30:45.703962
2322  2023-12-04 12:30:45.751891
2323  2023-12-04 12:30:45.799706
2324  2023-12-04 12:30:45.831621
2325  2023-12-04 12:30:45.879552
2326  2023-12-04 12:30:45.910410
2327  2023-12-04 12:30:45.958283
2328  2023-12-04 12:30:46.004160
2329  2023-12-04 12:30:46.036074
2330  2023-12-04 12:30:46.083979
2331  2023-12-04 12:30:46.130823
2332  2023-12-04 12:30:46.162765
2333  2023-12-04 12:30:46.210669
2334  2023-12-04 12:30:46.257583
2335  2023-12-04 12:30:46.289488
2336  2023-12-04 12:30:46.337440
2337  2023-12-04 12:30:46.369356
2338  2023-12-04 12:30:46.416195
2339  2023-12-04 12:30:46.463102
2340  2023-12-04 12:30:46.495020
2341  2023-12-04 12:30:46.542901
2342  2023-12-04 12:30:46.589856
2343  2023-12-04 12:30:46.621776
2344  2023-12-04 12:30:46.669647
2345  2023-12-04 12:30:46.701653
2346  2023-12-04 12:30:46.748517
2347  2023-12-04 12:30:46.796398
2348  2023-12-04 12:30:46.828319
2349  2023-12-04 12:30:46.876177
2350  2023-12-04 12:30:46.923061
2351  2023-12-04 12:30:46.955959
2352  2023-12-04 12:30:47.002811
2353  2023-12-04 12:30:47.050735
2354  2023-12-04 12:30:47.082631
2355  2023-12-04 12:30:47.130514
2356  2023-12-04 12:30:47.160415
2357  2023-12-04 12:30:47.208254
2358  2023-12-04 12:30:47.256191
2359  2023-12-04 12:30:47.288078
2360  2023-12-04 12:30:47.334916
2361  2023-12-04 12:30:47.381825
2362  2023-12-04 12:30:47.413740
2363  2023-12-04 12:30:47.461577
2364  2023-12-04 12:30:47.494521
2365  2023-12-04 12:30:47.541364
2366  2023-12-04 12:30:47.589269
2367  2023-12-04 12:30:47.620154
2368  2023-12-04 12:30:47.668140
2369  2023-12-04 12:30:47.715972
2370  2023-12-04 12:30:47.747970
2371  2023-12-04 12:30:47.795844
2372  2023-12-04 12:30:47.827758
2373  2023-12-04 12:30:47.875676
2374  2023-12-04 12:30:47.923512
2375  2023-12-04 12:30:47.955568
2376  2023-12-04 12:30:48.003400
2377  2023-12-04 12:30:48.035465
2378  2023-12-04 12:30:48.083383
2379  2023-12-04 12:30:48.131209
2380  2023-12-04 12:30:48.163124
2381  2023-12-04 12:30:48.210998
2382  2023-12-04 12:30:48.242911
2383  2023-12-04 12:30:48.290783
2384  2023-12-04 12:30:48.337658
2385  2023-12-04 12:30:48.369573
2386  2023-12-04 12:30:48.417445
2387  2023-12-04 12:30:48.465481
2388  2023-12-04 12:30:48.497395
2389  2023-12-04 12:30:48.545369
2390  2023-12-04 12:30:48.577304
2391  2023-12-04 12:30:48.623187
2392  2023-12-04 12:30:48.671159
2393  2023-12-04 12:30:48.703061
2394  2023-12-04 12:30:48.749939
2395  2023-12-04 12:30:48.798095
2396  2023-12-04 12:30:48.829860
2397  2023-12-04 12:30:48.877700
2398  2023-12-04 12:30:48.909656
2399  2023-12-04 12:30:48.956530
2400  2023-12-04 12:30:49.004458
2401  2023-12-04 12:30:49.036441
2402  2023-12-04 12:30:49.084309
2403  2023-12-04 12:30:49.132190
2404  2023-12-04 12:30:49.164095
2405  2023-12-04 12:30:49.211974
2406  2023-12-04 12:30:49.243885
2407  2023-12-04 12:30:49.291875
2408  2023-12-04 12:30:49.338751
2409  2023-12-04 12:30:49.370785
2410  2023-12-04 12:30:49.417688
2411  2023-12-04 12:30:49.464725
2412  2023-12-04 12:30:49.496657
2413  2023-12-04 12:30:49.544634
2414  2023-12-04 12:30:49.590513
2415  2023-12-04 12:30:49.622396
2416  2023-12-04 12:30:49.670266
2417  2023-12-04 12:30:49.702181
2418  2023-12-04 12:30:49.751052
2419  2023-12-04 12:30:49.797924
2420  2023-12-04 12:30:49.829839
2421  2023-12-04 12:30:49.876714
2422  2023-12-04 12:30:49.924620
2423  2023-12-04 12:30:49.956533
2424  2023-12-04 12:30:50.004536
2425  2023-12-04 12:30:50.035454
2426  2023-12-04 12:30:50.083423
2427  2023-12-04 12:30:50.130200
2428  2023-12-04 12:30:50.162201
2429  2023-12-04 12:30:50.210073
2430  2023-12-04 12:30:50.257982
2431  2023-12-04 12:30:50.289860
2432  2023-12-04 12:30:50.337773
2433  2023-12-04 12:30:50.369646
2434  2023-12-04 12:30:50.416521
2435  2023-12-04 12:30:50.464435
2436  2023-12-04 12:30:50.495385
2437  2023-12-04 12:30:50.543298
2438  2023-12-04 12:30:50.590168
2439  2023-12-04 12:30:50.622083
2440  2023-12-04 12:30:50.668961
2441  2023-12-04 12:30:50.715801
2442  2023-12-04 12:30:50.747749
2443  2023-12-04 12:30:50.795623
2444  2023-12-04 12:30:50.827509
2445  2023-12-04 12:30:50.875511
2446  2023-12-04 12:30:50.923383
2447  2023-12-04 12:30:50.955295
2448  2023-12-04 12:30:51.003135
2449  2023-12-04 12:30:51.035049
2450  2023-12-04 12:30:51.081960
2451  2023-12-04 12:30:51.130825
2452  2023-12-04 12:30:51.160750
2453  2023-12-04 12:30:51.207616
2454  2023-12-04 12:30:51.256488
2455  2023-12-04 12:30:51.286379
2456  2023-12-04 12:30:51.336297
2457  2023-12-04 12:30:51.381279
2458  2023-12-04 12:30:51.413199
2459  2023-12-04 12:30:51.461065
2460  2023-12-04 12:30:51.492980
2461  2023-12-04 12:30:51.540955
2462  2023-12-04 12:30:51.587739
2463  2023-12-04 12:30:51.620615
2464  2023-12-04 12:30:51.667480
2465  2023-12-04 12:30:51.715352
2466  2023-12-04 12:30:51.747267
2467  2023-12-04 12:30:51.795275
2468  2023-12-04 12:30:51.827053
2469  2023-12-04 12:30:51.873927
2470  2023-12-04 12:30:51.921799
2471  2023-12-04 12:30:51.953714
2472  2023-12-04 12:30:52.001587
2473  2023-12-04 12:30:52.049458
2474  2023-12-04 12:30:52.080375
2475  2023-12-04 12:30:52.128280
2476  2023-12-04 12:30:52.160162
2477  2023-12-04 12:30:52.207072
2478  2023-12-04 12:30:52.254944
2479  2023-12-04 12:30:52.286857
2480  2023-12-04 12:30:52.334765
2481  2023-12-04 12:30:52.382713
2482  2023-12-04 12:30:52.414631
2483  2023-12-04 12:30:52.462520
2484  2023-12-04 12:30:52.494414
2485  2023-12-04 12:30:52.542342
2486  2023-12-04 12:30:52.590349
2487  2023-12-04 12:30:52.621889
2488  2023-12-04 12:30:52.669739
2489  2023-12-04 12:30:52.701752
2490  2023-12-04 12:30:52.749594
2491  2023-12-04 12:30:52.797501
2492  2023-12-04 12:30:52.829568
2493  2023-12-04 12:30:52.877253
2494  2023-12-04 12:30:52.924166
2495  2023-12-04 12:30:52.956076
2496  2023-12-04 12:30:53.004009
2497  2023-12-04 12:30:53.035932
2498  2023-12-04 12:30:53.083826
2499  2023-12-04 12:30:53.131691
2500  2023-12-04 12:30:53.163601
2501  2023-12-04 12:30:53.211466
2502  2023-12-04 12:30:53.243381
2503  2023-12-04 12:30:53.290268
2504  2023-12-04 12:30:53.338215
2505  2023-12-04 12:30:53.370039
2506  2023-12-04 12:30:53.417926
2507  2023-12-04 12:30:53.465784
2508  2023-12-04 12:30:53.497703
2509  2023-12-04 12:30:53.545537
2510  2023-12-04 12:30:53.577489
2511  2023-12-04 12:30:53.625357
2512  2023-12-04 12:30:53.672235
2513  2023-12-04 12:30:53.704146
2514  2023-12-04 12:30:53.751986
2515  2023-12-04 12:30:53.800034
2516  2023-12-04 12:30:53.831917
2517  2023-12-04 12:30:53.879970
2518  2023-12-04 12:30:53.910851
2519  2023-12-04 12:30:53.958769
2520  2023-12-04 12:30:54.007593
2521  2023-12-04 12:30:54.039565
2522  2023-12-04 12:30:54.087416
2523  2023-12-04 12:30:54.118320
2524  2023-12-04 12:30:54.166209
2525  2023-12-04 12:30:54.214075
2526  2023-12-04 12:30:54.245140
2527  2023-12-04 12:30:54.294090
2528  2023-12-04 12:30:54.339933
2529  2023-12-04 12:30:54.371847
2530  2023-12-04 12:30:54.418723
2531  2023-12-04 12:30:54.466594
2532  2023-12-04 12:30:54.498509
2533  2023-12-04 12:30:54.546381
2534  2023-12-04 12:30:54.578295
2535  2023-12-04 12:30:54.626167
2536  2023-12-04 12:30:54.674039
2537  2023-12-04 12:30:54.705954
2538  2023-12-04 12:30:54.753826
2539  2023-12-04 12:30:54.785326
2540  2023-12-04 12:30:54.833221
2541  2023-12-04 12:30:54.881093
2542  2023-12-04 12:30:54.913008
2543  2023-12-04 12:30:54.960915
2544  2023-12-04 12:30:54.992795
2545  2023-12-04 12:30:55.040667
2546  2023-12-04 12:30:55.087541
2547  2023-12-04 12:30:55.119456
2548  2023-12-04 12:30:55.167372
2549  2023-12-04 12:30:55.215200
2550  2023-12-04 12:30:55.246117
2551  2023-12-04 12:30:55.294127
2552  2023-12-04 12:30:55.340962
2553  2023-12-04 12:30:55.371927
2554  2023-12-04 12:30:55.419792
2555  2023-12-04 12:30:55.451704
2556  2023-12-04 12:30:55.499571
2557  2023-12-04 12:30:55.547410
2558  2023-12-04 12:30:55.579325
2559  2023-12-04 12:30:55.627243
2560  2023-12-04 12:30:55.674108
2561  2023-12-04 12:30:55.705986
2562  2023-12-04 12:30:55.752862
2563  2023-12-04 12:30:55.785774
2564  2023-12-04 12:30:55.831651
2565  2023-12-04 12:30:55.879524
2566  2023-12-04 12:30:55.911472
2567  2023-12-04 12:30:55.960340
2568  2023-12-04 12:30:56.007214
2569  2023-12-04 12:30:56.039128
2570  2023-12-04 12:30:56.087019
2571  2023-12-04 12:30:56.117960
2572  2023-12-04 12:30:56.165797
2573  2023-12-04 12:30:56.213630
2574  2023-12-04 12:30:56.245586
2575  2023-12-04 12:30:56.292465
2576  2023-12-04 12:30:56.340335
2577  2023-12-04 12:30:56.372239
2578  2023-12-04 12:30:56.421138
2579  2023-12-04 12:30:56.465966
2580  2023-12-04 12:30:56.497868
2581  2023-12-04 12:30:56.545747
2582  2023-12-04 12:30:56.577655
2583  2023-12-04 12:30:56.625527
2584  2023-12-04 12:30:56.673399
2585  2023-12-04 12:30:56.705313
2586  2023-12-04 12:30:56.753185
2587  2023-12-04 12:30:56.799103
2588  2023-12-04 12:30:56.830978
2589  2023-12-04 12:30:56.878849
2590  2023-12-04 12:30:56.910764
2591  2023-12-04 12:30:56.957783
2592  2023-12-04 12:30:57.005511
2593  2023-12-04 12:30:57.037468
2594  2023-12-04 12:30:57.084335
2595  2023-12-04 12:30:57.132215
2596  2023-12-04 12:30:57.164128
2597  2023-12-04 12:30:57.212096
2598  2023-12-04 12:30:57.243978
2599  2023-12-04 12:30:57.291982
2600  2023-12-04 12:30:57.339900
2601  2023-12-04 12:30:57.371852
2602  2023-12-04 12:30:57.419723
2603  2023-12-04 12:30:57.451638
2604  2023-12-04 12:30:57.499512
2605  2023-12-04 12:30:57.547383
2606  2023-12-04 12:30:57.579260
2607  2023-12-04 12:30:57.627169
2608  2023-12-04 12:30:57.674041
2609  2023-12-04 12:30:57.705961
2610  2023-12-04 12:30:57.753796
2611  2023-12-04 12:30:57.786709
2612  2023-12-04 12:30:57.832584
2613  2023-12-04 12:30:57.880493
2614  2023-12-04 12:30:57.912415
2615  2023-12-04 12:30:57.960244
2616  2023-12-04 12:30:58.007153
2617  2023-12-04 12:30:58.039063
2618  2023-12-04 12:30:58.085958
2619  2023-12-04 12:30:58.117870
2620  2023-12-04 12:30:58.165738
2621  2023-12-04 12:30:58.213566
2622  2023-12-04 12:30:58.245537
2623  2023-12-04 12:30:58.293347
2624  2023-12-04 12:30:58.341221
2625  2023-12-04 12:30:58.373099
2626  2023-12-04 12:30:58.422965
2627  2023-12-04 12:30:58.451932
2628  2023-12-04 12:30:58.500810
2629  2023-12-04 12:30:58.546668
2630  2023-12-04 12:30:58.578581
2631  2023-12-04 12:30:58.626456
2632  2023-12-04 12:30:58.672297
2633  2023-12-04 12:30:58.703214
2634  2023-12-04 12:30:58.751086
2635  2023-12-04 12:30:58.797995
2636  2023-12-04 12:30:58.829910
2637  2023-12-04 12:30:58.877748
2638  2023-12-04 12:30:58.909662
2639  2023-12-04 12:30:58.957581
2640  2023-12-04 12:30:59.005442
2641  2023-12-04 12:30:59.037355
2642  2023-12-04 12:30:59.085234
2643  2023-12-04 12:30:59.133065
2644  2023-12-04 12:30:59.165018
2645  2023-12-04 12:30:59.212851
2646  2023-12-04 12:30:59.244766
2647  2023-12-04 12:30:59.292674
2648  2023-12-04 12:30:59.339513
2649  2023-12-04 12:30:59.371427
2650  2023-12-04 12:30:59.419459
2651  2023-12-04 12:30:59.451501
2652  2023-12-04 12:30:59.499470
2653  2023-12-04 12:30:59.547305
2654  2023-12-04 12:30:59.579219
2655  2023-12-04 12:30:59.626134
2656  2023-12-04 12:30:59.673999
2657  2023-12-04 12:30:59.705919
2658  2023-12-04 12:30:59.753791
2659  2023-12-04 12:30:59.785701
2660  2023-12-04 12:30:59.832711
2661  2023-12-04 12:30:59.880539
2662  2023-12-04 12:30:59.912445
2663  2023-12-04 12:30:59.960320
2664  2023-12-04 12:31:00.008155
2665  2023-12-04 12:31:00.040109
2666  2023-12-04 12:31:00.086985
2667  2023-12-04 12:31:00.117892
2668  2023-12-04 12:31:00.165768
2669  2023-12-04 12:31:00.213606
2670  2023-12-04 12:31:00.245521
2671  2023-12-04 12:31:00.293426
2672  2023-12-04 12:31:00.341301
2673  2023-12-04 12:31:00.372215
2674  2023-12-04 12:31:00.421105
2675  2023-12-04 12:31:00.451970
2676  2023-12-04 12:31:00.499889
2677  2023-12-04 12:31:00.547824
2678  2023-12-04 12:31:00.580856
2679  2023-12-04 12:31:00.627689
2680  2023-12-04 12:31:00.659685
2681  2023-12-04 12:31:00.707511
2682  2023-12-04 12:31:00.755348
2683  2023-12-04 12:31:00.787302
2684  2023-12-04 12:31:00.835176
2685  2023-12-04 12:31:00.883006
2686  2023-12-04 12:31:00.914961
2687  2023-12-04 12:31:00.962826
2688  2023-12-04 12:31:00.994738
2689  2023-12-04 12:31:01.041581
2690  2023-12-04 12:31:01.090485
2691  2023-12-04 12:31:01.121395
2692  2023-12-04 12:31:01.171262
2693  2023-12-04 12:31:01.201285
2694  2023-12-04 12:31:01.251155
2695  2023-12-04 12:31:01.297037
2696  2023-12-04 12:31:01.328947
2697  2023-12-04 12:31:01.376819
2698  2023-12-04 12:31:01.424773
2699  2023-12-04 12:31:01.456689
2700  2023-12-04 12:31:01.502533
2701  2023-12-04 12:31:01.534448
2702  2023-12-04 12:31:01.582320
2703  2023-12-04 12:31:01.630192
2704  2023-12-04 12:31:01.662149
2705  2023-12-04 12:31:01.709979
2706  2023-12-04 12:31:01.758004
2707  2023-12-04 12:31:01.789885
2708  2023-12-04 12:31:01.837800
2709  2023-12-04 12:31:01.869826
2710  2023-12-04 12:31:01.917698
2711  2023-12-04 12:31:01.965570
2712  2023-12-04 12:31:01.997522
2713  2023-12-04 12:31:02.045357
2714  2023-12-04 12:31:02.076274
2715  2023-12-04 12:31:02.123187
2716  2023-12-04 12:31:02.170023
2717  2023-12-04 12:31:02.216063
2718  2023-12-04 12:31:02.247978
2719  2023-12-04 12:31:02.294855
2720  2023-12-04 12:31:02.340731
2721  2023-12-04 12:31:02.372608
2722  2023-12-04 12:31:02.420549
2723  2023-12-04 12:31:02.452477
2724  2023-12-04 12:31:02.500320
2725  2023-12-04 12:31:02.548304
2726  2023-12-04 12:31:02.580170
2727  2023-12-04 12:31:02.628092
2728  2023-12-04 12:31:02.660109
2729  2023-12-04 12:31:02.707957
2730  2023-12-04 12:31:02.756004
2731  2023-12-04 12:31:02.786895
2732  2023-12-04 12:31:02.834770
2733  2023-12-04 12:31:02.882618
2734  2023-12-04 12:31:02.914576
2735  2023-12-04 12:31:02.962424
2736  2023-12-04 12:31:02.994339
2737  2023-12-04 12:31:03.042211
2738  2023-12-04 12:31:03.090060
2739  2023-12-04 12:31:03.121968
2740  2023-12-04 12:31:03.169885
2741  2023-12-04 12:31:03.201791
2742  2023-12-04 12:31:03.249753
2743  2023-12-04 12:31:03.297654
2744  2023-12-04 12:31:03.329567
2745  2023-12-04 12:31:03.377574
2746  2023-12-04 12:31:03.409647
2747  2023-12-04 12:31:03.457361
2748  2023-12-04 12:31:03.505242
2749  2023-12-04 12:31:03.537153
2750  2023-12-04 12:31:03.584988
2751  2023-12-04 12:31:03.632893
2752  2023-12-04 12:31:03.663829
2753  2023-12-04 12:31:03.711686
2754  2023-12-04 12:31:03.756529
2755  2023-12-04 12:31:03.788444
2756  2023-12-04 12:31:03.836316
2757  2023-12-04 12:31:03.868266
2758  2023-12-04 12:31:03.916102
2759  2023-12-04 12:31:03.964012
2760  2023-12-04 12:31:03.995922
2761  2023-12-04 12:31:04.043761
2762  2023-12-04 12:31:04.090670
2763  2023-12-04 12:31:04.121588
2764  2023-12-04 12:31:04.169464
2765  2023-12-04 12:31:04.201381
2766  2023-12-04 12:31:04.249247
2767  2023-12-04 12:31:04.296117
2768  2023-12-04 12:31:04.328050
2769  2023-12-04 12:31:04.375968
2770  2023-12-04 12:31:04.423890
2771  2023-12-04 12:31:04.455756
2772  2023-12-04 12:31:04.503627
2773  2023-12-04 12:31:04.535656
2774  2023-12-04 12:31:04.583611
2775  2023-12-04 12:31:04.631534
2776  2023-12-04 12:31:04.662417
2777  2023-12-04 12:31:04.710288
2778  2023-12-04 12:31:04.758171
2779  2023-12-04 12:31:04.790076
2780  2023-12-04 12:31:04.837946
2781  2023-12-04 12:31:04.869861
2782  2023-12-04 12:31:04.917787
2783  2023-12-04 12:31:04.965662
2784  2023-12-04 12:31:04.996556
2785  2023-12-04 12:31:05.044433
2786  2023-12-04 12:31:05.076344
2787  2023-12-04 12:31:05.123233
2788  2023-12-04 12:31:05.171090
2789  2023-12-04 12:31:05.202016
2790  2023-12-04 12:31:05.249903
2791  2023-12-04 12:31:05.296806
2792  2023-12-04 12:31:05.328799
2793  2023-12-04 12:31:05.376670
2794  2023-12-04 12:31:05.424544
2795  2023-12-04 12:31:05.456471
2796  2023-12-04 12:31:05.503331
2797  2023-12-04 12:31:05.536243
2798  2023-12-04 12:31:05.583127
2799  2023-12-04 12:31:05.629992
2800  2023-12-04 12:31:05.661907
2801  2023-12-04 12:31:05.709780
2802  2023-12-04 12:31:05.757669
2803  2023-12-04 12:31:05.789571
2804  2023-12-04 12:31:05.835446
2805  2023-12-04 12:31:05.883320
2806  2023-12-04 12:31:05.914201
2807  2023-12-04 12:31:05.962108
2808  2023-12-04 12:31:05.993023
2809  2023-12-04 12:31:06.040974
2810  2023-12-04 12:31:06.087850
2811  2023-12-04 12:31:06.119765
2812  2023-12-04 12:31:06.167787
2813  2023-12-04 12:31:06.215629
2814  2023-12-04 12:31:06.246585
2815  2023-12-04 12:31:06.294450
2816  2023-12-04 12:31:06.340293
2817  2023-12-04 12:31:06.372245
2818  2023-12-04 12:31:06.420127
2819  2023-12-04 12:31:06.452029
2820  2023-12-04 12:31:06.499910
2821  2023-12-04 12:31:06.547772
2822  2023-12-04 12:31:06.579691
2823  2023-12-04 12:31:06.627558
2824  2023-12-04 12:31:06.659473
2825  2023-12-04 12:31:06.706347
2826  2023-12-04 12:31:06.754219
2827  2023-12-04 12:31:06.785169
2828  2023-12-04 12:31:06.833043
2829  2023-12-04 12:31:06.879948
2830  2023-12-04 12:31:06.911875
2831  2023-12-04 12:31:06.959737
2832  2023-12-04 12:31:07.006617
2833  2023-12-04 12:31:07.038527
2834  2023-12-04 12:31:07.087403
2835  2023-12-04 12:31:07.133270
2836  2023-12-04 12:31:07.165198
2837  2023-12-04 12:31:07.213026
2838  2023-12-04 12:31:07.246971
2839  2023-12-04 12:31:07.292843
2840  2023-12-04 12:31:07.340740
2841  2023-12-04 12:31:07.370636
2842  2023-12-04 12:31:07.418517
2843  2023-12-04 12:31:07.466378
2844  2023-12-04 12:31:07.498294
2845  2023-12-04 12:31:07.546257
2846  2023-12-04 12:31:07.577052
2847  2023-12-04 12:31:07.624957
2848  2023-12-04 12:31:07.672796
2849  2023-12-04 12:31:07.704710
2850  2023-12-04 12:31:07.752612
2851  2023-12-04 12:31:07.799491
2852  2023-12-04 12:31:07.831419
2853  2023-12-04 12:31:07.879276
2854  2023-12-04 12:31:07.911158
2855  2023-12-04 12:31:07.959162
2856  2023-12-04 12:31:08.006065
2857  2023-12-04 12:31:08.036982
2858  2023-12-04 12:31:08.084911
2859  2023-12-04 12:31:08.132759
2860  2023-12-04 12:31:08.164675
2861  2023-12-04 12:31:08.212514
2862  2023-12-04 12:31:08.243455
2863  2023-12-04 12:31:08.291350
2864  2023-12-04 12:31:08.339174
2865  2023-12-04 12:31:08.371067
2866  2023-12-04 12:31:08.417975
2867  2023-12-04 12:31:08.465918
2868  2023-12-04 12:31:08.497883
2869  2023-12-04 12:31:08.545755
2870  2023-12-04 12:31:08.576672
2871  2023-12-04 12:31:08.624544
2872  2023-12-04 12:31:08.671492
2873  2023-12-04 12:31:08.703407
2874  2023-12-04 12:31:08.751277
2875  2023-12-04 12:31:08.799149
2876  2023-12-04 12:31:08.831062
2877  2023-12-04 12:31:08.878935
2878  2023-12-04 12:31:08.910854
2879  2023-12-04 12:31:08.958723
2880  2023-12-04 12:31:09.005609
2881  2023-12-04 12:31:09.037513
2882  2023-12-04 12:31:09.085384
2883  2023-12-04 12:31:09.133255
2884  2023-12-04 12:31:09.164184
2885  2023-12-04 12:31:09.212014
2886  2023-12-04 12:31:09.242971
2887  2023-12-04 12:31:09.291833
2888  2023-12-04 12:31:09.339704
2889  2023-12-04 12:31:09.371638
2890  2023-12-04 12:31:09.419517
2891  2023-12-04 12:31:09.467367
2892  2023-12-04 12:31:09.499280
2893  2023-12-04 12:31:09.547154
2894  2023-12-04 12:31:09.577037
2895  2023-12-04 12:31:09.624964
2896  2023-12-04 12:31:09.672781
2897  2023-12-04 12:31:09.704696
2898  2023-12-04 12:31:09.752677
2899  2023-12-04 12:31:09.799664
2900  2023-12-04 12:31:09.831655
2901  2023-12-04 12:31:09.879607
2902  2023-12-04 12:31:09.911526
2903  2023-12-04 12:31:09.958399
2904  2023-12-04 12:31:10.006270
2905  2023-12-04 12:31:10.038185
2906  2023-12-04 12:31:10.086089
2907  2023-12-04 12:31:10.118006
2908  2023-12-04 12:31:10.164885
2909  2023-12-04 12:31:10.212718
2910  2023-12-04 12:31:10.244667
2911  2023-12-04 12:31:10.291508
2912  2023-12-04 12:31:10.339379
2913  2023-12-04 12:31:10.371294
2914  2023-12-04 12:31:10.420195
2915  2023-12-04 12:31:10.466067
2916  2023-12-04 12:31:10.497956
2917  2023-12-04 12:31:10.545858
2918  2023-12-04 12:31:10.576775
2919  2023-12-04 12:31:10.624647
2920  2023-12-04 12:31:10.670528
2921  2023-12-04 12:31:10.702443
2922  2023-12-04 12:31:10.750317
2923  2023-12-04 12:31:10.798186
2924  2023-12-04 12:31:10.830101
2925  2023-12-04 12:31:10.877972
2926  2023-12-04 12:31:10.909886
2927  2023-12-04 12:31:10.957758
2928  2023-12-04 12:31:11.005634
2929  2023-12-04 12:31:11.037548
2930  2023-12-04 12:31:11.084425
2931  2023-12-04 12:31:11.132295
2932  2023-12-04 12:31:11.164207
2933  2023-12-04 12:31:11.212077
2934  2023-12-04 12:31:11.243991
2935  2023-12-04 12:31:11.290863
2936  2023-12-04 12:31:11.339735
2937  2023-12-04 12:31:11.370652
2938  2023-12-04 12:31:11.418527
2939  2023-12-04 12:31:11.465406
2940  2023-12-04 12:31:11.497285
2941  2023-12-04 12:31:11.545189
2942  2023-12-04 12:31:11.578101
2943  2023-12-04 12:31:11.625986
2944  2023-12-04 12:31:11.673847
2945  2023-12-04 12:31:11.705868
2946  2023-12-04 12:31:11.753772
2947  2023-12-04 12:31:11.799757
2948  2023-12-04 12:31:11.830679
2949  2023-12-04 12:31:11.878550
2950  2023-12-04 12:31:11.910429
2951  2023-12-04 12:31:11.957339
2952  2023-12-04 12:31:12.005176
2953  2023-12-04 12:31:12.037091
2954  2023-12-04 12:31:12.084996
2955  2023-12-04 12:31:12.132835
2956  2023-12-04 12:31:12.164781
2957  2023-12-04 12:31:12.213620
2958  2023-12-04 12:31:12.244193
2959  2023-12-04 12:31:12.292123
2960  2023-12-04 12:31:12.338971
2961  2023-12-04 12:31:12.370900
2962  2023-12-04 12:31:12.418777
2963  2023-12-04 12:31:12.466649
2964  2023-12-04 12:31:12.498564
2965  2023-12-04 12:31:12.545472
2966  2023-12-04 12:31:12.577387
2967  2023-12-04 12:31:12.625259
2968  2023-12-04 12:31:12.672131
2969  2023-12-04 12:31:12.703050
2970  2023-12-04 12:31:12.750922
2971  2023-12-04 12:31:12.797797
2972  2023-12-04 12:31:12.829720
2973  2023-12-04 12:31:12.876599
2974  2023-12-04 12:31:12.924458
2975  2023-12-04 12:31:12.956372
2976  2023-12-04 12:31:13.004246
2977  2023-12-04 12:31:13.036156
2978  2023-12-04 12:31:13.083030
2979  2023-12-04 12:31:13.130907
2980  2023-12-04 12:31:13.162822
2981  2023-12-04 12:31:13.210696
2982  2023-12-04 12:31:13.256759
2983  2023-12-04 12:31:13.288494
2984  2023-12-04 12:31:13.336325
2985  2023-12-04 12:31:13.385195
2986  2023-12-04 12:31:13.416141
2987  2023-12-04 12:31:13.462986
2988  2023-12-04 12:31:13.507866
2989  2023-12-04 12:31:13.538783
2990  2023-12-04 12:31:13.586656
2991  2023-12-04 12:31:13.632563
2992  2023-12-04 12:31:13.664477
2993  2023-12-04 12:31:13.712411
2994  2023-12-04 12:31:13.744364
2995  2023-12-04 12:31:13.792348
2996  2023-12-04 12:31:13.839159
2997  2023-12-04 12:31:13.871104
2998  2023-12-04 12:31:13.918946
2999  2023-12-04 12:31:13.965854
3000  2023-12-04 12:31:13.997766
3001  2023-12-04 12:31:14.045653
3002  2023-12-04 12:31:14.077552
3003  2023-12-04 12:31:14.125425
3004  2023-12-04 12:31:14.172302
3005  2023-12-04 12:31:14.203216
3006  2023-12-04 12:31:14.251059
3007  2023-12-04 12:31:14.297933
3008  2023-12-04 12:31:14.328855
3009  2023-12-04 12:31:14.372733
3010  2023-12-04 12:31:14.420637
3011  2023-12-04 12:31:14.451522
3012  2023-12-04 12:31:14.499394
3013  2023-12-04 12:31:14.547396
3014  2023-12-04 12:31:14.579355
3015  2023-12-04 12:31:14.628221
3016  2023-12-04 12:31:14.674167
3017  2023-12-04 12:31:14.706084
3018  2023-12-04 12:31:14.753953
3019  2023-12-04 12:31:14.785868
3020  2023-12-04 12:31:14.832773
3021  2023-12-04 12:31:14.880615
3022  2023-12-04 12:31:14.912529
3023  2023-12-04 12:31:14.960401
3024  2023-12-04 12:31:15.008304
3025  2023-12-04 12:31:15.040188
3026  2023-12-04 12:31:15.086100
3027  2023-12-04 12:31:15.117980
3028  2023-12-04 12:31:15.165896
3029  2023-12-04 12:31:15.213613
3030  2023-12-04 12:31:15.245615
3031  2023-12-04 12:31:15.293532
3032  2023-12-04 12:31:15.340395
3033  2023-12-04 12:31:15.372309
3034  2023-12-04 12:31:15.420184
3035  2023-12-04 12:31:15.452096
3036  2023-12-04 12:31:15.499969
3037  2023-12-04 12:31:15.547850
3038  2023-12-04 12:31:15.579766
3039  2023-12-04 12:31:15.627630
3040  2023-12-04 12:31:15.659560
3041  2023-12-04 12:31:15.707413
3042  2023-12-04 12:31:15.755287
3043  2023-12-04 12:31:15.787199
3044  2023-12-04 12:31:15.835077
3045  2023-12-04 12:31:15.882962
3046  2023-12-04 12:31:15.914830
3047  2023-12-04 12:31:15.962739
3048  2023-12-04 12:31:15.994860
3049  2023-12-04 12:31:16.042524
3050  2023-12-04 12:31:16.090413
3051  2023-12-04 12:31:16.122317
3052  2023-12-04 12:31:16.170188
3053  2023-12-04 12:31:16.202086
3054  2023-12-04 12:31:16.249969
3055  2023-12-04 12:31:16.297848
3056  2023-12-04 12:31:16.330758
3057  2023-12-04 12:31:16.376616
3058  2023-12-04 12:31:16.424493
3059  2023-12-04 12:31:16.457401
3060  2023-12-04 12:31:16.504277
3061  2023-12-04 12:31:16.537194
3062  2023-12-04 12:31:16.584069
3063  2023-12-04 12:31:16.630912
3064  2023-12-04 12:31:16.662832
3065  2023-12-04 12:31:16.709747
3066  2023-12-04 12:31:16.758607
3067  2023-12-04 12:31:16.788534
3068  2023-12-04 12:31:16.836361
3069  2023-12-04 12:31:16.870461
3070  2023-12-04 12:31:16.918403
3071  2023-12-04 12:31:16.966287
3072  2023-12-04 12:31:16.996189
3073  2023-12-04 12:31:17.044175
3074  2023-12-04 12:31:17.091988
3075  2023-12-04 12:31:17.122905
3076  2023-12-04 12:31:17.169780
3077  2023-12-04 12:31:17.201694
3078  2023-12-04 12:31:17.249566
3079  2023-12-04 12:31:17.297598
3080  2023-12-04 12:31:17.329513
3081  2023-12-04 12:31:17.376388
3082  2023-12-04 12:31:17.424260
3083  2023-12-04 12:31:17.456175
3084  2023-12-04 12:31:17.504048
3085  2023-12-04 12:31:17.535962
3086  2023-12-04 12:31:17.583834
3087  2023-12-04 12:31:17.630710
3088  2023-12-04 12:31:17.662654
3089  2023-12-04 12:31:17.710494
3090  2023-12-04 12:31:17.757443
3091  2023-12-04 12:31:17.789307
3092  2023-12-04 12:31:17.837229
3093  2023-12-04 12:31:17.869124
3094  2023-12-04 12:31:17.917017
3095  2023-12-04 12:31:17.964878
3096  2023-12-04 12:31:17.996793
3097  2023-12-04 12:31:18.044676
3098  2023-12-04 12:31:18.076585
3099  2023-12-04 12:31:18.124447
3100  2023-12-04 12:31:18.172334
3101  2023-12-04 12:31:18.204255
3102  2023-12-04 12:31:18.251292
3103  2023-12-04 12:31:18.299291
3104  2023-12-04 12:31:18.331175
3105  2023-12-04 12:31:18.378049
3106  2023-12-04 12:31:18.409963
3107  2023-12-04 12:31:18.457835
3108  2023-12-04 12:31:18.505707
3109  2023-12-04 12:31:18.537622
3110  2023-12-04 12:31:18.585495
3111  2023-12-04 12:31:18.633398
3112  2023-12-04 12:31:18.664296
3113  2023-12-04 12:31:18.712184
3114  2023-12-04 12:31:18.744101
3115  2023-12-04 12:31:18.792969
3116  2023-12-04 12:31:18.839846
3117  2023-12-04 12:31:18.871762
3118  2023-12-04 12:31:18.917636
3119  2023-12-04 12:31:18.967503
3120  2023-12-04 12:31:18.997393
3121  2023-12-04 12:31:19.045369
3122  2023-12-04 12:31:19.076287
3123  2023-12-04 12:31:19.125158
3124  2023-12-04 12:31:19.173022
3125  2023-12-04 12:31:19.203945
3126  2023-12-04 12:31:19.252824
3127  2023-12-04 12:31:19.297663
3128  2023-12-04 12:31:19.329578
3129  2023-12-04 12:31:19.377536
3130  2023-12-04 12:31:19.409519
3131  2023-12-04 12:31:19.457391
3132  2023-12-04 12:31:19.505263
3133  2023-12-04 12:31:19.537178
3134  2023-12-04 12:31:19.585050
3135  2023-12-04 12:31:19.632922
3136  2023-12-04 12:31:19.664975
3137  2023-12-04 12:31:19.711711
3138  2023-12-04 12:31:19.757625
3139  2023-12-04 12:31:19.788539
3140  2023-12-04 12:31:19.836413
3141  2023-12-04 12:31:19.868553
3142  2023-12-04 12:31:19.915580
3143  2023-12-04 12:31:19.963411
3144  2023-12-04 12:31:19.995369
3145  2023-12-04 12:31:20.043239
3146  2023-12-04 12:31:20.091104
3147  2023-12-04 12:31:20.122019
3148  2023-12-04 12:31:20.169895
3149  2023-12-04 12:31:20.201889
3150  2023-12-04 12:31:20.249762
3151  2023-12-04 12:31:20.297403
3152  2023-12-04 12:31:20.329318
3153  2023-12-04 12:31:20.377266
3154  2023-12-04 12:31:20.424139
3155  2023-12-04 12:31:20.456056
3156  2023-12-04 12:31:20.502928
3157  2023-12-04 12:31:20.534953
3158  2023-12-04 12:31:20.582794
3159  2023-12-04 12:31:20.630709
3160  2023-12-04 12:31:20.662582
3161  2023-12-04 12:31:20.710500
3162  2023-12-04 12:31:20.758483
3163  2023-12-04 12:31:20.791423
3164  2023-12-04 12:31:20.837271
3165  2023-12-04 12:31:20.869323
3166  2023-12-04 12:31:20.918176
3167  2023-12-04 12:31:20.965076
3168  2023-12-04 12:31:20.997972
3169  2023-12-04 12:31:21.044858
3170  2023-12-04 12:31:21.078718
3171  2023-12-04 12:31:21.123596
3172  2023-12-04 12:31:21.171493
3173  2023-12-04 12:31:21.203410
3174  2023-12-04 12:31:21.251446
3175  2023-12-04 12:31:21.299346
3176  2023-12-04 12:31:21.331270
3177  2023-12-04 12:31:21.379268
3178  2023-12-04 12:31:21.412154
3179  2023-12-04 12:31:21.459145
3180  2023-12-04 12:31:21.507328
3181  2023-12-04 12:31:21.539192
3182  2023-12-04 12:31:21.587089
3183  2023-12-04 12:31:21.619139
3184  2023-12-04 12:31:21.667015
3185  2023-12-04 12:31:21.714883
3186  2023-12-04 12:31:21.746866
3187  2023-12-04 12:31:21.794755
3188  2023-12-04 12:31:21.842611
3189  2023-12-04 12:31:21.874529
3190  2023-12-04 12:31:21.922528
3191  2023-12-04 12:31:21.954446
3192  2023-12-04 12:31:22.002323
3193  2023-12-04 12:31:22.048161
3194  2023-12-04 12:31:22.079079
3195  2023-12-04 12:31:22.125296
3196  2023-12-04 12:31:22.172142
3197  2023-12-04 12:31:22.204172
3198  2023-12-04 12:31:22.251066
3199  2023-12-04 12:31:22.296944
3200  2023-12-04 12:31:22.328994
3201  2023-12-04 12:31:22.374876
3202  2023-12-04 12:31:22.422744
3203  2023-12-04 12:31:22.454625
3204  2023-12-04 12:31:22.502657
3205  2023-12-04 12:31:22.534522
3206  2023-12-04 12:31:22.582540
3207  2023-12-04 12:31:22.630417
3208  2023-12-04 12:31:22.662321
3209  2023-12-04 12:31:22.709191
3210  2023-12-04 12:31:22.758060
3211  2023-12-04 12:31:22.789976
3212  2023-12-04 12:31:22.837805
3213  2023-12-04 12:31:22.869718
3214  2023-12-04 12:31:22.917641
3215  2023-12-04 12:31:22.964588
3216  2023-12-04 12:31:22.996537
3217  2023-12-04 12:31:23.044411
3218  2023-12-04 12:31:23.076330
3219  2023-12-04 12:31:23.124194
3220  2023-12-04 12:31:23.171063
3221  2023-12-04 12:31:23.201981
3222  2023-12-04 12:31:23.249988
3223  2023-12-04 12:31:23.297852
3224  2023-12-04 12:31:23.329767
3225  2023-12-04 12:31:23.377635
3226  2023-12-04 12:31:23.423480
3227  2023-12-04 12:31:23.455395
3228  2023-12-04 12:31:23.503396
3229  2023-12-04 12:31:23.549273
3230  2023-12-04 12:31:23.581344
3231  2023-12-04 12:31:23.629250
3232  2023-12-04 12:31:23.661168
3233  2023-12-04 12:31:23.709041
3234  2023-12-04 12:31:23.756912
3235  2023-12-04 12:31:23.787990
3236  2023-12-04 12:31:23.835700
3237  2023-12-04 12:31:23.882671
3238  2023-12-04 12:31:23.914677
3239  2023-12-04 12:31:23.962588
3240  2023-12-04 12:31:23.994506
3241  2023-12-04 12:31:24.042378
3242  2023-12-04 12:31:24.090239
3243  2023-12-04 12:31:24.122156
3244  2023-12-04 12:31:24.169099
3245  2023-12-04 12:31:24.216006
3246  2023-12-04 12:31:24.248054
3247  2023-12-04 12:31:24.295925
3248  2023-12-04 12:31:24.327854
3249  2023-12-04 12:31:24.374714
3250  2023-12-04 12:31:24.422618
3251  2023-12-04 12:31:24.454516
3252  2023-12-04 12:31:24.502427
3253  2023-12-04 12:31:24.549319
3254  2023-12-04 12:31:24.581207
3255  2023-12-04 12:31:24.628083
3256  2023-12-04 12:31:24.660014
3257  2023-12-04 12:31:24.707868
3258  2023-12-04 12:31:24.756880
3259  2023-12-04 12:31:24.786794
3260  2023-12-04 12:31:24.834678
3261  2023-12-04 12:31:24.881534
3262  2023-12-04 12:31:24.913449
3263  2023-12-04 12:31:24.960330
3264  2023-12-04 12:31:25.009218
3265  2023-12-04 12:31:25.041117
3266  2023-12-04 12:31:25.088981
3267  2023-12-04 12:31:25.120871
3268  2023-12-04 12:31:25.168869
3269  2023-12-04 12:31:25.216733
3270  2023-12-04 12:31:25.248667
3271  2023-12-04 12:31:25.293496
3272  2023-12-04 12:31:25.341498
3273  2023-12-04 12:31:25.373409
3274  2023-12-04 12:31:25.421281
3275  2023-12-04 12:31:25.453356
3276  2023-12-04 12:31:25.500237
3277  2023-12-04 12:31:25.548141
3278  2023-12-04 12:31:25.579093
3279  2023-12-04 12:31:25.626966
3280  2023-12-04 12:31:25.674832
3281  2023-12-04 12:31:25.706748
3282  2023-12-04 12:31:25.754729
3283  2023-12-04 12:31:25.786719
3284  2023-12-04 12:31:25.833621
3285  2023-12-04 12:31:25.880644
3286  2023-12-04 12:31:25.912593
3287  2023-12-04 12:31:25.960483
3288  2023-12-04 12:31:26.008333
3289  2023-12-04 12:31:26.038221
3290  2023-12-04 12:31:26.086094
3291  2023-12-04 12:31:26.118008
3292  2023-12-04 12:31:26.165880
3293  2023-12-04 12:31:26.211758
3294  2023-12-04 12:31:26.243711
3295  2023-12-04 12:31:26.289582
3296  2023-12-04 12:31:26.337452
3297  2023-12-04 12:31:26.369490
3298  2023-12-04 12:31:26.418379
3299  2023-12-04 12:31:26.466238
3300  2023-12-04 12:31:26.498150
3301  2023-12-04 12:31:26.543030
3302  2023-12-04 12:31:26.590901
3303  2023-12-04 12:31:26.623832
3304  2023-12-04 12:31:26.670691
3305  2023-12-04 12:31:26.703599
3306  2023-12-04 12:31:26.751476
3307  2023-12-04 12:31:26.799343
3308  2023-12-04 12:31:26.831257
3309  2023-12-04 12:31:26.879146
3310  2023-12-04 12:31:26.911042
3311  2023-12-04 12:31:26.956889
3312  2023-12-04 12:31:27.003805
3313  2023-12-04 12:31:27.035708
3314  2023-12-04 12:31:27.083588
3315  2023-12-04 12:31:27.131422
3316  2023-12-04 12:31:27.163370
3317  2023-12-04 12:31:27.211269
3318  2023-12-04 12:31:27.243184
3319  2023-12-04 12:31:27.290211
3320  2023-12-04 12:31:27.338085
3321  2023-12-04 12:31:27.370062
3322  2023-12-04 12:31:27.418119
3323  2023-12-04 12:31:27.466159
3324  2023-12-04 12:31:27.498070
3325  2023-12-04 12:31:27.545911
3326  2023-12-04 12:31:27.576859
3327  2023-12-04 12:31:27.624733
3328  2023-12-04 12:31:27.672608
3329  2023-12-04 12:31:27.704521
3330  2023-12-04 12:31:27.752393
3331  2023-12-04 12:31:27.799265
3332  2023-12-04 12:31:27.831181
3333  2023-12-04 12:31:27.878056
3334  2023-12-04 12:31:27.923943
3335  2023-12-04 12:31:27.955855
3336  2023-12-04 12:31:28.003807
3337  2023-12-04 12:31:28.035660
3338  2023-12-04 12:31:28.082591
3339  2023-12-04 12:31:28.129423
3340  2023-12-04 12:31:28.161337
3341  2023-12-04 12:31:28.209265
3342  2023-12-04 12:31:28.257242
3343  2023-12-04 12:31:28.289157
3344  2023-12-04 12:31:28.337065
3345  2023-12-04 12:31:28.369062
3346  2023-12-04 12:31:28.416928
3347  2023-12-04 12:31:28.464790
3348  2023-12-04 12:31:28.496704
3349  2023-12-04 12:31:28.544584
3350  2023-12-04 12:31:28.576491
3351  2023-12-04 12:31:28.624363
3352  2023-12-04 12:31:28.672337
3353  2023-12-04 12:31:28.704258
3354  2023-12-04 12:31:28.752123
3355  2023-12-04 12:31:28.800007
3356  2023-12-04 12:31:28.829917
3357  2023-12-04 12:31:28.877855
3358  2023-12-04 12:31:28.909771
3359  2023-12-04 12:31:28.957646
3360  2023-12-04 12:31:29.005516
3361  2023-12-04 12:31:29.037431
3362  2023-12-04 12:31:29.086305
3363  2023-12-04 12:31:29.133174
3364  2023-12-04 12:31:29.166113
3365  2023-12-04 12:31:29.213959
3366  2023-12-04 12:31:29.245875
3367  2023-12-04 12:31:29.293754
3368  2023-12-04 12:31:29.341680
3369  2023-12-04 12:31:29.371733
3370  2023-12-04 12:31:29.421465
3371  2023-12-04 12:31:29.451373
3372  2023-12-04 12:31:29.499246
3373  2023-12-04 12:31:29.547203
3374  2023-12-04 12:31:29.579107
3375  2023-12-04 12:31:29.627146
3376  2023-12-04 12:31:29.673914
3377  2023-12-04 12:31:29.705881
3378  2023-12-04 12:31:29.753754
3379  2023-12-04 12:31:29.785676
3380  2023-12-04 12:31:29.833537
3381  2023-12-04 12:31:29.881414
3382  2023-12-04 12:31:29.913293
3383  2023-12-04 12:31:29.961201
3384  2023-12-04 12:31:29.993112
3385  2023-12-04 12:31:30.040986
3386  2023-12-04 12:31:30.088862
3387  2023-12-04 12:31:30.120775
3388  2023-12-04 12:31:30.168642
3389  2023-12-04 12:31:30.216522
3390  2023-12-04 12:31:30.247435
3391  2023-12-04 12:31:30.295312
3392  2023-12-04 12:31:30.327224
3393  2023-12-04 12:31:30.375104
3394  2023-12-04 12:31:30.422963
3395  2023-12-04 12:31:30.454887
3396  2023-12-04 12:31:30.502754
3397  2023-12-04 12:31:30.534634
3398  2023-12-04 12:31:30.582543
3399  2023-12-04 12:31:30.630378
3400  2023-12-04 12:31:30.662333
3401  2023-12-04 12:31:30.710162
3402  2023-12-04 12:31:30.757085
3403  2023-12-04 12:31:30.789001
3404  2023-12-04 12:31:30.836873
3405  2023-12-04 12:31:30.868795
3406  2023-12-04 12:31:30.916659
3407  2023-12-04 12:31:30.964531
3408  2023-12-04 12:31:30.996445
3409  2023-12-04 12:31:31.044318
3410  2023-12-04 12:31:31.076316
3411  2023-12-04 12:31:31.124294
3412  2023-12-04 12:31:31.171165
3413  2023-12-04 12:31:31.204027
3414  2023-12-04 12:31:31.251938
3415  2023-12-04 12:31:31.298773
3416  2023-12-04 12:31:31.330729
3417  2023-12-04 12:31:31.378560
3418  2023-12-04 12:31:31.409513
3419  2023-12-04 12:31:31.456387
3420  2023-12-04 12:31:31.504253
3421  2023-12-04 12:31:31.535172
3422  2023-12-04 12:31:31.582054
3423  2023-12-04 12:31:31.629921
3424  2023-12-04 12:31:31.660842
3425  2023-12-04 12:31:31.707720
3426  2023-12-04 12:31:31.755586
3427  2023-12-04 12:31:31.787505
3428  2023-12-04 12:31:31.835381
3429  2023-12-04 12:31:31.881251
3430  2023-12-04 12:31:31.913216
3431  2023-12-04 12:31:31.961119
3432  2023-12-04 12:31:31.993030
3433  2023-12-04 12:31:32.041070
3434  2023-12-04 12:31:32.088777
3435  2023-12-04 12:31:32.120707
3436  2023-12-04 12:31:32.168566
3437  2023-12-04 12:31:32.215439
3438  2023-12-04 12:31:32.247350
3439  2023-12-04 12:31:32.295226
3440  2023-12-04 12:31:32.327138
3441  2023-12-04 12:31:32.374015
3442  2023-12-04 12:31:32.421886
3443  2023-12-04 12:31:32.453801
3444  2023-12-04 12:31:32.501640
3445  2023-12-04 12:31:32.549546
3446  2023-12-04 12:31:32.581454
3447  2023-12-04 12:31:32.629332
3448  2023-12-04 12:31:32.661212
3449  2023-12-04 12:31:32.709115
3450  2023-12-04 12:31:32.756988
3451  2023-12-04 12:31:32.787906
3452  2023-12-04 12:31:32.835783
3453  2023-12-04 12:31:32.882660
3454  2023-12-04 12:31:32.914569
3455  2023-12-04 12:31:32.962456
3456  2023-12-04 12:31:32.994354
3457  2023-12-04 12:31:33.042226
3458  2023-12-04 12:31:33.089098
3459  2023-12-04 12:31:33.121013
3460  2023-12-04 12:31:33.168884
3461  2023-12-04 12:31:33.215767
3462  2023-12-04 12:31:33.247678
3463  2023-12-04 12:31:33.295550
3464  2023-12-04 12:31:33.327465
3465  2023-12-04 12:31:33.375334
3466  2023-12-04 12:31:33.423204
3467  2023-12-04 12:31:33.455124
3468  2023-12-04 12:31:33.502996
3469  2023-12-04 12:31:33.534920
3470  2023-12-04 12:31:33.582778
3471  2023-12-04 12:31:33.630654
3472  2023-12-04 12:31:33.662534
3473  2023-12-04 12:31:33.709457
3474  2023-12-04 12:31:33.757004
3475  2023-12-04 12:31:33.788911
3476  2023-12-04 12:31:33.836814
3477  2023-12-04 12:31:33.868798
3478  2023-12-04 12:31:33.916679
3479  2023-12-04 12:31:33.964541
3480  2023-12-04 12:31:33.996466
3481  2023-12-04 12:31:34.042354
3482  2023-12-04 12:31:34.090209
3483  2023-12-04 12:31:34.122120
3484  2023-12-04 12:31:34.169994
3485  2023-12-04 12:31:34.202911
3486  2023-12-04 12:31:34.249790
3487  2023-12-04 12:31:34.297656
3488  2023-12-04 12:31:34.329570
3489  2023-12-04 12:31:34.378436
3490  2023-12-04 12:31:34.425313
3491  2023-12-04 12:31:34.454233
3492  2023-12-04 12:31:34.501075
3493  2023-12-04 12:31:34.548978
3494  2023-12-04 12:31:34.580863
3495  2023-12-04 12:31:34.628770
3496  2023-12-04 12:31:34.659651
3497  2023-12-04 12:31:34.707525
3498  2023-12-04 12:31:34.755397
3499  2023-12-04 12:31:34.787311
3500  2023-12-04 12:31:34.836181
3501  2023-12-04 12:31:34.884078
3502  2023-12-04 12:31:34.915967
3503  2023-12-04 12:31:34.962848
3504  2023-12-04 12:31:34.995785
3505  2023-12-04 12:31:35.042629
3506  2023-12-04 12:31:35.089502
3507  2023-12-04 12:31:35.121417
3508  2023-12-04 12:31:35.169377
3509  2023-12-04 12:31:35.201203
3510  2023-12-04 12:31:35.249075
3511  2023-12-04 12:31:35.296979
3512  2023-12-04 12:31:35.327897
3513  2023-12-04 12:31:35.375768
3514  2023-12-04 12:31:35.423645
3515  2023-12-04 12:31:35.455556
3516  2023-12-04 12:31:35.503431
3517  2023-12-04 12:31:35.535348
3518  2023-12-04 12:31:35.583213
3519  2023-12-04 12:31:35.630094
3520  2023-12-04 12:31:35.662002
3521  2023-12-04 12:31:35.708900
3522  2023-12-04 12:31:35.755750
3523  2023-12-04 12:31:35.787667
3524  2023-12-04 12:31:35.835540
3525  2023-12-04 12:31:35.882414
3526  2023-12-04 12:31:35.914328
3527  2023-12-04 12:31:35.962219
3528  2023-12-04 12:31:35.994114
3529  2023-12-04 12:31:36.041987
3530  2023-12-04 12:31:36.090861
3531  2023-12-04 12:31:36.121771
3532  2023-12-04 12:31:36.168755
3533  2023-12-04 12:31:36.216523
3534  2023-12-04 12:31:36.249403
3535  2023-12-04 12:31:36.297274
3536  2023-12-04 12:31:36.329188
3537  2023-12-04 12:31:36.377060
3538  2023-12-04 12:31:36.424965
3539  2023-12-04 12:31:36.456876
3540  2023-12-04 12:31:36.504758
3541  2023-12-04 12:31:36.549600
3542  2023-12-04 12:31:36.582512
3543  2023-12-04 12:31:36.630421
3544  2023-12-04 12:31:36.661299
3545  2023-12-04 12:31:36.708214
3546  2023-12-04 12:31:36.756045
3547  2023-12-04 12:31:36.787960
3548  2023-12-04 12:31:36.836830
3549  2023-12-04 12:31:36.867795
3550  2023-12-04 12:31:36.915619
3551  2023-12-04 12:31:36.963492
3552  2023-12-04 12:31:36.996540
3553  2023-12-04 12:31:37.042486
3554  2023-12-04 12:31:37.089361
3555  2023-12-04 12:31:37.121276
3556  2023-12-04 12:31:37.169241
3557  2023-12-04 12:31:37.216281
3558  2023-12-04 12:31:37.248252
3559  2023-12-04 12:31:37.296204
3560  2023-12-04 12:31:37.328088
3561  2023-12-04 12:31:37.376026
