
1  2023-10-19 14:21:19.533770
2  2023-10-19 14:21:19.565686
3  2023-10-19 14:21:19.597601
4  2023-10-19 14:21:19.629516
5  2023-10-19 14:21:19.661430
6  2023-10-19 14:21:19.693345
7  2023-10-19 14:21:19.725259
8  2023-10-19 14:21:19.757173
9  2023-10-19 14:21:19.789088
10  2023-10-19 14:21:19.836960
11  2023-10-19 14:21:19.869873
12  2023-10-19 14:21:19.901787
13  2023-10-19 14:21:19.933702
14  2023-10-19 14:21:19.965618
15  2023-10-19 14:21:19.997531
16  2023-10-19 14:21:20.029446
17  2023-10-19 14:21:20.061360
18  2023-10-19 14:21:20.093274
19  2023-10-19 14:21:20.125189
20  2023-10-19 14:21:20.157103
21  2023-10-19 14:21:20.189018
22  2023-10-19 14:21:20.237888
23  2023-10-19 14:21:20.269803
24  2023-10-19 14:21:20.301717
25  2023-10-19 14:21:20.333632
26  2023-10-19 14:21:20.365547
27  2023-10-19 14:21:20.397461
28  2023-10-19 14:21:20.429379
29  2023-10-19 14:21:20.461290
30  2023-10-19 14:21:20.493205
31  2023-10-19 14:21:20.525120
32  2023-10-19 14:21:20.557034
33  2023-10-19 14:21:20.589947
34  2023-10-19 14:21:20.637818
35  2023-10-19 14:21:20.669734
36  2023-10-19 14:21:20.701648
37  2023-10-19 14:21:20.733562
38  2023-10-19 14:21:20.765477
39  2023-10-19 14:21:20.797391
40  2023-10-19 14:21:20.829309
41  2023-10-19 14:21:20.861221
42  2023-10-19 14:21:20.893134
43  2023-10-19 14:21:20.925051
44  2023-10-19 14:21:20.957963
45  2023-10-19 14:21:20.989877
46  2023-10-19 14:21:21.037749
47  2023-10-19 14:21:21.069663
48  2023-10-19 14:21:21.101577
49  2023-10-19 14:21:21.133492
50  2023-10-19 14:21:21.165407
51  2023-10-19 14:21:21.197322
52  2023-10-19 14:21:21.229236
53  2023-10-19 14:21:21.261150
54  2023-10-19 14:21:21.293065
55  2023-10-19 14:21:21.324980
56  2023-10-19 14:21:21.356894
57  2023-10-19 14:21:21.389807
58  2023-10-19 14:21:21.437679
59  2023-10-19 14:21:21.469593
60  2023-10-19 14:21:21.501508
61  2023-10-19 14:21:21.533423
62  2023-10-19 14:21:21.565340
63  2023-10-19 14:21:21.597251
64  2023-10-19 14:21:21.629166
65  2023-10-19 14:21:21.661081
66  2023-10-19 14:21:21.692995
67  2023-10-19 14:21:21.725909
68  2023-10-19 14:21:21.757823
69  2023-10-19 14:21:21.789737
70  2023-10-19 14:21:21.837610
71  2023-10-19 14:21:21.870525
72  2023-10-19 14:21:21.901438
73  2023-10-19 14:21:21.933357
74  2023-10-19 14:21:21.966265
75  2023-10-19 14:21:21.997182
76  2023-10-19 14:21:22.029097
77  2023-10-19 14:21:22.061011
78  2023-10-19 14:21:22.092926
79  2023-10-19 14:21:22.125839
80  2023-10-19 14:21:22.157751
81  2023-10-19 14:21:22.189668
82  2023-10-19 14:21:22.237540
83  2023-10-19 14:21:22.269454
84  2023-10-19 14:21:22.301368
85  2023-10-19 14:21:22.333283
86  2023-10-19 14:21:22.365198
87  2023-10-19 14:21:22.397112
88  2023-10-19 14:21:22.429027
89  2023-10-19 14:21:22.460941
90  2023-10-19 14:21:22.493854
91  2023-10-19 14:21:22.525769
92  2023-10-19 14:21:22.557684
93  2023-10-19 14:21:22.605557
94  2023-10-19 14:21:22.637470
95  2023-10-19 14:21:22.669384
96  2023-10-19 14:21:22.701299
97  2023-10-19 14:21:22.733213
98  2023-10-19 14:21:22.765128
99  2023-10-19 14:21:22.797042
100  2023-10-19 14:21:22.828957
101  2023-10-19 14:21:22.861871
102  2023-10-19 14:21:22.893785
103  2023-10-19 14:21:22.925699
104  2023-10-19 14:21:22.957613
105  2023-10-19 14:21:23.005486
106  2023-10-19 14:21:23.037400
107  2023-10-19 14:21:23.069314
108  2023-10-19 14:21:23.101230
109  2023-10-19 14:21:23.133143
110  2023-10-19 14:21:23.165063
111  2023-10-19 14:21:23.197970
112  2023-10-19 14:21:23.228887
113  2023-10-19 14:21:23.261800
114  2023-10-19 14:21:23.293715
115  2023-10-19 14:21:23.325629
116  2023-10-19 14:21:23.357549
117  2023-10-19 14:21:23.405448
118  2023-10-19 14:21:23.437329
119  2023-10-19 14:21:23.469277
120  2023-10-19 14:21:23.501159
121  2023-10-19 14:21:23.534098
122  2023-10-19 14:21:23.564989
123  2023-10-19 14:21:23.596940
124  2023-10-19 14:21:23.629843
125  2023-10-19 14:21:23.661728
126  2023-10-19 14:21:23.693679
127  2023-10-19 14:21:23.725559
128  2023-10-19 14:21:23.757509
129  2023-10-19 14:21:23.805345
130  2023-10-19 14:21:23.837304
131  2023-10-19 14:21:23.869175
132  2023-10-19 14:21:23.901126
133  2023-10-19 14:21:23.934001
134  2023-10-19 14:21:23.965948
135  2023-10-19 14:21:23.996833
136  2023-10-19 14:21:24.029790
137  2023-10-19 14:21:24.061694
138  2023-10-19 14:21:24.093614
139  2023-10-19 14:21:24.125488
140  2023-10-19 14:21:24.157445
141  2023-10-19 14:21:24.205316
142  2023-10-19 14:21:24.237249
143  2023-10-19 14:21:24.269142
144  2023-10-19 14:21:24.301019
145  2023-10-19 14:21:24.332934
146  2023-10-19 14:21:24.364904
147  2023-10-19 14:21:24.397808
148  2023-10-19 14:21:24.429707
149  2023-10-19 14:21:24.461625
150  2023-10-19 14:21:24.493570
151  2023-10-19 14:21:24.525452
152  2023-10-19 14:21:24.557387
153  2023-10-19 14:21:24.605249
154  2023-10-19 14:21:24.637121
155  2023-10-19 14:21:24.669072
156  2023-10-19 14:21:24.700986
157  2023-10-19 14:21:24.732907
158  2023-10-19 14:21:24.765811
159  2023-10-19 14:21:24.797725
160  2023-10-19 14:21:24.829676
161  2023-10-19 14:21:24.861520
162  2023-10-19 14:21:24.893469
163  2023-10-19 14:21:24.925403
164  2023-10-19 14:21:24.957306
165  2023-10-19 14:21:25.005170
166  2023-10-19 14:21:25.037101
167  2023-10-19 14:21:25.069004
168  2023-10-19 14:21:25.100939
169  2023-10-19 14:21:25.133836
170  2023-10-19 14:21:25.165747
171  2023-10-19 14:21:25.197652
172  2023-10-19 14:21:25.229575
173  2023-10-19 14:21:25.261509
174  2023-10-19 14:21:25.293406
175  2023-10-19 14:21:25.325326
176  2023-10-19 14:21:25.357234
177  2023-10-19 14:21:25.405066
178  2023-10-19 14:21:25.437037
179  2023-10-19 14:21:25.468942
180  2023-10-19 14:21:25.501848
181  2023-10-19 14:21:25.533760
182  2023-10-19 14:21:25.565669
183  2023-10-19 14:21:25.597587
184  2023-10-19 14:21:25.629470
185  2023-10-19 14:21:25.661413
186  2023-10-19 14:21:25.693341
187  2023-10-19 14:21:25.725211
188  2023-10-19 14:21:25.757174
189  2023-10-19 14:21:25.805032
190  2023-10-19 14:21:25.836962
191  2023-10-19 14:21:25.869823
192  2023-10-19 14:21:25.901770
193  2023-10-19 14:21:25.933651
194  2023-10-19 14:21:25.965613
195  2023-10-19 14:21:25.997515
196  2023-10-19 14:21:26.029437
197  2023-10-19 14:21:26.061353
198  2023-10-19 14:21:26.093260
199  2023-10-19 14:21:26.126171
200  2023-10-19 14:21:26.157091
201  2023-10-19 14:21:26.205958
202  2023-10-19 14:21:26.237887
203  2023-10-19 14:21:26.269807
204  2023-10-19 14:21:26.301686
205  2023-10-19 14:21:26.333635
206  2023-10-19 14:21:26.365534
207  2023-10-19 14:21:26.397451
208  2023-10-19 14:21:26.429380
209  2023-10-19 14:21:26.461241
210  2023-10-19 14:21:26.493156
211  2023-10-19 14:21:26.526107
212  2023-10-19 14:21:26.572975
213  2023-10-19 14:21:26.605854
214  2023-10-19 14:21:26.637809
215  2023-10-19 14:21:26.669684
216  2023-10-19 14:21:26.701645
217  2023-10-19 14:21:26.733547
218  2023-10-19 14:21:26.765466
219  2023-10-19 14:21:26.797392
220  2023-10-19 14:21:26.829301
221  2023-10-19 14:21:26.861225
222  2023-10-19 14:21:26.893132
223  2023-10-19 14:21:26.926034
224  2023-10-19 14:21:26.972923
225  2023-10-19 14:21:27.005784
226  2023-10-19 14:21:27.037698
227  2023-10-19 14:21:27.069653
228  2023-10-19 14:21:27.101573
229  2023-10-19 14:21:27.133489
230  2023-10-19 14:21:27.165400
231  2023-10-19 14:21:27.197318
232  2023-10-19 14:21:27.229231
233  2023-10-19 14:21:27.261141
234  2023-10-19 14:21:27.293057
235  2023-10-19 14:21:27.324930
236  2023-10-19 14:21:27.373848
237  2023-10-19 14:21:27.405747
238  2023-10-19 14:21:27.437661
239  2023-10-19 14:21:27.469576
240  2023-10-19 14:21:27.501497
241  2023-10-19 14:21:27.533373
242  2023-10-19 14:21:27.565345
243  2023-10-19 14:21:27.597205
244  2023-10-19 14:21:27.629156
245  2023-10-19 14:21:27.661087
246  2023-10-19 14:21:27.692981
247  2023-10-19 14:21:27.725864
248  2023-10-19 14:21:27.773764
249  2023-10-19 14:21:27.805691
250  2023-10-19 14:21:27.837610
251  2023-10-19 14:21:27.869515
252  2023-10-19 14:21:27.901435
253  2023-10-19 14:21:27.933337
254  2023-10-19 14:21:27.965252
255  2023-10-19 14:21:27.997179
256  2023-10-19 14:21:28.029084
257  2023-10-19 14:21:28.060962
258  2023-10-19 14:21:28.093875
259  2023-10-19 14:21:28.125787
260  2023-10-19 14:21:28.173659
261  2023-10-19 14:21:28.205633
262  2023-10-19 14:21:28.237529
263  2023-10-19 14:21:28.269403
264  2023-10-19 14:21:28.301319
265  2023-10-19 14:21:28.333288
266  2023-10-19 14:21:28.365195
267  2023-10-19 14:21:28.397113
268  2023-10-19 14:21:28.429021
269  2023-10-19 14:21:28.460934
270  2023-10-19 14:21:28.493842
271  2023-10-19 14:21:28.525756
272  2023-10-19 14:21:28.573592
273  2023-10-19 14:21:28.605558
274  2023-10-19 14:21:28.637420
275  2023-10-19 14:21:28.669335
276  2023-10-19 14:21:28.701281
277  2023-10-19 14:21:28.733219
278  2023-10-19 14:21:28.765118
279  2023-10-19 14:21:28.796996
280  2023-10-19 14:21:28.828939
281  2023-10-19 14:21:28.861861
282  2023-10-19 14:21:28.893769
283  2023-10-19 14:21:28.925681
284  2023-10-19 14:21:28.973554
285  2023-10-19 14:21:29.005479
286  2023-10-19 14:21:29.037400
287  2023-10-19 14:21:29.069338
288  2023-10-19 14:21:29.101215
289  2023-10-19 14:21:29.133131
290  2023-10-19 14:21:29.165030
291  2023-10-19 14:21:29.196963
292  2023-10-19 14:21:29.229908
293  2023-10-19 14:21:29.261783
294  2023-10-19 14:21:29.293691
295  2023-10-19 14:21:29.325636
296  2023-10-19 14:21:29.373531
297  2023-10-19 14:21:29.405397
298  2023-10-19 14:21:29.437313
299  2023-10-19 14:21:29.469231
300  2023-10-19 14:21:29.501143
301  2023-10-19 14:21:29.533061
302  2023-10-19 14:21:29.565974
303  2023-10-19 14:21:29.596885
304  2023-10-19 14:21:29.629769
305  2023-10-19 14:21:29.661728
306  2023-10-19 14:21:29.693595
307  2023-10-19 14:21:29.725510
308  2023-10-19 14:21:29.773416
309  2023-10-19 14:21:29.805332
310  2023-10-19 14:21:29.837248
311  2023-10-19 14:21:29.869169
312  2023-10-19 14:21:29.901097
313  2023-10-19 14:21:29.933985
314  2023-10-19 14:21:29.965867
315  2023-10-19 14:21:29.997851
316  2023-10-19 14:21:30.029732
317  2023-10-19 14:21:30.061658
318  2023-10-19 14:21:30.093562
319  2023-10-19 14:21:30.141438
320  2023-10-19 14:21:30.173353
321  2023-10-19 14:21:30.205260
322  2023-10-19 14:21:30.237141
323  2023-10-19 14:21:30.269099
324  2023-10-19 14:21:30.301005
325  2023-10-19 14:21:30.333924
326  2023-10-19 14:21:30.365832
327  2023-10-19 14:21:30.397745
328  2023-10-19 14:21:30.429672
329  2023-10-19 14:21:30.461579
330  2023-10-19 14:21:30.493487
331  2023-10-19 14:21:30.541367
332  2023-10-19 14:21:30.573246
333  2023-10-19 14:21:30.605225
334  2023-10-19 14:21:30.637105
335  2023-10-19 14:21:30.669019
336  2023-10-19 14:21:30.700951
337  2023-10-19 14:21:30.733846
338  2023-10-19 14:21:30.765727
339  2023-10-19 14:21:30.797676
340  2023-10-19 14:21:30.829596
341  2023-10-19 14:21:30.861525
342  2023-10-19 14:21:30.893431
343  2023-10-19 14:21:30.941296
344  2023-10-19 14:21:30.973216
345  2023-10-19 14:21:31.005113
346  2023-10-19 14:21:31.037035
347  2023-10-19 14:21:31.068957
348  2023-10-19 14:21:31.101875
349  2023-10-19 14:21:31.133778
350  2023-10-19 14:21:31.165694
351  2023-10-19 14:21:31.197613
352  2023-10-19 14:21:31.229533
353  2023-10-19 14:21:31.261435
354  2023-10-19 14:21:31.293355
355  2023-10-19 14:21:31.341221
356  2023-10-19 14:21:31.373162
357  2023-10-19 14:21:31.405050
358  2023-10-19 14:21:31.436972
359  2023-10-19 14:21:31.468878
360  2023-10-19 14:21:31.501759
361  2023-10-19 14:21:31.533704
362  2023-10-19 14:21:31.565619
363  2023-10-19 14:21:31.597544
364  2023-10-19 14:21:31.629451
365  2023-10-19 14:21:31.661382
366  2023-10-19 14:21:31.693296
367  2023-10-19 14:21:31.741151
368  2023-10-19 14:21:31.773072
369  2023-10-19 14:21:31.804996
370  2023-10-19 14:21:31.836927
371  2023-10-19 14:21:31.869774
372  2023-10-19 14:21:31.901722
373  2023-10-19 14:21:31.933607
374  2023-10-19 14:21:31.965562
375  2023-10-19 14:21:31.997478
376  2023-10-19 14:21:32.029383
377  2023-10-19 14:21:32.061302
378  2023-10-19 14:21:32.093221
379  2023-10-19 14:21:32.141086
380  2023-10-19 14:21:32.173011
381  2023-10-19 14:21:32.204910
382  2023-10-19 14:21:32.237826
383  2023-10-19 14:21:32.269737
384  2023-10-19 14:21:32.301673
385  2023-10-19 14:21:32.333559
386  2023-10-19 14:21:32.365480
387  2023-10-19 14:21:32.397362
388  2023-10-19 14:21:32.429278
389  2023-10-19 14:21:32.461224
390  2023-10-19 14:21:32.493141
391  2023-10-19 14:21:32.541039
392  2023-10-19 14:21:32.572925
393  2023-10-19 14:21:32.605842
394  2023-10-19 14:21:32.637765
395  2023-10-19 14:21:32.669668
396  2023-10-19 14:21:32.701587
397  2023-10-19 14:21:32.733522
398  2023-10-19 14:21:32.765415
399  2023-10-19 14:21:32.797333
400  2023-10-19 14:21:32.829249
401  2023-10-19 14:21:32.861159
402  2023-10-19 14:21:32.893077
403  2023-10-19 14:21:32.941906
404  2023-10-19 14:21:32.973820
405  2023-10-19 14:21:33.005771
406  2023-10-19 14:21:33.037697
407  2023-10-19 14:21:33.069591
408  2023-10-19 14:21:33.101480
409  2023-10-19 14:21:33.133429
410  2023-10-19 14:21:33.165346
411  2023-10-19 14:21:33.197284
412  2023-10-19 14:21:33.229179
413  2023-10-19 14:21:33.261051
414  2023-10-19 14:21:33.292965
415  2023-10-19 14:21:33.340872
416  2023-10-19 14:21:33.373751
417  2023-10-19 14:21:33.405664
418  2023-10-19 14:21:33.437579
419  2023-10-19 14:21:33.469495
420  2023-10-19 14:21:33.501409
421  2023-10-19 14:21:33.533323
422  2023-10-19 14:21:33.565237
423  2023-10-19 14:21:33.597152
424  2023-10-19 14:21:33.629066
425  2023-10-19 14:21:33.660981
426  2023-10-19 14:21:33.693893
427  2023-10-19 14:21:33.741765
428  2023-10-19 14:21:33.773680
429  2023-10-19 14:21:33.805595
430  2023-10-19 14:21:33.837509
431  2023-10-19 14:21:33.869424
432  2023-10-19 14:21:33.901338
433  2023-10-19 14:21:33.933253
434  2023-10-19 14:21:33.965167
435  2023-10-19 14:21:33.997082
436  2023-10-19 14:21:34.028997
437  2023-10-19 14:21:34.061909
438  2023-10-19 14:21:34.109781
439  2023-10-19 14:21:34.141696
440  2023-10-19 14:21:34.173610
441  2023-10-19 14:21:34.205524
442  2023-10-19 14:21:34.237439
443  2023-10-19 14:21:34.269356
444  2023-10-19 14:21:34.301268
445  2023-10-19 14:21:34.333183
446  2023-10-19 14:21:34.365098
447  2023-10-19 14:21:34.397012
448  2023-10-19 14:21:34.428927
449  2023-10-19 14:21:34.461840
450  2023-10-19 14:21:34.509711
451  2023-10-19 14:21:34.541626
452  2023-10-19 14:21:34.573540
453  2023-10-19 14:21:34.605455
454  2023-10-19 14:21:34.637369
455  2023-10-19 14:21:34.669284
456  2023-10-19 14:21:34.701199
457  2023-10-19 14:21:34.733115
458  2023-10-19 14:21:34.765028
459  2023-10-19 14:21:34.797940
460  2023-10-19 14:21:34.829855
461  2023-10-19 14:21:34.861769
462  2023-10-19 14:21:34.909641
463  2023-10-19 14:21:34.941556
464  2023-10-19 14:21:34.973471
465  2023-10-19 14:21:35.005386
466  2023-10-19 14:21:35.037299
467  2023-10-19 14:21:35.069214
468  2023-10-19 14:21:35.101129
469  2023-10-19 14:21:35.133044
470  2023-10-19 14:21:35.164958
471  2023-10-19 14:21:35.197870
472  2023-10-19 14:21:35.229785
473  2023-10-19 14:21:35.261699
474  2023-10-19 14:21:35.309574
475  2023-10-19 14:21:35.341486
476  2023-10-19 14:21:35.373400
477  2023-10-19 14:21:35.405315
478  2023-10-19 14:21:35.437232
479  2023-10-19 14:21:35.469145
480  2023-10-19 14:21:35.501059
481  2023-10-19 14:21:35.532973
482  2023-10-19 14:21:35.564888
483  2023-10-19 14:21:35.597801
484  2023-10-19 14:21:35.629716
485  2023-10-19 14:21:35.661630
486  2023-10-19 14:21:35.709501
487  2023-10-19 14:21:35.741416
488  2023-10-19 14:21:35.773331
489  2023-10-19 14:21:35.805245
490  2023-10-19 14:21:35.837160
491  2023-10-19 14:21:35.869074
492  2023-10-19 14:21:35.900989
493  2023-10-19 14:21:35.932904
494  2023-10-19 14:21:35.965816
495  2023-10-19 14:21:35.997731
496  2023-10-19 14:21:36.029645
497  2023-10-19 14:21:36.061560
498  2023-10-19 14:21:36.109432
499  2023-10-19 14:21:36.141346
500  2023-10-19 14:21:36.173261
501  2023-10-19 14:21:36.205175
502  2023-10-19 14:21:36.237090
503  2023-10-19 14:21:36.269005
504  2023-10-19 14:21:36.300958
505  2023-10-19 14:21:36.333832
506  2023-10-19 14:21:36.365746
507  2023-10-19 14:21:36.397661
508  2023-10-19 14:21:36.429576
509  2023-10-19 14:21:36.461490
510  2023-10-19 14:21:36.509363
511  2023-10-19 14:21:36.541276
512  2023-10-19 14:21:36.573191
513  2023-10-19 14:21:36.605106
514  2023-10-19 14:21:36.638018
515  2023-10-19 14:21:36.668935
516  2023-10-19 14:21:36.701847
517  2023-10-19 14:21:36.733762
518  2023-10-19 14:21:36.765676
519  2023-10-19 14:21:36.797591
520  2023-10-19 14:21:36.829505
521  2023-10-19 14:21:36.861420
522  2023-10-19 14:21:36.909292
523  2023-10-19 14:21:36.941207
524  2023-10-19 14:21:36.973122
525  2023-10-19 14:21:37.005036
526  2023-10-19 14:21:37.036951
527  2023-10-19 14:21:37.069863
528  2023-10-19 14:21:37.101778
529  2023-10-19 14:21:37.133692
530  2023-10-19 14:21:37.165616
531  2023-10-19 14:21:37.197521
532  2023-10-19 14:21:37.229436
533  2023-10-19 14:21:37.261351
534  2023-10-19 14:21:37.309222
535  2023-10-19 14:21:37.341137
536  2023-10-19 14:21:37.373051
537  2023-10-19 14:21:37.404967
538  2023-10-19 14:21:37.436881
539  2023-10-19 14:21:37.469793
540  2023-10-19 14:21:37.501708
541  2023-10-19 14:21:37.533622
542  2023-10-19 14:21:37.565537
543  2023-10-19 14:21:37.597451
544  2023-10-19 14:21:37.629371
545  2023-10-19 14:21:37.677239
546  2023-10-19 14:21:37.709153
547  2023-10-19 14:21:37.741067
548  2023-10-19 14:21:37.772982
549  2023-10-19 14:21:37.805895
550  2023-10-19 14:21:37.837810
551  2023-10-19 14:21:37.869723
552  2023-10-19 14:21:37.901638
553  2023-10-19 14:21:37.933589
554  2023-10-19 14:21:37.965505
555  2023-10-19 14:21:37.997390
556  2023-10-19 14:21:38.029296
557  2023-10-19 14:21:38.077171
558  2023-10-19 14:21:38.109083
559  2023-10-19 14:21:38.140998
560  2023-10-19 14:21:38.172912
561  2023-10-19 14:21:38.205825
562  2023-10-19 14:21:38.237739
563  2023-10-19 14:21:38.269654
564  2023-10-19 14:21:38.301570
565  2023-10-19 14:21:38.333484
566  2023-10-19 14:21:38.365402
567  2023-10-19 14:21:38.397314
568  2023-10-19 14:21:38.429228
569  2023-10-19 14:21:38.477100
570  2023-10-19 14:21:38.509015
571  2023-10-19 14:21:38.540929
572  2023-10-19 14:21:38.573843
573  2023-10-19 14:21:38.605756
574  2023-10-19 14:21:38.637671
575  2023-10-19 14:21:38.669585
576  2023-10-19 14:21:38.701500
577  2023-10-19 14:21:38.733415
578  2023-10-19 14:21:38.765329
579  2023-10-19 14:21:38.797244
580  2023-10-19 14:21:38.829158
581  2023-10-19 14:21:38.877030
582  2023-10-19 14:21:38.908944
583  2023-10-19 14:21:38.941857
584  2023-10-19 14:21:38.973772
585  2023-10-19 14:21:39.005686
586  2023-10-19 14:21:39.037602
587  2023-10-19 14:21:39.069516
588  2023-10-19 14:21:39.101430
589  2023-10-19 14:21:39.133345
590  2023-10-19 14:21:39.166257
591  2023-10-19 14:21:39.197174
592  2023-10-19 14:21:39.229088
593  2023-10-19 14:21:39.276962
594  2023-10-19 14:21:39.309874
595  2023-10-19 14:21:39.341788
596  2023-10-19 14:21:39.373702
597  2023-10-19 14:21:39.405617
598  2023-10-19 14:21:39.437530
599  2023-10-19 14:21:39.469445
600  2023-10-19 14:21:39.501360
601  2023-10-19 14:21:39.533275
602  2023-10-19 14:21:39.565190
603  2023-10-19 14:21:39.597105
604  2023-10-19 14:21:39.629019
605  2023-10-19 14:21:39.676891
606  2023-10-19 14:21:39.709802
607  2023-10-19 14:21:39.741717
608  2023-10-19 14:21:39.773632
609  2023-10-19 14:21:39.805547
610  2023-10-19 14:21:39.837488
611  2023-10-19 14:21:39.869376
612  2023-10-19 14:21:39.901290
613  2023-10-19 14:21:39.933205
614  2023-10-19 14:21:39.965120
615  2023-10-19 14:21:39.997034
616  2023-10-19 14:21:40.028949
617  2023-10-19 14:21:40.077819
618  2023-10-19 14:21:40.109739
619  2023-10-19 14:21:40.141648
620  2023-10-19 14:21:40.173563
621  2023-10-19 14:21:40.205477
622  2023-10-19 14:21:40.237393
623  2023-10-19 14:21:40.269306
624  2023-10-19 14:21:40.301220
625  2023-10-19 14:21:40.333135
626  2023-10-19 14:21:40.365050
627  2023-10-19 14:21:40.396964
628  2023-10-19 14:21:40.429876
629  2023-10-19 14:21:40.477750
630  2023-10-19 14:21:40.509698
631  2023-10-19 14:21:40.541578
632  2023-10-19 14:21:40.573493
633  2023-10-19 14:21:40.605407
634  2023-10-19 14:21:40.637342
635  2023-10-19 14:21:40.669236
636  2023-10-19 14:21:40.701151
637  2023-10-19 14:21:40.733066
638  2023-10-19 14:21:40.764980
639  2023-10-19 14:21:40.797893
640  2023-10-19 14:21:40.829808
641  2023-10-19 14:21:40.877679
642  2023-10-19 14:21:40.909593
643  2023-10-19 14:21:40.941508
644  2023-10-19 14:21:40.973423
645  2023-10-19 14:21:41.005337
646  2023-10-19 14:21:41.037252
647  2023-10-19 14:21:41.069167
648  2023-10-19 14:21:41.101080
649  2023-10-19 14:21:41.133021
650  2023-10-19 14:21:41.164910
651  2023-10-19 14:21:41.197823
652  2023-10-19 14:21:41.229737
653  2023-10-19 14:21:41.277609
654  2023-10-19 14:21:41.309523
655  2023-10-19 14:21:41.341439
656  2023-10-19 14:21:41.373353
657  2023-10-19 14:21:41.405267
658  2023-10-19 14:21:41.437182
659  2023-10-19 14:21:41.469097
660  2023-10-19 14:21:41.502009
661  2023-10-19 14:21:41.533924
662  2023-10-19 14:21:41.565839
663  2023-10-19 14:21:41.597753
664  2023-10-19 14:21:41.645624
665  2023-10-19 14:21:41.677540
666  2023-10-19 14:21:41.709455
667  2023-10-19 14:21:41.741369
668  2023-10-19 14:21:41.773285
669  2023-10-19 14:21:41.805198
670  2023-10-19 14:21:41.837113
671  2023-10-19 14:21:41.869028
672  2023-10-19 14:21:41.900943
673  2023-10-19 14:21:41.933855
674  2023-10-19 14:21:41.965767
675  2023-10-19 14:21:41.997683
676  2023-10-19 14:21:42.045555
677  2023-10-19 14:21:42.077470
678  2023-10-19 14:21:42.109384
679  2023-10-19 14:21:42.141299
680  2023-10-19 14:21:42.173214
681  2023-10-19 14:21:42.205128
682  2023-10-19 14:21:42.237042
683  2023-10-19 14:21:42.268957
684  2023-10-19 14:21:42.300872
685  2023-10-19 14:21:42.333785
686  2023-10-19 14:21:42.365699
687  2023-10-19 14:21:42.397613
688  2023-10-19 14:21:42.445485
689  2023-10-19 14:21:42.477399
690  2023-10-19 14:21:42.509315
691  2023-10-19 14:21:42.541229
692  2023-10-19 14:21:42.573144
693  2023-10-19 14:21:42.605058
694  2023-10-19 14:21:42.636973
695  2023-10-19 14:21:42.669886
696  2023-10-19 14:21:42.701800
697  2023-10-19 14:21:42.733714
698  2023-10-19 14:21:42.765629
699  2023-10-19 14:21:42.797543
700  2023-10-19 14:21:42.845415
701  2023-10-19 14:21:42.877333
702  2023-10-19 14:21:42.909244
703  2023-10-19 14:21:42.941159
704  2023-10-19 14:21:42.973074
705  2023-10-19 14:21:43.004988
706  2023-10-19 14:21:43.037901
707  2023-10-19 14:21:43.069815
708  2023-10-19 14:21:43.101731
709  2023-10-19 14:21:43.133646
710  2023-10-19 14:21:43.165560
711  2023-10-19 14:21:43.197474
712  2023-10-19 14:21:43.245347
713  2023-10-19 14:21:43.277260
714  2023-10-19 14:21:43.309175
715  2023-10-19 14:21:43.341091
716  2023-10-19 14:21:43.374034
717  2023-10-19 14:21:43.404977
718  2023-10-19 14:21:43.437862
719  2023-10-19 14:21:43.469745
720  2023-10-19 14:21:43.501711
721  2023-10-19 14:21:43.533607
722  2023-10-19 14:21:43.565521
723  2023-10-19 14:21:43.597453
724  2023-10-19 14:21:43.645308
725  2023-10-19 14:21:43.677224
726  2023-10-19 14:21:43.709105
727  2023-10-19 14:21:43.741099
728  2023-10-19 14:21:43.772967
729  2023-10-19 14:21:43.804880
730  2023-10-19 14:21:43.837803
731  2023-10-19 14:21:43.869717
732  2023-10-19 14:21:43.901623
733  2023-10-19 14:21:43.933546
734  2023-10-19 14:21:43.965453
735  2023-10-19 14:21:43.997375
736  2023-10-19 14:21:44.045248
737  2023-10-19 14:21:44.077163
738  2023-10-19 14:21:44.109080
739  2023-10-19 14:21:44.140983
740  2023-10-19 14:21:44.172897
741  2023-10-19 14:21:44.205776
742  2023-10-19 14:21:44.237689
743  2023-10-19 14:21:44.269637
744  2023-10-19 14:21:44.301564
745  2023-10-19 14:21:44.333471
746  2023-10-19 14:21:44.365380
747  2023-10-19 14:21:44.397301
748  2023-10-19 14:21:44.445168
749  2023-10-19 14:21:44.477083
750  2023-10-19 14:21:44.509001
751  2023-10-19 14:21:44.541913
752  2023-10-19 14:21:44.572836
753  2023-10-19 14:21:44.605752
754  2023-10-19 14:21:44.637656
755  2023-10-19 14:21:44.669571
756  2023-10-19 14:21:44.701490
757  2023-10-19 14:21:44.733412
758  2023-10-19 14:21:44.765280
759  2023-10-19 14:21:44.797248
760  2023-10-19 14:21:44.845105
761  2023-10-19 14:21:44.877037
762  2023-10-19 14:21:44.909932
763  2023-10-19 14:21:44.940866
764  2023-10-19 14:21:44.973764
765  2023-10-19 14:21:45.005675
766  2023-10-19 14:21:45.037585
767  2023-10-19 14:21:45.069466
768  2023-10-19 14:21:45.101413
769  2023-10-19 14:21:45.133333
770  2023-10-19 14:21:45.165245
771  2023-10-19 14:21:45.197166
772  2023-10-19 14:21:45.245039
773  2023-10-19 14:21:45.276956
774  2023-10-19 14:21:45.309822
775  2023-10-19 14:21:45.341780
776  2023-10-19 14:21:45.373696
777  2023-10-19 14:21:45.405601
778  2023-10-19 14:21:45.437536
779  2023-10-19 14:21:45.469401
780  2023-10-19 14:21:45.501347
781  2023-10-19 14:21:45.533282
782  2023-10-19 14:21:45.565175
783  2023-10-19 14:21:45.613051
784  2023-10-19 14:21:45.644930
785  2023-10-19 14:21:45.677840
786  2023-10-19 14:21:45.709753
787  2023-10-19 14:21:45.741713
788  2023-10-19 14:21:45.773634
789  2023-10-19 14:21:45.805531
790  2023-10-19 14:21:45.837412
791  2023-10-19 14:21:45.869365
792  2023-10-19 14:21:45.901286
793  2023-10-19 14:21:45.934153
794  2023-10-19 14:21:45.966068
795  2023-10-19 14:21:46.013973
796  2023-10-19 14:21:46.045855
797  2023-10-19 14:21:46.077769
798  2023-10-19 14:21:46.109683
799  2023-10-19 14:21:46.141634
800  2023-10-19 14:21:46.173514
801  2023-10-19 14:21:46.205476
802  2023-10-19 14:21:46.237401
803  2023-10-19 14:21:46.269300
804  2023-10-19 14:21:46.301206
805  2023-10-19 14:21:46.334085
806  2023-10-19 14:21:46.365999
807  2023-10-19 14:21:46.413870
808  2023-10-19 14:21:46.445784
809  2023-10-19 14:21:46.477700
810  2023-10-19 14:21:46.509614
811  2023-10-19 14:21:46.541529
812  2023-10-19 14:21:46.573476
813  2023-10-19 14:21:46.605359
814  2023-10-19 14:21:46.637274
815  2023-10-19 14:21:46.669220
816  2023-10-19 14:21:46.701102
817  2023-10-19 14:21:46.733060
818  2023-10-19 14:21:46.764930
819  2023-10-19 14:21:46.813846
820  2023-10-19 14:21:46.845715
821  2023-10-19 14:21:46.877630
822  2023-10-19 14:21:46.909544
823  2023-10-19 14:21:46.941459
824  2023-10-19 14:21:46.973421
825  2023-10-19 14:21:47.006311
826  2023-10-19 14:21:47.038233
827  2023-10-19 14:21:47.069157
828  2023-10-19 14:21:47.101059
829  2023-10-19 14:21:47.132947
830  2023-10-19 14:21:47.165858
831  2023-10-19 14:21:47.213756
832  2023-10-19 14:21:47.245645
833  2023-10-19 14:21:47.277560
834  2023-10-19 14:21:47.309474
835  2023-10-19 14:21:47.341469
836  2023-10-19 14:21:47.373385
837  2023-10-19 14:21:47.405299
838  2023-10-19 14:21:47.437274
839  2023-10-19 14:21:47.469189
840  2023-10-19 14:21:47.501074
841  2023-10-19 14:21:47.533955
842  2023-10-19 14:21:47.565903
843  2023-10-19 14:21:47.613744
844  2023-10-19 14:21:47.645657
845  2023-10-19 14:21:47.677570
846  2023-10-19 14:21:47.709485
847  2023-10-19 14:21:47.741400
848  2023-10-19 14:21:47.773320
849  2023-10-19 14:21:47.805229
850  2023-10-19 14:21:47.837144
851  2023-10-19 14:21:47.869058
852  2023-10-19 14:21:47.900973
853  2023-10-19 14:21:47.933939
854  2023-10-19 14:21:47.965800
855  2023-10-19 14:21:48.013671
856  2023-10-19 14:21:48.045618
857  2023-10-19 14:21:48.077528
858  2023-10-19 14:21:48.109416
859  2023-10-19 14:21:48.141330
860  2023-10-19 14:21:48.173246
861  2023-10-19 14:21:48.205159
862  2023-10-19 14:21:48.237074
863  2023-10-19 14:21:48.268988
864  2023-10-19 14:21:48.300903
865  2023-10-19 14:21:48.333815
866  2023-10-19 14:21:48.365731
867  2023-10-19 14:21:48.413602
868  2023-10-19 14:21:48.445520
869  2023-10-19 14:21:48.477431
870  2023-10-19 14:21:48.509410
871  2023-10-19 14:21:48.541298
872  2023-10-19 14:21:48.573178
873  2023-10-19 14:21:48.605091
874  2023-10-19 14:21:48.637005
875  2023-10-19 14:21:48.668921
876  2023-10-19 14:21:48.700835
877  2023-10-19 14:21:48.733746
878  2023-10-19 14:21:48.765694
879  2023-10-19 14:21:48.813583
880  2023-10-19 14:21:48.845475
881  2023-10-19 14:21:48.877399
882  2023-10-19 14:21:48.909277
883  2023-10-19 14:21:48.941192
884  2023-10-19 14:21:48.973134
885  2023-10-19 14:21:49.005022
886  2023-10-19 14:21:49.036964
887  2023-10-19 14:21:49.068898
888  2023-10-19 14:21:49.101763
889  2023-10-19 14:21:49.133707
890  2023-10-19 14:21:49.181597
891  2023-10-19 14:21:49.213497
892  2023-10-19 14:21:49.245414
893  2023-10-19 14:21:49.277339
894  2023-10-19 14:21:49.309207
895  2023-10-19 14:21:49.341157
896  2023-10-19 14:21:49.374036
897  2023-10-19 14:21:49.404951
898  2023-10-19 14:21:49.436865
899  2023-10-19 14:21:49.469816
900  2023-10-19 14:21:49.501728
901  2023-10-19 14:21:49.533607
902  2023-10-19 14:21:49.581480
903  2023-10-19 14:21:49.613393
904  2023-10-19 14:21:49.645308
905  2023-10-19 14:21:49.677223
906  2023-10-19 14:21:49.709137
907  2023-10-19 14:21:49.741052
908  2023-10-19 14:21:49.773963
909  2023-10-19 14:21:49.805879
910  2023-10-19 14:21:49.837840
911  2023-10-19 14:21:49.869755
912  2023-10-19 14:21:49.901655
913  2023-10-19 14:21:49.933537
914  2023-10-19 14:21:49.981446
915  2023-10-19 14:21:50.013350
916  2023-10-19 14:21:50.045238
917  2023-10-19 14:21:50.077212
918  2023-10-19 14:21:50.109116
919  2023-10-19 14:21:50.141030
920  2023-10-19 14:21:50.173935
921  2023-10-19 14:21:50.205809
922  2023-10-19 14:21:50.237771
923  2023-10-19 14:21:50.269638
924  2023-10-19 14:21:50.301593
925  2023-10-19 14:21:50.333467
926  2023-10-19 14:21:50.381340
927  2023-10-19 14:21:50.413254
928  2023-10-19 14:21:50.445168
929  2023-10-19 14:21:50.477082
930  2023-10-19 14:21:50.508999
931  2023-10-19 14:21:50.541910
932  2023-10-19 14:21:50.573824
933  2023-10-19 14:21:50.605739
934  2023-10-19 14:21:50.637654
935  2023-10-19 14:21:50.669567
936  2023-10-19 14:21:50.701483
937  2023-10-19 14:21:50.733397
938  2023-10-19 14:21:50.781311
939  2023-10-19 14:21:50.813184
940  2023-10-19 14:21:50.845139
941  2023-10-19 14:21:50.877060
942  2023-10-19 14:21:50.908986
943  2023-10-19 14:21:50.940888
944  2023-10-19 14:21:50.973796
945  2023-10-19 14:21:51.005702
946  2023-10-19 14:21:51.037584
947  2023-10-19 14:21:51.069533
948  2023-10-19 14:21:51.101446
949  2023-10-19 14:21:51.133365
950  2023-10-19 14:21:51.181237
951  2023-10-19 14:21:51.213164
952  2023-10-19 14:21:51.245028
953  2023-10-19 14:21:51.276945
954  2023-10-19 14:21:51.308904
955  2023-10-19 14:21:51.341830
956  2023-10-19 14:21:51.373740
957  2023-10-19 14:21:51.405633
958  2023-10-19 14:21:51.437552
959  2023-10-19 14:21:51.469468
960  2023-10-19 14:21:51.501392
961  2023-10-19 14:21:51.533308
962  2023-10-19 14:21:51.581168
963  2023-10-19 14:21:51.613044
964  2023-10-19 14:21:51.645957
965  2023-10-19 14:21:51.676903
966  2023-10-19 14:21:51.709819
967  2023-10-19 14:21:51.741750
968  2023-10-19 14:21:51.773661
969  2023-10-19 14:21:51.805530
970  2023-10-19 14:21:51.837445
971  2023-10-19 14:21:51.869360
972  2023-10-19 14:21:51.901311
973  2023-10-19 14:21:51.933230
974  2023-10-19 14:21:51.981089
975  2023-10-19 14:21:52.014011
976  2023-10-19 14:21:52.045888
977  2023-10-19 14:21:52.076842
978  2023-10-19 14:21:52.109762
979  2023-10-19 14:21:52.141673
980  2023-10-19 14:21:52.173545
981  2023-10-19 14:21:52.205491
982  2023-10-19 14:21:52.237417
983  2023-10-19 14:21:52.269333
984  2023-10-19 14:21:52.301253
985  2023-10-19 14:21:52.333161
986  2023-10-19 14:21:52.381033
987  2023-10-19 14:21:52.412945
988  2023-10-19 14:21:52.445817
989  2023-10-19 14:21:52.477783
990  2023-10-19 14:21:52.509704
991  2023-10-19 14:21:52.541611
992  2023-10-19 14:21:52.573518
993  2023-10-19 14:21:52.605390
994  2023-10-19 14:21:52.637344
995  2023-10-19 14:21:52.669254
996  2023-10-19 14:21:52.701181
997  2023-10-19 14:21:52.733048
998  2023-10-19 14:21:52.780958
999  2023-10-19 14:21:52.812873
1000  2023-10-19 14:21:52.845792
1001  2023-10-19 14:21:52.877666
1002  2023-10-19 14:21:52.909613
1003  2023-10-19 14:21:52.941528
1004  2023-10-19 14:21:52.973442
1005  2023-10-19 14:21:53.005323
1006  2023-10-19 14:21:53.037264
1007  2023-10-19 14:21:53.069191
1008  2023-10-19 14:21:53.101100
1009  2023-10-19 14:21:53.148971
1010  2023-10-19 14:21:53.181848
1011  2023-10-19 14:21:53.213795
1012  2023-10-19 14:21:53.245677
1013  2023-10-19 14:21:53.277592
1014  2023-10-19 14:21:53.309570
1015  2023-10-19 14:21:53.341462
1016  2023-10-19 14:21:53.373370
1017  2023-10-19 14:21:53.405250
1018  2023-10-19 14:21:53.437204
1019  2023-10-19 14:21:53.469121
1020  2023-10-19 14:21:53.502027
1021  2023-10-19 14:21:53.549864
1022  2023-10-19 14:21:53.581846
1023  2023-10-19 14:21:53.613740
1024  2023-10-19 14:21:53.645607
1025  2023-10-19 14:21:53.677555
1026  2023-10-19 14:21:53.709471
1027  2023-10-19 14:21:53.741390
1028  2023-10-19 14:21:53.773306
1029  2023-10-19 14:21:53.805220
1030  2023-10-19 14:21:53.837138
1031  2023-10-19 14:21:53.869057
1032  2023-10-19 14:21:53.900958
1033  2023-10-19 14:21:53.949850
1034  2023-10-19 14:21:53.981752
1035  2023-10-19 14:21:54.013666
1036  2023-10-19 14:21:54.045582
1037  2023-10-19 14:21:54.077499
1038  2023-10-19 14:21:54.109393
1039  2023-10-19 14:21:54.141316
1040  2023-10-19 14:21:54.173242
1041  2023-10-19 14:21:54.205148
1042  2023-10-19 14:21:54.237061
1043  2023-10-19 14:21:54.269938
1044  2023-10-19 14:21:54.300897
1045  2023-10-19 14:21:54.349760
1046  2023-10-19 14:21:54.381681
1047  2023-10-19 14:21:54.413587
1048  2023-10-19 14:21:54.445507
1049  2023-10-19 14:21:54.477421
1050  2023-10-19 14:21:54.509324
1051  2023-10-19 14:21:54.541251
1052  2023-10-19 14:21:54.573171
1053  2023-10-19 14:21:54.605100
1054  2023-10-19 14:21:54.636986
1055  2023-10-19 14:21:54.669867
1056  2023-10-19 14:21:54.701827
1057  2023-10-19 14:21:54.749654
1058  2023-10-19 14:21:54.781598
1059  2023-10-19 14:21:54.813510
1060  2023-10-19 14:21:54.845424
1061  2023-10-19 14:21:54.877311
1062  2023-10-19 14:21:54.909268
1063  2023-10-19 14:21:54.941177
1064  2023-10-19 14:21:54.973093
1065  2023-10-19 14:21:55.005015
1066  2023-10-19 14:21:55.036915
1067  2023-10-19 14:21:55.069844
1068  2023-10-19 14:21:55.101753
1069  2023-10-19 14:21:55.149585
1070  2023-10-19 14:21:55.181527
1071  2023-10-19 14:21:55.213441
1072  2023-10-19 14:21:55.245383
1073  2023-10-19 14:21:55.277281
1074  2023-10-19 14:21:55.309196
1075  2023-10-19 14:21:55.341072
1076  2023-10-19 14:21:55.374023
1077  2023-10-19 14:21:55.404947
1078  2023-10-19 14:21:55.436853
1079  2023-10-19 14:21:55.469729
1080  2023-10-19 14:21:55.501670
1081  2023-10-19 14:21:55.549514
1082  2023-10-19 14:21:55.581463
1083  2023-10-19 14:21:55.613455
1084  2023-10-19 14:21:55.645366
1085  2023-10-19 14:21:55.677289
1086  2023-10-19 14:21:55.709207
1087  2023-10-19 14:21:55.741123
1088  2023-10-19 14:21:55.773026
1089  2023-10-19 14:21:55.804944
1090  2023-10-19 14:21:55.837854
1091  2023-10-19 14:21:55.869766
1092  2023-10-19 14:21:55.901684
1093  2023-10-19 14:21:55.949524
1094  2023-10-19 14:21:55.981486
1095  2023-10-19 14:21:56.013406
1096  2023-10-19 14:21:56.045268
1097  2023-10-19 14:21:56.077228
1098  2023-10-19 14:21:56.109133
1099  2023-10-19 14:21:56.141045
1100  2023-10-19 14:21:56.172954
1101  2023-10-19 14:21:56.205841
1102  2023-10-19 14:21:56.237753
1103  2023-10-19 14:21:56.269668
1104  2023-10-19 14:21:56.301618
1105  2023-10-19 14:21:56.349497
1106  2023-10-19 14:21:56.381399
1107  2023-10-19 14:21:56.413323
1108  2023-10-19 14:21:56.445227
1109  2023-10-19 14:21:56.477142
1110  2023-10-19 14:21:56.509027
1111  2023-10-19 14:21:56.540969
1112  2023-10-19 14:21:56.572885
1113  2023-10-19 14:21:56.605771
1114  2023-10-19 14:21:56.637684
1115  2023-10-19 14:21:56.669598
1116  2023-10-19 14:21:56.717470
1117  2023-10-19 14:21:56.749385
1118  2023-10-19 14:21:56.781341
1119  2023-10-19 14:21:56.813246
1120  2023-10-19 14:21:56.845170
1121  2023-10-19 14:21:56.878041
1122  2023-10-19 14:21:56.908984
1123  2023-10-19 14:21:56.940903
1124  2023-10-19 14:21:56.973819
1125  2023-10-19 14:21:57.005740
1126  2023-10-19 14:21:57.037614
1127  2023-10-19 14:21:57.069528
1128  2023-10-19 14:21:57.117400
1129  2023-10-19 14:21:57.149316
1130  2023-10-19 14:21:57.181257
1131  2023-10-19 14:21:57.213191
1132  2023-10-19 14:21:57.245100
1133  2023-10-19 14:21:57.277032
1134  2023-10-19 14:21:57.308917
1135  2023-10-19 14:21:57.341800
1136  2023-10-19 14:21:57.373742
1137  2023-10-19 14:21:57.405656
1138  2023-10-19 14:21:57.437581
1139  2023-10-19 14:21:57.469459
1140  2023-10-19 14:21:57.517359
1141  2023-10-19 14:21:57.549245
1142  2023-10-19 14:21:57.581160
1143  2023-10-19 14:21:57.613105
1144  2023-10-19 14:21:57.645030
1145  2023-10-19 14:21:57.676948
1146  2023-10-19 14:21:57.709816
1147  2023-10-19 14:21:57.741733
1148  2023-10-19 14:21:57.773645
1149  2023-10-19 14:21:57.805561
1150  2023-10-19 14:21:57.837474
1151  2023-10-19 14:21:57.869389
1152  2023-10-19 14:21:57.917261
1153  2023-10-19 14:21:57.949175
1154  2023-10-19 14:21:57.981090
1155  2023-10-19 14:21:58.013005
1156  2023-10-19 14:21:58.044920
1157  2023-10-19 14:21:58.077831
1158  2023-10-19 14:21:58.109746
1159  2023-10-19 14:21:58.141660
1160  2023-10-19 14:21:58.173575
1161  2023-10-19 14:21:58.205491
1162  2023-10-19 14:21:58.237404
1163  2023-10-19 14:21:58.269319
1164  2023-10-19 14:21:58.317191
1165  2023-10-19 14:21:58.349106
1166  2023-10-19 14:21:58.381021
1167  2023-10-19 14:21:58.413933
1168  2023-10-19 14:21:58.445847
1169  2023-10-19 14:21:58.477763
1170  2023-10-19 14:21:58.509676
1171  2023-10-19 14:21:58.541591
1172  2023-10-19 14:21:58.573505
1173  2023-10-19 14:21:58.605420
1174  2023-10-19 14:21:58.637336
1175  2023-10-19 14:21:58.669251
1176  2023-10-19 14:21:58.718122
1177  2023-10-19 14:21:58.750036
1178  2023-10-19 14:21:58.780986
1179  2023-10-19 14:21:58.812866
1180  2023-10-19 14:21:58.845779
1181  2023-10-19 14:21:58.877693
1182  2023-10-19 14:21:58.909608
1183  2023-10-19 14:21:58.941522
1184  2023-10-19 14:21:58.973476
1185  2023-10-19 14:21:59.005405
1186  2023-10-19 14:21:59.037266
1187  2023-10-19 14:21:59.069181
1188  2023-10-19 14:21:59.117053
1189  2023-10-19 14:21:59.148967
1190  2023-10-19 14:21:59.180923
1191  2023-10-19 14:21:59.213823
1192  2023-10-19 14:21:59.245709
1193  2023-10-19 14:21:59.277623
1194  2023-10-19 14:21:59.309541
1195  2023-10-19 14:21:59.341479
1196  2023-10-19 14:21:59.373367
1197  2023-10-19 14:21:59.405288
1198  2023-10-19 14:21:59.437197
1199  2023-10-19 14:21:59.469158
1200  2023-10-19 14:21:59.516983
1201  2023-10-19 14:21:59.548939
1202  2023-10-19 14:21:59.581810
1203  2023-10-19 14:21:59.613724
1204  2023-10-19 14:21:59.645640
1205  2023-10-19 14:21:59.677553
1206  2023-10-19 14:21:59.709469
1207  2023-10-19 14:21:59.741383
1208  2023-10-19 14:21:59.773297
1209  2023-10-19 14:21:59.805214
1210  2023-10-19 14:21:59.837127
1211  2023-10-19 14:21:59.869041
1212  2023-10-19 14:21:59.916913
1213  2023-10-19 14:21:59.949826
1214  2023-10-19 14:21:59.981741
1215  2023-10-19 14:22:00.013654
1216  2023-10-19 14:22:00.045570
1217  2023-10-19 14:22:00.077484
1218  2023-10-19 14:22:00.109400
1219  2023-10-19 14:22:00.141314
1220  2023-10-19 14:22:00.173229
1221  2023-10-19 14:22:00.205143
1222  2023-10-19 14:22:00.237057
1223  2023-10-19 14:22:00.268972
1224  2023-10-19 14:22:00.317842
1225  2023-10-19 14:22:00.349755
1226  2023-10-19 14:22:00.381702
1227  2023-10-19 14:22:00.413585
1228  2023-10-19 14:22:00.445503
1229  2023-10-19 14:22:00.477414
1230  2023-10-19 14:22:00.509354
1231  2023-10-19 14:22:00.541243
1232  2023-10-19 14:22:00.573158
1233  2023-10-19 14:22:00.605073
1234  2023-10-19 14:22:00.637012
1235  2023-10-19 14:22:00.685888
1236  2023-10-19 14:22:00.717809
1237  2023-10-19 14:22:00.749686
1238  2023-10-19 14:22:00.781601
1239  2023-10-19 14:22:00.813516
1240  2023-10-19 14:22:00.845430
1241  2023-10-19 14:22:00.877344
1242  2023-10-19 14:22:00.909259
1243  2023-10-19 14:22:00.941174
1244  2023-10-19 14:22:00.973127
1245  2023-10-19 14:22:01.005003
1246  2023-10-19 14:22:01.036917
1247  2023-10-19 14:22:01.085788
1248  2023-10-19 14:22:01.117701
1249  2023-10-19 14:22:01.149616
1250  2023-10-19 14:22:01.181531
1251  2023-10-19 14:22:01.213445
1252  2023-10-19 14:22:01.245360
1253  2023-10-19 14:22:01.277274
1254  2023-10-19 14:22:01.309189
1255  2023-10-19 14:22:01.341104
1256  2023-10-19 14:22:01.373018
1257  2023-10-19 14:22:01.404933
1258  2023-10-19 14:22:01.437847
1259  2023-10-19 14:22:01.485717
1260  2023-10-19 14:22:01.517632
1261  2023-10-19 14:22:01.549547
1262  2023-10-19 14:22:01.581462
1263  2023-10-19 14:22:01.613376
1264  2023-10-19 14:22:01.645291
1265  2023-10-19 14:22:01.677205
1266  2023-10-19 14:22:01.709119
1267  2023-10-19 14:22:01.741034
1268  2023-10-19 14:22:01.772948
1269  2023-10-19 14:22:01.805861
1270  2023-10-19 14:22:01.837776
1271  2023-10-19 14:22:01.885648
1272  2023-10-19 14:22:01.917562
1273  2023-10-19 14:22:01.949477
1274  2023-10-19 14:22:01.981392
1275  2023-10-19 14:22:02.013307
1276  2023-10-19 14:22:02.045220
1277  2023-10-19 14:22:02.077135
1278  2023-10-19 14:22:02.109050
1279  2023-10-19 14:22:02.140965
1280  2023-10-19 14:22:02.172880
1281  2023-10-19 14:22:02.205792
1282  2023-10-19 14:22:02.237707
1283  2023-10-19 14:22:02.285578
1284  2023-10-19 14:22:02.317492
1285  2023-10-19 14:22:02.349440
1286  2023-10-19 14:22:02.381371
1287  2023-10-19 14:22:02.413236
1288  2023-10-19 14:22:02.445150
1289  2023-10-19 14:22:02.477095
1290  2023-10-19 14:22:02.509014
1291  2023-10-19 14:22:02.540896
1292  2023-10-19 14:22:02.573807
1293  2023-10-19 14:22:02.605721
1294  2023-10-19 14:22:02.637663
1295  2023-10-19 14:22:02.685536
1296  2023-10-19 14:22:02.717448
1297  2023-10-19 14:22:02.749337
1298  2023-10-19 14:22:02.781251
1299  2023-10-19 14:22:02.813166
1300  2023-10-19 14:22:02.845081
1301  2023-10-19 14:22:02.876995
1302  2023-10-19 14:22:02.908910
1303  2023-10-19 14:22:02.941823
1304  2023-10-19 14:22:02.973737
1305  2023-10-19 14:22:03.005652
1306  2023-10-19 14:22:03.037566
1307  2023-10-19 14:22:03.085474
1308  2023-10-19 14:22:03.117352
1309  2023-10-19 14:22:03.149267
1310  2023-10-19 14:22:03.181182
1311  2023-10-19 14:22:03.213096
1312  2023-10-19 14:22:03.245011
1313  2023-10-19 14:22:03.276925
1314  2023-10-19 14:22:03.309838
1315  2023-10-19 14:22:03.341753
1316  2023-10-19 14:22:03.373667
1317  2023-10-19 14:22:03.405582
1318  2023-10-19 14:22:03.437496
1319  2023-10-19 14:22:03.485368
1320  2023-10-19 14:22:03.517283
1321  2023-10-19 14:22:03.549197
1322  2023-10-19 14:22:03.581112
1323  2023-10-19 14:22:03.613026
1324  2023-10-19 14:22:03.644941
1325  2023-10-19 14:22:03.676856
1326  2023-10-19 14:22:03.709768
1327  2023-10-19 14:22:03.741683
1328  2023-10-19 14:22:03.773597
1329  2023-10-19 14:22:03.805513
1330  2023-10-19 14:22:03.837427
1331  2023-10-19 14:22:03.885340
1332  2023-10-19 14:22:03.917259
1333  2023-10-19 14:22:03.949126
1334  2023-10-19 14:22:03.981092
1335  2023-10-19 14:22:04.012996
1336  2023-10-19 14:22:04.045921
1337  2023-10-19 14:22:04.077846
1338  2023-10-19 14:22:04.109749
1339  2023-10-19 14:22:04.141646
1340  2023-10-19 14:22:04.173527
1341  2023-10-19 14:22:04.205473
1342  2023-10-19 14:22:04.253347
1343  2023-10-19 14:22:04.285255
1344  2023-10-19 14:22:04.317183
1345  2023-10-19 14:22:04.349098
1346  2023-10-19 14:22:04.381001
1347  2023-10-19 14:22:04.412921
1348  2023-10-19 14:22:04.445843
1349  2023-10-19 14:22:04.477755
1350  2023-10-19 14:22:04.509665
1351  2023-10-19 14:22:04.541587
1352  2023-10-19 14:22:04.573498
1353  2023-10-19 14:22:04.605407
1354  2023-10-19 14:22:04.653285
1355  2023-10-19 14:22:04.685193
1356  2023-10-19 14:22:04.717073
1357  2023-10-19 14:22:04.749034
1358  2023-10-19 14:22:04.780937
1359  2023-10-19 14:22:04.812856
1360  2023-10-19 14:22:04.845742
1361  2023-10-19 14:22:04.877698
1362  2023-10-19 14:22:04.909595
1363  2023-10-19 14:22:04.941514
1364  2023-10-19 14:22:04.973421
1365  2023-10-19 14:22:05.005340
1366  2023-10-19 14:22:05.053219
1367  2023-10-19 14:22:05.085146
1368  2023-10-19 14:22:05.117035
1369  2023-10-19 14:22:05.148958
1370  2023-10-19 14:22:05.181862
1371  2023-10-19 14:22:05.213785
1372  2023-10-19 14:22:05.245660
1373  2023-10-19 14:22:05.277609
1374  2023-10-19 14:22:05.309492
1375  2023-10-19 14:22:05.341460
1376  2023-10-19 14:22:05.373363
1377  2023-10-19 14:22:05.405278
1378  2023-10-19 14:22:05.453147
1379  2023-10-19 14:22:05.485068
1380  2023-10-19 14:22:05.516972
1381  2023-10-19 14:22:05.548881
1382  2023-10-19 14:22:05.581793
1383  2023-10-19 14:22:05.613700
1384  2023-10-19 14:22:05.645623
1385  2023-10-19 14:22:05.677537
1386  2023-10-19 14:22:05.709452
1387  2023-10-19 14:22:05.741367
1388  2023-10-19 14:22:05.773292
1389  2023-10-19 14:22:05.805163
1390  2023-10-19 14:22:05.853070
1391  2023-10-19 14:22:05.884976
1392  2023-10-19 14:22:05.916890
1393  2023-10-19 14:22:05.949802
1394  2023-10-19 14:22:05.981731
1395  2023-10-19 14:22:06.013637
1396  2023-10-19 14:22:06.045558
1397  2023-10-19 14:22:06.077486
1398  2023-10-19 14:22:06.109381
1399  2023-10-19 14:22:06.141302
1400  2023-10-19 14:22:06.173219
1401  2023-10-19 14:22:06.205130
1402  2023-10-19 14:22:06.253963
1403  2023-10-19 14:22:06.284914
1404  2023-10-19 14:22:06.317792
1405  2023-10-19 14:22:06.349708
1406  2023-10-19 14:22:06.381657
1407  2023-10-19 14:22:06.413576
1408  2023-10-19 14:22:06.445483
1409  2023-10-19 14:22:06.477400
1410  2023-10-19 14:22:06.509326
1411  2023-10-19 14:22:06.541241
1412  2023-10-19 14:22:06.573155
1413  2023-10-19 14:22:06.605084
1414  2023-10-19 14:22:06.652966
1415  2023-10-19 14:22:06.684843
1416  2023-10-19 14:22:06.717760
1417  2023-10-19 14:22:06.749668
1418  2023-10-19 14:22:06.781589
1419  2023-10-19 14:22:06.813505
1420  2023-10-19 14:22:06.845414
1421  2023-10-19 14:22:06.877295
1422  2023-10-19 14:22:06.909257
1423  2023-10-19 14:22:06.941167
1424  2023-10-19 14:22:06.973037
1425  2023-10-19 14:22:07.004990
1426  2023-10-19 14:22:07.052865
1427  2023-10-19 14:22:07.085774
1428  2023-10-19 14:22:07.117686
1429  2023-10-19 14:22:07.149607
1430  2023-10-19 14:22:07.181514
1431  2023-10-19 14:22:07.213395
1432  2023-10-19 14:22:07.245353
1433  2023-10-19 14:22:07.277265
1434  2023-10-19 14:22:07.309209
1435  2023-10-19 14:22:07.341097
1436  2023-10-19 14:22:07.373022
1437  2023-10-19 14:22:07.404884
1438  2023-10-19 14:22:07.453820
1439  2023-10-19 14:22:07.485734
1440  2023-10-19 14:22:07.517649
1441  2023-10-19 14:22:07.549564
1442  2023-10-19 14:22:07.581479
1443  2023-10-19 14:22:07.613393
1444  2023-10-19 14:22:07.645308
1445  2023-10-19 14:22:07.678222
1446  2023-10-19 14:22:07.710136
1447  2023-10-19 14:22:07.742049
1448  2023-10-19 14:22:07.772966
1449  2023-10-19 14:22:07.804917
1450  2023-10-19 14:22:07.853750
1451  2023-10-19 14:22:07.885664
1452  2023-10-19 14:22:07.917579
1453  2023-10-19 14:22:07.949494
1454  2023-10-19 14:22:07.981408
1455  2023-10-19 14:22:08.013325
1456  2023-10-19 14:22:08.045237
1457  2023-10-19 14:22:08.077152
1458  2023-10-19 14:22:08.109067
1459  2023-10-19 14:22:08.141029
1460  2023-10-19 14:22:08.172896
1461  2023-10-19 14:22:08.221765
1462  2023-10-19 14:22:08.253680
1463  2023-10-19 14:22:08.285594
1464  2023-10-19 14:22:08.317509
1465  2023-10-19 14:22:08.349424
1466  2023-10-19 14:22:08.381338
1467  2023-10-19 14:22:08.413253
1468  2023-10-19 14:22:08.445168
1469  2023-10-19 14:22:08.477082
1470  2023-10-19 14:22:08.508997
1471  2023-10-19 14:22:08.541909
1472  2023-10-19 14:22:08.573824
1473  2023-10-19 14:22:08.621696
1474  2023-10-19 14:22:08.653610
1475  2023-10-19 14:22:08.685525
1476  2023-10-19 14:22:08.717440
1477  2023-10-19 14:22:08.749355
1478  2023-10-19 14:22:08.781269
1479  2023-10-19 14:22:08.813184
1480  2023-10-19 14:22:08.845099
1481  2023-10-19 14:22:08.877013
1482  2023-10-19 14:22:08.908927
1483  2023-10-19 14:22:08.941840
1484  2023-10-19 14:22:08.973754
1485  2023-10-19 14:22:09.021626
1486  2023-10-19 14:22:09.053542
1487  2023-10-19 14:22:09.085457
1488  2023-10-19 14:22:09.117372
1489  2023-10-19 14:22:09.149286
1490  2023-10-19 14:22:09.181200
1491  2023-10-19 14:22:09.213147
1492  2023-10-19 14:22:09.245029
1493  2023-10-19 14:22:09.276944
1494  2023-10-19 14:22:09.308859
1495  2023-10-19 14:22:09.341772
1496  2023-10-19 14:22:09.373686
1497  2023-10-19 14:22:09.421557
1498  2023-10-19 14:22:09.454505
1499  2023-10-19 14:22:09.486421
1500  2023-10-19 14:22:09.517302
1501  2023-10-19 14:22:09.550249
1502  2023-10-19 14:22:09.581131
1503  2023-10-19 14:22:09.614072
1504  2023-10-19 14:22:09.645958
1505  2023-10-19 14:22:09.677872
1506  2023-10-19 14:22:09.709786
1507  2023-10-19 14:22:09.741701
1508  2023-10-19 14:22:09.773616
1509  2023-10-19 14:22:09.822549
1510  2023-10-19 14:22:09.854443
1511  2023-10-19 14:22:09.886349
1512  2023-10-19 14:22:09.918263
1513  2023-10-19 14:22:09.950171
1514  2023-10-19 14:22:09.982059
1515  2023-10-19 14:22:10.013973
1516  2023-10-19 14:22:10.045887
1517  2023-10-19 14:22:10.077802
1518  2023-10-19 14:22:10.109748
1519  2023-10-19 14:22:10.141632
1520  2023-10-19 14:22:10.173546
1521  2023-10-19 14:22:10.221418
1522  2023-10-19 14:22:10.253333
1523  2023-10-19 14:22:10.285247
1524  2023-10-19 14:22:10.317169
1525  2023-10-19 14:22:10.350114
1526  2023-10-19 14:22:10.382015
1527  2023-10-19 14:22:10.413936
1528  2023-10-19 14:22:10.445854
1529  2023-10-19 14:22:10.477778
1530  2023-10-19 14:22:10.509648
1531  2023-10-19 14:22:10.541561
1532  2023-10-19 14:22:10.573511
1533  2023-10-19 14:22:10.621349
1534  2023-10-19 14:22:10.653264
1535  2023-10-19 14:22:10.685177
1536  2023-10-19 14:22:10.717094
1537  2023-10-19 14:22:10.749007
1538  2023-10-19 14:22:10.780921
1539  2023-10-19 14:22:10.813835
1540  2023-10-19 14:22:10.845784
1541  2023-10-19 14:22:10.877692
1542  2023-10-19 14:22:10.910575
1543  2023-10-19 14:22:10.941492
1544  2023-10-19 14:22:10.973406
1545  2023-10-19 14:22:11.021279
1546  2023-10-19 14:22:11.053193
1547  2023-10-19 14:22:11.085108
1548  2023-10-19 14:22:11.117022
1549  2023-10-19 14:22:11.148938
1550  2023-10-19 14:22:11.181873
1551  2023-10-19 14:22:11.213764
1552  2023-10-19 14:22:11.245680
1553  2023-10-19 14:22:11.277594
1554  2023-10-19 14:22:11.309506
1555  2023-10-19 14:22:11.341462
1556  2023-10-19 14:22:11.373369
1557  2023-10-19 14:22:11.421249
1558  2023-10-19 14:22:11.453170
1559  2023-10-19 14:22:11.486037
1560  2023-10-19 14:22:11.516989
1561  2023-10-19 14:22:11.549913
1562  2023-10-19 14:22:11.581816
1563  2023-10-19 14:22:11.613695
1564  2023-10-19 14:22:11.645641
1565  2023-10-19 14:22:11.677522
1566  2023-10-19 14:22:11.709438
1567  2023-10-19 14:22:11.741354
1568  2023-10-19 14:22:11.789226
1569  2023-10-19 14:22:11.821202
1570  2023-10-19 14:22:11.853054
1571  2023-10-19 14:22:11.885997
1572  2023-10-19 14:22:11.917914
1573  2023-10-19 14:22:11.949822
1574  2023-10-19 14:22:11.981710
1575  2023-10-19 14:22:12.013625
1576  2023-10-19 14:22:12.045580
1577  2023-10-19 14:22:12.077455
1578  2023-10-19 14:22:12.109368
1579  2023-10-19 14:22:12.141283
1580  2023-10-19 14:22:12.189153
1581  2023-10-19 14:22:12.222106
1582  2023-10-19 14:22:12.252985
1583  2023-10-19 14:22:12.284900
1584  2023-10-19 14:22:12.317863
1585  2023-10-19 14:22:12.349761
1586  2023-10-19 14:22:12.381676
1587  2023-10-19 14:22:12.413554
1588  2023-10-19 14:22:12.445470
1589  2023-10-19 14:22:12.477410
1590  2023-10-19 14:22:12.509354
1591  2023-10-19 14:22:12.541247
1592  2023-10-19 14:22:12.589084
1593  2023-10-19 14:22:12.620999
1594  2023-10-19 14:22:12.652916
1595  2023-10-19 14:22:12.684829
1596  2023-10-19 14:22:12.717741
1597  2023-10-19 14:22:12.749656
1598  2023-10-19 14:22:12.781601
1599  2023-10-19 14:22:12.813485
1600  2023-10-19 14:22:12.845425
1601  2023-10-19 14:22:12.877365
1602  2023-10-19 14:22:12.909255
1603  2023-10-19 14:22:12.941176
1604  2023-10-19 14:22:12.989015
1605  2023-10-19 14:22:13.020963
1606  2023-10-19 14:22:13.052846
1607  2023-10-19 14:22:13.085758
1608  2023-10-19 14:22:13.117671
1609  2023-10-19 14:22:13.149618
1610  2023-10-19 14:22:13.181500
1611  2023-10-19 14:22:13.213415
1612  2023-10-19 14:22:13.245329
1613  2023-10-19 14:22:13.277279
1614  2023-10-19 14:22:13.309195
1615  2023-10-19 14:22:13.341099
1616  2023-10-19 14:22:13.388990
1617  2023-10-19 14:22:13.420864
1618  2023-10-19 14:22:13.453772
1619  2023-10-19 14:22:13.485686
1620  2023-10-19 14:22:13.517636
1621  2023-10-19 14:22:13.549516
1622  2023-10-19 14:22:13.581431
1623  2023-10-19 14:22:13.613384
1624  2023-10-19 14:22:13.645260
1625  2023-10-19 14:22:13.677206
1626  2023-10-19 14:22:13.710085
1627  2023-10-19 14:22:13.741002
1628  2023-10-19 14:22:13.788908
1629  2023-10-19 14:22:13.821826
1630  2023-10-19 14:22:13.853702
1631  2023-10-19 14:22:13.885659
1632  2023-10-19 14:22:13.917559
1633  2023-10-19 14:22:13.949498
1634  2023-10-19 14:22:13.981395
1635  2023-10-19 14:22:14.013308
1636  2023-10-19 14:22:14.045190
1637  2023-10-19 14:22:14.077145
1638  2023-10-19 14:22:14.109056
1639  2023-10-19 14:22:14.141963
1640  2023-10-19 14:22:14.189838
1641  2023-10-19 14:22:14.221760
1642  2023-10-19 14:22:14.253632
1643  2023-10-19 14:22:14.285547
1644  2023-10-19 14:22:14.317528
1645  2023-10-19 14:22:14.349419
1646  2023-10-19 14:22:14.381335
1647  2023-10-19 14:22:14.413244
1648  2023-10-19 14:22:14.445119
1649  2023-10-19 14:22:14.477067
1650  2023-10-19 14:22:14.508978
1651  2023-10-19 14:22:14.540892
1652  2023-10-19 14:22:14.589795
1653  2023-10-19 14:22:14.621686
1654  2023-10-19 14:22:14.653594
1655  2023-10-19 14:22:14.685511
1656  2023-10-19 14:22:14.717438
1657  2023-10-19 14:22:14.749355
1658  2023-10-19 14:22:14.781257
1659  2023-10-19 14:22:14.813185
1660  2023-10-19 14:22:14.845103
1661  2023-10-19 14:22:14.877962
1662  2023-10-19 14:22:14.909921
1663  2023-10-19 14:22:14.941792
1664  2023-10-19 14:22:14.989736
1665  2023-10-19 14:22:15.021691
1666  2023-10-19 14:22:15.053566
1667  2023-10-19 14:22:15.085480
1668  2023-10-19 14:22:15.117395
1669  2023-10-19 14:22:15.149344
1670  2023-10-19 14:22:15.181259
1671  2023-10-19 14:22:15.213176
1672  2023-10-19 14:22:15.246055
1673  2023-10-19 14:22:15.277004
1674  2023-10-19 14:22:15.309879
1675  2023-10-19 14:22:15.341795
1676  2023-10-19 14:22:15.389667
1677  2023-10-19 14:22:15.421580
1678  2023-10-19 14:22:15.453496
1679  2023-10-19 14:22:15.485449
1680  2023-10-19 14:22:15.517325
1681  2023-10-19 14:22:15.549281
1682  2023-10-19 14:22:15.581190
1683  2023-10-19 14:22:15.613104
1684  2023-10-19 14:22:15.644985
1685  2023-10-19 14:22:15.677894
1686  2023-10-19 14:22:15.709846
1687  2023-10-19 14:22:15.757725
1688  2023-10-19 14:22:15.789629
1689  2023-10-19 14:22:15.821545
1690  2023-10-19 14:22:15.853461
1691  2023-10-19 14:22:15.885375
1692  2023-10-19 14:22:15.917255
1693  2023-10-19 14:22:15.949205
1694  2023-10-19 14:22:15.981084
1695  2023-10-19 14:22:16.013038
1696  2023-10-19 14:22:16.044914
1697  2023-10-19 14:22:16.077827
1698  2023-10-19 14:22:16.109773
1699  2023-10-19 14:22:16.157613
1700  2023-10-19 14:22:16.189560
1701  2023-10-19 14:22:16.221482
1702  2023-10-19 14:22:16.253357
1703  2023-10-19 14:22:16.285271
1704  2023-10-19 14:22:16.317185
1705  2023-10-19 14:22:16.349141
1706  2023-10-19 14:22:16.381058
1707  2023-10-19 14:22:16.412929
1708  2023-10-19 14:22:16.444844
1709  2023-10-19 14:22:16.477794
1710  2023-10-19 14:22:16.509698
1711  2023-10-19 14:22:16.557568
1712  2023-10-19 14:22:16.589456
1713  2023-10-19 14:22:16.621414
1714  2023-10-19 14:22:16.653341
1715  2023-10-19 14:22:16.685230
1716  2023-10-19 14:22:16.717145
1717  2023-10-19 14:22:16.749065
1718  2023-10-19 14:22:16.780981
1719  2023-10-19 14:22:16.812914
1720  2023-10-19 14:22:16.845816
1721  2023-10-19 14:22:16.877686
1722  2023-10-19 14:22:16.909633
1723  2023-10-19 14:22:16.957473
1724  2023-10-19 14:22:16.989416
1725  2023-10-19 14:22:17.021341
1726  2023-10-19 14:22:17.053257
1727  2023-10-19 14:22:17.085167
1728  2023-10-19 14:22:17.117044
1729  2023-10-19 14:22:17.148995
1730  2023-10-19 14:22:17.180902
1731  2023-10-19 14:22:17.213788
1732  2023-10-19 14:22:17.245702
1733  2023-10-19 14:22:17.277650
1734  2023-10-19 14:22:17.309564
1735  2023-10-19 14:22:17.357403
1736  2023-10-19 14:22:17.389359
1737  2023-10-19 14:22:17.421266
1738  2023-10-19 14:22:17.453189
1739  2023-10-19 14:22:17.485061
1740  2023-10-19 14:22:17.516976
1741  2023-10-19 14:22:17.548919
1742  2023-10-19 14:22:17.580854
1743  2023-10-19 14:22:17.613746
1744  2023-10-19 14:22:17.645659
1745  2023-10-19 14:22:17.677547
1746  2023-10-19 14:22:17.709461
1747  2023-10-19 14:22:17.757370
1748  2023-10-19 14:22:17.789248
1749  2023-10-19 14:22:17.821226
1750  2023-10-19 14:22:17.853114
1751  2023-10-19 14:22:17.885026
1752  2023-10-19 14:22:17.916906
1753  2023-10-19 14:22:17.949820
1754  2023-10-19 14:22:17.981759
1755  2023-10-19 14:22:18.013675
1756  2023-10-19 14:22:18.045563
1757  2023-10-19 14:22:18.077477
1758  2023-10-19 14:22:18.109420
1759  2023-10-19 14:22:18.157264
1760  2023-10-19 14:22:18.189210
1761  2023-10-19 14:22:18.221150
1762  2023-10-19 14:22:18.253007
1763  2023-10-19 14:22:18.284979
1764  2023-10-19 14:22:18.317843
1765  2023-10-19 14:22:18.349750
1766  2023-10-19 14:22:18.381689
1767  2023-10-19 14:22:18.413629
1768  2023-10-19 14:22:18.445539
1769  2023-10-19 14:22:18.477444
1770  2023-10-19 14:22:18.509323
1771  2023-10-19 14:22:18.557222
1772  2023-10-19 14:22:18.589110
1773  2023-10-19 14:22:18.621058
1774  2023-10-19 14:22:18.652969
1775  2023-10-19 14:22:18.684911
1776  2023-10-19 14:22:18.717764
1777  2023-10-19 14:22:18.749680
1778  2023-10-19 14:22:18.781619
1779  2023-10-19 14:22:18.813545
1780  2023-10-19 14:22:18.845423
1781  2023-10-19 14:22:18.877337
1782  2023-10-19 14:22:18.909252
1783  2023-10-19 14:22:18.957125
1784  2023-10-19 14:22:18.989075
1785  2023-10-19 14:22:19.020979
1786  2023-10-19 14:22:19.052867
1787  2023-10-19 14:22:19.085808
1788  2023-10-19 14:22:19.117695
1789  2023-10-19 14:22:19.149640
1790  2023-10-19 14:22:19.181550
1791  2023-10-19 14:22:19.213464
1792  2023-10-19 14:22:19.245382
1793  2023-10-19 14:22:19.277266
1794  2023-10-19 14:22:19.309222
1795  2023-10-19 14:22:19.357054
1796  2023-10-19 14:22:19.389001
1797  2023-10-19 14:22:19.420917
1798  2023-10-19 14:22:19.453815
1799  2023-10-19 14:22:19.485737
1800  2023-10-19 14:22:19.517650
1801  2023-10-19 14:22:19.549543
1802  2023-10-19 14:22:19.581481
1803  2023-10-19 14:22:19.613402
1804  2023-10-19 14:22:19.645310
1805  2023-10-19 14:22:19.677246
1806  2023-10-19 14:22:19.725107
1807  2023-10-19 14:22:19.756983
1808  2023-10-19 14:22:19.788898
1809  2023-10-19 14:22:19.820812
1810  2023-10-19 14:22:19.853751
1811  2023-10-19 14:22:19.885679
1812  2023-10-19 14:22:19.917582
1813  2023-10-19 14:22:19.949468
1814  2023-10-19 14:22:19.981419
1815  2023-10-19 14:22:20.013354
1816  2023-10-19 14:22:20.045260
1817  2023-10-19 14:22:20.077154
1818  2023-10-19 14:22:20.125034
1819  2023-10-19 14:22:20.157911
1820  2023-10-19 14:22:20.189829
1821  2023-10-19 14:22:20.221783
1822  2023-10-19 14:22:20.253682
1823  2023-10-19 14:22:20.285569
1824  2023-10-19 14:22:20.317484
1825  2023-10-19 14:22:20.349399
1826  2023-10-19 14:22:20.381352
1827  2023-10-19 14:22:20.413261
1828  2023-10-19 14:22:20.445172
1829  2023-10-19 14:22:20.477099
1830  2023-10-19 14:22:20.524984
1831  2023-10-19 14:22:20.556874
1832  2023-10-19 14:22:20.589784
1833  2023-10-19 14:22:20.621670
1834  2023-10-19 14:22:20.653590
1835  2023-10-19 14:22:20.685527
1836  2023-10-19 14:22:20.717414
1837  2023-10-19 14:22:20.749357
1838  2023-10-19 14:22:20.781243
1839  2023-10-19 14:22:20.813186
1840  2023-10-19 14:22:20.845114
1841  2023-10-19 14:22:20.877018
1842  2023-10-19 14:22:20.924897
1843  2023-10-19 14:22:20.956811
1844  2023-10-19 14:22:20.989686
1845  2023-10-19 14:22:21.021601
1846  2023-10-19 14:22:21.053542
1847  2023-10-19 14:22:21.085461
1848  2023-10-19 14:22:21.117373
1849  2023-10-19 14:22:21.149259
1850  2023-10-19 14:22:21.181209
1851  2023-10-19 14:22:21.213120
1852  2023-10-19 14:22:21.245039
1853  2023-10-19 14:22:21.276947
1854  2023-10-19 14:22:21.325787
1855  2023-10-19 14:22:21.357738
1856  2023-10-19 14:22:21.389655
1857  2023-10-19 14:22:21.421530
1858  2023-10-19 14:22:21.453448
1859  2023-10-19 14:22:21.485388
1860  2023-10-19 14:22:21.517332
1861  2023-10-19 14:22:21.549189
1862  2023-10-19 14:22:21.581104
1863  2023-10-19 14:22:21.613019
1864  2023-10-19 14:22:21.644984
1865  2023-10-19 14:22:21.677846
1866  2023-10-19 14:22:21.725748
1867  2023-10-19 14:22:21.757661
1868  2023-10-19 14:22:21.789546
1869  2023-10-19 14:22:21.821461
1870  2023-10-19 14:22:21.853376
1871  2023-10-19 14:22:21.885333
1872  2023-10-19 14:22:21.917245
1873  2023-10-19 14:22:21.949119
1874  2023-10-19 14:22:21.981034
1875  2023-10-19 14:22:22.012983
1876  2023-10-19 14:22:22.045861
1877  2023-10-19 14:22:22.077775
1878  2023-10-19 14:22:22.125648
1879  2023-10-19 14:22:22.157569
1880  2023-10-19 14:22:22.189477
1881  2023-10-19 14:22:22.222389
1882  2023-10-19 14:22:22.253307
1883  2023-10-19 14:22:22.285221
1884  2023-10-19 14:22:22.317163
1885  2023-10-19 14:22:22.349050
1886  2023-10-19 14:22:22.381000
1887  2023-10-19 14:22:22.413877
1888  2023-10-19 14:22:22.445791
1889  2023-10-19 14:22:22.477706
1890  2023-10-19 14:22:22.525577
1891  2023-10-19 14:22:22.557531
1892  2023-10-19 14:22:22.589433
1893  2023-10-19 14:22:22.621321
1894  2023-10-19 14:22:22.653236
1895  2023-10-19 14:22:22.685193
1896  2023-10-19 14:22:22.717097
1897  2023-10-19 14:22:22.748980
1898  2023-10-19 14:22:22.780894
1899  2023-10-19 14:22:22.813807
1900  2023-10-19 14:22:22.845721
1901  2023-10-19 14:22:22.877636
1902  2023-10-19 14:22:22.925508
1903  2023-10-19 14:22:22.957422
1904  2023-10-19 14:22:22.989337
1905  2023-10-19 14:22:23.021251
1906  2023-10-19 14:22:23.053166
1907  2023-10-19 14:22:23.085081
1908  2023-10-19 14:22:23.116996
1909  2023-10-19 14:22:23.148910
1910  2023-10-19 14:22:23.181822
1911  2023-10-19 14:22:23.213737
1912  2023-10-19 14:22:23.245651
1913  2023-10-19 14:22:23.293523
1914  2023-10-19 14:22:23.325438
1915  2023-10-19 14:22:23.357353
1916  2023-10-19 14:22:23.389267
1917  2023-10-19 14:22:23.421182
1918  2023-10-19 14:22:23.453096
1919  2023-10-19 14:22:23.485011
1920  2023-10-19 14:22:23.517923
1921  2023-10-19 14:22:23.549838
1922  2023-10-19 14:22:23.581753
1923  2023-10-19 14:22:23.613716
1924  2023-10-19 14:22:23.645582
1925  2023-10-19 14:22:23.693453
1926  2023-10-19 14:22:23.725394
1927  2023-10-19 14:22:23.757314
1928  2023-10-19 14:22:23.789197
1929  2023-10-19 14:22:23.821112
1930  2023-10-19 14:22:23.853054
1931  2023-10-19 14:22:23.884971
1932  2023-10-19 14:22:23.917853
1933  2023-10-19 14:22:23.949768
1934  2023-10-19 14:22:23.981682
1935  2023-10-19 14:22:24.013597
1936  2023-10-19 14:22:24.045512
1937  2023-10-19 14:22:24.093384
1938  2023-10-19 14:22:24.125298
1939  2023-10-19 14:22:24.157213
1940  2023-10-19 14:22:24.189128
1941  2023-10-19 14:22:24.221042
1942  2023-10-19 14:22:24.252957
1943  2023-10-19 14:22:24.284871
1944  2023-10-19 14:22:24.317783
1945  2023-10-19 14:22:24.349698
1946  2023-10-19 14:22:24.381613
1947  2023-10-19 14:22:24.413527
1948  2023-10-19 14:22:24.445442
1949  2023-10-19 14:22:24.493314
1950  2023-10-19 14:22:24.525228
1951  2023-10-19 14:22:24.557143
1952  2023-10-19 14:22:24.589059
1953  2023-10-19 14:22:24.620973
1954  2023-10-19 14:22:24.652887
1955  2023-10-19 14:22:24.685799
1956  2023-10-19 14:22:24.717714
1957  2023-10-19 14:22:24.749628
1958  2023-10-19 14:22:24.781543
1959  2023-10-19 14:22:24.813457
1960  2023-10-19 14:22:24.845417
1961  2023-10-19 14:22:24.893245
1962  2023-10-19 14:22:24.925200
1963  2023-10-19 14:22:24.957073
1964  2023-10-19 14:22:24.988988
1965  2023-10-19 14:22:25.020903
1966  2023-10-19 14:22:25.052853
1967  2023-10-19 14:22:25.085784
1968  2023-10-19 14:22:25.117694
1969  2023-10-19 14:22:25.149600
1970  2023-10-19 14:22:25.181478
1971  2023-10-19 14:22:25.213388
1972  2023-10-19 14:22:25.245368
1973  2023-10-19 14:22:25.293228
1974  2023-10-19 14:22:25.325124
1975  2023-10-19 14:22:25.357051
1976  2023-10-19 14:22:25.388954
1977  2023-10-19 14:22:25.420871
1978  2023-10-19 14:22:25.453798
1979  2023-10-19 14:22:25.485700
1980  2023-10-19 14:22:25.517611
1981  2023-10-19 14:22:25.549516
1982  2023-10-19 14:22:25.581436
1983  2023-10-19 14:22:25.613359
1984  2023-10-19 14:22:25.645261
1985  2023-10-19 14:22:25.693146
1986  2023-10-19 14:22:25.725064
1987  2023-10-19 14:22:25.756939
1988  2023-10-19 14:22:25.788886
1989  2023-10-19 14:22:25.821763
1990  2023-10-19 14:22:25.853710
1991  2023-10-19 14:22:25.885628
1992  2023-10-19 14:22:25.917539
1993  2023-10-19 14:22:25.949464
1994  2023-10-19 14:22:25.981377
1995  2023-10-19 14:22:26.013285
1996  2023-10-19 14:22:26.045205
1997  2023-10-19 14:22:26.093098
1998  2023-10-19 14:22:26.124997
1999  2023-10-19 14:22:26.156901
2000  2023-10-19 14:22:26.188818
2001  2023-10-19 14:22:26.221723
2002  2023-10-19 14:22:26.253605
2003  2023-10-19 14:22:26.285553
2004  2023-10-19 14:22:26.317477
2005  2023-10-19 14:22:26.349383
2006  2023-10-19 14:22:26.381314
2007  2023-10-19 14:22:26.413228
2008  2023-10-19 14:22:26.445133
2009  2023-10-19 14:22:26.493006
2010  2023-10-19 14:22:26.524939
2011  2023-10-19 14:22:26.557828
2012  2023-10-19 14:22:26.589749
2013  2023-10-19 14:22:26.621661
2014  2023-10-19 14:22:26.653572
2015  2023-10-19 14:22:26.685503
2016  2023-10-19 14:22:26.717406
2017  2023-10-19 14:22:26.749328
2018  2023-10-19 14:22:26.781194
2019  2023-10-19 14:22:26.813162
2020  2023-10-19 14:22:26.846023
2021  2023-10-19 14:22:26.892953
2022  2023-10-19 14:22:26.925810
2023  2023-10-19 14:22:26.957768
2024  2023-10-19 14:22:26.989677
2025  2023-10-19 14:22:27.021587
2026  2023-10-19 14:22:27.053501
2027  2023-10-19 14:22:27.085414
2028  2023-10-19 14:22:27.117339
2029  2023-10-19 14:22:27.149246
2030  2023-10-19 14:22:27.181130
2031  2023-10-19 14:22:27.214079
2032  2023-10-19 14:22:27.260972
2033  2023-10-19 14:22:27.293879
2034  2023-10-19 14:22:27.325738
2035  2023-10-19 14:22:27.357689
2036  2023-10-19 14:22:27.389601
2037  2023-10-19 14:22:27.421517
2038  2023-10-19 14:22:27.453430
2039  2023-10-19 14:22:27.485363
2040  2023-10-19 14:22:27.517265
2041  2023-10-19 14:22:27.549193
2042  2023-10-19 14:22:27.581110
2043  2023-10-19 14:22:27.613994
2044  2023-10-19 14:22:27.660881
2045  2023-10-19 14:22:27.693794
2046  2023-10-19 14:22:27.725704
2047  2023-10-19 14:22:27.757618
2048  2023-10-19 14:22:27.789540
2049  2023-10-19 14:22:27.821456
2050  2023-10-19 14:22:27.853384
2051  2023-10-19 14:22:27.885277
2052  2023-10-19 14:22:27.917193
2053  2023-10-19 14:22:27.949113
2054  2023-10-19 14:22:27.981034
2055  2023-10-19 14:22:28.012941
2056  2023-10-19 14:22:28.061822
2057  2023-10-19 14:22:28.093726
2058  2023-10-19 14:22:28.125631
2059  2023-10-19 14:22:28.157549
2060  2023-10-19 14:22:28.189463
2061  2023-10-19 14:22:28.221375
2062  2023-10-19 14:22:28.253302
2063  2023-10-19 14:22:28.285198
2064  2023-10-19 14:22:28.317123
2065  2023-10-19 14:22:28.349045
2066  2023-10-19 14:22:28.380962
2067  2023-10-19 14:22:28.413828
2068  2023-10-19 14:22:28.461702
2069  2023-10-19 14:22:28.493645
2070  2023-10-19 14:22:28.525564
2071  2023-10-19 14:22:28.557480
2072  2023-10-19 14:22:28.589393
2073  2023-10-19 14:22:28.621325
2074  2023-10-19 14:22:28.653225
2075  2023-10-19 14:22:28.685170
2076  2023-10-19 14:22:28.718014
2077  2023-10-19 14:22:28.749988
2078  2023-10-19 14:22:28.781892
2079  2023-10-19 14:22:28.813804
2080  2023-10-19 14:22:28.861672
2081  2023-10-19 14:22:28.893581
2082  2023-10-19 14:22:28.925459
2083  2023-10-19 14:22:28.957373
2084  2023-10-19 14:22:28.989290
2085  2023-10-19 14:22:29.021249
2086  2023-10-19 14:22:29.053153
2087  2023-10-19 14:22:29.085070
2088  2023-10-19 14:22:29.117979
2089  2023-10-19 14:22:29.149889
2090  2023-10-19 14:22:29.181808
2091  2023-10-19 14:22:29.213715
2092  2023-10-19 14:22:29.261587
2093  2023-10-19 14:22:29.293508
2094  2023-10-19 14:22:29.325419
2095  2023-10-19 14:22:29.357362
2096  2023-10-19 14:22:29.389269
2097  2023-10-19 14:22:29.421174
2098  2023-10-19 14:22:29.453100
2099  2023-10-19 14:22:29.484962
2100  2023-10-19 14:22:29.516910
2101  2023-10-19 14:22:29.549789
2102  2023-10-19 14:22:29.581765
2103  2023-10-19 14:22:29.613659
2104  2023-10-19 14:22:29.661531
2105  2023-10-19 14:22:29.693463
2106  2023-10-19 14:22:29.725361
2107  2023-10-19 14:22:29.757280
2108  2023-10-19 14:22:29.789185
2109  2023-10-19 14:22:29.821117
2110  2023-10-19 14:22:29.853019
2111  2023-10-19 14:22:29.885925
2112  2023-10-19 14:22:29.917806
2113  2023-10-19 14:22:29.949761
2114  2023-10-19 14:22:29.981670
2115  2023-10-19 14:22:30.013548
2116  2023-10-19 14:22:30.061470
2117  2023-10-19 14:22:30.093370
2118  2023-10-19 14:22:30.125250
2119  2023-10-19 14:22:30.157193
2120  2023-10-19 14:22:30.189117
2121  2023-10-19 14:22:30.220996
2122  2023-10-19 14:22:30.252940
2123  2023-10-19 14:22:30.285854
2124  2023-10-19 14:22:30.317777
2125  2023-10-19 14:22:30.349683
2126  2023-10-19 14:22:30.381597
2127  2023-10-19 14:22:30.413514
2128  2023-10-19 14:22:30.461378
2129  2023-10-19 14:22:30.493319
2130  2023-10-19 14:22:30.525211
2131  2023-10-19 14:22:30.557134
2132  2023-10-19 14:22:30.590008
2133  2023-10-19 14:22:30.621969
2134  2023-10-19 14:22:30.653885
2135  2023-10-19 14:22:30.685777
2136  2023-10-19 14:22:30.717707
2137  2023-10-19 14:22:30.749624
2138  2023-10-19 14:22:30.781526
2139  2023-10-19 14:22:30.829409
2140  2023-10-19 14:22:30.861328
2141  2023-10-19 14:22:30.893254
2142  2023-10-19 14:22:30.925156
2143  2023-10-19 14:22:30.957063
2144  2023-10-19 14:22:30.989970
2145  2023-10-19 14:22:31.020890
2146  2023-10-19 14:22:31.053804
2147  2023-10-19 14:22:31.085680
2148  2023-10-19 14:22:31.117596
2149  2023-10-19 14:22:31.149545
2150  2023-10-19 14:22:31.181426
2151  2023-10-19 14:22:31.229337
2152  2023-10-19 14:22:31.261240
2153  2023-10-19 14:22:31.293159
2154  2023-10-19 14:22:31.325075
2155  2023-10-19 14:22:31.357992
2156  2023-10-19 14:22:31.389903
2157  2023-10-19 14:22:31.421815
2158  2023-10-19 14:22:31.453745
2159  2023-10-19 14:22:31.485617
2160  2023-10-19 14:22:31.517561
2161  2023-10-19 14:22:31.549441
2162  2023-10-19 14:22:31.581413
2163  2023-10-19 14:22:31.629256
2164  2023-10-19 14:22:31.661141
2165  2023-10-19 14:22:31.693086
2166  2023-10-19 14:22:31.725017
2167  2023-10-19 14:22:31.756927
2168  2023-10-19 14:22:31.788841
2169  2023-10-19 14:22:31.821745
2170  2023-10-19 14:22:31.853653
2171  2023-10-19 14:22:31.885585
2172  2023-10-19 14:22:31.917492
2173  2023-10-19 14:22:31.949404
2174  2023-10-19 14:22:31.981330
2175  2023-10-19 14:22:32.029190
2176  2023-10-19 14:22:32.061123
2177  2023-10-19 14:22:32.093022
2178  2023-10-19 14:22:32.124928
2179  2023-10-19 14:22:32.157852
2180  2023-10-19 14:22:32.189761
2181  2023-10-19 14:22:32.221642
2182  2023-10-19 14:22:32.254609
2183  2023-10-19 14:22:32.285506
2184  2023-10-19 14:22:32.317438
2185  2023-10-19 14:22:32.350328
2186  2023-10-19 14:22:32.381264
2187  2023-10-19 14:22:32.429141
2188  2023-10-19 14:22:32.461044
2189  2023-10-19 14:22:32.493914
2190  2023-10-19 14:22:32.525859
2191  2023-10-19 14:22:32.557744
2192  2023-10-19 14:22:32.590692
2193  2023-10-19 14:22:32.621610
2194  2023-10-19 14:22:32.654673
2195  2023-10-19 14:22:32.686568
2196  2023-10-19 14:22:32.717458
2197  2023-10-19 14:22:32.750403
2198  2023-10-19 14:22:32.782285
2199  2023-10-19 14:22:32.830191
2200  2023-10-19 14:22:32.862104
2201  2023-10-19 14:22:32.893987
2202  2023-10-19 14:22:32.925923
2203  2023-10-19 14:22:32.957817
2204  2023-10-19 14:22:32.989731
2205  2023-10-19 14:22:33.022679
2206  2023-10-19 14:22:33.054592
2207  2023-10-19 14:22:33.086502
2208  2023-10-19 14:22:33.118427
2209  2023-10-19 14:22:33.150338
2210  2023-10-19 14:22:33.182250
2211  2023-10-19 14:22:33.230122
2212  2023-10-19 14:22:33.262043
2213  2023-10-19 14:22:33.293956
2214  2023-10-19 14:22:33.325831
2215  2023-10-19 14:22:33.357792
2216  2023-10-19 14:22:33.389660
2217  2023-10-19 14:22:33.421576
2218  2023-10-19 14:22:33.453516
2219  2023-10-19 14:22:33.485434
2220  2023-10-19 14:22:33.517319
2221  2023-10-19 14:22:33.550275
2222  2023-10-19 14:22:33.582172
2223  2023-10-19 14:22:33.630055
2224  2023-10-19 14:22:33.661933
2225  2023-10-19 14:22:33.693876
2226  2023-10-19 14:22:33.725795
2227  2023-10-19 14:22:33.757717
2228  2023-10-19 14:22:33.789630
2229  2023-10-19 14:22:33.821532
2230  2023-10-19 14:22:33.853419
2231  2023-10-19 14:22:33.885371
2232  2023-10-19 14:22:33.917282
2233  2023-10-19 14:22:33.949194
2234  2023-10-19 14:22:33.981113
2235  2023-10-19 14:22:34.028990
2236  2023-10-19 14:22:34.061892
2237  2023-10-19 14:22:34.092813
2238  2023-10-19 14:22:34.125737
2239  2023-10-19 14:22:34.157641
2240  2023-10-19 14:22:34.189557
2241  2023-10-19 14:22:34.221478
2242  2023-10-19 14:22:34.253351
2243  2023-10-19 14:22:34.285265
2244  2023-10-19 14:22:34.317207
2245  2023-10-19 14:22:34.349127
2246  2023-10-19 14:22:34.381036
2247  2023-10-19 14:22:34.429880
2248  2023-10-19 14:22:34.461836
2249  2023-10-19 14:22:34.493715
2250  2023-10-19 14:22:34.525649
2251  2023-10-19 14:22:34.557574
2252  2023-10-19 14:22:34.589479
2253  2023-10-19 14:22:34.621404
2254  2023-10-19 14:22:34.653330
2255  2023-10-19 14:22:34.685244
2256  2023-10-19 14:22:34.718141
2257  2023-10-19 14:22:34.749071
2258  2023-10-19 14:22:34.796932
2259  2023-10-19 14:22:34.828847
2260  2023-10-19 14:22:34.861723
2261  2023-10-19 14:22:34.893638
2262  2023-10-19 14:22:34.925552
2263  2023-10-19 14:22:34.958464
2264  2023-10-19 14:22:34.989412
2265  2023-10-19 14:22:35.021338
2266  2023-10-19 14:22:35.053255
2267  2023-10-19 14:22:35.086158
2268  2023-10-19 14:22:35.118073
2269  2023-10-19 14:22:35.149983
2270  2023-10-19 14:22:35.197824
2271  2023-10-19 14:22:35.229740
2272  2023-10-19 14:22:35.261654
2273  2023-10-19 14:22:35.293603
2274  2023-10-19 14:22:35.325484
2275  2023-10-19 14:22:35.358448
2276  2023-10-19 14:22:35.390345
2277  2023-10-19 14:22:35.422261
2278  2023-10-19 14:22:35.453141
2279  2023-10-19 14:22:35.485055
2280  2023-10-19 14:22:35.518011
2281  2023-10-19 14:22:35.549883
2282  2023-10-19 14:22:35.598806
2283  2023-10-19 14:22:35.629707
2284  2023-10-19 14:22:35.661611
2285  2023-10-19 14:22:35.693541
2286  2023-10-19 14:22:35.725413
2287  2023-10-19 14:22:35.757360
2288  2023-10-19 14:22:35.789275
2289  2023-10-19 14:22:35.822190
2290  2023-10-19 14:22:35.853109
2291  2023-10-19 14:22:35.884986
2292  2023-10-19 14:22:35.917930
2293  2023-10-19 14:22:35.949813
2294  2023-10-19 14:22:35.997735
2295  2023-10-19 14:22:36.029613
2296  2023-10-19 14:22:36.061547
2297  2023-10-19 14:22:36.093429
2298  2023-10-19 14:22:36.125344
2299  2023-10-19 14:22:36.157259
2300  2023-10-19 14:22:36.189207
2301  2023-10-19 14:22:36.222115
2302  2023-10-19 14:22:36.253004
2303  2023-10-19 14:22:36.284948
2304  2023-10-19 14:22:36.317831
2305  2023-10-19 14:22:36.349772
2306  2023-10-19 14:22:36.397651
2307  2023-10-19 14:22:36.429556
2308  2023-10-19 14:22:36.461472
2309  2023-10-19 14:22:36.493359
2310  2023-10-19 14:22:36.525274
2311  2023-10-19 14:22:36.557187
2312  2023-10-19 14:22:36.589132
2313  2023-10-19 14:22:36.621051
2314  2023-10-19 14:22:36.652963
2315  2023-10-19 14:22:36.685844
2316  2023-10-19 14:22:36.717786
2317  2023-10-19 14:22:36.749703
2318  2023-10-19 14:22:36.797579
2319  2023-10-19 14:22:36.829499
2320  2023-10-19 14:22:36.861413
2321  2023-10-19 14:22:36.893293
2322  2023-10-19 14:22:36.925244
2323  2023-10-19 14:22:36.957147
2324  2023-10-19 14:22:36.989072
2325  2023-10-19 14:22:37.020991
2326  2023-10-19 14:22:37.053861
2327  2023-10-19 14:22:37.085776
2328  2023-10-19 14:22:37.117692
2329  2023-10-19 14:22:37.149604
2330  2023-10-19 14:22:37.197477
2331  2023-10-19 14:22:37.229389
2332  2023-10-19 14:22:37.261335
2333  2023-10-19 14:22:37.293245
2334  2023-10-19 14:22:37.325134
2335  2023-10-19 14:22:37.357090
2336  2023-10-19 14:22:37.389006
2337  2023-10-19 14:22:37.420914
2338  2023-10-19 14:22:37.453790
2339  2023-10-19 14:22:37.485705
2340  2023-10-19 14:22:37.517667
2341  2023-10-19 14:22:37.549574
2342  2023-10-19 14:22:37.597414
2343  2023-10-19 14:22:37.629334
2344  2023-10-19 14:22:37.661268
2345  2023-10-19 14:22:37.693150
2346  2023-10-19 14:22:37.725064
2347  2023-10-19 14:22:37.756979
2348  2023-10-19 14:22:37.788927
2349  2023-10-19 14:22:37.820816
2350  2023-10-19 14:22:37.853720
2351  2023-10-19 14:22:37.885635
2352  2023-10-19 14:22:37.917583
2353  2023-10-19 14:22:37.949490
2354  2023-10-19 14:22:37.997342
2355  2023-10-19 14:22:38.029284
2356  2023-10-19 14:22:38.061206
2357  2023-10-19 14:22:38.093081
2358  2023-10-19 14:22:38.125994
2359  2023-10-19 14:22:38.157945
2360  2023-10-19 14:22:38.189848
2361  2023-10-19 14:22:38.221736
2362  2023-10-19 14:22:38.253679
2363  2023-10-19 14:22:38.285566
2364  2023-10-19 14:22:38.317480
2365  2023-10-19 14:22:38.365353
2366  2023-10-19 14:22:38.397303
2367  2023-10-19 14:22:38.429209
2368  2023-10-19 14:22:38.462131
2369  2023-10-19 14:22:38.493040
2370  2023-10-19 14:22:38.524925
2371  2023-10-19 14:22:38.557849
2372  2023-10-19 14:22:38.589752
2373  2023-10-19 14:22:38.621712
2374  2023-10-19 14:22:38.653610
2375  2023-10-19 14:22:38.685494
2376  2023-10-19 14:22:38.717447
2377  2023-10-19 14:22:38.765322
2378  2023-10-19 14:22:38.797230
2379  2023-10-19 14:22:38.829156
2380  2023-10-19 14:22:38.861068
2381  2023-10-19 14:22:38.892978
2382  2023-10-19 14:22:38.924902
2383  2023-10-19 14:22:38.957795
2384  2023-10-19 14:22:38.989730
2385  2023-10-19 14:22:39.021623
2386  2023-10-19 14:22:39.053538
2387  2023-10-19 14:22:39.085458
2388  2023-10-19 14:22:39.117366
2389  2023-10-19 14:22:39.165212
2390  2023-10-19 14:22:39.197161
2391  2023-10-19 14:22:39.229087
2392  2023-10-19 14:22:39.260988
2393  2023-10-19 14:22:39.292921
2394  2023-10-19 14:22:39.325783
2395  2023-10-19 14:22:39.357724
2396  2023-10-19 14:22:39.389640
2397  2023-10-19 14:22:39.421557
2398  2023-10-19 14:22:39.453473
2399  2023-10-19 14:22:39.485356
2400  2023-10-19 14:22:39.517313
2401  2023-10-19 14:22:39.565173
2402  2023-10-19 14:22:39.597087
2403  2023-10-19 14:22:39.628999
2404  2023-10-19 14:22:39.660913
2405  2023-10-19 14:22:39.692827
2406  2023-10-19 14:22:39.725748
2407  2023-10-19 14:22:39.757627
2408  2023-10-19 14:22:39.789542
2409  2023-10-19 14:22:39.821482
2410  2023-10-19 14:22:39.853403
2411  2023-10-19 14:22:39.885286
2412  2023-10-19 14:22:39.917201
2413  2023-10-19 14:22:39.965073
2414  2023-10-19 14:22:39.996987
2415  2023-10-19 14:22:40.028930
2416  2023-10-19 14:22:40.060869
2417  2023-10-19 14:22:40.093764
2418  2023-10-19 14:22:40.125643
2419  2023-10-19 14:22:40.157560
2420  2023-10-19 14:22:40.189506
2421  2023-10-19 14:22:40.221421
2422  2023-10-19 14:22:40.253339
2423  2023-10-19 14:22:40.285248
2424  2023-10-19 14:22:40.317131
2425  2023-10-19 14:22:40.365037
2426  2023-10-19 14:22:40.396918
2427  2023-10-19 14:22:40.429830
2428  2023-10-19 14:22:40.461744
2429  2023-10-19 14:22:40.493692
2430  2023-10-19 14:22:40.525573
2431  2023-10-19 14:22:40.557488
2432  2023-10-19 14:22:40.589403
2433  2023-10-19 14:22:40.621367
2434  2023-10-19 14:22:40.653276
2435  2023-10-19 14:22:40.685147
2436  2023-10-19 14:22:40.717108
2437  2023-10-19 14:22:40.764938
2438  2023-10-19 14:22:40.796877
2439  2023-10-19 14:22:40.829759
2440  2023-10-19 14:22:40.861674
2441  2023-10-19 14:22:40.893588
2442  2023-10-19 14:22:40.925502
2443  2023-10-19 14:22:40.957417
2444  2023-10-19 14:22:40.989332
2445  2023-10-19 14:22:41.021247
2446  2023-10-19 14:22:41.053161
2447  2023-10-19 14:22:41.085077
2448  2023-10-19 14:22:41.116991
2449  2023-10-19 14:22:41.164891
2450  2023-10-19 14:22:41.197802
2451  2023-10-19 14:22:41.229724
2452  2023-10-19 14:22:41.261655
2453  2023-10-19 14:22:41.293575
2454  2023-10-19 14:22:41.325434
2455  2023-10-19 14:22:41.357381
2456  2023-10-19 14:22:41.389312
2457  2023-10-19 14:22:41.422175
2458  2023-10-19 14:22:41.453125
2459  2023-10-19 14:22:41.485038
2460  2023-10-19 14:22:41.516922
2461  2023-10-19 14:22:41.564826
2462  2023-10-19 14:22:41.597731
2463  2023-10-19 14:22:41.629647
2464  2023-10-19 14:22:41.661567
2465  2023-10-19 14:22:41.693479
2466  2023-10-19 14:22:41.725398
2467  2023-10-19 14:22:41.757278
2468  2023-10-19 14:22:41.789192
2469  2023-10-19 14:22:41.821108
2470  2023-10-19 14:22:41.853063
2471  2023-10-19 14:22:41.884975
2472  2023-10-19 14:22:41.916851
2473  2023-10-19 14:22:41.965721
2474  2023-10-19 14:22:41.997636
2475  2023-10-19 14:22:42.029594
2476  2023-10-19 14:22:42.061500
2477  2023-10-19 14:22:42.093412
2478  2023-10-19 14:22:42.125327
2479  2023-10-19 14:22:42.157239
2480  2023-10-19 14:22:42.189151
2481  2023-10-19 14:22:42.221038
2482  2023-10-19 14:22:42.252953
2483  2023-10-19 14:22:42.284906
2484  2023-10-19 14:22:42.333764
2485  2023-10-19 14:22:42.365681
2486  2023-10-19 14:22:42.397592
2487  2023-10-19 14:22:42.429521
2488  2023-10-19 14:22:42.461435
2489  2023-10-19 14:22:42.493352
2490  2023-10-19 14:22:42.525254
2491  2023-10-19 14:22:42.557166
2492  2023-10-19 14:22:42.589083
2493  2023-10-19 14:22:42.621000
2494  2023-10-19 14:22:42.652910
2495  2023-10-19 14:22:42.685828
2496  2023-10-19 14:22:42.733717
2497  2023-10-19 14:22:42.765638
2498  2023-10-19 14:22:42.797522
2499  2023-10-19 14:22:42.829439
2500  2023-10-19 14:22:42.861354
2501  2023-10-19 14:22:42.893273
2502  2023-10-19 14:22:42.925187
2503  2023-10-19 14:22:42.957109
2504  2023-10-19 14:22:42.988984
2505  2023-10-19 14:22:43.020952
2506  2023-10-19 14:22:43.052852
2507  2023-10-19 14:22:43.085758
2508  2023-10-19 14:22:43.133632
2509  2023-10-19 14:22:43.165546
2510  2023-10-19 14:22:43.197452
2511  2023-10-19 14:22:43.229379
2512  2023-10-19 14:22:43.261261
2513  2023-10-19 14:22:43.293217
2514  2023-10-19 14:22:43.325115
2515  2023-10-19 14:22:43.357027
2516  2023-10-19 14:22:43.388918
2517  2023-10-19 14:22:43.421826
2518  2023-10-19 14:22:43.453745
2519  2023-10-19 14:22:43.485655
2520  2023-10-19 14:22:43.533569
2521  2023-10-19 14:22:43.565447
2522  2023-10-19 14:22:43.597400
2523  2023-10-19 14:22:43.629303
2524  2023-10-19 14:22:43.661231
2525  2023-10-19 14:22:43.693104
2526  2023-10-19 14:22:43.725043
2527  2023-10-19 14:22:43.756959
2528  2023-10-19 14:22:43.789841
2529  2023-10-19 14:22:43.821785
2530  2023-10-19 14:22:43.853708
2531  2023-10-19 14:22:43.885622
2532  2023-10-19 14:22:43.933483
2533  2023-10-19 14:22:43.965429
2534  2023-10-19 14:22:43.997323
2535  2023-10-19 14:22:44.029250
2536  2023-10-19 14:22:44.061115
2537  2023-10-19 14:22:44.093065
2538  2023-10-19 14:22:44.124996
2539  2023-10-19 14:22:44.156891
2540  2023-10-19 14:22:44.189771
2541  2023-10-19 14:22:44.221688
2542  2023-10-19 14:22:44.253629
2543  2023-10-19 14:22:44.285563
2544  2023-10-19 14:22:44.333418
2545  2023-10-19 14:22:44.365348
2546  2023-10-19 14:22:44.397245
2547  2023-10-19 14:22:44.429162
2548  2023-10-19 14:22:44.461045
2549  2023-10-19 14:22:44.492998
2550  2023-10-19 14:22:44.524904
2551  2023-10-19 14:22:44.557787
2552  2023-10-19 14:22:44.589701
2553  2023-10-19 14:22:44.621616
2554  2023-10-19 14:22:44.653559
2555  2023-10-19 14:22:44.685474
2556  2023-10-19 14:22:44.733347
2557  2023-10-19 14:22:44.765261
2558  2023-10-19 14:22:44.797182
2559  2023-10-19 14:22:44.829061
2560  2023-10-19 14:22:44.861973
2561  2023-10-19 14:22:44.892927
2562  2023-10-19 14:22:44.925803
2563  2023-10-19 14:22:44.957718
2564  2023-10-19 14:22:44.989631
2565  2023-10-19 14:22:45.021546
2566  2023-10-19 14:22:45.053492
2567  2023-10-19 14:22:45.085407
2568  2023-10-19 14:22:45.133275
2569  2023-10-19 14:22:45.165163
2570  2023-10-19 14:22:45.197130
2571  2023-10-19 14:22:45.228991
2572  2023-10-19 14:22:45.260906
2573  2023-10-19 14:22:45.293818
2574  2023-10-19 14:22:45.325762
2575  2023-10-19 14:22:45.357648
2576  2023-10-19 14:22:45.389563
2577  2023-10-19 14:22:45.421476
2578  2023-10-19 14:22:45.453425
2579  2023-10-19 14:22:45.485334
2580  2023-10-19 14:22:45.533213
2581  2023-10-19 14:22:45.565127
2582  2023-10-19 14:22:45.597042
2583  2023-10-19 14:22:45.628921
2584  2023-10-19 14:22:45.660836
2585  2023-10-19 14:22:45.693748
2586  2023-10-19 14:22:45.725664
2587  2023-10-19 14:22:45.757619
2588  2023-10-19 14:22:45.789546
2589  2023-10-19 14:22:45.821406
2590  2023-10-19 14:22:45.853373
2591  2023-10-19 14:22:45.901193
2592  2023-10-19 14:22:45.933135
2593  2023-10-19 14:22:45.965068
2594  2023-10-19 14:22:45.997941
2595  2023-10-19 14:22:46.028852
2596  2023-10-19 14:22:46.061763
2597  2023-10-19 14:22:46.093717
2598  2023-10-19 14:22:46.125623
2599  2023-10-19 14:22:46.157543
2600  2023-10-19 14:22:46.189422
2601  2023-10-19 14:22:46.221337
2602  2023-10-19 14:22:46.253253
2603  2023-10-19 14:22:46.301124
2604  2023-10-19 14:22:46.333039
2605  2023-10-19 14:22:46.365987
2606  2023-10-19 14:22:46.396868
2607  2023-10-19 14:22:46.429780
2608  2023-10-19 14:22:46.461694
2609  2023-10-19 14:22:46.493608
2610  2023-10-19 14:22:46.525523
2611  2023-10-19 14:22:46.557467
2612  2023-10-19 14:22:46.589386
2613  2023-10-19 14:22:46.621267
2614  2023-10-19 14:22:46.653216
2615  2023-10-19 14:22:46.701053
2616  2023-10-19 14:22:46.733965
2617  2023-10-19 14:22:46.765880
2618  2023-10-19 14:22:46.797796
2619  2023-10-19 14:22:46.829709
2620  2023-10-19 14:22:46.861624
2621  2023-10-19 14:22:46.893539
2622  2023-10-19 14:22:46.925480
2623  2023-10-19 14:22:46.957368
2624  2023-10-19 14:22:46.989284
2625  2023-10-19 14:22:47.021197
2626  2023-10-19 14:22:47.053147
2627  2023-10-19 14:22:47.101020
2628  2023-10-19 14:22:47.132899
2629  2023-10-19 14:22:47.164817
2630  2023-10-19 14:22:47.197733
2631  2023-10-19 14:22:47.229703
2632  2023-10-19 14:22:47.261597
2633  2023-10-19 14:22:47.293469
2634  2023-10-19 14:22:47.325384
2635  2023-10-19 14:22:47.357341
2636  2023-10-19 14:22:47.389243
2637  2023-10-19 14:22:47.421157
2638  2023-10-19 14:22:47.453103
2639  2023-10-19 14:22:47.500979
2640  2023-10-19 14:22:47.533861
2641  2023-10-19 14:22:47.565774
2642  2023-10-19 14:22:47.597700
2643  2023-10-19 14:22:47.629605
2644  2023-10-19 14:22:47.661515
2645  2023-10-19 14:22:47.693426
2646  2023-10-19 14:22:47.725373
2647  2023-10-19 14:22:47.757272
2648  2023-10-19 14:22:47.789177
2649  2023-10-19 14:22:47.821093
2650  2023-10-19 14:22:47.852976
2651  2023-10-19 14:22:47.900887
2652  2023-10-19 14:22:47.933828
2653  2023-10-19 14:22:47.965713
2654  2023-10-19 14:22:47.997587
2655  2023-10-19 14:22:48.029536
2656  2023-10-19 14:22:48.061448
2657  2023-10-19 14:22:48.093385
2658  2023-10-19 14:22:48.125258
2659  2023-10-19 14:22:48.157191
2660  2023-10-19 14:22:48.189109
2661  2023-10-19 14:22:48.221986
2662  2023-10-19 14:22:48.252902
2663  2023-10-19 14:22:48.301772
2664  2023-10-19 14:22:48.333686
2665  2023-10-19 14:22:48.365601
2666  2023-10-19 14:22:48.397559
2667  2023-10-19 14:22:48.429467
2668  2023-10-19 14:22:48.461392
2669  2023-10-19 14:22:48.493294
2670  2023-10-19 14:22:48.525222
2671  2023-10-19 14:22:48.557093
2672  2023-10-19 14:22:48.589045
2673  2023-10-19 14:22:48.621956
2674  2023-10-19 14:22:48.652866
2675  2023-10-19 14:22:48.701735
2676  2023-10-19 14:22:48.733651
2677  2023-10-19 14:22:48.765564
2678  2023-10-19 14:22:48.797490
2679  2023-10-19 14:22:48.829395
2680  2023-10-19 14:22:48.861328
2681  2023-10-19 14:22:48.893190
2682  2023-10-19 14:22:48.925142
2683  2023-10-19 14:22:48.957075
2684  2023-10-19 14:22:48.988968
2685  2023-10-19 14:22:49.021884
2686  2023-10-19 14:22:49.053761
2687  2023-10-19 14:22:49.101673
2688  2023-10-19 14:22:49.133548
2689  2023-10-19 14:22:49.165466
2690  2023-10-19 14:22:49.197381
2691  2023-10-19 14:22:49.229327
2692  2023-10-19 14:22:49.261249
2693  2023-10-19 14:22:49.293164
2694  2023-10-19 14:22:49.325072
2695  2023-10-19 14:22:49.356985
2696  2023-10-19 14:22:49.389897
2697  2023-10-19 14:22:49.421820
2698  2023-10-19 14:22:49.453690
2699  2023-10-19 14:22:49.501603
2700  2023-10-19 14:22:49.533517
2701  2023-10-19 14:22:49.565426
2702  2023-10-19 14:22:49.597354
2703  2023-10-19 14:22:49.629221
2704  2023-10-19 14:22:49.661186
2705  2023-10-19 14:22:49.693105
2706  2023-10-19 14:22:49.725030
2707  2023-10-19 14:22:49.756915
2708  2023-10-19 14:22:49.789826
2709  2023-10-19 14:22:49.821741
2710  2023-10-19 14:22:49.869633
2711  2023-10-19 14:22:49.901543
2712  2023-10-19 14:22:49.933440
2713  2023-10-19 14:22:49.965357
2714  2023-10-19 14:22:49.997238
2715  2023-10-19 14:22:50.029194
2716  2023-10-19 14:22:50.061096
2717  2023-10-19 14:22:50.093017
2718  2023-10-19 14:22:50.124931
2719  2023-10-19 14:22:50.156852
2720  2023-10-19 14:22:50.189760
2721  2023-10-19 14:22:50.221666
2722  2023-10-19 14:22:50.269547
2723  2023-10-19 14:22:50.301429
2724  2023-10-19 14:22:50.333381
2725  2023-10-19 14:22:50.365253
2726  2023-10-19 14:22:50.397171
2727  2023-10-19 14:22:50.429086
2728  2023-10-19 14:22:50.461038
2729  2023-10-19 14:22:50.492910
2730  2023-10-19 14:22:50.525823
2731  2023-10-19 14:22:50.557765
2732  2023-10-19 14:22:50.589690
2733  2023-10-19 14:22:50.621601
2734  2023-10-19 14:22:50.669479
2735  2023-10-19 14:22:50.701399
2736  2023-10-19 14:22:50.733317
2737  2023-10-19 14:22:50.765245
2738  2023-10-19 14:22:50.797132
2739  2023-10-19 14:22:50.829049
2740  2023-10-19 14:22:50.860972
2741  2023-10-19 14:22:50.892841
2742  2023-10-19 14:22:50.925787
2743  2023-10-19 14:22:50.957669
2744  2023-10-19 14:22:50.989590
2745  2023-10-19 14:22:51.021497
2746  2023-10-19 14:22:51.069369
2747  2023-10-19 14:22:51.101319
2748  2023-10-19 14:22:51.133249
2749  2023-10-19 14:22:51.165160
2750  2023-10-19 14:22:51.197070
2751  2023-10-19 14:22:51.228974
2752  2023-10-19 14:22:51.260902
2753  2023-10-19 14:22:51.293823
2754  2023-10-19 14:22:51.325712
2755  2023-10-19 14:22:51.357638
2756  2023-10-19 14:22:51.389541
2757  2023-10-19 14:22:51.421463
2758  2023-10-19 14:22:51.469343
2759  2023-10-19 14:22:51.501252
2760  2023-10-19 14:22:51.533171
2761  2023-10-19 14:22:51.565093
2762  2023-10-19 14:22:51.597956
2763  2023-10-19 14:22:51.629871
2764  2023-10-19 14:22:51.661787
2765  2023-10-19 14:22:51.693700
2766  2023-10-19 14:22:51.725647
2767  2023-10-19 14:22:51.757533
2768  2023-10-19 14:22:51.789477
2769  2023-10-19 14:22:51.821391
2770  2023-10-19 14:22:51.869286
2771  2023-10-19 14:22:51.901180
2772  2023-10-19 14:22:51.933088
2773  2023-10-19 14:22:51.965006
2774  2023-10-19 14:22:51.996924
2775  2023-10-19 14:22:52.029839
2776  2023-10-19 14:22:52.061742
2777  2023-10-19 14:22:52.093657
2778  2023-10-19 14:22:52.125543
2779  2023-10-19 14:22:52.157458
2780  2023-10-19 14:22:52.189423
2781  2023-10-19 14:22:52.221323
2782  2023-10-19 14:22:52.269164
2783  2023-10-19 14:22:52.301102
2784  2023-10-19 14:22:52.334019
2785  2023-10-19 14:22:52.364957
2786  2023-10-19 14:22:52.397859
2787  2023-10-19 14:22:52.429761
2788  2023-10-19 14:22:52.461680
2789  2023-10-19 14:22:52.493593
2790  2023-10-19 14:22:52.525475
2791  2023-10-19 14:22:52.557416
2792  2023-10-19 14:22:52.589339
2793  2023-10-19 14:22:52.621258
2794  2023-10-19 14:22:52.669119
2795  2023-10-19 14:22:52.701006
2796  2023-10-19 14:22:52.732945
2797  2023-10-19 14:22:52.765832
2798  2023-10-19 14:22:52.797796
2799  2023-10-19 14:22:52.829709
2800  2023-10-19 14:22:52.861616
2801  2023-10-19 14:22:52.893537
2802  2023-10-19 14:22:52.925432
2803  2023-10-19 14:22:52.957370
2804  2023-10-19 14:22:52.989273
2805  2023-10-19 14:22:53.021185
2806  2023-10-19 14:22:53.069077
2807  2023-10-19 14:22:53.100971
2808  2023-10-19 14:22:53.132899
2809  2023-10-19 14:22:53.165789
2810  2023-10-19 14:22:53.197718
2811  2023-10-19 14:22:53.229592
2812  2023-10-19 14:22:53.261541
2813  2023-10-19 14:22:53.293465
2814  2023-10-19 14:22:53.325372
2815  2023-10-19 14:22:53.357302
2816  2023-10-19 14:22:53.389201
2817  2023-10-19 14:22:53.422077
2818  2023-10-19 14:22:53.469984
2819  2023-10-19 14:22:53.501903
2820  2023-10-19 14:22:53.533806
2821  2023-10-19 14:22:53.565729
2822  2023-10-19 14:22:53.597648
2823  2023-10-19 14:22:53.629523
2824  2023-10-19 14:22:53.661469
2825  2023-10-19 14:22:53.693383
2826  2023-10-19 14:22:53.725300
2827  2023-10-19 14:22:53.757179
2828  2023-10-19 14:22:53.789095
2829  2023-10-19 14:22:53.837968
2830  2023-10-19 14:22:53.868916
2831  2023-10-19 14:22:53.901843
2832  2023-10-19 14:22:53.933708
2833  2023-10-19 14:22:53.965622
2834  2023-10-19 14:22:53.997564
2835  2023-10-19 14:22:54.029505
2836  2023-10-19 14:22:54.061401
2837  2023-10-19 14:22:54.093318
2838  2023-10-19 14:22:54.125251
2839  2023-10-19 14:22:54.157159
2840  2023-10-19 14:22:54.190051
2841  2023-10-19 14:22:54.237927
2842  2023-10-19 14:22:54.269819
2843  2023-10-19 14:22:54.301757
2844  2023-10-19 14:22:54.333667
2845  2023-10-19 14:22:54.365553
2846  2023-10-19 14:22:54.397471
2847  2023-10-19 14:22:54.429386
2848  2023-10-19 14:22:54.461335
2849  2023-10-19 14:22:54.493210
2850  2023-10-19 14:22:54.525125
2851  2023-10-19 14:22:54.557040
2852  2023-10-19 14:22:54.589952
2853  2023-10-19 14:22:54.637824
2854  2023-10-19 14:22:54.669739
2855  2023-10-19 14:22:54.701694
2856  2023-10-19 14:22:54.733568
2857  2023-10-19 14:22:54.765516
2858  2023-10-19 14:22:54.797434
2859  2023-10-19 14:22:54.829314
2860  2023-10-19 14:22:54.861262
2861  2023-10-19 14:22:54.893191
2862  2023-10-19 14:22:54.925091
2863  2023-10-19 14:22:54.957007
2864  2023-10-19 14:22:54.988922
2865  2023-10-19 14:22:55.037788
2866  2023-10-19 14:22:55.069719
2867  2023-10-19 14:22:55.101612
2868  2023-10-19 14:22:55.133536
2869  2023-10-19 14:22:55.165413
2870  2023-10-19 14:22:55.197376
2871  2023-10-19 14:22:55.229273
2872  2023-10-19 14:22:55.261203
2873  2023-10-19 14:22:55.293105
2874  2023-10-19 14:22:55.326042
2875  2023-10-19 14:22:55.357898
2876  2023-10-19 14:22:55.389812
2877  2023-10-19 14:22:55.437686
2878  2023-10-19 14:22:55.469638
2879  2023-10-19 14:22:55.501557
2880  2023-10-19 14:22:55.533479
2881  2023-10-19 14:22:55.565381
2882  2023-10-19 14:22:55.599301
2883  2023-10-19 14:22:55.629199
2884  2023-10-19 14:22:55.661125
2885  2023-10-19 14:22:55.695036
2886  2023-10-19 14:22:55.724962
2887  2023-10-19 14:22:55.758863
2888  2023-10-19 14:22:55.789773
2889  2023-10-19 14:22:55.837660
2890  2023-10-19 14:22:55.869578
2891  2023-10-19 14:22:55.901485
2892  2023-10-19 14:22:55.933360
2893  2023-10-19 14:22:55.966280
2894  2023-10-19 14:22:55.998216
2895  2023-10-19 14:22:56.031126
2896  2023-10-19 14:22:56.063043
2897  2023-10-19 14:22:56.092967
2898  2023-10-19 14:22:56.126868
2899  2023-10-19 14:22:56.158802
2900  2023-10-19 14:22:56.190714
2901  2023-10-19 14:22:56.238581
2902  2023-10-19 14:22:56.270483
2903  2023-10-19 14:22:56.302411
2904  2023-10-19 14:22:56.334288
2905  2023-10-19 14:22:56.366237
2906  2023-10-19 14:22:56.398150
2907  2023-10-19 14:22:56.430061
2908  2023-10-19 14:22:56.461944
2909  2023-10-19 14:22:56.493861
2910  2023-10-19 14:22:56.526810
2911  2023-10-19 14:22:56.558736
2912  2023-10-19 14:22:56.590647
2913  2023-10-19 14:22:56.638510
2914  2023-10-19 14:22:56.670429
2915  2023-10-19 14:22:56.702351
2916  2023-10-19 14:22:56.734249
2917  2023-10-19 14:22:56.766165
2918  2023-10-19 14:22:56.798081
2919  2023-10-19 14:22:56.829996
2920  2023-10-19 14:22:56.861923
2921  2023-10-19 14:22:56.893828
2922  2023-10-19 14:22:56.925770
2923  2023-10-19 14:22:56.957662
2924  2023-10-19 14:22:56.990530
2925  2023-10-19 14:22:57.038416
2926  2023-10-19 14:22:57.070357
2927  2023-10-19 14:22:57.102237
2928  2023-10-19 14:22:57.134188
2929  2023-10-19 14:22:57.166094
2930  2023-10-19 14:22:57.198016
2931  2023-10-19 14:22:57.229920
2932  2023-10-19 14:22:57.261836
2933  2023-10-19 14:22:57.293754
2934  2023-10-19 14:22:57.325682
2935  2023-10-19 14:22:57.357582
2936  2023-10-19 14:22:57.405463
2937  2023-10-19 14:22:57.437337
2938  2023-10-19 14:22:57.469282
2939  2023-10-19 14:22:57.501203
2940  2023-10-19 14:22:57.534077
2941  2023-10-19 14:22:57.566030
2942  2023-10-19 14:22:57.597938
2943  2023-10-19 14:22:57.629857
2944  2023-10-19 14:22:57.661771
2945  2023-10-19 14:22:57.693681
2946  2023-10-19 14:22:57.725595
2947  2023-10-19 14:22:57.757506
2948  2023-10-19 14:22:57.805351
2949  2023-10-19 14:22:57.837299
2950  2023-10-19 14:22:57.869228
2951  2023-10-19 14:22:57.901132
2952  2023-10-19 14:22:57.934008
2953  2023-10-19 14:22:57.965951
2954  2023-10-19 14:22:57.996872
2955  2023-10-19 14:22:58.029816
2956  2023-10-19 14:22:58.061693
2957  2023-10-19 14:22:58.093582
2958  2023-10-19 14:22:58.125537
2959  2023-10-19 14:22:58.157433
2960  2023-10-19 14:22:58.205310
2961  2023-10-19 14:22:58.237243
2962  2023-10-19 14:22:58.269159
2963  2023-10-19 14:22:58.301054
2964  2023-10-19 14:22:58.333939
2965  2023-10-19 14:22:58.364894
2966  2023-10-19 14:22:58.397767
2967  2023-10-19 14:22:58.429681
2968  2023-10-19 14:22:58.461595
2969  2023-10-19 14:22:58.493544
2970  2023-10-19 14:22:58.525463
2971  2023-10-19 14:22:58.557370
2972  2023-10-19 14:22:58.605213
2973  2023-10-19 14:22:58.639156
2974  2023-10-19 14:22:58.669076
2975  2023-10-19 14:22:58.700995
2976  2023-10-19 14:22:58.732916
2977  2023-10-19 14:22:58.765784
2978  2023-10-19 14:22:58.798699
2979  2023-10-19 14:22:58.829611
2980  2023-10-19 14:22:58.861526
2981  2023-10-19 14:22:58.893442
2982  2023-10-19 14:22:58.925395
2983  2023-10-19 14:22:58.958302
2984  2023-10-19 14:22:59.005194
2985  2023-10-19 14:22:59.039094
2986  2023-10-19 14:22:59.069970
2987  2023-10-19 14:22:59.102916
2988  2023-10-19 14:22:59.132827
2989  2023-10-19 14:22:59.165714
2990  2023-10-19 14:22:59.198630
2991  2023-10-19 14:22:59.229544
2992  2023-10-19 14:22:59.262505
2993  2023-10-19 14:22:59.293373
2994  2023-10-19 14:22:59.325287
2995  2023-10-19 14:22:59.358226
2996  2023-10-19 14:22:59.405074
2997  2023-10-19 14:22:59.437985
2998  2023-10-19 14:22:59.470926
2999  2023-10-19 14:22:59.501842
3000  2023-10-19 14:22:59.533779
3001  2023-10-19 14:22:59.565688
3002  2023-10-19 14:22:59.598601
3003  2023-10-19 14:22:59.630525
3004  2023-10-19 14:22:59.661415
3005  2023-10-19 14:22:59.693303
3006  2023-10-19 14:22:59.725217
3007  2023-10-19 14:22:59.758174
3008  2023-10-19 14:22:59.806001
3009  2023-10-19 14:22:59.839909
3010  2023-10-19 14:22:59.870860
3011  2023-10-19 14:22:59.901785
3012  2023-10-19 14:22:59.933658
3013  2023-10-19 14:22:59.965573
3014  2023-10-19 14:22:59.997524
3015  2023-10-19 14:23:00.030427
3016  2023-10-19 14:23:00.061344
3017  2023-10-19 14:23:00.093258
3018  2023-10-19 14:23:00.125148
3019  2023-10-19 14:23:00.157107
3020  2023-10-19 14:23:00.204934
3021  2023-10-19 14:23:00.237878
3022  2023-10-19 14:23:00.269762
3023  2023-10-19 14:23:00.301713
3024  2023-10-19 14:23:00.333589
3025  2023-10-19 14:23:00.365539
3026  2023-10-19 14:23:00.397452
3027  2023-10-19 14:23:00.429360
3028  2023-10-19 14:23:00.461285
3029  2023-10-19 14:23:00.493196
3030  2023-10-19 14:23:00.525103
3031  2023-10-19 14:23:00.557024
3032  2023-10-19 14:23:00.604905
3033  2023-10-19 14:23:00.637777
3034  2023-10-19 14:23:00.669730
3035  2023-10-19 14:23:00.701632
3036  2023-10-19 14:23:00.733519
3037  2023-10-19 14:23:00.765433
3038  2023-10-19 14:23:00.797381
3039  2023-10-19 14:23:00.829271
3040  2023-10-19 14:23:00.861177
3041  2023-10-19 14:23:00.893136
3042  2023-10-19 14:23:00.925008
3043  2023-10-19 14:23:00.956950
3044  2023-10-19 14:23:01.005792
3045  2023-10-19 14:23:01.037758
3046  2023-10-19 14:23:01.069651
3047  2023-10-19 14:23:01.101564
3048  2023-10-19 14:23:01.133450
3049  2023-10-19 14:23:01.165405
3050  2023-10-19 14:23:01.197305
3051  2023-10-19 14:23:01.229219
3052  2023-10-19 14:23:01.261138
3053  2023-10-19 14:23:01.293023
3054  2023-10-19 14:23:01.324938
3055  2023-10-19 14:23:01.373807
3056  2023-10-19 14:23:01.405750
3057  2023-10-19 14:23:01.437637
3058  2023-10-19 14:23:01.469584
3059  2023-10-19 14:23:01.501496
3060  2023-10-19 14:23:01.533415
3061  2023-10-19 14:23:01.565295
3062  2023-10-19 14:23:01.597239
3063  2023-10-19 14:23:01.629162
3064  2023-10-19 14:23:01.661066
3065  2023-10-19 14:23:01.692953
3066  2023-10-19 14:23:01.724907
3067  2023-10-19 14:23:01.773742
3068  2023-10-19 14:23:01.805651
3069  2023-10-19 14:23:01.837567
3070  2023-10-19 14:23:01.869480
3071  2023-10-19 14:23:01.901396
3072  2023-10-19 14:23:01.933314
3073  2023-10-19 14:23:01.965296
3074  2023-10-19 14:23:01.997194
3075  2023-10-19 14:23:02.029086
3076  2023-10-19 14:23:02.061006
3077  2023-10-19 14:23:02.092882
3078  2023-10-19 14:23:02.124798
3079  2023-10-19 14:23:02.173694
3080  2023-10-19 14:23:02.205615
3081  2023-10-19 14:23:02.237497
3082  2023-10-19 14:23:02.269438
3083  2023-10-19 14:23:02.301354
3084  2023-10-19 14:23:02.333285
3085  2023-10-19 14:23:02.365200
3086  2023-10-19 14:23:02.397068
3087  2023-10-19 14:23:02.428985
3088  2023-10-19 14:23:02.460937
3089  2023-10-19 14:23:02.492847
3090  2023-10-19 14:23:02.525726
3091  2023-10-19 14:23:02.573626
3092  2023-10-19 14:23:02.605512
3093  2023-10-19 14:23:02.637458
3094  2023-10-19 14:23:02.669378
3095  2023-10-19 14:23:02.701285
3096  2023-10-19 14:23:02.733198
3097  2023-10-19 14:23:02.765089
3098  2023-10-19 14:23:02.797044
3099  2023-10-19 14:23:02.828959
3100  2023-10-19 14:23:02.861855
3101  2023-10-19 14:23:02.893741
3102  2023-10-19 14:23:02.925656
3103  2023-10-19 14:23:02.973526
3104  2023-10-19 14:23:03.005468
3105  2023-10-19 14:23:03.037357
3106  2023-10-19 14:23:03.069297
3107  2023-10-19 14:23:03.101230
3108  2023-10-19 14:23:03.133102
3109  2023-10-19 14:23:03.165016
3110  2023-10-19 14:23:03.197963
3111  2023-10-19 14:23:03.228877
3112  2023-10-19 14:23:03.261803
3113  2023-10-19 14:23:03.293698
3114  2023-10-19 14:23:03.325586
3115  2023-10-19 14:23:03.373484
3116  2023-10-19 14:23:03.405414
3117  2023-10-19 14:23:03.437326
3118  2023-10-19 14:23:03.469206
3119  2023-10-19 14:23:03.501115
3120  2023-10-19 14:23:03.533072
3121  2023-10-19 14:23:03.564988
3122  2023-10-19 14:23:03.597900
3123  2023-10-19 14:23:03.628775
3124  2023-10-19 14:23:03.661687
3125  2023-10-19 14:23:03.693636
3126  2023-10-19 14:23:03.725550
3127  2023-10-19 14:23:03.773419
3128  2023-10-19 14:23:03.805304
3129  2023-10-19 14:23:03.837218
3130  2023-10-19 14:23:03.869131
3131  2023-10-19 14:23:03.901050
3132  2023-10-19 14:23:03.932965
3133  2023-10-19 14:23:03.964879
3134  2023-10-19 14:23:03.997816
3135  2023-10-19 14:23:04.029703
3136  2023-10-19 14:23:04.061617
3137  2023-10-19 14:23:04.093558
3138  2023-10-19 14:23:04.125475
3139  2023-10-19 14:23:04.173348
3140  2023-10-19 14:23:04.205270
3141  2023-10-19 14:23:04.237186
3142  2023-10-19 14:23:04.269096
3143  2023-10-19 14:23:04.301019
3144  2023-10-19 14:23:04.332932
3145  2023-10-19 14:23:04.364839
3146  2023-10-19 14:23:04.397747
3147  2023-10-19 14:23:04.429671
3148  2023-10-19 14:23:04.461548
3149  2023-10-19 14:23:04.493494
3150  2023-10-19 14:23:04.525408
3151  2023-10-19 14:23:04.573274
3152  2023-10-19 14:23:04.605162
3153  2023-10-19 14:23:04.637110
3154  2023-10-19 14:23:04.669992
3155  2023-10-19 14:23:04.701945
3156  2023-10-19 14:23:04.733819
3157  2023-10-19 14:23:04.765786
3158  2023-10-19 14:23:04.797648
3159  2023-10-19 14:23:04.829595
3160  2023-10-19 14:23:04.861509
3161  2023-10-19 14:23:04.893396
3162  2023-10-19 14:23:04.941304
3163  2023-10-19 14:23:04.973178
3164  2023-10-19 14:23:05.006091
3165  2023-10-19 14:23:05.037048
3166  2023-10-19 14:23:05.068950
3167  2023-10-19 14:23:05.100841
3168  2023-10-19 14:23:05.133750
3169  2023-10-19 14:23:05.165663
3170  2023-10-19 14:23:05.197607
3171  2023-10-19 14:23:05.229524
3172  2023-10-19 14:23:05.261434
3173  2023-10-19 14:23:05.293348
3174  2023-10-19 14:23:05.341233
3175  2023-10-19 14:23:05.373137
3176  2023-10-19 14:23:05.405061
3177  2023-10-19 14:23:05.436967
3178  2023-10-19 14:23:05.468890
3179  2023-10-19 14:23:05.500796
3180  2023-10-19 14:23:05.533713
3181  2023-10-19 14:23:05.565621
3182  2023-10-19 14:23:05.597537
3183  2023-10-19 14:23:05.629423
3184  2023-10-19 14:23:05.661338
3185  2023-10-19 14:23:05.693252
3186  2023-10-19 14:23:05.741124
3187  2023-10-19 14:23:05.773043
3188  2023-10-19 14:23:05.805951
3189  2023-10-19 14:23:05.836870
3190  2023-10-19 14:23:05.869782
3191  2023-10-19 14:23:05.901695
3192  2023-10-19 14:23:05.933609
3193  2023-10-19 14:23:05.965529
3194  2023-10-19 14:23:05.997467
3195  2023-10-19 14:23:06.029384
3196  2023-10-19 14:23:06.061294
3197  2023-10-19 14:23:06.093209
3198  2023-10-19 14:23:06.141091
3199  2023-10-19 14:23:06.173003
3200  2023-10-19 14:23:06.204936
3201  2023-10-19 14:23:06.237795
3202  2023-10-19 14:23:06.269753
3203  2023-10-19 14:23:06.301657
3204  2023-10-19 14:23:06.333543
3205  2023-10-19 14:23:06.365491
3206  2023-10-19 14:23:06.397395
3207  2023-10-19 14:23:06.429320
3208  2023-10-19 14:23:06.461242
3209  2023-10-19 14:23:06.493141
3210  2023-10-19 14:23:06.541016
3211  2023-10-19 14:23:06.572951
3212  2023-10-19 14:23:06.604815
3213  2023-10-19 14:23:06.637753
3214  2023-10-19 14:23:06.669640
3215  2023-10-19 14:23:06.701556
3216  2023-10-19 14:23:06.733470
3217  2023-10-19 14:23:06.765384
3218  2023-10-19 14:23:06.797298
3219  2023-10-19 14:23:06.829251
3220  2023-10-19 14:23:06.861157
3221  2023-10-19 14:23:06.893083
3222  2023-10-19 14:23:06.940946
3223  2023-10-19 14:23:06.972830
3224  2023-10-19 14:23:07.005791
3225  2023-10-19 14:23:07.037693
3226  2023-10-19 14:23:07.069622
3227  2023-10-19 14:23:07.101523
3228  2023-10-19 14:23:07.133454
3229  2023-10-19 14:23:07.165345
3230  2023-10-19 14:23:07.197277
3231  2023-10-19 14:23:07.229181
3232  2023-10-19 14:23:07.261119
3233  2023-10-19 14:23:07.293011
3234  2023-10-19 14:23:07.340882
3235  2023-10-19 14:23:07.373795
3236  2023-10-19 14:23:07.405671
3237  2023-10-19 14:23:07.437622
3238  2023-10-19 14:23:07.469529
3239  2023-10-19 14:23:07.501445
3240  2023-10-19 14:23:07.533383
3241  2023-10-19 14:23:07.565279
3242  2023-10-19 14:23:07.597186
3243  2023-10-19 14:23:07.629075
3244  2023-10-19 14:23:07.660988
3245  2023-10-19 14:23:07.692908
3246  2023-10-19 14:23:07.741772
3247  2023-10-19 14:23:07.773735
3248  2023-10-19 14:23:07.805603
3249  2023-10-19 14:23:07.837559
3250  2023-10-19 14:23:07.869432
3251  2023-10-19 14:23:07.901345
3252  2023-10-19 14:23:07.933311
3253  2023-10-19 14:23:07.965210
3254  2023-10-19 14:23:07.997131
3255  2023-10-19 14:23:08.029034
3256  2023-10-19 14:23:08.060959
3257  2023-10-19 14:23:08.092868
3258  2023-10-19 14:23:08.141702
3259  2023-10-19 14:23:08.173645
3260  2023-10-19 14:23:08.205581
3261  2023-10-19 14:23:08.237484
3262  2023-10-19 14:23:08.269361
3263  2023-10-19 14:23:08.301276
3264  2023-10-19 14:23:08.333255
3265  2023-10-19 14:23:08.365131
3266  2023-10-19 14:23:08.397019
3267  2023-10-19 14:23:08.428964
3268  2023-10-19 14:23:08.461846
3269  2023-10-19 14:23:08.493814
3270  2023-10-19 14:23:08.541633
3271  2023-10-19 14:23:08.573580
3272  2023-10-19 14:23:08.605489
3273  2023-10-19 14:23:08.637403
3274  2023-10-19 14:23:08.669291
3275  2023-10-19 14:23:08.701206
3276  2023-10-19 14:23:08.733156
3277  2023-10-19 14:23:08.765062
3278  2023-10-19 14:23:08.797948
3279  2023-10-19 14:23:08.829861
3280  2023-10-19 14:23:08.861776
3281  2023-10-19 14:23:08.909648
3282  2023-10-19 14:23:08.941563
3283  2023-10-19 14:23:08.973479
3284  2023-10-19 14:23:09.005395
3285  2023-10-19 14:23:09.037341
3286  2023-10-19 14:23:09.069221
3287  2023-10-19 14:23:09.101163
3288  2023-10-19 14:23:09.133079
3289  2023-10-19 14:23:09.164992
3290  2023-10-19 14:23:09.196916
3291  2023-10-19 14:23:09.229792
3292  2023-10-19 14:23:09.261707
3293  2023-10-19 14:23:09.309619
3294  2023-10-19 14:23:09.341493
3295  2023-10-19 14:23:09.373448
3296  2023-10-19 14:23:09.405356
3297  2023-10-19 14:23:09.437273
3298  2023-10-19 14:23:09.469153
3299  2023-10-19 14:23:09.501066
3300  2023-10-19 14:23:09.533021
3301  2023-10-19 14:23:09.564934
3302  2023-10-19 14:23:09.596837
3303  2023-10-19 14:23:09.629722
3304  2023-10-19 14:23:09.661637
3305  2023-10-19 14:23:09.709509
3306  2023-10-19 14:23:09.741423
3307  2023-10-19 14:23:09.773377
3308  2023-10-19 14:23:09.805254
3309  2023-10-19 14:23:09.837169
3310  2023-10-19 14:23:09.869082
3311  2023-10-19 14:23:09.900997
3312  2023-10-19 14:23:09.932941
3313  2023-10-19 14:23:09.964888
3314  2023-10-19 14:23:09.997826
3315  2023-10-19 14:23:10.029701
3316  2023-10-19 14:23:10.061670
3317  2023-10-19 14:23:10.109537
3318  2023-10-19 14:23:10.141433
3319  2023-10-19 14:23:10.173357
3320  2023-10-19 14:23:10.205282
3321  2023-10-19 14:23:10.237188
3322  2023-10-19 14:23:10.269063
3323  2023-10-19 14:23:10.301017
3324  2023-10-19 14:23:10.332939
3325  2023-10-19 14:23:10.365846
3326  2023-10-19 14:23:10.397750
3327  2023-10-19 14:23:10.429664
3328  2023-10-19 14:23:10.461548
3329  2023-10-19 14:23:10.509451
3330  2023-10-19 14:23:10.541334
3331  2023-10-19 14:23:10.573248
3332  2023-10-19 14:23:10.605205
3333  2023-10-19 14:23:10.637128
3334  2023-10-19 14:23:10.669035
3335  2023-10-19 14:23:10.700907
3336  2023-10-19 14:23:10.732850
3337  2023-10-19 14:23:10.765773
3338  2023-10-19 14:23:10.797649
3339  2023-10-19 14:23:10.829611
3340  2023-10-19 14:23:10.861477
3341  2023-10-19 14:23:10.909391
3342  2023-10-19 14:23:10.941264
3343  2023-10-19 14:23:10.973181
3344  2023-10-19 14:23:11.005125
3345  2023-10-19 14:23:11.037036
3346  2023-10-19 14:23:11.068966
3347  2023-10-19 14:23:11.100838
3348  2023-10-19 14:23:11.133753
3349  2023-10-19 14:23:11.165665
3350  2023-10-19 14:23:11.197579
3351  2023-10-19 14:23:11.229494
3352  2023-10-19 14:23:11.261410
3353  2023-10-19 14:23:11.309280
3354  2023-10-19 14:23:11.341195
3355  2023-10-19 14:23:11.373110
3356  2023-10-19 14:23:11.405084
3357  2023-10-19 14:23:11.437936
3358  2023-10-19 14:23:11.469860
3359  2023-10-19 14:23:11.501766
3360  2023-10-19 14:23:11.533680
3361  2023-10-19 14:23:11.565600
3362  2023-10-19 14:23:11.597509
3363  2023-10-19 14:23:11.629423
3364  2023-10-19 14:23:11.661338
3365  2023-10-19 14:23:11.709243
3366  2023-10-19 14:23:11.741124
3367  2023-10-19 14:23:11.773039
3368  2023-10-19 14:23:11.804981
3369  2023-10-19 14:23:11.836905
3370  2023-10-19 14:23:11.869785
3371  2023-10-19 14:23:11.901695
3372  2023-10-19 14:23:11.933649
3373  2023-10-19 14:23:11.965539
3374  2023-10-19 14:23:11.997439
3375  2023-10-19 14:23:12.029354
3376  2023-10-19 14:23:12.061269
3377  2023-10-19 14:23:12.109140
3378  2023-10-19 14:23:12.141055
3379  2023-10-19 14:23:12.172969
3380  2023-10-19 14:23:12.204884
3381  2023-10-19 14:23:12.236799
3382  2023-10-19 14:23:12.269711
3383  2023-10-19 14:23:12.301653
3384  2023-10-19 14:23:12.333540
3385  2023-10-19 14:23:12.365455
3386  2023-10-19 14:23:12.397410
3387  2023-10-19 14:23:12.429314
3388  2023-10-19 14:23:12.477212
3389  2023-10-19 14:23:12.509098
3390  2023-10-19 14:23:12.540985
3391  2023-10-19 14:23:12.572899
3392  2023-10-19 14:23:12.605812
3393  2023-10-19 14:23:12.637756
3394  2023-10-19 14:23:12.669641
3395  2023-10-19 14:23:12.701556
3396  2023-10-19 14:23:12.733471
3397  2023-10-19 14:23:12.765385
3398  2023-10-19 14:23:12.797300
3399  2023-10-19 14:23:12.829214
3400  2023-10-19 14:23:12.877085
3401  2023-10-19 14:23:12.909001
3402  2023-10-19 14:23:12.941913
3403  2023-10-19 14:23:12.972862
3404  2023-10-19 14:23:13.004795
3405  2023-10-19 14:23:13.037657
3406  2023-10-19 14:23:13.069571
3407  2023-10-19 14:23:13.101486
3408  2023-10-19 14:23:13.133438
3409  2023-10-19 14:23:13.165315
3410  2023-10-19 14:23:13.197230
3411  2023-10-19 14:23:13.229145
3412  2023-10-19 14:23:13.277016
3413  2023-10-19 14:23:13.308970
3414  2023-10-19 14:23:13.340875
3415  2023-10-19 14:23:13.373757
3416  2023-10-19 14:23:13.405673
3417  2023-10-19 14:23:13.437587
3418  2023-10-19 14:23:13.469538
3419  2023-10-19 14:23:13.501417
3420  2023-10-19 14:23:13.533331
3421  2023-10-19 14:23:13.565245
3422  2023-10-19 14:23:13.597160
3423  2023-10-19 14:23:13.629075
3424  2023-10-19 14:23:13.676982
3425  2023-10-19 14:23:13.708861
3426  2023-10-19 14:23:13.741773
3427  2023-10-19 14:23:13.773688
3428  2023-10-19 14:23:13.805602
3429  2023-10-19 14:23:13.837517
3430  2023-10-19 14:23:13.869432
3431  2023-10-19 14:23:13.901351
3432  2023-10-19 14:23:13.933261
3433  2023-10-19 14:23:13.965176
3434  2023-10-19 14:23:13.997091
3435  2023-10-19 14:23:14.030002
3436  2023-10-19 14:23:14.076876
3437  2023-10-19 14:23:14.108821
3438  2023-10-19 14:23:14.141704
3439  2023-10-19 14:23:14.173618
3440  2023-10-19 14:23:14.205533
3441  2023-10-19 14:23:14.237448
3442  2023-10-19 14:23:14.269362
3443  2023-10-19 14:23:14.301278
3444  2023-10-19 14:23:14.333191
3445  2023-10-19 14:23:14.365106
3446  2023-10-19 14:23:14.397024
3447  2023-10-19 14:23:14.428963
3448  2023-10-19 14:23:14.477805
3449  2023-10-19 14:23:14.509723
3450  2023-10-19 14:23:14.541634
3451  2023-10-19 14:23:14.573548
3452  2023-10-19 14:23:14.605463
3453  2023-10-19 14:23:14.637406
3454  2023-10-19 14:23:14.669292
3455  2023-10-19 14:23:14.701207
3456  2023-10-19 14:23:14.733121
3457  2023-10-19 14:23:14.765069
3458  2023-10-19 14:23:14.797948
3459  2023-10-19 14:23:14.829863
3460  2023-10-19 14:23:14.877734
3461  2023-10-19 14:23:14.909649
3462  2023-10-19 14:23:14.941564
3463  2023-10-19 14:23:14.973479
3464  2023-10-19 14:23:15.005393
3465  2023-10-19 14:23:15.037308
3466  2023-10-19 14:23:15.069223
3467  2023-10-19 14:23:15.101166
3468  2023-10-19 14:23:15.133052
3469  2023-10-19 14:23:15.164966
3470  2023-10-19 14:23:15.196881
3471  2023-10-19 14:23:15.228822
3472  2023-10-19 14:23:15.277665
3473  2023-10-19 14:23:15.309580
3474  2023-10-19 14:23:15.341494
3475  2023-10-19 14:23:15.373409
3476  2023-10-19 14:23:15.405341
3477  2023-10-19 14:23:15.437282
3478  2023-10-19 14:23:15.469153
3479  2023-10-19 14:23:15.501069
3480  2023-10-19 14:23:15.532982
3481  2023-10-19 14:23:15.564897
3482  2023-10-19 14:23:15.596811
3483  2023-10-19 14:23:15.629768
3484  2023-10-19 14:23:15.677632
3485  2023-10-19 14:23:15.709545
3486  2023-10-19 14:23:15.741425
3487  2023-10-19 14:23:15.773339
3488  2023-10-19 14:23:15.805280
3489  2023-10-19 14:23:15.837221
3490  2023-10-19 14:23:15.869083
3491  2023-10-19 14:23:15.900998
3492  2023-10-19 14:23:15.932952
3493  2023-10-19 14:23:15.964862
3494  2023-10-19 14:23:15.997738
3495  2023-10-19 14:23:16.029653
3496  2023-10-19 14:23:16.077525
3497  2023-10-19 14:23:16.109440
3498  2023-10-19 14:23:16.141383
3499  2023-10-19 14:23:16.173316
3500  2023-10-19 14:23:16.205182
3501  2023-10-19 14:23:16.237134
3502  2023-10-19 14:23:16.269012
3503  2023-10-19 14:23:16.300960
3504  2023-10-19 14:23:16.332841
3505  2023-10-19 14:23:16.365753
3506  2023-10-19 14:23:16.397668
3507  2023-10-19 14:23:16.445540
3508  2023-10-19 14:23:16.477454
3509  2023-10-19 14:23:16.509369
3510  2023-10-19 14:23:16.541284
3511  2023-10-19 14:23:16.573198
3512  2023-10-19 14:23:16.605112
3513  2023-10-19 14:23:16.637027
3514  2023-10-19 14:23:16.668942
3515  2023-10-19 14:23:16.700857
3516  2023-10-19 14:23:16.733768
3517  2023-10-19 14:23:16.765710
3518  2023-10-19 14:23:16.797598
3519  2023-10-19 14:23:16.845483
3520  2023-10-19 14:23:16.877384
3521  2023-10-19 14:23:16.909299
3522  2023-10-19 14:23:16.941244
3523  2023-10-19 14:23:16.973166
3524  2023-10-19 14:23:17.005043
3525  2023-10-19 14:23:17.036958
3526  2023-10-19 14:23:17.069870
3527  2023-10-19 14:23:17.101785
3528  2023-10-19 14:23:17.133699
3529  2023-10-19 14:23:17.165613
3530  2023-10-19 14:23:17.197528
3531  2023-10-19 14:23:17.245400
3532  2023-10-19 14:23:17.277315
3533  2023-10-19 14:23:17.309229
3534  2023-10-19 14:23:17.341149
3535  2023-10-19 14:23:17.373059
3536  2023-10-19 14:23:17.404973
3537  2023-10-19 14:23:17.436888
3538  2023-10-19 14:23:17.468803
3539  2023-10-19 14:23:17.501715
3540  2023-10-19 14:23:17.533629
3541  2023-10-19 14:23:17.565545
3542  2023-10-19 14:23:17.597458
3543  2023-10-19 14:23:17.645330
3544  2023-10-19 14:23:17.677245
3545  2023-10-19 14:23:17.709159
3546  2023-10-19 14:23:17.741074
3547  2023-10-19 14:23:17.772989
3548  2023-10-19 14:23:17.804903
3549  2023-10-19 14:23:17.837816
3550  2023-10-19 14:23:17.869730
3551  2023-10-19 14:23:17.901645
3552  2023-10-19 14:23:17.933559
3553  2023-10-19 14:23:17.965474
3554  2023-10-19 14:23:17.997389
3555  2023-10-19 14:23:18.045261
3556  2023-10-19 14:23:18.077175
3557  2023-10-19 14:23:18.109090
3558  2023-10-19 14:23:18.141005
3559  2023-10-19 14:23:18.173917
3560  2023-10-19 14:23:18.205831
3561  2023-10-19 14:23:18.237746
