
1  2023-10-26 14:24:16.907550
2  2023-10-26 14:24:16.955462
3  2023-10-26 14:24:17.003294
4  2023-10-26 14:24:17.035209
5  2023-10-26 14:24:17.081134
6  2023-10-26 14:24:17.129006
7  2023-10-26 14:24:17.160920
8  2023-10-26 14:24:17.208793
9  2023-10-26 14:24:17.240708
10  2023-10-26 14:24:17.286585
11  2023-10-26 14:24:17.332462
12  2023-10-26 14:24:17.364377
13  2023-10-26 14:24:17.412249
14  2023-10-26 14:24:17.460121
15  2023-10-26 14:24:17.492035
16  2023-10-26 14:24:17.539938
17  2023-10-26 14:24:17.586957
18  2023-10-26 14:24:17.617860
19  2023-10-26 14:24:17.664745
20  2023-10-26 14:24:17.712628
21  2023-10-26 14:24:17.744577
22  2023-10-26 14:24:17.792457
23  2023-10-26 14:24:17.824330
24  2023-10-26 14:24:17.872202
25  2023-10-26 14:24:17.919076
26  2023-10-26 14:24:17.950993
27  2023-10-26 14:24:17.998869
28  2023-10-26 14:24:18.030819
29  2023-10-26 14:24:18.078650
30  2023-10-26 14:24:18.124527
31  2023-10-26 14:24:18.156442
32  2023-10-26 14:24:18.203365
33  2023-10-26 14:24:18.250192
34  2023-10-26 14:24:18.281141
35  2023-10-26 14:24:18.327983
36  2023-10-26 14:24:18.375994
37  2023-10-26 14:24:18.407770
38  2023-10-26 14:24:18.453647
39  2023-10-26 14:24:18.501520
40  2023-10-26 14:24:18.532868
41  2023-10-26 14:24:18.580783
42  2023-10-26 14:24:18.628612
43  2023-10-26 14:24:18.659529
44  2023-10-26 14:24:18.706444
45  2023-10-26 14:24:18.754275
46  2023-10-26 14:24:18.786190
47  2023-10-26 14:24:18.834188
48  2023-10-26 14:24:18.866093
49  2023-10-26 14:24:18.913961
50  2023-10-26 14:24:18.959844
51  2023-10-26 14:24:18.991761
52  2023-10-26 14:24:19.039639
53  2023-10-26 14:24:19.087512
54  2023-10-26 14:24:19.119411
55  2023-10-26 14:24:19.167284
56  2023-10-26 14:24:19.199165
57  2023-10-26 14:24:19.247037
58  2023-10-26 14:24:19.294959
59  2023-10-26 14:24:19.326866
60  2023-10-26 14:24:19.372704
61  2023-10-26 14:24:19.418837
62  2023-10-26 14:24:19.450618
63  2023-10-26 14:24:19.499489
64  2023-10-26 14:24:19.530404
65  2023-10-26 14:24:19.576328
66  2023-10-26 14:24:19.624154
67  2023-10-26 14:24:19.656068
68  2023-10-26 14:24:19.703952
69  2023-10-26 14:24:19.751812
70  2023-10-26 14:24:19.783727
71  2023-10-26 14:24:19.831600
72  2023-10-26 14:24:19.878481
73  2023-10-26 14:24:19.909391
74  2023-10-26 14:24:19.957413
75  2023-10-26 14:24:20.003323
76  2023-10-26 14:24:20.034995
77  2023-10-26 14:24:20.082966
78  2023-10-26 14:24:20.114851
79  2023-10-26 14:24:20.162687
80  2023-10-26 14:24:20.210562
81  2023-10-26 14:24:20.242510
82  2023-10-26 14:24:20.290391
83  2023-10-26 14:24:20.322326
84  2023-10-26 14:24:20.370231
85  2023-10-26 14:24:20.418125
86  2023-10-26 14:24:20.449918
87  2023-10-26 14:24:20.497789
88  2023-10-26 14:24:20.545741
89  2023-10-26 14:24:20.577656
90  2023-10-26 14:24:20.624562
91  2023-10-26 14:24:20.656445
92  2023-10-26 14:24:20.704351
93  2023-10-26 14:24:20.752221
94  2023-10-26 14:24:20.784136
95  2023-10-26 14:24:20.830979
96  2023-10-26 14:24:20.877890
97  2023-10-26 14:24:20.909816
98  2023-10-26 14:24:20.957641
99  2023-10-26 14:24:20.989582
100  2023-10-26 14:24:21.037457
101  2023-10-26 14:24:21.085347
102  2023-10-26 14:24:21.117261
103  2023-10-26 14:24:21.165120
104  2023-10-26 14:24:21.197041
105  2023-10-26 14:24:21.244903
106  2023-10-26 14:24:21.292776
107  2023-10-26 14:24:21.324691
108  2023-10-26 14:24:21.372579
109  2023-10-26 14:24:21.418494
110  2023-10-26 14:24:21.449395
111  2023-10-26 14:24:21.497267
112  2023-10-26 14:24:21.544177
113  2023-10-26 14:24:21.576057
114  2023-10-26 14:24:21.623929
115  2023-10-26 14:24:21.655843
116  2023-10-26 14:24:21.701829
117  2023-10-26 14:24:21.749701
118  2023-10-26 14:24:21.781616
119  2023-10-26 14:24:21.828490
120  2023-10-26 14:24:21.876376
121  2023-10-26 14:24:21.907313
122  2023-10-26 14:24:21.955152
123  2023-10-26 14:24:22.002538
124  2023-10-26 14:24:22.034455
125  2023-10-26 14:24:22.080333
126  2023-10-26 14:24:22.128237
127  2023-10-26 14:24:22.160306
128  2023-10-26 14:24:22.208065
129  2023-10-26 14:24:22.238983
130  2023-10-26 14:24:22.285895
131  2023-10-26 14:24:22.333828
132  2023-10-26 14:24:22.365727
133  2023-10-26 14:24:22.413609
134  2023-10-26 14:24:22.461476
135  2023-10-26 14:24:22.492412
136  2023-10-26 14:24:22.539345
137  2023-10-26 14:24:22.587150
138  2023-10-26 14:24:22.619016
139  2023-10-26 14:24:22.666888
140  2023-10-26 14:24:22.698803
141  2023-10-26 14:24:22.746722
142  2023-10-26 14:24:22.794725
143  2023-10-26 14:24:22.826619
144  2023-10-26 14:24:22.873491
145  2023-10-26 14:24:22.905374
146  2023-10-26 14:24:22.953292
147  2023-10-26 14:24:23.001215
148  2023-10-26 14:24:23.033201
149  2023-10-26 14:24:23.081163
150  2023-10-26 14:24:23.129135
151  2023-10-26 14:24:23.160997
152  2023-10-26 14:24:23.208977
153  2023-10-26 14:24:23.240868
154  2023-10-26 14:24:23.288706
155  2023-10-26 14:24:23.336578
156  2023-10-26 14:24:23.368493
157  2023-10-26 14:24:23.416295
158  2023-10-26 14:24:23.448210
159  2023-10-26 14:24:23.496082
160  2023-10-26 14:24:23.543954
161  2023-10-26 14:24:23.575999
162  2023-10-26 14:24:23.622743
163  2023-10-26 14:24:23.669618
164  2023-10-26 14:24:23.701533
165  2023-10-26 14:24:23.749405
166  2023-10-26 14:24:23.781319
167  2023-10-26 14:24:23.829204
168  2023-10-26 14:24:23.877101
169  2023-10-26 14:24:23.908990
170  2023-10-26 14:24:23.956863
171  2023-10-26 14:24:23.988809
172  2023-10-26 14:24:24.036737
173  2023-10-26 14:24:24.084610
174  2023-10-26 14:24:24.116583
175  2023-10-26 14:24:24.162539
176  2023-10-26 14:24:24.210446
177  2023-10-26 14:24:24.242383
178  2023-10-26 14:24:24.290198
179  2023-10-26 14:24:24.322113
180  2023-10-26 14:24:24.370017
181  2023-10-26 14:24:24.417857
182  2023-10-26 14:24:24.449771
183  2023-10-26 14:24:24.496646
184  2023-10-26 14:24:24.543521
185  2023-10-26 14:24:24.575471
186  2023-10-26 14:24:24.623307
187  2023-10-26 14:24:24.670215
188  2023-10-26 14:24:24.701140
189  2023-10-26 14:24:24.749002
190  2023-10-26 14:24:24.795885
191  2023-10-26 14:24:24.826764
192  2023-10-26 14:24:24.873684
193  2023-10-26 14:24:24.905589
194  2023-10-26 14:24:24.953425
195  2023-10-26 14:24:24.999303
196  2023-10-26 14:24:25.031217
197  2023-10-26 14:24:25.079090
198  2023-10-26 14:24:25.126961
199  2023-10-26 14:24:25.158875
200  2023-10-26 14:24:25.207747
201  2023-10-26 14:24:25.253622
202  2023-10-26 14:24:25.284539
203  2023-10-26 14:24:25.331451
204  2023-10-26 14:24:25.378289
205  2023-10-26 14:24:25.410204
206  2023-10-26 14:24:25.458075
207  2023-10-26 14:24:25.489990
208  2023-10-26 14:24:25.536865
209  2023-10-26 14:24:25.583869
210  2023-10-26 14:24:25.615087
211  2023-10-26 14:24:25.661962
212  2023-10-26 14:24:25.709854
213  2023-10-26 14:24:25.741931
214  2023-10-26 14:24:25.790006
215  2023-10-26 14:24:25.836852
216  2023-10-26 14:24:25.867851
217  2023-10-26 14:24:25.915773
218  2023-10-26 14:24:25.947672
219  2023-10-26 14:24:25.995544
220  2023-10-26 14:24:26.043418
221  2023-10-26 14:24:26.075339
222  2023-10-26 14:24:26.123223
223  2023-10-26 14:24:26.169135
224  2023-10-26 14:24:26.201062
225  2023-10-26 14:24:26.248887
226  2023-10-26 14:24:26.281022
227  2023-10-26 14:24:26.328899
228  2023-10-26 14:24:26.376756
229  2023-10-26 14:24:26.408663
230  2023-10-26 14:24:26.456555
231  2023-10-26 14:24:26.503386
232  2023-10-26 14:24:26.534369
233  2023-10-26 14:24:26.581171
234  2023-10-26 14:24:26.628046
235  2023-10-26 14:24:26.659960
236  2023-10-26 14:24:26.707833
237  2023-10-26 14:24:26.739747
238  2023-10-26 14:24:26.787619
239  2023-10-26 14:24:26.835491
240  2023-10-26 14:24:26.866443
241  2023-10-26 14:24:26.913283
242  2023-10-26 14:24:26.961155
243  2023-10-26 14:24:26.993070
244  2023-10-26 14:24:27.040991
245  2023-10-26 14:24:27.072960
246  2023-10-26 14:24:27.120838
247  2023-10-26 14:24:27.168761
248  2023-10-26 14:24:27.200627
249  2023-10-26 14:24:27.246502
250  2023-10-26 14:24:27.294374
251  2023-10-26 14:24:27.326289
252  2023-10-26 14:24:27.374195
253  2023-10-26 14:24:27.406172
254  2023-10-26 14:24:27.454291
255  2023-10-26 14:24:27.502328
256  2023-10-26 14:24:27.534121
257  2023-10-26 14:24:27.581950
258  2023-10-26 14:24:27.613865
259  2023-10-26 14:24:27.661794
260  2023-10-26 14:24:27.709642
261  2023-10-26 14:24:27.741550
262  2023-10-26 14:24:27.789395
263  2023-10-26 14:24:27.837305
264  2023-10-26 14:24:27.869223
265  2023-10-26 14:24:27.917272
266  2023-10-26 14:24:27.949203
267  2023-10-26 14:24:27.997138
268  2023-10-26 14:24:28.045040
269  2023-10-26 14:24:28.076131
270  2023-10-26 14:24:28.122997
271  2023-10-26 14:24:28.169840
272  2023-10-26 14:24:28.200804
273  2023-10-26 14:24:28.248629
274  2023-10-26 14:24:28.280579
275  2023-10-26 14:24:28.328466
276  2023-10-26 14:24:28.376467
277  2023-10-26 14:24:28.408203
278  2023-10-26 14:24:28.456080
279  2023-10-26 14:24:28.503990
280  2023-10-26 14:24:28.535894
281  2023-10-26 14:24:28.583765
282  2023-10-26 14:24:28.615682
283  2023-10-26 14:24:28.663685
284  2023-10-26 14:24:28.711857
285  2023-10-26 14:24:28.743773
286  2023-10-26 14:24:28.791611
287  2023-10-26 14:24:28.823573
288  2023-10-26 14:24:28.871574
289  2023-10-26 14:24:28.919270
290  2023-10-26 14:24:28.951193
291  2023-10-26 14:24:28.999311
292  2023-10-26 14:24:29.031258
293  2023-10-26 14:24:29.079096
294  2023-10-26 14:24:29.127039
295  2023-10-26 14:24:29.158884
296  2023-10-26 14:24:29.207813
297  2023-10-26 14:24:29.239693
298  2023-10-26 14:24:29.286543
299  2023-10-26 14:24:29.334447
300  2023-10-26 14:24:29.366363
301  2023-10-26 14:24:29.414249
302  2023-10-26 14:24:29.462119
303  2023-10-26 14:24:29.494034
304  2023-10-26 14:24:29.541861
305  2023-10-26 14:24:29.573831
306  2023-10-26 14:24:29.621685
307  2023-10-26 14:24:29.669521
308  2023-10-26 14:24:29.700438
309  2023-10-26 14:24:29.747358
310  2023-10-26 14:24:29.795317
311  2023-10-26 14:24:29.826101
312  2023-10-26 14:24:29.874003
313  2023-10-26 14:24:29.905920
314  2023-10-26 14:24:29.953759
315  2023-10-26 14:24:30.001676
316  2023-10-26 14:24:30.033591
317  2023-10-26 14:24:30.081418
318  2023-10-26 14:24:30.128318
319  2023-10-26 14:24:30.160232
320  2023-10-26 14:24:30.208147
321  2023-10-26 14:24:30.240050
322  2023-10-26 14:24:30.287891
323  2023-10-26 14:24:30.335794
324  2023-10-26 14:24:30.367714
325  2023-10-26 14:24:30.415550
326  2023-10-26 14:24:30.447464
327  2023-10-26 14:24:30.495336
328  2023-10-26 14:24:30.543243
329  2023-10-26 14:24:30.575154
330  2023-10-26 14:24:30.622995
331  2023-10-26 14:24:30.670867
332  2023-10-26 14:24:30.702782
333  2023-10-26 14:24:30.750654
334  2023-10-26 14:24:30.782568
335  2023-10-26 14:24:30.830526
336  2023-10-26 14:24:30.878312
337  2023-10-26 14:24:30.910275
338  2023-10-26 14:24:30.955107
339  2023-10-26 14:24:31.003013
340  2023-10-26 14:24:31.034929
341  2023-10-26 14:24:31.082801
342  2023-10-26 14:24:31.114712
343  2023-10-26 14:24:31.162552
344  2023-10-26 14:24:31.209462
345  2023-10-26 14:24:31.240379
346  2023-10-26 14:24:31.288250
347  2023-10-26 14:24:31.336121
348  2023-10-26 14:24:31.368053
349  2023-10-26 14:24:31.415907
350  2023-10-26 14:24:31.461752
351  2023-10-26 14:24:31.493713
352  2023-10-26 14:24:31.541572
353  2023-10-26 14:24:31.573455
354  2023-10-26 14:24:31.621326
355  2023-10-26 14:24:31.669250
356  2023-10-26 14:24:31.701149
357  2023-10-26 14:24:31.749030
358  2023-10-26 14:24:31.780939
359  2023-10-26 14:24:31.828818
360  2023-10-26 14:24:31.876709
361  2023-10-26 14:24:31.908764
362  2023-10-26 14:24:31.956708
363  2023-10-26 14:24:32.003585
364  2023-10-26 14:24:32.035516
365  2023-10-26 14:24:32.083369
366  2023-10-26 14:24:32.115285
367  2023-10-26 14:24:32.163194
368  2023-10-26 14:24:32.211066
369  2023-10-26 14:24:32.241983
370  2023-10-26 14:24:32.288893
371  2023-10-26 14:24:32.336799
372  2023-10-26 14:24:32.368714
373  2023-10-26 14:24:32.416552
374  2023-10-26 14:24:32.448467
375  2023-10-26 14:24:32.496339
376  2023-10-26 14:24:32.544246
377  2023-10-26 14:24:32.576160
378  2023-10-26 14:24:32.623998
379  2023-10-26 14:24:32.655912
380  2023-10-26 14:24:32.703824
381  2023-10-26 14:24:32.751656
382  2023-10-26 14:24:32.782574
383  2023-10-26 14:24:32.830446
384  2023-10-26 14:24:32.878318
385  2023-10-26 14:24:32.910276
386  2023-10-26 14:24:32.958192
387  2023-10-26 14:24:32.990019
388  2023-10-26 14:24:33.037941
389  2023-10-26 14:24:33.085763
390  2023-10-26 14:24:33.117845
391  2023-10-26 14:24:33.164827
392  2023-10-26 14:24:33.211698
393  2023-10-26 14:24:33.243609
394  2023-10-26 14:24:33.291436
395  2023-10-26 14:24:33.323351
396  2023-10-26 14:24:33.371277
397  2023-10-26 14:24:33.419142
398  2023-10-26 14:24:33.451057
399  2023-10-26 14:24:33.498936
400  2023-10-26 14:24:33.530844
401  2023-10-26 14:24:33.578763
402  2023-10-26 14:24:33.626588
403  2023-10-26 14:24:33.658503
404  2023-10-26 14:24:33.707374
405  2023-10-26 14:24:33.754247
406  2023-10-26 14:24:33.786161
407  2023-10-26 14:24:33.834075
408  2023-10-26 14:24:33.865948
409  2023-10-26 14:24:33.913864
410  2023-10-26 14:24:33.961692
411  2023-10-26 14:24:33.993613
412  2023-10-26 14:24:34.041512
413  2023-10-26 14:24:34.073460
414  2023-10-26 14:24:34.121265
415  2023-10-26 14:24:34.169187
416  2023-10-26 14:24:34.201102
417  2023-10-26 14:24:34.247927
418  2023-10-26 14:24:34.295866
419  2023-10-26 14:24:34.327781
420  2023-10-26 14:24:34.375687
421  2023-10-26 14:24:34.407569
422  2023-10-26 14:24:34.455440
423  2023-10-26 14:24:34.503360
424  2023-10-26 14:24:34.535227
425  2023-10-26 14:24:34.583098
426  2023-10-26 14:24:34.615013
427  2023-10-26 14:24:34.662885
428  2023-10-26 14:24:34.709795
429  2023-10-26 14:24:34.740708
430  2023-10-26 14:24:34.787584
431  2023-10-26 14:24:34.833477
432  2023-10-26 14:24:34.864348
433  2023-10-26 14:24:34.912278
434  2023-10-26 14:24:34.960091
435  2023-10-26 14:24:34.992123
436  2023-10-26 14:24:35.039912
437  2023-10-26 14:24:35.086752
438  2023-10-26 14:24:35.118669
439  2023-10-26 14:24:35.166571
440  2023-10-26 14:24:35.198504
441  2023-10-26 14:24:35.246325
442  2023-10-26 14:24:35.294197
443  2023-10-26 14:24:35.326112
444  2023-10-26 14:24:35.373984
445  2023-10-26 14:24:35.405900
446  2023-10-26 14:24:35.453770
447  2023-10-26 14:24:35.501643
448  2023-10-26 14:24:35.533565
449  2023-10-26 14:24:35.580463
450  2023-10-26 14:24:35.627390
451  2023-10-26 14:24:35.659305
452  2023-10-26 14:24:35.706213
453  2023-10-26 14:24:35.753054
454  2023-10-26 14:24:35.784969
455  2023-10-26 14:24:35.831871
456  2023-10-26 14:24:35.863758
457  2023-10-26 14:24:35.911701
458  2023-10-26 14:24:35.959502
459  2023-10-26 14:24:35.991583
460  2023-10-26 14:24:36.039289
461  2023-10-26 14:24:36.087161
462  2023-10-26 14:24:36.119076
463  2023-10-26 14:24:36.166949
464  2023-10-26 14:24:36.198879
465  2023-10-26 14:24:36.246734
466  2023-10-26 14:24:36.294606
467  2023-10-26 14:24:36.326521
468  2023-10-26 14:24:36.374466
469  2023-10-26 14:24:36.406345
470  2023-10-26 14:24:36.454249
471  2023-10-26 14:24:36.502089
472  2023-10-26 14:24:36.534004
473  2023-10-26 14:24:36.581879
474  2023-10-26 14:24:36.627753
475  2023-10-26 14:24:36.659667
476  2023-10-26 14:24:36.707629
477  2023-10-26 14:24:36.739567
478  2023-10-26 14:24:36.787422
479  2023-10-26 14:24:36.835309
480  2023-10-26 14:24:36.867211
481  2023-10-26 14:24:36.915080
482  2023-10-26 14:24:36.946998
483  2023-10-26 14:24:36.994881
484  2023-10-26 14:24:37.042834
485  2023-10-26 14:24:37.074672
486  2023-10-26 14:24:37.122526
487  2023-10-26 14:24:37.170400
488  2023-10-26 14:24:37.202323
489  2023-10-26 14:24:37.249186
490  2023-10-26 14:24:37.281100
491  2023-10-26 14:24:37.329012
492  2023-10-26 14:24:37.376914
493  2023-10-26 14:24:37.408829
494  2023-10-26 14:24:37.456721
495  2023-10-26 14:24:37.503579
496  2023-10-26 14:24:37.535509
497  2023-10-26 14:24:37.583366
498  2023-10-26 14:24:37.615279
499  2023-10-26 14:24:37.663151
500  2023-10-26 14:24:37.711027
501  2023-10-26 14:24:37.742969
502  2023-10-26 14:24:37.790810
503  2023-10-26 14:24:37.836690
504  2023-10-26 14:24:37.868570
505  2023-10-26 14:24:37.916473
506  2023-10-26 14:24:37.948406
507  2023-10-26 14:24:37.994233
508  2023-10-26 14:24:38.042139
509  2023-10-26 14:24:38.074046
510  2023-10-26 14:24:38.121892
511  2023-10-26 14:24:38.169805
512  2023-10-26 14:24:38.201725
513  2023-10-26 14:24:38.249551
514  2023-10-26 14:24:38.281498
515  2023-10-26 14:24:38.328340
516  2023-10-26 14:24:38.375216
517  2023-10-26 14:24:38.407344
518  2023-10-26 14:24:38.455177
519  2023-10-26 14:24:38.502248
520  2023-10-26 14:24:38.533133
521  2023-10-26 14:24:38.581004
522  2023-10-26 14:24:38.628876
523  2023-10-26 14:24:38.660791
524  2023-10-26 14:24:38.708663
525  2023-10-26 14:24:38.740609
526  2023-10-26 14:24:38.788450
527  2023-10-26 14:24:38.836322
528  2023-10-26 14:24:38.868236
529  2023-10-26 14:24:38.914295
530  2023-10-26 14:24:38.960244
531  2023-10-26 14:24:38.992169
532  2023-10-26 14:24:39.038137
533  2023-10-26 14:24:39.084039
534  2023-10-26 14:24:39.115015
535  2023-10-26 14:24:39.160934
536  2023-10-26 14:24:39.207870
537  2023-10-26 14:24:39.239724
538  2023-10-26 14:24:39.287595
539  2023-10-26 14:24:39.334470
540  2023-10-26 14:24:39.366385
541  2023-10-26 14:24:39.414351
542  2023-10-26 14:24:39.461227
543  2023-10-26 14:24:39.492145
544  2023-10-26 14:24:39.540046
545  2023-10-26 14:24:39.572038
546  2023-10-26 14:24:39.619910
547  2023-10-26 14:24:39.667782
548  2023-10-26 14:24:39.699696
549  2023-10-26 14:24:39.747595
550  2023-10-26 14:24:39.795440
551  2023-10-26 14:24:39.827355
552  2023-10-26 14:24:39.875276
553  2023-10-26 14:24:39.907172
554  2023-10-26 14:24:39.955014
555  2023-10-26 14:24:40.003063
556  2023-10-26 14:24:40.034924
557  2023-10-26 14:24:40.082796
558  2023-10-26 14:24:40.114742
559  2023-10-26 14:24:40.162680
560  2023-10-26 14:24:40.208589
561  2023-10-26 14:24:40.240520
562  2023-10-26 14:24:40.288345
563  2023-10-26 14:24:40.336252
564  2023-10-26 14:24:40.368180
565  2023-10-26 14:24:40.416052
566  2023-10-26 14:24:40.447952
567  2023-10-26 14:24:40.495837
568  2023-10-26 14:24:40.543708
569  2023-10-26 14:24:40.575628
570  2023-10-26 14:24:40.623447
571  2023-10-26 14:24:40.655396
572  2023-10-26 14:24:40.703268
573  2023-10-26 14:24:40.750140
574  2023-10-26 14:24:40.782056
575  2023-10-26 14:24:40.829896
576  2023-10-26 14:24:40.877809
577  2023-10-26 14:24:40.909700
578  2023-10-26 14:24:40.957601
579  2023-10-26 14:24:40.989521
580  2023-10-26 14:24:41.037343
581  2023-10-26 14:24:41.085260
582  2023-10-26 14:24:41.117160
583  2023-10-26 14:24:41.165117
584  2023-10-26 14:24:41.211930
585  2023-10-26 14:24:41.243834
586  2023-10-26 14:24:41.291661
587  2023-10-26 14:24:41.322616
588  2023-10-26 14:24:41.369537
589  2023-10-26 14:24:41.417425
590  2023-10-26 14:24:41.449340
591  2023-10-26 14:24:41.497212
592  2023-10-26 14:24:41.545131
593  2023-10-26 14:24:41.577072
594  2023-10-26 14:24:41.624945
595  2023-10-26 14:24:41.656910
596  2023-10-26 14:24:41.704816
597  2023-10-26 14:24:41.752654
598  2023-10-26 14:24:41.784568
599  2023-10-26 14:24:41.832491
600  2023-10-26 14:24:41.864439
601  2023-10-26 14:24:41.912380
602  2023-10-26 14:24:41.960203
603  2023-10-26 14:24:41.990271
604  2023-10-26 14:24:42.038510
605  2023-10-26 14:24:42.086382
606  2023-10-26 14:24:42.118297
607  2023-10-26 14:24:42.166203
608  2023-10-26 14:24:42.198162
609  2023-10-26 14:24:42.245955
610  2023-10-26 14:24:42.293827
611  2023-10-26 14:24:42.325742
612  2023-10-26 14:24:42.373662
613  2023-10-26 14:24:42.405663
614  2023-10-26 14:24:42.453502
615  2023-10-26 14:24:42.501546
616  2023-10-26 14:24:42.533290
617  2023-10-26 14:24:42.580163
618  2023-10-26 14:24:42.627038
619  2023-10-26 14:24:42.659064
620  2023-10-26 14:24:42.706982
621  2023-10-26 14:24:42.752899
622  2023-10-26 14:24:42.784985
623  2023-10-26 14:24:42.832857
624  2023-10-26 14:24:42.864771
625  2023-10-26 14:24:42.912645
626  2023-10-26 14:24:42.960685
627  2023-10-26 14:24:42.992523
628  2023-10-26 14:24:43.040476
629  2023-10-26 14:24:43.072406
630  2023-10-26 14:24:43.120229
631  2023-10-26 14:24:43.168151
632  2023-10-26 14:24:43.200049
633  2023-10-26 14:24:43.247935
634  2023-10-26 14:24:43.295760
635  2023-10-26 14:24:43.327724
636  2023-10-26 14:24:43.375593
637  2023-10-26 14:24:43.407497
638  2023-10-26 14:24:43.454341
639  2023-10-26 14:24:43.501248
640  2023-10-26 14:24:43.533238
641  2023-10-26 14:24:43.581199
642  2023-10-26 14:24:43.628046
643  2023-10-26 14:24:43.658997
644  2023-10-26 14:24:43.705873
645  2023-10-26 14:24:43.753800
646  2023-10-26 14:24:43.785789
647  2023-10-26 14:24:43.833769
648  2023-10-26 14:24:43.878632
649  2023-10-26 14:24:43.909516
650  2023-10-26 14:24:43.957386
651  2023-10-26 14:24:43.989301
652  2023-10-26 14:24:44.037176
653  2023-10-26 14:24:44.085045
654  2023-10-26 14:24:44.116960
655  2023-10-26 14:24:44.163834
656  2023-10-26 14:24:44.210740
657  2023-10-26 14:24:44.242815
658  2023-10-26 14:24:44.290839
659  2023-10-26 14:24:44.322872
660  2023-10-26 14:24:44.369892
661  2023-10-26 14:24:44.416767
662  2023-10-26 14:24:44.448683
663  2023-10-26 14:24:44.496523
664  2023-10-26 14:24:44.543438
665  2023-10-26 14:24:44.574348
666  2023-10-26 14:24:44.622186
667  2023-10-26 14:24:44.670091
668  2023-10-26 14:24:44.702093
669  2023-10-26 14:24:44.749953
670  2023-10-26 14:24:44.780864
671  2023-10-26 14:24:44.827752
672  2023-10-26 14:24:44.875612
673  2023-10-26 14:24:44.907497
674  2023-10-26 14:24:44.954417
675  2023-10-26 14:24:45.002242
676  2023-10-26 14:24:45.034192
677  2023-10-26 14:24:45.082083
678  2023-10-26 14:24:45.113980
679  2023-10-26 14:24:45.161815
680  2023-10-26 14:24:45.209718
681  2023-10-26 14:24:45.241676
682  2023-10-26 14:24:45.289473
683  2023-10-26 14:24:45.337394
684  2023-10-26 14:24:45.369418
685  2023-10-26 14:24:45.417132
686  2023-10-26 14:24:45.449046
687  2023-10-26 14:24:45.496918
688  2023-10-26 14:24:45.544820
689  2023-10-26 14:24:45.576859
690  2023-10-26 14:24:45.624761
691  2023-10-26 14:24:45.656660
692  2023-10-26 14:24:45.704509
693  2023-10-26 14:24:45.752456
694  2023-10-26 14:24:45.784354
695  2023-10-26 14:24:45.832201
696  2023-10-26 14:24:45.864121
697  2023-10-26 14:24:45.911950
698  2023-10-26 14:24:45.959819
699  2023-10-26 14:24:45.991772
700  2023-10-26 14:24:46.038646
701  2023-10-26 14:24:46.086480
702  2023-10-26 14:24:46.118430
703  2023-10-26 14:24:46.165270
704  2023-10-26 14:24:46.212144
705  2023-10-26 14:24:46.244059
706  2023-10-26 14:24:46.291931
707  2023-10-26 14:24:46.324018
708  2023-10-26 14:24:46.371718
709  2023-10-26 14:24:46.419589
710  2023-10-26 14:24:46.451504
711  2023-10-26 14:24:46.498379
712  2023-10-26 14:24:46.545327
713  2023-10-26 14:24:46.575501
714  2023-10-26 14:24:46.623471
715  2023-10-26 14:24:46.655386
716  2023-10-26 14:24:46.703305
717  2023-10-26 14:24:46.751130
718  2023-10-26 14:24:46.783078
719  2023-10-26 14:24:46.830917
720  2023-10-26 14:24:46.878830
721  2023-10-26 14:24:46.910752
722  2023-10-26 14:24:46.957578
723  2023-10-26 14:24:47.003517
724  2023-10-26 14:24:47.035413
725  2023-10-26 14:24:47.083275
726  2023-10-26 14:24:47.115205
727  2023-10-26 14:24:47.163029
728  2023-10-26 14:24:47.210930
729  2023-10-26 14:24:47.242844
730  2023-10-26 14:24:47.290733
731  2023-10-26 14:24:47.337600
732  2023-10-26 14:24:47.369506
733  2023-10-26 14:24:47.417384
734  2023-10-26 14:24:47.449300
735  2023-10-26 14:24:47.497185
736  2023-10-26 14:24:47.545043
737  2023-10-26 14:24:47.576969
738  2023-10-26 14:24:47.624826
739  2023-10-26 14:24:47.656740
740  2023-10-26 14:24:47.704613
741  2023-10-26 14:24:47.752501
742  2023-10-26 14:24:47.784402
743  2023-10-26 14:24:47.832277
744  2023-10-26 14:24:47.864181
745  2023-10-26 14:24:47.912059
746  2023-10-26 14:24:47.959945
747  2023-10-26 14:24:47.991848
748  2023-10-26 14:24:48.039719
749  2023-10-26 14:24:48.087603
750  2023-10-26 14:24:48.119509
751  2023-10-26 14:24:48.167379
752  2023-10-26 14:24:48.200288
753  2023-10-26 14:24:48.247166
754  2023-10-26 14:24:48.295087
755  2023-10-26 14:24:48.326963
756  2023-10-26 14:24:48.374860
757  2023-10-26 14:24:48.406705
758  2023-10-26 14:24:48.454623
759  2023-10-26 14:24:48.501458
760  2023-10-26 14:24:48.534370
761  2023-10-26 14:24:48.580240
762  2023-10-26 14:24:48.628111
763  2023-10-26 14:24:48.660027
764  2023-10-26 14:24:48.707898
765  2023-10-26 14:24:48.739813
766  2023-10-26 14:24:48.787685
767  2023-10-26 14:24:48.835557
768  2023-10-26 14:24:48.866474
769  2023-10-26 14:24:48.913384
770  2023-10-26 14:24:48.961221
771  2023-10-26 14:24:48.993136
772  2023-10-26 14:24:49.041060
773  2023-10-26 14:24:49.072957
774  2023-10-26 14:24:49.120794
775  2023-10-26 14:24:49.168666
776  2023-10-26 14:24:49.200581
777  2023-10-26 14:24:49.246490
778  2023-10-26 14:24:49.294330
779  2023-10-26 14:24:49.326245
780  2023-10-26 14:24:49.374118
781  2023-10-26 14:24:49.406033
782  2023-10-26 14:24:49.453904
783  2023-10-26 14:24:49.501810
784  2023-10-26 14:24:49.533690
785  2023-10-26 14:24:49.581597
786  2023-10-26 14:24:49.628437
787  2023-10-26 14:24:49.659354
788  2023-10-26 14:24:49.707268
789  2023-10-26 14:24:49.754101
790  2023-10-26 14:24:49.786046
791  2023-10-26 14:24:49.831929
792  2023-10-26 14:24:49.863853
793  2023-10-26 14:24:49.911715
794  2023-10-26 14:24:49.959585
795  2023-10-26 14:24:49.991503
796  2023-10-26 14:24:50.037379
797  2023-10-26 14:24:50.085251
798  2023-10-26 14:24:50.117163
799  2023-10-26 14:24:50.165071
800  2023-10-26 14:24:50.196975
801  2023-10-26 14:24:50.243829
802  2023-10-26 14:24:50.291666
803  2023-10-26 14:24:50.336545
804  2023-10-26 14:24:50.368460
805  2023-10-26 14:24:50.416364
806  2023-10-26 14:24:50.448589
807  2023-10-26 14:24:50.496238
808  2023-10-26 14:24:50.544144
809  2023-10-26 14:24:50.576072
810  2023-10-26 14:24:50.623897
811  2023-10-26 14:24:50.669897
812  2023-10-26 14:24:50.701731
813  2023-10-26 14:24:50.749571
814  2023-10-26 14:24:50.781598
815  2023-10-26 14:24:50.828522
816  2023-10-26 14:24:50.874444
817  2023-10-26 14:24:50.905349
818  2023-10-26 14:24:50.953300
819  2023-10-26 14:24:51.001141
820  2023-10-26 14:24:51.033055
821  2023-10-26 14:24:51.080962
822  2023-10-26 14:24:51.128905
823  2023-10-26 14:24:51.160812
824  2023-10-26 14:24:51.207702
825  2023-10-26 14:24:51.239570
826  2023-10-26 14:24:51.287486
827  2023-10-26 14:24:51.335364
828  2023-10-26 14:24:51.367262
829  2023-10-26 14:24:51.415133
830  2023-10-26 14:24:51.461975
831  2023-10-26 14:24:51.494088
832  2023-10-26 14:24:51.541924
833  2023-10-26 14:24:51.573872
834  2023-10-26 14:24:51.621762
835  2023-10-26 14:24:51.669630
836  2023-10-26 14:24:51.700500
837  2023-10-26 14:24:51.748406
838  2023-10-26 14:24:51.780338
839  2023-10-26 14:24:51.828159
840  2023-10-26 14:24:51.876075
841  2023-10-26 14:24:51.907977
842  2023-10-26 14:24:51.955863
843  2023-10-26 14:24:52.003748
844  2023-10-26 14:24:52.035754
845  2023-10-26 14:24:52.083477
846  2023-10-26 14:24:52.115422
847  2023-10-26 14:24:52.163331
848  2023-10-26 14:24:52.211170
849  2023-10-26 14:24:52.243128
850  2023-10-26 14:24:52.290967
851  2023-10-26 14:24:52.322913
852  2023-10-26 14:24:52.370770
853  2023-10-26 14:24:52.418624
854  2023-10-26 14:24:52.450528
855  2023-10-26 14:24:52.498367
856  2023-10-26 14:24:52.545304
857  2023-10-26 14:24:52.576194
858  2023-10-26 14:24:52.624031
859  2023-10-26 14:24:52.655946
860  2023-10-26 14:24:52.703864
861  2023-10-26 14:24:52.750724
862  2023-10-26 14:24:52.781646
863  2023-10-26 14:24:52.828484
864  2023-10-26 14:24:52.877387
865  2023-10-26 14:24:52.908303
866  2023-10-26 14:24:52.956143
867  2023-10-26 14:24:53.004046
868  2023-10-26 14:24:53.035969
869  2023-10-26 14:24:53.083833
870  2023-10-26 14:24:53.115763
871  2023-10-26 14:24:53.163589
872  2023-10-26 14:24:53.211497
873  2023-10-26 14:24:53.243409
874  2023-10-26 14:24:53.291247
875  2023-10-26 14:24:53.322165
876  2023-10-26 14:24:53.370069
877  2023-10-26 14:24:53.417909
878  2023-10-26 14:24:53.449823
879  2023-10-26 14:24:53.497695
880  2023-10-26 14:24:53.545724
881  2023-10-26 14:24:53.577514
882  2023-10-26 14:24:53.625354
883  2023-10-26 14:24:53.657269
884  2023-10-26 14:24:53.705186
885  2023-10-26 14:24:53.753013
886  2023-10-26 14:24:53.783930
887  2023-10-26 14:24:53.831064
888  2023-10-26 14:24:53.878358
889  2023-10-26 14:24:53.910264
890  2023-10-26 14:24:53.956146
891  2023-10-26 14:24:54.002065
892  2023-10-26 14:24:54.034051
893  2023-10-26 14:24:54.079929
894  2023-10-26 14:24:54.126754
895  2023-10-26 14:24:54.158668
896  2023-10-26 14:24:54.206590
897  2023-10-26 14:24:54.253415
898  2023-10-26 14:24:54.284368
899  2023-10-26 14:24:54.332204
900  2023-10-26 14:24:54.364119
901  2023-10-26 14:24:54.412072
902  2023-10-26 14:24:54.459978
903  2023-10-26 14:24:54.491893
904  2023-10-26 14:24:54.539796
905  2023-10-26 14:24:54.585642
906  2023-10-26 14:24:54.617557
907  2023-10-26 14:24:54.665429
908  2023-10-26 14:24:54.697343
909  2023-10-26 14:24:54.745264
910  2023-10-26 14:24:54.793087
911  2023-10-26 14:24:54.825002
912  2023-10-26 14:24:54.872914
913  2023-10-26 14:24:54.920746
914  2023-10-26 14:24:54.952661
915  2023-10-26 14:24:55.000579
916  2023-10-26 14:24:55.032496
917  2023-10-26 14:24:55.078361
918  2023-10-26 14:24:55.126230
919  2023-10-26 14:24:55.157159
920  2023-10-26 14:24:55.203024
921  2023-10-26 14:24:55.249900
922  2023-10-26 14:24:55.281881
923  2023-10-26 14:24:55.328721
924  2023-10-26 14:24:55.376746
925  2023-10-26 14:24:55.408544
926  2023-10-26 14:24:55.456419
927  2023-10-26 14:24:55.503296
928  2023-10-26 14:24:55.535203
929  2023-10-26 14:24:55.583079
930  2023-10-26 14:24:55.614986
931  2023-10-26 14:24:55.662828
932  2023-10-26 14:24:55.710752
933  2023-10-26 14:24:55.741620
934  2023-10-26 14:24:55.788492
935  2023-10-26 14:24:55.836410
936  2023-10-26 14:24:55.868279
937  2023-10-26 14:24:55.916177
938  2023-10-26 14:24:55.947101
939  2023-10-26 14:24:55.993942
940  2023-10-26 14:24:56.040848
941  2023-10-26 14:24:56.086694
942  2023-10-26 14:24:56.118699
943  2023-10-26 14:24:56.166481
944  2023-10-26 14:24:56.198430
945  2023-10-26 14:24:56.246268
946  2023-10-26 14:24:56.294140
947  2023-10-26 14:24:56.326054
948  2023-10-26 14:24:56.373927
949  2023-10-26 14:24:56.405876
950  2023-10-26 14:24:56.453713
951  2023-10-26 14:24:56.501621
952  2023-10-26 14:24:56.533500
953  2023-10-26 14:24:56.580408
954  2023-10-26 14:24:56.628281
955  2023-10-26 14:24:56.660194
956  2023-10-26 14:24:56.708063
957  2023-10-26 14:24:56.753944
958  2023-10-26 14:24:56.785872
959  2023-10-26 14:24:56.832752
960  2023-10-26 14:24:56.863666
961  2023-10-26 14:24:56.911581
962  2023-10-26 14:24:56.959361
963  2023-10-26 14:24:56.991312
964  2023-10-26 14:24:57.039182
965  2023-10-26 14:24:57.086024
966  2023-10-26 14:24:57.117968
967  2023-10-26 14:24:57.165810
968  2023-10-26 14:24:57.197760
969  2023-10-26 14:24:57.245626
970  2023-10-26 14:24:57.292471
971  2023-10-26 14:24:57.324388
972  2023-10-26 14:24:57.372291
973  2023-10-26 14:24:57.420230
974  2023-10-26 14:24:57.453142
975  2023-10-26 14:24:57.500126
976  2023-10-26 14:24:57.532040
977  2023-10-26 14:24:57.579955
978  2023-10-26 14:24:57.627884
979  2023-10-26 14:24:57.660073
980  2023-10-26 14:24:57.707823
981  2023-10-26 14:24:57.739741
982  2023-10-26 14:24:57.787579
983  2023-10-26 14:24:57.834488
984  2023-10-26 14:24:57.865371
985  2023-10-26 14:24:57.913420
986  2023-10-26 14:24:57.961242
987  2023-10-26 14:24:57.993157
988  2023-10-26 14:24:58.041063
989  2023-10-26 14:24:58.072976
990  2023-10-26 14:24:58.119818
991  2023-10-26 14:24:58.167730
992  2023-10-26 14:24:58.197611
993  2023-10-26 14:24:58.245482
994  2023-10-26 14:24:58.293354
995  2023-10-26 14:24:58.325269
996  2023-10-26 14:24:58.373148
997  2023-10-26 14:24:58.420051
998  2023-10-26 14:24:58.450968
999  2023-10-26 14:24:58.498841
1000  2023-10-26 14:24:58.544716
1001  2023-10-26 14:24:58.576642
1002  2023-10-26 14:24:58.624605
1003  2023-10-26 14:24:58.656507
1004  2023-10-26 14:24:58.704379
1005  2023-10-26 14:24:58.750271
1006  2023-10-26 14:24:58.782179
1007  2023-10-26 14:24:58.830009
1008  2023-10-26 14:24:58.878070
1009  2023-10-26 14:24:58.909948
1010  2023-10-26 14:24:58.957817
1011  2023-10-26 14:24:58.989787
1012  2023-10-26 14:24:59.037654
1013  2023-10-26 14:24:59.083531
1014  2023-10-26 14:24:59.115529
1015  2023-10-26 14:24:59.163398
1016  2023-10-26 14:24:59.211288
1017  2023-10-26 14:24:59.242323
1018  2023-10-26 14:24:59.289232
1019  2023-10-26 14:24:59.337138
1020  2023-10-26 14:24:59.367025
1021  2023-10-26 14:24:59.414896
1022  2023-10-26 14:24:59.461771
1023  2023-10-26 14:24:59.492688
1024  2023-10-26 14:24:59.541599
1025  2023-10-26 14:24:59.572475
1026  2023-10-26 14:24:59.618384
1027  2023-10-26 14:24:59.666273
1028  2023-10-26 14:24:59.698177
1029  2023-10-26 14:24:59.746059
1030  2023-10-26 14:24:59.793883
1031  2023-10-26 14:24:59.825830
1032  2023-10-26 14:24:59.873670
1033  2023-10-26 14:24:59.905622
1034  2023-10-26 14:24:59.953490
1035  2023-10-26 14:24:59.998336
1036  2023-10-26 14:25:00.045276
1037  2023-10-26 14:25:00.077161
1038  2023-10-26 14:25:00.125039
1039  2023-10-26 14:25:00.156913
1040  2023-10-26 14:25:00.204835
1041  2023-10-26 14:25:00.252700
1042  2023-10-26 14:25:00.284574
1043  2023-10-26 14:25:00.332512
1044  2023-10-26 14:25:00.378357
1045  2023-10-26 14:25:00.410270
1046  2023-10-26 14:25:00.458107
1047  2023-10-26 14:25:00.491059
1048  2023-10-26 14:25:00.538022
1049  2023-10-26 14:25:00.585858
1050  2023-10-26 14:25:00.616775
1051  2023-10-26 14:25:00.663283
1052  2023-10-26 14:25:00.711194
1053  2023-10-26 14:25:00.742197
1054  2023-10-26 14:25:00.789035
1055  2023-10-26 14:25:00.836995
1056  2023-10-26 14:25:00.868909
1057  2023-10-26 14:25:00.916781
1058  2023-10-26 14:25:00.948696
1059  2023-10-26 14:25:00.996568
1060  2023-10-26 14:25:01.044440
1061  2023-10-26 14:25:01.076355
1062  2023-10-26 14:25:01.123280
1063  2023-10-26 14:25:01.170136
1064  2023-10-26 14:25:01.201068
1065  2023-10-26 14:25:01.249042
1066  2023-10-26 14:25:01.280963
1067  2023-10-26 14:25:01.328842
1068  2023-10-26 14:25:01.375718
1069  2023-10-26 14:25:01.406668
1070  2023-10-26 14:25:01.454491
1071  2023-10-26 14:25:01.502331
1072  2023-10-26 14:25:01.534296
1073  2023-10-26 14:25:01.582149
1074  2023-10-26 14:25:01.614077
1075  2023-10-26 14:25:01.661952
1076  2023-10-26 14:25:01.708818
1077  2023-10-26 14:25:01.739731
1078  2023-10-26 14:25:01.787569
1079  2023-10-26 14:25:01.835478
1080  2023-10-26 14:25:01.867409
1081  2023-10-26 14:25:01.916257
1082  2023-10-26 14:25:01.947176
1083  2023-10-26 14:25:01.995076
1084  2023-10-26 14:25:02.043021
1085  2023-10-26 14:25:02.075871
1086  2023-10-26 14:25:02.122780
1087  2023-10-26 14:25:02.171569
1088  2023-10-26 14:25:02.203492
1089  2023-10-26 14:25:02.251409
1090  2023-10-26 14:25:02.283306
1091  2023-10-26 14:25:02.331204
1092  2023-10-26 14:25:02.378046
1093  2023-10-26 14:25:02.409964
1094  2023-10-26 14:25:02.456805
1095  2023-10-26 14:25:02.503852
1096  2023-10-26 14:25:02.535770
1097  2023-10-26 14:25:02.583588
1098  2023-10-26 14:25:02.614505
1099  2023-10-26 14:25:02.661380
1100  2023-10-26 14:25:02.709252
1101  2023-10-26 14:25:02.741169
1102  2023-10-26 14:25:02.789039
1103  2023-10-26 14:25:02.836911
1104  2023-10-26 14:25:02.868826
1105  2023-10-26 14:25:02.916697
1106  2023-10-26 14:25:02.961580
1107  2023-10-26 14:25:02.992542
1108  2023-10-26 14:25:03.040415
1109  2023-10-26 14:25:03.072314
1110  2023-10-26 14:25:03.119191
1111  2023-10-26 14:25:03.167080
1112  2023-10-26 14:25:03.198978
1113  2023-10-26 14:25:03.246849
1114  2023-10-26 14:25:03.292739
1115  2023-10-26 14:25:03.323644
1116  2023-10-26 14:25:03.371516
1117  2023-10-26 14:25:03.419353
1118  2023-10-26 14:25:03.451432
1119  2023-10-26 14:25:03.499191
1120  2023-10-26 14:25:03.531159
1121  2023-10-26 14:25:03.579033
1122  2023-10-26 14:25:03.625054
1123  2023-10-26 14:25:03.657028
1124  2023-10-26 14:25:03.702989
1125  2023-10-26 14:25:03.750827
1126  2023-10-26 14:25:03.782742
1127  2023-10-26 14:25:03.831645
1128  2023-10-26 14:25:03.877490
1129  2023-10-26 14:25:03.908406
1130  2023-10-26 14:25:03.956278
1131  2023-10-26 14:25:04.004150
1132  2023-10-26 14:25:04.036064
1133  2023-10-26 14:25:04.082972
1134  2023-10-26 14:25:04.113903
1135  2023-10-26 14:25:04.161728
1136  2023-10-26 14:25:04.209649
1137  2023-10-26 14:25:04.241515
1138  2023-10-26 14:25:04.289422
1139  2023-10-26 14:25:04.337259
1140  2023-10-26 14:25:04.369287
1141  2023-10-26 14:25:04.417262
1142  2023-10-26 14:25:04.449240
1143  2023-10-26 14:25:04.496535
1144  2023-10-26 14:25:04.544447
1145  2023-10-26 14:25:04.576347
1146  2023-10-26 14:25:04.624229
1147  2023-10-26 14:25:04.670109
1148  2023-10-26 14:25:04.701977
1149  2023-10-26 14:25:04.748068
1150  2023-10-26 14:25:04.794906
1151  2023-10-26 14:25:04.826790
1152  2023-10-26 14:25:04.872680
1153  2023-10-26 14:25:04.920582
1154  2023-10-26 14:25:04.952453
1155  2023-10-26 14:25:05.001429
1156  2023-10-26 14:25:05.032240
1157  2023-10-26 14:25:05.081142
1158  2023-10-26 14:25:05.127983
1159  2023-10-26 14:25:05.159944
1160  2023-10-26 14:25:05.206775
1161  2023-10-26 14:25:05.253647
1162  2023-10-26 14:25:05.284564
1163  2023-10-26 14:25:05.331439
1164  2023-10-26 14:25:05.378382
1165  2023-10-26 14:25:05.410228
1166  2023-10-26 14:25:05.458132
1167  2023-10-26 14:25:05.490122
1168  2023-10-26 14:25:05.538069
1169  2023-10-26 14:25:05.585906
1170  2023-10-26 14:25:05.617727
1171  2023-10-26 14:25:05.665653
1172  2023-10-26 14:25:05.697416
1173  2023-10-26 14:25:05.745340
1174  2023-10-26 14:25:05.793161
1175  2023-10-26 14:25:05.825111
1176  2023-10-26 14:25:05.872947
1177  2023-10-26 14:25:05.920022
1178  2023-10-26 14:25:05.950931
1179  2023-10-26 14:25:05.998802
1180  2023-10-26 14:25:06.030731
1181  2023-10-26 14:25:06.078651
1182  2023-10-26 14:25:06.126475
1183  2023-10-26 14:25:06.158534
1184  2023-10-26 14:25:06.206431
1185  2023-10-26 14:25:06.253383
1186  2023-10-26 14:25:06.284294
1187  2023-10-26 14:25:06.331129
1188  2023-10-26 14:25:06.379053
1189  2023-10-26 14:25:06.410958
1190  2023-10-26 14:25:06.458930
1191  2023-10-26 14:25:06.490832
1192  2023-10-26 14:25:06.536725
1193  2023-10-26 14:25:06.584595
1194  2023-10-26 14:25:06.616511
1195  2023-10-26 14:25:06.664376
1196  2023-10-26 14:25:06.712259
1197  2023-10-26 14:25:06.742180
1198  2023-10-26 14:25:06.789999
1199  2023-10-26 14:25:06.836874
1200  2023-10-26 14:25:06.867791
1201  2023-10-26 14:25:06.915663
1202  2023-10-26 14:25:06.947627
1203  2023-10-26 14:25:06.995449
1204  2023-10-26 14:25:07.041327
1205  2023-10-26 14:25:07.073241
1206  2023-10-26 14:25:07.121165
1207  2023-10-26 14:25:07.168985
1208  2023-10-26 14:25:07.200900
1209  2023-10-26 14:25:07.248819
1210  2023-10-26 14:25:07.280736
1211  2023-10-26 14:25:07.327561
1212  2023-10-26 14:25:07.375480
1213  2023-10-26 14:25:07.407348
1214  2023-10-26 14:25:07.455268
1215  2023-10-26 14:25:07.503092
1216  2023-10-26 14:25:07.535007
1217  2023-10-26 14:25:07.581921
1218  2023-10-26 14:25:07.628790
1219  2023-10-26 14:25:07.660705
1220  2023-10-26 14:25:07.706583
1221  2023-10-26 14:25:07.753456
1222  2023-10-26 14:25:07.784374
1223  2023-10-26 14:25:07.831256
1224  2023-10-26 14:25:07.879120
1225  2023-10-26 14:25:07.911035
1226  2023-10-26 14:25:07.957915
1227  2023-10-26 14:25:08.002756
1228  2023-10-26 14:25:08.034628
1229  2023-10-26 14:25:08.082564
1230  2023-10-26 14:25:08.114479
1231  2023-10-26 14:25:08.162384
1232  2023-10-26 14:25:08.210255
1233  2023-10-26 14:25:08.241173
1234  2023-10-26 14:25:08.288093
1235  2023-10-26 14:25:08.335919
1236  2023-10-26 14:25:08.367867
1237  2023-10-26 14:25:08.415747
1238  2023-10-26 14:25:08.447667
1239  2023-10-26 14:25:08.495493
1240  2023-10-26 14:25:08.543420
1241  2023-10-26 14:25:08.575279
1242  2023-10-26 14:25:08.622197
1243  2023-10-26 14:25:08.669029
1244  2023-10-26 14:25:08.700943
1245  2023-10-26 14:25:08.748818
1246  2023-10-26 14:25:08.780743
1247  2023-10-26 14:25:08.828602
1248  2023-10-26 14:25:08.877554
1249  2023-10-26 14:25:08.909442
1250  2023-10-26 14:25:08.956261
1251  2023-10-26 14:25:09.004307
1252  2023-10-26 14:25:09.036094
1253  2023-10-26 14:25:09.083950
1254  2023-10-26 14:25:09.115872
1255  2023-10-26 14:25:09.163706
1256  2023-10-26 14:25:09.211612
1257  2023-10-26 14:25:09.243527
1258  2023-10-26 14:25:09.291398
1259  2023-10-26 14:25:09.323280
1260  2023-10-26 14:25:09.369200
1261  2023-10-26 14:25:09.417075
1262  2023-10-26 14:25:09.448995
1263  2023-10-26 14:25:09.496846
1264  2023-10-26 14:25:09.544877
1265  2023-10-26 14:25:09.576634
1266  2023-10-26 14:25:09.624508
1267  2023-10-26 14:25:09.656420
1268  2023-10-26 14:25:09.704303
1269  2023-10-26 14:25:09.752165
1270  2023-10-26 14:25:09.784091
1271  2023-10-26 14:25:09.831998
1272  2023-10-26 14:25:09.863866
1273  2023-10-26 14:25:09.911746
1274  2023-10-26 14:25:09.959625
1275  2023-10-26 14:25:09.991539
1276  2023-10-26 14:25:10.039523
1277  2023-10-26 14:25:10.087272
1278  2023-10-26 14:25:10.119186
1279  2023-10-26 14:25:10.167027
1280  2023-10-26 14:25:10.198976
1281  2023-10-26 14:25:10.246845
1282  2023-10-26 14:25:10.294728
1283  2023-10-26 14:25:10.326629
1284  2023-10-26 14:25:10.374503
1285  2023-10-26 14:25:10.406470
1286  2023-10-26 14:25:10.454289
1287  2023-10-26 14:25:10.502198
1288  2023-10-26 14:25:10.534045
1289  2023-10-26 14:25:10.581914
1290  2023-10-26 14:25:10.613867
1291  2023-10-26 14:25:10.661764
1292  2023-10-26 14:25:10.709610
1293  2023-10-26 14:25:10.741505
1294  2023-10-26 14:25:10.787390
1295  2023-10-26 14:25:10.835268
1296  2023-10-26 14:25:10.867183
1297  2023-10-26 14:25:10.915048
1298  2023-10-26 14:25:10.946992
1299  2023-10-26 14:25:10.994851
1300  2023-10-26 14:25:11.042684
1301  2023-10-26 14:25:11.074597
1302  2023-10-26 14:25:11.122684
1303  2023-10-26 14:25:11.170342
1304  2023-10-26 14:25:11.203255
1305  2023-10-26 14:25:11.251160
1306  2023-10-26 14:25:11.283075
1307  2023-10-26 14:25:11.330974
1308  2023-10-26 14:25:11.377787
1309  2023-10-26 14:25:11.409701
1310  2023-10-26 14:25:11.457599
1311  2023-10-26 14:25:11.489533
1312  2023-10-26 14:25:11.537361
1313  2023-10-26 14:25:11.585265
1314  2023-10-26 14:25:11.617180
1315  2023-10-26 14:25:11.665020
1316  2023-10-26 14:25:11.696949
1317  2023-10-26 14:25:11.744838
1318  2023-10-26 14:25:11.792727
1319  2023-10-26 14:25:11.824624
1320  2023-10-26 14:25:11.872465
1321  2023-10-26 14:25:11.920362
1322  2023-10-26 14:25:11.952276
1323  2023-10-26 14:25:12.000124
1324  2023-10-26 14:25:12.032039
1325  2023-10-26 14:25:12.079961
1326  2023-10-26 14:25:12.127783
1327  2023-10-26 14:25:12.159727
1328  2023-10-26 14:25:12.207569
1329  2023-10-26 14:25:12.239484
1330  2023-10-26 14:25:12.287389
1331  2023-10-26 14:25:12.335228
1332  2023-10-26 14:25:12.367143
1333  2023-10-26 14:25:12.414017
1334  2023-10-26 14:25:12.461890
1335  2023-10-26 14:25:12.493933
1336  2023-10-26 14:25:12.540713
1337  2023-10-26 14:25:12.587554
1338  2023-10-26 14:25:12.619499
1339  2023-10-26 14:25:12.667340
1340  2023-10-26 14:25:12.699255
1341  2023-10-26 14:25:12.746172
1342  2023-10-26 14:25:12.792037
1343  2023-10-26 14:25:12.822959
1344  2023-10-26 14:25:12.870795
1345  2023-10-26 14:25:12.918717
1346  2023-10-26 14:25:12.950583
1347  2023-10-26 14:25:12.998489
1348  2023-10-26 14:25:13.030403
1349  2023-10-26 14:25:13.078276
1350  2023-10-26 14:25:13.126148
1351  2023-10-26 14:25:13.156080
1352  2023-10-26 14:25:13.203935
1353  2023-10-26 14:25:13.251810
1354  2023-10-26 14:25:13.283738
1355  2023-10-26 14:25:13.331564
1356  2023-10-26 14:25:13.378471
1357  2023-10-26 14:25:13.409387
1358  2023-10-26 14:25:13.457261
1359  2023-10-26 14:25:13.489188
1360  2023-10-26 14:25:13.537015
1361  2023-10-26 14:25:13.584915
1362  2023-10-26 14:25:13.615838
1363  2023-10-26 14:25:13.663676
1364  2023-10-26 14:25:13.711581
1365  2023-10-26 14:25:13.743463
1366  2023-10-26 14:25:13.791382
1367  2023-10-26 14:25:13.823282
1368  2023-10-26 14:25:13.870124
1369  2023-10-26 14:25:13.918031
1370  2023-10-26 14:25:13.948947
1371  2023-10-26 14:25:13.995990
1372  2023-10-26 14:25:14.043895
1373  2023-10-26 14:25:14.074810
1374  2023-10-26 14:25:14.122651
1375  2023-10-26 14:25:14.170640
1376  2023-10-26 14:25:14.202473
1377  2023-10-26 14:25:14.250310
1378  2023-10-26 14:25:14.282258
1379  2023-10-26 14:25:14.330096
1380  2023-10-26 14:25:14.377995
1381  2023-10-26 14:25:14.409909
1382  2023-10-26 14:25:14.457755
1383  2023-10-26 14:25:14.489670
1384  2023-10-26 14:25:14.537575
1385  2023-10-26 14:25:14.585414
1386  2023-10-26 14:25:14.617328
1387  2023-10-26 14:25:14.665200
1388  2023-10-26 14:25:14.697115
1389  2023-10-26 14:25:14.745037
1390  2023-10-26 14:25:14.791862
1391  2023-10-26 14:25:14.822779
1392  2023-10-26 14:25:14.870699
1393  2023-10-26 14:25:14.917558
1394  2023-10-26 14:25:14.948509
1395  2023-10-26 14:25:14.996504
1396  2023-10-26 14:25:15.044220
1397  2023-10-26 14:25:15.076136
1398  2023-10-26 14:25:15.124009
1399  2023-10-26 14:25:15.155922
1400  2023-10-26 14:25:15.203794
1401  2023-10-26 14:25:15.250670
1402  2023-10-26 14:25:15.281608
1403  2023-10-26 14:25:15.329424
1404  2023-10-26 14:25:15.375302
1405  2023-10-26 14:25:15.407256
1406  2023-10-26 14:25:15.456122
1407  2023-10-26 14:25:15.503992
1408  2023-10-26 14:25:15.535905
1409  2023-10-26 14:25:15.581802
1410  2023-10-26 14:25:15.627627
1411  2023-10-26 14:25:15.659542
1412  2023-10-26 14:25:15.707531
1413  2023-10-26 14:25:15.739412
1414  2023-10-26 14:25:15.787320
1415  2023-10-26 14:25:15.835275
1416  2023-10-26 14:25:15.867155
1417  2023-10-26 14:25:15.915060
1418  2023-10-26 14:25:15.961902
1419  2023-10-26 14:25:15.992819
1420  2023-10-26 14:25:16.040722
1421  2023-10-26 14:25:16.072607
1422  2023-10-26 14:25:16.120478
1423  2023-10-26 14:25:16.168403
1424  2023-10-26 14:25:16.199301
1425  2023-10-26 14:25:16.247139
1426  2023-10-26 14:25:16.295011
1427  2023-10-26 14:25:16.326926
1428  2023-10-26 14:25:16.374799
1429  2023-10-26 14:25:16.405716
1430  2023-10-26 14:25:16.452627
1431  2023-10-26 14:25:16.500495
1432  2023-10-26 14:25:16.532428
1433  2023-10-26 14:25:16.580478
1434  2023-10-26 14:25:16.628167
1435  2023-10-26 14:25:16.660068
1436  2023-10-26 14:25:16.707939
1437  2023-10-26 14:25:16.739864
1438  2023-10-26 14:25:16.787807
1439  2023-10-26 14:25:16.835691
1440  2023-10-26 14:25:16.866613
1441  2023-10-26 14:25:16.913474
1442  2023-10-26 14:25:16.959384
1443  2023-10-26 14:25:16.992338
1444  2023-10-26 14:25:17.039201
1445  2023-10-26 14:25:17.087086
1446  2023-10-26 14:25:17.119022
1447  2023-10-26 14:25:17.165831
1448  2023-10-26 14:25:17.197778
1449  2023-10-26 14:25:17.246659
1450  2023-10-26 14:25:17.294520
1451  2023-10-26 14:25:17.326405
1452  2023-10-26 14:25:17.373309
1453  2023-10-26 14:25:17.420189
1454  2023-10-26 14:25:17.451070
1455  2023-10-26 14:25:17.498940
1456  2023-10-26 14:25:17.530855
1457  2023-10-26 14:25:17.578802
1458  2023-10-26 14:25:17.626697
1459  2023-10-26 14:25:17.658711
1460  2023-10-26 14:25:17.706781
1461  2023-10-26 14:25:17.738731
1462  2023-10-26 14:25:17.786639
1463  2023-10-26 14:25:17.832556
1464  2023-10-26 14:25:17.864431
1465  2023-10-26 14:25:17.912337
1466  2023-10-26 14:25:17.959178
1467  2023-10-26 14:25:17.990095
1468  2023-10-26 14:25:18.038002
1469  2023-10-26 14:25:18.085839
1470  2023-10-26 14:25:18.117754
1471  2023-10-26 14:25:18.164666
1472  2023-10-26 14:25:18.211535
1473  2023-10-26 14:25:18.242450
1474  2023-10-26 14:25:18.289526
1475  2023-10-26 14:25:18.337215
1476  2023-10-26 14:25:18.369113
1477  2023-10-26 14:25:18.416998
1478  2023-10-26 14:25:18.448913
1479  2023-10-26 14:25:18.495775
1480  2023-10-26 14:25:18.543648
1481  2023-10-26 14:25:18.575561
1482  2023-10-26 14:25:18.623480
1483  2023-10-26 14:25:18.655370
1484  2023-10-26 14:25:18.702192
1485  2023-10-26 14:25:18.749098
1486  2023-10-26 14:25:18.781012
1487  2023-10-26 14:25:18.828885
1488  2023-10-26 14:25:18.877764
1489  2023-10-26 14:25:18.908671
1490  2023-10-26 14:25:18.956701
1491  2023-10-26 14:25:18.988616
1492  2023-10-26 14:25:19.036548
1493  2023-10-26 14:25:19.083434
1494  2023-10-26 14:25:19.114305
1495  2023-10-26 14:25:19.162151
1496  2023-10-26 14:25:19.210055
1497  2023-10-26 14:25:19.241969
1498  2023-10-26 14:25:19.289809
1499  2023-10-26 14:25:19.336732
1500  2023-10-26 14:25:19.367603
1501  2023-10-26 14:25:19.415473
1502  2023-10-26 14:25:19.447388
1503  2023-10-26 14:25:19.495260
1504  2023-10-26 14:25:19.543167
1505  2023-10-26 14:25:19.575061
1506  2023-10-26 14:25:19.622919
1507  2023-10-26 14:25:19.670803
1508  2023-10-26 14:25:19.702755
1509  2023-10-26 14:25:19.750577
1510  2023-10-26 14:25:19.781495
1511  2023-10-26 14:25:19.828411
1512  2023-10-26 14:25:19.875244
1513  2023-10-26 14:25:19.906212
1514  2023-10-26 14:25:19.954065
1515  2023-10-26 14:25:20.000959
1516  2023-10-26 14:25:20.031825
1517  2023-10-26 14:25:20.079732
1518  2023-10-26 14:25:20.127600
1519  2023-10-26 14:25:20.159531
1520  2023-10-26 14:25:20.207394
1521  2023-10-26 14:25:20.254286
1522  2023-10-26 14:25:20.286199
1523  2023-10-26 14:25:20.333173
1524  2023-10-26 14:25:20.365089
1525  2023-10-26 14:25:20.413955
1526  2023-10-26 14:25:20.461790
1527  2023-10-26 14:25:20.493768
1528  2023-10-26 14:25:20.540640
1529  2023-10-26 14:25:20.572543
1530  2023-10-26 14:25:20.621400
1531  2023-10-26 14:25:20.668361
1532  2023-10-26 14:25:20.701198
1533  2023-10-26 14:25:20.747081
1534  2023-10-26 14:25:20.794010
1535  2023-10-26 14:25:20.824927
1536  2023-10-26 14:25:20.872832
1537  2023-10-26 14:25:20.920671
1538  2023-10-26 14:25:20.952586
1539  2023-10-26 14:25:21.000492
1540  2023-10-26 14:25:21.030413
1541  2023-10-26 14:25:21.078285
1542  2023-10-26 14:25:21.126122
1543  2023-10-26 14:25:21.158036
1544  2023-10-26 14:25:21.205942
1545  2023-10-26 14:25:21.253867
1546  2023-10-26 14:25:21.285805
1547  2023-10-26 14:25:21.333705
1548  2023-10-26 14:25:21.365642
1549  2023-10-26 14:25:21.413463
1550  2023-10-26 14:25:21.461383
1551  2023-10-26 14:25:21.493250
1552  2023-10-26 14:25:21.541123
1553  2023-10-26 14:25:21.572040
1554  2023-10-26 14:25:21.618950
1555  2023-10-26 14:25:21.666786
1556  2023-10-26 14:25:21.698752
1557  2023-10-26 14:25:21.746573
1558  2023-10-26 14:25:21.794625
1559  2023-10-26 14:25:21.826530
1560  2023-10-26 14:25:21.874364
1561  2023-10-26 14:25:21.905281
1562  2023-10-26 14:25:21.952182
1563  2023-10-26 14:25:22.000059
1564  2023-10-26 14:25:22.030947
1565  2023-10-26 14:25:22.078852
1566  2023-10-26 14:25:22.124743
1567  2023-10-26 14:25:22.156618
1568  2023-10-26 14:25:22.204521
1569  2023-10-26 14:25:22.252403
1570  2023-10-26 14:25:22.284303
1571  2023-10-26 14:25:22.332228
1572  2023-10-26 14:25:22.364083
1573  2023-10-26 14:25:22.411961
1574  2023-10-26 14:25:22.459846
1575  2023-10-26 14:25:22.492789
1576  2023-10-26 14:25:22.538626
1577  2023-10-26 14:25:22.586497
1578  2023-10-26 14:25:22.618409
1579  2023-10-26 14:25:22.666284
1580  2023-10-26 14:25:22.698188
1581  2023-10-26 14:25:22.747033
1582  2023-10-26 14:25:22.793938
1583  2023-10-26 14:25:22.825851
1584  2023-10-26 14:25:22.873726
1585  2023-10-26 14:25:22.905642
1586  2023-10-26 14:25:22.952483
1587  2023-10-26 14:25:22.999358
1588  2023-10-26 14:25:23.031311
1589  2023-10-26 14:25:23.078148
1590  2023-10-26 14:25:23.126019
1591  2023-10-26 14:25:23.155939
1592  2023-10-26 14:25:23.203811
1593  2023-10-26 14:25:23.251683
1594  2023-10-26 14:25:23.283598
1595  2023-10-26 14:25:23.331515
1596  2023-10-26 14:25:23.378344
1597  2023-10-26 14:25:23.409292
1598  2023-10-26 14:25:23.457186
1599  2023-10-26 14:25:23.489078
1600  2023-10-26 14:25:23.535923
1601  2023-10-26 14:25:23.583841
1602  2023-10-26 14:25:23.615742
1603  2023-10-26 14:25:23.663616
1604  2023-10-26 14:25:23.711504
1605  2023-10-26 14:25:23.743403
1606  2023-10-26 14:25:23.791275
1607  2023-10-26 14:25:23.823205
1608  2023-10-26 14:25:23.871082
1609  2023-10-26 14:25:23.918945
1610  2023-10-26 14:25:23.950859
1611  2023-10-26 14:25:23.998718
1612  2023-10-26 14:25:24.030649
1613  2023-10-26 14:25:24.077524
1614  2023-10-26 14:25:24.125349
1615  2023-10-26 14:25:24.156292
1616  2023-10-26 14:25:24.203139
1617  2023-10-26 14:25:24.251011
1618  2023-10-26 14:25:24.282967
1619  2023-10-26 14:25:24.329802
1620  2023-10-26 14:25:24.377749
1621  2023-10-26 14:25:24.409651
1622  2023-10-26 14:25:24.457483
1623  2023-10-26 14:25:24.503339
1624  2023-10-26 14:25:24.535251
1625  2023-10-26 14:25:24.583124
1626  2023-10-26 14:25:24.615039
1627  2023-10-26 14:25:24.662915
1628  2023-10-26 14:25:24.710782
1629  2023-10-26 14:25:24.743744
1630  2023-10-26 14:25:24.790569
1631  2023-10-26 14:25:24.822483
1632  2023-10-26 14:25:24.870387
1633  2023-10-26 14:25:24.918227
1634  2023-10-26 14:25:24.950142
1635  2023-10-26 14:25:24.998046
1636  2023-10-26 14:25:25.044889
1637  2023-10-26 14:25:25.075806
1638  2023-10-26 14:25:25.123678
1639  2023-10-26 14:25:25.169555
1640  2023-10-26 14:25:25.201470
1641  2023-10-26 14:25:25.249342
1642  2023-10-26 14:25:25.281257
1643  2023-10-26 14:25:25.329159
1644  2023-10-26 14:25:25.377001
1645  2023-10-26 14:25:25.409026
1646  2023-10-26 14:25:25.456899
1647  2023-10-26 14:25:25.488814
1648  2023-10-26 14:25:25.534694
1649  2023-10-26 14:25:25.582638
1650  2023-10-26 14:25:25.614549
1651  2023-10-26 14:25:25.662438
1652  2023-10-26 14:25:25.710312
1653  2023-10-26 14:25:25.742221
1654  2023-10-26 14:25:25.790085
1655  2023-10-26 14:25:25.822010
1656  2023-10-26 14:25:25.869867
1657  2023-10-26 14:25:25.917744
1658  2023-10-26 14:25:25.949653
1659  2023-10-26 14:25:25.997543
1660  2023-10-26 14:25:26.045419
1661  2023-10-26 14:25:26.077317
1662  2023-10-26 14:25:26.124373
1663  2023-10-26 14:25:26.170080
1664  2023-10-26 14:25:26.200991
1665  2023-10-26 14:25:26.247894
1666  2023-10-26 14:25:26.294759
1667  2023-10-26 14:25:26.327704
1668  2023-10-26 14:25:26.372550
1669  2023-10-26 14:25:26.420422
1670  2023-10-26 14:25:26.452337
1671  2023-10-26 14:25:26.500209
1672  2023-10-26 14:25:26.532124
1673  2023-10-26 14:25:26.579995
1674  2023-10-26 14:25:26.626918
1675  2023-10-26 14:25:26.657834
1676  2023-10-26 14:25:26.705659
1677  2023-10-26 14:25:26.753582
1678  2023-10-26 14:25:26.785494
1679  2023-10-26 14:25:26.833349
1680  2023-10-26 14:25:26.865270
1681  2023-10-26 14:25:26.913105
1682  2023-10-26 14:25:26.961019
1683  2023-10-26 14:25:26.992943
1684  2023-10-26 14:25:27.039766
1685  2023-10-26 14:25:27.086691
1686  2023-10-26 14:25:27.117560
1687  2023-10-26 14:25:27.165430
1688  2023-10-26 14:25:27.197377
1689  2023-10-26 14:25:27.245249
1690  2023-10-26 14:25:27.291144
1691  2023-10-26 14:25:27.323011
1692  2023-10-26 14:25:27.370927
1693  2023-10-26 14:25:27.416931
1694  2023-10-26 14:25:27.448812
1695  2023-10-26 14:25:27.495688
1696  2023-10-26 14:25:27.544634
1697  2023-10-26 14:25:27.576471
1698  2023-10-26 14:25:27.624343
1699  2023-10-26 14:25:27.655293
1700  2023-10-26 14:25:27.702167
1701  2023-10-26 14:25:27.749009
1702  2023-10-26 14:25:27.780924
1703  2023-10-26 14:25:27.829754
1704  2023-10-26 14:25:27.876627
1705  2023-10-26 14:25:27.908541
1706  2023-10-26 14:25:27.956413
1707  2023-10-26 14:25:28.003288
1708  2023-10-26 14:25:28.034251
1709  2023-10-26 14:25:28.081080
1710  2023-10-26 14:25:28.127962
1711  2023-10-26 14:25:28.159877
1712  2023-10-26 14:25:28.207823
1713  2023-10-26 14:25:28.239737
1714  2023-10-26 14:25:28.287658
1715  2023-10-26 14:25:28.335481
1716  2023-10-26 14:25:28.367396
1717  2023-10-26 14:25:28.415268
1718  2023-10-26 14:25:28.447183
1719  2023-10-26 14:25:28.495089
1720  2023-10-26 14:25:28.542927
1721  2023-10-26 14:25:28.573876
1722  2023-10-26 14:25:28.620720
1723  2023-10-26 14:25:28.668625
1724  2023-10-26 14:25:28.700536
1725  2023-10-26 14:25:28.747412
1726  2023-10-26 14:25:28.795392
1727  2023-10-26 14:25:28.827304
1728  2023-10-26 14:25:28.875176
1729  2023-10-26 14:25:28.907058
1730  2023-10-26 14:25:28.954929
1731  2023-10-26 14:25:29.001849
1732  2023-10-26 14:25:29.032775
1733  2023-10-26 14:25:29.080598
1734  2023-10-26 14:25:29.128499
1735  2023-10-26 14:25:29.160414
1736  2023-10-26 14:25:29.208296
1737  2023-10-26 14:25:29.240222
1738  2023-10-26 14:25:29.287106
1739  2023-10-26 14:25:29.334958
1740  2023-10-26 14:25:29.365832
1741  2023-10-26 14:25:29.411720
1742  2023-10-26 14:25:29.459580
1743  2023-10-26 14:25:29.491527
1744  2023-10-26 14:25:29.539367
1745  2023-10-26 14:25:29.586278
1746  2023-10-26 14:25:29.617257
1747  2023-10-26 14:25:29.664058
1748  2023-10-26 14:25:29.711905
1749  2023-10-26 14:25:29.743820
1750  2023-10-26 14:25:29.791724
1751  2023-10-26 14:25:29.823642
1752  2023-10-26 14:25:29.871479
1753  2023-10-26 14:25:29.919387
1754  2023-10-26 14:25:29.951297
1755  2023-10-26 14:25:29.999137
1756  2023-10-26 14:25:30.031087
1757  2023-10-26 14:25:30.078924
1758  2023-10-26 14:25:30.126827
1759  2023-10-26 14:25:30.158744
1760  2023-10-26 14:25:30.206665
1761  2023-10-26 14:25:30.253492
1762  2023-10-26 14:25:30.285424
1763  2023-10-26 14:25:30.333244
1764  2023-10-26 14:25:30.365159
1765  2023-10-26 14:25:30.413079
1766  2023-10-26 14:25:30.460936
1767  2023-10-26 14:25:30.492873
1768  2023-10-26 14:25:30.540736
1769  2023-10-26 14:25:30.586612
1770  2023-10-26 14:25:30.618534
1771  2023-10-26 14:25:30.666386
1772  2023-10-26 14:25:30.697309
1773  2023-10-26 14:25:30.744191
1774  2023-10-26 14:25:30.792018
1775  2023-10-26 14:25:30.822982
1776  2023-10-26 14:25:30.869836
1777  2023-10-26 14:25:30.917717
1778  2023-10-26 14:25:30.947807
1779  2023-10-26 14:25:30.994689
1780  2023-10-26 14:25:31.042521
1781  2023-10-26 14:25:31.074436
1782  2023-10-26 14:25:31.123346
1783  2023-10-26 14:25:31.170180
1784  2023-10-26 14:25:31.202128
1785  2023-10-26 14:25:31.248969
1786  2023-10-26 14:25:31.280884
1787  2023-10-26 14:25:31.328789
1788  2023-10-26 14:25:31.376628
1789  2023-10-26 14:25:31.408543
1790  2023-10-26 14:25:31.456321
1791  2023-10-26 14:25:31.503338
1792  2023-10-26 14:25:31.534255
1793  2023-10-26 14:25:31.582166
1794  2023-10-26 14:25:31.614083
1795  2023-10-26 14:25:31.661915
1796  2023-10-26 14:25:31.709820
1797  2023-10-26 14:25:31.741745
1798  2023-10-26 14:25:31.789622
1799  2023-10-26 14:25:31.837444
1800  2023-10-26 14:25:31.869359
1801  2023-10-26 14:25:31.916267
1802  2023-10-26 14:25:31.947185
1803  2023-10-26 14:25:31.995023
1804  2023-10-26 14:25:32.042920
1805  2023-10-26 14:25:32.074844
1806  2023-10-26 14:25:32.122682
1807  2023-10-26 14:25:32.170695
1808  2023-10-26 14:25:32.202503
1809  2023-10-26 14:25:32.250374
1810  2023-10-26 14:25:32.282290
1811  2023-10-26 14:25:32.329171
1812  2023-10-26 14:25:32.377046
1813  2023-10-26 14:25:32.408948
1814  2023-10-26 14:25:32.456834
1815  2023-10-26 14:25:32.488734
1816  2023-10-26 14:25:32.536577
1817  2023-10-26 14:25:32.584452
1818  2023-10-26 14:25:32.616413
1819  2023-10-26 14:25:32.664269
1820  2023-10-26 14:25:32.712312
1821  2023-10-26 14:25:32.744065
1822  2023-10-26 14:25:32.791892
1823  2023-10-26 14:25:32.823853
1824  2023-10-26 14:25:32.871732
1825  2023-10-26 14:25:32.919584
1826  2023-10-26 14:25:32.951500
1827  2023-10-26 14:25:32.999359
1828  2023-10-26 14:25:33.031280
1829  2023-10-26 14:25:33.079162
1830  2023-10-26 14:25:33.127027
1831  2023-10-26 14:25:33.158913
1832  2023-10-26 14:25:33.207812
1833  2023-10-26 14:25:33.239698
1834  2023-10-26 14:25:33.286619
1835  2023-10-26 14:25:33.334488
1836  2023-10-26 14:25:33.366387
1837  2023-10-26 14:25:33.413231
1838  2023-10-26 14:25:33.461139
1839  2023-10-26 14:25:33.493050
1840  2023-10-26 14:25:33.540953
1841  2023-10-26 14:25:33.573817
1842  2023-10-26 14:25:33.620726
1843  2023-10-26 14:25:33.668580
1844  2023-10-26 14:25:33.700497
1845  2023-10-26 14:25:33.748555
1846  2023-10-26 14:25:33.780283
1847  2023-10-26 14:25:33.828154
1848  2023-10-26 14:25:33.876024
1849  2023-10-26 14:25:33.906945
1850  2023-10-26 14:25:33.954818
1851  2023-10-26 14:25:34.002690
1852  2023-10-26 14:25:34.034603
1853  2023-10-26 14:25:34.081485
1854  2023-10-26 14:25:34.127357
1855  2023-10-26 14:25:34.159270
1856  2023-10-26 14:25:34.207110
1857  2023-10-26 14:25:34.239025
1858  2023-10-26 14:25:34.285946
1859  2023-10-26 14:25:34.332775
1860  2023-10-26 14:25:34.363692
1861  2023-10-26 14:25:34.411605
1862  2023-10-26 14:25:34.459458
1863  2023-10-26 14:25:34.491350
1864  2023-10-26 14:25:34.539253
1865  2023-10-26 14:25:34.587095
1866  2023-10-26 14:25:34.618012
1867  2023-10-26 14:25:34.665884
1868  2023-10-26 14:25:34.697798
1869  2023-10-26 14:25:34.745702
1870  2023-10-26 14:25:34.793623
1871  2023-10-26 14:25:34.825457
1872  2023-10-26 14:25:34.873362
1873  2023-10-26 14:25:34.919237
1874  2023-10-26 14:25:34.951162
1875  2023-10-26 14:25:34.999055
1876  2023-10-26 14:25:35.030951
1877  2023-10-26 14:25:35.079823
1878  2023-10-26 14:25:35.126682
1879  2023-10-26 14:25:35.158598
1880  2023-10-26 14:25:35.206470
1881  2023-10-26 14:25:35.252351
1882  2023-10-26 14:25:35.284262
1883  2023-10-26 14:25:35.332144
1884  2023-10-26 14:25:35.364046
1885  2023-10-26 14:25:35.411926
1886  2023-10-26 14:25:35.457812
1887  2023-10-26 14:25:35.489723
1888  2023-10-26 14:25:35.537553
1889  2023-10-26 14:25:35.585475
1890  2023-10-26 14:25:35.617374
1891  2023-10-26 14:25:35.665262
1892  2023-10-26 14:25:35.697160
1893  2023-10-26 14:25:35.746021
1894  2023-10-26 14:25:35.790908
1895  2023-10-26 14:25:35.823820
1896  2023-10-26 14:25:35.870663
1897  2023-10-26 14:25:35.918626
1898  2023-10-26 14:25:35.950449
1899  2023-10-26 14:25:35.998354
1900  2023-10-26 14:25:36.030272
1901  2023-10-26 14:25:36.078108
1902  2023-10-26 14:25:36.126032
1903  2023-10-26 14:25:36.157926
1904  2023-10-26 14:25:36.204814
1905  2023-10-26 14:25:36.251646
1906  2023-10-26 14:25:36.282592
1907  2023-10-26 14:25:36.329436
1908  2023-10-26 14:25:36.377341
1909  2023-10-26 14:25:36.409265
1910  2023-10-26 14:25:36.457095
1911  2023-10-26 14:25:36.489009
1912  2023-10-26 14:25:36.535886
1913  2023-10-26 14:25:36.582793
1914  2023-10-26 14:25:36.614674
1915  2023-10-26 14:25:36.662578
1916  2023-10-26 14:25:36.710426
1917  2023-10-26 14:25:36.741367
1918  2023-10-26 14:25:36.788243
1919  2023-10-26 14:25:36.835116
1920  2023-10-26 14:25:36.866050
1921  2023-10-26 14:25:36.913921
1922  2023-10-26 14:25:36.961794
1923  2023-10-26 14:25:36.993685
1924  2023-10-26 14:25:37.041563
1925  2023-10-26 14:25:37.072503
1926  2023-10-26 14:25:37.119354
1927  2023-10-26 14:25:37.167228
1928  2023-10-26 14:25:37.199148
1929  2023-10-26 14:25:37.247033
1930  2023-10-26 14:25:37.294931
1931  2023-10-26 14:25:37.326802
1932  2023-10-26 14:25:37.371788
1933  2023-10-26 14:25:37.419745
1934  2023-10-26 14:25:37.451698
1935  2023-10-26 14:25:37.499530
1936  2023-10-26 14:25:37.531445
1937  2023-10-26 14:25:37.579352
1938  2023-10-26 14:25:37.627240
1939  2023-10-26 14:25:37.659237
1940  2023-10-26 14:25:37.707171
1941  2023-10-26 14:25:37.739086
1942  2023-10-26 14:25:37.786960
1943  2023-10-26 14:25:37.832986
1944  2023-10-26 14:25:37.864853
1945  2023-10-26 14:25:37.912774
1946  2023-10-26 14:25:37.960597
1947  2023-10-26 14:25:37.992672
1948  2023-10-26 14:25:38.040417
1949  2023-10-26 14:25:38.072330
1950  2023-10-26 14:25:38.120172
1951  2023-10-26 14:25:38.168097
1952  2023-10-26 14:25:38.199976
1953  2023-10-26 14:25:38.247830
1954  2023-10-26 14:25:38.293707
1955  2023-10-26 14:25:38.325622
1956  2023-10-26 14:25:38.373538
1957  2023-10-26 14:25:38.405467
1958  2023-10-26 14:25:38.452285
1959  2023-10-26 14:25:38.498184
1960  2023-10-26 14:25:38.545073
1961  2023-10-26 14:25:38.576984
1962  2023-10-26 14:25:38.624876
1963  2023-10-26 14:25:38.655780
1964  2023-10-26 14:25:38.703641
1965  2023-10-26 14:25:38.751515
1966  2023-10-26 14:25:38.782653
1967  2023-10-26 14:25:38.829625
1968  2023-10-26 14:25:38.878498
1969  2023-10-26 14:25:38.909380
1970  2023-10-26 14:25:38.957299
1971  2023-10-26 14:25:39.003255
1972  2023-10-26 14:25:39.034177
1973  2023-10-26 14:25:39.082043
1974  2023-10-26 14:25:39.128920
1975  2023-10-26 14:25:39.159805
1976  2023-10-26 14:25:39.206710
1977  2023-10-26 14:25:39.238619
1978  2023-10-26 14:25:39.286466
1979  2023-10-26 14:25:39.334446
1980  2023-10-26 14:25:39.366464
1981  2023-10-26 14:25:39.414229
1982  2023-10-26 14:25:39.461101
1983  2023-10-26 14:25:39.492051
1984  2023-10-26 14:25:39.537990
1985  2023-10-26 14:25:39.584866
1986  2023-10-26 14:25:39.615787
1987  2023-10-26 14:25:39.663610
1988  2023-10-26 14:25:39.711516
1989  2023-10-26 14:25:39.743448
1990  2023-10-26 14:25:39.791315
1991  2023-10-26 14:25:39.823228
1992  2023-10-26 14:25:39.871102
1993  2023-10-26 14:25:39.919076
1994  2023-10-26 14:25:39.950888
1995  2023-10-26 14:25:39.998770
1996  2023-10-26 14:25:40.030660
1997  2023-10-26 14:25:40.078534
1998  2023-10-26 14:25:40.127370
1999  2023-10-26 14:25:40.158328
2000  2023-10-26 14:25:40.207224
2001  2023-10-26 14:25:40.253034
2002  2023-10-26 14:25:40.284974
2003  2023-10-26 14:25:40.332821
2004  2023-10-26 14:25:40.365739
2005  2023-10-26 14:25:40.412641
2006  2023-10-26 14:25:40.461524
2007  2023-10-26 14:25:40.490398
2008  2023-10-26 14:25:40.538302
2009  2023-10-26 14:25:40.586149
2010  2023-10-26 14:25:40.618057
2011  2023-10-26 14:25:40.664096
2012  2023-10-26 14:25:40.710973
2013  2023-10-26 14:25:40.741935
2014  2023-10-26 14:25:40.789760
2015  2023-10-26 14:25:40.837634
2016  2023-10-26 14:25:40.867580
2017  2023-10-26 14:25:40.915424
2018  2023-10-26 14:25:40.947372
2019  2023-10-26 14:25:40.995261
2020  2023-10-26 14:25:41.043083
2021  2023-10-26 14:25:41.074998
2022  2023-10-26 14:25:41.122925
2023  2023-10-26 14:25:41.170791
2024  2023-10-26 14:25:41.202709
2025  2023-10-26 14:25:41.250569
2026  2023-10-26 14:25:41.282496
2027  2023-10-26 14:25:41.328425
2028  2023-10-26 14:25:41.376338
2029  2023-10-26 14:25:41.407255
2030  2023-10-26 14:25:41.455124
2031  2023-10-26 14:25:41.501064
2032  2023-10-26 14:25:41.531991
2033  2023-10-26 14:25:41.579972
2034  2023-10-26 14:25:41.628725
2035  2023-10-26 14:25:41.659642
2036  2023-10-26 14:25:41.705519
2037  2023-10-26 14:25:41.751395
2038  2023-10-26 14:25:41.783310
2039  2023-10-26 14:25:41.831236
2040  2023-10-26 14:25:41.876062
2041  2023-10-26 14:25:41.907024
2042  2023-10-26 14:25:41.953854
2043  2023-10-26 14:25:42.000767
2044  2023-10-26 14:25:42.032676
2045  2023-10-26 14:25:42.080551
2046  2023-10-26 14:25:42.126425
2047  2023-10-26 14:25:42.157351
2048  2023-10-26 14:25:42.204217
2049  2023-10-26 14:25:42.251094
2050  2023-10-26 14:25:42.283008
2051  2023-10-26 14:25:42.330879
2052  2023-10-26 14:25:42.375771
2053  2023-10-26 14:25:42.407658
2054  2023-10-26 14:25:42.455513
2055  2023-10-26 14:25:42.503387
2056  2023-10-26 14:25:42.535301
2057  2023-10-26 14:25:42.583171
2058  2023-10-26 14:25:42.615086
2059  2023-10-26 14:25:42.661986
2060  2023-10-26 14:25:42.709834
2061  2023-10-26 14:25:42.741782
2062  2023-10-26 14:25:42.789619
2063  2023-10-26 14:25:42.837492
2064  2023-10-26 14:25:42.868409
2065  2023-10-26 14:25:42.916280
2066  2023-10-26 14:25:42.947198
2067  2023-10-26 14:25:42.994227
2068  2023-10-26 14:25:43.039987
2069  2023-10-26 14:25:43.085859
2070  2023-10-26 14:25:43.117776
2071  2023-10-26 14:25:43.165655
2072  2023-10-26 14:25:43.197564
2073  2023-10-26 14:25:43.245401
2074  2023-10-26 14:25:43.293274
2075  2023-10-26 14:25:43.325188
2076  2023-10-26 14:25:43.373060
2077  2023-10-26 14:25:43.419972
2078  2023-10-26 14:25:43.452854
2079  2023-10-26 14:25:43.499722
2080  2023-10-26 14:25:43.531680
2081  2023-10-26 14:25:43.579540
2082  2023-10-26 14:25:43.626382
2083  2023-10-26 14:25:43.658345
2084  2023-10-26 14:25:43.706201
2085  2023-10-26 14:25:43.752046
2086  2023-10-26 14:25:43.782963
2087  2023-10-26 14:25:43.831837
2088  2023-10-26 14:25:43.878712
2089  2023-10-26 14:25:43.910622
2090  2023-10-26 14:25:43.958494
2091  2023-10-26 14:25:43.990562
2092  2023-10-26 14:25:44.038457
2093  2023-10-26 14:25:44.086425
2094  2023-10-26 14:25:44.117342
2095  2023-10-26 14:25:44.165249
2096  2023-10-26 14:25:44.197129
2097  2023-10-26 14:25:44.243081
2098  2023-10-26 14:25:44.291005
2099  2023-10-26 14:25:44.322920
2100  2023-10-26 14:25:44.370841
2101  2023-10-26 14:25:44.418664
2102  2023-10-26 14:25:44.450579
2103  2023-10-26 14:25:44.498486
2104  2023-10-26 14:25:44.545325
2105  2023-10-26 14:25:44.576243
2106  2023-10-26 14:25:44.624147
2107  2023-10-26 14:25:44.656054
2108  2023-10-26 14:25:44.703940
2109  2023-10-26 14:25:44.751805
2110  2023-10-26 14:25:44.783688
2111  2023-10-26 14:25:44.828601
2112  2023-10-26 14:25:44.874604
2113  2023-10-26 14:25:44.906506
2114  2023-10-26 14:25:44.952499
2115  2023-10-26 14:25:45.001395
2116  2023-10-26 14:25:45.033298
2117  2023-10-26 14:25:45.081273
2118  2023-10-26 14:25:45.129245
2119  2023-10-26 14:25:45.161203
2120  2023-10-26 14:25:45.209056
2121  2023-10-26 14:25:45.241019
2122  2023-10-26 14:25:45.288969
2123  2023-10-26 14:25:45.335802
2124  2023-10-26 14:25:45.367767
2125  2023-10-26 14:25:45.414591
2126  2023-10-26 14:25:45.461591
2127  2023-10-26 14:25:45.492523
2128  2023-10-26 14:25:45.540394
2129  2023-10-26 14:25:45.572308
2130  2023-10-26 14:25:45.620184
2131  2023-10-26 14:25:45.666059
2132  2023-10-26 14:25:45.697972
2133  2023-10-26 14:25:45.744852
2134  2023-10-26 14:25:45.791759
2135  2023-10-26 14:25:45.823673
2136  2023-10-26 14:25:45.871547
2137  2023-10-26 14:25:45.918883
2138  2023-10-26 14:25:45.950798
2139  2023-10-26 14:25:45.998703
2140  2023-10-26 14:25:46.030618
2141  2023-10-26 14:25:46.078744
2142  2023-10-26 14:25:46.126442
2143  2023-10-26 14:25:46.158387
2144  2023-10-26 14:25:46.206235
2145  2023-10-26 14:25:46.254054
2146  2023-10-26 14:25:46.286005
2147  2023-10-26 14:25:46.332883
2148  2023-10-26 14:25:46.364793
2149  2023-10-26 14:25:46.412663
2150  2023-10-26 14:25:46.461572
2151  2023-10-26 14:25:46.492448
2152  2023-10-26 14:25:46.538331
2153  2023-10-26 14:25:46.585199
2154  2023-10-26 14:25:46.616112
2155  2023-10-26 14:25:46.663958
2156  2023-10-26 14:25:46.712828
2157  2023-10-26 14:25:46.743788
2158  2023-10-26 14:25:46.791660
2159  2023-10-26 14:25:46.823565
2160  2023-10-26 14:25:46.871443
2161  2023-10-26 14:25:46.919445
2162  2023-10-26 14:25:46.949334
2163  2023-10-26 14:25:46.997206
2164  2023-10-26 14:25:47.044081
2165  2023-10-26 14:25:47.075995
2166  2023-10-26 14:25:47.123996
2167  2023-10-26 14:25:47.155911
2168  2023-10-26 14:25:47.201823
2169  2023-10-26 14:25:47.248663
2170  2023-10-26 14:25:47.280577
2171  2023-10-26 14:25:47.327486
2172  2023-10-26 14:25:47.374327
2173  2023-10-26 14:25:47.406241
2174  2023-10-26 14:25:47.454113
2175  2023-10-26 14:25:47.501044
2176  2023-10-26 14:25:47.531937
2177  2023-10-26 14:25:47.579946
2178  2023-10-26 14:25:47.627765
2179  2023-10-26 14:25:47.658718
2180  2023-10-26 14:25:47.706586
2181  2023-10-26 14:25:47.752463
2182  2023-10-26 14:25:47.784397
2183  2023-10-26 14:25:47.831254
2184  2023-10-26 14:25:47.878307
2185  2023-10-26 14:25:47.909198
2186  2023-10-26 14:25:47.957065
2187  2023-10-26 14:25:47.988980
2188  2023-10-26 14:25:48.036852
2189  2023-10-26 14:25:48.082848
2190  2023-10-26 14:25:48.114763
2191  2023-10-26 14:25:48.161178
2192  2023-10-26 14:25:48.209171
2193  2023-10-26 14:25:48.241076
2194  2023-10-26 14:25:48.288948
2195  2023-10-26 14:25:48.336857
2196  2023-10-26 14:25:48.368782
2197  2023-10-26 14:25:48.416607
2198  2023-10-26 14:25:48.448522
2199  2023-10-26 14:25:48.496441
2200  2023-10-26 14:25:48.544266
2201  2023-10-26 14:25:48.576180
2202  2023-10-26 14:25:48.624104
2203  2023-10-26 14:25:48.655967
2204  2023-10-26 14:25:48.703841
2205  2023-10-26 14:25:48.751738
2206  2023-10-26 14:25:48.783626
2207  2023-10-26 14:25:48.831522
2208  2023-10-26 14:25:48.878403
2209  2023-10-26 14:25:48.909323
2210  2023-10-26 14:25:48.956168
2211  2023-10-26 14:25:49.002079
2212  2023-10-26 14:25:49.033003
2213  2023-10-26 14:25:49.080887
2214  2023-10-26 14:25:49.128756
2215  2023-10-26 14:25:49.160618
2216  2023-10-26 14:25:49.208526
2217  2023-10-26 14:25:49.240449
2218  2023-10-26 14:25:49.287407
2219  2023-10-26 14:25:49.335205
2220  2023-10-26 14:25:49.368095
2221  2023-10-26 14:25:49.414940
2222  2023-10-26 14:25:49.462844
2223  2023-10-26 14:25:49.494785
2224  2023-10-26 14:25:49.542678
2225  2023-10-26 14:25:49.573553
2226  2023-10-26 14:25:49.621419
2227  2023-10-26 14:25:49.669333
2228  2023-10-26 14:25:49.699210
2229  2023-10-26 14:25:49.746052
2230  2023-10-26 14:25:49.793958
2231  2023-10-26 14:25:49.825839
2232  2023-10-26 14:25:49.871750
2233  2023-10-26 14:25:49.918677
2234  2023-10-26 14:25:49.950688
2235  2023-10-26 14:25:49.997519
2236  2023-10-26 14:25:50.044416
2237  2023-10-26 14:25:50.076330
2238  2023-10-26 14:25:50.124216
2239  2023-10-26 14:25:50.156092
2240  2023-10-26 14:25:50.204000
2241  2023-10-26 14:25:50.249877
2242  2023-10-26 14:25:50.281759
2243  2023-10-26 14:25:50.328665
2244  2023-10-26 14:25:50.377501
2245  2023-10-26 14:25:50.408463
2246  2023-10-26 14:25:50.456335
2247  2023-10-26 14:25:50.504196
2248  2023-10-26 14:25:50.535080
2249  2023-10-26 14:25:50.582958
2250  2023-10-26 14:25:50.614899
2251  2023-10-26 14:25:50.662790
2252  2023-10-26 14:25:50.710643
2253  2023-10-26 14:25:50.742559
2254  2023-10-26 14:25:50.790428
2255  2023-10-26 14:25:50.822401
2256  2023-10-26 14:25:50.870232
2257  2023-10-26 14:25:50.918087
2258  2023-10-26 14:25:50.949969
2259  2023-10-26 14:25:50.997893
2260  2023-10-26 14:25:51.045746
2261  2023-10-26 14:25:51.077680
2262  2023-10-26 14:25:51.125542
2263  2023-10-26 14:25:51.157448
2264  2023-10-26 14:25:51.206336
2265  2023-10-26 14:25:51.253267
2266  2023-10-26 14:25:51.285184
2267  2023-10-26 14:25:51.332058
2268  2023-10-26 14:25:51.379928
2269  2023-10-26 14:25:51.411865
2270  2023-10-26 14:25:51.459731
2271  2023-10-26 14:25:51.491634
2272  2023-10-26 14:25:51.539501
2273  2023-10-26 14:25:51.588389
2274  2023-10-26 14:25:51.617263
2275  2023-10-26 14:25:51.665141
2276  2023-10-26 14:25:51.697127
2277  2023-10-26 14:25:51.744963
2278  2023-10-26 14:25:51.792975
2279  2023-10-26 14:25:51.824750
2280  2023-10-26 14:25:51.872656
2281  2023-10-26 14:25:51.920568
2282  2023-10-26 14:25:51.952482
2283  2023-10-26 14:25:52.000380
2284  2023-10-26 14:25:52.031302
2285  2023-10-26 14:25:52.078146
2286  2023-10-26 14:25:52.126026
2287  2023-10-26 14:25:52.157974
2288  2023-10-26 14:25:52.205836
2289  2023-10-26 14:25:52.253762
2290  2023-10-26 14:25:52.285627
2291  2023-10-26 14:25:52.333535
2292  2023-10-26 14:25:52.365380
2293  2023-10-26 14:25:52.413282
2294  2023-10-26 14:25:52.461157
2295  2023-10-26 14:25:52.493039
2296  2023-10-26 14:25:52.540949
2297  2023-10-26 14:25:52.586786
2298  2023-10-26 14:25:52.618733
2299  2023-10-26 14:25:52.667571
2300  2023-10-26 14:25:52.698526
2301  2023-10-26 14:25:52.746392
2302  2023-10-26 14:25:52.794232
2303  2023-10-26 14:25:52.826271
2304  2023-10-26 14:25:52.874052
2305  2023-10-26 14:25:52.905966
2306  2023-10-26 14:25:52.952843
2307  2023-10-26 14:25:52.999683
2308  2023-10-26 14:25:53.031598
2309  2023-10-26 14:25:53.079470
2310  2023-10-26 14:25:53.127373
2311  2023-10-26 14:25:53.159257
2312  2023-10-26 14:25:53.207187
2313  2023-10-26 14:25:53.239075
2314  2023-10-26 14:25:53.286948
2315  2023-10-26 14:25:53.334833
2316  2023-10-26 14:25:53.367863
2317  2023-10-26 14:25:53.413711
2318  2023-10-26 14:25:53.460586
2319  2023-10-26 14:25:53.492499
2320  2023-10-26 14:25:53.540372
2321  2023-10-26 14:25:53.586332
2322  2023-10-26 14:25:53.618161
2323  2023-10-26 14:25:53.666033
2324  2023-10-26 14:25:53.697950
2325  2023-10-26 14:25:53.745822
2326  2023-10-26 14:25:53.793693
2327  2023-10-26 14:25:53.825606
2328  2023-10-26 14:25:53.873479
2329  2023-10-26 14:25:53.906392
2330  2023-10-26 14:25:53.953351
2331  2023-10-26 14:25:54.002191
2332  2023-10-26 14:25:54.032111
2333  2023-10-26 14:25:54.079016
2334  2023-10-26 14:25:54.125871
2335  2023-10-26 14:25:54.156826
2336  2023-10-26 14:25:54.204690
2337  2023-10-26 14:25:54.252580
2338  2023-10-26 14:25:54.283539
2339  2023-10-26 14:25:54.330448
2340  2023-10-26 14:25:54.376361
2341  2023-10-26 14:25:54.408277
2342  2023-10-26 14:25:54.456112
2343  2023-10-26 14:25:54.504020
2344  2023-10-26 14:25:54.535900
2345  2023-10-26 14:25:54.583770
2346  2023-10-26 14:25:54.614734
2347  2023-10-26 14:25:54.661609
2348  2023-10-26 14:25:54.708468
2349  2023-10-26 14:25:54.739477
2350  2023-10-26 14:25:54.785262
2351  2023-10-26 14:25:54.833135
2352  2023-10-26 14:25:54.865050
2353  2023-10-26 14:25:54.912923
2354  2023-10-26 14:25:54.960795
2355  2023-10-26 14:25:54.992711
2356  2023-10-26 14:25:55.041593
2357  2023-10-26 14:25:55.086426
2358  2023-10-26 14:25:55.118341
2359  2023-10-26 14:25:55.165216
2360  2023-10-26 14:25:55.212123
2361  2023-10-26 14:25:55.244037
2362  2023-10-26 14:25:55.291879
2363  2023-10-26 14:25:55.323837
2364  2023-10-26 14:25:55.371688
2365  2023-10-26 14:25:55.419536
2366  2023-10-26 14:25:55.451450
2367  2023-10-26 14:25:55.499355
2368  2023-10-26 14:25:55.531238
2369  2023-10-26 14:25:55.579134
2370  2023-10-26 14:25:55.626981
2371  2023-10-26 14:25:55.658896
2372  2023-10-26 14:25:55.706801
2373  2023-10-26 14:25:55.738716
2374  2023-10-26 14:25:55.786554
2375  2023-10-26 14:25:55.834459
2376  2023-10-26 14:25:55.866341
2377  2023-10-26 14:25:55.914251
2378  2023-10-26 14:25:55.962085
2379  2023-10-26 14:25:55.994000
2380  2023-10-26 14:25:56.041906
2381  2023-10-26 14:25:56.073819
2382  2023-10-26 14:25:56.121659
2383  2023-10-26 14:25:56.169565
2384  2023-10-26 14:25:56.201494
2385  2023-10-26 14:25:56.249317
2386  2023-10-26 14:25:56.281264
2387  2023-10-26 14:25:56.328107
2388  2023-10-26 14:25:56.375094
2389  2023-10-26 14:25:56.406897
2390  2023-10-26 14:25:56.454768
2391  2023-10-26 14:25:56.502671
2392  2023-10-26 14:25:56.534579
2393  2023-10-26 14:25:56.582459
2394  2023-10-26 14:25:56.614372
2395  2023-10-26 14:25:56.662245
2396  2023-10-26 14:25:56.710142
2397  2023-10-26 14:25:56.742038
2398  2023-10-26 14:25:56.789906
2399  2023-10-26 14:25:56.836785
2400  2023-10-26 14:25:56.867732
2401  2023-10-26 14:25:56.915568
2402  2023-10-26 14:25:56.947485
2403  2023-10-26 14:25:56.995369
2404  2023-10-26 14:25:57.043225
2405  2023-10-26 14:25:57.075143
2406  2023-10-26 14:25:57.123046
2407  2023-10-26 14:25:57.169884
2408  2023-10-26 14:25:57.200823
2409  2023-10-26 14:25:57.248678
2410  2023-10-26 14:25:57.280596
2411  2023-10-26 14:25:57.328465
2412  2023-10-26 14:25:57.375339
2413  2023-10-26 14:25:57.407262
2414  2023-10-26 14:25:57.455196
2415  2023-10-26 14:25:57.503164
2416  2023-10-26 14:25:57.535082
2417  2023-10-26 14:25:57.582967
2418  2023-10-26 14:25:57.613880
2419  2023-10-26 14:25:57.662851
2420  2023-10-26 14:25:57.711749
2421  2023-10-26 14:25:57.740651
2422  2023-10-26 14:25:57.788482
2423  2023-10-26 14:25:57.836551
2424  2023-10-26 14:25:57.868269
2425  2023-10-26 14:25:57.916172
2426  2023-10-26 14:25:57.947095
2427  2023-10-26 14:25:57.993933
2428  2023-10-26 14:25:58.040833
2429  2023-10-26 14:25:58.072769
2430  2023-10-26 14:25:58.120594
2431  2023-10-26 14:25:58.168491
2432  2023-10-26 14:25:58.200428
2433  2023-10-26 14:25:58.248253
2434  2023-10-26 14:25:58.281191
2435  2023-10-26 14:25:58.328039
2436  2023-10-26 14:25:58.373948
2437  2023-10-26 14:25:58.405869
2438  2023-10-26 14:25:58.451744
2439  2023-10-26 14:25:58.499612
2440  2023-10-26 14:25:58.531544
2441  2023-10-26 14:25:58.579398
2442  2023-10-26 14:25:58.627285
2443  2023-10-26 14:25:58.658189
2444  2023-10-26 14:25:58.705082
2445  2023-10-26 14:25:58.753035
2446  2023-10-26 14:25:58.784951
2447  2023-10-26 14:25:58.832948
2448  2023-10-26 14:25:58.864755
2449  2023-10-26 14:25:58.912611
2450  2023-10-26 14:25:58.960449
2451  2023-10-26 14:25:58.992364
2452  2023-10-26 14:25:59.040261
2453  2023-10-26 14:25:59.086144
2454  2023-10-26 14:25:59.118060
2455  2023-10-26 14:25:59.165926
2456  2023-10-26 14:25:59.211821
2457  2023-10-26 14:25:59.242727
2458  2023-10-26 14:25:59.290567
2459  2023-10-26 14:25:59.322481
2460  2023-10-26 14:25:59.370385
2461  2023-10-26 14:25:59.418387
2462  2023-10-26 14:25:59.450302
2463  2023-10-26 14:25:59.498174
2464  2023-10-26 14:25:59.545098
2465  2023-10-26 14:25:59.576001
2466  2023-10-26 14:25:59.623838
2467  2023-10-26 14:25:59.655752
2468  2023-10-26 14:25:59.703695
2469  2023-10-26 14:25:59.750499
2470  2023-10-26 14:25:59.782414
2471  2023-10-26 14:25:59.830288
2472  2023-10-26 14:25:59.877162
2473  2023-10-26 14:25:59.907106
2474  2023-10-26 14:25:59.954980
2475  2023-10-26 14:26:00.002874
2476  2023-10-26 14:26:00.034777
2477  2023-10-26 14:26:00.081663
2478  2023-10-26 14:26:00.113559
2479  2023-10-26 14:26:00.161401
2480  2023-10-26 14:26:00.209317
2481  2023-10-26 14:26:00.241216
2482  2023-10-26 14:26:00.289092
2483  2023-10-26 14:26:00.335966
2484  2023-10-26 14:26:00.367884
2485  2023-10-26 14:26:00.414762
2486  2023-10-26 14:26:00.462643
2487  2023-10-26 14:26:00.493582
2488  2023-10-26 14:26:00.538456
2489  2023-10-26 14:26:00.586392
2490  2023-10-26 14:26:00.617299
2491  2023-10-26 14:26:00.665171
2492  2023-10-26 14:26:00.697085
2493  2023-10-26 14:26:00.744535
2494  2023-10-26 14:26:00.792414
2495  2023-10-26 14:26:00.824302
2496  2023-10-26 14:26:00.872256
2497  2023-10-26 14:26:00.918131
2498  2023-10-26 14:26:00.948085
2499  2023-10-26 14:26:00.995923
2500  2023-10-26 14:26:01.043861
2501  2023-10-26 14:26:01.075741
2502  2023-10-26 14:26:01.123582
2503  2023-10-26 14:26:01.170043
2504  2023-10-26 14:26:01.201922
2505  2023-10-26 14:26:01.249831
2506  2023-10-26 14:26:01.281781
2507  2023-10-26 14:26:01.329621
2508  2023-10-26 14:26:01.377524
2509  2023-10-26 14:26:01.409408
2510  2023-10-26 14:26:01.457422
2511  2023-10-26 14:26:01.489297
2512  2023-10-26 14:26:01.537286
2513  2023-10-26 14:26:01.585139
2514  2023-10-26 14:26:01.617056
2515  2023-10-26 14:26:01.664945
2516  2023-10-26 14:26:01.711819
2517  2023-10-26 14:26:01.742721
2518  2023-10-26 14:26:01.790559
2519  2023-10-26 14:26:01.836438
2520  2023-10-26 14:26:01.868352
2521  2023-10-26 14:26:01.914278
2522  2023-10-26 14:26:01.962101
2523  2023-10-26 14:26:01.993017
2524  2023-10-26 14:26:02.040925
2525  2023-10-26 14:26:02.072839
2526  2023-10-26 14:26:02.120676
2527  2023-10-26 14:26:02.168595
2528  2023-10-26 14:26:02.200511
2529  2023-10-26 14:26:02.247337
2530  2023-10-26 14:26:02.294212
2531  2023-10-26 14:26:02.326127
2532  2023-10-26 14:26:02.374033
2533  2023-10-26 14:26:02.405948
2534  2023-10-26 14:26:02.451791
2535  2023-10-26 14:26:02.499704
2536  2023-10-26 14:26:02.531612
2537  2023-10-26 14:26:02.577519
2538  2023-10-26 14:26:02.624330
2539  2023-10-26 14:26:02.655293
2540  2023-10-26 14:26:02.703169
2541  2023-10-26 14:26:02.751024
2542  2023-10-26 14:26:02.782938
2543  2023-10-26 14:26:02.830807
2544  2023-10-26 14:26:02.878678
2545  2023-10-26 14:26:02.910598
2546  2023-10-26 14:26:02.956474
2547  2023-10-26 14:26:03.003357
2548  2023-10-26 14:26:03.035276
2549  2023-10-26 14:26:03.083174
2550  2023-10-26 14:26:03.115195
2551  2023-10-26 14:26:03.163131
2552  2023-10-26 14:26:03.211016
2553  2023-10-26 14:26:03.242918
2554  2023-10-26 14:26:03.290789
2555  2023-10-26 14:26:03.336682
2556  2023-10-26 14:26:03.367735
2557  2023-10-26 14:26:03.415581
2558  2023-10-26 14:26:03.447495
2559  2023-10-26 14:26:03.495367
2560  2023-10-26 14:26:03.543331
2561  2023-10-26 14:26:03.576153
2562  2023-10-26 14:26:03.623026
2563  2023-10-26 14:26:03.669902
2564  2023-10-26 14:26:03.701848
2565  2023-10-26 14:26:03.748690
2566  2023-10-26 14:26:03.780605
2567  2023-10-26 14:26:03.828477
2568  2023-10-26 14:26:03.875400
2569  2023-10-26 14:26:03.906316
2570  2023-10-26 14:26:03.954172
2571  2023-10-26 14:26:04.002064
2572  2023-10-26 14:26:04.033964
2573  2023-10-26 14:26:04.081845
2574  2023-10-26 14:26:04.113766
2575  2023-10-26 14:26:04.161612
2576  2023-10-26 14:26:04.209505
2577  2023-10-26 14:26:04.241381
2578  2023-10-26 14:26:04.289335
2579  2023-10-26 14:26:04.337209
2580  2023-10-26 14:26:04.369122
2581  2023-10-26 14:26:04.416963
2582  2023-10-26 14:26:04.447882
2583  2023-10-26 14:26:04.494755
2584  2023-10-26 14:26:04.540664
2585  2023-10-26 14:26:04.572580
2586  2023-10-26 14:26:04.620452
2587  2023-10-26 14:26:04.668322
2588  2023-10-26 14:26:04.698242
2589  2023-10-26 14:26:04.747272
2590  2023-10-26 14:26:04.796101
2591  2023-10-26 14:26:04.828055
2592  2023-10-26 14:26:04.873933
2593  2023-10-26 14:26:04.905838
2594  2023-10-26 14:26:04.953743
2595  2023-10-26 14:26:04.998595
2596  2023-10-26 14:26:05.044461
2597  2023-10-26 14:26:05.076352
2598  2023-10-26 14:26:05.124222
2599  2023-10-26 14:26:05.156137
2600  2023-10-26 14:26:05.202045
2601  2023-10-26 14:26:05.249886
2602  2023-10-26 14:26:05.280836
2603  2023-10-26 14:26:05.327711
2604  2023-10-26 14:26:05.375598
2605  2023-10-26 14:26:05.406510
2606  2023-10-26 14:26:05.454370
2607  2023-10-26 14:26:05.502264
2608  2023-10-26 14:26:05.534197
2609  2023-10-26 14:26:05.581033
2610  2023-10-26 14:26:05.628906
2611  2023-10-26 14:26:05.660954
2612  2023-10-26 14:26:05.708700
2613  2023-10-26 14:26:05.740617
2614  2023-10-26 14:26:05.788478
2615  2023-10-26 14:26:05.836347
2616  2023-10-26 14:26:05.868323
2617  2023-10-26 14:26:05.916229
2618  2023-10-26 14:26:05.947016
2619  2023-10-26 14:26:05.994965
2620  2023-10-26 14:26:06.041846
2621  2023-10-26 14:26:06.074762
2622  2023-10-26 14:26:06.120658
2623  2023-10-26 14:26:06.169515
2624  2023-10-26 14:26:06.201441
2625  2023-10-26 14:26:06.248303
2626  2023-10-26 14:26:06.280217
2627  2023-10-26 14:26:06.328083
2628  2023-10-26 14:26:06.375971
2629  2023-10-26 14:26:06.407868
2630  2023-10-26 14:26:06.453813
2631  2023-10-26 14:26:06.502735
2632  2023-10-26 14:26:06.533696
2633  2023-10-26 14:26:06.580519
2634  2023-10-26 14:26:06.628391
2635  2023-10-26 14:26:06.659966
2636  2023-10-26 14:26:06.707838
2637  2023-10-26 14:26:06.739753
2638  2023-10-26 14:26:06.787631
2639  2023-10-26 14:26:06.835560
2640  2023-10-26 14:26:06.867445
2641  2023-10-26 14:26:06.915315
2642  2023-10-26 14:26:06.947248
2643  2023-10-26 14:26:06.995070
2644  2023-10-26 14:26:07.042970
2645  2023-10-26 14:26:07.074914
2646  2023-10-26 14:26:07.122829
2647  2023-10-26 14:26:07.170750
2648  2023-10-26 14:26:07.200655
2649  2023-10-26 14:26:07.248493
2650  2023-10-26 14:26:07.280467
2651  2023-10-26 14:26:07.328280
2652  2023-10-26 14:26:07.375193
2653  2023-10-26 14:26:07.407100
2654  2023-10-26 14:26:07.452972
2655  2023-10-26 14:26:07.500865
2656  2023-10-26 14:26:07.532818
2657  2023-10-26 14:26:07.580639
2658  2023-10-26 14:26:07.628510
2659  2023-10-26 14:26:07.660430
2660  2023-10-26 14:26:07.708442
2661  2023-10-26 14:26:07.740358
2662  2023-10-26 14:26:07.788231
2663  2023-10-26 14:26:07.836119
2664  2023-10-26 14:26:07.868019
2665  2023-10-26 14:26:07.915891
2666  2023-10-26 14:26:07.947806
2667  2023-10-26 14:26:07.995707
2668  2023-10-26 14:26:08.043560
2669  2023-10-26 14:26:08.075470
2670  2023-10-26 14:26:08.121356
2671  2023-10-26 14:26:08.169215
2672  2023-10-26 14:26:08.201130
2673  2023-10-26 14:26:08.248011
2674  2023-10-26 14:26:08.294879
2675  2023-10-26 14:26:08.326759
2676  2023-10-26 14:26:08.374631
2677  2023-10-26 14:26:08.420509
2678  2023-10-26 14:26:08.452423
2679  2023-10-26 14:26:08.500294
2680  2023-10-26 14:26:08.531211
2681  2023-10-26 14:26:08.578134
2682  2023-10-26 14:26:08.624960
2683  2023-10-26 14:26:08.656875
2684  2023-10-26 14:26:08.702784
2685  2023-10-26 14:26:08.750657
2686  2023-10-26 14:26:08.782565
2687  2023-10-26 14:26:08.829425
2688  2023-10-26 14:26:08.876320
2689  2023-10-26 14:26:08.908236
2690  2023-10-26 14:26:08.956108
2691  2023-10-26 14:26:09.003142
2692  2023-10-26 14:26:09.034071
2693  2023-10-26 14:26:09.081935
2694  2023-10-26 14:26:09.127816
2695  2023-10-26 14:26:09.159693
2696  2023-10-26 14:26:09.208614
2697  2023-10-26 14:26:09.239520
2698  2023-10-26 14:26:09.287388
2699  2023-10-26 14:26:09.333267
2700  2023-10-26 14:26:09.366182
2701  2023-10-26 14:26:09.414042
2702  2023-10-26 14:26:09.458894
2703  2023-10-26 14:26:09.490809
2704  2023-10-26 14:26:09.536715
2705  2023-10-26 14:26:09.584559
2706  2023-10-26 14:26:09.616503
2707  2023-10-26 14:26:09.664345
2708  2023-10-26 14:26:09.712263
2709  2023-10-26 14:26:09.744182
2710  2023-10-26 14:26:09.792004
2711  2023-10-26 14:26:09.823918
2712  2023-10-26 14:26:09.871816
2713  2023-10-26 14:26:09.917702
2714  2023-10-26 14:26:09.949633
2715  2023-10-26 14:26:09.997454
2716  2023-10-26 14:26:10.045538
2717  2023-10-26 14:26:10.077401
2718  2023-10-26 14:26:10.123310
2719  2023-10-26 14:26:10.155237
2720  2023-10-26 14:26:10.204063
2721  2023-10-26 14:26:10.250981
2722  2023-10-26 14:26:10.282886
2723  2023-10-26 14:26:10.331756
2724  2023-10-26 14:26:10.378639
2725  2023-10-26 14:26:10.410544
2726  2023-10-26 14:26:10.456419
2727  2023-10-26 14:26:10.503347
2728  2023-10-26 14:26:10.535203
2729  2023-10-26 14:26:10.581086
2730  2023-10-26 14:26:10.627960
2731  2023-10-26 14:26:10.660878
2732  2023-10-26 14:26:10.706762
2733  2023-10-26 14:26:10.738657
2734  2023-10-26 14:26:10.786504
2735  2023-10-26 14:26:10.834400
2736  2023-10-26 14:26:10.866290
2737  2023-10-26 14:26:10.913198
2738  2023-10-26 14:26:10.961037
2739  2023-10-26 14:26:10.992952
2740  2023-10-26 14:26:11.040859
2741  2023-10-26 14:26:11.072772
2742  2023-10-26 14:26:11.120610
2743  2023-10-26 14:26:11.168517
2744  2023-10-26 14:26:11.200431
2745  2023-10-26 14:26:11.248277
2746  2023-10-26 14:26:11.295144
2747  2023-10-26 14:26:11.327058
2748  2023-10-26 14:26:11.374997
2749  2023-10-26 14:26:11.405914
2750  2023-10-26 14:26:11.452722
2751  2023-10-26 14:26:11.500631
2752  2023-10-26 14:26:11.532548
2753  2023-10-26 14:26:11.580428
2754  2023-10-26 14:26:11.628253
2755  2023-10-26 14:26:11.659205
2756  2023-10-26 14:26:11.706078
2757  2023-10-26 14:26:11.753965
2758  2023-10-26 14:26:11.785857
2759  2023-10-26 14:26:11.832864
2760  2023-10-26 14:26:11.863624
2761  2023-10-26 14:26:11.911499
2762  2023-10-26 14:26:11.959402
2763  2023-10-26 14:26:11.991318
2764  2023-10-26 14:26:12.039186
2765  2023-10-26 14:26:12.085063
2766  2023-10-26 14:26:12.116999
2767  2023-10-26 14:26:12.165817
2768  2023-10-26 14:26:12.211737
2769  2023-10-26 14:26:12.243650
2770  2023-10-26 14:26:12.288632
2771  2023-10-26 14:26:12.336569
2772  2023-10-26 14:26:12.368486
2773  2023-10-26 14:26:12.416324
2774  2023-10-26 14:26:12.448285
2775  2023-10-26 14:26:12.494116
2776  2023-10-26 14:26:12.542027
2777  2023-10-26 14:26:12.573936
2778  2023-10-26 14:26:12.621775
2779  2023-10-26 14:26:12.669692
2780  2023-10-26 14:26:12.701564
2781  2023-10-26 14:26:12.749465
2782  2023-10-26 14:26:12.781380
2783  2023-10-26 14:26:12.828223
2784  2023-10-26 14:26:12.876135
2785  2023-10-26 14:26:12.908046
2786  2023-10-26 14:26:12.954884
2787  2023-10-26 14:26:13.002840
2788  2023-10-26 14:26:13.035714
2789  2023-10-26 14:26:13.082590
2790  2023-10-26 14:26:13.114491
2791  2023-10-26 14:26:13.162357
2792  2023-10-26 14:26:13.210233
2793  2023-10-26 14:26:13.243116
2794  2023-10-26 14:26:13.290020
2795  2023-10-26 14:26:13.321949
2796  2023-10-26 14:26:13.369807
2797  2023-10-26 14:26:13.417647
2798  2023-10-26 14:26:13.449605
2799  2023-10-26 14:26:13.497434
2800  2023-10-26 14:26:13.545338
2801  2023-10-26 14:26:13.577253
2802  2023-10-26 14:26:13.625092
2803  2023-10-26 14:26:13.657007
2804  2023-10-26 14:26:13.704910
2805  2023-10-26 14:26:13.752834
2806  2023-10-26 14:26:13.784666
2807  2023-10-26 14:26:13.830576
2808  2023-10-26 14:26:13.877458
2809  2023-10-26 14:26:13.908335
2810  2023-10-26 14:26:13.954213
2811  2023-10-26 14:26:14.000132
2812  2023-10-26 14:26:14.044998
2813  2023-10-26 14:26:14.076915
2814  2023-10-26 14:26:14.123759
2815  2023-10-26 14:26:14.155674
2816  2023-10-26 14:26:14.203578
2817  2023-10-26 14:26:14.251529
2818  2023-10-26 14:26:14.283413
2819  2023-10-26 14:26:14.331374
2820  2023-10-26 14:26:14.377294
2821  2023-10-26 14:26:14.409208
2822  2023-10-26 14:26:14.457047
2823  2023-10-26 14:26:14.488996
2824  2023-10-26 14:26:14.536869
2825  2023-10-26 14:26:14.583749
2826  2023-10-26 14:26:14.614657
2827  2023-10-26 14:26:14.662531
2828  2023-10-26 14:26:14.710422
2829  2023-10-26 14:26:14.742315
2830  2023-10-26 14:26:14.790234
2831  2023-10-26 14:26:14.822096
2832  2023-10-26 14:26:14.867982
2833  2023-10-26 14:26:14.915880
2834  2023-10-26 14:26:14.962733
2835  2023-10-26 14:26:14.993661
2836  2023-10-26 14:26:15.040516
2837  2023-10-26 14:26:15.072436
2838  2023-10-26 14:26:15.121320
2839  2023-10-26 14:26:15.169303
2840  2023-10-26 14:26:15.197266
2841  2023-10-26 14:26:15.244226
2842  2023-10-26 14:26:15.292042
2843  2023-10-26 14:26:15.323957
2844  2023-10-26 14:26:15.371869
2845  2023-10-26 14:26:15.419778
2846  2023-10-26 14:26:15.450688
2847  2023-10-26 14:26:15.498474
2848  2023-10-26 14:26:15.530496
2849  2023-10-26 14:26:15.578402
2850  2023-10-26 14:26:15.625466
2851  2023-10-26 14:26:15.655237
2852  2023-10-26 14:26:15.701150
2853  2023-10-26 14:26:15.748020
2854  2023-10-26 14:26:15.794897
2855  2023-10-26 14:26:15.825815
2856  2023-10-26 14:26:15.874689
2857  2023-10-26 14:26:15.906596
2858  2023-10-26 14:26:15.952467
2859  2023-10-26 14:26:15.997322
2860  2023-10-26 14:26:16.043237
2861  2023-10-26 14:26:16.075147
2862  2023-10-26 14:26:16.122986
2863  2023-10-26 14:26:16.169895
2864  2023-10-26 14:26:16.201808
2865  2023-10-26 14:26:16.249648
2866  2023-10-26 14:26:16.281594
2867  2023-10-26 14:26:16.329434
2868  2023-10-26 14:26:16.377337
2869  2023-10-26 14:26:16.409267
2870  2023-10-26 14:26:16.457198
2871  2023-10-26 14:26:16.489113
2872  2023-10-26 14:26:16.536040
2873  2023-10-26 14:26:16.581984
2874  2023-10-26 14:26:16.628929
2875  2023-10-26 14:26:16.660942
2876  2023-10-26 14:26:16.708982
2877  2023-10-26 14:26:16.741915
2878  2023-10-26 14:26:16.788838
2879  2023-10-26 14:26:16.836776
2880  2023-10-26 14:26:16.868659
2881  2023-10-26 14:26:16.916523
2882  2023-10-26 14:26:16.948438
2883  2023-10-26 14:26:16.996287
2884  2023-10-26 14:26:17.042271
2885  2023-10-26 14:26:17.073202
2886  2023-10-26 14:26:17.120062
2887  2023-10-26 14:26:17.167937
2888  2023-10-26 14:26:17.199954
2889  2023-10-26 14:26:17.247718
2890  2023-10-26 14:26:17.297618
2891  2023-10-26 14:26:17.327471
2892  2023-10-26 14:26:17.375373
2893  2023-10-26 14:26:17.407439
2894  2023-10-26 14:26:17.457322
2895  2023-10-26 14:26:17.503177
2896  2023-10-26 14:26:17.535088
2897  2023-10-26 14:26:17.582963
2898  2023-10-26 14:26:17.614878
2899  2023-10-26 14:26:17.662747
2900  2023-10-26 14:26:17.708627
2901  2023-10-26 14:26:17.739548
2902  2023-10-26 14:26:17.787382
2903  2023-10-26 14:26:17.835288
2904  2023-10-26 14:26:17.868168
2905  2023-10-26 14:26:17.913096
2906  2023-10-26 14:26:17.961917
2907  2023-10-26 14:26:17.992833
2908  2023-10-26 14:26:18.040756
2909  2023-10-26 14:26:18.072621
2910  2023-10-26 14:26:18.119494
2911  2023-10-26 14:26:18.167367
2912  2023-10-26 14:26:18.199281
2913  2023-10-26 14:26:18.247153
2914  2023-10-26 14:26:18.295025
2915  2023-10-26 14:26:18.325942
2916  2023-10-26 14:26:18.373855
2917  2023-10-26 14:26:18.405731
2918  2023-10-26 14:26:18.453643
2919  2023-10-26 14:26:18.501506
2920  2023-10-26 14:26:18.532423
2921  2023-10-26 14:26:18.580311
2922  2023-10-26 14:26:18.628194
2923  2023-10-26 14:26:18.659077
2924  2023-10-26 14:26:18.705928
2925  2023-10-26 14:26:18.753834
2926  2023-10-26 14:26:18.785752
2927  2023-10-26 14:26:18.833619
2928  2023-10-26 14:26:18.865532
2929  2023-10-26 14:26:18.913404
2930  2023-10-26 14:26:18.959249
2931  2023-10-26 14:26:18.991164
2932  2023-10-26 14:26:19.039085
2933  2023-10-26 14:26:19.087907
2934  2023-10-26 14:26:19.118857
2935  2023-10-26 14:26:19.167697
2936  2023-10-26 14:26:19.198609
2937  2023-10-26 14:26:19.247583
2938  2023-10-26 14:26:19.295538
2939  2023-10-26 14:26:19.325422
2940  2023-10-26 14:26:19.373422
2941  2023-10-26 14:26:19.421288
2942  2023-10-26 14:26:19.453197
2943  2023-10-26 14:26:19.501094
2944  2023-10-26 14:26:19.535064
2945  2023-10-26 14:26:19.577949
2946  2023-10-26 14:26:19.624790
2947  2023-10-26 14:26:19.656685
2948  2023-10-26 14:26:19.703527
2949  2023-10-26 14:26:19.751432
2950  2023-10-26 14:26:19.783349
2951  2023-10-26 14:26:19.829196
2952  2023-10-26 14:26:19.877152
2953  2023-10-26 14:26:19.910060
2954  2023-10-26 14:26:19.956969
2955  2023-10-26 14:26:19.988886
2956  2023-10-26 14:26:20.037720
2957  2023-10-26 14:26:20.084832
2958  2023-10-26 14:26:20.116621
2959  2023-10-26 14:26:20.163470
2960  2023-10-26 14:26:20.210370
2961  2023-10-26 14:26:20.242284
2962  2023-10-26 14:26:20.288167
2963  2023-10-26 14:26:20.336009
2964  2023-10-26 14:26:20.367977
2965  2023-10-26 14:26:20.415795
2966  2023-10-26 14:26:20.461672
2967  2023-10-26 14:26:20.494616
2968  2023-10-26 14:26:20.539495
2969  2023-10-26 14:26:20.588365
2970  2023-10-26 14:26:20.620279
2971  2023-10-26 14:26:20.668121
2972  2023-10-26 14:26:20.700068
2973  2023-10-26 14:26:20.747955
2974  2023-10-26 14:26:20.793784
2975  2023-10-26 14:26:20.824702
2976  2023-10-26 14:26:20.872624
2977  2023-10-26 14:26:20.920601
2978  2023-10-26 14:26:20.952516
2979  2023-10-26 14:26:21.000436
2980  2023-10-26 14:26:21.031360
2981  2023-10-26 14:26:21.077184
2982  2023-10-26 14:26:21.125055
2983  2023-10-26 14:26:21.156969
2984  2023-10-26 14:26:21.204841
2985  2023-10-26 14:26:21.252754
2986  2023-10-26 14:26:21.284663
2987  2023-10-26 14:26:21.332500
2988  2023-10-26 14:26:21.364448
2989  2023-10-26 14:26:21.410338
2990  2023-10-26 14:26:21.458194
2991  2023-10-26 14:26:21.490110
2992  2023-10-26 14:26:21.537982
2993  2023-10-26 14:26:21.585823
2994  2023-10-26 14:26:21.617769
2995  2023-10-26 14:26:21.665641
2996  2023-10-26 14:26:21.697555
2997  2023-10-26 14:26:21.745420
2998  2023-10-26 14:26:21.793299
2999  2023-10-26 14:26:21.825184
3000  2023-10-26 14:26:21.873178
3001  2023-10-26 14:26:21.920053
3002  2023-10-26 14:26:21.951967
3003  2023-10-26 14:26:21.999841
3004  2023-10-26 14:26:22.031820
3005  2023-10-26 14:26:22.078777
3006  2023-10-26 14:26:22.125698
3007  2023-10-26 14:26:22.157603
3008  2023-10-26 14:26:22.203443
3009  2023-10-26 14:26:22.251363
3010  2023-10-26 14:26:22.283273
3011  2023-10-26 14:26:22.331152
3012  2023-10-26 14:26:22.379006
3013  2023-10-26 14:26:22.407952
3014  2023-10-26 14:26:22.454769
3015  2023-10-26 14:26:22.501683
3016  2023-10-26 14:26:22.533605
3017  2023-10-26 14:26:22.581612
3018  2023-10-26 14:26:22.628305
3019  2023-10-26 14:26:22.659258
3020  2023-10-26 14:26:22.707125
3021  2023-10-26 14:26:22.739041
3022  2023-10-26 14:26:22.786913
3023  2023-10-26 14:26:22.834789
3024  2023-10-26 14:26:22.866668
3025  2023-10-26 14:26:22.913577
3026  2023-10-26 14:26:22.961559
3027  2023-10-26 14:26:22.993474
3028  2023-10-26 14:26:23.039353
3029  2023-10-26 14:26:23.085231
3030  2023-10-26 14:26:23.117150
3031  2023-10-26 14:26:23.165192
3032  2023-10-26 14:26:23.210909
3033  2023-10-26 14:26:23.242813
3034  2023-10-26 14:26:23.290673
3035  2023-10-26 14:26:23.322593
3036  2023-10-26 14:26:23.370469
3037  2023-10-26 14:26:23.418337
3038  2023-10-26 14:26:23.462189
3039  2023-10-26 14:26:23.492109
3040  2023-10-26 14:26:23.537986
3041  2023-10-26 14:26:23.586086
3042  2023-10-26 14:26:23.617809
3043  2023-10-26 14:26:23.665645
3044  2023-10-26 14:26:23.697560
3045  2023-10-26 14:26:23.745463
3046  2023-10-26 14:26:23.793341
3047  2023-10-26 14:26:23.825218
3048  2023-10-26 14:26:23.873115
3049  2023-10-26 14:26:23.919998
3050  2023-10-26 14:26:23.950970
3051  2023-10-26 14:26:23.996997
3052  2023-10-26 14:26:24.044971
3053  2023-10-26 14:26:24.076856
3054  2023-10-26 14:26:24.124741
3055  2023-10-26 14:26:24.156639
3056  2023-10-26 14:26:24.203603
3057  2023-10-26 14:26:24.250402
3058  2023-10-26 14:26:24.283303
3059  2023-10-26 14:26:24.330211
3060  2023-10-26 14:26:24.378056
3061  2023-10-26 14:26:24.409974
3062  2023-10-26 14:26:24.457956
3063  2023-10-26 14:26:24.489866
3064  2023-10-26 14:26:24.537735
3065  2023-10-26 14:26:24.585573
3066  2023-10-26 14:26:24.617565
3067  2023-10-26 14:26:24.665360
3068  2023-10-26 14:26:24.713233
3069  2023-10-26 14:26:24.745182
3070  2023-10-26 14:26:24.793022
3071  2023-10-26 14:26:24.825969
3072  2023-10-26 14:26:24.873837
3073  2023-10-26 14:26:24.920690
3074  2023-10-26 14:26:24.952758
3075  2023-10-26 14:26:24.998713
3076  2023-10-26 14:26:25.045584
3077  2023-10-26 14:26:25.077498
3078  2023-10-26 14:26:25.125338
3079  2023-10-26 14:26:25.157285
3080  2023-10-26 14:26:25.205379
3081  2023-10-26 14:26:25.253191
3082  2023-10-26 14:26:25.285137
3083  2023-10-26 14:26:25.333977
3084  2023-10-26 14:26:25.365890
3085  2023-10-26 14:26:25.412764
3086  2023-10-26 14:26:25.460636
3087  2023-10-26 14:26:25.491553
3088  2023-10-26 14:26:25.538428
3089  2023-10-26 14:26:25.586390
3090  2023-10-26 14:26:25.618378
3091  2023-10-26 14:26:25.666217
3092  2023-10-26 14:26:25.698132
3093  2023-10-26 14:26:25.744061
3094  2023-10-26 14:26:25.789937
3095  2023-10-26 14:26:25.821858
3096  2023-10-26 14:26:25.867772
3097  2023-10-26 14:26:25.915734
3098  2023-10-26 14:26:25.948768
3099  2023-10-26 14:26:25.995800
3100  2023-10-26 14:26:26.043677
3101  2023-10-26 14:26:26.076588
3102  2023-10-26 14:26:26.123453
3103  2023-10-26 14:26:26.155370
3104  2023-10-26 14:26:26.203240
3105  2023-10-26 14:26:26.250130
3106  2023-10-26 14:26:26.282034
3107  2023-10-26 14:26:26.329869
3108  2023-10-26 14:26:26.378781
3109  2023-10-26 14:26:26.409736
3110  2023-10-26 14:26:26.457580
3111  2023-10-26 14:26:26.503450
3112  2023-10-26 14:26:26.535359
3113  2023-10-26 14:26:26.583240
3114  2023-10-26 14:26:26.615137
3115  2023-10-26 14:26:26.664009
3116  2023-10-26 14:26:26.710888
3117  2023-10-26 14:26:26.741801
3118  2023-10-26 14:26:26.788644
3119  2023-10-26 14:26:26.836515
3120  2023-10-26 14:26:26.867432
3121  2023-10-26 14:26:26.915349
3122  2023-10-26 14:26:26.947274
3123  2023-10-26 14:26:26.995180
3124  2023-10-26 14:26:27.043085
3125  2023-10-26 14:26:27.074992
3126  2023-10-26 14:26:27.122883
3127  2023-10-26 14:26:27.170711
3128  2023-10-26 14:26:27.202625
3129  2023-10-26 14:26:27.249533
3130  2023-10-26 14:26:27.280449
3131  2023-10-26 14:26:27.328289
3132  2023-10-26 14:26:27.376194
3133  2023-10-26 14:26:27.408100
3134  2023-10-26 14:26:27.456108
3135  2023-10-26 14:26:27.503820
3136  2023-10-26 14:26:27.535735
3137  2023-10-26 14:26:27.583657
3138  2023-10-26 14:26:27.615552
3139  2023-10-26 14:26:27.663425
3140  2023-10-26 14:26:27.711314
3141  2023-10-26 14:26:27.743230
3142  2023-10-26 14:26:27.790088
3143  2023-10-26 14:26:27.822017
3144  2023-10-26 14:26:27.869843
3145  2023-10-26 14:26:27.917715
3146  2023-10-26 14:26:27.949630
3147  2023-10-26 14:26:27.995537
3148  2023-10-26 14:26:28.043410
3149  2023-10-26 14:26:28.075336
3150  2023-10-26 14:26:28.123197
3151  2023-10-26 14:26:28.155208
3152  2023-10-26 14:26:28.201200
3153  2023-10-26 14:26:28.248200
3154  2023-10-26 14:26:28.297145
3155  2023-10-26 14:26:28.326040
3156  2023-10-26 14:26:28.373883
3157  2023-10-26 14:26:28.419814
3158  2023-10-26 14:26:28.451703
3159  2023-10-26 14:26:28.499544
3160  2023-10-26 14:26:28.531459
3161  2023-10-26 14:26:28.579375
3162  2023-10-26 14:26:28.627370
3163  2023-10-26 14:26:28.659285
3164  2023-10-26 14:26:28.707157
3165  2023-10-26 14:26:28.739072
3166  2023-10-26 14:26:28.786975
3167  2023-10-26 14:26:28.833818
3168  2023-10-26 14:26:28.865733
3169  2023-10-26 14:26:28.913637
3170  2023-10-26 14:26:28.961477
3171  2023-10-26 14:26:28.993392
3172  2023-10-26 14:26:29.041295
3173  2023-10-26 14:26:29.073210
3174  2023-10-26 14:26:29.121086
3175  2023-10-26 14:26:29.168922
3176  2023-10-26 14:26:29.200837
3177  2023-10-26 14:26:29.248744
3178  2023-10-26 14:26:29.295584
3179  2023-10-26 14:26:29.327499
3180  2023-10-26 14:26:29.373422
3181  2023-10-26 14:26:29.420286
3182  2023-10-26 14:26:29.452214
3183  2023-10-26 14:26:29.500150
3184  2023-10-26 14:26:29.532067
3185  2023-10-26 14:26:29.579939
3186  2023-10-26 14:26:29.627810
3187  2023-10-26 14:26:29.659724
3188  2023-10-26 14:26:29.707567
3189  2023-10-26 14:26:29.739480
3190  2023-10-26 14:26:29.787397
3191  2023-10-26 14:26:29.835249
3192  2023-10-26 14:26:29.867172
3193  2023-10-26 14:26:29.915069
3194  2023-10-26 14:26:29.947022
3195  2023-10-26 14:26:29.994021
3196  2023-10-26 14:26:30.040975
3197  2023-10-26 14:26:30.072833
3198  2023-10-26 14:26:30.120706
3199  2023-10-26 14:26:30.168608
3200  2023-10-26 14:26:30.200524
3201  2023-10-26 14:26:30.246399
3202  2023-10-26 14:26:30.295292
3203  2023-10-26 14:26:30.325200
3204  2023-10-26 14:26:30.373090
3205  2023-10-26 14:26:30.417944
3206  2023-10-26 14:26:30.448854
3207  2023-10-26 14:26:30.496711
3208  2023-10-26 14:26:30.544615
3209  2023-10-26 14:26:30.576531
3210  2023-10-26 14:26:30.624370
3211  2023-10-26 14:26:30.656322
3212  2023-10-26 14:26:30.704157
3213  2023-10-26 14:26:30.752183
3214  2023-10-26 14:26:30.784093
3215  2023-10-26 14:26:30.832058
3216  2023-10-26 14:26:30.863841
3217  2023-10-26 14:26:30.911749
3218  2023-10-26 14:26:30.959585
3219  2023-10-26 14:26:30.991500
3220  2023-10-26 14:26:31.039404
3221  2023-10-26 14:26:31.085291
3222  2023-10-26 14:26:31.117166
3223  2023-10-26 14:26:31.165038
3224  2023-10-26 14:26:31.196951
3225  2023-10-26 14:26:31.244860
3226  2023-10-26 14:26:31.292695
3227  2023-10-26 14:26:31.324653
3228  2023-10-26 14:26:31.372482
3229  2023-10-26 14:26:31.419415
3230  2023-10-26 14:26:31.450316
3231  2023-10-26 14:26:31.498178
3232  2023-10-26 14:26:31.545053
3233  2023-10-26 14:26:31.577963
3234  2023-10-26 14:26:31.624834
3235  2023-10-26 14:26:31.656767
3236  2023-10-26 14:26:31.703597
3237  2023-10-26 14:26:31.750518
3238  2023-10-26 14:26:31.782434
3239  2023-10-26 14:26:31.830291
3240  2023-10-26 14:26:31.878199
3241  2023-10-26 14:26:31.910307
3242  2023-10-26 14:26:31.958095
3243  2023-10-26 14:26:31.989042
3244  2023-10-26 14:26:32.037886
3245  2023-10-26 14:26:32.085770
3246  2023-10-26 14:26:32.117685
3247  2023-10-26 14:26:32.163514
3248  2023-10-26 14:26:32.211460
3249  2023-10-26 14:26:32.243331
3250  2023-10-26 14:26:32.291210
3251  2023-10-26 14:26:32.323126
3252  2023-10-26 14:26:32.371017
3253  2023-10-26 14:26:32.418878
3254  2023-10-26 14:26:32.450782
3255  2023-10-26 14:26:32.496623
3256  2023-10-26 14:26:32.544530
3257  2023-10-26 14:26:32.576444
3258  2023-10-26 14:26:32.622287
3259  2023-10-26 14:26:32.670159
3260  2023-10-26 14:26:32.702074
3261  2023-10-26 14:26:32.749946
3262  2023-10-26 14:26:32.781904
3263  2023-10-26 14:26:32.828735
3264  2023-10-26 14:26:32.875642
3265  2023-10-26 14:26:32.907655
3266  2023-10-26 14:26:32.955397
3267  2023-10-26 14:26:33.004268
3268  2023-10-26 14:26:33.036182
3269  2023-10-26 14:26:33.083097
3270  2023-10-26 14:26:33.115004
3271  2023-10-26 14:26:33.162877
3272  2023-10-26 14:26:33.210815
3273  2023-10-26 14:26:33.240737
3274  2023-10-26 14:26:33.286645
3275  2023-10-26 14:26:33.334596
3276  2023-10-26 14:26:33.364521
3277  2023-10-26 14:26:33.412385
3278  2023-10-26 14:26:33.459227
3279  2023-10-26 14:26:33.490178
3280  2023-10-26 14:26:33.538079
3281  2023-10-26 14:26:33.583926
3282  2023-10-26 14:26:33.615841
3283  2023-10-26 14:26:33.663850
3284  2023-10-26 14:26:33.711754
3285  2023-10-26 14:26:33.743690
3286  2023-10-26 14:26:33.791509
3287  2023-10-26 14:26:33.823550
3288  2023-10-26 14:26:33.871294
3289  2023-10-26 14:26:33.918194
3290  2023-10-26 14:26:33.949179
3291  2023-10-26 14:26:33.997112
3292  2023-10-26 14:26:34.045021
3293  2023-10-26 14:26:34.076937
3294  2023-10-26 14:26:34.124771
3295  2023-10-26 14:26:34.156686
3296  2023-10-26 14:26:34.204648
3297  2023-10-26 14:26:34.252594
3298  2023-10-26 14:26:34.284667
3299  2023-10-26 14:26:34.332354
3300  2023-10-26 14:26:34.378233
3301  2023-10-26 14:26:34.409193
3302  2023-10-26 14:26:34.454030
3303  2023-10-26 14:26:34.501933
3304  2023-10-26 14:26:34.531853
3305  2023-10-26 14:26:34.579738
3306  2023-10-26 14:26:34.625682
3307  2023-10-26 14:26:34.657640
3308  2023-10-26 14:26:34.705523
3309  2023-10-26 14:26:34.753474
3310  2023-10-26 14:26:34.785577
3311  2023-10-26 14:26:34.833604
3312  2023-10-26 14:26:34.865532
3313  2023-10-26 14:26:34.913395
3314  2023-10-26 14:26:34.961263
3315  2023-10-26 14:26:34.990284
3316  2023-10-26 14:26:35.037066
3317  2023-10-26 14:26:35.084952
3318  2023-10-26 14:26:35.117868
3319  2023-10-26 14:26:35.164687
3320  2023-10-26 14:26:35.211601
3321  2023-10-26 14:26:35.242515
3322  2023-10-26 14:26:35.290352
3323  2023-10-26 14:26:35.322266
3324  2023-10-26 14:26:35.369745
3325  2023-10-26 14:26:35.415653
3326  2023-10-26 14:26:35.447536
3327  2023-10-26 14:26:35.495445
3328  2023-10-26 14:26:35.543281
3329  2023-10-26 14:26:35.575200
3330  2023-10-26 14:26:35.623196
3331  2023-10-26 14:26:35.670059
3332  2023-10-26 14:26:35.701984
3333  2023-10-26 14:26:35.748872
3334  2023-10-26 14:26:35.795784
3335  2023-10-26 14:26:35.826697
3336  2023-10-26 14:26:35.874538
3337  2023-10-26 14:26:35.906552
3338  2023-10-26 14:26:35.954408
3339  2023-10-26 14:26:36.001355
3340  2023-10-26 14:26:36.034302
3341  2023-10-26 14:26:36.081256
3342  2023-10-26 14:26:36.128135
3343  2023-10-26 14:26:36.160039
3344  2023-10-26 14:26:36.208007
3345  2023-10-26 14:26:36.240013
3346  2023-10-26 14:26:36.285876
3347  2023-10-26 14:26:36.332714
3348  2023-10-26 14:26:36.364629
3349  2023-10-26 14:26:36.411537
3350  2023-10-26 14:26:36.458386
3351  2023-10-26 14:26:36.490293
3352  2023-10-26 14:26:36.536243
3353  2023-10-26 14:26:36.583362
3354  2023-10-26 14:26:36.614276
3355  2023-10-26 14:26:36.660194
3356  2023-10-26 14:26:36.708085
3357  2023-10-26 14:26:36.739992
3358  2023-10-26 14:26:36.787868
3359  2023-10-26 14:26:36.833747
3360  2023-10-26 14:26:36.865644
3361  2023-10-26 14:26:36.914514
3362  2023-10-26 14:26:36.960439
3363  2023-10-26 14:26:36.993384
3364  2023-10-26 14:26:37.040263
3365  2023-10-26 14:26:37.074170
3366  2023-10-26 14:26:37.120085
3367  2023-10-26 14:26:37.167884
3368  2023-10-26 14:26:37.199849
3369  2023-10-26 14:26:37.247701
3370  2023-10-26 14:26:37.295585
3371  2023-10-26 14:26:37.327491
3372  2023-10-26 14:26:37.375373
3373  2023-10-26 14:26:37.408275
3374  2023-10-26 14:26:37.455164
3375  2023-10-26 14:26:37.500993
3376  2023-10-26 14:26:37.531911
3377  2023-10-26 14:26:37.578982
3378  2023-10-26 14:26:37.626826
3379  2023-10-26 14:26:37.658845
3380  2023-10-26 14:26:37.706748
3381  2023-10-26 14:26:37.739714
3382  2023-10-26 14:26:37.785507
3383  2023-10-26 14:26:37.833410
3384  2023-10-26 14:26:37.865293
3385  2023-10-26 14:26:37.913334
3386  2023-10-26 14:26:37.961176
3387  2023-10-26 14:26:37.993090
3388  2023-10-26 14:26:38.040996
3389  2023-10-26 14:26:38.072929
3390  2023-10-26 14:26:38.120749
3391  2023-10-26 14:26:38.167627
3392  2023-10-26 14:26:38.198573
3393  2023-10-26 14:26:38.246413
3394  2023-10-26 14:26:38.294331
3395  2023-10-26 14:26:38.326200
3396  2023-10-26 14:26:38.374104
3397  2023-10-26 14:26:38.406987
3398  2023-10-26 14:26:38.453861
3399  2023-10-26 14:26:38.501766
3400  2023-10-26 14:26:38.533700
3401  2023-10-26 14:26:38.579585
3402  2023-10-26 14:26:38.627434
3403  2023-10-26 14:26:38.659351
3404  2023-10-26 14:26:38.707216
3405  2023-10-26 14:26:38.739143
3406  2023-10-26 14:26:38.785972
3407  2023-10-26 14:26:38.831896
3408  2023-10-26 14:26:38.879787
3409  2023-10-26 14:26:38.911667
3410  2023-10-26 14:26:38.958514
3411  2023-10-26 14:26:38.990424
3412  2023-10-26 14:26:39.038343
3413  2023-10-26 14:26:39.086228
3414  2023-10-26 14:26:39.118121
3415  2023-10-26 14:26:39.165997
3416  2023-10-26 14:26:39.197912
3417  2023-10-26 14:26:39.245774
3418  2023-10-26 14:26:39.293623
3419  2023-10-26 14:26:39.325573
3420  2023-10-26 14:26:39.374436
3421  2023-10-26 14:26:39.422325
3422  2023-10-26 14:26:39.450229
3423  2023-10-26 14:26:39.498067
3424  2023-10-26 14:26:39.544985
3425  2023-10-26 14:26:39.575926
3426  2023-10-26 14:26:39.621907
3427  2023-10-26 14:26:39.669797
3428  2023-10-26 14:26:39.701691
3429  2023-10-26 14:26:39.749568
3430  2023-10-26 14:26:39.781576
3431  2023-10-26 14:26:39.828381
3432  2023-10-26 14:26:39.875195
3433  2023-10-26 14:26:39.907142
3434  2023-10-26 14:26:39.955030
3435  2023-10-26 14:26:40.002854
3436  2023-10-26 14:26:40.034802
3437  2023-10-26 14:26:40.081677
3438  2023-10-26 14:26:40.128542
3439  2023-10-26 14:26:40.158471
3440  2023-10-26 14:26:40.205344
3441  2023-10-26 14:26:40.253225
3442  2023-10-26 14:26:40.285140
3443  2023-10-26 14:26:40.333010
3444  2023-10-26 14:26:40.364919
3445  2023-10-26 14:26:40.414790
3446  2023-10-26 14:26:40.460662
3447  2023-10-26 14:26:40.492597
3448  2023-10-26 14:26:40.541455
3449  2023-10-26 14:26:40.573375
3450  2023-10-26 14:26:40.621246
3451  2023-10-26 14:26:40.666080
3452  2023-10-26 14:26:40.697995
3453  2023-10-26 14:26:40.745898
3454  2023-10-26 14:26:40.791744
3455  2023-10-26 14:26:40.823659
3456  2023-10-26 14:26:40.871577
3457  2023-10-26 14:26:40.918437
3458  2023-10-26 14:26:40.950354
3459  2023-10-26 14:26:40.998225
3460  2023-10-26 14:26:41.045108
3461  2023-10-26 14:26:41.076017
3462  2023-10-26 14:26:41.122891
3463  2023-10-26 14:26:41.168863
3464  2023-10-26 14:26:41.199766
3465  2023-10-26 14:26:41.247639
3466  2023-10-26 14:26:41.294547
3467  2023-10-26 14:26:41.324476
3468  2023-10-26 14:26:41.372396
3469  2023-10-26 14:26:41.421332
3470  2023-10-26 14:26:41.452341
3471  2023-10-26 14:26:41.500325
3472  2023-10-26 14:26:41.532399
3473  2023-10-26 14:26:41.580387
3474  2023-10-26 14:26:41.625283
3475  2023-10-26 14:26:41.657197
3476  2023-10-26 14:26:41.705103
3477  2023-10-26 14:26:41.752941
3478  2023-10-26 14:26:41.784856
3479  2023-10-26 14:26:41.831734
3480  2023-10-26 14:26:41.879745
3481  2023-10-26 14:26:41.911659
3482  2023-10-26 14:26:41.958532
3483  2023-10-26 14:26:41.990446
3484  2023-10-26 14:26:42.038352
3485  2023-10-26 14:26:42.086223
3486  2023-10-26 14:26:42.118105
3487  2023-10-26 14:26:42.163983
3488  2023-10-26 14:26:42.209860
3489  2023-10-26 14:26:42.241775
3490  2023-10-26 14:26:42.287652
3491  2023-10-26 14:26:42.335524
3492  2023-10-26 14:26:42.367439
3493  2023-10-26 14:26:42.415312
3494  2023-10-26 14:26:42.461222
3495  2023-10-26 14:26:42.494162
3496  2023-10-26 14:26:42.541117
3497  2023-10-26 14:26:42.573987
3498  2023-10-26 14:26:42.620860
3499  2023-10-26 14:26:42.668766
3500  2023-10-26 14:26:42.700681
3501  2023-10-26 14:26:42.748619
3502  2023-10-26 14:26:42.780537
3503  2023-10-26 14:26:42.828408
3504  2023-10-26 14:26:42.877289
3505  2023-10-26 14:26:42.909193
3506  2023-10-26 14:26:42.957065
3507  2023-10-26 14:26:43.004945
3508  2023-10-26 14:26:43.036861
3509  2023-10-26 14:26:43.085718
3510  2023-10-26 14:26:43.117632
3511  2023-10-26 14:26:43.163515
3512  2023-10-26 14:26:43.208360
3513  2023-10-26 14:26:43.243280
3514  2023-10-26 14:26:43.287149
3515  2023-10-26 14:26:43.334109
3516  2023-10-26 14:26:43.365940
3517  2023-10-26 14:26:43.412819
3518  2023-10-26 14:26:43.459720
3519  2023-10-26 14:26:43.490637
3520  2023-10-26 14:26:43.538477
3521  2023-10-26 14:26:43.586375
3522  2023-10-26 14:26:43.617301
3523  2023-10-26 14:26:43.664173
3524  2023-10-26 14:26:43.712067
3525  2023-10-26 14:26:43.743965
3526  2023-10-26 14:26:43.791843
3527  2023-10-26 14:26:43.823906
3528  2023-10-26 14:26:43.871635
3529  2023-10-26 14:26:43.920492
3530  2023-10-26 14:26:43.951425
3531  2023-10-26 14:26:43.999278
3532  2023-10-26 14:26:44.031111
3533  2023-10-26 14:26:44.080021
3534  2023-10-26 14:26:44.126896
3535  2023-10-26 14:26:44.158941
3536  2023-10-26 14:26:44.206785
3537  2023-10-26 14:26:44.238665
3538  2023-10-26 14:26:44.286676
3539  2023-10-26 14:26:44.334627
3540  2023-10-26 14:26:44.366575
3541  2023-10-26 14:26:44.414448
3542  2023-10-26 14:26:44.462349
3543  2023-10-26 14:26:44.494236
3544  2023-10-26 14:26:44.542185
3545  2023-10-26 14:26:44.574101
3546  2023-10-26 14:26:44.622120
3547  2023-10-26 14:26:44.669852
3548  2023-10-26 14:26:44.701752
3549  2023-10-26 14:26:44.750589
3550  2023-10-26 14:26:44.780509
3551  2023-10-26 14:26:44.828408
3552  2023-10-26 14:26:44.877280
3553  2023-10-26 14:26:44.906207
3554  2023-10-26 14:26:44.953092
3555  2023-10-26 14:26:45.001957
3556  2023-10-26 14:26:45.033871
3557  2023-10-26 14:26:45.078745
3558  2023-10-26 14:26:45.125617
3559  2023-10-26 14:26:45.157525
3560  2023-10-26 14:26:45.205403
3561  2023-10-26 14:26:45.252295
