
1  2023-10-20 10:09:18.639959
2  2023-10-20 10:09:18.671928
3  2023-10-20 10:09:18.703787
4  2023-10-20 10:09:18.736701
5  2023-10-20 10:09:18.768615
6  2023-10-20 10:09:18.815491
7  2023-10-20 10:09:18.848221
8  2023-10-20 10:09:18.880173
9  2023-10-20 10:09:18.912111
10  2023-10-20 10:09:18.944025
11  2023-10-20 10:09:18.975939
12  2023-10-20 10:09:19.007975
13  2023-10-20 10:09:19.039898
14  2023-10-20 10:09:19.071804
15  2023-10-20 10:09:19.103753
16  2023-10-20 10:09:19.135722
17  2023-10-20 10:09:19.167582
18  2023-10-20 10:09:19.215453
19  2023-10-20 10:09:19.247368
20  2023-10-20 10:09:19.280280
21  2023-10-20 10:09:19.312121
22  2023-10-20 10:09:19.344096
23  2023-10-20 10:09:19.376011
24  2023-10-20 10:09:19.407925
25  2023-10-20 10:09:19.439901
26  2023-10-20 10:09:19.471755
27  2023-10-20 10:09:19.503669
28  2023-10-20 10:09:19.535584
29  2023-10-20 10:09:19.567557
30  2023-10-20 10:09:19.615414
31  2023-10-20 10:09:19.647284
32  2023-10-20 10:09:19.679199
33  2023-10-20 10:09:19.712112
34  2023-10-20 10:09:19.744035
35  2023-10-20 10:09:19.775941
36  2023-10-20 10:09:19.807856
37  2023-10-20 10:09:19.839844
38  2023-10-20 10:09:19.871759
39  2023-10-20 10:09:19.903745
40  2023-10-20 10:09:19.935699
41  2023-10-20 10:09:19.967613
42  2023-10-20 10:09:20.015530
43  2023-10-20 10:09:20.047400
44  2023-10-20 10:09:20.079356
45  2023-10-20 10:09:20.111191
46  2023-10-20 10:09:20.144137
47  2023-10-20 10:09:20.176052
48  2023-10-20 10:09:20.207997
49  2023-10-20 10:09:20.239912
50  2023-10-20 10:09:20.271795
51  2023-10-20 10:09:20.303710
52  2023-10-20 10:09:20.335625
53  2023-10-20 10:09:20.367539
54  2023-10-20 10:09:20.415443
55  2023-10-20 10:09:20.448324
56  2023-10-20 10:09:20.480238
57  2023-10-20 10:09:20.512170
58  2023-10-20 10:09:20.544163
59  2023-10-20 10:09:20.576130
60  2023-10-20 10:09:20.608044
61  2023-10-20 10:09:20.639958
62  2023-10-20 10:09:20.671912
63  2023-10-20 10:09:20.703786
64  2023-10-20 10:09:20.735772
65  2023-10-20 10:09:20.767615
66  2023-10-20 10:09:20.815487
67  2023-10-20 10:09:20.847402
68  2023-10-20 10:09:20.879316
69  2023-10-20 10:09:20.911278
70  2023-10-20 10:09:20.943178
71  2023-10-20 10:09:20.976073
72  2023-10-20 10:09:21.008054
73  2023-10-20 10:09:21.039970
74  2023-10-20 10:09:21.071912
75  2023-10-20 10:09:21.103818
76  2023-10-20 10:09:21.135764
77  2023-10-20 10:09:21.167679
78  2023-10-20 10:09:21.215551
79  2023-10-20 10:09:21.248009
80  2023-10-20 10:09:21.280002
81  2023-10-20 10:09:21.311923
82  2023-10-20 10:09:21.343838
83  2023-10-20 10:09:21.375799
84  2023-10-20 10:09:21.407699
85  2023-10-20 10:09:21.439582
86  2023-10-20 10:09:21.471496
87  2023-10-20 10:09:21.503410
88  2023-10-20 10:09:21.535325
89  2023-10-20 10:09:21.567239
90  2023-10-20 10:09:21.615145
91  2023-10-20 10:09:21.648023
92  2023-10-20 10:09:21.679938
93  2023-10-20 10:09:21.711852
94  2023-10-20 10:09:21.743815
95  2023-10-20 10:09:21.775869
96  2023-10-20 10:09:21.807784
97  2023-10-20 10:09:21.839698
98  2023-10-20 10:09:21.871613
99  2023-10-20 10:09:21.903527
100  2023-10-20 10:09:21.935450
101  2023-10-20 10:09:21.967356
102  2023-10-20 10:09:22.015275
103  2023-10-20 10:09:22.047143
104  2023-10-20 10:09:22.080057
105  2023-10-20 10:09:22.111969
106  2023-10-20 10:09:22.143949
107  2023-10-20 10:09:22.175798
108  2023-10-20 10:09:22.207713
109  2023-10-20 10:09:22.240625
110  2023-10-20 10:09:22.272541
111  2023-10-20 10:09:22.303456
112  2023-10-20 10:09:22.336369
113  2023-10-20 10:09:22.368283
114  2023-10-20 10:09:22.415190
115  2023-10-20 10:09:22.448073
116  2023-10-20 10:09:22.479989
117  2023-10-20 10:09:22.511898
118  2023-10-20 10:09:22.543558
119  2023-10-20 10:09:22.575494
120  2023-10-20 10:09:22.607399
121  2023-10-20 10:09:22.639272
122  2023-10-20 10:09:22.671203
123  2023-10-20 10:09:22.704103
124  2023-10-20 10:09:22.736032
125  2023-10-20 10:09:22.768002
126  2023-10-20 10:09:22.815838
127  2023-10-20 10:09:22.847752
128  2023-10-20 10:09:22.879666
129  2023-10-20 10:09:22.911581
130  2023-10-20 10:09:22.943496
131  2023-10-20 10:09:22.975410
132  2023-10-20 10:09:23.007324
133  2023-10-20 10:09:23.039239
134  2023-10-20 10:09:23.072151
135  2023-10-20 10:09:23.104065
136  2023-10-20 10:09:23.136007
137  2023-10-20 10:09:23.167894
138  2023-10-20 10:09:23.215766
139  2023-10-20 10:09:23.247681
140  2023-10-20 10:09:23.279522
141  2023-10-20 10:09:23.311141
142  2023-10-20 10:09:23.343278
143  2023-10-20 10:09:23.375239
144  2023-10-20 10:09:23.407154
145  2023-10-20 10:09:23.440066
146  2023-10-20 10:09:23.471981
147  2023-10-20 10:09:23.503895
148  2023-10-20 10:09:23.535810
149  2023-10-20 10:09:23.567724
150  2023-10-20 10:09:23.615596
151  2023-10-20 10:09:23.647511
152  2023-10-20 10:09:23.679425
153  2023-10-20 10:09:23.711340
154  2023-10-20 10:09:23.743254
155  2023-10-20 10:09:23.775215
156  2023-10-20 10:09:23.808081
157  2023-10-20 10:09:23.839995
158  2023-10-20 10:09:23.871910
159  2023-10-20 10:09:23.903939
160  2023-10-20 10:09:23.935854
161  2023-10-20 10:09:23.967844
162  2023-10-20 10:09:24.015209
163  2023-10-20 10:09:24.047636
164  2023-10-20 10:09:24.079515
165  2023-10-20 10:09:24.111430
166  2023-10-20 10:09:24.143343
167  2023-10-20 10:09:24.175262
168  2023-10-20 10:09:24.207202
169  2023-10-20 10:09:24.239592
170  2023-10-20 10:09:24.271103
171  2023-10-20 10:09:24.303166
172  2023-10-20 10:09:24.336089
173  2023-10-20 10:09:24.368052
174  2023-10-20 10:09:24.415940
175  2023-10-20 10:09:24.447911
176  2023-10-20 10:09:24.479769
177  2023-10-20 10:09:24.511684
178  2023-10-20 10:09:24.543598
179  2023-10-20 10:09:24.575565
180  2023-10-20 10:09:24.607438
181  2023-10-20 10:09:24.639342
182  2023-10-20 10:09:24.671256
183  2023-10-20 10:09:24.703201
184  2023-10-20 10:09:24.736083
185  2023-10-20 10:09:24.767998
186  2023-10-20 10:09:24.816036
187  2023-10-20 10:09:24.847949
188  2023-10-20 10:09:24.879864
189  2023-10-20 10:09:24.911629
190  2023-10-20 10:09:24.943543
191  2023-10-20 10:09:24.975492
192  2023-10-20 10:09:25.007372
193  2023-10-20 10:09:25.039287
194  2023-10-20 10:09:25.071236
195  2023-10-20 10:09:25.103116
196  2023-10-20 10:09:25.136028
197  2023-10-20 10:09:25.167944
198  2023-10-20 10:09:25.215814
199  2023-10-20 10:09:25.247728
200  2023-10-20 10:09:25.279698
201  2023-10-20 10:09:25.311558
202  2023-10-20 10:09:25.343472
203  2023-10-20 10:09:25.375387
204  2023-10-20 10:09:25.407314
205  2023-10-20 10:09:25.439216
206  2023-10-20 10:09:25.471130
207  2023-10-20 10:09:25.504042
208  2023-10-20 10:09:25.535957
209  2023-10-20 10:09:25.567871
210  2023-10-20 10:09:25.615746
211  2023-10-20 10:09:25.647686
212  2023-10-20 10:09:25.679572
213  2023-10-20 10:09:25.711488
214  2023-10-20 10:09:25.743401
215  2023-10-20 10:09:25.775713
216  2023-10-20 10:09:25.807627
217  2023-10-20 10:09:25.839663
218  2023-10-20 10:09:25.871578
219  2023-10-20 10:09:25.903493
220  2023-10-20 10:09:25.935407
221  2023-10-20 10:09:25.967322
222  2023-10-20 10:09:26.015193
223  2023-10-20 10:09:26.047200
224  2023-10-20 10:09:26.079115
225  2023-10-20 10:09:26.112027
226  2023-10-20 10:09:26.143941
227  2023-10-20 10:09:26.175856
228  2023-10-20 10:09:26.207821
229  2023-10-20 10:09:26.239785
230  2023-10-20 10:09:26.271650
231  2023-10-20 10:09:26.303565
232  2023-10-20 10:09:26.335479
233  2023-10-20 10:09:26.367336
234  2023-10-20 10:09:26.415244
235  2023-10-20 10:09:26.447158
236  2023-10-20 10:09:26.480040
237  2023-10-20 10:09:26.511954
238  2023-10-20 10:09:26.543876
239  2023-10-20 10:09:26.575784
240  2023-10-20 10:09:26.607698
241  2023-10-20 10:09:26.639613
242  2023-10-20 10:09:26.671527
243  2023-10-20 10:09:26.704439
244  2023-10-20 10:09:26.736354
245  2023-10-20 10:09:26.768274
246  2023-10-20 10:09:26.816142
247  2023-10-20 10:09:26.847583
248  2023-10-20 10:09:26.879497
249  2023-10-20 10:09:26.911412
250  2023-10-20 10:09:26.944324
251  2023-10-20 10:09:26.975241
252  2023-10-20 10:09:27.007186
253  2023-10-20 10:09:27.040067
254  2023-10-20 10:09:27.071982
255  2023-10-20 10:09:27.103896
256  2023-10-20 10:09:27.135811
257  2023-10-20 10:09:27.167727
258  2023-10-20 10:09:27.215597
259  2023-10-20 10:09:27.247512
260  2023-10-20 10:09:27.279452
261  2023-10-20 10:09:27.311341
262  2023-10-20 10:09:27.343255
263  2023-10-20 10:09:27.375170
264  2023-10-20 10:09:27.408083
265  2023-10-20 10:09:27.439997
266  2023-10-20 10:09:27.471911
267  2023-10-20 10:09:27.503825
268  2023-10-20 10:09:27.535772
269  2023-10-20 10:09:27.567671
270  2023-10-20 10:09:27.615575
271  2023-10-20 10:09:27.647441
272  2023-10-20 10:09:27.679355
273  2023-10-20 10:09:27.711270
274  2023-10-20 10:09:27.743216
275  2023-10-20 10:09:27.776096
276  2023-10-20 10:09:27.808011
277  2023-10-20 10:09:27.839925
278  2023-10-20 10:09:27.871841
279  2023-10-20 10:09:27.903957
280  2023-10-20 10:09:27.935944
281  2023-10-20 10:09:27.967858
282  2023-10-20 10:09:28.015730
283  2023-10-20 10:09:28.047645
284  2023-10-20 10:09:28.079559
285  2023-10-20 10:09:28.111474
286  2023-10-20 10:09:28.143388
287  2023-10-20 10:09:28.175303
288  2023-10-20 10:09:28.208216
289  2023-10-20 10:09:28.240132
290  2023-10-20 10:09:28.272044
291  2023-10-20 10:09:28.303958
292  2023-10-20 10:09:28.335874
293  2023-10-20 10:09:28.367789
294  2023-10-20 10:09:28.415659
295  2023-10-20 10:09:28.447574
296  2023-10-20 10:09:28.479523
297  2023-10-20 10:09:28.512400
298  2023-10-20 10:09:28.543317
299  2023-10-20 10:09:28.576262
300  2023-10-20 10:09:28.607187
301  2023-10-20 10:09:28.640058
302  2023-10-20 10:09:28.671973
303  2023-10-20 10:09:28.703917
304  2023-10-20 10:09:28.735853
305  2023-10-20 10:09:28.767716
306  2023-10-20 10:09:28.815589
307  2023-10-20 10:09:28.847502
308  2023-10-20 10:09:28.879417
309  2023-10-20 10:09:28.912330
310  2023-10-20 10:09:28.944245
311  2023-10-20 10:09:28.976159
312  2023-10-20 10:09:29.008073
313  2023-10-20 10:09:29.039988
314  2023-10-20 10:09:29.071962
315  2023-10-20 10:09:29.103816
316  2023-10-20 10:09:29.135731
317  2023-10-20 10:09:29.167689
318  2023-10-20 10:09:29.215517
319  2023-10-20 10:09:29.247475
320  2023-10-20 10:09:29.279380
321  2023-10-20 10:09:29.311261
322  2023-10-20 10:09:29.344174
323  2023-10-20 10:09:29.376180
324  2023-10-20 10:09:29.408003
325  2023-10-20 10:09:29.439954
326  2023-10-20 10:09:29.471942
327  2023-10-20 10:09:29.503856
328  2023-10-20 10:09:29.535822
329  2023-10-20 10:09:29.567687
330  2023-10-20 10:09:29.615601
331  2023-10-20 10:09:29.647472
332  2023-10-20 10:09:29.679386
333  2023-10-20 10:09:29.711301
334  2023-10-20 10:09:29.743215
335  2023-10-20 10:09:29.775130
336  2023-10-20 10:09:29.808042
337  2023-10-20 10:09:29.839956
338  2023-10-20 10:09:29.871873
339  2023-10-20 10:09:29.903787
340  2023-10-20 10:09:29.935731
341  2023-10-20 10:09:29.967647
342  2023-10-20 10:09:30.015544
343  2023-10-20 10:09:30.047468
344  2023-10-20 10:09:30.079363
345  2023-10-20 10:09:30.112268
346  2023-10-20 10:09:30.143185
347  2023-10-20 10:09:30.176097
348  2023-10-20 10:09:30.208012
349  2023-10-20 10:09:30.239963
350  2023-10-20 10:09:30.271841
351  2023-10-20 10:09:30.303755
352  2023-10-20 10:09:30.335671
353  2023-10-20 10:09:30.367584
354  2023-10-20 10:09:30.415456
355  2023-10-20 10:09:30.447371
356  2023-10-20 10:09:30.479285
357  2023-10-20 10:09:30.511199
358  2023-10-20 10:09:30.543114
359  2023-10-20 10:09:30.576081
360  2023-10-20 10:09:30.607990
361  2023-10-20 10:09:30.639905
362  2023-10-20 10:09:30.671770
363  2023-10-20 10:09:30.703686
364  2023-10-20 10:09:30.735657
365  2023-10-20 10:09:30.767553
366  2023-10-20 10:09:30.815386
367  2023-10-20 10:09:30.847344
368  2023-10-20 10:09:30.880212
369  2023-10-20 10:09:30.912157
370  2023-10-20 10:09:30.943081
371  2023-10-20 10:09:30.975955
372  2023-10-20 10:09:31.007870
373  2023-10-20 10:09:31.039923
374  2023-10-20 10:09:31.071837
375  2023-10-20 10:09:31.103728
376  2023-10-20 10:09:31.135694
377  2023-10-20 10:09:31.167647
378  2023-10-20 10:09:31.215481
379  2023-10-20 10:09:31.247395
380  2023-10-20 10:09:31.279341
381  2023-10-20 10:09:31.311225
382  2023-10-20 10:09:31.343140
383  2023-10-20 10:09:31.376052
384  2023-10-20 10:09:31.408009
385  2023-10-20 10:09:31.439879
386  2023-10-20 10:09:31.471847
387  2023-10-20 10:09:31.503709
388  2023-10-20 10:09:31.535673
389  2023-10-20 10:09:31.567588
390  2023-10-20 10:09:31.615475
391  2023-10-20 10:09:31.647358
392  2023-10-20 10:09:31.679269
393  2023-10-20 10:09:31.711191
394  2023-10-20 10:09:31.744094
395  2023-10-20 10:09:31.775980
396  2023-10-20 10:09:31.807894
397  2023-10-20 10:09:31.839809
398  2023-10-20 10:09:31.871723
399  2023-10-20 10:09:31.903638
400  2023-10-20 10:09:31.935553
401  2023-10-20 10:09:31.967507
402  2023-10-20 10:09:32.015343
403  2023-10-20 10:09:32.047254
404  2023-10-20 10:09:32.079168
405  2023-10-20 10:09:32.112128
406  2023-10-20 10:09:32.143994
407  2023-10-20 10:09:32.175909
408  2023-10-20 10:09:32.207823
409  2023-10-20 10:09:32.239797
410  2023-10-20 10:09:32.271686
411  2023-10-20 10:09:32.303567
412  2023-10-20 10:09:32.335481
413  2023-10-20 10:09:32.367456
414  2023-10-20 10:09:32.415268
415  2023-10-20 10:09:32.447214
416  2023-10-20 10:09:32.480094
417  2023-10-20 10:09:32.512010
418  2023-10-20 10:09:32.543976
419  2023-10-20 10:09:32.575872
420  2023-10-20 10:09:32.607753
421  2023-10-20 10:09:32.639667
422  2023-10-20 10:09:32.671581
423  2023-10-20 10:09:32.703496
424  2023-10-20 10:09:32.735485
425  2023-10-20 10:09:32.767367
426  2023-10-20 10:09:32.815197
427  2023-10-20 10:09:32.847111
428  2023-10-20 10:09:32.880023
429  2023-10-20 10:09:32.911396
430  2023-10-20 10:09:32.943313
431  2023-10-20 10:09:32.975227
432  2023-10-20 10:09:33.008171
433  2023-10-20 10:09:33.040083
434  2023-10-20 10:09:33.072025
435  2023-10-20 10:09:33.103882
436  2023-10-20 10:09:33.135796
437  2023-10-20 10:09:33.167761
438  2023-10-20 10:09:33.215583
439  2023-10-20 10:09:33.247503
440  2023-10-20 10:09:33.279413
441  2023-10-20 10:09:33.311381
442  2023-10-20 10:09:33.343242
443  2023-10-20 10:09:33.375188
444  2023-10-20 10:09:33.408113
445  2023-10-20 10:09:33.440029
446  2023-10-20 10:09:33.471896
447  2023-10-20 10:09:33.503811
448  2023-10-20 10:09:33.535704
449  2023-10-20 10:09:33.567619
450  2023-10-20 10:09:33.615552
451  2023-10-20 10:09:33.647465
452  2023-10-20 10:09:33.679352
453  2023-10-20 10:09:33.712264
454  2023-10-20 10:09:33.743213
455  2023-10-20 10:09:33.776095
456  2023-10-20 10:09:33.808039
457  2023-10-20 10:09:33.839995
458  2023-10-20 10:09:33.871844
459  2023-10-20 10:09:33.903758
460  2023-10-20 10:09:33.935722
461  2023-10-20 10:09:33.967609
462  2023-10-20 10:09:34.015452
463  2023-10-20 10:09:34.047369
464  2023-10-20 10:09:34.079284
465  2023-10-20 10:09:34.111198
466  2023-10-20 10:09:34.143117
467  2023-10-20 10:09:34.176029
468  2023-10-20 10:09:34.207994
469  2023-10-20 10:09:34.239885
470  2023-10-20 10:09:34.271772
471  2023-10-20 10:09:34.303687
472  2023-10-20 10:09:34.335629
473  2023-10-20 10:09:34.367547
474  2023-10-20 10:09:34.415417
475  2023-10-20 10:09:34.447366
476  2023-10-20 10:09:34.480214
477  2023-10-20 10:09:34.512129
478  2023-10-20 10:09:34.543072
479  2023-10-20 10:09:34.576020
480  2023-10-20 10:09:34.607922
481  2023-10-20 10:09:34.639787
482  2023-10-20 10:09:34.671824
483  2023-10-20 10:09:34.703737
484  2023-10-20 10:09:34.735685
485  2023-10-20 10:09:34.767612
486  2023-10-20 10:09:34.815482
487  2023-10-20 10:09:34.847397
488  2023-10-20 10:09:34.879303
489  2023-10-20 10:09:34.911182
490  2023-10-20 10:09:34.944119
491  2023-10-20 10:09:34.976049
492  2023-10-20 10:09:35.007968
493  2023-10-20 10:09:35.039868
494  2023-10-20 10:09:35.071784
495  2023-10-20 10:09:35.103667
496  2023-10-20 10:09:35.135642
497  2023-10-20 10:09:35.167533
498  2023-10-20 10:09:35.215448
499  2023-10-20 10:09:35.247283
500  2023-10-20 10:09:35.279227
501  2023-10-20 10:09:35.312110
502  2023-10-20 10:09:35.344023
503  2023-10-20 10:09:35.375998
504  2023-10-20 10:09:35.407885
505  2023-10-20 10:09:35.439792
506  2023-10-20 10:09:35.471747
507  2023-10-20 10:09:35.503596
508  2023-10-20 10:09:35.536508
509  2023-10-20 10:09:35.567456
510  2023-10-20 10:09:35.616326
511  2023-10-20 10:09:35.647237
512  2023-10-20 10:09:35.679155
513  2023-10-20 10:09:35.712041
514  2023-10-20 10:09:35.743995
515  2023-10-20 10:09:35.775894
516  2023-10-20 10:09:35.807811
517  2023-10-20 10:09:35.839696
518  2023-10-20 10:09:35.871612
519  2023-10-20 10:09:35.903527
520  2023-10-20 10:09:35.935488
521  2023-10-20 10:09:35.967387
522  2023-10-20 10:09:36.015226
523  2023-10-20 10:09:36.047140
524  2023-10-20 10:09:36.079057
525  2023-10-20 10:09:36.111995
526  2023-10-20 10:09:36.143951
527  2023-10-20 10:09:36.175827
528  2023-10-20 10:09:36.207711
529  2023-10-20 10:09:36.239674
530  2023-10-20 10:09:36.271591
531  2023-10-20 10:09:36.303454
532  2023-10-20 10:09:36.335395
533  2023-10-20 10:09:36.367308
534  2023-10-20 10:09:36.415155
535  2023-10-20 10:09:36.447105
536  2023-10-20 10:09:36.480019
537  2023-10-20 10:09:36.511947
538  2023-10-20 10:09:36.543878
539  2023-10-20 10:09:36.575756
540  2023-10-20 10:09:36.607678
541  2023-10-20 10:09:36.639554
542  2023-10-20 10:09:36.671469
543  2023-10-20 10:09:36.703422
544  2023-10-20 10:09:36.735346
545  2023-10-20 10:09:36.767211
546  2023-10-20 10:09:36.815115
547  2023-10-20 10:09:36.848003
548  2023-10-20 10:09:36.879942
549  2023-10-20 10:09:36.911899
550  2023-10-20 10:09:36.943739
551  2023-10-20 10:09:36.975654
552  2023-10-20 10:09:37.007569
553  2023-10-20 10:09:37.039485
554  2023-10-20 10:09:37.072394
555  2023-10-20 10:09:37.104324
556  2023-10-20 10:09:37.135230
557  2023-10-20 10:09:37.168163
558  2023-10-20 10:09:37.215013
559  2023-10-20 10:09:37.247957
560  2023-10-20 10:09:37.279838
561  2023-10-20 10:09:37.311787
562  2023-10-20 10:09:37.343701
563  2023-10-20 10:09:37.375623
564  2023-10-20 10:09:37.407523
565  2023-10-20 10:09:37.439438
566  2023-10-20 10:09:37.471355
567  2023-10-20 10:09:37.503240
568  2023-10-20 10:09:37.535196
569  2023-10-20 10:09:37.567100
570  2023-10-20 10:09:37.615938
571  2023-10-20 10:09:37.647880
572  2023-10-20 10:09:37.679819
573  2023-10-20 10:09:37.711732
574  2023-10-20 10:09:37.743598
575  2023-10-20 10:09:37.775536
576  2023-10-20 10:09:37.807427
577  2023-10-20 10:09:37.839412
578  2023-10-20 10:09:37.871316
579  2023-10-20 10:09:37.903194
580  2023-10-20 10:09:37.936112
581  2023-10-20 10:09:37.967996
582  2023-10-20 10:09:38.015919
583  2023-10-20 10:09:38.047783
584  2023-10-20 10:09:38.079757
585  2023-10-20 10:09:38.111662
586  2023-10-20 10:09:38.143526
587  2023-10-20 10:09:38.175441
588  2023-10-20 10:09:38.207408
589  2023-10-20 10:09:38.239300
590  2023-10-20 10:09:38.272226
591  2023-10-20 10:09:38.303129
592  2023-10-20 10:09:38.336037
593  2023-10-20 10:09:38.367967
594  2023-10-20 10:09:38.415828
595  2023-10-20 10:09:38.447738
596  2023-10-20 10:09:38.479626
597  2023-10-20 10:09:38.511541
598  2023-10-20 10:09:38.543507
599  2023-10-20 10:09:38.575281
600  2023-10-20 10:09:38.607181
601  2023-10-20 10:09:38.639117
602  2023-10-20 10:09:38.672029
603  2023-10-20 10:09:38.704009
604  2023-10-20 10:09:38.735885
605  2023-10-20 10:09:38.767805
606  2023-10-20 10:09:38.815645
607  2023-10-20 10:09:38.847614
608  2023-10-20 10:09:38.879526
609  2023-10-20 10:09:38.911426
610  2023-10-20 10:09:38.943303
611  2023-10-20 10:09:38.975217
612  2023-10-20 10:09:39.007164
613  2023-10-20 10:09:39.039071
614  2023-10-20 10:09:39.071958
615  2023-10-20 10:09:39.103906
616  2023-10-20 10:09:39.135823
617  2023-10-20 10:09:39.167702
618  2023-10-20 10:09:39.215607
619  2023-10-20 10:09:39.247522
620  2023-10-20 10:09:39.279431
621  2023-10-20 10:09:39.311377
622  2023-10-20 10:09:39.343286
623  2023-10-20 10:09:39.375190
624  2023-10-20 10:09:39.408084
625  2023-10-20 10:09:39.440004
626  2023-10-20 10:09:39.471913
627  2023-10-20 10:09:39.503831
628  2023-10-20 10:09:39.535763
629  2023-10-20 10:09:39.567633
630  2023-10-20 10:09:39.615539
631  2023-10-20 10:09:39.647450
632  2023-10-20 10:09:39.679373
633  2023-10-20 10:09:39.711246
634  2023-10-20 10:09:39.744161
635  2023-10-20 10:09:39.776073
636  2023-10-20 10:09:39.807987
637  2023-10-20 10:09:39.839902
638  2023-10-20 10:09:39.871834
639  2023-10-20 10:09:39.903760
640  2023-10-20 10:09:39.935679
641  2023-10-20 10:09:39.967591
642  2023-10-20 10:09:40.015431
643  2023-10-20 10:09:40.047397
644  2023-10-20 10:09:40.079287
645  2023-10-20 10:09:40.112235
646  2023-10-20 10:09:40.144199
647  2023-10-20 10:09:40.176120
648  2023-10-20 10:09:40.208038
649  2023-10-20 10:09:40.239953
650  2023-10-20 10:09:40.271847
651  2023-10-20 10:09:40.303817
652  2023-10-20 10:09:40.335689
653  2023-10-20 10:09:40.367591
654  2023-10-20 10:09:40.415462
655  2023-10-20 10:09:40.447474
656  2023-10-20 10:09:40.480376
657  2023-10-20 10:09:40.512238
658  2023-10-20 10:09:40.544197
659  2023-10-20 10:09:40.576111
660  2023-10-20 10:09:40.607981
661  2023-10-20 10:09:40.639929
662  2023-10-20 10:09:40.671836
663  2023-10-20 10:09:40.703754
664  2023-10-20 10:09:40.735666
665  2023-10-20 10:09:40.767584
666  2023-10-20 10:09:40.815438
667  2023-10-20 10:09:40.847340
668  2023-10-20 10:09:40.879320
669  2023-10-20 10:09:40.911199
670  2023-10-20 10:09:40.944080
671  2023-10-20 10:09:40.975994
672  2023-10-20 10:09:41.007960
673  2023-10-20 10:09:41.039871
674  2023-10-20 10:09:41.071780
675  2023-10-20 10:09:41.103692
676  2023-10-20 10:09:41.135603
677  2023-10-20 10:09:41.167512
678  2023-10-20 10:09:41.215352
679  2023-10-20 10:09:41.248265
680  2023-10-20 10:09:41.280180
681  2023-10-20 10:09:41.311146
682  2023-10-20 10:09:41.343041
683  2023-10-20 10:09:41.375972
684  2023-10-20 10:09:41.407877
685  2023-10-20 10:09:41.439754
686  2023-10-20 10:09:41.471709
687  2023-10-20 10:09:41.503634
688  2023-10-20 10:09:41.535496
689  2023-10-20 10:09:41.568457
690  2023-10-20 10:09:41.615313
691  2023-10-20 10:09:41.647196
692  2023-10-20 10:09:41.679111
693  2023-10-20 10:09:41.711025
694  2023-10-20 10:09:41.743939
695  2023-10-20 10:09:41.775926
696  2023-10-20 10:09:41.807824
697  2023-10-20 10:09:41.839735
698  2023-10-20 10:09:41.871639
699  2023-10-20 10:09:41.903510
700  2023-10-20 10:09:41.935468
701  2023-10-20 10:09:41.967377
702  2023-10-20 10:09:42.015242
703  2023-10-20 10:09:42.048124
704  2023-10-20 10:09:42.079071
705  2023-10-20 10:09:42.111998
706  2023-10-20 10:09:42.143930
707  2023-10-20 10:09:42.175832
708  2023-10-20 10:09:42.207727
709  2023-10-20 10:09:42.239655
710  2023-10-20 10:09:42.271556
711  2023-10-20 10:09:42.303465
712  2023-10-20 10:09:42.335399
713  2023-10-20 10:09:42.368266
714  2023-10-20 10:09:42.415200
715  2023-10-20 10:09:42.447085
716  2023-10-20 10:09:42.479966
717  2023-10-20 10:09:42.511880
718  2023-10-20 10:09:42.543826
719  2023-10-20 10:09:42.575759
720  2023-10-20 10:09:42.607712
721  2023-10-20 10:09:42.639538
722  2023-10-20 10:09:42.671479
723  2023-10-20 10:09:42.704367
724  2023-10-20 10:09:42.736286
725  2023-10-20 10:09:42.768195
726  2023-10-20 10:09:42.816066
727  2023-10-20 10:09:42.848026
728  2023-10-20 10:09:42.879898
729  2023-10-20 10:09:42.911849
730  2023-10-20 10:09:42.943763
731  2023-10-20 10:09:42.975674
732  2023-10-20 10:09:43.007623
733  2023-10-20 10:09:43.039501
734  2023-10-20 10:09:43.071421
735  2023-10-20 10:09:43.103335
736  2023-10-20 10:09:43.136210
737  2023-10-20 10:09:43.167172
738  2023-10-20 10:09:43.216022
739  2023-10-20 10:09:43.247980
740  2023-10-20 10:09:43.279824
741  2023-10-20 10:09:43.311784
742  2023-10-20 10:09:43.343684
743  2023-10-20 10:09:43.375569
744  2023-10-20 10:09:43.408480
745  2023-10-20 10:09:43.439449
746  2023-10-20 10:09:43.471338
747  2023-10-20 10:09:43.503252
748  2023-10-20 10:09:43.535141
749  2023-10-20 10:09:43.567086
750  2023-10-20 10:09:43.615986
751  2023-10-20 10:09:43.647838
752  2023-10-20 10:09:43.679803
753  2023-10-20 10:09:43.711717
754  2023-10-20 10:09:43.743643
755  2023-10-20 10:09:43.775549
756  2023-10-20 10:09:43.807441
757  2023-10-20 10:09:43.839325
758  2023-10-20 10:09:43.871298
759  2023-10-20 10:09:43.903182
760  2023-10-20 10:09:43.935072
761  2023-10-20 10:09:43.967017
762  2023-10-20 10:09:44.015852
763  2023-10-20 10:09:44.047822
764  2023-10-20 10:09:44.079714
765  2023-10-20 10:09:44.111627
766  2023-10-20 10:09:44.144513
767  2023-10-20 10:09:44.176426
768  2023-10-20 10:09:44.208342
769  2023-10-20 10:09:44.240263
770  2023-10-20 10:09:44.272211
771  2023-10-20 10:09:44.304117
772  2023-10-20 10:09:44.335997
773  2023-10-20 10:09:44.367911
774  2023-10-20 10:09:44.415784
775  2023-10-20 10:09:44.447697
776  2023-10-20 10:09:44.479613
777  2023-10-20 10:09:44.511529
778  2023-10-20 10:09:44.543445
779  2023-10-20 10:09:44.576353
780  2023-10-20 10:09:44.607308
781  2023-10-20 10:09:44.639183
782  2023-10-20 10:09:44.671099
783  2023-10-20 10:09:44.704043
784  2023-10-20 10:09:44.735926
785  2023-10-20 10:09:44.767554
786  2023-10-20 10:09:44.815449
787  2023-10-20 10:09:44.847384
788  2023-10-20 10:09:44.879277
789  2023-10-20 10:09:44.911317
790  2023-10-20 10:09:44.943222
791  2023-10-20 10:09:44.975108
792  2023-10-20 10:09:45.008055
793  2023-10-20 10:09:45.039961
794  2023-10-20 10:09:45.071851
795  2023-10-20 10:09:45.103814
796  2023-10-20 10:09:45.135730
797  2023-10-20 10:09:45.167623
798  2023-10-20 10:09:45.215517
799  2023-10-20 10:09:45.247435
800  2023-10-20 10:09:45.279331
801  2023-10-20 10:09:45.311262
802  2023-10-20 10:09:45.344151
803  2023-10-20 10:09:45.375069
804  2023-10-20 10:09:45.407988
805  2023-10-20 10:09:45.439889
806  2023-10-20 10:09:45.471832
807  2023-10-20 10:09:45.503723
808  2023-10-20 10:09:45.535657
809  2023-10-20 10:09:45.567550
810  2023-10-20 10:09:45.615395
811  2023-10-20 10:09:45.647343
812  2023-10-20 10:09:45.679239
813  2023-10-20 10:09:45.711167
814  2023-10-20 10:09:45.744083
815  2023-10-20 10:09:45.775964
816  2023-10-20 10:09:45.807879
817  2023-10-20 10:09:45.839843
818  2023-10-20 10:09:45.871740
819  2023-10-20 10:09:45.903649
820  2023-10-20 10:09:45.935611
821  2023-10-20 10:09:45.967582
822  2023-10-20 10:09:46.015457
823  2023-10-20 10:09:46.047370
824  2023-10-20 10:09:46.079258
825  2023-10-20 10:09:46.111193
826  2023-10-20 10:09:46.143062
827  2023-10-20 10:09:46.175014
828  2023-10-20 10:09:46.207935
829  2023-10-20 10:09:46.239852
830  2023-10-20 10:09:46.271759
831  2023-10-20 10:09:46.303681
832  2023-10-20 10:09:46.335600
833  2023-10-20 10:09:46.367493
834  2023-10-20 10:09:46.416332
835  2023-10-20 10:09:46.448246
836  2023-10-20 10:09:46.480178
837  2023-10-20 10:09:46.512080
838  2023-10-20 10:09:46.543988
839  2023-10-20 10:09:46.575905
840  2023-10-20 10:09:46.607826
841  2023-10-20 10:09:46.639732
842  2023-10-20 10:09:46.671659
843  2023-10-20 10:09:46.703561
844  2023-10-20 10:09:46.735502
845  2023-10-20 10:09:46.767438
846  2023-10-20 10:09:46.815315
847  2023-10-20 10:09:46.847202
848  2023-10-20 10:09:46.879133
849  2023-10-20 10:09:46.912003
850  2023-10-20 10:09:46.943970
851  2023-10-20 10:09:46.975882
852  2023-10-20 10:09:47.007772
853  2023-10-20 10:09:47.039697
854  2023-10-20 10:09:47.071616
855  2023-10-20 10:09:47.103542
856  2023-10-20 10:09:47.135437
857  2023-10-20 10:09:47.167389
858  2023-10-20 10:09:47.215190
859  2023-10-20 10:09:47.247112
860  2023-10-20 10:09:47.280046
861  2023-10-20 10:09:47.311995
862  2023-10-20 10:09:47.343846
863  2023-10-20 10:09:47.375796
864  2023-10-20 10:09:47.407707
865  2023-10-20 10:09:47.439641
866  2023-10-20 10:09:47.471554
867  2023-10-20 10:09:47.503260
868  2023-10-20 10:09:47.535128
869  2023-10-20 10:09:47.567179
870  2023-10-20 10:09:47.616018
871  2023-10-20 10:09:47.647971
872  2023-10-20 10:09:47.679905
873  2023-10-20 10:09:47.711760
874  2023-10-20 10:09:47.743725
875  2023-10-20 10:09:47.775615
876  2023-10-20 10:09:47.807532
877  2023-10-20 10:09:47.839453
878  2023-10-20 10:09:47.871378
879  2023-10-20 10:09:47.903281
880  2023-10-20 10:09:47.935188
881  2023-10-20 10:09:47.967077
882  2023-10-20 10:09:48.014981
883  2023-10-20 10:09:48.047860
884  2023-10-20 10:09:48.079825
885  2023-10-20 10:09:48.111689
886  2023-10-20 10:09:48.143603
887  2023-10-20 10:09:48.175570
888  2023-10-20 10:09:48.207487
889  2023-10-20 10:09:48.240400
890  2023-10-20 10:09:48.271416
891  2023-10-20 10:09:48.303307
892  2023-10-20 10:09:48.336178
893  2023-10-20 10:09:48.367093
894  2023-10-20 10:09:48.416030
895  2023-10-20 10:09:48.447903
896  2023-10-20 10:09:48.479819
897  2023-10-20 10:09:48.511706
898  2023-10-20 10:09:48.543622
899  2023-10-20 10:09:48.575535
900  2023-10-20 10:09:48.607452
901  2023-10-20 10:09:48.639365
902  2023-10-20 10:09:48.671280
903  2023-10-20 10:09:48.703237
904  2023-10-20 10:09:48.736119
905  2023-10-20 10:09:48.767023
906  2023-10-20 10:09:48.815945
907  2023-10-20 10:09:48.847839
908  2023-10-20 10:09:48.879749
909  2023-10-20 10:09:48.911661
910  2023-10-20 10:09:48.943577
911  2023-10-20 10:09:48.975517
912  2023-10-20 10:09:49.007426
913  2023-10-20 10:09:49.039320
914  2023-10-20 10:09:49.071239
915  2023-10-20 10:09:49.103167
916  2023-10-20 10:09:49.136071
917  2023-10-20 10:09:49.167977
918  2023-10-20 10:09:49.215852
919  2023-10-20 10:09:49.247767
920  2023-10-20 10:09:49.279678
921  2023-10-20 10:09:49.311564
922  2023-10-20 10:09:49.343478
923  2023-10-20 10:09:49.375426
924  2023-10-20 10:09:49.408305
925  2023-10-20 10:09:49.440222
926  2023-10-20 10:09:49.472135
927  2023-10-20 10:09:49.504087
928  2023-10-20 10:09:49.535965
929  2023-10-20 10:09:49.567916
930  2023-10-20 10:09:49.615784
931  2023-10-20 10:09:49.647666
932  2023-10-20 10:09:49.679581
933  2023-10-20 10:09:49.711494
934  2023-10-20 10:09:49.744405
935  2023-10-20 10:09:49.776346
936  2023-10-20 10:09:49.807238
937  2023-10-20 10:09:49.840150
938  2023-10-20 10:09:49.872088
939  2023-10-20 10:09:49.903978
940  2023-10-20 10:09:49.935893
941  2023-10-20 10:09:49.967848
942  2023-10-20 10:09:50.015679
943  2023-10-20 10:09:50.047627
944  2023-10-20 10:09:50.079543
945  2023-10-20 10:09:50.111423
946  2023-10-20 10:09:50.143343
947  2023-10-20 10:09:50.175283
948  2023-10-20 10:09:50.207167
949  2023-10-20 10:09:50.239159
950  2023-10-20 10:09:50.272034
951  2023-10-20 10:09:50.303956
952  2023-10-20 10:09:50.335925
953  2023-10-20 10:09:50.367783
954  2023-10-20 10:09:50.415650
955  2023-10-20 10:09:50.447550
956  2023-10-20 10:09:50.479463
957  2023-10-20 10:09:50.511351
958  2023-10-20 10:09:50.543300
959  2023-10-20 10:09:50.575318
960  2023-10-20 10:09:50.607275
961  2023-10-20 10:09:50.639372
962  2023-10-20 10:09:50.671301
963  2023-10-20 10:09:50.703195
964  2023-10-20 10:09:50.735133
965  2023-10-20 10:09:50.767155
966  2023-10-20 10:09:50.816016
967  2023-10-20 10:09:50.847967
968  2023-10-20 10:09:50.879851
969  2023-10-20 10:09:50.911766
970  2023-10-20 10:09:50.943696
971  2023-10-20 10:09:50.975595
972  2023-10-20 10:09:51.007504
973  2023-10-20 10:09:51.039426
974  2023-10-20 10:09:51.071341
975  2023-10-20 10:09:51.103256
976  2023-10-20 10:09:51.135165
977  2023-10-20 10:09:51.167080
978  2023-10-20 10:09:51.215983
979  2023-10-20 10:09:51.247865
980  2023-10-20 10:09:51.279782
981  2023-10-20 10:09:51.311688
982  2023-10-20 10:09:51.343577
983  2023-10-20 10:09:51.375544
984  2023-10-20 10:09:51.407462
985  2023-10-20 10:09:51.439394
986  2023-10-20 10:09:51.471282
987  2023-10-20 10:09:51.503197
988  2023-10-20 10:09:51.535098
989  2023-10-20 10:09:51.567029
990  2023-10-20 10:09:51.615980
991  2023-10-20 10:09:51.647799
992  2023-10-20 10:09:51.679705
993  2023-10-20 10:09:51.711635
994  2023-10-20 10:09:51.743506
995  2023-10-20 10:09:51.775472
996  2023-10-20 10:09:51.807381
997  2023-10-20 10:09:51.839294
998  2023-10-20 10:09:51.872165
999  2023-10-20 10:09:51.904130
1000  2023-10-20 10:09:51.935992
1001  2023-10-20 10:09:51.967945
1002  2023-10-20 10:09:52.015778
1003  2023-10-20 10:09:52.047726
1004  2023-10-20 10:09:52.079643
1005  2023-10-20 10:09:52.111555
1006  2023-10-20 10:09:52.143461
1007  2023-10-20 10:09:52.175383
1008  2023-10-20 10:09:52.208262
1009  2023-10-20 10:09:52.239208
1010  2023-10-20 10:09:52.271144
1011  2023-10-20 10:09:52.303038
1012  2023-10-20 10:09:52.335920
1013  2023-10-20 10:09:52.367869
1014  2023-10-20 10:09:52.415914
1015  2023-10-20 10:09:52.447787
1016  2023-10-20 10:09:52.479729
1017  2023-10-20 10:09:52.511647
1018  2023-10-20 10:09:52.543528
1019  2023-10-20 10:09:52.575444
1020  2023-10-20 10:09:52.607392
1021  2023-10-20 10:09:52.639299
1022  2023-10-20 10:09:52.671221
1023  2023-10-20 10:09:52.703147
1024  2023-10-20 10:09:52.735047
1025  2023-10-20 10:09:52.767961
1026  2023-10-20 10:09:52.815799
1027  2023-10-20 10:09:52.847748
1028  2023-10-20 10:09:52.879660
1029  2023-10-20 10:09:52.911571
1030  2023-10-20 10:09:52.943457
1031  2023-10-20 10:09:52.975409
1032  2023-10-20 10:09:53.007344
1033  2023-10-20 10:09:53.039238
1034  2023-10-20 10:09:53.071149
1035  2023-10-20 10:09:53.103075
1036  2023-10-20 10:09:53.135974
1037  2023-10-20 10:09:53.167903
1038  2023-10-20 10:09:53.215735
1039  2023-10-20 10:09:53.247648
1040  2023-10-20 10:09:53.279562
1041  2023-10-20 10:09:53.312515
1042  2023-10-20 10:09:53.343438
1043  2023-10-20 10:09:53.375302
1044  2023-10-20 10:09:53.407216
1045  2023-10-20 10:09:53.440129
1046  2023-10-20 10:09:53.472091
1047  2023-10-20 10:09:53.503987
1048  2023-10-20 10:09:53.535934
1049  2023-10-20 10:09:53.567848
1050  2023-10-20 10:09:53.615770
1051  2023-10-20 10:09:53.647733
1052  2023-10-20 10:09:53.679626
1053  2023-10-20 10:09:53.711545
1054  2023-10-20 10:09:53.743483
1055  2023-10-20 10:09:53.775415
1056  2023-10-20 10:09:53.807303
1057  2023-10-20 10:09:53.839204
1058  2023-10-20 10:09:53.871088
1059  2023-10-20 10:09:53.904032
1060  2023-10-20 10:09:53.935921
1061  2023-10-20 10:09:53.967733
1062  2023-10-20 10:09:54.015641
1063  2023-10-20 10:09:54.047596
1064  2023-10-20 10:09:54.079507
1065  2023-10-20 10:09:54.112416
1066  2023-10-20 10:09:54.143352
1067  2023-10-20 10:09:54.175256
1068  2023-10-20 10:09:54.208158
1069  2023-10-20 10:09:54.240090
1070  2023-10-20 10:09:54.271991
1071  2023-10-20 10:09:54.303909
1072  2023-10-20 10:09:54.335815
1073  2023-10-20 10:09:54.367731
1074  2023-10-20 10:09:54.415608
1075  2023-10-20 10:09:54.447566
1076  2023-10-20 10:09:54.479435
1077  2023-10-20 10:09:54.511365
1078  2023-10-20 10:09:54.543274
1079  2023-10-20 10:09:54.575176
1080  2023-10-20 10:09:54.607090
1081  2023-10-20 10:09:54.639016
1082  2023-10-20 10:09:54.671924
1083  2023-10-20 10:09:54.703824
1084  2023-10-20 10:09:54.735745
1085  2023-10-20 10:09:54.767658
1086  2023-10-20 10:09:54.815499
1087  2023-10-20 10:09:54.847444
1088  2023-10-20 10:09:54.879382
1089  2023-10-20 10:09:54.912243
1090  2023-10-20 10:09:54.944154
1091  2023-10-20 10:09:54.976071
1092  2023-10-20 10:09:55.007985
1093  2023-10-20 10:09:55.039900
1094  2023-10-20 10:09:55.071814
1095  2023-10-20 10:09:55.103728
1096  2023-10-20 10:09:55.135673
1097  2023-10-20 10:09:55.167588
1098  2023-10-20 10:09:55.215428
1099  2023-10-20 10:09:55.247375
1100  2023-10-20 10:09:55.279289
1101  2023-10-20 10:09:55.312206
1102  2023-10-20 10:09:55.343086
1103  2023-10-20 10:09:55.375030
1104  2023-10-20 10:09:55.407968
1105  2023-10-20 10:09:55.439852
1106  2023-10-20 10:09:55.471767
1107  2023-10-20 10:09:55.503688
1108  2023-10-20 10:09:55.535612
1109  2023-10-20 10:09:55.567486
1110  2023-10-20 10:09:55.615359
1111  2023-10-20 10:09:55.647300
1112  2023-10-20 10:09:55.679218
1113  2023-10-20 10:09:55.711156
1114  2023-10-20 10:09:55.744014
1115  2023-10-20 10:09:55.775930
1116  2023-10-20 10:09:55.807889
1117  2023-10-20 10:09:55.839758
1118  2023-10-20 10:09:55.871672
1119  2023-10-20 10:09:55.903587
1120  2023-10-20 10:09:55.935527
1121  2023-10-20 10:09:55.967457
1122  2023-10-20 10:09:56.015287
1123  2023-10-20 10:09:56.047236
1124  2023-10-20 10:09:56.079141
1125  2023-10-20 10:09:56.111083
1126  2023-10-20 10:09:56.142945
1127  2023-10-20 10:09:56.175857
1128  2023-10-20 10:09:56.207797
1129  2023-10-20 10:09:56.239713
1130  2023-10-20 10:09:56.271634
1131  2023-10-20 10:09:56.303549
1132  2023-10-20 10:09:56.335456
1133  2023-10-20 10:09:56.367368
1134  2023-10-20 10:09:56.415216
1135  2023-10-20 10:09:56.447159
1136  2023-10-20 10:09:56.479075
1137  2023-10-20 10:09:56.511984
1138  2023-10-20 10:09:56.543900
1139  2023-10-20 10:09:56.575817
1140  2023-10-20 10:09:56.607735
1141  2023-10-20 10:09:56.639646
1142  2023-10-20 10:09:56.671559
1143  2023-10-20 10:09:56.703497
1144  2023-10-20 10:09:56.735392
1145  2023-10-20 10:09:56.767347
1146  2023-10-20 10:09:56.815145
1147  2023-10-20 10:09:56.847059
1148  2023-10-20 10:09:56.879995
1149  2023-10-20 10:09:56.911925
1150  2023-10-20 10:09:56.943853
1151  2023-10-20 10:09:56.975740
1152  2023-10-20 10:09:57.007665
1153  2023-10-20 10:09:57.039577
1154  2023-10-20 10:09:57.071512
1155  2023-10-20 10:09:57.103425
1156  2023-10-20 10:09:57.135326
1157  2023-10-20 10:09:57.168200
1158  2023-10-20 10:09:57.216072
1159  2023-10-20 10:09:57.247986
1160  2023-10-20 10:09:57.279951
1161  2023-10-20 10:09:57.311848
1162  2023-10-20 10:09:57.343763
1163  2023-10-20 10:09:57.375680
1164  2023-10-20 10:09:57.407593
1165  2023-10-20 10:09:57.439498
1166  2023-10-20 10:09:57.471388
1167  2023-10-20 10:09:57.503352
1168  2023-10-20 10:09:57.535260
1169  2023-10-20 10:09:57.567171
1170  2023-10-20 10:09:57.615036
1171  2023-10-20 10:09:57.647915
1172  2023-10-20 10:09:57.679865
1173  2023-10-20 10:09:57.711776
1174  2023-10-20 10:09:57.743663
1175  2023-10-20 10:09:57.775587
1176  2023-10-20 10:09:57.807521
1177  2023-10-20 10:09:57.839434
1178  2023-10-20 10:09:57.871383
1179  2023-10-20 10:09:57.903271
1180  2023-10-20 10:09:57.935172
1181  2023-10-20 10:09:57.967094
1182  2023-10-20 10:09:58.015930
1183  2023-10-20 10:09:58.047844
1184  2023-10-20 10:09:58.079789
1185  2023-10-20 10:09:58.111703
1186  2023-10-20 10:09:58.143638
1187  2023-10-20 10:09:58.175526
1188  2023-10-20 10:09:58.207448
1189  2023-10-20 10:09:58.239331
1190  2023-10-20 10:09:58.271295
1191  2023-10-20 10:09:58.303234
1192  2023-10-20 10:09:58.335103
1193  2023-10-20 10:09:58.368029
1194  2023-10-20 10:09:58.415859
1195  2023-10-20 10:09:58.447805
1196  2023-10-20 10:09:58.479752
1197  2023-10-20 10:09:58.511635
1198  2023-10-20 10:09:58.543583
1199  2023-10-20 10:09:58.575432
1200  2023-10-20 10:09:58.607377
1201  2023-10-20 10:09:58.639314
1202  2023-10-20 10:09:58.671215
1203  2023-10-20 10:09:58.703121
1204  2023-10-20 10:09:58.736047
1205  2023-10-20 10:09:58.767947
1206  2023-10-20 10:09:58.815793
1207  2023-10-20 10:09:58.847702
1208  2023-10-20 10:09:58.879646
1209  2023-10-20 10:09:58.911501
1210  2023-10-20 10:09:58.943362
1211  2023-10-20 10:09:58.975351
1212  2023-10-20 10:09:59.007224
1213  2023-10-20 10:09:59.039180
1214  2023-10-20 10:09:59.071102
1215  2023-10-20 10:09:59.103997
1216  2023-10-20 10:09:59.135930
1217  2023-10-20 10:09:59.167825
1218  2023-10-20 10:09:59.215666
1219  2023-10-20 10:09:59.247613
1220  2023-10-20 10:09:59.279547
1221  2023-10-20 10:09:59.311440
1222  2023-10-20 10:09:59.343355
1223  2023-10-20 10:09:59.376238
1224  2023-10-20 10:09:59.408152
1225  2023-10-20 10:09:59.440118
1226  2023-10-20 10:09:59.471020
1227  2023-10-20 10:09:59.503936
1228  2023-10-20 10:09:59.535844
1229  2023-10-20 10:09:59.567725
1230  2023-10-20 10:09:59.615628
1231  2023-10-20 10:09:59.647509
1232  2023-10-20 10:09:59.679456
1233  2023-10-20 10:09:59.711372
1234  2023-10-20 10:09:59.743293
1235  2023-10-20 10:09:59.775210
1236  2023-10-20 10:09:59.807119
1237  2023-10-20 10:09:59.839035
1238  2023-10-20 10:09:59.871910
1239  2023-10-20 10:09:59.903850
1240  2023-10-20 10:09:59.935774
1241  2023-10-20 10:09:59.967688
1242  2023-10-20 10:10:00.015524
1243  2023-10-20 10:10:00.047438
1244  2023-10-20 10:10:00.079389
1245  2023-10-20 10:10:00.111305
1246  2023-10-20 10:10:00.143208
1247  2023-10-20 10:10:00.175149
1248  2023-10-20 10:10:00.208039
1249  2023-10-20 10:10:00.239952
1250  2023-10-20 10:10:00.271879
1251  2023-10-20 10:10:00.303786
1252  2023-10-20 10:10:00.335691
1253  2023-10-20 10:10:00.367606
1254  2023-10-20 10:10:00.415453
1255  2023-10-20 10:10:00.447367
1256  2023-10-20 10:10:00.479336
1257  2023-10-20 10:10:00.511198
1258  2023-10-20 10:10:00.543810
1259  2023-10-20 10:10:00.575549
1260  2023-10-20 10:10:00.607566
1261  2023-10-20 10:10:00.639475
1262  2023-10-20 10:10:00.671385
1263  2023-10-20 10:10:00.703303
1264  2023-10-20 10:10:00.735216
1265  2023-10-20 10:10:00.767130
1266  2023-10-20 10:10:00.816000
1267  2023-10-20 10:10:00.847882
1268  2023-10-20 10:10:00.879797
1269  2023-10-20 10:10:00.911752
1270  2023-10-20 10:10:00.943665
1271  2023-10-20 10:10:00.975596
1272  2023-10-20 10:10:01.007486
1273  2023-10-20 10:10:01.039403
1274  2023-10-20 10:10:01.071329
1275  2023-10-20 10:10:01.103237
1276  2023-10-20 10:10:01.135138
1277  2023-10-20 10:10:01.168075
1278  2023-10-20 10:10:01.214980
1279  2023-10-20 10:10:01.247929
1280  2023-10-20 10:10:01.279842
1281  2023-10-20 10:10:01.311775
1282  2023-10-20 10:10:01.343668
1283  2023-10-20 10:10:01.375586
1284  2023-10-20 10:10:01.407496
1285  2023-10-20 10:10:01.439405
1286  2023-10-20 10:10:01.471331
1287  2023-10-20 10:10:01.503255
1288  2023-10-20 10:10:01.535174
1289  2023-10-20 10:10:01.567074
1290  2023-10-20 10:10:01.614954
1291  2023-10-20 10:10:01.647819
1292  2023-10-20 10:10:01.679734
1293  2023-10-20 10:10:01.711692
1294  2023-10-20 10:10:01.743594
1295  2023-10-20 10:10:01.776066
1296  2023-10-20 10:10:01.808015
1297  2023-10-20 10:10:01.839899
1298  2023-10-20 10:10:01.871816
1299  2023-10-20 10:10:01.903744
1300  2023-10-20 10:10:01.935674
1301  2023-10-20 10:10:01.967603
1302  2023-10-20 10:10:02.015456
1303  2023-10-20 10:10:02.047338
1304  2023-10-20 10:10:02.079253
1305  2023-10-20 10:10:02.111170
1306  2023-10-20 10:10:02.143129
1307  2023-10-20 10:10:02.176027
1308  2023-10-20 10:10:02.207944
1309  2023-10-20 10:10:02.239858
1310  2023-10-20 10:10:02.271739
1311  2023-10-20 10:10:02.303715
1312  2023-10-20 10:10:02.335596
1313  2023-10-20 10:10:02.367518
1314  2023-10-20 10:10:02.415381
1315  2023-10-20 10:10:02.447299
1316  2023-10-20 10:10:02.479181
1317  2023-10-20 10:10:02.512119
1318  2023-10-20 10:10:02.543042
1319  2023-10-20 10:10:02.575924
1320  2023-10-20 10:10:02.607882
1321  2023-10-20 10:10:02.639785
1322  2023-10-20 10:10:02.671700
1323  2023-10-20 10:10:02.703622
1324  2023-10-20 10:10:02.735532
1325  2023-10-20 10:10:02.767462
1326  2023-10-20 10:10:02.815282
1327  2023-10-20 10:10:02.847196
1328  2023-10-20 10:10:02.879111
1329  2023-10-20 10:10:02.911069
1330  2023-10-20 10:10:02.942986
1331  2023-10-20 10:10:02.975889
1332  2023-10-20 10:10:03.007815
1333  2023-10-20 10:10:03.039706
1334  2023-10-20 10:10:03.071620
1335  2023-10-20 10:10:03.103535
1336  2023-10-20 10:10:03.135452
1337  2023-10-20 10:10:03.167340
1338  2023-10-20 10:10:03.216208
1339  2023-10-20 10:10:03.247126
1340  2023-10-20 10:10:03.280073
1341  2023-10-20 10:10:03.311986
1342  2023-10-20 10:10:03.343876
1343  2023-10-20 10:10:03.375820
1344  2023-10-20 10:10:03.407698
1345  2023-10-20 10:10:03.439611
1346  2023-10-20 10:10:03.471524
1347  2023-10-20 10:10:03.503471
1348  2023-10-20 10:10:03.535354
1349  2023-10-20 10:10:03.567314
1350  2023-10-20 10:10:03.615172
1351  2023-10-20 10:10:03.648090
1352  2023-10-20 10:10:03.680021
1353  2023-10-20 10:10:03.711919
1354  2023-10-20 10:10:03.743836
1355  2023-10-20 10:10:03.775800
1356  2023-10-20 10:10:03.807714
1357  2023-10-20 10:10:03.839629
1358  2023-10-20 10:10:03.871543
1359  2023-10-20 10:10:03.903458
1360  2023-10-20 10:10:03.935384
1361  2023-10-20 10:10:03.967288
1362  2023-10-20 10:10:04.015158
1363  2023-10-20 10:10:04.047073
1364  2023-10-20 10:10:04.079021
1365  2023-10-20 10:10:04.111939
1366  2023-10-20 10:10:04.143847
1367  2023-10-20 10:10:04.175761
1368  2023-10-20 10:10:04.207680
1369  2023-10-20 10:10:04.239590
1370  2023-10-20 10:10:04.271505
1371  2023-10-20 10:10:04.303391
1372  2023-10-20 10:10:04.335337
1373  2023-10-20 10:10:04.367265
1374  2023-10-20 10:10:04.415088
1375  2023-10-20 10:10:04.447002
1376  2023-10-20 10:10:04.478962
1377  2023-10-20 10:10:04.511858
1378  2023-10-20 10:10:04.543779
1379  2023-10-20 10:10:04.575659
1380  2023-10-20 10:10:04.608570
1381  2023-10-20 10:10:04.639488
1382  2023-10-20 10:10:04.671403
1383  2023-10-20 10:10:04.703334
1384  2023-10-20 10:10:04.736238
1385  2023-10-20 10:10:04.768143
1386  2023-10-20 10:10:04.816016
1387  2023-10-20 10:10:04.847929
1388  2023-10-20 10:10:04.879843
1389  2023-10-20 10:10:04.911872
1390  2023-10-20 10:10:04.943901
1391  2023-10-20 10:10:04.975786
1392  2023-10-20 10:10:05.007672
1393  2023-10-20 10:10:05.039586
1394  2023-10-20 10:10:05.071499
1395  2023-10-20 10:10:05.103456
1396  2023-10-20 10:10:05.135354
1397  2023-10-20 10:10:05.167249
1398  2023-10-20 10:10:05.215114
1399  2023-10-20 10:10:05.248026
1400  2023-10-20 10:10:05.278944
1401  2023-10-20 10:10:05.311856
1402  2023-10-20 10:10:05.343770
1403  2023-10-20 10:10:05.375715
1404  2023-10-20 10:10:05.407601
1405  2023-10-20 10:10:05.439544
1406  2023-10-20 10:10:05.471458
1407  2023-10-20 10:10:05.503385
1408  2023-10-20 10:10:05.535259
1409  2023-10-20 10:10:05.567203
1410  2023-10-20 10:10:05.615077
1411  2023-10-20 10:10:05.646957
1412  2023-10-20 10:10:05.679919
1413  2023-10-20 10:10:05.711819
1414  2023-10-20 10:10:05.743701
1415  2023-10-20 10:10:05.775646
1416  2023-10-20 10:10:05.807553
1417  2023-10-20 10:10:05.839481
1418  2023-10-20 10:10:05.871359
1419  2023-10-20 10:10:05.903312
1420  2023-10-20 10:10:05.936187
1421  2023-10-20 10:10:05.968100
1422  2023-10-20 10:10:06.015979
1423  2023-10-20 10:10:06.047884
1424  2023-10-20 10:10:06.079834
1425  2023-10-20 10:10:06.111716
1426  2023-10-20 10:10:06.143663
1427  2023-10-20 10:10:06.175581
1428  2023-10-20 10:10:06.207459
1429  2023-10-20 10:10:06.240402
1430  2023-10-20 10:10:06.272285
1431  2023-10-20 10:10:06.304199
1432  2023-10-20 10:10:06.336114
1433  2023-10-20 10:10:06.367062
1434  2023-10-20 10:10:06.414901
1435  2023-10-20 10:10:06.447813
1436  2023-10-20 10:10:06.479762
1437  2023-10-20 10:10:06.511674
1438  2023-10-20 10:10:06.543582
1439  2023-10-20 10:10:06.575511
1440  2023-10-20 10:10:06.607417
1441  2023-10-20 10:10:06.639328
1442  2023-10-20 10:10:06.671263
1443  2023-10-20 10:10:06.703165
1444  2023-10-20 10:10:06.735099
1445  2023-10-20 10:10:06.768002
1446  2023-10-20 10:10:06.815880
1447  2023-10-20 10:10:06.847772
1448  2023-10-20 10:10:06.879687
1449  2023-10-20 10:10:06.911572
1450  2023-10-20 10:10:06.943512
1451  2023-10-20 10:10:06.975438
1452  2023-10-20 10:10:07.007354
1453  2023-10-20 10:10:07.039281
1454  2023-10-20 10:10:07.071146
1455  2023-10-20 10:10:07.103104
1456  2023-10-20 10:10:07.135994
1457  2023-10-20 10:10:07.167937
1458  2023-10-20 10:10:07.215758
1459  2023-10-20 10:10:07.247708
1460  2023-10-20 10:10:07.279623
1461  2023-10-20 10:10:07.311525
1462  2023-10-20 10:10:07.343452
1463  2023-10-20 10:10:07.375381
1464  2023-10-20 10:10:07.408289
1465  2023-10-20 10:10:07.440157
1466  2023-10-20 10:10:07.472073
1467  2023-10-20 10:10:07.503987
1468  2023-10-20 10:10:07.535900
1469  2023-10-20 10:10:07.567821
1470  2023-10-20 10:10:07.615689
1471  2023-10-20 10:10:07.647601
1472  2023-10-20 10:10:07.679515
1473  2023-10-20 10:10:07.711432
1474  2023-10-20 10:10:07.743361
1475  2023-10-20 10:10:07.776289
1476  2023-10-20 10:10:07.807211
1477  2023-10-20 10:10:07.839088
1478  2023-10-20 10:10:07.871002
1479  2023-10-20 10:10:07.903957
1480  2023-10-20 10:10:07.935878
1481  2023-10-20 10:10:07.967774
1482  2023-10-20 10:10:08.015616
1483  2023-10-20 10:10:08.047561
1484  2023-10-20 10:10:08.079481
1485  2023-10-20 10:10:08.111363
1486  2023-10-20 10:10:08.143301
1487  2023-10-20 10:10:08.175222
1488  2023-10-20 10:10:08.207139
1489  2023-10-20 10:10:08.239052
1490  2023-10-20 10:10:08.270964
1491  2023-10-20 10:10:08.303896
1492  2023-10-20 10:10:08.335792
1493  2023-10-20 10:10:08.367712
1494  2023-10-20 10:10:08.415578
1495  2023-10-20 10:10:08.447498
1496  2023-10-20 10:10:08.479399
1497  2023-10-20 10:10:08.511313
1498  2023-10-20 10:10:08.543259
1499  2023-10-20 10:10:08.575153
1500  2023-10-20 10:10:08.607056
1501  2023-10-20 10:10:08.638978
1502  2023-10-20 10:10:08.671886
1503  2023-10-20 10:10:08.703786
1504  2023-10-20 10:10:08.735687
1505  2023-10-20 10:10:08.767602
1506  2023-10-20 10:10:08.815508
1507  2023-10-20 10:10:08.847431
1508  2023-10-20 10:10:08.879329
1509  2023-10-20 10:10:08.911243
1510  2023-10-20 10:10:08.943166
1511  2023-10-20 10:10:08.975077
1512  2023-10-20 10:10:09.007997
1513  2023-10-20 10:10:09.039904
1514  2023-10-20 10:10:09.071858
1515  2023-10-20 10:10:09.103750
1516  2023-10-20 10:10:09.135647
1517  2023-10-20 10:10:09.167563
1518  2023-10-20 10:10:09.215403
1519  2023-10-20 10:10:09.247365
1520  2023-10-20 10:10:09.279278
1521  2023-10-20 10:10:09.311146
1522  2023-10-20 10:10:09.343086
1523  2023-10-20 10:10:09.375004
1524  2023-10-20 10:10:09.407918
1525  2023-10-20 10:10:09.439830
1526  2023-10-20 10:10:09.471740
1527  2023-10-20 10:10:09.503658
1528  2023-10-20 10:10:09.535583
1529  2023-10-20 10:10:09.567489
1530  2023-10-20 10:10:09.616329
1531  2023-10-20 10:10:09.647278
1532  2023-10-20 10:10:09.679186
1533  2023-10-20 10:10:09.712104
1534  2023-10-20 10:10:09.743021
1535  2023-10-20 10:10:09.775902
1536  2023-10-20 10:10:09.808814
1537  2023-10-20 10:10:09.839768
1538  2023-10-20 10:10:09.871682
1539  2023-10-20 10:10:09.903612
1540  2023-10-20 10:10:09.935526
1541  2023-10-20 10:10:09.967418
1542  2023-10-20 10:10:10.015260
1543  2023-10-20 10:10:10.047217
1544  2023-10-20 10:10:10.080115
1545  2023-10-20 10:10:10.112033
1546  2023-10-20 10:10:10.143949
1547  2023-10-20 10:10:10.175862
1548  2023-10-20 10:10:10.207775
1549  2023-10-20 10:10:10.239694
1550  2023-10-20 10:10:10.271613
1551  2023-10-20 10:10:10.303878
1552  2023-10-20 10:10:10.336796
1553  2023-10-20 10:10:10.368744
1554  2023-10-20 10:10:10.416611
1555  2023-10-20 10:10:10.448536
1556  2023-10-20 10:10:10.480408
1557  2023-10-20 10:10:10.512321
1558  2023-10-20 10:10:10.543310
1559  2023-10-20 10:10:10.576152
1560  2023-10-20 10:10:10.608166
1561  2023-10-20 10:10:10.640056
1562  2023-10-20 10:10:10.671971
1563  2023-10-20 10:10:10.703922
1564  2023-10-20 10:10:10.735799
1565  2023-10-20 10:10:10.767761
1566  2023-10-20 10:10:10.816622
1567  2023-10-20 10:10:10.848529
1568  2023-10-20 10:10:10.880445
1569  2023-10-20 10:10:10.912338
1570  2023-10-20 10:10:10.944272
1571  2023-10-20 10:10:10.976179
1572  2023-10-20 10:10:11.008101
1573  2023-10-20 10:10:11.040039
1574  2023-10-20 10:10:11.071946
1575  2023-10-20 10:10:11.103881
1576  2023-10-20 10:10:11.135762
1577  2023-10-20 10:10:11.167698
1578  2023-10-20 10:10:11.215556
1579  2023-10-20 10:10:11.248459
1580  2023-10-20 10:10:11.280365
1581  2023-10-20 10:10:11.312278
1582  2023-10-20 10:10:11.344200
1583  2023-10-20 10:10:11.376115
1584  2023-10-20 10:10:11.408047
1585  2023-10-20 10:10:11.439912
1586  2023-10-20 10:10:11.471872
1587  2023-10-20 10:10:11.503789
1588  2023-10-20 10:10:11.535698
1589  2023-10-20 10:10:11.567616
1590  2023-10-20 10:10:11.615486
1591  2023-10-20 10:10:11.647404
1592  2023-10-20 10:10:11.680304
1593  2023-10-20 10:10:11.712210
1594  2023-10-20 10:10:11.744126
1595  2023-10-20 10:10:11.776037
1596  2023-10-20 10:10:11.807951
1597  2023-10-20 10:10:11.840019
1598  2023-10-20 10:10:11.871757
1599  2023-10-20 10:10:11.903700
1600  2023-10-20 10:10:11.936622
1601  2023-10-20 10:10:11.967500
1602  2023-10-20 10:10:12.015415
1603  2023-10-20 10:10:12.047286
1604  2023-10-20 10:10:12.079254
1605  2023-10-20 10:10:12.112171
1606  2023-10-20 10:10:12.143113
1607  2023-10-20 10:10:12.175977
1608  2023-10-20 10:10:12.207917
1609  2023-10-20 10:10:12.239773
1610  2023-10-20 10:10:12.271782
1611  2023-10-20 10:10:12.303667
1612  2023-10-20 10:10:12.335592
1613  2023-10-20 10:10:12.367494
1614  2023-10-20 10:10:12.415400
1615  2023-10-20 10:10:12.447281
1616  2023-10-20 10:10:12.479229
1617  2023-10-20 10:10:12.511136
1618  2023-10-20 10:10:12.543049
1619  2023-10-20 10:10:12.575937
1620  2023-10-20 10:10:12.607899
1621  2023-10-20 10:10:12.639815
1622  2023-10-20 10:10:12.671706
1623  2023-10-20 10:10:12.703661
1624  2023-10-20 10:10:12.736530
1625  2023-10-20 10:10:12.767467
1626  2023-10-20 10:10:12.815326
1627  2023-10-20 10:10:12.847241
1628  2023-10-20 10:10:12.879166
1629  2023-10-20 10:10:12.912066
1630  2023-10-20 10:10:12.942984
1631  2023-10-20 10:10:12.974908
1632  2023-10-20 10:10:13.007828
1633  2023-10-20 10:10:13.039746
1634  2023-10-20 10:10:13.071652
1635  2023-10-20 10:10:13.103548
1636  2023-10-20 10:10:13.135441
1637  2023-10-20 10:10:13.167400
1638  2023-10-20 10:10:13.216224
1639  2023-10-20 10:10:13.248169
1640  2023-10-20 10:10:13.280143
1641  2023-10-20 10:10:13.312021
1642  2023-10-20 10:10:13.344029
1643  2023-10-20 10:10:13.375944
1644  2023-10-20 10:10:13.407859
1645  2023-10-20 10:10:13.439780
1646  2023-10-20 10:10:13.471672
1647  2023-10-20 10:10:13.503589
1648  2023-10-20 10:10:13.535474
1649  2023-10-20 10:10:13.567419
1650  2023-10-20 10:10:13.615293
1651  2023-10-20 10:10:13.647217
1652  2023-10-20 10:10:13.679088
1653  2023-10-20 10:10:13.712040
1654  2023-10-20 10:10:13.742975
1655  2023-10-20 10:10:13.775900
1656  2023-10-20 10:10:13.807743
1657  2023-10-20 10:10:13.839657
1658  2023-10-20 10:10:13.871620
1659  2023-10-20 10:10:13.903516
1660  2023-10-20 10:10:13.935436
1661  2023-10-20 10:10:13.967348
1662  2023-10-20 10:10:14.015222
1663  2023-10-20 10:10:14.047131
1664  2023-10-20 10:10:14.079085
1665  2023-10-20 10:10:14.110966
1666  2023-10-20 10:10:14.143871
1667  2023-10-20 10:10:14.175783
1668  2023-10-20 10:10:14.207700
1669  2023-10-20 10:10:14.239631
1670  2023-10-20 10:10:14.271547
1671  2023-10-20 10:10:14.303467
1672  2023-10-20 10:10:14.335365
1673  2023-10-20 10:10:14.367278
1674  2023-10-20 10:10:14.415188
1675  2023-10-20 10:10:14.447055
1676  2023-10-20 10:10:14.478992
1677  2023-10-20 10:10:14.510887
1678  2023-10-20 10:10:14.543805
1679  2023-10-20 10:10:14.575742
1680  2023-10-20 10:10:14.607659
1681  2023-10-20 10:10:14.639552
1682  2023-10-20 10:10:14.671476
1683  2023-10-20 10:10:14.703398
1684  2023-10-20 10:10:14.735308
1685  2023-10-20 10:10:14.767173
1686  2023-10-20 10:10:14.815079
1687  2023-10-20 10:10:14.847003
1688  2023-10-20 10:10:14.879905
1689  2023-10-20 10:10:14.911829
1690  2023-10-20 10:10:14.943742
1691  2023-10-20 10:10:14.975661
1692  2023-10-20 10:10:15.007606
1693  2023-10-20 10:10:15.039588
1694  2023-10-20 10:10:15.071563
1695  2023-10-20 10:10:15.103533
1696  2023-10-20 10:10:15.135447
1697  2023-10-20 10:10:15.167332
1698  2023-10-20 10:10:15.216203
1699  2023-10-20 10:10:15.248116
1700  2023-10-20 10:10:15.280030
1701  2023-10-20 10:10:15.311958
1702  2023-10-20 10:10:15.343860
1703  2023-10-20 10:10:15.375773
1704  2023-10-20 10:10:15.407689
1705  2023-10-20 10:10:15.439604
1706  2023-10-20 10:10:15.471555
1707  2023-10-20 10:10:15.503465
1708  2023-10-20 10:10:15.535379
1709  2023-10-20 10:10:15.567296
1710  2023-10-20 10:10:15.615166
1711  2023-10-20 10:10:15.648086
1712  2023-10-20 10:10:15.679005
1713  2023-10-20 10:10:15.711906
1714  2023-10-20 10:10:15.743821
1715  2023-10-20 10:10:15.775803
1716  2023-10-20 10:10:15.807852
1717  2023-10-20 10:10:15.839751
1718  2023-10-20 10:10:15.871636
1719  2023-10-20 10:10:15.903581
1720  2023-10-20 10:10:15.935515
1721  2023-10-20 10:10:15.967407
1722  2023-10-20 10:10:16.015281
1723  2023-10-20 10:10:16.047196
1724  2023-10-20 10:10:16.079126
1725  2023-10-20 10:10:16.111048
1726  2023-10-20 10:10:16.143937
1727  2023-10-20 10:10:16.175854
1728  2023-10-20 10:10:16.207782
1729  2023-10-20 10:10:16.239678
1730  2023-10-20 10:10:16.271593
1731  2023-10-20 10:10:16.303507
1732  2023-10-20 10:10:16.335427
1733  2023-10-20 10:10:16.367341
1734  2023-10-20 10:10:16.415204
1735  2023-10-20 10:10:16.447158
1736  2023-10-20 10:10:16.479030
1737  2023-10-20 10:10:16.510975
1738  2023-10-20 10:10:16.543878
1739  2023-10-20 10:10:16.575779
1740  2023-10-20 10:10:16.607694
1741  2023-10-20 10:10:16.639608
1742  2023-10-20 10:10:16.671498
1743  2023-10-20 10:10:16.703437
1744  2023-10-20 10:10:16.736319
1745  2023-10-20 10:10:16.768234
1746  2023-10-20 10:10:16.816144
1747  2023-10-20 10:10:16.848019
1748  2023-10-20 10:10:16.879933
1749  2023-10-20 10:10:16.911858
1750  2023-10-20 10:10:16.943763
1751  2023-10-20 10:10:16.975709
1752  2023-10-20 10:10:17.007624
1753  2023-10-20 10:10:17.039541
1754  2023-10-20 10:10:17.071446
1755  2023-10-20 10:10:17.103416
1756  2023-10-20 10:10:17.135279
1757  2023-10-20 10:10:17.167222
1758  2023-10-20 10:10:17.215037
1759  2023-10-20 10:10:17.246974
1760  2023-10-20 10:10:17.278864
1761  2023-10-20 10:10:17.311064
1762  2023-10-20 10:10:17.343962
1763  2023-10-20 10:10:17.375880
1764  2023-10-20 10:10:17.407761
1765  2023-10-20 10:10:17.439677
1766  2023-10-20 10:10:17.471590
1767  2023-10-20 10:10:17.503504
1768  2023-10-20 10:10:17.535419
1769  2023-10-20 10:10:17.567341
1770  2023-10-20 10:10:17.615206
1771  2023-10-20 10:10:17.647122
1772  2023-10-20 10:10:17.680032
1773  2023-10-20 10:10:17.711947
1774  2023-10-20 10:10:17.743863
1775  2023-10-20 10:10:17.775775
1776  2023-10-20 10:10:17.807690
1777  2023-10-20 10:10:17.839638
1778  2023-10-20 10:10:17.871520
1779  2023-10-20 10:10:17.903528
1780  2023-10-20 10:10:17.935439
1781  2023-10-20 10:10:17.967379
1782  2023-10-20 10:10:18.015233
1783  2023-10-20 10:10:18.048153
1784  2023-10-20 10:10:18.080073
1785  2023-10-20 10:10:18.110945
1786  2023-10-20 10:10:18.143904
1787  2023-10-20 10:10:18.175816
1788  2023-10-20 10:10:18.207716
1789  2023-10-20 10:10:18.239600
1790  2023-10-20 10:10:18.271541
1791  2023-10-20 10:10:18.303458
1792  2023-10-20 10:10:18.335378
1793  2023-10-20 10:10:18.367291
1794  2023-10-20 10:10:18.415161
1795  2023-10-20 10:10:18.447068
1796  2023-10-20 10:10:18.479958
1797  2023-10-20 10:10:18.511871
1798  2023-10-20 10:10:18.543786
1799  2023-10-20 10:10:18.575737
1800  2023-10-20 10:10:18.607645
1801  2023-10-20 10:10:18.639529
1802  2023-10-20 10:10:18.671444
1803  2023-10-20 10:10:18.703391
1804  2023-10-20 10:10:18.735300
1805  2023-10-20 10:10:18.767185
1806  2023-10-20 10:10:18.815058
1807  2023-10-20 10:10:18.848013
1808  2023-10-20 10:10:18.879885
1809  2023-10-20 10:10:18.911799
1810  2023-10-20 10:10:18.943749
1811  2023-10-20 10:10:18.975663
1812  2023-10-20 10:10:19.007574
1813  2023-10-20 10:10:19.039509
1814  2023-10-20 10:10:19.071371
1815  2023-10-20 10:10:19.103316
1816  2023-10-20 10:10:19.135200
1817  2023-10-20 10:10:19.167169
1818  2023-10-20 10:10:19.215986
1819  2023-10-20 10:10:19.247934
1820  2023-10-20 10:10:19.279814
1821  2023-10-20 10:10:19.311729
1822  2023-10-20 10:10:19.344640
1823  2023-10-20 10:10:19.375558
1824  2023-10-20 10:10:19.407473
1825  2023-10-20 10:10:19.439421
1826  2023-10-20 10:10:19.471333
1827  2023-10-20 10:10:19.503248
1828  2023-10-20 10:10:19.535163
1829  2023-10-20 10:10:19.567043
1830  2023-10-20 10:10:19.614917
1831  2023-10-20 10:10:19.647859
1832  2023-10-20 10:10:19.679775
1833  2023-10-20 10:10:19.711658
1834  2023-10-20 10:10:19.743612
1835  2023-10-20 10:10:19.775519
1836  2023-10-20 10:10:19.807433
1837  2023-10-20 10:10:19.839348
1838  2023-10-20 10:10:19.871261
1839  2023-10-20 10:10:19.903186
1840  2023-10-20 10:10:19.936056
1841  2023-10-20 10:10:19.967970
1842  2023-10-20 10:10:20.015843
1843  2023-10-20 10:10:20.047757
1844  2023-10-20 10:10:20.079674
1845  2023-10-20 10:10:20.112618
1846  2023-10-20 10:10:20.143503
1847  2023-10-20 10:10:20.175451
1848  2023-10-20 10:10:20.207329
1849  2023-10-20 10:10:20.240184
1850  2023-10-20 10:10:20.272099
1851  2023-10-20 10:10:20.303066
1852  2023-10-20 10:10:20.336023
1853  2023-10-20 10:10:20.367953
1854  2023-10-20 10:10:20.414821
1855  2023-10-20 10:10:20.447748
1856  2023-10-20 10:10:20.479640
1857  2023-10-20 10:10:20.511555
1858  2023-10-20 10:10:20.543464
1859  2023-10-20 10:10:20.575376
1860  2023-10-20 10:10:20.607297
1861  2023-10-20 10:10:20.639207
1862  2023-10-20 10:10:20.671118
1863  2023-10-20 10:10:20.704032
1864  2023-10-20 10:10:20.735967
1865  2023-10-20 10:10:20.767862
1866  2023-10-20 10:10:20.815737
1867  2023-10-20 10:10:20.847657
1868  2023-10-20 10:10:20.879564
1869  2023-10-20 10:10:20.911448
1870  2023-10-20 10:10:20.943388
1871  2023-10-20 10:10:20.975310
1872  2023-10-20 10:10:21.007286
1873  2023-10-20 10:10:21.039226
1874  2023-10-20 10:10:21.071143
1875  2023-10-20 10:10:21.103112
1876  2023-10-20 10:10:21.135034
1877  2023-10-20 10:10:21.166941
1878  2023-10-20 10:10:21.215797
1879  2023-10-20 10:10:21.247725
1880  2023-10-20 10:10:21.279638
1881  2023-10-20 10:10:21.311551
1882  2023-10-20 10:10:21.343466
1883  2023-10-20 10:10:21.375378
1884  2023-10-20 10:10:21.407265
1885  2023-10-20 10:10:21.439180
1886  2023-10-20 10:10:21.471145
1887  2023-10-20 10:10:21.503013
1888  2023-10-20 10:10:21.534963
1889  2023-10-20 10:10:21.566905
1890  2023-10-20 10:10:21.615813
1891  2023-10-20 10:10:21.647719
1892  2023-10-20 10:10:21.679636
1893  2023-10-20 10:10:21.711549
1894  2023-10-20 10:10:21.743467
1895  2023-10-20 10:10:21.776346
1896  2023-10-20 10:10:21.807264
1897  2023-10-20 10:10:21.839176
1898  2023-10-20 10:10:21.871119
1899  2023-10-20 10:10:21.904028
1900  2023-10-20 10:10:21.934951
1901  2023-10-20 10:10:21.967863
1902  2023-10-20 10:10:22.015735
1903  2023-10-20 10:10:22.047648
1904  2023-10-20 10:10:22.079569
1905  2023-10-20 10:10:22.111490
1906  2023-10-20 10:10:22.143438
1907  2023-10-20 10:10:22.175319
1908  2023-10-20 10:10:22.207233
1909  2023-10-20 10:10:22.239164
1910  2023-10-20 10:10:22.271063
1911  2023-10-20 10:10:22.303076
1912  2023-10-20 10:10:22.335175
1913  2023-10-20 10:10:22.368053
1914  2023-10-20 10:10:22.414920
1915  2023-10-20 10:10:22.447845
1916  2023-10-20 10:10:22.479754
1917  2023-10-20 10:10:22.511662
1918  2023-10-20 10:10:22.543583
1919  2023-10-20 10:10:22.575491
1920  2023-10-20 10:10:22.607413
1921  2023-10-20 10:10:22.639328
1922  2023-10-20 10:10:22.671243
1923  2023-10-20 10:10:22.703189
1924  2023-10-20 10:10:22.735071
1925  2023-10-20 10:10:22.767950
1926  2023-10-20 10:10:22.815856
1927  2023-10-20 10:10:22.847815
1928  2023-10-20 10:10:22.879730
1929  2023-10-20 10:10:22.911674
1930  2023-10-20 10:10:22.944556
1931  2023-10-20 10:10:22.976469
1932  2023-10-20 10:10:23.007389
1933  2023-10-20 10:10:23.039307
1934  2023-10-20 10:10:23.071217
1935  2023-10-20 10:10:23.103266
1936  2023-10-20 10:10:23.135148
1937  2023-10-20 10:10:23.167215
1938  2023-10-20 10:10:23.215080
1939  2023-10-20 10:10:23.246997
1940  2023-10-20 10:10:23.279910
1941  2023-10-20 10:10:23.311855
1942  2023-10-20 10:10:23.343745
1943  2023-10-20 10:10:23.375658
1944  2023-10-20 10:10:23.407576
1945  2023-10-20 10:10:23.439457
1946  2023-10-20 10:10:23.471413
1947  2023-10-20 10:10:23.504313
1948  2023-10-20 10:10:23.536197
1949  2023-10-20 10:10:23.568115
1950  2023-10-20 10:10:23.615020
1951  2023-10-20 10:10:23.646938
1952  2023-10-20 10:10:23.679849
1953  2023-10-20 10:10:23.711759
1954  2023-10-20 10:10:23.743683
1955  2023-10-20 10:10:23.776599
1956  2023-10-20 10:10:23.808501
1957  2023-10-20 10:10:23.839385
1958  2023-10-20 10:10:23.871303
1959  2023-10-20 10:10:23.903244
1960  2023-10-20 10:10:23.935210
1961  2023-10-20 10:10:23.968104
1962  2023-10-20 10:10:24.015949
1963  2023-10-20 10:10:24.047894
1964  2023-10-20 10:10:24.079771
1965  2023-10-20 10:10:24.111704
1966  2023-10-20 10:10:24.144568
1967  2023-10-20 10:10:24.176516
1968  2023-10-20 10:10:24.207441
1969  2023-10-20 10:10:24.239350
1970  2023-10-20 10:10:24.271269
1971  2023-10-20 10:10:24.304187
1972  2023-10-20 10:10:24.336100
1973  2023-10-20 10:10:24.367969
1974  2023-10-20 10:10:24.415883
1975  2023-10-20 10:10:24.448753
1976  2023-10-20 10:10:24.479716
1977  2023-10-20 10:10:24.511584
1978  2023-10-20 10:10:24.544539
1979  2023-10-20 10:10:24.575445
1980  2023-10-20 10:10:24.607357
1981  2023-10-20 10:10:24.639288
1982  2023-10-20 10:10:24.671207
1983  2023-10-20 10:10:24.703073
1984  2023-10-20 10:10:24.735984
1985  2023-10-20 10:10:24.766934
1986  2023-10-20 10:10:24.814808
1987  2023-10-20 10:10:24.847732
1988  2023-10-20 10:10:24.879629
1989  2023-10-20 10:10:24.911526
1990  2023-10-20 10:10:24.944471
1991  2023-10-20 10:10:24.976384
1992  2023-10-20 10:10:25.007258
1993  2023-10-20 10:10:25.039215
1994  2023-10-20 10:10:25.072083
1995  2023-10-20 10:10:25.104022
1996  2023-10-20 10:10:25.135956
1997  2023-10-20 10:10:25.167853
1998  2023-10-20 10:10:25.215725
1999  2023-10-20 10:10:25.247651
2000  2023-10-20 10:10:25.279565
2001  2023-10-20 10:10:25.311493
2002  2023-10-20 10:10:25.344400
2003  2023-10-20 10:10:25.376311
2004  2023-10-20 10:10:25.408215
2005  2023-10-20 10:10:25.439127
2006  2023-10-20 10:10:25.471048
2007  2023-10-20 10:10:25.503967
2008  2023-10-20 10:10:25.535872
2009  2023-10-20 10:10:25.567815
2010  2023-10-20 10:10:25.615693
2011  2023-10-20 10:10:25.647591
2012  2023-10-20 10:10:25.679486
2013  2023-10-20 10:10:25.711406
2014  2023-10-20 10:10:25.744334
2015  2023-10-20 10:10:25.775249
2016  2023-10-20 10:10:25.808515
2017  2023-10-20 10:10:25.839423
2018  2023-10-20 10:10:25.871340
2019  2023-10-20 10:10:25.904276
2020  2023-10-20 10:10:25.936299
2021  2023-10-20 10:10:25.968185
2022  2023-10-20 10:10:26.016057
2023  2023-10-20 10:10:26.047969
2024  2023-10-20 10:10:26.079855
2025  2023-10-20 10:10:26.111825
2026  2023-10-20 10:10:26.143737
2027  2023-10-20 10:10:26.175628
2028  2023-10-20 10:10:26.207513
2029  2023-10-20 10:10:26.239428
2030  2023-10-20 10:10:26.271340
2031  2023-10-20 10:10:26.303308
2032  2023-10-20 10:10:26.335226
2033  2023-10-20 10:10:26.367117
2034  2023-10-20 10:10:26.414989
2035  2023-10-20 10:10:26.447912
2036  2023-10-20 10:10:26.478819
2037  2023-10-20 10:10:26.511724
2038  2023-10-20 10:10:26.543638
2039  2023-10-20 10:10:26.575567
2040  2023-10-20 10:10:26.607491
2041  2023-10-20 10:10:26.639399
2042  2023-10-20 10:10:26.671269
2043  2023-10-20 10:10:26.703217
2044  2023-10-20 10:10:26.735185
2045  2023-10-20 10:10:26.767054
2046  2023-10-20 10:10:26.814919
2047  2023-10-20 10:10:26.847839
2048  2023-10-20 10:10:26.879742
2049  2023-10-20 10:10:26.911674
2050  2023-10-20 10:10:26.943575
2051  2023-10-20 10:10:26.975512
2052  2023-10-20 10:10:27.007397
2053  2023-10-20 10:10:27.039324
2054  2023-10-20 10:10:27.072198
2055  2023-10-20 10:10:27.104113
2056  2023-10-20 10:10:27.136026
2057  2023-10-20 10:10:27.167972
2058  2023-10-20 10:10:27.215854
2059  2023-10-20 10:10:27.247764
2060  2023-10-20 10:10:27.279674
2061  2023-10-20 10:10:27.311606
2062  2023-10-20 10:10:27.343495
2063  2023-10-20 10:10:27.376408
2064  2023-10-20 10:10:27.408322
2065  2023-10-20 10:10:27.439271
2066  2023-10-20 10:10:27.471170
2067  2023-10-20 10:10:27.502976
2068  2023-10-20 10:10:27.535856
2069  2023-10-20 10:10:27.567883
2070  2023-10-20 10:10:27.615742
2071  2023-10-20 10:10:27.647652
2072  2023-10-20 10:10:27.679563
2073  2023-10-20 10:10:27.711472
2074  2023-10-20 10:10:27.743382
2075  2023-10-20 10:10:27.775293
2076  2023-10-20 10:10:27.807201
2077  2023-10-20 10:10:27.839179
2078  2023-10-20 10:10:27.871037
2079  2023-10-20 10:10:27.904079
2080  2023-10-20 10:10:27.935042
2081  2023-10-20 10:10:27.967008
2082  2023-10-20 10:10:28.015873
2083  2023-10-20 10:10:28.047797
2084  2023-10-20 10:10:28.080716
2085  2023-10-20 10:10:28.111685
2086  2023-10-20 10:10:28.143623
2087  2023-10-20 10:10:28.175633
2088  2023-10-20 10:10:28.207622
2089  2023-10-20 10:10:28.239518
2090  2023-10-20 10:10:28.271449
2091  2023-10-20 10:10:28.303348
2092  2023-10-20 10:10:28.335263
2093  2023-10-20 10:10:28.367171
2094  2023-10-20 10:10:28.415233
2095  2023-10-20 10:10:28.447929
2096  2023-10-20 10:10:28.479845
2097  2023-10-20 10:10:28.511792
2098  2023-10-20 10:10:28.543672
2099  2023-10-20 10:10:28.575587
2100  2023-10-20 10:10:28.607502
2101  2023-10-20 10:10:28.639417
2102  2023-10-20 10:10:28.671331
2103  2023-10-20 10:10:28.703245
2104  2023-10-20 10:10:28.736166
2105  2023-10-20 10:10:28.768134
2106  2023-10-20 10:10:28.815973
2107  2023-10-20 10:10:28.847858
2108  2023-10-20 10:10:28.879804
2109  2023-10-20 10:10:28.911721
2110  2023-10-20 10:10:28.943627
2111  2023-10-20 10:10:28.975548
2112  2023-10-20 10:10:29.007491
2113  2023-10-20 10:10:29.040380
2114  2023-10-20 10:10:29.071289
2115  2023-10-20 10:10:29.103233
2116  2023-10-20 10:10:29.135120
2117  2023-10-20 10:10:29.167038
2118  2023-10-20 10:10:29.214918
2119  2023-10-20 10:10:29.247795
2120  2023-10-20 10:10:29.279746
2121  2023-10-20 10:10:29.311651
2122  2023-10-20 10:10:29.343560
2123  2023-10-20 10:10:29.375487
2124  2023-10-20 10:10:29.407487
2125  2023-10-20 10:10:29.439437
2126  2023-10-20 10:10:29.471348
2127  2023-10-20 10:10:29.503262
2128  2023-10-20 10:10:29.535200
2129  2023-10-20 10:10:29.567118
2130  2023-10-20 10:10:29.614980
2131  2023-10-20 10:10:29.647868
2132  2023-10-20 10:10:29.679816
2133  2023-10-20 10:10:29.711703
2134  2023-10-20 10:10:29.743619
2135  2023-10-20 10:10:29.775548
2136  2023-10-20 10:10:29.807468
2137  2023-10-20 10:10:29.839384
2138  2023-10-20 10:10:29.871277
2139  2023-10-20 10:10:29.904158
2140  2023-10-20 10:10:29.936078
2141  2023-10-20 10:10:29.967988
2142  2023-10-20 10:10:30.015886
2143  2023-10-20 10:10:30.047774
2144  2023-10-20 10:10:30.079687
2145  2023-10-20 10:10:30.111603
2146  2023-10-20 10:10:30.143562
2147  2023-10-20 10:10:30.175474
2148  2023-10-20 10:10:30.207380
2149  2023-10-20 10:10:30.240259
2150  2023-10-20 10:10:30.271173
2151  2023-10-20 10:10:30.303156
2152  2023-10-20 10:10:30.335007
2153  2023-10-20 10:10:30.367976
2154  2023-10-20 10:10:30.415831
2155  2023-10-20 10:10:30.447702
2156  2023-10-20 10:10:30.479616
2157  2023-10-20 10:10:30.511561
2158  2023-10-20 10:10:30.543470
2159  2023-10-20 10:10:30.575385
2160  2023-10-20 10:10:30.607320
2161  2023-10-20 10:10:30.639250
2162  2023-10-20 10:10:30.671136
2163  2023-10-20 10:10:30.703060
2164  2023-10-20 10:10:30.735955
2165  2023-10-20 10:10:30.767870
2166  2023-10-20 10:10:30.815743
2167  2023-10-20 10:10:30.847682
2168  2023-10-20 10:10:30.879582
2169  2023-10-20 10:10:30.911506
2170  2023-10-20 10:10:30.943407
2171  2023-10-20 10:10:30.975350
2172  2023-10-20 10:10:31.007237
2173  2023-10-20 10:10:31.039120
2174  2023-10-20 10:10:31.072054
2175  2023-10-20 10:10:31.102979
2176  2023-10-20 10:10:31.134887
2177  2023-10-20 10:10:31.167808
2178  2023-10-20 10:10:31.215680
2179  2023-10-20 10:10:31.247592
2180  2023-10-20 10:10:31.279523
2181  2023-10-20 10:10:31.311412
2182  2023-10-20 10:10:31.343329
2183  2023-10-20 10:10:31.375249
2184  2023-10-20 10:10:31.407182
2185  2023-10-20 10:10:31.439079
2186  2023-10-20 10:10:31.470960
2187  2023-10-20 10:10:31.502906
2188  2023-10-20 10:10:31.534815
2189  2023-10-20 10:10:31.567734
2190  2023-10-20 10:10:31.615575
2191  2023-10-20 10:10:31.647553
2192  2023-10-20 10:10:31.679550
2193  2023-10-20 10:10:31.711443
2194  2023-10-20 10:10:31.743377
2195  2023-10-20 10:10:31.775241
2196  2023-10-20 10:10:31.808154
2197  2023-10-20 10:10:31.840068
2198  2023-10-20 10:10:31.871980
2199  2023-10-20 10:10:31.903895
2200  2023-10-20 10:10:31.935855
2201  2023-10-20 10:10:31.967780
2202  2023-10-20 10:10:32.015628
2203  2023-10-20 10:10:32.047513
2204  2023-10-20 10:10:32.079426
2205  2023-10-20 10:10:32.112399
2206  2023-10-20 10:10:32.144277
2207  2023-10-20 10:10:32.175170
2208  2023-10-20 10:10:32.208081
2209  2023-10-20 10:10:32.240023
2210  2023-10-20 10:10:32.271941
2211  2023-10-20 10:10:32.303824
2212  2023-10-20 10:10:32.335766
2213  2023-10-20 10:10:32.367680
2214  2023-10-20 10:10:32.415563
2215  2023-10-20 10:10:32.447467
2216  2023-10-20 10:10:32.479392
2217  2023-10-20 10:10:32.511270
2218  2023-10-20 10:10:32.543209
2219  2023-10-20 10:10:32.575099
2220  2023-10-20 10:10:32.607014
2221  2023-10-20 10:10:32.639924
2222  2023-10-20 10:10:32.671839
2223  2023-10-20 10:10:32.703814
2224  2023-10-20 10:10:32.735701
2225  2023-10-20 10:10:32.767616
2226  2023-10-20 10:10:32.815480
2227  2023-10-20 10:10:32.847395
2228  2023-10-20 10:10:32.879316
2229  2023-10-20 10:10:32.911198
2230  2023-10-20 10:10:32.943159
2231  2023-10-20 10:10:32.975056
2232  2023-10-20 10:10:33.007002
2233  2023-10-20 10:10:33.038919
2234  2023-10-20 10:10:33.071801
2235  2023-10-20 10:10:33.103776
2236  2023-10-20 10:10:33.135727
2237  2023-10-20 10:10:33.167642
2238  2023-10-20 10:10:33.215510
2239  2023-10-20 10:10:33.247441
2240  2023-10-20 10:10:33.279345
2241  2023-10-20 10:10:33.311253
2242  2023-10-20 10:10:33.343176
2243  2023-10-20 10:10:33.375075
2244  2023-10-20 10:10:33.406993
2245  2023-10-20 10:10:33.438904
2246  2023-10-20 10:10:33.471821
2247  2023-10-20 10:10:33.503706
2248  2023-10-20 10:10:33.535620
2249  2023-10-20 10:10:33.567570
2250  2023-10-20 10:10:33.615407
2251  2023-10-20 10:10:33.647323
2252  2023-10-20 10:10:33.679236
2253  2023-10-20 10:10:33.711151
2254  2023-10-20 10:10:33.743091
2255  2023-10-20 10:10:33.775004
2256  2023-10-20 10:10:33.806918
2257  2023-10-20 10:10:33.838846
2258  2023-10-20 10:10:33.871781
2259  2023-10-20 10:10:33.903636
2260  2023-10-20 10:10:33.935549
2261  2023-10-20 10:10:33.967494
2262  2023-10-20 10:10:34.015374
2263  2023-10-20 10:10:34.047255
2264  2023-10-20 10:10:34.080221
2265  2023-10-20 10:10:34.111093
2266  2023-10-20 10:10:34.142994
2267  2023-10-20 10:10:34.174955
2268  2023-10-20 10:10:34.206824
2269  2023-10-20 10:10:34.239769
2270  2023-10-20 10:10:34.271680
2271  2023-10-20 10:10:34.303623
2272  2023-10-20 10:10:34.335537
2273  2023-10-20 10:10:34.367485
2274  2023-10-20 10:10:34.415379
2275  2023-10-20 10:10:34.447239
2276  2023-10-20 10:10:34.479190
2277  2023-10-20 10:10:34.511096
2278  2023-10-20 10:10:34.543014
2279  2023-10-20 10:10:34.574941
2280  2023-10-20 10:10:34.606836
2281  2023-10-20 10:10:34.639769
2282  2023-10-20 10:10:34.671638
2283  2023-10-20 10:10:34.703553
2284  2023-10-20 10:10:34.735503
2285  2023-10-20 10:10:34.767383
2286  2023-10-20 10:10:34.815254
2287  2023-10-20 10:10:34.847195
2288  2023-10-20 10:10:34.879083
2289  2023-10-20 10:10:34.910998
2290  2023-10-20 10:10:34.942942
2291  2023-10-20 10:10:34.974857
2292  2023-10-20 10:10:35.007795
2293  2023-10-20 10:10:35.039701
2294  2023-10-20 10:10:35.071619
2295  2023-10-20 10:10:35.103480
2296  2023-10-20 10:10:35.135395
2297  2023-10-20 10:10:35.167359
2298  2023-10-20 10:10:35.215208
2299  2023-10-20 10:10:35.247147
2300  2023-10-20 10:10:35.279011
2301  2023-10-20 10:10:35.310957
2302  2023-10-20 10:10:35.343871
2303  2023-10-20 10:10:35.375788
2304  2023-10-20 10:10:35.407707
2305  2023-10-20 10:10:35.439614
2306  2023-10-20 10:10:35.471528
2307  2023-10-20 10:10:35.503409
2308  2023-10-20 10:10:35.535359
2309  2023-10-20 10:10:35.567273
2310  2023-10-20 10:10:35.615113
2311  2023-10-20 10:10:35.647058
2312  2023-10-20 10:10:35.679970
2313  2023-10-20 10:10:35.711883
2314  2023-10-20 10:10:35.743769
2315  2023-10-20 10:10:35.775708
2316  2023-10-20 10:10:35.807629
2317  2023-10-20 10:10:35.839510
2318  2023-10-20 10:10:35.871424
2319  2023-10-20 10:10:35.903338
2320  2023-10-20 10:10:35.935253
2321  2023-10-20 10:10:35.967202
2322  2023-10-20 10:10:36.015081
2323  2023-10-20 10:10:36.046980
2324  2023-10-20 10:10:36.079880
2325  2023-10-20 10:10:36.110783
2326  2023-10-20 10:10:36.143720
2327  2023-10-20 10:10:36.175643
2328  2023-10-20 10:10:36.207552
2329  2023-10-20 10:10:36.239439
2330  2023-10-20 10:10:36.271386
2331  2023-10-20 10:10:36.304265
2332  2023-10-20 10:10:36.335182
2333  2023-10-20 10:10:36.368123
2334  2023-10-20 10:10:36.415019
2335  2023-10-20 10:10:36.446883
2336  2023-10-20 10:10:36.478830
2337  2023-10-20 10:10:36.511746
2338  2023-10-20 10:10:36.543649
2339  2023-10-20 10:10:36.575539
2340  2023-10-20 10:10:36.607504
2341  2023-10-20 10:10:36.639400
2342  2023-10-20 10:10:36.671316
2343  2023-10-20 10:10:36.703196
2344  2023-10-20 10:10:36.735150
2345  2023-10-20 10:10:36.767060
2346  2023-10-20 10:10:36.814945
2347  2023-10-20 10:10:36.846841
2348  2023-10-20 10:10:36.878753
2349  2023-10-20 10:10:36.911672
2350  2023-10-20 10:10:36.943600
2351  2023-10-20 10:10:36.976467
2352  2023-10-20 10:10:37.007409
2353  2023-10-20 10:10:37.039331
2354  2023-10-20 10:10:37.072210
2355  2023-10-20 10:10:37.103128
2356  2023-10-20 10:10:37.135041
2357  2023-10-20 10:10:37.166988
2358  2023-10-20 10:10:37.215857
2359  2023-10-20 10:10:37.247772
2360  2023-10-20 10:10:37.279679
2361  2023-10-20 10:10:37.311602
2362  2023-10-20 10:10:37.343526
2363  2023-10-20 10:10:37.375424
2364  2023-10-20 10:10:37.407346
2365  2023-10-20 10:10:37.439260
2366  2023-10-20 10:10:37.471140
2367  2023-10-20 10:10:37.503117
2368  2023-10-20 10:10:37.535003
2369  2023-10-20 10:10:37.567909
2370  2023-10-20 10:10:37.614784
2371  2023-10-20 10:10:37.647703
2372  2023-10-20 10:10:37.679726
2373  2023-10-20 10:10:37.711639
2374  2023-10-20 10:10:37.743556
2375  2023-10-20 10:10:37.775469
2376  2023-10-20 10:10:37.807374
2377  2023-10-20 10:10:37.839299
2378  2023-10-20 10:10:37.871215
2379  2023-10-20 10:10:37.903129
2380  2023-10-20 10:10:37.935056
2381  2023-10-20 10:10:37.967943
2382  2023-10-20 10:10:38.014827
2383  2023-10-20 10:10:38.047750
2384  2023-10-20 10:10:38.079665
2385  2023-10-20 10:10:38.111560
2386  2023-10-20 10:10:38.143480
2387  2023-10-20 10:10:38.175396
2388  2023-10-20 10:10:38.207278
2389  2023-10-20 10:10:38.239229
2390  2023-10-20 10:10:38.271147
2391  2023-10-20 10:10:38.303056
2392  2023-10-20 10:10:38.334967
2393  2023-10-20 10:10:38.367893
2394  2023-10-20 10:10:38.415752
2395  2023-10-20 10:10:38.447694
2396  2023-10-20 10:10:38.479580
2397  2023-10-20 10:10:38.511495
2398  2023-10-20 10:10:38.543411
2399  2023-10-20 10:10:38.575293
2400  2023-10-20 10:10:38.607241
2401  2023-10-20 10:10:38.639157
2402  2023-10-20 10:10:38.671072
2403  2023-10-20 10:10:38.703985
2404  2023-10-20 10:10:38.735891
2405  2023-10-20 10:10:38.767777
2406  2023-10-20 10:10:38.815704
2407  2023-10-20 10:10:38.846944
2408  2023-10-20 10:10:38.879921
2409  2023-10-20 10:10:38.911838
2410  2023-10-20 10:10:38.943720
2411  2023-10-20 10:10:38.975634
2412  2023-10-20 10:10:39.007548
2413  2023-10-20 10:10:39.039497
2414  2023-10-20 10:10:39.071403
2415  2023-10-20 10:10:39.103319
2416  2023-10-20 10:10:39.135233
2417  2023-10-20 10:10:39.167148
2418  2023-10-20 10:10:39.215019
2419  2023-10-20 10:10:39.246966
2420  2023-10-20 10:10:39.278847
2421  2023-10-20 10:10:39.311826
2422  2023-10-20 10:10:39.343789
2423  2023-10-20 10:10:39.375652
2424  2023-10-20 10:10:39.407567
2425  2023-10-20 10:10:39.439515
2426  2023-10-20 10:10:39.471431
2427  2023-10-20 10:10:39.503339
2428  2023-10-20 10:10:39.535225
2429  2023-10-20 10:10:39.567139
2430  2023-10-20 10:10:39.615045
2431  2023-10-20 10:10:39.647923
2432  2023-10-20 10:10:39.678871
2433  2023-10-20 10:10:39.711811
2434  2023-10-20 10:10:39.743705
2435  2023-10-20 10:10:39.775633
2436  2023-10-20 10:10:39.807495
2437  2023-10-20 10:10:39.839437
2438  2023-10-20 10:10:39.871381
2439  2023-10-20 10:10:39.903270
2440  2023-10-20 10:10:39.935154
2441  2023-10-20 10:10:39.967069
2442  2023-10-20 10:10:40.014972
2443  2023-10-20 10:10:40.046896
2444  2023-10-20 10:10:40.079800
2445  2023-10-20 10:10:40.111709
2446  2023-10-20 10:10:40.143637
2447  2023-10-20 10:10:40.175511
2448  2023-10-20 10:10:40.207424
2449  2023-10-20 10:10:40.239339
2450  2023-10-20 10:10:40.271289
2451  2023-10-20 10:10:40.303221
2452  2023-10-20 10:10:40.335084
2453  2023-10-20 10:10:40.367030
2454  2023-10-20 10:10:40.414894
2455  2023-10-20 10:10:40.446810
2456  2023-10-20 10:10:40.479722
2457  2023-10-20 10:10:40.511637
2458  2023-10-20 10:10:40.543555
2459  2023-10-20 10:10:40.575465
2460  2023-10-20 10:10:40.607355
2461  2023-10-20 10:10:40.639303
2462  2023-10-20 10:10:40.671229
2463  2023-10-20 10:10:40.703156
2464  2023-10-20 10:10:40.735053
2465  2023-10-20 10:10:40.766926
2466  2023-10-20 10:10:40.814832
2467  2023-10-20 10:10:40.846745
2468  2023-10-20 10:10:40.879657
2469  2023-10-20 10:10:40.911570
2470  2023-10-20 10:10:40.943485
2471  2023-10-20 10:10:40.975369
2472  2023-10-20 10:10:41.007284
2473  2023-10-20 10:10:41.039228
2474  2023-10-20 10:10:41.071166
2475  2023-10-20 10:10:41.103053
2476  2023-10-20 10:10:41.134942
2477  2023-10-20 10:10:41.167879
2478  2023-10-20 10:10:41.214757
2479  2023-10-20 10:10:41.247668
2480  2023-10-20 10:10:41.279594
2481  2023-10-20 10:10:41.311468
2482  2023-10-20 10:10:41.343435
2483  2023-10-20 10:10:41.375328
2484  2023-10-20 10:10:41.407248
2485  2023-10-20 10:10:41.439187
2486  2023-10-20 10:10:41.471088
2487  2023-10-20 10:10:41.502996
2488  2023-10-20 10:10:41.535869
2489  2023-10-20 10:10:41.567784
2490  2023-10-20 10:10:41.615689
2491  2023-10-20 10:10:41.647571
2492  2023-10-20 10:10:41.679513
2493  2023-10-20 10:10:41.711421
2494  2023-10-20 10:10:41.743371
2495  2023-10-20 10:10:41.775280
2496  2023-10-20 10:10:41.807175
2497  2023-10-20 10:10:41.839056
2498  2023-10-20 10:10:41.871017
2499  2023-10-20 10:10:41.903912
2500  2023-10-20 10:10:41.935833
2501  2023-10-20 10:10:41.967712
2502  2023-10-20 10:10:42.015630
2503  2023-10-20 10:10:42.047523
2504  2023-10-20 10:10:42.079439
2505  2023-10-20 10:10:42.111328
2506  2023-10-20 10:10:42.143273
2507  2023-10-20 10:10:42.175156
2508  2023-10-20 10:10:42.207071
2509  2023-10-20 10:10:42.239023
2510  2023-10-20 10:10:42.271929
2511  2023-10-20 10:10:42.302845
2512  2023-10-20 10:10:42.335726
2513  2023-10-20 10:10:42.367691
2514  2023-10-20 10:10:42.415563
2515  2023-10-20 10:10:42.447458
2516  2023-10-20 10:10:42.479372
2517  2023-10-20 10:10:42.511286
2518  2023-10-20 10:10:42.543210
2519  2023-10-20 10:10:42.575130
2520  2023-10-20 10:10:42.608028
2521  2023-10-20 10:10:42.639912
2522  2023-10-20 10:10:42.670909
2523  2023-10-20 10:10:42.703796
2524  2023-10-20 10:10:42.735702
2525  2023-10-20 10:10:42.767694
2526  2023-10-20 10:10:42.815590
2527  2023-10-20 10:10:42.847514
2528  2023-10-20 10:10:42.879421
2529  2023-10-20 10:10:42.911350
2530  2023-10-20 10:10:42.943226
2531  2023-10-20 10:10:42.975186
2532  2023-10-20 10:10:43.007053
2533  2023-10-20 10:10:43.039002
2534  2023-10-20 10:10:43.070916
2535  2023-10-20 10:10:43.103829
2536  2023-10-20 10:10:43.135715
2537  2023-10-20 10:10:43.167648
2538  2023-10-20 10:10:43.215521
2539  2023-10-20 10:10:43.247454
2540  2023-10-20 10:10:43.279357
2541  2023-10-20 10:10:43.311263
2542  2023-10-20 10:10:43.343188
2543  2023-10-20 10:10:43.375067
2544  2023-10-20 10:10:43.406982
2545  2023-10-20 10:10:43.438896
2546  2023-10-20 10:10:43.470846
2547  2023-10-20 10:10:43.503723
2548  2023-10-20 10:10:43.535668
2549  2023-10-20 10:10:43.567552
2550  2023-10-20 10:10:43.615424
2551  2023-10-20 10:10:43.647339
2552  2023-10-20 10:10:43.679395
2553  2023-10-20 10:10:43.711312
2554  2023-10-20 10:10:43.743229
2555  2023-10-20 10:10:43.775140
2556  2023-10-20 10:10:43.807106
2557  2023-10-20 10:10:43.839019
2558  2023-10-20 10:10:43.870960
2559  2023-10-20 10:10:43.903883
2560  2023-10-20 10:10:43.934764
2561  2023-10-20 10:10:43.967673
2562  2023-10-20 10:10:44.015598
2563  2023-10-20 10:10:44.047486
2564  2023-10-20 10:10:44.079407
2565  2023-10-20 10:10:44.111291
2566  2023-10-20 10:10:44.143236
2567  2023-10-20 10:10:44.175162
2568  2023-10-20 10:10:44.207032
2569  2023-10-20 10:10:44.238949
2570  2023-10-20 10:10:44.271884
2571  2023-10-20 10:10:44.302824
2572  2023-10-20 10:10:44.335751
2573  2023-10-20 10:10:44.367628
2574  2023-10-20 10:10:44.415524
2575  2023-10-20 10:10:44.447422
2576  2023-10-20 10:10:44.479329
2577  2023-10-20 10:10:44.511218
2578  2023-10-20 10:10:44.543167
2579  2023-10-20 10:10:44.575113
2580  2023-10-20 10:10:44.606962
2581  2023-10-20 10:10:44.639877
2582  2023-10-20 10:10:44.671789
2583  2023-10-20 10:10:44.703705
2584  2023-10-20 10:10:44.735652
2585  2023-10-20 10:10:44.768560
2586  2023-10-20 10:10:44.815453
2587  2023-10-20 10:10:44.847355
2588  2023-10-20 10:10:44.879234
2589  2023-10-20 10:10:44.911182
2590  2023-10-20 10:10:44.944059
2591  2023-10-20 10:10:44.975020
2592  2023-10-20 10:10:45.006892
2593  2023-10-20 10:10:45.038805
2594  2023-10-20 10:10:45.071751
2595  2023-10-20 10:10:45.103666
2596  2023-10-20 10:10:45.135576
2597  2023-10-20 10:10:45.167460
2598  2023-10-20 10:10:45.215364
2599  2023-10-20 10:10:45.247272
2600  2023-10-20 10:10:45.279188
2601  2023-10-20 10:10:45.311083
2602  2023-10-20 10:10:45.343035
2603  2023-10-20 10:10:45.374931
2604  2023-10-20 10:10:45.407819
2605  2023-10-20 10:10:45.439733
2606  2023-10-20 10:10:45.471646
2607  2023-10-20 10:10:45.503591
2608  2023-10-20 10:10:45.535507
2609  2023-10-20 10:10:45.567391
2610  2023-10-20 10:10:45.615301
2611  2023-10-20 10:10:45.647203
2612  2023-10-20 10:10:45.679133
2613  2023-10-20 10:10:45.711050
2614  2023-10-20 10:10:45.742952
2615  2023-10-20 10:10:45.775832
2616  2023-10-20 10:10:45.807745
2617  2023-10-20 10:10:45.839660
2618  2023-10-20 10:10:45.871608
2619  2023-10-20 10:10:45.903527
2620  2023-10-20 10:10:45.935437
2621  2023-10-20 10:10:45.967389
2622  2023-10-20 10:10:46.015314
2623  2023-10-20 10:10:46.047216
2624  2023-10-20 10:10:46.079126
2625  2023-10-20 10:10:46.111046
2626  2023-10-20 10:10:46.142954
2627  2023-10-20 10:10:46.174881
2628  2023-10-20 10:10:46.206748
2629  2023-10-20 10:10:46.239661
2630  2023-10-20 10:10:46.271575
2631  2023-10-20 10:10:46.303489
2632  2023-10-20 10:10:46.335450
2633  2023-10-20 10:10:46.367355
2634  2023-10-20 10:10:46.415235
2635  2023-10-20 10:10:46.447222
2636  2023-10-20 10:10:46.479136
2637  2023-10-20 10:10:46.511020
2638  2023-10-20 10:10:46.542971
2639  2023-10-20 10:10:46.575847
2640  2023-10-20 10:10:46.607762
2641  2023-10-20 10:10:46.639675
2642  2023-10-20 10:10:46.671590
2643  2023-10-20 10:10:46.703536
2644  2023-10-20 10:10:46.735468
2645  2023-10-20 10:10:46.767333
2646  2023-10-20 10:10:46.815205
2647  2023-10-20 10:10:46.847155
2648  2023-10-20 10:10:46.879039
2649  2023-10-20 10:10:46.911033
2650  2023-10-20 10:10:46.943860
2651  2023-10-20 10:10:46.975777
2652  2023-10-20 10:10:47.007691
2653  2023-10-20 10:10:47.039605
2654  2023-10-20 10:10:47.071520
2655  2023-10-20 10:10:47.103434
2656  2023-10-20 10:10:47.135348
2657  2023-10-20 10:10:47.167028
2658  2023-10-20 10:10:47.214946
2659  2023-10-20 10:10:47.247867
2660  2023-10-20 10:10:47.279728
2661  2023-10-20 10:10:47.311641
2662  2023-10-20 10:10:47.343592
2663  2023-10-20 10:10:47.375471
2664  2023-10-20 10:10:47.408382
2665  2023-10-20 10:10:47.440298
2666  2023-10-20 10:10:47.471214
2667  2023-10-20 10:10:47.503167
2668  2023-10-20 10:10:47.536084
2669  2023-10-20 10:10:47.567957
2670  2023-10-20 10:10:47.614830
2671  2023-10-20 10:10:47.647743
2672  2023-10-20 10:10:47.679657
2673  2023-10-20 10:10:47.711570
2674  2023-10-20 10:10:47.743546
2675  2023-10-20 10:10:47.775426
2676  2023-10-20 10:10:47.807313
2677  2023-10-20 10:10:47.839228
2678  2023-10-20 10:10:47.871175
2679  2023-10-20 10:10:47.903095
2680  2023-10-20 10:10:47.935969
2681  2023-10-20 10:10:47.966886
2682  2023-10-20 10:10:48.014792
2683  2023-10-20 10:10:48.047670
2684  2023-10-20 10:10:48.079584
2685  2023-10-20 10:10:48.111499
2686  2023-10-20 10:10:48.143413
2687  2023-10-20 10:10:48.175451
2688  2023-10-20 10:10:48.207365
2689  2023-10-20 10:10:48.239281
2690  2023-10-20 10:10:48.272193
2691  2023-10-20 10:10:48.303110
2692  2023-10-20 10:10:48.335025
2693  2023-10-20 10:10:48.367947
2694  2023-10-20 10:10:48.415840
2695  2023-10-20 10:10:48.447760
2696  2023-10-20 10:10:48.479636
2697  2023-10-20 10:10:48.511551
2698  2023-10-20 10:10:48.543492
2699  2023-10-20 10:10:48.575409
2700  2023-10-20 10:10:48.607328
2701  2023-10-20 10:10:48.639241
2702  2023-10-20 10:10:48.671123
2703  2023-10-20 10:10:48.703038
2704  2023-10-20 10:10:48.735987
2705  2023-10-20 10:10:48.766867
2706  2023-10-20 10:10:48.815771
2707  2023-10-20 10:10:48.847652
2708  2023-10-20 10:10:48.879565
2709  2023-10-20 10:10:48.911516
2710  2023-10-20 10:10:48.943426
2711  2023-10-20 10:10:48.975309
2712  2023-10-20 10:10:49.007223
2713  2023-10-20 10:10:49.039183
2714  2023-10-20 10:10:49.071102
2715  2023-10-20 10:10:49.102972
2716  2023-10-20 10:10:49.134908
2717  2023-10-20 10:10:49.167845
2718  2023-10-20 10:10:49.215717
2719  2023-10-20 10:10:49.247634
2720  2023-10-20 10:10:49.279528
2721  2023-10-20 10:10:49.311409
2722  2023-10-20 10:10:49.343323
2723  2023-10-20 10:10:49.375274
2724  2023-10-20 10:10:49.407186
2725  2023-10-20 10:10:49.439076
2726  2023-10-20 10:10:49.470981
2727  2023-10-20 10:10:49.502928
2728  2023-10-20 10:10:49.534860
2729  2023-10-20 10:10:49.566725
2730  2023-10-20 10:10:49.615595
2731  2023-10-20 10:10:49.647509
2732  2023-10-20 10:10:49.679423
2733  2023-10-20 10:10:49.711338
2734  2023-10-20 10:10:49.743285
2735  2023-10-20 10:10:49.776166
2736  2023-10-20 10:10:49.807081
2737  2023-10-20 10:10:49.839174
2738  2023-10-20 10:10:49.872086
2739  2023-10-20 10:10:49.904003
2740  2023-10-20 10:10:49.935918
2741  2023-10-20 10:10:49.967830
2742  2023-10-20 10:10:50.015738
2743  2023-10-20 10:10:50.047619
2744  2023-10-20 10:10:50.079531
2745  2023-10-20 10:10:50.111447
2746  2023-10-20 10:10:50.144406
2747  2023-10-20 10:10:50.175323
2748  2023-10-20 10:10:50.207269
2749  2023-10-20 10:10:50.239153
2750  2023-10-20 10:10:50.271129
2751  2023-10-20 10:10:50.303043
2752  2023-10-20 10:10:50.334958
2753  2023-10-20 10:10:50.367919
2754  2023-10-20 10:10:50.414777
2755  2023-10-20 10:10:50.447692
2756  2023-10-20 10:10:50.479570
2757  2023-10-20 10:10:50.511485
2758  2023-10-20 10:10:50.543400
2759  2023-10-20 10:10:50.575343
2760  2023-10-20 10:10:50.607229
2761  2023-10-20 10:10:50.639143
2762  2023-10-20 10:10:50.671072
2763  2023-10-20 10:10:50.703021
2764  2023-10-20 10:10:50.734920
2765  2023-10-20 10:10:50.766801
2766  2023-10-20 10:10:50.815721
2767  2023-10-20 10:10:50.847603
2768  2023-10-20 10:10:50.879609
2769  2023-10-20 10:10:50.911524
2770  2023-10-20 10:10:50.943438
2771  2023-10-20 10:10:50.976379
2772  2023-10-20 10:10:51.007317
2773  2023-10-20 10:10:51.039185
2774  2023-10-20 10:10:51.072224
2775  2023-10-20 10:10:51.104146
2776  2023-10-20 10:10:51.135035
2777  2023-10-20 10:10:51.166946
2778  2023-10-20 10:10:51.214864
2779  2023-10-20 10:10:51.246769
2780  2023-10-20 10:10:51.279678
2781  2023-10-20 10:10:51.311575
2782  2023-10-20 10:10:51.343473
2783  2023-10-20 10:10:51.375387
2784  2023-10-20 10:10:51.407340
2785  2023-10-20 10:10:51.439250
2786  2023-10-20 10:10:51.471131
2787  2023-10-20 10:10:51.503046
2788  2023-10-20 10:10:51.534995
2789  2023-10-20 10:10:51.566908
2790  2023-10-20 10:10:51.614773
2791  2023-10-20 10:10:51.647658
2792  2023-10-20 10:10:51.679580
2793  2023-10-20 10:10:51.711488
2794  2023-10-20 10:10:51.743459
2795  2023-10-20 10:10:51.775318
2796  2023-10-20 10:10:51.808285
2797  2023-10-20 10:10:51.840177
2798  2023-10-20 10:10:51.872094
2799  2023-10-20 10:10:51.903998
2800  2023-10-20 10:10:51.936921
2801  2023-10-20 10:10:51.968835
2802  2023-10-20 10:10:52.016703
2803  2023-10-20 10:10:52.048619
2804  2023-10-20 10:10:52.081498
2805  2023-10-20 10:10:52.112446
2806  2023-10-20 10:10:52.145327
2807  2023-10-20 10:10:52.176305
2808  2023-10-20 10:10:52.208193
2809  2023-10-20 10:10:52.241124
2810  2023-10-20 10:10:52.273041
2811  2023-10-20 10:10:52.303902
2812  2023-10-20 10:10:52.335817
2813  2023-10-20 10:10:52.368764
2814  2023-10-20 10:10:52.416605
2815  2023-10-20 10:10:52.448514
2816  2023-10-20 10:10:52.480461
2817  2023-10-20 10:10:52.512378
2818  2023-10-20 10:10:52.544289
2819  2023-10-20 10:10:52.576173
2820  2023-10-20 10:10:52.608133
2821  2023-10-20 10:10:52.640037
2822  2023-10-20 10:10:52.671941
2823  2023-10-20 10:10:52.703832
2824  2023-10-20 10:10:52.736787
2825  2023-10-20 10:10:52.768692
2826  2023-10-20 10:10:52.816574
2827  2023-10-20 10:10:52.848478
2828  2023-10-20 10:10:52.880392
2829  2023-10-20 10:10:52.912317
2830  2023-10-20 10:10:52.944235
2831  2023-10-20 10:10:52.976141
2832  2023-10-20 10:10:53.008048
2833  2023-10-20 10:10:53.039954
2834  2023-10-20 10:10:53.071870
2835  2023-10-20 10:10:53.103792
2836  2023-10-20 10:10:53.135713
2837  2023-10-20 10:10:53.167636
2838  2023-10-20 10:10:53.216500
2839  2023-10-20 10:10:53.248417
2840  2023-10-20 10:10:53.280331
2841  2023-10-20 10:10:53.312229
2842  2023-10-20 10:10:53.344170
2843  2023-10-20 10:10:53.376081
2844  2023-10-20 10:10:53.407972
2845  2023-10-20 10:10:53.439905
2846  2023-10-20 10:10:53.471774
2847  2023-10-20 10:10:53.503748
2848  2023-10-20 10:10:53.536635
2849  2023-10-20 10:10:53.568429
2850  2023-10-20 10:10:53.616350
2851  2023-10-20 10:10:53.648252
2852  2023-10-20 10:10:53.680170
2853  2023-10-20 10:10:53.712085
2854  2023-10-20 10:10:53.744001
2855  2023-10-20 10:10:53.775911
2856  2023-10-20 10:10:53.807854
2857  2023-10-20 10:10:53.839715
2858  2023-10-20 10:10:53.871672
2859  2023-10-20 10:10:53.904608
2860  2023-10-20 10:10:53.935479
2861  2023-10-20 10:10:53.967401
2862  2023-10-20 10:10:54.016273
2863  2023-10-20 10:10:54.048153
2864  2023-10-20 10:10:54.080068
2865  2023-10-20 10:10:54.111981
2866  2023-10-20 10:10:54.143895
2867  2023-10-20 10:10:54.175845
2868  2023-10-20 10:10:54.207757
2869  2023-10-20 10:10:54.239693
2870  2023-10-20 10:10:54.271595
2871  2023-10-20 10:10:54.303507
2872  2023-10-20 10:10:54.335382
2873  2023-10-20 10:10:54.367333
2874  2023-10-20 10:10:54.416213
2875  2023-10-20 10:10:54.448114
2876  2023-10-20 10:10:54.479069
2877  2023-10-20 10:10:54.511910
2878  2023-10-20 10:10:54.543851
2879  2023-10-20 10:10:54.575786
2880  2023-10-20 10:10:54.607655
2881  2023-10-20 10:10:54.639618
2882  2023-10-20 10:10:54.671514
2883  2023-10-20 10:10:54.703447
2884  2023-10-20 10:10:54.735349
2885  2023-10-20 10:10:54.767276
2886  2023-10-20 10:10:54.815131
2887  2023-10-20 10:10:54.847069
2888  2023-10-20 10:10:54.878962
2889  2023-10-20 10:10:54.911897
2890  2023-10-20 10:10:54.943798
2891  2023-10-20 10:10:54.974806
2892  2023-10-20 10:10:55.007729
2893  2023-10-20 10:10:55.039649
2894  2023-10-20 10:10:55.071546
2895  2023-10-20 10:10:55.103482
2896  2023-10-20 10:10:55.135393
2897  2023-10-20 10:10:55.167283
2898  2023-10-20 10:10:55.215162
2899  2023-10-20 10:10:55.247081
2900  2023-10-20 10:10:55.279956
2901  2023-10-20 10:10:55.311872
2902  2023-10-20 10:10:55.343818
2903  2023-10-20 10:10:55.375745
2904  2023-10-20 10:10:55.407681
2905  2023-10-20 10:10:55.439578
2906  2023-10-20 10:10:55.471479
2907  2023-10-20 10:10:55.503406
2908  2023-10-20 10:10:55.535308
2909  2023-10-20 10:10:55.567238
2910  2023-10-20 10:10:55.615109
2911  2023-10-20 10:10:55.647008
2912  2023-10-20 10:10:55.679024
2913  2023-10-20 10:10:55.711898
2914  2023-10-20 10:10:55.742817
2915  2023-10-20 10:10:55.774755
2916  2023-10-20 10:10:55.807706
2917  2023-10-20 10:10:55.839607
2918  2023-10-20 10:10:55.871507
2919  2023-10-20 10:10:55.903395
2920  2023-10-20 10:10:55.935349
2921  2023-10-20 10:10:55.967267
2922  2023-10-20 10:10:56.015139
2923  2023-10-20 10:10:56.047066
2924  2023-10-20 10:10:56.078959
2925  2023-10-20 10:10:56.111855
2926  2023-10-20 10:10:56.143742
2927  2023-10-20 10:10:56.175688
2928  2023-10-20 10:10:56.207572
2929  2023-10-20 10:10:56.239486
2930  2023-10-20 10:10:56.271446
2931  2023-10-20 10:10:56.303383
2932  2023-10-20 10:10:56.335262
2933  2023-10-20 10:10:56.367143
2934  2023-10-20 10:10:56.415048
2935  2023-10-20 10:10:56.446979
2936  2023-10-20 10:10:56.479868
2937  2023-10-20 10:10:56.510883
2938  2023-10-20 10:10:56.542806
2939  2023-10-20 10:10:56.575726
2940  2023-10-20 10:10:56.607651
2941  2023-10-20 10:10:56.639552
2942  2023-10-20 10:10:56.671532
2943  2023-10-20 10:10:56.703496
2944  2023-10-20 10:10:56.735396
2945  2023-10-20 10:10:56.767319
2946  2023-10-20 10:10:56.815185
2947  2023-10-20 10:10:56.847113
2948  2023-10-20 10:10:56.879049
2949  2023-10-20 10:10:56.910927
2950  2023-10-20 10:10:56.943864
2951  2023-10-20 10:10:56.974782
2952  2023-10-20 10:10:57.006746
2953  2023-10-20 10:10:57.039616
2954  2023-10-20 10:10:57.071556
2955  2023-10-20 10:10:57.103484
2956  2023-10-20 10:10:57.135377
2957  2023-10-20 10:10:57.167385
2958  2023-10-20 10:10:57.215204
2959  2023-10-20 10:10:57.247182
2960  2023-10-20 10:10:57.279048
2961  2023-10-20 10:10:57.311006
2962  2023-10-20 10:10:57.342925
2963  2023-10-20 10:10:57.374829
2964  2023-10-20 10:10:57.406752
2965  2023-10-20 10:10:57.439724
2966  2023-10-20 10:10:57.471601
2967  2023-10-20 10:10:57.503515
2968  2023-10-20 10:10:57.535464
2969  2023-10-20 10:10:57.567399
2970  2023-10-20 10:10:57.615259
2971  2023-10-20 10:10:57.647202
2972  2023-10-20 10:10:57.679045
2973  2023-10-20 10:10:57.711287
2974  2023-10-20 10:10:57.743199
2975  2023-10-20 10:10:57.775269
2976  2023-10-20 10:10:57.807199
2977  2023-10-20 10:10:57.839051
2978  2023-10-20 10:10:57.871998
2979  2023-10-20 10:10:57.903875
2980  2023-10-20 10:10:57.935793
2981  2023-10-20 10:10:57.967715
2982  2023-10-20 10:10:58.015486
2983  2023-10-20 10:10:58.047443
2984  2023-10-20 10:10:58.079363
2985  2023-10-20 10:10:58.111265
2986  2023-10-20 10:10:58.143180
2987  2023-10-20 10:10:58.175070
2988  2023-10-20 10:10:58.208004
2989  2023-10-20 10:10:58.239949
2990  2023-10-20 10:10:58.270828
2991  2023-10-20 10:10:58.303714
2992  2023-10-20 10:10:58.335628
2993  2023-10-20 10:10:58.367570
2994  2023-10-20 10:10:58.415556
2995  2023-10-20 10:10:58.447471
2996  2023-10-20 10:10:58.479419
2997  2023-10-20 10:10:58.511330
2998  2023-10-20 10:10:58.543214
2999  2023-10-20 10:10:58.575131
3000  2023-10-20 10:10:58.607110
3001  2023-10-20 10:10:58.639168
3002  2023-10-20 10:10:58.671061
3003  2023-10-20 10:10:58.703008
3004  2023-10-20 10:10:58.734894
3005  2023-10-20 10:10:58.766818
3006  2023-10-20 10:10:58.815724
3007  2023-10-20 10:10:58.847638
3008  2023-10-20 10:10:58.879602
3009  2023-10-20 10:10:58.911518
3010  2023-10-20 10:10:58.943382
3011  2023-10-20 10:10:58.975297
3012  2023-10-20 10:10:59.007211
3013  2023-10-20 10:10:59.039183
3014  2023-10-20 10:10:59.071067
3015  2023-10-20 10:10:59.103954
3016  2023-10-20 10:10:59.135869
3017  2023-10-20 10:10:59.167816
3018  2023-10-20 10:10:59.215654
3019  2023-10-20 10:10:59.247568
3020  2023-10-20 10:10:59.279518
3021  2023-10-20 10:10:59.312466
3022  2023-10-20 10:10:59.343382
3023  2023-10-20 10:10:59.375353
3024  2023-10-20 10:10:59.407284
3025  2023-10-20 10:10:59.439203
3026  2023-10-20 10:10:59.471111
3027  2023-10-20 10:10:59.503107
3028  2023-10-20 10:10:59.534975
3029  2023-10-20 10:10:59.566855
3030  2023-10-20 10:10:59.615869
3031  2023-10-20 10:10:59.647782
3032  2023-10-20 10:10:59.679713
3033  2023-10-20 10:10:59.711626
3034  2023-10-20 10:10:59.743523
3035  2023-10-20 10:10:59.775440
3036  2023-10-20 10:10:59.807368
3037  2023-10-20 10:10:59.839290
3038  2023-10-20 10:10:59.871200
3039  2023-10-20 10:10:59.903091
3040  2023-10-20 10:10:59.934978
3041  2023-10-20 10:10:59.966933
3042  2023-10-20 10:11:00.015761
3043  2023-10-20 10:11:00.046705
3044  2023-10-20 10:11:00.079592
3045  2023-10-20 10:11:00.111507
3046  2023-10-20 10:11:00.143419
3047  2023-10-20 10:11:00.175334
3048  2023-10-20 10:11:00.207281
3049  2023-10-20 10:11:00.239186
3050  2023-10-20 10:11:00.271077
3051  2023-10-20 10:11:00.302992
3052  2023-10-20 10:11:00.334943
3053  2023-10-20 10:11:00.366867
3054  2023-10-20 10:11:00.414718
3055  2023-10-20 10:11:00.447655
3056  2023-10-20 10:11:00.479551
3057  2023-10-20 10:11:00.511471
3058  2023-10-20 10:11:00.543381
3059  2023-10-20 10:11:00.575295
3060  2023-10-20 10:11:00.608179
3061  2023-10-20 10:11:00.640091
3062  2023-10-20 10:11:00.672072
3063  2023-10-20 10:11:00.702992
3064  2023-10-20 10:11:00.735834
3065  2023-10-20 10:11:00.766782
3066  2023-10-20 10:11:00.815735
3067  2023-10-20 10:11:00.847665
3068  2023-10-20 10:11:00.879567
3069  2023-10-20 10:11:00.911478
3070  2023-10-20 10:11:00.943395
3071  2023-10-20 10:11:00.975276
3072  2023-10-20 10:11:01.007226
3073  2023-10-20 10:11:01.039142
3074  2023-10-20 10:11:01.071021
3075  2023-10-20 10:11:01.102970
3076  2023-10-20 10:11:01.134880
3077  2023-10-20 10:11:01.167764
3078  2023-10-20 10:11:01.215632
3079  2023-10-20 10:11:01.247588
3080  2023-10-20 10:11:01.279495
3081  2023-10-20 10:11:01.311410
3082  2023-10-20 10:11:01.343290
3083  2023-10-20 10:11:01.375205
3084  2023-10-20 10:11:01.407129
3085  2023-10-20 10:11:01.439067
3086  2023-10-20 10:11:01.470979
3087  2023-10-20 10:11:01.502897
3088  2023-10-20 10:11:01.534803
3089  2023-10-20 10:11:01.567689
3090  2023-10-20 10:11:01.615417
3091  2023-10-20 10:11:01.647457
3092  2023-10-20 10:11:01.679376
3093  2023-10-20 10:11:01.711273
3094  2023-10-20 10:11:01.743188
3095  2023-10-20 10:11:01.775070
3096  2023-10-20 10:11:01.806984
3097  2023-10-20 10:11:01.839897
3098  2023-10-20 10:11:01.871876
3099  2023-10-20 10:11:01.903726
3100  2023-10-20 10:11:01.935642
3101  2023-10-20 10:11:01.967557
3102  2023-10-20 10:11:02.015483
3103  2023-10-20 10:11:02.047374
3104  2023-10-20 10:11:02.079298
3105  2023-10-20 10:11:02.111220
3106  2023-10-20 10:11:02.143084
3107  2023-10-20 10:11:02.175048
3108  2023-10-20 10:11:02.206978
3109  2023-10-20 10:11:02.239890
3110  2023-10-20 10:11:02.271820
3111  2023-10-20 10:11:02.303779
3112  2023-10-20 10:11:02.335692
3113  2023-10-20 10:11:02.367641
3114  2023-10-20 10:11:02.415479
3115  2023-10-20 10:11:02.447419
3116  2023-10-20 10:11:02.479338
3117  2023-10-20 10:11:02.511252
3118  2023-10-20 10:11:02.543137
3119  2023-10-20 10:11:02.576073
3120  2023-10-20 10:11:02.607996
3121  2023-10-20 10:11:02.638926
3122  2023-10-20 10:11:02.671835
3123  2023-10-20 10:11:02.703739
3124  2023-10-20 10:11:02.735654
3125  2023-10-20 10:11:02.767567
3126  2023-10-20 10:11:02.815408
3127  2023-10-20 10:11:02.847360
3128  2023-10-20 10:11:02.879262
3129  2023-10-20 10:11:02.911188
3130  2023-10-20 10:11:02.943102
3131  2023-10-20 10:11:02.974981
3132  2023-10-20 10:11:03.006927
3133  2023-10-20 10:11:03.038835
3134  2023-10-20 10:11:03.070750
3135  2023-10-20 10:11:03.103676
3136  2023-10-20 10:11:03.135590
3137  2023-10-20 10:11:03.167497
3138  2023-10-20 10:11:03.215369
3139  2023-10-20 10:11:03.247307
3140  2023-10-20 10:11:03.279165
3141  2023-10-20 10:11:03.311080
3142  2023-10-20 10:11:03.342994
3143  2023-10-20 10:11:03.374946
3144  2023-10-20 10:11:03.407822
3145  2023-10-20 10:11:03.439737
3146  2023-10-20 10:11:03.471685
3147  2023-10-20 10:11:03.503591
3148  2023-10-20 10:11:03.535505
3149  2023-10-20 10:11:03.567430
3150  2023-10-20 10:11:03.615291
3151  2023-10-20 10:11:03.647207
3152  2023-10-20 10:11:03.679095
3153  2023-10-20 10:11:03.711046
3154  2023-10-20 10:11:03.743922
3155  2023-10-20 10:11:03.774903
3156  2023-10-20 10:11:03.807779
3157  2023-10-20 10:11:03.839703
3158  2023-10-20 10:11:03.871612
3159  2023-10-20 10:11:03.903524
3160  2023-10-20 10:11:03.935408
3161  2023-10-20 10:11:03.967351
3162  2023-10-20 10:11:04.015296
3163  2023-10-20 10:11:04.047394
3164  2023-10-20 10:11:04.079264
3165  2023-10-20 10:11:04.111175
3166  2023-10-20 10:11:04.143122
3167  2023-10-20 10:11:04.175040
3168  2023-10-20 10:11:04.206919
3169  2023-10-20 10:11:04.238866
3170  2023-10-20 10:11:04.270771
3171  2023-10-20 10:11:04.303692
3172  2023-10-20 10:11:04.335615
3173  2023-10-20 10:11:04.367518
3174  2023-10-20 10:11:04.415391
3175  2023-10-20 10:11:04.447305
3176  2023-10-20 10:11:04.480187
3177  2023-10-20 10:11:04.511101
3178  2023-10-20 10:11:04.544014
3179  2023-10-20 10:11:04.575929
3180  2023-10-20 10:11:04.607847
3181  2023-10-20 10:11:04.639762
3182  2023-10-20 10:11:04.671673
3183  2023-10-20 10:11:04.703587
3184  2023-10-20 10:11:04.735503
3185  2023-10-20 10:11:04.767417
3186  2023-10-20 10:11:04.815288
3187  2023-10-20 10:11:04.848199
3188  2023-10-20 10:11:04.879154
3189  2023-10-20 10:11:04.912077
3190  2023-10-20 10:11:04.943943
3191  2023-10-20 10:11:04.975857
3192  2023-10-20 10:11:05.007820
3193  2023-10-20 10:11:05.039687
3194  2023-10-20 10:11:05.071634
3195  2023-10-20 10:11:05.103515
3196  2023-10-20 10:11:05.135462
3197  2023-10-20 10:11:05.167379
3198  2023-10-20 10:11:05.215243
3199  2023-10-20 10:11:05.247163
3200  2023-10-20 10:11:05.279080
3201  2023-10-20 10:11:05.310990
3202  2023-10-20 10:11:05.342904
3203  2023-10-20 10:11:05.374815
3204  2023-10-20 10:11:05.407726
3205  2023-10-20 10:11:05.439661
3206  2023-10-20 10:11:05.471566
3207  2023-10-20 10:11:05.503479
3208  2023-10-20 10:11:05.535386
3209  2023-10-20 10:11:05.567317
3210  2023-10-20 10:11:05.615178
3211  2023-10-20 10:11:05.647098
3212  2023-10-20 10:11:05.678979
3213  2023-10-20 10:11:05.710923
3214  2023-10-20 10:11:05.743827
3215  2023-10-20 10:11:05.775747
3216  2023-10-20 10:11:05.807629
3217  2023-10-20 10:11:05.839633
3218  2023-10-20 10:11:05.871493
3219  2023-10-20 10:11:05.903404
3220  2023-10-20 10:11:05.935320
3221  2023-10-20 10:11:05.967237
3222  2023-10-20 10:11:06.015074
3223  2023-10-20 10:11:06.049016
3224  2023-10-20 10:11:06.078950
3225  2023-10-20 10:11:06.110903
3226  2023-10-20 10:11:06.143731
3227  2023-10-20 10:11:06.175644
3228  2023-10-20 10:11:06.207599
3229  2023-10-20 10:11:06.239522
3230  2023-10-20 10:11:06.271420
3231  2023-10-20 10:11:06.304336
3232  2023-10-20 10:11:06.336249
3233  2023-10-20 10:11:06.367163
3234  2023-10-20 10:11:06.415053
3235  2023-10-20 10:11:06.446956
3236  2023-10-20 10:11:06.478857
3237  2023-10-20 10:11:06.510772
3238  2023-10-20 10:11:06.544688
3239  2023-10-20 10:11:06.576614
3240  2023-10-20 10:11:06.608524
3241  2023-10-20 10:11:06.639428
3242  2023-10-20 10:11:06.671350
3243  2023-10-20 10:11:06.704253
3244  2023-10-20 10:11:06.735183
3245  2023-10-20 10:11:06.769101
3246  2023-10-20 10:11:06.815962
3247  2023-10-20 10:11:06.847875
3248  2023-10-20 10:11:06.879784
3249  2023-10-20 10:11:06.911718
3250  2023-10-20 10:11:06.944629
3251  2023-10-20 10:11:06.976502
3252  2023-10-20 10:11:07.008450
3253  2023-10-20 10:11:07.039356
3254  2023-10-20 10:11:07.071286
3255  2023-10-20 10:11:07.105203
3256  2023-10-20 10:11:07.135078
3257  2023-10-20 10:11:07.167024
3258  2023-10-20 10:11:07.214866
3259  2023-10-20 10:11:07.247804
3260  2023-10-20 10:11:07.279726
3261  2023-10-20 10:11:07.311652
3262  2023-10-20 10:11:07.343564
3263  2023-10-20 10:11:07.375462
3264  2023-10-20 10:11:07.407371
3265  2023-10-20 10:11:07.439292
3266  2023-10-20 10:11:07.471205
3267  2023-10-20 10:11:07.504122
3268  2023-10-20 10:11:07.537032
3269  2023-10-20 10:11:07.566947
3270  2023-10-20 10:11:07.616821
3271  2023-10-20 10:11:07.647735
3272  2023-10-20 10:11:07.679666
3273  2023-10-20 10:11:07.711579
3274  2023-10-20 10:11:07.744468
3275  2023-10-20 10:11:07.775448
3276  2023-10-20 10:11:07.807326
3277  2023-10-20 10:11:07.839189
3278  2023-10-20 10:11:07.871103
3279  2023-10-20 10:11:07.903051
3280  2023-10-20 10:11:07.935962
3281  2023-10-20 10:11:07.968843
3282  2023-10-20 10:11:08.015752
3283  2023-10-20 10:11:08.048663
3284  2023-10-20 10:11:08.079580
3285  2023-10-20 10:11:08.111460
3286  2023-10-20 10:11:08.143400
3287  2023-10-20 10:11:08.176318
3288  2023-10-20 10:11:08.208245
3289  2023-10-20 10:11:08.240116
3290  2023-10-20 10:11:08.271072
3291  2023-10-20 10:11:08.303026
3292  2023-10-20 10:11:08.334896
3293  2023-10-20 10:11:08.366804
3294  2023-10-20 10:11:08.415647
3295  2023-10-20 10:11:08.448589
3296  2023-10-20 10:11:08.479523
3297  2023-10-20 10:11:08.511422
3298  2023-10-20 10:11:08.543405
3299  2023-10-20 10:11:08.576330
3300  2023-10-20 10:11:08.608312
3301  2023-10-20 10:11:08.640225
3302  2023-10-20 10:11:08.671139
3303  2023-10-20 10:11:08.703054
3304  2023-10-20 10:11:08.736961
3305  2023-10-20 10:11:08.767888
3306  2023-10-20 10:11:08.815748
3307  2023-10-20 10:11:08.847668
3308  2023-10-20 10:11:08.879601
3309  2023-10-20 10:11:08.911505
3310  2023-10-20 10:11:08.943410
3311  2023-10-20 10:11:08.976329
3312  2023-10-20 10:11:09.007242
3313  2023-10-20 10:11:09.039162
3314  2023-10-20 10:11:09.071072
3315  2023-10-20 10:11:09.102987
3316  2023-10-20 10:11:09.135901
3317  2023-10-20 10:11:09.168778
3318  2023-10-20 10:11:09.215653
3319  2023-10-20 10:11:09.248564
3320  2023-10-20 10:11:09.280526
3321  2023-10-20 10:11:09.311397
3322  2023-10-20 10:11:09.343311
3323  2023-10-20 10:11:09.376251
3324  2023-10-20 10:11:09.408164
3325  2023-10-20 10:11:09.440086
3326  2023-10-20 10:11:09.470970
3327  2023-10-20 10:11:09.503882
3328  2023-10-20 10:11:09.535819
3329  2023-10-20 10:11:09.568754
3330  2023-10-20 10:11:09.615611
3331  2023-10-20 10:11:09.648568
3332  2023-10-20 10:11:09.679440
3333  2023-10-20 10:11:09.711347
3334  2023-10-20 10:11:09.743267
3335  2023-10-20 10:11:09.775154
3336  2023-10-20 10:11:09.807096
3337  2023-10-20 10:11:09.840003
3338  2023-10-20 10:11:09.870923
3339  2023-10-20 10:11:09.902860
3340  2023-10-20 10:11:09.936751
3341  2023-10-20 10:11:09.967676
3342  2023-10-20 10:11:10.015508
3343  2023-10-20 10:11:10.048420
3344  2023-10-20 10:11:10.079482
3345  2023-10-20 10:11:10.111461
3346  2023-10-20 10:11:10.143373
3347  2023-10-20 10:11:10.176298
3348  2023-10-20 10:11:10.208210
3349  2023-10-20 10:11:10.240131
3350  2023-10-20 10:11:10.271051
3351  2023-10-20 10:11:10.302979
3352  2023-10-20 10:11:10.335870
3353  2023-10-20 10:11:10.369735
3354  2023-10-20 10:11:10.415612
3355  2023-10-20 10:11:10.447576
3356  2023-10-20 10:11:10.479466
3357  2023-10-20 10:11:10.511386
3358  2023-10-20 10:11:10.543304
3359  2023-10-20 10:11:10.575218
3360  2023-10-20 10:11:10.607127
3361  2023-10-20 10:11:10.639065
3362  2023-10-20 10:11:10.670962
3363  2023-10-20 10:11:10.702895
3364  2023-10-20 10:11:10.735785
3365  2023-10-20 10:11:10.766697
3366  2023-10-20 10:11:10.815594
3367  2023-10-20 10:11:10.847489
3368  2023-10-20 10:11:10.880017
3369  2023-10-20 10:11:10.910969
3370  2023-10-20 10:11:10.943872
3371  2023-10-20 10:11:10.974765
3372  2023-10-20 10:11:11.007722
3373  2023-10-20 10:11:11.039644
3374  2023-10-20 10:11:11.071619
3375  2023-10-20 10:11:11.103531
3376  2023-10-20 10:11:11.136438
3377  2023-10-20 10:11:11.168319
3378  2023-10-20 10:11:11.215220
3379  2023-10-20 10:11:11.247103
3380  2023-10-20 10:11:11.280016
3381  2023-10-20 10:11:11.310933
3382  2023-10-20 10:11:11.342847
3383  2023-10-20 10:11:11.376789
3384  2023-10-20 10:11:11.407674
3385  2023-10-20 10:11:11.439603
3386  2023-10-20 10:11:11.471535
3387  2023-10-20 10:11:11.503416
3388  2023-10-20 10:11:11.536369
3389  2023-10-20 10:11:11.568286
3390  2023-10-20 10:11:11.615251
3391  2023-10-20 10:11:11.647166
3392  2023-10-20 10:11:11.679076
3393  2023-10-20 10:11:11.711015
3394  2023-10-20 10:11:11.742921
3395  2023-10-20 10:11:11.774827
3396  2023-10-20 10:11:11.806744
3397  2023-10-20 10:11:11.839646
3398  2023-10-20 10:11:11.871560
3399  2023-10-20 10:11:11.903496
3400  2023-10-20 10:11:11.935410
3401  2023-10-20 10:11:11.967327
3402  2023-10-20 10:11:12.015199
3403  2023-10-20 10:11:12.047098
3404  2023-10-20 10:11:12.079030
3405  2023-10-20 10:11:12.110944
3406  2023-10-20 10:11:12.142852
3407  2023-10-20 10:11:12.174767
3408  2023-10-20 10:11:12.207665
3409  2023-10-20 10:11:12.240583
3410  2023-10-20 10:11:12.271488
3411  2023-10-20 10:11:12.303401
3412  2023-10-20 10:11:12.336318
3413  2023-10-20 10:11:12.367245
3414  2023-10-20 10:11:12.415112
3415  2023-10-20 10:11:12.448036
3416  2023-10-20 10:11:12.479946
3417  2023-10-20 10:11:12.510856
3418  2023-10-20 10:11:12.542782
3419  2023-10-20 10:11:12.575694
3420  2023-10-20 10:11:12.607607
3421  2023-10-20 10:11:12.639527
3422  2023-10-20 10:11:12.671426
3423  2023-10-20 10:11:12.703352
3424  2023-10-20 10:11:12.737219
3425  2023-10-20 10:11:12.768179
3426  2023-10-20 10:11:12.815062
3427  2023-10-20 10:11:12.846980
3428  2023-10-20 10:11:12.879867
3429  2023-10-20 10:11:12.910780
3430  2023-10-20 10:11:12.942695
3431  2023-10-20 10:11:12.975625
3432  2023-10-20 10:11:13.007541
3433  2023-10-20 10:11:13.039446
3434  2023-10-20 10:11:13.071319
3435  2023-10-20 10:11:13.103278
3436  2023-10-20 10:11:13.136151
3437  2023-10-20 10:11:13.168066
3438  2023-10-20 10:11:13.215934
3439  2023-10-20 10:11:13.247850
3440  2023-10-20 10:11:13.279763
3441  2023-10-20 10:11:13.311678
3442  2023-10-20 10:11:13.343591
3443  2023-10-20 10:11:13.375574
3444  2023-10-20 10:11:13.408532
3445  2023-10-20 10:11:13.439450
3446  2023-10-20 10:11:13.471393
3447  2023-10-20 10:11:13.503318
3448  2023-10-20 10:11:13.535191
3449  2023-10-20 10:11:13.568136
3450  2023-10-20 10:11:13.615046
3451  2023-10-20 10:11:13.647916
3452  2023-10-20 10:11:13.678840
3453  2023-10-20 10:11:13.711745
3454  2023-10-20 10:11:13.743715
3455  2023-10-20 10:11:13.775732
3456  2023-10-20 10:11:13.807645
3457  2023-10-20 10:11:13.839570
3458  2023-10-20 10:11:13.871486
3459  2023-10-20 10:11:13.903356
3460  2023-10-20 10:11:13.935272
3461  2023-10-20 10:11:13.968208
3462  2023-10-20 10:11:14.015090
3463  2023-10-20 10:11:14.047022
3464  2023-10-20 10:11:14.079885
3465  2023-10-20 10:11:14.111799
3466  2023-10-20 10:11:14.142740
3467  2023-10-20 10:11:14.175626
3468  2023-10-20 10:11:14.207599
3469  2023-10-20 10:11:14.239606
3470  2023-10-20 10:11:14.271588
3471  2023-10-20 10:11:14.303466
3472  2023-10-20 10:11:14.335393
3473  2023-10-20 10:11:14.367337
3474  2023-10-20 10:11:14.415142
3475  2023-10-20 10:11:14.448058
3476  2023-10-20 10:11:14.479013
3477  2023-10-20 10:11:14.510946
3478  2023-10-20 10:11:14.542801
3479  2023-10-20 10:11:14.575748
3480  2023-10-20 10:11:14.607664
3481  2023-10-20 10:11:14.639574
3482  2023-10-20 10:11:14.671456
3483  2023-10-20 10:11:14.703371
3484  2023-10-20 10:11:14.735286
3485  2023-10-20 10:11:14.767200
3486  2023-10-20 10:11:14.815107
3487  2023-10-20 10:11:14.847034
3488  2023-10-20 10:11:14.878936
3489  2023-10-20 10:11:14.911838
3490  2023-10-20 10:11:14.943758
3491  2023-10-20 10:11:14.975642
3492  2023-10-20 10:11:15.007597
3493  2023-10-20 10:11:15.039511
3494  2023-10-20 10:11:15.071455
3495  2023-10-20 10:11:15.103374
3496  2023-10-20 10:11:15.135278
3497  2023-10-20 10:11:15.167169
3498  2023-10-20 10:11:15.215041
3499  2023-10-20 10:11:15.246955
3500  2023-10-20 10:11:15.278869
3501  2023-10-20 10:11:15.311783
3502  2023-10-20 10:11:15.342762
3503  2023-10-20 10:11:15.374753
3504  2023-10-20 10:11:15.407698
3505  2023-10-20 10:11:15.439638
3506  2023-10-20 10:11:15.471525
3507  2023-10-20 10:11:15.503441
3508  2023-10-20 10:11:15.535379
3509  2023-10-20 10:11:15.567313
3510  2023-10-20 10:11:15.615173
3511  2023-10-20 10:11:15.647082
3512  2023-10-20 10:11:15.679012
3513  2023-10-20 10:11:15.710923
3514  2023-10-20 10:11:15.743827
3515  2023-10-20 10:11:15.775763
3516  2023-10-20 10:11:15.807679
3517  2023-10-20 10:11:15.839571
3518  2023-10-20 10:11:15.871501
3519  2023-10-20 10:11:15.903369
3520  2023-10-20 10:11:15.935287
3521  2023-10-20 10:11:15.967197
3522  2023-10-20 10:11:16.015068
3523  2023-10-20 10:11:16.047011
3524  2023-10-20 10:11:16.079896
3525  2023-10-20 10:11:16.110840
3526  2023-10-20 10:11:16.142767
3527  2023-10-20 10:11:16.175639
3528  2023-10-20 10:11:16.207596
3529  2023-10-20 10:11:16.240509
3530  2023-10-20 10:11:16.271383
3531  2023-10-20 10:11:16.303298
3532  2023-10-20 10:11:16.335212
3533  2023-10-20 10:11:16.367169
3534  2023-10-20 10:11:16.415030
3535  2023-10-20 10:11:16.446945
3536  2023-10-20 10:11:16.479857
3537  2023-10-20 10:11:16.510768
3538  2023-10-20 10:11:16.542657
3539  2023-10-20 10:11:16.575612
3540  2023-10-20 10:11:16.607531
3541  2023-10-20 10:11:16.639432
3542  2023-10-20 10:11:16.671311
3543  2023-10-20 10:11:16.703226
3544  2023-10-20 10:11:16.735197
3545  2023-10-20 10:11:16.767056
3546  2023-10-20 10:11:16.814927
3547  2023-10-20 10:11:16.846907
3548  2023-10-20 10:11:16.878788
3549  2023-10-20 10:11:16.911721
3550  2023-10-20 10:11:16.943583
3551  2023-10-20 10:11:16.975527
3552  2023-10-20 10:11:17.007476
3553  2023-10-20 10:11:17.039477
3554  2023-10-20 10:11:17.071275
3555  2023-10-20 10:11:17.103189
3556  2023-10-20 10:11:17.135140
3557  2023-10-20 10:11:17.167017
3558  2023-10-20 10:11:17.214889
3559  2023-10-20 10:11:17.247801
3560  2023-10-20 10:11:17.279807
3561  2023-10-20 10:11:17.311694
