
1  2023-11-09 10:35:23.966482
2  2023-11-09 10:35:24.014309
3  2023-11-09 10:35:24.062221
4  2023-11-09 10:35:24.094133
5  2023-11-09 10:35:24.141967
6  2023-11-09 10:35:24.189881
7  2023-11-09 10:35:24.221754
8  2023-11-09 10:35:24.270623
9  2023-11-09 10:35:24.301671
10  2023-11-09 10:35:24.349449
11  2023-11-09 10:35:24.397284
12  2023-11-09 10:35:24.429199
13  2023-11-09 10:35:24.477071
14  2023-11-09 10:35:24.508987
15  2023-11-09 10:35:24.556895
16  2023-11-09 10:35:24.604731
17  2023-11-09 10:35:24.636645
18  2023-11-09 10:35:24.684516
19  2023-11-09 10:35:24.716432
20  2023-11-09 10:35:24.764303
21  2023-11-09 10:35:24.811210
22  2023-11-09 10:35:24.842127
23  2023-11-09 10:35:24.890012
24  2023-11-09 10:35:24.937873
25  2023-11-09 10:35:24.969795
26  2023-11-09 10:35:25.014666
27  2023-11-09 10:35:25.061551
28  2023-11-09 10:35:25.092427
29  2023-11-09 10:35:25.138304
30  2023-11-09 10:35:25.184218
31  2023-11-09 10:35:25.216099
32  2023-11-09 10:35:25.261990
33  2023-11-09 10:35:25.308855
34  2023-11-09 10:35:25.355753
35  2023-11-09 10:35:25.386672
36  2023-11-09 10:35:25.434512
37  2023-11-09 10:35:25.466437
38  2023-11-09 10:35:25.514342
39  2023-11-09 10:35:25.562182
40  2023-11-09 10:35:25.594085
41  2023-11-09 10:35:25.642002
42  2023-11-09 10:35:25.689860
43  2023-11-09 10:35:25.721775
44  2023-11-09 10:35:25.769654
45  2023-11-09 10:35:25.801564
46  2023-11-09 10:35:25.849431
47  2023-11-09 10:35:25.896314
48  2023-11-09 10:35:25.928233
49  2023-11-09 10:35:25.976097
50  2023-11-09 10:35:26.008014
51  2023-11-09 10:35:26.055888
52  2023-11-09 10:35:26.103760
53  2023-11-09 10:35:26.134670
54  2023-11-09 10:35:26.182512
55  2023-11-09 10:35:26.230419
56  2023-11-09 10:35:26.262328
57  2023-11-09 10:35:26.307179
58  2023-11-09 10:35:26.354094
59  2023-11-09 10:35:26.386127
60  2023-11-09 10:35:26.433840
61  2023-11-09 10:35:26.480748
62  2023-11-09 10:35:26.512630
63  2023-11-09 10:35:26.560538
64  2023-11-09 10:35:26.592446
65  2023-11-09 10:35:26.640289
66  2023-11-09 10:35:26.688161
67  2023-11-09 10:35:26.720075
68  2023-11-09 10:35:26.767374
69  2023-11-09 10:35:26.799309
70  2023-11-09 10:35:26.847199
71  2023-11-09 10:35:26.895032
72  2023-11-09 10:35:26.926974
73  2023-11-09 10:35:26.974920
74  2023-11-09 10:35:27.022785
75  2023-11-09 10:35:27.054848
76  2023-11-09 10:35:27.102574
77  2023-11-09 10:35:27.134487
78  2023-11-09 10:35:27.182358
79  2023-11-09 10:35:27.230231
80  2023-11-09 10:35:27.262184
81  2023-11-09 10:35:27.310017
82  2023-11-09 10:35:27.355896
83  2023-11-09 10:35:27.388006
84  2023-11-09 10:35:27.435682
85  2023-11-09 10:35:27.467596
86  2023-11-09 10:35:27.515468
87  2023-11-09 10:35:27.563340
88  2023-11-09 10:35:27.595290
89  2023-11-09 10:35:27.643148
90  2023-11-09 10:35:27.675042
91  2023-11-09 10:35:27.722914
92  2023-11-09 10:35:27.770785
93  2023-11-09 10:35:27.802700
94  2023-11-09 10:35:27.850575
95  2023-11-09 10:35:27.897488
96  2023-11-09 10:35:27.928402
97  2023-11-09 10:35:27.976274
98  2023-11-09 10:35:28.008183
99  2023-11-09 10:35:28.056102
100  2023-11-09 10:35:28.103974
101  2023-11-09 10:35:28.135889
102  2023-11-09 10:35:28.183633
103  2023-11-09 10:35:28.231502
104  2023-11-09 10:35:28.263420
105  2023-11-09 10:35:28.311292
106  2023-11-09 10:35:28.342177
107  2023-11-09 10:35:28.390081
108  2023-11-09 10:35:28.434960
109  2023-11-09 10:35:28.480855
110  2023-11-09 10:35:28.512770
111  2023-11-09 10:35:28.560687
112  2023-11-09 10:35:28.592601
113  2023-11-09 10:35:28.640512
114  2023-11-09 10:35:28.687776
115  2023-11-09 10:35:28.717769
116  2023-11-09 10:35:28.766634
117  2023-11-09 10:35:28.813477
118  2023-11-09 10:35:28.845392
119  2023-11-09 10:35:28.893264
120  2023-11-09 10:35:28.925033
121  2023-11-09 10:35:28.972903
122  2023-11-09 10:35:29.020819
123  2023-11-09 10:35:29.052721
124  2023-11-09 10:35:29.100567
125  2023-11-09 10:35:29.147442
126  2023-11-09 10:35:29.179356
127  2023-11-09 10:35:29.227229
128  2023-11-09 10:35:29.259143
129  2023-11-09 10:35:29.307016
130  2023-11-09 10:35:29.352892
131  2023-11-09 10:35:29.384807
132  2023-11-09 10:35:29.432687
133  2023-11-09 10:35:29.480551
134  2023-11-09 10:35:29.512466
135  2023-11-09 10:35:29.560154
136  2023-11-09 10:35:29.592060
137  2023-11-09 10:35:29.639933
138  2023-11-09 10:35:29.687809
139  2023-11-09 10:35:29.719722
140  2023-11-09 10:35:29.767603
141  2023-11-09 10:35:29.799514
142  2023-11-09 10:35:29.847361
143  2023-11-09 10:35:29.895250
144  2023-11-09 10:35:29.927213
145  2023-11-09 10:35:29.975084
146  2023-11-09 10:35:30.022928
147  2023-11-09 10:35:30.053875
148  2023-11-09 10:35:30.100750
149  2023-11-09 10:35:30.132664
150  2023-11-09 10:35:30.180212
151  2023-11-09 10:35:30.228085
152  2023-11-09 10:35:30.258999
153  2023-11-09 10:35:30.305881
154  2023-11-09 10:35:30.352127
155  2023-11-09 10:35:30.384013
156  2023-11-09 10:35:30.431886
157  2023-11-09 10:35:30.478490
158  2023-11-09 10:35:30.509983
159  2023-11-09 10:35:30.557854
160  2023-11-09 10:35:30.604805
161  2023-11-09 10:35:30.635722
162  2023-11-09 10:35:30.683593
163  2023-11-09 10:35:30.731466
164  2023-11-09 10:35:30.763380
165  2023-11-09 10:35:30.811252
166  2023-11-09 10:35:30.843203
167  2023-11-09 10:35:30.890078
168  2023-11-09 10:35:30.937949
169  2023-11-09 10:35:30.969920
170  2023-11-09 10:35:31.017736
171  2023-11-09 10:35:31.049692
172  2023-11-09 10:35:31.098520
173  2023-11-09 10:35:31.145395
174  2023-11-09 10:35:31.177369
175  2023-11-09 10:35:31.225370
176  2023-11-09 10:35:31.272245
177  2023-11-09 10:35:31.303162
178  2023-11-09 10:35:31.351034
179  2023-11-09 10:35:31.382949
180  2023-11-09 10:35:31.430821
181  2023-11-09 10:35:31.478693
182  2023-11-09 10:35:31.510757
183  2023-11-09 10:35:31.558480
184  2023-11-09 10:35:31.604357
185  2023-11-09 10:35:31.636272
186  2023-11-09 10:35:31.682189
187  2023-11-09 10:35:31.730021
188  2023-11-09 10:35:31.761936
189  2023-11-09 10:35:31.808854
190  2023-11-09 10:35:31.855685
191  2023-11-09 10:35:31.886644
192  2023-11-09 10:35:31.934522
193  2023-11-09 10:35:31.966425
194  2023-11-09 10:35:32.014312
195  2023-11-09 10:35:32.062133
196  2023-11-09 10:35:32.094048
197  2023-11-09 10:35:32.140924
198  2023-11-09 10:35:32.187839
199  2023-11-09 10:35:32.219747
200  2023-11-09 10:35:32.267620
201  2023-11-09 10:35:32.299536
202  2023-11-09 10:35:32.347404
203  2023-11-09 10:35:32.395243
204  2023-11-09 10:35:32.427292
205  2023-11-09 10:35:32.474205
206  2023-11-09 10:35:32.522071
207  2023-11-09 10:35:32.554090
208  2023-11-09 10:35:32.601993
209  2023-11-09 10:35:32.633916
210  2023-11-09 10:35:32.681790
211  2023-11-09 10:35:32.729654
212  2023-11-09 10:35:32.760571
213  2023-11-09 10:35:32.807412
214  2023-11-09 10:35:32.855285
215  2023-11-09 10:35:32.887263
216  2023-11-09 10:35:32.935233
217  2023-11-09 10:35:32.967115
218  2023-11-09 10:35:33.015026
219  2023-11-09 10:35:33.062862
220  2023-11-09 10:35:33.094809
221  2023-11-09 10:35:33.142649
222  2023-11-09 10:35:33.174742
223  2023-11-09 10:35:33.222603
224  2023-11-09 10:35:33.270439
225  2023-11-09 10:35:33.300357
226  2023-11-09 10:35:33.348272
227  2023-11-09 10:35:33.396101
228  2023-11-09 10:35:33.428016
229  2023-11-09 10:35:33.473926
230  2023-11-09 10:35:33.520768
231  2023-11-09 10:35:33.552683
232  2023-11-09 10:35:33.600555
233  2023-11-09 10:35:33.647461
234  2023-11-09 10:35:33.678383
235  2023-11-09 10:35:33.726310
236  2023-11-09 10:35:33.758313
237  2023-11-09 10:35:33.804226
238  2023-11-09 10:35:33.852061
239  2023-11-09 10:35:33.887967
240  2023-11-09 10:35:33.931848
241  2023-11-09 10:35:33.979762
242  2023-11-09 10:35:34.011670
243  2023-11-09 10:35:34.059540
244  2023-11-09 10:35:34.091591
245  2023-11-09 10:35:34.138432
246  2023-11-09 10:35:34.184363
247  2023-11-09 10:35:34.216253
248  2023-11-09 10:35:34.264255
249  2023-11-09 10:35:34.312121
250  2023-11-09 10:35:34.344035
251  2023-11-09 10:35:34.391872
252  2023-11-09 10:35:34.439780
253  2023-11-09 10:35:34.471695
254  2023-11-09 10:35:34.519573
255  2023-11-09 10:35:34.551480
256  2023-11-09 10:35:34.598322
257  2023-11-09 10:35:34.645196
258  2023-11-09 10:35:34.677110
259  2023-11-09 10:35:34.724982
260  2023-11-09 10:35:34.773003
261  2023-11-09 10:35:34.804116
262  2023-11-09 10:35:34.850024
263  2023-11-09 10:35:34.897865
264  2023-11-09 10:35:34.929780
265  2023-11-09 10:35:34.977497
266  2023-11-09 10:35:35.009381
267  2023-11-09 10:35:35.057322
268  2023-11-09 10:35:35.105228
269  2023-11-09 10:35:35.137143
270  2023-11-09 10:35:35.185013
271  2023-11-09 10:35:35.216895
272  2023-11-09 10:35:35.264768
273  2023-11-09 10:35:35.312680
274  2023-11-09 10:35:35.344587
275  2023-11-09 10:35:35.392426
276  2023-11-09 10:35:35.424341
277  2023-11-09 10:35:35.471269
278  2023-11-09 10:35:35.518090
279  2023-11-09 10:35:35.550005
280  2023-11-09 10:35:35.597877
281  2023-11-09 10:35:35.645782
282  2023-11-09 10:35:35.677699
283  2023-11-09 10:35:35.724538
284  2023-11-09 10:35:35.771415
285  2023-11-09 10:35:35.802331
286  2023-11-09 10:35:35.849239
287  2023-11-09 10:35:35.897077
288  2023-11-09 10:35:35.928994
289  2023-11-09 10:35:35.975906
290  2023-11-09 10:35:36.007816
291  2023-11-09 10:35:36.055695
292  2023-11-09 10:35:36.103567
293  2023-11-09 10:35:36.135473
294  2023-11-09 10:35:36.183381
295  2023-11-09 10:35:36.231218
296  2023-11-09 10:35:36.263138
297  2023-11-09 10:35:36.311021
298  2023-11-09 10:35:36.342926
299  2023-11-09 10:35:36.390796
300  2023-11-09 10:35:36.438661
301  2023-11-09 10:35:36.470583
302  2023-11-09 10:35:36.518457
303  2023-11-09 10:35:36.550363
304  2023-11-09 10:35:36.598238
305  2023-11-09 10:35:36.646112
306  2023-11-09 10:35:36.678022
307  2023-11-09 10:35:36.725861
308  2023-11-09 10:35:36.757776
309  2023-11-09 10:35:36.805648
310  2023-11-09 10:35:36.853555
311  2023-11-09 10:35:36.885467
312  2023-11-09 10:35:36.933347
313  2023-11-09 10:35:36.981285
314  2023-11-09 10:35:37.013224
315  2023-11-09 10:35:37.061075
316  2023-11-09 10:35:37.092990
317  2023-11-09 10:35:37.140877
318  2023-11-09 10:35:37.188737
319  2023-11-09 10:35:37.220655
320  2023-11-09 10:35:37.268521
321  2023-11-09 10:35:37.300405
322  2023-11-09 10:35:37.348307
323  2023-11-09 10:35:37.394335
324  2023-11-09 10:35:37.426284
325  2023-11-09 10:35:37.472200
326  2023-11-09 10:35:37.520033
327  2023-11-09 10:35:37.551948
328  2023-11-09 10:35:37.599857
329  2023-11-09 10:35:37.647725
330  2023-11-09 10:35:37.679637
331  2023-11-09 10:35:37.727478
332  2023-11-09 10:35:37.759336
333  2023-11-09 10:35:37.807243
334  2023-11-09 10:35:37.855080
335  2023-11-09 10:35:37.886995
336  2023-11-09 10:35:37.933911
337  2023-11-09 10:35:37.980790
338  2023-11-09 10:35:38.011704
339  2023-11-09 10:35:38.059534
340  2023-11-09 10:35:38.091448
341  2023-11-09 10:35:38.139321
342  2023-11-09 10:35:38.187192
343  2023-11-09 10:35:38.219190
344  2023-11-09 10:35:38.267102
345  2023-11-09 10:35:38.313937
346  2023-11-09 10:35:38.344890
347  2023-11-09 10:35:38.392762
348  2023-11-09 10:35:38.424673
349  2023-11-09 10:35:38.472547
350  2023-11-09 10:35:38.520420
351  2023-11-09 10:35:38.552331
352  2023-11-09 10:35:38.600208
353  2023-11-09 10:35:38.648077
354  2023-11-09 10:35:38.679988
355  2023-11-09 10:35:38.727941
356  2023-11-09 10:35:38.759780
357  2023-11-09 10:35:38.807651
358  2023-11-09 10:35:38.855522
359  2023-11-09 10:35:38.887439
360  2023-11-09 10:35:38.942257
361  2023-11-09 10:35:38.967224
362  2023-11-09 10:35:39.013143
363  2023-11-09 10:35:39.060978
364  2023-11-09 10:35:39.092893
365  2023-11-09 10:35:39.140762
366  2023-11-09 10:35:39.188632
367  2023-11-09 10:35:39.220548
368  2023-11-09 10:35:39.268385
369  2023-11-09 10:35:39.300334
370  2023-11-09 10:35:39.348211
371  2023-11-09 10:35:39.396078
372  2023-11-09 10:35:39.427991
373  2023-11-09 10:35:39.473871
374  2023-11-09 10:35:39.520711
375  2023-11-09 10:35:39.552626
376  2023-11-09 10:35:39.600497
377  2023-11-09 10:35:39.647261
378  2023-11-09 10:35:39.679250
379  2023-11-09 10:35:39.727089
380  2023-11-09 10:35:39.759133
381  2023-11-09 10:35:39.806909
382  2023-11-09 10:35:39.853751
383  2023-11-09 10:35:39.884668
384  2023-11-09 10:35:39.932540
385  2023-11-09 10:35:39.980443
386  2023-11-09 10:35:40.012364
387  2023-11-09 10:35:40.060199
388  2023-11-09 10:35:40.091116
389  2023-11-09 10:35:40.137991
390  2023-11-09 10:35:40.185996
391  2023-11-09 10:35:40.217777
392  2023-11-09 10:35:40.265650
393  2023-11-09 10:35:40.313521
394  2023-11-09 10:35:40.345436
395  2023-11-09 10:35:40.392311
396  2023-11-09 10:35:40.439219
397  2023-11-09 10:35:40.471100
398  2023-11-09 10:35:40.519006
399  2023-11-09 10:35:40.550932
400  2023-11-09 10:35:40.598792
401  2023-11-09 10:35:40.646667
402  2023-11-09 10:35:40.678578
403  2023-11-09 10:35:40.726452
404  2023-11-09 10:35:40.758367
405  2023-11-09 10:35:40.805246
406  2023-11-09 10:35:40.852113
407  2023-11-09 10:35:40.884032
408  2023-11-09 10:35:40.931902
409  2023-11-09 10:35:40.977787
410  2023-11-09 10:35:41.009697
411  2023-11-09 10:35:41.057533
412  2023-11-09 10:35:41.104458
413  2023-11-09 10:35:41.136355
414  2023-11-09 10:35:41.184226
415  2023-11-09 10:35:41.216109
416  2023-11-09 10:35:41.263980
417  2023-11-09 10:35:41.311896
418  2023-11-09 10:35:41.343810
419  2023-11-09 10:35:41.391639
420  2023-11-09 10:35:41.438554
421  2023-11-09 10:35:41.470464
422  2023-11-09 10:35:41.518300
423  2023-11-09 10:35:41.550264
424  2023-11-09 10:35:41.598088
425  2023-11-09 10:35:41.645995
426  2023-11-09 10:35:41.677908
427  2023-11-09 10:35:41.725746
428  2023-11-09 10:35:41.757661
429  2023-11-09 10:35:41.804536
430  2023-11-09 10:35:41.851410
431  2023-11-09 10:35:41.897287
432  2023-11-09 10:35:41.929202
433  2023-11-09 10:35:41.977074
434  2023-11-09 10:35:42.008989
435  2023-11-09 10:35:42.056861
436  2023-11-09 10:35:42.104733
437  2023-11-09 10:35:42.136647
438  2023-11-09 10:35:42.182525
439  2023-11-09 10:35:42.230397
440  2023-11-09 10:35:42.260351
441  2023-11-09 10:35:42.306229
442  2023-11-09 10:35:42.354100
443  2023-11-09 10:35:42.386011
444  2023-11-09 10:35:42.433887
445  2023-11-09 10:35:42.480761
446  2023-11-09 10:35:42.511683
447  2023-11-09 10:35:42.559517
448  2023-11-09 10:35:42.591432
449  2023-11-09 10:35:42.639343
450  2023-11-09 10:35:42.687175
451  2023-11-09 10:35:42.719121
452  2023-11-09 10:35:42.766994
453  2023-11-09 10:35:42.814834
454  2023-11-09 10:35:42.845788
455  2023-11-09 10:35:42.892626
456  2023-11-09 10:35:42.924541
457  2023-11-09 10:35:42.971416
458  2023-11-09 10:35:43.019330
459  2023-11-09 10:35:43.051248
460  2023-11-09 10:35:43.099120
461  2023-11-09 10:35:43.147024
462  2023-11-09 10:35:43.178907
463  2023-11-09 10:35:43.226778
464  2023-11-09 10:35:43.258693
465  2023-11-09 10:35:43.306627
466  2023-11-09 10:35:43.354439
467  2023-11-09 10:35:43.384359
468  2023-11-09 10:35:43.431233
469  2023-11-09 10:35:43.478203
470  2023-11-09 10:35:43.510150
471  2023-11-09 10:35:43.557067
472  2023-11-09 10:35:43.604036
473  2023-11-09 10:35:43.635946
474  2023-11-09 10:35:43.683820
475  2023-11-09 10:35:43.729708
476  2023-11-09 10:35:43.761621
477  2023-11-09 10:35:43.809606
478  2023-11-09 10:35:43.841487
479  2023-11-09 10:35:43.889482
480  2023-11-09 10:35:43.937349
481  2023-11-09 10:35:43.969231
482  2023-11-09 10:35:44.017137
483  2023-11-09 10:35:44.063979
484  2023-11-09 10:35:44.095893
485  2023-11-09 10:35:44.143834
486  2023-11-09 10:35:44.175719
487  2023-11-09 10:35:44.223611
488  2023-11-09 10:35:44.271443
489  2023-11-09 10:35:44.303443
490  2023-11-09 10:35:44.349321
491  2023-11-09 10:35:44.397193
492  2023-11-09 10:35:44.429119
493  2023-11-09 10:35:44.476979
494  2023-11-09 10:35:44.508894
495  2023-11-09 10:35:44.556766
496  2023-11-09 10:35:44.604673
497  2023-11-09 10:35:44.636589
498  2023-11-09 10:35:44.684566
499  2023-11-09 10:35:44.716489
500  2023-11-09 10:35:44.764361
501  2023-11-09 10:35:44.812431
502  2023-11-09 10:35:44.844377
503  2023-11-09 10:35:44.892246
504  2023-11-09 10:35:44.939090
505  2023-11-09 10:35:44.970007
506  2023-11-09 10:35:45.017879
507  2023-11-09 10:35:45.049794
508  2023-11-09 10:35:45.097779
509  2023-11-09 10:35:45.145767
510  2023-11-09 10:35:45.177690
511  2023-11-09 10:35:45.225549
512  2023-11-09 10:35:45.271426
513  2023-11-09 10:35:45.303341
514  2023-11-09 10:35:45.349261
515  2023-11-09 10:35:45.397132
516  2023-11-09 10:35:45.429047
517  2023-11-09 10:35:45.476985
518  2023-11-09 10:35:45.508901
519  2023-11-09 10:35:45.554787
520  2023-11-09 10:35:45.602733
521  2023-11-09 10:35:45.634650
522  2023-11-09 10:35:45.682518
523  2023-11-09 10:35:45.730359
524  2023-11-09 10:35:45.762306
525  2023-11-09 10:35:45.809184
526  2023-11-09 10:35:45.856023
527  2023-11-09 10:35:45.887972
528  2023-11-09 10:35:45.935861
529  2023-11-09 10:35:45.967766
530  2023-11-09 10:35:46.014601
531  2023-11-09 10:35:46.062503
532  2023-11-09 10:35:46.093559
533  2023-11-09 10:35:46.140421
534  2023-11-09 10:35:46.187644
535  2023-11-09 10:35:46.219599
536  2023-11-09 10:35:46.267538
537  2023-11-09 10:35:46.313415
538  2023-11-09 10:35:46.345330
539  2023-11-09 10:35:46.393202
540  2023-11-09 10:35:46.425117
541  2023-11-09 10:35:46.472998
542  2023-11-09 10:35:46.520861
543  2023-11-09 10:35:46.552775
544  2023-11-09 10:35:46.600647
545  2023-11-09 10:35:46.647649
546  2023-11-09 10:35:46.678558
547  2023-11-09 10:35:46.726430
548  2023-11-09 10:35:46.772307
549  2023-11-09 10:35:46.804222
550  2023-11-09 10:35:46.852094
551  2023-11-09 10:35:46.883042
552  2023-11-09 10:35:46.929924
553  2023-11-09 10:35:46.977299
554  2023-11-09 10:35:47.008207
555  2023-11-09 10:35:47.055171
556  2023-11-09 10:35:47.103051
557  2023-11-09 10:35:47.134973
558  2023-11-09 10:35:47.181021
559  2023-11-09 10:35:47.229841
560  2023-11-09 10:35:47.260757
561  2023-11-09 10:35:47.308662
562  2023-11-09 10:35:47.356500
563  2023-11-09 10:35:47.388414
564  2023-11-09 10:35:47.436287
565  2023-11-09 10:35:47.468202
566  2023-11-09 10:35:47.516073
567  2023-11-09 10:35:47.563984
568  2023-11-09 10:35:47.594807
569  2023-11-09 10:35:47.642679
570  2023-11-09 10:35:47.688556
571  2023-11-09 10:35:47.720471
572  2023-11-09 10:35:47.766348
573  2023-11-09 10:35:47.814220
574  2023-11-09 10:35:47.846135
575  2023-11-09 10:35:47.894007
576  2023-11-09 10:35:47.925922
577  2023-11-09 10:35:47.971837
578  2023-11-09 10:35:48.018018
579  2023-11-09 10:35:48.049997
580  2023-11-09 10:35:48.096060
581  2023-11-09 10:35:48.144060
582  2023-11-09 10:35:48.175958
583  2023-11-09 10:35:48.223834
584  2023-11-09 10:35:48.270068
585  2023-11-09 10:35:48.302022
586  2023-11-09 10:35:48.349853
587  2023-11-09 10:35:48.397765
588  2023-11-09 10:35:48.429672
589  2023-11-09 10:35:48.477512
590  2023-11-09 10:35:48.509427
591  2023-11-09 10:35:48.557410
592  2023-11-09 10:35:48.605251
593  2023-11-09 10:35:48.637196
594  2023-11-09 10:35:48.685068
595  2023-11-09 10:35:48.716951
596  2023-11-09 10:35:48.764855
597  2023-11-09 10:35:48.812756
598  2023-11-09 10:35:48.845667
599  2023-11-09 10:35:48.891485
600  2023-11-09 10:35:48.938358
601  2023-11-09 10:35:48.971272
602  2023-11-09 10:35:49.018150
603  2023-11-09 10:35:49.050065
604  2023-11-09 10:35:49.097932
605  2023-11-09 10:35:49.144806
606  2023-11-09 10:35:49.174726
607  2023-11-09 10:35:49.221601
608  2023-11-09 10:35:49.269473
609  2023-11-09 10:35:49.301388
610  2023-11-09 10:35:49.349260
611  2023-11-09 10:35:49.397132
612  2023-11-09 10:35:49.429046
613  2023-11-09 10:35:49.476540
614  2023-11-09 10:35:49.508490
615  2023-11-09 10:35:49.554453
616  2023-11-09 10:35:49.602305
617  2023-11-09 10:35:49.633126
618  2023-11-09 10:35:49.680984
619  2023-11-09 10:35:49.728947
620  2023-11-09 10:35:49.760824
621  2023-11-09 10:35:49.808736
622  2023-11-09 10:35:49.856429
623  2023-11-09 10:35:49.888432
624  2023-11-09 10:35:49.936396
625  2023-11-09 10:35:49.968387
626  2023-11-09 10:35:50.016287
627  2023-11-09 10:35:50.064275
628  2023-11-09 10:35:50.096267
629  2023-11-09 10:35:50.144144
630  2023-11-09 10:35:50.176070
631  2023-11-09 10:35:50.223925
632  2023-11-09 10:35:50.271890
633  2023-11-09 10:35:50.303802
634  2023-11-09 10:35:50.351764
635  2023-11-09 10:35:50.383654
636  2023-11-09 10:35:50.431518
637  2023-11-09 10:35:50.479394
638  2023-11-09 10:35:50.511308
639  2023-11-09 10:35:50.559189
640  2023-11-09 10:35:50.591179
641  2023-11-09 10:35:50.639091
642  2023-11-09 10:35:50.684963
643  2023-11-09 10:35:50.716949
644  2023-11-09 10:35:50.764488
645  2023-11-09 10:35:50.812337
646  2023-11-09 10:35:50.844266
647  2023-11-09 10:35:50.892159
648  2023-11-09 10:35:50.939163
649  2023-11-09 10:35:50.970028
650  2023-11-09 10:35:51.017899
651  2023-11-09 10:35:51.063777
652  2023-11-09 10:35:51.095691
653  2023-11-09 10:35:51.143701
654  2023-11-09 10:35:51.175616
655  2023-11-09 10:35:51.221502
656  2023-11-09 10:35:51.269468
657  2023-11-09 10:35:51.301383
658  2023-11-09 10:35:51.349289
659  2023-11-09 10:35:51.397127
660  2023-11-09 10:35:51.429042
661  2023-11-09 10:35:51.474952
662  2023-11-09 10:35:51.522826
663  2023-11-09 10:35:51.554741
664  2023-11-09 10:35:51.602618
665  2023-11-09 10:35:51.647480
666  2023-11-09 10:35:51.679484
667  2023-11-09 10:35:51.727352
668  2023-11-09 10:35:51.758268
669  2023-11-09 10:35:51.804146
670  2023-11-09 10:35:51.852023
671  2023-11-09 10:35:51.883902
672  2023-11-09 10:35:51.931825
673  2023-11-09 10:35:51.979792
674  2023-11-09 10:35:52.011711
675  2023-11-09 10:35:52.059585
676  2023-11-09 10:35:52.091624
677  2023-11-09 10:35:52.139613
678  2023-11-09 10:35:52.187441
679  2023-11-09 10:35:52.219395
680  2023-11-09 10:35:52.265543
681  2023-11-09 10:35:52.314608
682  2023-11-09 10:35:52.345476
683  2023-11-09 10:35:52.393328
684  2023-11-09 10:35:52.425285
685  2023-11-09 10:35:52.473152
686  2023-11-09 10:35:52.520994
687  2023-11-09 10:35:52.552900
688  2023-11-09 10:35:52.600774
689  2023-11-09 10:35:52.632688
690  2023-11-09 10:35:52.680558
691  2023-11-09 10:35:52.728432
692  2023-11-09 10:35:52.761387
693  2023-11-09 10:35:52.808217
694  2023-11-09 10:35:52.856216
695  2023-11-09 10:35:52.888138
696  2023-11-09 10:35:52.935001
697  2023-11-09 10:35:52.965918
698  2023-11-09 10:35:53.013790
699  2023-11-09 10:35:53.061662
700  2023-11-09 10:35:53.093577
701  2023-11-09 10:35:53.141575
702  2023-11-09 10:35:53.189483
703  2023-11-09 10:35:53.221398
704  2023-11-09 10:35:53.269270
705  2023-11-09 10:35:53.301184
706  2023-11-09 10:35:53.349057
707  2023-11-09 10:35:53.396928
708  2023-11-09 10:35:53.428843
709  2023-11-09 10:35:53.476770
710  2023-11-09 10:35:53.508630
711  2023-11-09 10:35:53.556591
712  2023-11-09 10:35:53.602697
713  2023-11-09 10:35:53.633598
714  2023-11-09 10:35:53.680481
715  2023-11-09 10:35:53.727431
716  2023-11-09 10:35:53.759380
717  2023-11-09 10:35:53.807258
718  2023-11-09 10:35:53.854128
719  2023-11-09 10:35:53.885182
720  2023-11-09 10:35:53.933173
721  2023-11-09 10:35:53.980042
722  2023-11-09 10:35:54.010991
723  2023-11-09 10:35:54.058831
724  2023-11-09 10:35:54.090906
725  2023-11-09 10:35:54.138857
726  2023-11-09 10:35:54.184773
727  2023-11-09 10:35:54.230735
728  2023-11-09 10:35:54.262650
729  2023-11-09 10:35:54.309445
730  2023-11-09 10:35:54.341416
731  2023-11-09 10:35:54.389288
732  2023-11-09 10:35:54.437284
733  2023-11-09 10:35:54.469198
734  2023-11-09 10:35:54.517036
735  2023-11-09 10:35:54.564572
736  2023-11-09 10:35:54.596542
737  2023-11-09 10:35:54.642456
738  2023-11-09 10:35:54.674367
739  2023-11-09 10:35:54.722236
740  2023-11-09 10:35:54.770112
741  2023-11-09 10:35:54.802055
742  2023-11-09 10:35:54.850106
743  2023-11-09 10:35:54.897935
744  2023-11-09 10:35:54.929850
745  2023-11-09 10:35:54.977764
746  2023-11-09 10:35:55.009671
747  2023-11-09 10:35:55.057533
748  2023-11-09 10:35:55.105413
749  2023-11-09 10:35:55.137327
750  2023-11-09 10:35:55.185284
751  2023-11-09 10:35:55.217199
752  2023-11-09 10:35:55.265036
753  2023-11-09 10:35:55.312938
754  2023-11-09 10:35:55.344861
755  2023-11-09 10:35:55.392695
756  2023-11-09 10:35:55.424655
757  2023-11-09 10:35:55.472526
758  2023-11-09 10:35:55.520392
759  2023-11-09 10:35:55.552298
760  2023-11-09 10:35:55.599571
761  2023-11-09 10:35:55.647403
762  2023-11-09 10:35:55.679396
763  2023-11-09 10:35:55.727238
764  2023-11-09 10:35:55.759153
765  2023-11-09 10:35:55.807061
766  2023-11-09 10:35:55.854930
767  2023-11-09 10:35:55.885850
768  2023-11-09 10:35:55.932730
769  2023-11-09 10:35:55.979564
770  2023-11-09 10:35:56.011513
771  2023-11-09 10:35:56.058353
772  2023-11-09 10:35:56.106264
773  2023-11-09 10:35:56.138140
774  2023-11-09 10:35:56.185050
775  2023-11-09 10:35:56.216929
776  2023-11-09 10:35:56.263837
777  2023-11-09 10:35:56.311710
778  2023-11-09 10:35:56.343628
779  2023-11-09 10:35:56.389467
780  2023-11-09 10:35:56.437339
781  2023-11-09 10:35:56.469254
782  2023-11-09 10:35:56.517126
783  2023-11-09 10:35:56.564001
784  2023-11-09 10:35:56.594918
785  2023-11-09 10:35:56.640831
786  2023-11-09 10:35:56.688447
787  2023-11-09 10:35:56.720192
788  2023-11-09 10:35:56.768114
789  2023-11-09 10:35:56.800025
790  2023-11-09 10:35:56.848071
791  2023-11-09 10:35:56.895911
792  2023-11-09 10:35:56.927826
793  2023-11-09 10:35:56.975731
794  2023-11-09 10:35:57.007648
795  2023-11-09 10:35:57.055515
796  2023-11-09 10:35:57.103387
797  2023-11-09 10:35:57.135302
798  2023-11-09 10:35:57.183143
799  2023-11-09 10:35:57.231056
800  2023-11-09 10:35:57.262054
801  2023-11-09 10:35:57.308808
802  2023-11-09 10:35:57.355715
803  2023-11-09 10:35:57.387641
804  2023-11-09 10:35:57.435504
805  2023-11-09 10:35:57.467446
806  2023-11-09 10:35:57.515291
807  2023-11-09 10:35:57.564126
808  2023-11-09 10:35:57.594088
809  2023-11-09 10:35:57.640950
810  2023-11-09 10:35:57.686832
811  2023-11-09 10:35:57.717747
812  2023-11-09 10:35:57.765587
813  2023-11-09 10:35:57.813525
814  2023-11-09 10:35:57.845583
815  2023-11-09 10:35:57.893440
816  2023-11-09 10:35:57.925354
817  2023-11-09 10:35:57.971228
818  2023-11-09 10:35:58.018110
819  2023-11-09 10:35:58.063951
820  2023-11-09 10:35:58.095865
821  2023-11-09 10:35:58.143785
822  2023-11-09 10:35:58.175686
823  2023-11-09 10:35:58.223336
824  2023-11-09 10:35:58.271281
825  2023-11-09 10:35:58.302384
826  2023-11-09 10:35:58.349335
827  2023-11-09 10:35:58.397258
828  2023-11-09 10:35:58.429187
829  2023-11-09 10:35:58.477060
830  2023-11-09 10:35:58.508959
831  2023-11-09 10:35:58.555867
832  2023-11-09 10:35:58.602743
833  2023-11-09 10:35:58.634656
834  2023-11-09 10:35:58.682536
835  2023-11-09 10:35:58.730408
836  2023-11-09 10:35:58.762282
837  2023-11-09 10:35:58.810207
838  2023-11-09 10:35:58.842096
839  2023-11-09 10:35:58.888978
840  2023-11-09 10:35:58.935854
841  2023-11-09 10:35:58.967733
842  2023-11-09 10:35:59.014710
843  2023-11-09 10:35:59.061583
844  2023-11-09 10:35:59.093587
845  2023-11-09 10:35:59.141398
846  2023-11-09 10:35:59.189242
847  2023-11-09 10:35:59.219163
848  2023-11-09 10:35:59.267002
849  2023-11-09 10:35:59.314004
850  2023-11-09 10:35:59.345833
851  2023-11-09 10:35:59.393663
852  2023-11-09 10:35:59.424986
853  2023-11-09 10:35:59.473099
854  2023-11-09 10:35:59.520968
855  2023-11-09 10:35:59.552884
856  2023-11-09 10:35:59.600757
857  2023-11-09 10:35:59.632671
858  2023-11-09 10:35:59.680548
859  2023-11-09 10:35:59.727385
860  2023-11-09 10:35:59.759300
861  2023-11-09 10:35:59.807203
862  2023-11-09 10:35:59.855074
863  2023-11-09 10:35:59.886995
864  2023-11-09 10:35:59.934868
865  2023-11-09 10:35:59.966783
866  2023-11-09 10:36:00.013655
867  2023-11-09 10:36:00.060495
868  2023-11-09 10:36:00.092409
869  2023-11-09 10:36:00.140314
870  2023-11-09 10:36:00.187193
871  2023-11-09 10:36:00.218074
872  2023-11-09 10:36:00.264982
873  2023-11-09 10:36:00.311859
874  2023-11-09 10:36:00.343771
875  2023-11-09 10:36:00.390643
876  2023-11-09 10:36:00.437518
877  2023-11-09 10:36:00.469402
878  2023-11-09 10:36:00.517306
879  2023-11-09 10:36:00.549232
880  2023-11-09 10:36:00.597092
881  2023-11-09 10:36:00.644964
882  2023-11-09 10:36:00.676880
883  2023-11-09 10:36:00.724752
884  2023-11-09 10:36:00.770636
885  2023-11-09 10:36:00.802550
886  2023-11-09 10:36:00.850416
887  2023-11-09 10:36:00.897258
888  2023-11-09 10:36:00.929305
889  2023-11-09 10:36:00.975090
890  2023-11-09 10:36:01.022922
891  2023-11-09 10:36:01.054871
892  2023-11-09 10:36:01.102741
893  2023-11-09 10:36:01.134656
894  2023-11-09 10:36:01.182526
895  2023-11-09 10:36:01.230398
896  2023-11-09 10:36:01.262282
897  2023-11-09 10:36:01.310154
898  2023-11-09 10:36:01.341106
899  2023-11-09 10:36:01.387978
900  2023-11-09 10:36:01.435819
901  2023-11-09 10:36:01.467766
902  2023-11-09 10:36:01.515605
903  2023-11-09 10:36:01.563510
904  2023-11-09 10:36:01.595392
905  2023-11-09 10:36:01.643287
906  2023-11-09 10:36:01.689174
907  2023-11-09 10:36:01.721090
908  2023-11-09 10:36:01.768029
909  2023-11-09 10:36:01.813907
910  2023-11-09 10:36:01.844897
911  2023-11-09 10:36:01.892769
912  2023-11-09 10:36:01.938647
913  2023-11-09 10:36:01.970553
914  2023-11-09 10:36:02.018433
915  2023-11-09 10:36:02.050348
916  2023-11-09 10:36:02.098189
917  2023-11-09 10:36:02.145093
918  2023-11-09 10:36:02.176014
919  2023-11-09 10:36:02.223912
920  2023-11-09 10:36:02.269765
921  2023-11-09 10:36:02.301682
922  2023-11-09 10:36:02.349548
923  2023-11-09 10:36:02.397423
924  2023-11-09 10:36:02.429356
925  2023-11-09 10:36:02.477211
926  2023-11-09 10:36:02.509089
927  2023-11-09 10:36:02.557092
928  2023-11-09 10:36:02.604933
929  2023-11-09 10:36:02.636847
930  2023-11-09 10:36:02.684752
931  2023-11-09 10:36:02.730596
932  2023-11-09 10:36:02.762511
933  2023-11-09 10:36:02.810383
934  2023-11-09 10:36:02.842297
935  2023-11-09 10:36:02.888208
936  2023-11-09 10:36:02.934085
937  2023-11-09 10:36:02.979963
938  2023-11-09 10:36:03.010880
939  2023-11-09 10:36:03.056762
940  2023-11-09 10:36:03.103634
941  2023-11-09 10:36:03.135545
942  2023-11-09 10:36:03.183481
943  2023-11-09 10:36:03.231351
944  2023-11-09 10:36:03.263233
945  2023-11-09 10:36:03.311136
946  2023-11-09 10:36:03.343060
947  2023-11-09 10:36:03.390924
948  2023-11-09 10:36:03.438797
949  2023-11-09 10:36:03.470715
950  2023-11-09 10:36:03.518581
951  2023-11-09 10:36:03.550497
952  2023-11-09 10:36:03.597341
953  2023-11-09 10:36:03.644247
954  2023-11-09 10:36:03.676130
955  2023-11-09 10:36:03.724002
956  2023-11-09 10:36:03.769879
957  2023-11-09 10:36:03.801794
958  2023-11-09 10:36:03.849676
959  2023-11-09 10:36:03.897538
960  2023-11-09 10:36:03.929452
961  2023-11-09 10:36:03.977325
962  2023-11-09 10:36:04.009239
963  2023-11-09 10:36:04.056144
964  2023-11-09 10:36:04.102988
965  2023-11-09 10:36:04.134939
966  2023-11-09 10:36:04.182807
967  2023-11-09 10:36:04.229688
968  2023-11-09 10:36:04.260598
969  2023-11-09 10:36:04.308471
970  2023-11-09 10:36:04.356344
971  2023-11-09 10:36:04.388258
972  2023-11-09 10:36:04.436130
973  2023-11-09 10:36:04.468014
974  2023-11-09 10:36:04.515927
975  2023-11-09 10:36:04.563789
976  2023-11-09 10:36:04.595706
977  2023-11-09 10:36:04.643574
978  2023-11-09 10:36:04.675490
979  2023-11-09 10:36:04.723366
980  2023-11-09 10:36:04.770710
981  2023-11-09 10:36:04.802688
982  2023-11-09 10:36:04.850555
983  2023-11-09 10:36:04.896433
984  2023-11-09 10:36:04.928346
985  2023-11-09 10:36:04.976219
986  2023-11-09 10:36:05.023093
987  2023-11-09 10:36:05.054012
988  2023-11-09 10:36:05.101897
989  2023-11-09 10:36:05.133807
990  2023-11-09 10:36:05.181671
991  2023-11-09 10:36:05.229547
992  2023-11-09 10:36:05.261424
993  2023-11-09 10:36:05.309329
994  2023-11-09 10:36:05.341213
995  2023-11-09 10:36:05.389216
996  2023-11-09 10:36:05.437089
997  2023-11-09 10:36:05.468999
998  2023-11-09 10:36:05.516828
999  2023-11-09 10:36:05.564700
1000  2023-11-09 10:36:05.596656
1001  2023-11-09 10:36:05.643523
1002  2023-11-09 10:36:05.674534
1003  2023-11-09 10:36:05.720410
1004  2023-11-09 10:36:05.768373
1005  2023-11-09 10:36:05.800288
1006  2023-11-09 10:36:05.848162
1007  2023-11-09 10:36:05.896032
1008  2023-11-09 10:36:05.927947
1009  2023-11-09 10:36:05.975819
1010  2023-11-09 10:36:06.007739
1011  2023-11-09 10:36:06.055606
1012  2023-11-09 10:36:06.103477
1013  2023-11-09 10:36:06.135392
1014  2023-11-09 10:36:06.181304
1015  2023-11-09 10:36:06.229172
1016  2023-11-09 10:36:06.260092
1017  2023-11-09 10:36:06.306967
1018  2023-11-09 10:36:06.354063
1019  2023-11-09 10:36:06.384954
1020  2023-11-09 10:36:06.432961
1021  2023-11-09 10:36:06.480838
1022  2023-11-09 10:36:06.512888
1023  2023-11-09 10:36:06.560606
1024  2023-11-09 10:36:06.592531
1025  2023-11-09 10:36:06.640413
1026  2023-11-09 10:36:06.688275
1027  2023-11-09 10:36:06.719192
1028  2023-11-09 10:36:06.766274
1029  2023-11-09 10:36:06.814220
1030  2023-11-09 10:36:06.846168
1031  2023-11-09 10:36:06.894007
1032  2023-11-09 10:36:06.925986
1033  2023-11-09 10:36:06.972945
1034  2023-11-09 10:36:07.019852
1035  2023-11-09 10:36:07.051766
1036  2023-11-09 10:36:07.099605
1037  2023-11-09 10:36:07.147596
1038  2023-11-09 10:36:07.178513
1039  2023-11-09 10:36:07.225390
1040  2023-11-09 10:36:07.271393
1041  2023-11-09 10:36:07.303180
1042  2023-11-09 10:36:07.350091
1043  2023-11-09 10:36:07.396968
1044  2023-11-09 10:36:07.428930
1045  2023-11-09 10:36:07.476823
1046  2023-11-09 10:36:07.508738
1047  2023-11-09 10:36:07.556686
1048  2023-11-09 10:36:07.604474
1049  2023-11-09 10:36:07.636389
1050  2023-11-09 10:36:07.684405
1051  2023-11-09 10:36:07.716335
1052  2023-11-09 10:36:07.764275
1053  2023-11-09 10:36:07.812142
1054  2023-11-09 10:36:07.843034
1055  2023-11-09 10:36:07.888942
1056  2023-11-09 10:36:07.936908
1057  2023-11-09 10:36:07.968822
1058  2023-11-09 10:36:08.016696
1059  2023-11-09 10:36:08.064566
1060  2023-11-09 10:36:08.096443
1061  2023-11-09 10:36:08.144342
1062  2023-11-09 10:36:08.176262
1063  2023-11-09 10:36:08.222143
1064  2023-11-09 10:36:08.269981
1065  2023-11-09 10:36:08.302940
1066  2023-11-09 10:36:08.350790
1067  2023-11-09 10:36:08.395700
1068  2023-11-09 10:36:08.427732
1069  2023-11-09 10:36:08.475655
1070  2023-11-09 10:36:08.522481
1071  2023-11-09 10:36:08.553396
1072  2023-11-09 10:36:08.600271
1073  2023-11-09 10:36:08.647278
1074  2023-11-09 10:36:08.679060
1075  2023-11-09 10:36:08.726932
1076  2023-11-09 10:36:08.758847
1077  2023-11-09 10:36:08.806817
1078  2023-11-09 10:36:08.854773
1079  2023-11-09 10:36:08.886688
1080  2023-11-09 10:36:08.934559
1081  2023-11-09 10:36:08.980488
1082  2023-11-09 10:36:09.012384
1083  2023-11-09 10:36:09.060225
1084  2023-11-09 10:36:09.092170
1085  2023-11-09 10:36:09.140049
1086  2023-11-09 10:36:09.187915
1087  2023-11-09 10:36:09.219829
1088  2023-11-09 10:36:09.267703
1089  2023-11-09 10:36:09.299617
1090  2023-11-09 10:36:09.347489
1091  2023-11-09 10:36:09.395361
1092  2023-11-09 10:36:09.427303
1093  2023-11-09 10:36:09.474150
1094  2023-11-09 10:36:09.522098
1095  2023-11-09 10:36:09.554094
1096  2023-11-09 10:36:09.602130
1097  2023-11-09 10:36:09.633885
1098  2023-11-09 10:36:09.680756
1099  2023-11-09 10:36:09.727726
1100  2023-11-09 10:36:09.759635
1101  2023-11-09 10:36:09.806593
1102  2023-11-09 10:36:09.854430
1103  2023-11-09 10:36:09.885391
1104  2023-11-09 10:36:09.933256
1105  2023-11-09 10:36:09.981109
1106  2023-11-09 10:36:10.013051
1107  2023-11-09 10:36:10.060878
1108  2023-11-09 10:36:10.092833
1109  2023-11-09 10:36:10.139679
1110  2023-11-09 10:36:10.186542
1111  2023-11-09 10:36:10.218608
1112  2023-11-09 10:36:10.265467
1113  2023-11-09 10:36:10.313339
1114  2023-11-09 10:36:10.345253
1115  2023-11-09 10:36:10.393125
1116  2023-11-09 10:36:10.425040
1117  2023-11-09 10:36:10.470917
1118  2023-11-09 10:36:10.516795
1119  2023-11-09 10:36:10.564667
1120  2023-11-09 10:36:10.596111
1121  2023-11-09 10:36:10.643030
1122  2023-11-09 10:36:10.674709
1123  2023-11-09 10:36:10.722627
1124  2023-11-09 10:36:10.768786
1125  2023-11-09 10:36:10.800799
1126  2023-11-09 10:36:10.846566
1127  2023-11-09 10:36:10.892438
1128  2023-11-09 10:36:10.924322
1129  2023-11-09 10:36:10.972205
1130  2023-11-09 10:36:11.018215
1131  2023-11-09 10:36:11.050136
1132  2023-11-09 10:36:11.098001
1133  2023-11-09 10:36:11.146872
1134  2023-11-09 10:36:11.177788
1135  2023-11-09 10:36:11.225660
1136  2023-11-09 10:36:11.257575
1137  2023-11-09 10:36:11.305447
1138  2023-11-09 10:36:11.351324
1139  2023-11-09 10:36:11.383239
1140  2023-11-09 10:36:11.431248
1141  2023-11-09 10:36:11.478983
1142  2023-11-09 10:36:11.510897
1143  2023-11-09 10:36:11.558769
1144  2023-11-09 10:36:11.605909
1145  2023-11-09 10:36:11.637257
1146  2023-11-09 10:36:11.685178
1147  2023-11-09 10:36:11.717093
1148  2023-11-09 10:36:11.764548
1149  2023-11-09 10:36:11.812370
1150  2023-11-09 10:36:11.844288
1151  2023-11-09 10:36:11.892243
1152  2023-11-09 10:36:11.924211
1153  2023-11-09 10:36:11.971143
1154  2023-11-09 10:36:12.018022
1155  2023-11-09 10:36:12.050010
1156  2023-11-09 10:36:12.097884
1157  2023-11-09 10:36:12.145748
1158  2023-11-09 10:36:12.176676
1159  2023-11-09 10:36:12.223557
1160  2023-11-09 10:36:12.271429
1161  2023-11-09 10:36:12.303326
1162  2023-11-09 10:36:12.351202
1163  2023-11-09 10:36:12.383123
1164  2023-11-09 10:36:12.430982
1165  2023-11-09 10:36:12.476979
1166  2023-11-09 10:36:12.509019
1167  2023-11-09 10:36:12.556893
1168  2023-11-09 10:36:12.604763
1169  2023-11-09 10:36:12.636673
1170  2023-11-09 10:36:12.684555
1171  2023-11-09 10:36:12.731611
1172  2023-11-09 10:36:12.763349
1173  2023-11-09 10:36:12.810328
1174  2023-11-09 10:36:12.840896
1175  2023-11-09 10:36:12.887805
1176  2023-11-09 10:36:12.935677
1177  2023-11-09 10:36:12.966595
1178  2023-11-09 10:36:13.013509
1179  2023-11-09 10:36:13.060344
1180  2023-11-09 10:36:13.091314
1181  2023-11-09 10:36:13.139170
1182  2023-11-09 10:36:13.187153
1183  2023-11-09 10:36:13.219061
1184  2023-11-09 10:36:13.267065
1185  2023-11-09 10:36:13.314023
1186  2023-11-09 10:36:13.344933
1187  2023-11-09 10:36:13.391802
1188  2023-11-09 10:36:13.438691
1189  2023-11-09 10:36:13.470593
1190  2023-11-09 10:36:13.518468
1191  2023-11-09 10:36:13.550347
1192  2023-11-09 10:36:13.598220
1193  2023-11-09 10:36:13.646128
1194  2023-11-09 10:36:13.678043
1195  2023-11-09 10:36:13.725915
1196  2023-11-09 10:36:13.771793
1197  2023-11-09 10:36:13.804700
1198  2023-11-09 10:36:13.850593
1199  2023-11-09 10:36:13.897419
1200  2023-11-09 10:36:13.929334
1201  2023-11-09 10:36:13.976208
1202  2023-11-09 10:36:14.023083
1203  2023-11-09 10:36:14.054997
1204  2023-11-09 10:36:14.101064
1205  2023-11-09 10:36:14.132979
1206  2023-11-09 10:36:14.180035
1207  2023-11-09 10:36:14.226361
1208  2023-11-09 10:36:14.258309
1209  2023-11-09 10:36:14.304261
1210  2023-11-09 10:36:14.352202
1211  2023-11-09 10:36:14.398071
1212  2023-11-09 10:36:14.429983
1213  2023-11-09 10:36:14.475826
1214  2023-11-09 10:36:14.523747
1215  2023-11-09 10:36:14.554617
1216  2023-11-09 10:36:14.603655
1217  2023-11-09 10:36:14.634666
1218  2023-11-09 10:36:14.683553
1219  2023-11-09 10:36:14.731410
1220  2023-11-09 10:36:14.761295
1221  2023-11-09 10:36:14.810225
1222  2023-11-09 10:36:14.842157
1223  2023-11-09 10:36:14.888882
1224  2023-11-09 10:36:14.937799
1225  2023-11-09 10:36:14.969714
1226  2023-11-09 10:36:15.016541
1227  2023-11-09 10:36:15.065411
1228  2023-11-09 10:36:15.096329
1229  2023-11-09 10:36:15.144328
1230  2023-11-09 10:36:15.176242
1231  2023-11-09 10:36:15.224230
1232  2023-11-09 10:36:15.272102
1233  2023-11-09 10:36:15.304017
1234  2023-11-09 10:36:15.352011
1235  2023-11-09 10:36:15.383926
1236  2023-11-09 10:36:15.431977
1237  2023-11-09 10:36:15.479862
1238  2023-11-09 10:36:15.511776
1239  2023-11-09 10:36:15.559649
1240  2023-11-09 10:36:15.591563
1241  2023-11-09 10:36:15.639499
1242  2023-11-09 10:36:15.687427
1243  2023-11-09 10:36:15.719477
1244  2023-11-09 10:36:15.767349
1245  2023-11-09 10:36:15.799263
1246  2023-11-09 10:36:15.847136
1247  2023-11-09 10:36:15.893014
1248  2023-11-09 10:36:15.924928
1249  2023-11-09 10:36:15.971840
1250  2023-11-09 10:36:16.017720
1251  2023-11-09 10:36:16.049598
1252  2023-11-09 10:36:16.097398
1253  2023-11-09 10:36:16.145348
1254  2023-11-09 10:36:16.177149
1255  2023-11-09 10:36:16.224716
1256  2023-11-09 10:36:16.272814
1257  2023-11-09 10:36:16.304719
1258  2023-11-09 10:36:16.351967
1259  2023-11-09 10:36:16.383879
1260  2023-11-09 10:36:16.431750
1261  2023-11-09 10:36:16.478729
1262  2023-11-09 10:36:16.509634
1263  2023-11-09 10:36:16.557502
1264  2023-11-09 10:36:16.605339
1265  2023-11-09 10:36:16.637283
1266  2023-11-09 10:36:16.685140
1267  2023-11-09 10:36:16.717041
1268  2023-11-09 10:36:16.762947
1269  2023-11-09 10:36:16.810832
1270  2023-11-09 10:36:16.842739
1271  2023-11-09 10:36:16.890612
1272  2023-11-09 10:36:16.938448
1273  2023-11-09 10:36:16.970395
1274  2023-11-09 10:36:17.018276
1275  2023-11-09 10:36:17.050207
1276  2023-11-09 10:36:17.097151
1277  2023-11-09 10:36:17.144896
1278  2023-11-09 10:36:17.176811
1279  2023-11-09 10:36:17.224683
1280  2023-11-09 10:36:17.273587
1281  2023-11-09 10:36:17.304469
1282  2023-11-09 10:36:17.352404
1283  2023-11-09 10:36:17.384370
1284  2023-11-09 10:36:17.432246
1285  2023-11-09 10:36:17.479072
1286  2023-11-09 10:36:17.510736
1287  2023-11-09 10:36:17.557611
1288  2023-11-09 10:36:17.603552
1289  2023-11-09 10:36:17.634502
1290  2023-11-09 10:36:17.682377
1291  2023-11-09 10:36:17.730259
1292  2023-11-09 10:36:17.762321
1293  2023-11-09 10:36:17.809238
1294  2023-11-09 10:36:17.856184
1295  2023-11-09 10:36:17.888180
1296  2023-11-09 10:36:17.936045
1297  2023-11-09 10:36:17.967961
1298  2023-11-09 10:36:18.015806
1299  2023-11-09 10:36:18.063707
1300  2023-11-09 10:36:18.095624
1301  2023-11-09 10:36:18.143279
1302  2023-11-09 10:36:18.175186
1303  2023-11-09 10:36:18.223060
1304  2023-11-09 10:36:18.270937
1305  2023-11-09 10:36:18.302844
1306  2023-11-09 10:36:18.350897
1307  2023-11-09 10:36:18.382850
1308  2023-11-09 10:36:18.430690
1309  2023-11-09 10:36:18.478559
1310  2023-11-09 10:36:18.509442
1311  2023-11-09 10:36:18.556352
1312  2023-11-09 10:36:18.604228
1313  2023-11-09 10:36:18.635138
1314  2023-11-09 10:36:18.683022
1315  2023-11-09 10:36:18.729898
1316  2023-11-09 10:36:18.761800
1317  2023-11-09 10:36:18.809771
1318  2023-11-09 10:36:18.841818
1319  2023-11-09 10:36:18.889700
1320  2023-11-09 10:36:18.937431
1321  2023-11-09 10:36:18.969346
1322  2023-11-09 10:36:19.017252
1323  2023-11-09 10:36:19.064128
1324  2023-11-09 10:36:19.095043
1325  2023-11-09 10:36:19.140887
1326  2023-11-09 10:36:19.187762
1327  2023-11-09 10:36:19.219676
1328  2023-11-09 10:36:19.267549
1329  2023-11-09 10:36:19.299463
1330  2023-11-09 10:36:19.347367
1331  2023-11-09 10:36:19.395207
1332  2023-11-09 10:36:19.427210
1333  2023-11-09 10:36:19.475076
1334  2023-11-09 10:36:19.522920
1335  2023-11-09 10:36:19.554989
1336  2023-11-09 10:36:19.601818
1337  2023-11-09 10:36:19.632723
1338  2023-11-09 10:36:19.678602
1339  2023-11-09 10:36:19.724480
1340  2023-11-09 10:36:19.771320
1341  2023-11-09 10:36:19.803273
1342  2023-11-09 10:36:19.851144
1343  2023-11-09 10:36:19.883022
1344  2023-11-09 10:36:19.930893
1345  2023-11-09 10:36:19.978801
1346  2023-11-09 10:36:20.010714
1347  2023-11-09 10:36:20.058552
1348  2023-11-09 10:36:20.106456
1349  2023-11-09 10:36:20.138372
1350  2023-11-09 10:36:20.186246
1351  2023-11-09 10:36:20.219128
1352  2023-11-09 10:36:20.266036
1353  2023-11-09 10:36:20.313904
1354  2023-11-09 10:36:20.345820
1355  2023-11-09 10:36:20.393692
1356  2023-11-09 10:36:20.425614
1357  2023-11-09 10:36:20.472490
1358  2023-11-09 10:36:20.520410
1359  2023-11-09 10:36:20.552412
1360  2023-11-09 10:36:20.600285
1361  2023-11-09 10:36:20.647159
1362  2023-11-09 10:36:20.679074
1363  2023-11-09 10:36:20.726943
1364  2023-11-09 10:36:20.757862
1365  2023-11-09 10:36:20.805882
1366  2023-11-09 10:36:20.851725
1367  2023-11-09 10:36:20.882672
1368  2023-11-09 10:36:20.930694
1369  2023-11-09 10:36:20.978420
1370  2023-11-09 10:36:21.009336
1371  2023-11-09 10:36:21.056214
1372  2023-11-09 10:36:21.104082
1373  2023-11-09 10:36:21.136003
1374  2023-11-09 10:36:21.183837
1375  2023-11-09 10:36:21.230776
1376  2023-11-09 10:36:21.261664
1377  2023-11-09 10:36:21.309503
1378  2023-11-09 10:36:21.341418
1379  2023-11-09 10:36:21.389329
1380  2023-11-09 10:36:21.437197
1381  2023-11-09 10:36:21.469095
1382  2023-11-09 10:36:21.516995
1383  2023-11-09 10:36:21.563863
1384  2023-11-09 10:36:21.595771
1385  2023-11-09 10:36:21.641647
1386  2023-11-09 10:36:21.689519
1387  2023-11-09 10:36:21.720435
1388  2023-11-09 10:36:21.767308
1389  2023-11-09 10:36:21.799223
1390  2023-11-09 10:36:21.847096
1391  2023-11-09 10:36:21.894982
1392  2023-11-09 10:36:21.926851
1393  2023-11-09 10:36:21.974754
1394  2023-11-09 10:36:22.022630
1395  2023-11-09 10:36:22.054543
1396  2023-11-09 10:36:22.102438
1397  2023-11-09 10:36:22.134331
1398  2023-11-09 10:36:22.182208
1399  2023-11-09 10:36:22.230074
1400  2023-11-09 10:36:22.261987
1401  2023-11-09 10:36:22.308865
1402  2023-11-09 10:36:22.354738
1403  2023-11-09 10:36:22.386622
1404  2023-11-09 10:36:22.434525
1405  2023-11-09 10:36:22.466442
1406  2023-11-09 10:36:22.514312
1407  2023-11-09 10:36:22.562184
1408  2023-11-09 10:36:22.592104
1409  2023-11-09 10:36:22.639975
1410  2023-11-09 10:36:22.687849
1411  2023-11-09 10:36:22.719765
1412  2023-11-09 10:36:22.767635
1413  2023-11-09 10:36:22.799553
1414  2023-11-09 10:36:22.847390
1415  2023-11-09 10:36:22.895296
1416  2023-11-09 10:36:22.927211
1417  2023-11-09 10:36:22.975080
1418  2023-11-09 10:36:23.022960
1419  2023-11-09 10:36:23.054870
1420  2023-11-09 10:36:23.102740
1421  2023-11-09 10:36:23.133658
1422  2023-11-09 10:36:23.180500
1423  2023-11-09 10:36:23.228407
1424  2023-11-09 10:36:23.260319
1425  2023-11-09 10:36:23.308191
1426  2023-11-09 10:36:23.356065
1427  2023-11-09 10:36:23.387981
1428  2023-11-09 10:36:23.435853
1429  2023-11-09 10:36:23.467770
1430  2023-11-09 10:36:23.515605
1431  2023-11-09 10:36:23.563476
1432  2023-11-09 10:36:23.595438
1433  2023-11-09 10:36:23.643346
1434  2023-11-09 10:36:23.675230
1435  2023-11-09 10:36:23.723089
1436  2023-11-09 10:36:23.770921
1437  2023-11-09 10:36:23.802836
1438  2023-11-09 10:36:23.850755
1439  2023-11-09 10:36:23.882622
1440  2023-11-09 10:36:23.930495
1441  2023-11-09 10:36:23.976406
1442  2023-11-09 10:36:24.008317
1443  2023-11-09 10:36:24.056198
1444  2023-11-09 10:36:24.104064
1445  2023-11-09 10:36:24.135976
1446  2023-11-09 10:36:24.183854
1447  2023-11-09 10:36:24.229756
1448  2023-11-09 10:36:24.261639
1449  2023-11-09 10:36:24.307549
1450  2023-11-09 10:36:24.352430
1451  2023-11-09 10:36:24.384482
1452  2023-11-09 10:36:24.431387
1453  2023-11-09 10:36:24.478265
1454  2023-11-09 10:36:24.509191
1455  2023-11-09 10:36:24.556055
1456  2023-11-09 10:36:24.602899
1457  2023-11-09 10:36:24.634813
1458  2023-11-09 10:36:24.681688
1459  2023-11-09 10:36:24.729593
1460  2023-11-09 10:36:24.760477
1461  2023-11-09 10:36:24.807384
1462  2023-11-09 10:36:24.855261
1463  2023-11-09 10:36:24.887172
1464  2023-11-09 10:36:24.933051
1465  2023-11-09 10:36:24.980919
1466  2023-11-09 10:36:25.012833
1467  2023-11-09 10:36:25.060707
1468  2023-11-09 10:36:25.092622
1469  2023-11-09 10:36:25.140498
1470  2023-11-09 10:36:25.187372
1471  2023-11-09 10:36:25.218254
1472  2023-11-09 10:36:25.267061
1473  2023-11-09 10:36:25.314947
1474  2023-11-09 10:36:25.346865
1475  2023-11-09 10:36:25.393731
1476  2023-11-09 10:36:25.426645
1477  2023-11-09 10:36:25.473519
1478  2023-11-09 10:36:25.521389
1479  2023-11-09 10:36:25.553272
1480  2023-11-09 10:36:25.601178
1481  2023-11-09 10:36:25.633090
1482  2023-11-09 10:36:25.680965
1483  2023-11-09 10:36:25.728837
1484  2023-11-09 10:36:25.760751
1485  2023-11-09 10:36:25.808622
1486  2023-11-09 10:36:25.855501
1487  2023-11-09 10:36:25.885429
1488  2023-11-09 10:36:25.932292
1489  2023-11-09 10:36:25.980131
1490  2023-11-09 10:36:26.011050
1491  2023-11-09 10:36:26.058953
1492  2023-11-09 10:36:26.105829
1493  2023-11-09 10:36:26.136748
1494  2023-11-09 10:36:26.184618
1495  2023-11-09 10:36:26.216531
1496  2023-11-09 10:36:26.264408
1497  2023-11-09 10:36:26.312287
1498  2023-11-09 10:36:26.344189
1499  2023-11-09 10:36:26.392066
1500  2023-11-09 10:36:26.438935
1501  2023-11-09 10:36:26.469854
1502  2023-11-09 10:36:26.517727
1503  2023-11-09 10:36:26.549650
1504  2023-11-09 10:36:26.597513
1505  2023-11-09 10:36:26.645385
1506  2023-11-09 10:36:26.677300
1507  2023-11-09 10:36:26.725172
1508  2023-11-09 10:36:26.773013
1509  2023-11-09 10:36:26.804968
1510  2023-11-09 10:36:26.852948
1511  2023-11-09 10:36:26.883058
1512  2023-11-09 10:36:26.930011
1513  2023-11-09 10:36:26.977890
1514  2023-11-09 10:36:27.009796
1515  2023-11-09 10:36:27.057670
1516  2023-11-09 10:36:27.104548
1517  2023-11-09 10:36:27.137623
1518  2023-11-09 10:36:27.185496
1519  2023-11-09 10:36:27.217417
1520  2023-11-09 10:36:27.264391
1521  2023-11-09 10:36:27.312183
1522  2023-11-09 10:36:27.344071
1523  2023-11-09 10:36:27.391946
1524  2023-11-09 10:36:27.438822
1525  2023-11-09 10:36:27.469765
1526  2023-11-09 10:36:27.517577
1527  2023-11-09 10:36:27.549492
1528  2023-11-09 10:36:27.595402
1529  2023-11-09 10:36:27.643241
1530  2023-11-09 10:36:27.675155
1531  2023-11-09 10:36:27.723029
1532  2023-11-09 10:36:27.771927
1533  2023-11-09 10:36:27.802814
1534  2023-11-09 10:36:27.850695
1535  2023-11-09 10:36:27.882602
1536  2023-11-09 10:36:27.930474
1537  2023-11-09 10:36:27.978345
1538  2023-11-09 10:36:28.010259
1539  2023-11-09 10:36:28.058141
1540  2023-11-09 10:36:28.105006
1541  2023-11-09 10:36:28.135954
1542  2023-11-09 10:36:28.183796
1543  2023-11-09 10:36:28.230705
1544  2023-11-09 10:36:28.261618
1545  2023-11-09 10:36:28.307717
1546  2023-11-09 10:36:28.355370
1547  2023-11-09 10:36:28.387284
1548  2023-11-09 10:36:28.435159
1549  2023-11-09 10:36:28.467079
1550  2023-11-09 10:36:28.514946
1551  2023-11-09 10:36:28.562818
1552  2023-11-09 10:36:28.594729
1553  2023-11-09 10:36:28.640607
1554  2023-11-09 10:36:28.689752
1555  2023-11-09 10:36:28.720729
1556  2023-11-09 10:36:28.769631
1557  2023-11-09 10:36:28.800548
1558  2023-11-09 10:36:28.848436
1559  2023-11-09 10:36:28.896291
1560  2023-11-09 10:36:28.925219
1561  2023-11-09 10:36:28.972057
1562  2023-11-09 10:36:29.019966
1563  2023-11-09 10:36:29.051881
1564  2023-11-09 10:36:29.099791
1565  2023-11-09 10:36:29.147662
1566  2023-11-09 10:36:29.179577
1567  2023-11-09 10:36:29.227450
1568  2023-11-09 10:36:29.259364
1569  2023-11-09 10:36:29.307236
1570  2023-11-09 10:36:29.355108
1571  2023-11-09 10:36:29.387084
1572  2023-11-09 10:36:29.435175
1573  2023-11-09 10:36:29.466974
1574  2023-11-09 10:36:29.514889
1575  2023-11-09 10:36:29.560766
1576  2023-11-09 10:36:29.592749
1577  2023-11-09 10:36:29.640619
1578  2023-11-09 10:36:29.686667
1579  2023-11-09 10:36:29.718634
1580  2023-11-09 10:36:29.766507
1581  2023-11-09 10:36:29.813433
1582  2023-11-09 10:36:29.844350
1583  2023-11-09 10:36:29.892303
1584  2023-11-09 10:36:29.924219
1585  2023-11-09 10:36:29.971693
1586  2023-11-09 10:36:30.019613
1587  2023-11-09 10:36:30.051528
1588  2023-11-09 10:36:30.099512
1589  2023-11-09 10:36:30.147502
1590  2023-11-09 10:36:30.179437
1591  2023-11-09 10:36:30.227304
1592  2023-11-09 10:36:30.259190
1593  2023-11-09 10:36:30.307176
1594  2023-11-09 10:36:30.355060
1595  2023-11-09 10:36:30.385997
1596  2023-11-09 10:36:30.432922
1597  2023-11-09 10:36:30.480867
1598  2023-11-09 10:36:30.512765
1599  2023-11-09 10:36:30.557637
1600  2023-11-09 10:36:30.604511
1601  2023-11-09 10:36:30.636430
1602  2023-11-09 10:36:30.684264
1603  2023-11-09 10:36:30.716179
1604  2023-11-09 10:36:30.764092
1605  2023-11-09 10:36:30.810926
1606  2023-11-09 10:36:30.841970
1607  2023-11-09 10:36:30.889858
1608  2023-11-09 10:36:30.937012
1609  2023-11-09 10:36:30.968051
1610  2023-11-09 10:36:31.014311
1611  2023-11-09 10:36:31.060809
1612  2023-11-09 10:36:31.091812
1613  2023-11-09 10:36:31.139686
1614  2023-11-09 10:36:31.187557
1615  2023-11-09 10:36:31.219520
1616  2023-11-09 10:36:31.267346
1617  2023-11-09 10:36:31.299301
1618  2023-11-09 10:36:31.347254
1619  2023-11-09 10:36:31.395234
1620  2023-11-09 10:36:31.426150
1621  2023-11-09 10:36:31.473026
1622  2023-11-09 10:36:31.520899
1623  2023-11-09 10:36:31.552809
1624  2023-11-09 10:36:31.600727
1625  2023-11-09 10:36:31.647601
1626  2023-11-09 10:36:31.678560
1627  2023-11-09 10:36:31.726417
1628  2023-11-09 10:36:31.771682
1629  2023-11-09 10:36:31.803570
1630  2023-11-09 10:36:31.851455
1631  2023-11-09 10:36:31.883497
1632  2023-11-09 10:36:31.932287
1633  2023-11-09 10:36:31.979101
1634  2023-11-09 10:36:32.011016
1635  2023-11-09 10:36:32.058888
1636  2023-11-09 10:36:32.105769
1637  2023-11-09 10:36:32.136680
1638  2023-11-09 10:36:32.182557
1639  2023-11-09 10:36:32.230463
1640  2023-11-09 10:36:32.262344
1641  2023-11-09 10:36:32.310290
1642  2023-11-09 10:36:32.342194
1643  2023-11-09 10:36:32.390064
1644  2023-11-09 10:36:32.437794
1645  2023-11-09 10:36:32.469079
1646  2023-11-09 10:36:32.516954
1647  2023-11-09 10:36:32.563882
1648  2023-11-09 10:36:32.594794
1649  2023-11-09 10:36:32.641827
1650  2023-11-09 10:36:32.689509
1651  2023-11-09 10:36:32.721423
1652  2023-11-09 10:36:32.769146
1653  2023-11-09 10:36:32.801058
1654  2023-11-09 10:36:32.845902
1655  2023-11-09 10:36:32.894767
1656  2023-11-09 10:36:32.940693
1657  2023-11-09 10:36:32.971559
1658  2023-11-09 10:36:33.019431
1659  2023-11-09 10:36:33.051538
1660  2023-11-09 10:36:33.099370
1661  2023-11-09 10:36:33.147347
1662  2023-11-09 10:36:33.179261
1663  2023-11-09 10:36:33.227135
1664  2023-11-09 10:36:33.259048
1665  2023-11-09 10:36:33.306928
1666  2023-11-09 10:36:33.354808
1667  2023-11-09 10:36:33.386708
1668  2023-11-09 10:36:33.434579
1669  2023-11-09 10:36:33.466493
1670  2023-11-09 10:36:33.513368
1671  2023-11-09 10:36:33.560243
1672  2023-11-09 10:36:33.592157
1673  2023-11-09 10:36:33.639032
1674  2023-11-09 10:36:33.685237
1675  2023-11-09 10:36:33.716275
1676  2023-11-09 10:36:33.763035
1677  2023-11-09 10:36:33.810005
1678  2023-11-09 10:36:33.841904
1679  2023-11-09 10:36:33.888745
1680  2023-11-09 10:36:33.936660
1681  2023-11-09 10:36:33.968567
1682  2023-11-09 10:36:34.016545
1683  2023-11-09 10:36:34.064412
1684  2023-11-09 10:36:34.096346
1685  2023-11-09 10:36:34.141206
1686  2023-11-09 10:36:34.190069
1687  2023-11-09 10:36:34.221814
1688  2023-11-09 10:36:34.268691
1689  2023-11-09 10:36:34.301602
1690  2023-11-09 10:36:34.348626
1691  2023-11-09 10:36:34.396570
1692  2023-11-09 10:36:34.428492
1693  2023-11-09 10:36:34.477383
1694  2023-11-09 10:36:34.508282
1695  2023-11-09 10:36:34.556135
1696  2023-11-09 10:36:34.605110
1697  2023-11-09 10:36:34.636049
1698  2023-11-09 10:36:34.683920
1699  2023-11-09 10:36:34.729880
1700  2023-11-09 10:36:34.760798
1701  2023-11-09 10:36:34.807672
1702  2023-11-09 10:36:34.855544
1703  2023-11-09 10:36:34.887459
1704  2023-11-09 10:36:34.935331
1705  2023-11-09 10:36:34.966248
1706  2023-11-09 10:36:35.013123
1707  2023-11-09 10:36:35.060995
1708  2023-11-09 10:36:35.091877
1709  2023-11-09 10:36:35.137790
1710  2023-11-09 10:36:35.183673
1711  2023-11-09 10:36:35.230508
1712  2023-11-09 10:36:35.261483
1713  2023-11-09 10:36:35.310296
1714  2023-11-09 10:36:35.342239
1715  2023-11-09 10:36:35.389124
1716  2023-11-09 10:36:35.435958
1717  2023-11-09 10:36:35.467908
1718  2023-11-09 10:36:35.515777
1719  2023-11-09 10:36:35.564645
1720  2023-11-09 10:36:35.594533
1721  2023-11-09 10:36:35.643475
1722  2023-11-09 10:36:35.675514
1723  2023-11-09 10:36:35.723379
1724  2023-11-09 10:36:35.768222
1725  2023-11-09 10:36:35.800136
1726  2023-11-09 10:36:35.848008
1727  2023-11-09 10:36:35.893886
1728  2023-11-09 10:36:35.925800
1729  2023-11-09 10:36:35.973713
1730  2023-11-09 10:36:36.021544
1731  2023-11-09 10:36:36.053459
1732  2023-11-09 10:36:36.101332
1733  2023-11-09 10:36:36.133246
1734  2023-11-09 10:36:36.181159
1735  2023-11-09 10:36:36.228003
1736  2023-11-09 10:36:36.260015
1737  2023-11-09 10:36:36.307921
1738  2023-11-09 10:36:36.354762
1739  2023-11-09 10:36:36.385714
1740  2023-11-09 10:36:36.433590
1741  2023-11-09 10:36:36.480468
1742  2023-11-09 10:36:36.511381
1743  2023-11-09 10:36:36.557254
1744  2023-11-09 10:36:36.605124
1745  2023-11-09 10:36:36.637044
1746  2023-11-09 10:36:36.684914
1747  2023-11-09 10:36:36.716830
1748  2023-11-09 10:36:36.765693
1749  2023-11-09 10:36:36.810585
1750  2023-11-09 10:36:36.841461
1751  2023-11-09 10:36:36.889333
1752  2023-11-09 10:36:36.937217
1753  2023-11-09 10:36:36.969119
1754  2023-11-09 10:36:37.016991
1755  2023-11-09 10:36:37.063871
1756  2023-11-09 10:36:37.094783
1757  2023-11-09 10:36:37.142656
1758  2023-11-09 10:36:37.174570
1759  2023-11-09 10:36:37.222442
1760  2023-11-09 10:36:37.270378
1761  2023-11-09 10:36:37.301803
1762  2023-11-09 10:36:37.349675
1763  2023-11-09 10:36:37.397547
1764  2023-11-09 10:36:37.429485
1765  2023-11-09 10:36:37.477359
1766  2023-11-09 10:36:37.509272
1767  2023-11-09 10:36:37.555192
1768  2023-11-09 10:36:37.602106
1769  2023-11-09 10:36:37.634019
1770  2023-11-09 10:36:37.681591
1771  2023-11-09 10:36:37.729156
1772  2023-11-09 10:36:37.761188
1773  2023-11-09 10:36:37.808062
1774  2023-11-09 10:36:37.855935
1775  2023-11-09 10:36:37.886858
1776  2023-11-09 10:36:37.934843
1777  2023-11-09 10:36:37.966642
1778  2023-11-09 10:36:38.014516
1779  2023-11-09 10:36:38.062349
1780  2023-11-09 10:36:38.094313
1781  2023-11-09 10:36:38.141175
1782  2023-11-09 10:36:38.189045
1783  2023-11-09 10:36:38.220959
1784  2023-11-09 10:36:38.268834
1785  2023-11-09 10:36:38.300714
1786  2023-11-09 10:36:38.347641
1787  2023-11-09 10:36:38.395619
1788  2023-11-09 10:36:38.426526
1789  2023-11-09 10:36:38.474364
1790  2023-11-09 10:36:38.520241
1791  2023-11-09 10:36:38.551218
1792  2023-11-09 10:36:38.598093
1793  2023-11-09 10:36:38.645965
1794  2023-11-09 10:36:38.677880
1795  2023-11-09 10:36:38.725883
1796  2023-11-09 10:36:38.772420
1797  2023-11-09 10:36:38.803341
1798  2023-11-09 10:36:38.849212
1799  2023-11-09 10:36:38.897089
1800  2023-11-09 10:36:38.929001
1801  2023-11-09 10:36:38.976882
1802  2023-11-09 10:36:39.008122
1803  2023-11-09 10:36:39.055031
1804  2023-11-09 10:36:39.102970
1805  2023-11-09 10:36:39.134879
1806  2023-11-09 10:36:39.182750
1807  2023-11-09 10:36:39.230591
1808  2023-11-09 10:36:39.262576
1809  2023-11-09 10:36:39.310409
1810  2023-11-09 10:36:39.342328
1811  2023-11-09 10:36:39.390201
1812  2023-11-09 10:36:39.438036
1813  2023-11-09 10:36:39.469952
1814  2023-11-09 10:36:39.517942
1815  2023-11-09 10:36:39.549772
1816  2023-11-09 10:36:39.597610
1817  2023-11-09 10:36:39.644518
1818  2023-11-09 10:36:39.675440
1819  2023-11-09 10:36:39.722304
1820  2023-11-09 10:36:39.770185
1821  2023-11-09 10:36:39.802106
1822  2023-11-09 10:36:39.848975
1823  2023-11-09 10:36:39.896842
1824  2023-11-09 10:36:39.930757
1825  2023-11-09 10:36:39.976644
1826  2023-11-09 10:36:40.008555
1827  2023-11-09 10:36:40.056419
1828  2023-11-09 10:36:40.102260
1829  2023-11-09 10:36:40.133177
1830  2023-11-09 10:36:40.180052
1831  2023-11-09 10:36:40.227924
1832  2023-11-09 10:36:40.259839
1833  2023-11-09 10:36:40.307811
1834  2023-11-09 10:36:40.354651
1835  2023-11-09 10:36:40.386566
1836  2023-11-09 10:36:40.434480
1837  2023-11-09 10:36:40.466386
1838  2023-11-09 10:36:40.514258
1839  2023-11-09 10:36:40.562300
1840  2023-11-09 10:36:40.594045
1841  2023-11-09 10:36:40.640920
1842  2023-11-09 10:36:40.688758
1843  2023-11-09 10:36:40.720673
1844  2023-11-09 10:36:40.768586
1845  2023-11-09 10:36:40.800493
1846  2023-11-09 10:36:40.848332
1847  2023-11-09 10:36:40.894242
1848  2023-11-09 10:36:40.926160
1849  2023-11-09 10:36:40.974033
1850  2023-11-09 10:36:41.020904
1851  2023-11-09 10:36:41.051841
1852  2023-11-09 10:36:41.099688
1853  2023-11-09 10:36:41.147569
1854  2023-11-09 10:36:41.179478
1855  2023-11-09 10:36:41.227352
1856  2023-11-09 10:36:41.259266
1857  2023-11-09 10:36:41.308113
1858  2023-11-09 10:36:41.355014
1859  2023-11-09 10:36:41.386925
1860  2023-11-09 10:36:41.434822
1861  2023-11-09 10:36:41.466714
1862  2023-11-09 10:36:41.514584
1863  2023-11-09 10:36:41.562564
1864  2023-11-09 10:36:41.594497
1865  2023-11-09 10:36:41.642358
1866  2023-11-09 10:36:41.674269
1867  2023-11-09 10:36:41.722136
1868  2023-11-09 10:36:41.770031
1869  2023-11-09 10:36:41.801927
1870  2023-11-09 10:36:41.849797
1871  2023-11-09 10:36:41.897680
1872  2023-11-09 10:36:41.929551
1873  2023-11-09 10:36:41.977461
1874  2023-11-09 10:36:42.009368
1875  2023-11-09 10:36:42.057210
1876  2023-11-09 10:36:42.105237
1877  2023-11-09 10:36:42.137152
1878  2023-11-09 10:36:42.185024
1879  2023-11-09 10:36:42.216907
1880  2023-11-09 10:36:42.264819
1881  2023-11-09 10:36:42.312690
1882  2023-11-09 10:36:42.344604
1883  2023-11-09 10:36:42.392468
1884  2023-11-09 10:36:42.424384
1885  2023-11-09 10:36:42.472259
1886  2023-11-09 10:36:42.520128
1887  2023-11-09 10:36:42.552048
1888  2023-11-09 10:36:42.599919
1889  2023-11-09 10:36:42.647792
1890  2023-11-09 10:36:42.680706
1891  2023-11-09 10:36:42.726690
1892  2023-11-09 10:36:42.772465
1893  2023-11-09 10:36:42.803372
1894  2023-11-09 10:36:42.851211
1895  2023-11-09 10:36:42.883156
1896  2023-11-09 10:36:42.931029
1897  2023-11-09 10:36:42.978973
1898  2023-11-09 10:36:43.009893
1899  2023-11-09 10:36:43.055737
1900  2023-11-09 10:36:43.102644
1901  2023-11-09 10:36:43.134529
1902  2023-11-09 10:36:43.182399
1903  2023-11-09 10:36:43.230302
1904  2023-11-09 10:36:43.262219
1905  2023-11-09 10:36:43.310253
1906  2023-11-09 10:36:43.341973
1907  2023-11-09 10:36:43.388881
1908  2023-11-09 10:36:43.435755
1909  2023-11-09 10:36:43.467686
1910  2023-11-09 10:36:43.515539
1911  2023-11-09 10:36:43.563428
1912  2023-11-09 10:36:43.595455
1913  2023-11-09 10:36:43.643199
1914  2023-11-09 10:36:43.675129
1915  2023-11-09 10:36:43.722985
1916  2023-11-09 10:36:43.770860
1917  2023-11-09 10:36:43.802777
1918  2023-11-09 10:36:43.849617
1919  2023-11-09 10:36:43.896521
1920  2023-11-09 10:36:43.928404
1921  2023-11-09 10:36:43.976312
1922  2023-11-09 10:36:44.008227
1923  2023-11-09 10:36:44.056063
1924  2023-11-09 10:36:44.103974
1925  2023-11-09 10:36:44.135885
1926  2023-11-09 10:36:44.183784
1927  2023-11-09 10:36:44.230598
1928  2023-11-09 10:36:44.261548
1929  2023-11-09 10:36:44.309418
1930  2023-11-09 10:36:44.356261
1931  2023-11-09 10:36:44.387945
1932  2023-11-09 10:36:44.435862
1933  2023-11-09 10:36:44.467741
1934  2023-11-09 10:36:44.515614
1935  2023-11-09 10:36:44.560527
1936  2023-11-09 10:36:44.592408
1937  2023-11-09 10:36:44.640317
1938  2023-11-09 10:36:44.687155
1939  2023-11-09 10:36:44.718072
1940  2023-11-09 10:36:44.765980
1941  2023-11-09 10:36:44.813816
1942  2023-11-09 10:36:44.845731
1943  2023-11-09 10:36:44.893607
1944  2023-11-09 10:36:44.925556
1945  2023-11-09 10:36:44.972393
1946  2023-11-09 10:36:45.020303
1947  2023-11-09 10:36:45.052179
1948  2023-11-09 10:36:45.100100
1949  2023-11-09 10:36:45.147960
1950  2023-11-09 10:36:45.179872
1951  2023-11-09 10:36:45.227758
1952  2023-11-09 10:36:45.259657
1953  2023-11-09 10:36:45.307532
1954  2023-11-09 10:36:45.353405
1955  2023-11-09 10:36:45.385320
1956  2023-11-09 10:36:45.433193
1957  2023-11-09 10:36:45.479074
1958  2023-11-09 10:36:45.510990
1959  2023-11-09 10:36:45.556861
1960  2023-11-09 10:36:45.604735
1961  2023-11-09 10:36:45.636650
1962  2023-11-09 10:36:45.684516
1963  2023-11-09 10:36:45.730398
1964  2023-11-09 10:36:45.762311
1965  2023-11-09 10:36:45.810191
1966  2023-11-09 10:36:45.841105
1967  2023-11-09 10:36:45.887944
1968  2023-11-09 10:36:45.935853
1969  2023-11-09 10:36:45.967764
1970  2023-11-09 10:36:46.014606
1971  2023-11-09 10:36:46.062513
1972  2023-11-09 10:36:46.094426
1973  2023-11-09 10:36:46.142296
1974  2023-11-09 10:36:46.174220
1975  2023-11-09 10:36:46.222051
1976  2023-11-09 10:36:46.269927
1977  2023-11-09 10:36:46.301840
1978  2023-11-09 10:36:46.349710
1979  2023-11-09 10:36:46.397646
1980  2023-11-09 10:36:46.429499
1981  2023-11-09 10:36:46.477370
1982  2023-11-09 10:36:46.509286
1983  2023-11-09 10:36:46.557155
1984  2023-11-09 10:36:46.605062
1985  2023-11-09 10:36:46.636974
1986  2023-11-09 10:36:46.684814
1987  2023-11-09 10:36:46.716729
1988  2023-11-09 10:36:46.764614
1989  2023-11-09 10:36:46.812609
1990  2023-11-09 10:36:46.844387
1991  2023-11-09 10:36:46.891263
1992  2023-11-09 10:36:46.938176
1993  2023-11-09 10:36:46.971082
1994  2023-11-09 10:36:47.017956
1995  2023-11-09 10:36:47.049772
1996  2023-11-09 10:36:47.097611
1997  2023-11-09 10:36:47.145523
1998  2023-11-09 10:36:47.177513
1999  2023-11-09 10:36:47.225391
2000  2023-11-09 10:36:47.271265
2001  2023-11-09 10:36:47.303179
2002  2023-11-09 10:36:47.350061
2003  2023-11-09 10:36:47.396932
2004  2023-11-09 10:36:47.428842
2005  2023-11-09 10:36:47.475719
2006  2023-11-09 10:36:47.523595
2007  2023-11-09 10:36:47.555504
2008  2023-11-09 10:36:47.602349
2009  2023-11-09 10:36:47.634304
2010  2023-11-09 10:36:47.682165
2011  2023-11-09 10:36:47.729660
2012  2023-11-09 10:36:47.761633
2013  2023-11-09 10:36:47.809526
2014  2023-11-09 10:36:47.841443
2015  2023-11-09 10:36:47.889282
2016  2023-11-09 10:36:47.937187
2017  2023-11-09 10:36:47.969100
2018  2023-11-09 10:36:48.016941
2019  2023-11-09 10:36:48.063850
2020  2023-11-09 10:36:48.094766
2021  2023-11-09 10:36:48.142648
2022  2023-11-09 10:36:48.174568
2023  2023-11-09 10:36:48.222484
2024  2023-11-09 10:36:48.270358
2025  2023-11-09 10:36:48.302300
2026  2023-11-09 10:36:48.350139
2027  2023-11-09 10:36:48.398061
2028  2023-11-09 10:36:48.428960
2029  2023-11-09 10:36:48.475804
2030  2023-11-09 10:36:48.507719
2031  2023-11-09 10:36:48.553596
2032  2023-11-09 10:36:48.601468
2033  2023-11-09 10:36:48.633383
2034  2023-11-09 10:36:48.681287
2035  2023-11-09 10:36:48.728164
2036  2023-11-09 10:36:48.759048
2037  2023-11-09 10:36:48.806951
2038  2023-11-09 10:36:48.854823
2039  2023-11-09 10:36:48.885580
2040  2023-11-09 10:36:48.933450
2041  2023-11-09 10:36:48.981413
2042  2023-11-09 10:36:49.012332
2043  2023-11-09 10:36:49.058209
2044  2023-11-09 10:36:49.105086
2045  2023-11-09 10:36:49.137003
2046  2023-11-09 10:36:49.184839
2047  2023-11-09 10:36:49.216754
2048  2023-11-09 10:36:49.263667
2049  2023-11-09 10:36:49.310534
2050  2023-11-09 10:36:49.342455
2051  2023-11-09 10:36:49.390290
2052  2023-11-09 10:36:49.437165
2053  2023-11-09 10:36:49.467122
2054  2023-11-09 10:36:49.513959
2055  2023-11-09 10:36:49.561832
2056  2023-11-09 10:36:49.592749
2057  2023-11-09 10:36:49.639658
2058  2023-11-09 10:36:49.687525
2059  2023-11-09 10:36:49.719222
2060  2023-11-09 10:36:49.767173
2061  2023-11-09 10:36:49.812967
2062  2023-11-09 10:36:49.844544
2063  2023-11-09 10:36:49.892411
2064  2023-11-09 10:36:49.924333
2065  2023-11-09 10:36:49.972200
2066  2023-11-09 10:36:50.019083
2067  2023-11-09 10:36:50.051233
2068  2023-11-09 10:36:50.098155
2069  2023-11-09 10:36:50.146020
2070  2023-11-09 10:36:50.177935
2071  2023-11-09 10:36:50.225808
2072  2023-11-09 10:36:50.272127
2073  2023-11-09 10:36:50.303103
2074  2023-11-09 10:36:50.351023
2075  2023-11-09 10:36:50.396937
2076  2023-11-09 10:36:50.428853
2077  2023-11-09 10:36:50.476687
2078  2023-11-09 10:36:50.508634
2079  2023-11-09 10:36:50.556474
2080  2023-11-09 10:36:50.604389
2081  2023-11-09 10:36:50.636328
2082  2023-11-09 10:36:50.684199
2083  2023-11-09 10:36:50.716113
2084  2023-11-09 10:36:50.763026
2085  2023-11-09 10:36:50.808865
2086  2023-11-09 10:36:50.855775
2087  2023-11-09 10:36:50.885696
2088  2023-11-09 10:36:50.933023
2089  2023-11-09 10:36:50.979965
2090  2023-11-09 10:36:51.010885
2091  2023-11-09 10:36:51.058834
2092  2023-11-09 10:36:51.105645
2093  2023-11-09 10:36:51.137549
2094  2023-11-09 10:36:51.185418
2095  2023-11-09 10:36:51.217331
2096  2023-11-09 10:36:51.265205
2097  2023-11-09 10:36:51.311050
2098  2023-11-09 10:36:51.340970
2099  2023-11-09 10:36:51.388841
2100  2023-11-09 10:36:51.436785
2101  2023-11-09 10:36:51.468864
2102  2023-11-09 10:36:51.516700
2103  2023-11-09 10:36:51.564467
2104  2023-11-09 10:36:51.596503
2105  2023-11-09 10:36:51.642397
2106  2023-11-09 10:36:51.688392
2107  2023-11-09 10:36:51.720282
2108  2023-11-09 10:36:51.768255
2109  2023-11-09 10:36:51.800167
2110  2023-11-09 10:36:51.848073
2111  2023-11-09 10:36:51.895951
2112  2023-11-09 10:36:51.927865
2113  2023-11-09 10:36:51.975728
2114  2023-11-09 10:36:52.007642
2115  2023-11-09 10:36:52.055518
2116  2023-11-09 10:36:52.103354
2117  2023-11-09 10:36:52.135309
2118  2023-11-09 10:36:52.183171
2119  2023-11-09 10:36:52.228021
2120  2023-11-09 10:36:52.258938
2121  2023-11-09 10:36:52.306846
2122  2023-11-09 10:36:52.354586
2123  2023-11-09 10:36:52.386565
2124  2023-11-09 10:36:52.434437
2125  2023-11-09 10:36:52.466386
2126  2023-11-09 10:36:52.514271
2127  2023-11-09 10:36:52.562137
2128  2023-11-09 10:36:52.594184
2129  2023-11-09 10:36:52.638961
2130  2023-11-09 10:36:52.685838
2131  2023-11-09 10:36:52.716960
2132  2023-11-09 10:36:52.763859
2133  2023-11-09 10:36:52.809707
2134  2023-11-09 10:36:52.841736
2135  2023-11-09 10:36:52.888190
2136  2023-11-09 10:36:52.935064
2137  2023-11-09 10:36:52.965982
2138  2023-11-09 10:36:53.012920
2139  2023-11-09 10:36:53.060799
2140  2023-11-09 10:36:53.091714
2141  2023-11-09 10:36:53.138776
2142  2023-11-09 10:36:53.186772
2143  2023-11-09 10:36:53.218786
2144  2023-11-09 10:36:53.266356
2145  2023-11-09 10:36:53.314352
2146  2023-11-09 10:36:53.346266
2147  2023-11-09 10:36:53.394143
2148  2023-11-09 10:36:53.426021
2149  2023-11-09 10:36:53.473930
2150  2023-11-09 10:36:53.521767
2151  2023-11-09 10:36:53.553728
2152  2023-11-09 10:36:53.601955
2153  2023-11-09 10:36:53.647952
2154  2023-11-09 10:36:53.679866
2155  2023-11-09 10:36:53.727729
2156  2023-11-09 10:36:53.759649
2157  2023-11-09 10:36:53.806510
2158  2023-11-09 10:36:53.855386
2159  2023-11-09 10:36:53.887311
2160  2023-11-09 10:36:53.935177
2161  2023-11-09 10:36:53.966209
2162  2023-11-09 10:36:54.015043
2163  2023-11-09 10:36:54.059923
2164  2023-11-09 10:36:54.091838
2165  2023-11-09 10:36:54.139750
2166  2023-11-09 10:36:54.187582
2167  2023-11-09 10:36:54.219496
2168  2023-11-09 10:36:54.267263
2169  2023-11-09 10:36:54.299211
2170  2023-11-09 10:36:54.347048
2171  2023-11-09 10:36:54.394944
2172  2023-11-09 10:36:54.426870
2173  2023-11-09 10:36:54.474707
2174  2023-11-09 10:36:54.522611
2175  2023-11-09 10:36:54.554575
2176  2023-11-09 10:36:54.602448
2177  2023-11-09 10:36:54.635379
2178  2023-11-09 10:36:54.682234
2179  2023-11-09 10:36:54.731149
2180  2023-11-09 10:36:54.763162
2181  2023-11-09 10:36:54.810036
2182  2023-11-09 10:36:54.841951
2183  2023-11-09 10:36:54.889920
2184  2023-11-09 10:36:54.937801
2185  2023-11-09 10:36:54.969716
2186  2023-11-09 10:36:55.017588
2187  2023-11-09 10:36:55.064633
2188  2023-11-09 10:36:55.095564
2189  2023-11-09 10:36:55.142461
2190  2023-11-09 10:36:55.189334
2191  2023-11-09 10:36:55.221215
2192  2023-11-09 10:36:55.269139
2193  2023-11-09 10:36:55.301002
2194  2023-11-09 10:36:55.348917
2195  2023-11-09 10:36:55.396782
2196  2023-11-09 10:36:55.428693
2197  2023-11-09 10:36:55.476564
2198  2023-11-09 10:36:55.508482
2199  2023-11-09 10:36:55.556352
2200  2023-11-09 10:36:55.604239
2201  2023-11-09 10:36:55.636181
2202  2023-11-09 10:36:55.684061
2203  2023-11-09 10:36:55.715973
2204  2023-11-09 10:36:55.762925
2205  2023-11-09 10:36:55.808807
2206  2023-11-09 10:36:55.855644
2207  2023-11-09 10:36:55.887559
2208  2023-11-09 10:36:55.935433
2209  2023-11-09 10:36:55.967400
2210  2023-11-09 10:36:56.015218
2211  2023-11-09 10:36:56.064152
2212  2023-11-09 10:36:56.095005
2213  2023-11-09 10:36:56.143928
2214  2023-11-09 10:36:56.174803
2215  2023-11-09 10:36:56.223707
2216  2023-11-09 10:36:56.270166
2217  2023-11-09 10:36:56.302097
2218  2023-11-09 10:36:56.350102
2219  2023-11-09 10:36:56.397974
2220  2023-11-09 10:36:56.429872
2221  2023-11-09 10:36:56.477761
2222  2023-11-09 10:36:56.509658
2223  2023-11-09 10:36:56.557535
2224  2023-11-09 10:36:56.606369
2225  2023-11-09 10:36:56.638325
2226  2023-11-09 10:36:56.686150
2227  2023-11-09 10:36:56.718109
2228  2023-11-09 10:36:56.765888
2229  2023-11-09 10:36:56.813807
2230  2023-11-09 10:36:56.843679
2231  2023-11-09 10:36:56.890553
2232  2023-11-09 10:36:56.936431
2233  2023-11-09 10:36:56.968345
2234  2023-11-09 10:36:57.016217
2235  2023-11-09 10:36:57.064089
2236  2023-11-09 10:36:57.095007
2237  2023-11-09 10:36:57.141933
2238  2023-11-09 10:36:57.188791
2239  2023-11-09 10:36:57.219708
2240  2023-11-09 10:36:57.265585
2241  2023-11-09 10:36:57.313472
2242  2023-11-09 10:36:57.345372
2243  2023-11-09 10:36:57.393250
2244  2023-11-09 10:36:57.424160
2245  2023-11-09 10:36:57.471999
2246  2023-11-09 10:36:57.518874
2247  2023-11-09 10:36:57.550825
2248  2023-11-09 10:36:57.598661
2249  2023-11-09 10:36:57.646566
2250  2023-11-09 10:36:57.679495
2251  2023-11-09 10:36:57.726319
2252  2023-11-09 10:36:57.758234
2253  2023-11-09 10:36:57.806137
2254  2023-11-09 10:36:57.854975
2255  2023-11-09 10:36:57.885936
2256  2023-11-09 10:36:57.934820
2257  2023-11-09 10:36:57.980687
2258  2023-11-09 10:36:58.012598
2259  2023-11-09 10:36:58.059433
2260  2023-11-09 10:36:58.105442
2261  2023-11-09 10:36:58.136359
2262  2023-11-09 10:36:58.183234
2263  2023-11-09 10:36:58.231106
2264  2023-11-09 10:36:58.263020
2265  2023-11-09 10:36:58.309928
2266  2023-11-09 10:36:58.340846
2267  2023-11-09 10:36:58.388721
2268  2023-11-09 10:36:58.436775
2269  2023-11-09 10:36:58.468792
2270  2023-11-09 10:36:58.516577
2271  2023-11-09 10:36:58.564146
2272  2023-11-09 10:36:58.596143
2273  2023-11-09 10:36:58.644005
2274  2023-11-09 10:36:58.675979
2275  2023-11-09 10:36:58.723929
2276  2023-11-09 10:36:58.771835
2277  2023-11-09 10:36:58.803763
2278  2023-11-09 10:36:58.851694
2279  2023-11-09 10:36:58.883562
2280  2023-11-09 10:36:58.931469
2281  2023-11-09 10:36:58.977608
2282  2023-11-09 10:36:59.009616
2283  2023-11-09 10:36:59.057484
2284  2023-11-09 10:36:59.105349
2285  2023-11-09 10:36:59.137290
2286  2023-11-09 10:36:59.185171
2287  2023-11-09 10:36:59.217052
2288  2023-11-09 10:36:59.263937
2289  2023-11-09 10:36:59.311799
2290  2023-11-09 10:36:59.344710
2291  2023-11-09 10:36:59.391591
2292  2023-11-09 10:36:59.439431
2293  2023-11-09 10:36:59.471377
2294  2023-11-09 10:36:59.519250
2295  2023-11-09 10:36:59.551156
2296  2023-11-09 10:36:59.599175
2297  2023-11-09 10:36:59.647011
2298  2023-11-09 10:36:59.678961
2299  2023-11-09 10:36:59.726833
2300  2023-11-09 10:36:59.757750
2301  2023-11-09 10:36:59.804642
2302  2023-11-09 10:36:59.853512
2303  2023-11-09 10:36:59.885551
2304  2023-11-09 10:36:59.932436
2305  2023-11-09 10:36:59.981290
2306  2023-11-09 10:37:00.011205
2307  2023-11-09 10:37:00.059211
2308  2023-11-09 10:37:00.107210
2309  2023-11-09 10:37:00.136089
2310  2023-11-09 10:37:00.183961
2311  2023-11-09 10:37:00.216015
2312  2023-11-09 10:37:00.263748
2313  2023-11-09 10:37:00.311620
2314  2023-11-09 10:37:00.343535
2315  2023-11-09 10:37:00.391407
2316  2023-11-09 10:37:00.439546
2317  2023-11-09 10:37:00.471328
2318  2023-11-09 10:37:00.519200
2319  2023-11-09 10:37:00.551152
2320  2023-11-09 10:37:00.598062
2321  2023-11-09 10:37:00.643976
2322  2023-11-09 10:37:00.674907
2323  2023-11-09 10:37:00.722501
2324  2023-11-09 10:37:00.770401
2325  2023-11-09 10:37:00.802318
2326  2023-11-09 10:37:00.850197
2327  2023-11-09 10:37:00.897814
2328  2023-11-09 10:37:00.929715
2329  2023-11-09 10:37:00.977592
2330  2023-11-09 10:37:01.009501
2331  2023-11-09 10:37:01.057373
2332  2023-11-09 10:37:01.105325
2333  2023-11-09 10:37:01.137163
2334  2023-11-09 10:37:01.185035
2335  2023-11-09 10:37:01.217029
2336  2023-11-09 10:37:01.264908
2337  2023-11-09 10:37:01.312795
2338  2023-11-09 10:37:01.344658
2339  2023-11-09 10:37:01.392572
2340  2023-11-09 10:37:01.424474
2341  2023-11-09 10:37:01.472356
2342  2023-11-09 10:37:01.520219
2343  2023-11-09 10:37:01.552104
2344  2023-11-09 10:37:01.600012
2345  2023-11-09 10:37:01.647847
2346  2023-11-09 10:37:01.679795
2347  2023-11-09 10:37:01.727664
2348  2023-11-09 10:37:01.757587
2349  2023-11-09 10:37:01.805469
2350  2023-11-09 10:37:01.853335
2351  2023-11-09 10:37:01.885279
2352  2023-11-09 10:37:01.933128
2353  2023-11-09 10:37:01.979996
2354  2023-11-09 10:37:02.011907
2355  2023-11-09 10:37:02.059776
2356  2023-11-09 10:37:02.106620
2357  2023-11-09 10:37:02.137800
2358  2023-11-09 10:37:02.185442
2359  2023-11-09 10:37:02.216327
2360  2023-11-09 10:37:02.264199
2361  2023-11-09 10:37:02.310224
2362  2023-11-09 10:37:02.342205
2363  2023-11-09 10:37:02.390115
2364  2023-11-09 10:37:02.437987
2365  2023-11-09 10:37:02.469902
2366  2023-11-09 10:37:02.517774
2367  2023-11-09 10:37:02.549741
2368  2023-11-09 10:37:02.597672
2369  2023-11-09 10:37:02.645579
2370  2023-11-09 10:37:02.677459
2371  2023-11-09 10:37:02.725330
2372  2023-11-09 10:37:02.772169
2373  2023-11-09 10:37:02.804083
2374  2023-11-09 10:37:02.850991
2375  2023-11-09 10:37:02.882875
2376  2023-11-09 10:37:02.930781
2377  2023-11-09 10:37:02.978696
2378  2023-11-09 10:37:03.010607
2379  2023-11-09 10:37:03.058504
2380  2023-11-09 10:37:03.105421
2381  2023-11-09 10:37:03.136297
2382  2023-11-09 10:37:03.182208
2383  2023-11-09 10:37:03.230047
2384  2023-11-09 10:37:03.261992
2385  2023-11-09 10:37:03.309834
2386  2023-11-09 10:37:03.341784
2387  2023-11-09 10:37:03.389650
2388  2023-11-09 10:37:03.437491
2389  2023-11-09 10:37:03.469406
2390  2023-11-09 10:37:03.517314
2391  2023-11-09 10:37:03.549225
2392  2023-11-09 10:37:03.597131
2393  2023-11-09 10:37:03.643972
2394  2023-11-09 10:37:03.674889
2395  2023-11-09 10:37:03.722772
2396  2023-11-09 10:37:03.770637
2397  2023-11-09 10:37:03.802546
2398  2023-11-09 10:37:03.851443
2399  2023-11-09 10:37:03.897262
2400  2023-11-09 10:37:03.931197
2401  2023-11-09 10:37:03.977100
2402  2023-11-09 10:37:04.009008
2403  2023-11-09 10:37:04.056940
2404  2023-11-09 10:37:04.104846
2405  2023-11-09 10:37:04.136759
2406  2023-11-09 10:37:04.185085
2407  2023-11-09 10:37:04.230930
2408  2023-11-09 10:37:04.262845
2409  2023-11-09 10:37:04.309720
2410  2023-11-09 10:37:04.355597
2411  2023-11-09 10:37:04.386514
2412  2023-11-09 10:37:04.434423
2413  2023-11-09 10:37:04.466301
2414  2023-11-09 10:37:04.514212
2415  2023-11-09 10:37:04.562200
2416  2023-11-09 10:37:04.593959
2417  2023-11-09 10:37:04.641874
2418  2023-11-09 10:37:04.689703
2419  2023-11-09 10:37:04.721618
2420  2023-11-09 10:37:04.769530
2421  2023-11-09 10:37:04.799443
2422  2023-11-09 10:37:04.847320
2423  2023-11-09 10:37:04.895188
2424  2023-11-09 10:37:04.926117
2425  2023-11-09 10:37:04.972984
2426  2023-11-09 10:37:05.018863
2427  2023-11-09 10:37:05.050771
2428  2023-11-09 10:37:05.098610
2429  2023-11-09 10:37:05.146516
2430  2023-11-09 10:37:05.178430
2431  2023-11-09 10:37:05.226409
2432  2023-11-09 10:37:05.274180
2433  2023-11-09 10:37:05.304109
2434  2023-11-09 10:37:05.348941
2435  2023-11-09 10:37:05.395816
2436  2023-11-09 10:37:05.426733
2437  2023-11-09 10:37:05.474656
2438  2023-11-09 10:37:05.522477
2439  2023-11-09 10:37:05.554392
2440  2023-11-09 10:37:05.600845
2441  2023-11-09 10:37:05.632870
2442  2023-11-09 10:37:05.678722
2443  2023-11-09 10:37:05.726621
2444  2023-11-09 10:37:05.757537
2445  2023-11-09 10:37:05.806410
2446  2023-11-09 10:37:05.853297
2447  2023-11-09 10:37:05.885212
2448  2023-11-09 10:37:05.933055
2449  2023-11-09 10:37:05.979038
2450  2023-11-09 10:37:06.010967
2451  2023-11-09 10:37:06.058827
2452  2023-11-09 10:37:06.105667
2453  2023-11-09 10:37:06.136583
2454  2023-11-09 10:37:06.185507
2455  2023-11-09 10:37:06.216539
2456  2023-11-09 10:37:06.265413
2457  2023-11-09 10:37:06.313279
2458  2023-11-09 10:37:06.345207
2459  2023-11-09 10:37:06.393014
2460  2023-11-09 10:37:06.438894
2461  2023-11-09 10:37:06.470900
2462  2023-11-09 10:37:06.518775
2463  2023-11-09 10:37:06.551690
2464  2023-11-09 10:37:06.598564
2465  2023-11-09 10:37:06.644446
2466  2023-11-09 10:37:06.676355
2467  2023-11-09 10:37:06.724195
2468  2023-11-09 10:37:06.772109
2469  2023-11-09 10:37:06.803982
2470  2023-11-09 10:37:06.850906
2471  2023-11-09 10:37:06.896734
2472  2023-11-09 10:37:06.927652
2473  2023-11-09 10:37:06.975561
2474  2023-11-09 10:37:07.007471
2475  2023-11-09 10:37:07.055310
2476  2023-11-09 10:37:07.103218
2477  2023-11-09 10:37:07.135130
2478  2023-11-09 10:37:07.182969
2479  2023-11-09 10:37:07.230875
2480  2023-11-09 10:37:07.262756
2481  2023-11-09 10:37:07.310661
2482  2023-11-09 10:37:07.342545
2483  2023-11-09 10:37:07.389237
2484  2023-11-09 10:37:07.437215
2485  2023-11-09 10:37:07.469135
2486  2023-11-09 10:37:07.517000
2487  2023-11-09 10:37:07.563875
2488  2023-11-09 10:37:07.594793
2489  2023-11-09 10:37:07.643630
2490  2023-11-09 10:37:07.688543
2491  2023-11-09 10:37:07.720473
2492  2023-11-09 10:37:07.768338
2493  2023-11-09 10:37:07.800245
2494  2023-11-09 10:37:07.848120
2495  2023-11-09 10:37:07.895954
2496  2023-11-09 10:37:07.927791
2497  2023-11-09 10:37:07.975657
2498  2023-11-09 10:37:08.007646
2499  2023-11-09 10:37:08.055488
2500  2023-11-09 10:37:08.104403
2501  2023-11-09 10:37:08.135306
2502  2023-11-09 10:37:08.184169
2503  2023-11-09 10:37:08.232202
2504  2023-11-09 10:37:08.264113
2505  2023-11-09 10:37:08.310000
2506  2023-11-09 10:37:08.341890
2507  2023-11-09 10:37:08.389781
2508  2023-11-09 10:37:08.437633
2509  2023-11-09 10:37:08.469644
2510  2023-11-09 10:37:08.517643
2511  2023-11-09 10:37:08.565514
2512  2023-11-09 10:37:08.597399
2513  2023-11-09 10:37:08.642277
2514  2023-11-09 10:37:08.674236
2515  2023-11-09 10:37:08.720069
2516  2023-11-09 10:37:08.766485
2517  2023-11-09 10:37:08.813388
2518  2023-11-09 10:37:08.844319
2519  2023-11-09 10:37:08.892145
2520  2023-11-09 10:37:08.939052
2521  2023-11-09 10:37:08.969937
2522  2023-11-09 10:37:09.017846
2523  2023-11-09 10:37:09.049756
2524  2023-11-09 10:37:09.097238
2525  2023-11-09 10:37:09.145079
2526  2023-11-09 10:37:09.177000
2527  2023-11-09 10:37:09.222906
2528  2023-11-09 10:37:09.270782
2529  2023-11-09 10:37:09.302691
2530  2023-11-09 10:37:09.351570
2531  2023-11-09 10:37:09.383481
2532  2023-11-09 10:37:09.430348
2533  2023-11-09 10:37:09.477233
2534  2023-11-09 10:37:09.509142
2535  2023-11-09 10:37:09.554982
2536  2023-11-09 10:37:09.601888
2537  2023-11-09 10:37:09.633816
2538  2023-11-09 10:37:09.681681
2539  2023-11-09 10:37:09.729515
2540  2023-11-09 10:37:09.761430
2541  2023-11-09 10:37:09.809345
2542  2023-11-09 10:37:09.841247
2543  2023-11-09 10:37:09.889089
2544  2023-11-09 10:37:09.936993
2545  2023-11-09 10:37:09.968908
2546  2023-11-09 10:37:10.016744
2547  2023-11-09 10:37:10.063663
2548  2023-11-09 10:37:10.094580
2549  2023-11-09 10:37:10.142486
2550  2023-11-09 10:37:10.174396
2551  2023-11-09 10:37:10.220246
2552  2023-11-09 10:37:10.268147
2553  2023-11-09 10:37:10.300063
2554  2023-11-09 10:37:10.347938
2555  2023-11-09 10:37:10.395809
2556  2023-11-09 10:37:10.427722
2557  2023-11-09 10:37:10.475597
2558  2023-11-09 10:37:10.507510
2559  2023-11-09 10:37:10.555382
2560  2023-11-09 10:37:10.601257
2561  2023-11-09 10:37:10.633172
2562  2023-11-09 10:37:10.681017
2563  2023-11-09 10:37:10.726890
2564  2023-11-09 10:37:10.757809
2565  2023-11-09 10:37:10.805714
2566  2023-11-09 10:37:10.854671
2567  2023-11-09 10:37:10.885170
2568  2023-11-09 10:37:10.934121
2569  2023-11-09 10:37:10.979985
2570  2023-11-09 10:37:11.012037
2571  2023-11-09 10:37:11.057866
2572  2023-11-09 10:37:11.104876
2573  2023-11-09 10:37:11.136791
2574  2023-11-09 10:37:11.184685
2575  2023-11-09 10:37:11.216576
2576  2023-11-09 10:37:11.264512
2577  2023-11-09 10:37:11.312084
2578  2023-11-09 10:37:11.343995
2579  2023-11-09 10:37:11.391959
2580  2023-11-09 10:37:11.438748
2581  2023-11-09 10:37:11.469738
2582  2023-11-09 10:37:11.517609
2583  2023-11-09 10:37:11.549564
2584  2023-11-09 10:37:11.596459
2585  2023-11-09 10:37:11.642305
2586  2023-11-09 10:37:11.675252
2587  2023-11-09 10:37:11.722134
2588  2023-11-09 10:37:11.769997
2589  2023-11-09 10:37:11.801878
2590  2023-11-09 10:37:11.849787
2591  2023-11-09 10:37:11.897667
2592  2023-11-09 10:37:11.929568
2593  2023-11-09 10:37:11.977444
2594  2023-11-09 10:37:12.009376
2595  2023-11-09 10:37:12.057227
2596  2023-11-09 10:37:12.103108
2597  2023-11-09 10:37:12.135020
2598  2023-11-09 10:37:12.182891
2599  2023-11-09 10:37:12.230767
2600  2023-11-09 10:37:12.262679
2601  2023-11-09 10:37:12.310555
2602  2023-11-09 10:37:12.341468
2603  2023-11-09 10:37:12.388342
2604  2023-11-09 10:37:12.436216
2605  2023-11-09 10:37:12.468098
2606  2023-11-09 10:37:12.516020
2607  2023-11-09 10:37:12.564870
2608  2023-11-09 10:37:12.595758
2609  2023-11-09 10:37:12.642665
2610  2023-11-09 10:37:12.689507
2611  2023-11-09 10:37:12.723460
2612  2023-11-09 10:37:12.767329
2613  2023-11-09 10:37:12.814223
2614  2023-11-09 10:37:12.846121
2615  2023-11-09 10:37:12.893960
2616  2023-11-09 10:37:12.925876
2617  2023-11-09 10:37:12.973749
2618  2023-11-09 10:37:13.021619
2619  2023-11-09 10:37:13.053533
2620  2023-11-09 10:37:13.101442
2621  2023-11-09 10:37:13.133328
2622  2023-11-09 10:37:13.179426
2623  2023-11-09 10:37:13.228261
2624  2023-11-09 10:37:13.259177
2625  2023-11-09 10:37:13.307086
2626  2023-11-09 10:37:13.352958
2627  2023-11-09 10:37:13.384876
2628  2023-11-09 10:37:13.432713
2629  2023-11-09 10:37:13.479619
2630  2023-11-09 10:37:13.511532
2631  2023-11-09 10:37:13.558411
2632  2023-11-09 10:37:13.605284
2633  2023-11-09 10:37:13.637196
2634  2023-11-09 10:37:13.685070
2635  2023-11-09 10:37:13.716988
2636  2023-11-09 10:37:13.764983
2637  2023-11-09 10:37:13.812853
2638  2023-11-09 10:37:13.844776
2639  2023-11-09 10:37:13.892640
2640  2023-11-09 10:37:13.924558
2641  2023-11-09 10:37:13.972426
2642  2023-11-09 10:37:14.020301
2643  2023-11-09 10:37:14.052211
2644  2023-11-09 10:37:14.100185
2645  2023-11-09 10:37:14.147959
2646  2023-11-09 10:37:14.179913
2647  2023-11-09 10:37:14.227785
2648  2023-11-09 10:37:14.259747
2649  2023-11-09 10:37:14.306607
2650  2023-11-09 10:37:14.353436
2651  2023-11-09 10:37:14.386298
2652  2023-11-09 10:37:14.434211
2653  2023-11-09 10:37:14.482042
2654  2023-11-09 10:37:14.513965
2655  2023-11-09 10:37:14.561874
2656  2023-11-09 10:37:14.593789
2657  2023-11-09 10:37:14.641700
2658  2023-11-09 10:37:14.687532
2659  2023-11-09 10:37:14.719580
2660  2023-11-09 10:37:14.765474
2661  2023-11-09 10:37:14.813336
2662  2023-11-09 10:37:14.844253
2663  2023-11-09 10:37:14.892092
2664  2023-11-09 10:37:14.938120
2665  2023-11-09 10:37:14.970035
2666  2023-11-09 10:37:15.017908
2667  2023-11-09 10:37:15.049822
2668  2023-11-09 10:37:15.097693
2669  2023-11-09 10:37:15.144568
2670  2023-11-09 10:37:15.175520
2671  2023-11-09 10:37:15.223391
2672  2023-11-09 10:37:15.271229
2673  2023-11-09 10:37:15.303144
2674  2023-11-09 10:37:15.351135
2675  2023-11-09 10:37:15.383075
2676  2023-11-09 10:37:15.428897
2677  2023-11-09 10:37:15.475804
2678  2023-11-09 10:37:15.522672
2679  2023-11-09 10:37:15.555632
2680  2023-11-09 10:37:15.603475
2681  2023-11-09 10:37:15.634380
2682  2023-11-09 10:37:15.681262
2683  2023-11-09 10:37:15.729095
2684  2023-11-09 10:37:15.763094
2685  2023-11-09 10:37:15.809207
2686  2023-11-09 10:37:15.856257
2687  2023-11-09 10:37:15.888271
2688  2023-11-09 10:37:15.937150
2689  2023-11-09 10:37:15.969046
2690  2023-11-09 10:37:16.014173
2691  2023-11-09 10:37:16.062014
2692  2023-11-09 10:37:16.093562
2693  2023-11-09 10:37:16.141398
2694  2023-11-09 10:37:16.189344
2695  2023-11-09 10:37:16.220261
2696  2023-11-09 10:37:16.267991
2697  2023-11-09 10:37:16.313830
2698  2023-11-09 10:37:16.343751
2699  2023-11-09 10:37:16.390675
2700  2023-11-09 10:37:16.436677
2701  2023-11-09 10:37:16.467553
2702  2023-11-09 10:37:16.515458
2703  2023-11-09 10:37:16.562333
2704  2023-11-09 10:37:16.594216
2705  2023-11-09 10:37:16.640129
2706  2023-11-09 10:37:16.685969
2707  2023-11-09 10:37:16.717916
2708  2023-11-09 10:37:16.763798
2709  2023-11-09 10:37:16.810636
2710  2023-11-09 10:37:16.842550
2711  2023-11-09 10:37:16.890422
2712  2023-11-09 10:37:16.938294
2713  2023-11-09 10:37:16.970209
2714  2023-11-09 10:37:17.018081
2715  2023-11-09 10:37:17.049487
2716  2023-11-09 10:37:17.097484
2717  2023-11-09 10:37:17.145355
2718  2023-11-09 10:37:17.177270
2719  2023-11-09 10:37:17.225142
2720  2023-11-09 10:37:17.273013
2721  2023-11-09 10:37:17.304928
2722  2023-11-09 10:37:17.352800
2723  2023-11-09 10:37:17.384715
2724  2023-11-09 10:37:17.432587
2725  2023-11-09 10:37:17.478495
2726  2023-11-09 10:37:17.510415
2727  2023-11-09 10:37:17.556532
2728  2023-11-09 10:37:17.604439
2729  2023-11-09 10:37:17.636357
2730  2023-11-09 10:37:17.683601
2731  2023-11-09 10:37:17.730521
2732  2023-11-09 10:37:17.761452
2733  2023-11-09 10:37:17.809483
2734  2023-11-09 10:37:17.856153
2735  2023-11-09 10:37:17.887115
2736  2023-11-09 10:37:17.935980
2737  2023-11-09 10:37:17.967900
2738  2023-11-09 10:37:18.014773
2739  2023-11-09 10:37:18.063645
2740  2023-11-09 10:37:18.095570
2741  2023-11-09 10:37:18.141401
2742  2023-11-09 10:37:18.188264
2743  2023-11-09 10:37:18.220179
2744  2023-11-09 10:37:18.268096
2745  2023-11-09 10:37:18.300016
2746  2023-11-09 10:37:18.347955
2747  2023-11-09 10:37:18.395860
2748  2023-11-09 10:37:18.427742
2749  2023-11-09 10:37:18.474650
2750  2023-11-09 10:37:18.521492
2751  2023-11-09 10:37:18.553406
2752  2023-11-09 10:37:18.601277
2753  2023-11-09 10:37:18.647193
2754  2023-11-09 10:37:18.679233
2755  2023-11-09 10:37:18.726101
2756  2023-11-09 10:37:18.757982
2757  2023-11-09 10:37:18.805891
2758  2023-11-09 10:37:18.853830
2759  2023-11-09 10:37:18.885783
2760  2023-11-09 10:37:18.933616
2761  2023-11-09 10:37:18.980524
2762  2023-11-09 10:37:19.010437
2763  2023-11-09 10:37:19.058283
2764  2023-11-09 10:37:19.106186
2765  2023-11-09 10:37:19.138105
2766  2023-11-09 10:37:19.185972
2767  2023-11-09 10:37:19.217900
2768  2023-11-09 10:37:19.265729
2769  2023-11-09 10:37:19.314599
2770  2023-11-09 10:37:19.344564
2771  2023-11-09 10:37:19.392437
2772  2023-11-09 10:37:19.440433
2773  2023-11-09 10:37:19.473359
2774  2023-11-09 10:37:19.521236
2775  2023-11-09 10:37:19.553149
2776  2023-11-09 10:37:19.598977
2777  2023-11-09 10:37:19.646911
2778  2023-11-09 10:37:19.678808
2779  2023-11-09 10:37:19.726634
2780  2023-11-09 10:37:19.760609
2781  2023-11-09 10:37:19.806420
2782  2023-11-09 10:37:19.854339
2783  2023-11-09 10:37:19.886259
2784  2023-11-09 10:37:19.934079
2785  2023-11-09 10:37:19.978991
2786  2023-11-09 10:37:20.009877
2787  2023-11-09 10:37:20.056751
2788  2023-11-09 10:37:20.102628
2789  2023-11-09 10:37:20.133545
2790  2023-11-09 10:37:20.181453
2791  2023-11-09 10:37:20.227327
2792  2023-11-09 10:37:20.259245
2793  2023-11-09 10:37:20.307121
2794  2023-11-09 10:37:20.354985
2795  2023-11-09 10:37:20.386906
2796  2023-11-09 10:37:20.434792
2797  2023-11-09 10:37:20.466819
2798  2023-11-09 10:37:20.514770
2799  2023-11-09 10:37:20.561592
2800  2023-11-09 10:37:20.592542
2801  2023-11-09 10:37:20.640420
2802  2023-11-09 10:37:20.688298
2803  2023-11-09 10:37:20.720214
2804  2023-11-09 10:37:20.768245
2805  2023-11-09 10:37:20.800161
2806  2023-11-09 10:37:20.848033
2807  2023-11-09 10:37:20.896011
2808  2023-11-09 10:37:20.927820
2809  2023-11-09 10:37:20.975661
2810  2023-11-09 10:37:21.007608
2811  2023-11-09 10:37:21.055481
2812  2023-11-09 10:37:21.104371
2813  2023-11-09 10:37:21.136281
2814  2023-11-09 10:37:21.184135
2815  2023-11-09 10:37:21.232020
2816  2023-11-09 10:37:21.262938
2817  2023-11-09 10:37:21.310771
2818  2023-11-09 10:37:21.342761
2819  2023-11-09 10:37:21.391642
2820  2023-11-09 10:37:21.438525
2821  2023-11-09 10:37:21.470396
2822  2023-11-09 10:37:21.518288
2823  2023-11-09 10:37:21.551379
2824  2023-11-09 10:37:21.598227
2825  2023-11-09 10:37:21.646068
2826  2023-11-09 10:37:21.677983
2827  2023-11-09 10:37:21.725854
2828  2023-11-09 10:37:21.757800
2829  2023-11-09 10:37:21.804681
2830  2023-11-09 10:37:21.852566
2831  2023-11-09 10:37:21.885461
2832  2023-11-09 10:37:21.932355
2833  2023-11-09 10:37:21.979183
2834  2023-11-09 10:37:22.011129
2835  2023-11-09 10:37:22.057966
2836  2023-11-09 10:37:22.103843
2837  2023-11-09 10:37:22.133763
2838  2023-11-09 10:37:22.181689
2839  2023-11-09 10:37:22.229648
2840  2023-11-09 10:37:22.261563
2841  2023-11-09 10:37:22.308607
2842  2023-11-09 10:37:22.355486
2843  2023-11-09 10:37:22.387511
2844  2023-11-09 10:37:22.435420
2845  2023-11-09 10:37:22.467335
2846  2023-11-09 10:37:22.515285
2847  2023-11-09 10:37:22.561169
2848  2023-11-09 10:37:22.593090
2849  2023-11-09 10:37:22.640957
2850  2023-11-09 10:37:22.688834
2851  2023-11-09 10:37:22.720912
2852  2023-11-09 10:37:22.768616
2853  2023-11-09 10:37:22.800531
2854  2023-11-09 10:37:22.848407
2855  2023-11-09 10:37:22.896275
2856  2023-11-09 10:37:22.928211
2857  2023-11-09 10:37:22.976067
2858  2023-11-09 10:37:23.021935
2859  2023-11-09 10:37:23.052821
2860  2023-11-09 10:37:23.099734
2861  2023-11-09 10:37:23.148612
2862  2023-11-09 10:37:23.178483
2863  2023-11-09 10:37:23.228415
2864  2023-11-09 10:37:23.260308
2865  2023-11-09 10:37:23.307166
2866  2023-11-09 10:37:23.354013
2867  2023-11-09 10:37:23.385927
2868  2023-11-09 10:37:23.433799
2869  2023-11-09 10:37:23.480674
2870  2023-11-09 10:37:23.510632
2871  2023-11-09 10:37:23.558466
2872  2023-11-09 10:37:23.606313
2873  2023-11-09 10:37:23.637496
2874  2023-11-09 10:37:23.684372
2875  2023-11-09 10:37:23.716286
2876  2023-11-09 10:37:23.764212
2877  2023-11-09 10:37:23.812130
2878  2023-11-09 10:37:23.844034
2879  2023-11-09 10:37:23.891902
2880  2023-11-09 10:37:23.938804
2881  2023-11-09 10:37:23.970697
2882  2023-11-09 10:37:24.018564
2883  2023-11-09 10:37:24.050483
2884  2023-11-09 10:37:24.098359
2885  2023-11-09 10:37:24.146231
2886  2023-11-09 10:37:24.177109
2887  2023-11-09 10:37:24.224019
2888  2023-11-09 10:37:24.271895
2889  2023-11-09 10:37:24.303803
2890  2023-11-09 10:37:24.351672
2891  2023-11-09 10:37:24.383660
2892  2023-11-09 10:37:24.431533
2893  2023-11-09 10:37:24.478404
2894  2023-11-09 10:37:24.509323
2895  2023-11-09 10:37:24.557272
2896  2023-11-09 10:37:24.605108
2897  2023-11-09 10:37:24.636025
2898  2023-11-09 10:37:24.682937
2899  2023-11-09 10:37:24.730814
2900  2023-11-09 10:37:24.763684
2901  2023-11-09 10:37:24.808563
2902  2023-11-09 10:37:24.855438
2903  2023-11-09 10:37:24.887352
2904  2023-11-09 10:37:24.935226
2905  2023-11-09 10:37:24.967140
2906  2023-11-09 10:37:25.015042
2907  2023-11-09 10:37:25.061919
2908  2023-11-09 10:37:25.092839
2909  2023-11-09 10:37:25.138842
2910  2023-11-09 10:37:25.186382
2911  2023-11-09 10:37:25.218277
2912  2023-11-09 10:37:25.265850
2913  2023-11-09 10:37:25.313840
2914  2023-11-09 10:37:25.345755
2915  2023-11-09 10:37:25.392664
2916  2023-11-09 10:37:25.439614
2917  2023-11-09 10:37:25.471527
2918  2023-11-09 10:37:25.519578
2919  2023-11-09 10:37:25.551490
2920  2023-11-09 10:37:25.599362
2921  2023-11-09 10:37:25.647233
2922  2023-11-09 10:37:25.679152
2923  2023-11-09 10:37:25.727023
2924  2023-11-09 10:37:25.758938
2925  2023-11-09 10:37:25.804814
2926  2023-11-09 10:37:25.853705
2927  2023-11-09 10:37:25.884613
2928  2023-11-09 10:37:25.933482
2929  2023-11-09 10:37:25.981561
2930  2023-11-09 10:37:26.014421
2931  2023-11-09 10:37:26.060290
2932  2023-11-09 10:37:26.106167
2933  2023-11-09 10:37:26.138102
2934  2023-11-09 10:37:26.183979
2935  2023-11-09 10:37:26.215849
2936  2023-11-09 10:37:26.262030
2937  2023-11-09 10:37:26.307947
2938  2023-11-09 10:37:26.355811
2939  2023-11-09 10:37:26.387694
2940  2023-11-09 10:37:26.435599
2941  2023-11-09 10:37:26.467481
2942  2023-11-09 10:37:26.514390
2943  2023-11-09 10:37:26.562077
2944  2023-11-09 10:37:26.593993
2945  2023-11-09 10:37:26.641904
2946  2023-11-09 10:37:26.688776
2947  2023-11-09 10:37:26.719695
2948  2023-11-09 10:37:26.767559
2949  2023-11-09 10:37:26.799475
2950  2023-11-09 10:37:26.847354
2951  2023-11-09 10:37:26.895218
2952  2023-11-09 10:37:26.927138
2953  2023-11-09 10:37:26.974975
2954  2023-11-09 10:37:27.022060
2955  2023-11-09 10:37:27.052934
2956  2023-11-09 10:37:27.100844
2957  2023-11-09 10:37:27.132867
2958  2023-11-09 10:37:27.180629
2959  2023-11-09 10:37:27.226568
2960  2023-11-09 10:37:27.257647
2961  2023-11-09 10:37:27.304526
2962  2023-11-09 10:37:27.353397
2963  2023-11-09 10:37:27.385297
2964  2023-11-09 10:37:27.433181
2965  2023-11-09 10:37:27.481048
2966  2023-11-09 10:37:27.510928
2967  2023-11-09 10:37:27.556806
2968  2023-11-09 10:37:27.603439
2969  2023-11-09 10:37:27.635092
2970  2023-11-09 10:37:27.682964
2971  2023-11-09 10:37:27.730800
2972  2023-11-09 10:37:27.762715
2973  2023-11-09 10:37:27.809644
2974  2023-11-09 10:37:27.855638
2975  2023-11-09 10:37:27.887415
2976  2023-11-09 10:37:27.933293
2977  2023-11-09 10:37:27.981133
2978  2023-11-09 10:37:28.013082
2979  2023-11-09 10:37:28.060951
2980  2023-11-09 10:37:28.092874
2981  2023-11-09 10:37:28.140705
2982  2023-11-09 10:37:28.185585
2983  2023-11-09 10:37:28.216502
2984  2023-11-09 10:37:28.264374
2985  2023-11-09 10:37:28.310251
2986  2023-11-09 10:37:28.341169
2987  2023-11-09 10:37:28.388143
2988  2023-11-09 10:37:28.435921
2989  2023-11-09 10:37:28.467868
2990  2023-11-09 10:37:28.515796
2991  2023-11-09 10:37:28.563631
2992  2023-11-09 10:37:28.595546
2993  2023-11-09 10:37:28.643454
2994  2023-11-09 10:37:28.675367
2995  2023-11-09 10:37:28.723236
2996  2023-11-09 10:37:28.771111
2997  2023-11-09 10:37:28.803022
2998  2023-11-09 10:37:28.850901
2999  2023-11-09 10:37:28.882807
3000  2023-11-09 10:37:28.930650
3001  2023-11-09 10:37:28.978557
3002  2023-11-09 10:37:29.010473
3003  2023-11-09 10:37:29.058268
3004  2023-11-09 10:37:29.105142
3005  2023-11-09 10:37:29.137137
3006  2023-11-09 10:37:29.183018
3007  2023-11-09 10:37:29.230885
3008  2023-11-09 10:37:29.261814
3009  2023-11-09 10:37:29.308646
3010  2023-11-09 10:37:29.355554
3011  2023-11-09 10:37:29.386475
3012  2023-11-09 10:37:29.433346
3013  2023-11-09 10:37:29.481220
3014  2023-11-09 10:37:29.514125
3015  2023-11-09 10:37:29.560006
3016  2023-11-09 10:37:29.604980
3017  2023-11-09 10:37:29.636769
3018  2023-11-09 10:37:29.684639
3019  2023-11-09 10:37:29.716593
3020  2023-11-09 10:37:29.764426
3021  2023-11-09 10:37:29.811336
3022  2023-11-09 10:37:29.842271
3023  2023-11-09 10:37:29.889126
3024  2023-11-09 10:37:29.936996
3025  2023-11-09 10:37:29.968911
3026  2023-11-09 10:37:30.016785
3027  2023-11-09 10:37:30.064653
3028  2023-11-09 10:37:30.096538
3029  2023-11-09 10:37:30.144447
3030  2023-11-09 10:37:30.176358
3031  2023-11-09 10:37:30.223237
3032  2023-11-09 10:37:30.270111
3033  2023-11-09 10:37:30.302028
3034  2023-11-09 10:37:30.349901
3035  2023-11-09 10:37:30.397776
3036  2023-11-09 10:37:30.429680
3037  2023-11-09 10:37:30.477553
3038  2023-11-09 10:37:30.509447
3039  2023-11-09 10:37:30.557338
3040  2023-11-09 10:37:30.604214
3041  2023-11-09 10:37:30.636136
3042  2023-11-09 10:37:30.683006
3043  2023-11-09 10:37:30.729882
3044  2023-11-09 10:37:30.760795
3045  2023-11-09 10:37:30.807671
3046  2023-11-09 10:37:30.855511
3047  2023-11-09 10:37:30.886465
3048  2023-11-09 10:37:30.934459
3049  2023-11-09 10:37:30.966246
3050  2023-11-09 10:37:31.014117
3051  2023-11-09 10:37:31.062988
3052  2023-11-09 10:37:31.094170
3053  2023-11-09 10:37:31.142114
3054  2023-11-09 10:37:31.190990
3055  2023-11-09 10:37:31.220874
3056  2023-11-09 10:37:31.271775
3057  2023-11-09 10:37:31.302687
3058  2023-11-09 10:37:31.348566
3059  2023-11-09 10:37:31.396404
3060  2023-11-09 10:37:31.428432
3061  2023-11-09 10:37:31.476425
3062  2023-11-09 10:37:31.508218
3063  2023-11-09 10:37:31.554145
3064  2023-11-09 10:37:31.602057
3065  2023-11-09 10:37:31.633951
3066  2023-11-09 10:37:31.681821
3067  2023-11-09 10:37:31.726716
3068  2023-11-09 10:37:31.757615
3069  2023-11-09 10:37:31.805466
3070  2023-11-09 10:37:31.853328
3071  2023-11-09 10:37:31.885244
3072  2023-11-09 10:37:31.930123
3073  2023-11-09 10:37:31.976999
3074  2023-11-09 10:37:32.008915
3075  2023-11-09 10:37:32.056784
3076  2023-11-09 10:37:32.103691
3077  2023-11-09 10:37:32.133617
3078  2023-11-09 10:37:32.182487
3079  2023-11-09 10:37:32.226362
3080  2023-11-09 10:37:32.272243
3081  2023-11-09 10:37:32.304155
3082  2023-11-09 10:37:32.351359
3083  2023-11-09 10:37:32.383317
3084  2023-11-09 10:37:32.431191
3085  2023-11-09 10:37:32.479053
3086  2023-11-09 10:37:32.510963
3087  2023-11-09 10:37:32.556839
3088  2023-11-09 10:37:32.604720
3089  2023-11-09 10:37:32.636626
3090  2023-11-09 10:37:32.684504
3091  2023-11-09 10:37:32.716416
3092  2023-11-09 10:37:32.764288
3093  2023-11-09 10:37:32.812161
3094  2023-11-09 10:37:32.843522
3095  2023-11-09 10:37:32.891392
3096  2023-11-09 10:37:32.939266
3097  2023-11-09 10:37:32.972230
3098  2023-11-09 10:37:33.019125
3099  2023-11-09 10:37:33.051020
3100  2023-11-09 10:37:33.096910
3101  2023-11-09 10:37:33.143748
3102  2023-11-09 10:37:33.175751
3103  2023-11-09 10:37:33.223582
3104  2023-11-09 10:37:33.273451
3105  2023-11-09 10:37:33.303455
3106  2023-11-09 10:37:33.349330
3107  2023-11-09 10:37:33.397214
3108  2023-11-09 10:37:33.427126
3109  2023-11-09 10:37:33.474997
3110  2023-11-09 10:37:33.522974
3111  2023-11-09 10:37:33.553760
3112  2023-11-09 10:37:33.600792
3113  2023-11-09 10:37:33.632682
3114  2023-11-09 10:37:33.680624
3115  2023-11-09 10:37:33.728463
3116  2023-11-09 10:37:33.759998
3117  2023-11-09 10:37:33.805877
3118  2023-11-09 10:37:33.853748
3119  2023-11-09 10:37:33.885662
3120  2023-11-09 10:37:33.933541
3121  2023-11-09 10:37:33.980441
3122  2023-11-09 10:37:34.011530
3123  2023-11-09 10:37:34.060230
3124  2023-11-09 10:37:34.091145
3125  2023-11-09 10:37:34.139017
3126  2023-11-09 10:37:34.186887
3127  2023-11-09 10:37:34.218773
3128  2023-11-09 10:37:34.266674
3129  2023-11-09 10:37:34.314549
3130  2023-11-09 10:37:34.346478
3131  2023-11-09 10:37:34.394336
3132  2023-11-09 10:37:34.427215
3133  2023-11-09 10:37:34.472139
3134  2023-11-09 10:37:34.520136
3135  2023-11-09 10:37:34.551925
3136  2023-11-09 10:37:34.599785
3137  2023-11-09 10:37:34.647693
3138  2023-11-09 10:37:34.679608
3139  2023-11-09 10:37:34.727547
3140  2023-11-09 10:37:34.759462
3141  2023-11-09 10:37:34.805341
3142  2023-11-09 10:37:34.854211
3143  2023-11-09 10:37:34.885129
3144  2023-11-09 10:37:34.934000
3145  2023-11-09 10:37:34.979888
3146  2023-11-09 10:37:35.009817
3147  2023-11-09 10:37:35.057646
3148  2023-11-09 10:37:35.103517
3149  2023-11-09 10:37:35.135436
3150  2023-11-09 10:37:35.183304
3151  2023-11-09 10:37:35.230179
3152  2023-11-09 10:37:35.261096
3153  2023-11-09 10:37:35.308968
3154  2023-11-09 10:37:35.340920
3155  2023-11-09 10:37:35.386973
3156  2023-11-09 10:37:35.434800
3157  2023-11-09 10:37:35.466715
3158  2023-11-09 10:37:35.513589
3159  2023-11-09 10:37:35.561461
3160  2023-11-09 10:37:35.593376
3161  2023-11-09 10:37:35.641249
3162  2023-11-09 10:37:35.689120
3163  2023-11-09 10:37:35.721035
3164  2023-11-09 10:37:35.768907
3165  2023-11-09 10:37:35.800821
3166  2023-11-09 10:37:35.848759
3167  2023-11-09 10:37:35.896631
3168  2023-11-09 10:37:35.928550
3169  2023-11-09 10:37:35.976420
3170  2023-11-09 10:37:36.008332
3171  2023-11-09 10:37:36.056207
3172  2023-11-09 10:37:36.102085
3173  2023-11-09 10:37:36.134003
3174  2023-11-09 10:37:36.181870
3175  2023-11-09 10:37:36.227762
3176  2023-11-09 10:37:36.259662
3177  2023-11-09 10:37:36.307534
3178  2023-11-09 10:37:36.351429
3179  2023-11-09 10:37:36.383329
3180  2023-11-09 10:37:36.431210
3181  2023-11-09 10:37:36.477060
3182  2023-11-09 10:37:36.509001
3183  2023-11-09 10:37:36.556948
3184  2023-11-09 10:37:36.604915
3185  2023-11-09 10:37:36.636799
3186  2023-11-09 10:37:36.684671
3187  2023-11-09 10:37:36.716618
3188  2023-11-09 10:37:36.764501
3189  2023-11-09 10:37:36.812361
3190  2023-11-09 10:37:36.844276
3191  2023-11-09 10:37:36.892124
3192  2023-11-09 10:37:36.939000
3193  2023-11-09 10:37:36.969916
3194  2023-11-09 10:37:37.018824
3195  2023-11-09 10:37:37.049743
3196  2023-11-09 10:37:37.097645
3197  2023-11-09 10:37:37.145530
3198  2023-11-09 10:37:37.177435
3199  2023-11-09 10:37:37.225303
3200  2023-11-09 10:37:37.272180
3201  2023-11-09 10:37:37.304063
3202  2023-11-09 10:37:37.351971
3203  2023-11-09 10:37:37.383884
3204  2023-11-09 10:37:37.431838
3205  2023-11-09 10:37:37.476782
3206  2023-11-09 10:37:37.508694
3207  2023-11-09 10:37:37.555572
3208  2023-11-09 10:37:37.604530
3209  2023-11-09 10:37:37.635447
3210  2023-11-09 10:37:37.684319
3211  2023-11-09 10:37:37.732198
3212  2023-11-09 10:37:37.764105
3213  2023-11-09 10:37:37.809987
3214  2023-11-09 10:37:37.841896
3215  2023-11-09 10:37:37.887780
3216  2023-11-09 10:37:37.935647
3217  2023-11-09 10:37:37.967559
3218  2023-11-09 10:37:38.014435
3219  2023-11-09 10:37:38.062309
3220  2023-11-09 10:37:38.093193
3221  2023-11-09 10:37:38.141098
3222  2023-11-09 10:37:38.188961
3223  2023-11-09 10:37:38.220887
3224  2023-11-09 10:37:38.268757
3225  2023-11-09 10:37:38.300673
3226  2023-11-09 10:37:38.347514
3227  2023-11-09 10:37:38.393392
3228  2023-11-09 10:37:38.424309
3229  2023-11-09 10:37:38.470186
3230  2023-11-09 10:37:38.517061
3231  2023-11-09 10:37:38.563937
3232  2023-11-09 10:37:38.593857
3233  2023-11-09 10:37:38.639772
3234  2023-11-09 10:37:38.687634
3235  2023-11-09 10:37:38.719549
3236  2023-11-09 10:37:38.767427
3237  2023-11-09 10:37:38.814297
3238  2023-11-09 10:37:38.846182
3239  2023-11-09 10:37:38.893054
3240  2023-11-09 10:37:38.938932
3241  2023-11-09 10:37:38.969634
3242  2023-11-09 10:37:39.017561
3243  2023-11-09 10:37:39.049507
3244  2023-11-09 10:37:39.097459
3245  2023-11-09 10:37:39.145295
3246  2023-11-09 10:37:39.176244
3247  2023-11-09 10:37:39.223120
3248  2023-11-09 10:37:39.270994
3249  2023-11-09 10:37:39.302874
3250  2023-11-09 10:37:39.349781
3251  2023-11-09 10:37:39.397651
3252  2023-11-09 10:37:39.429566
3253  2023-11-09 10:37:39.477437
3254  2023-11-09 10:37:39.509352
3255  2023-11-09 10:37:39.557372
3256  2023-11-09 10:37:39.605297
3257  2023-11-09 10:37:39.637215
3258  2023-11-09 10:37:39.685086
3259  2023-11-09 10:37:39.717001
3260  2023-11-09 10:37:39.764874
3261  2023-11-09 10:37:39.812744
3262  2023-11-09 10:37:39.844658
3263  2023-11-09 10:37:39.891504
3264  2023-11-09 10:37:39.938406
3265  2023-11-09 10:37:39.971424
3266  2023-11-09 10:37:40.018301
3267  2023-11-09 10:37:40.051212
3268  2023-11-09 10:37:40.098092
3269  2023-11-09 10:37:40.145956
3270  2023-11-09 10:37:40.177869
3271  2023-11-09 10:37:40.225744
3272  2023-11-09 10:37:40.257660
3273  2023-11-09 10:37:40.305536
3274  2023-11-09 10:37:40.354402
3275  2023-11-09 10:37:40.384847
3276  2023-11-09 10:37:40.432685
3277  2023-11-09 10:37:40.480639
3278  2023-11-09 10:37:40.510560
3279  2023-11-09 10:37:40.556528
3280  2023-11-09 10:37:40.602405
3281  2023-11-09 10:37:40.633322
3282  2023-11-09 10:37:40.680230
3283  2023-11-09 10:37:40.728102
3284  2023-11-09 10:37:40.760016
3285  2023-11-09 10:37:40.807925
3286  2023-11-09 10:37:40.855826
3287  2023-11-09 10:37:40.887711
3288  2023-11-09 10:37:40.935692
3289  2023-11-09 10:37:40.966612
3290  2023-11-09 10:37:41.014597
3291  2023-11-09 10:37:41.061469
3292  2023-11-09 10:37:41.093383
3293  2023-11-09 10:37:41.139260
3294  2023-11-09 10:37:41.187139
3295  2023-11-09 10:37:41.219048
3296  2023-11-09 10:37:41.266998
3297  2023-11-09 10:37:41.314837
3298  2023-11-09 10:37:41.344763
3299  2023-11-09 10:37:41.391756
3300  2023-11-09 10:37:41.439631
3301  2023-11-09 10:37:41.471506
3302  2023-11-09 10:37:41.519413
3303  2023-11-09 10:37:41.551336
3304  2023-11-09 10:37:41.600195
3305  2023-11-09 10:37:41.647177
3306  2023-11-09 10:37:41.679229
3307  2023-11-09 10:37:41.727111
3308  2023-11-09 10:37:41.760008
3309  2023-11-09 10:37:41.807882
3310  2023-11-09 10:37:41.855854
3311  2023-11-09 10:37:41.883936
3312  2023-11-09 10:37:41.931805
3313  2023-11-09 10:37:41.979648
3314  2023-11-09 10:37:42.011597
3315  2023-11-09 10:37:42.058437
3316  2023-11-09 10:37:42.106309
3317  2023-11-09 10:37:42.138224
3318  2023-11-09 10:37:42.187273
3319  2023-11-09 10:37:42.219187
3320  2023-11-09 10:37:42.266030
3321  2023-11-09 10:37:42.314903
3322  2023-11-09 10:37:42.345817
3323  2023-11-09 10:37:42.393689
3324  2023-11-09 10:37:42.425717
3325  2023-11-09 10:37:42.473619
3326  2023-11-09 10:37:42.520493
3327  2023-11-09 10:37:42.551445
3328  2023-11-09 10:37:42.599311
3329  2023-11-09 10:37:42.646829
3330  2023-11-09 10:37:42.678735
3331  2023-11-09 10:37:42.726711
3332  2023-11-09 10:37:42.757629
3333  2023-11-09 10:37:42.804645
3334  2023-11-09 10:37:42.852383
3335  2023-11-09 10:37:42.884354
3336  2023-11-09 10:37:42.932222
3337  2023-11-09 10:37:42.980093
3338  2023-11-09 10:37:43.012005
3339  2023-11-09 10:37:43.059877
3340  2023-11-09 10:37:43.090794
3341  2023-11-09 10:37:43.137672
3342  2023-11-09 10:37:43.185564
3343  2023-11-09 10:37:43.217456
3344  2023-11-09 10:37:43.265529
3345  2023-11-09 10:37:43.313395
3346  2023-11-09 10:37:43.345293
3347  2023-11-09 10:37:43.391144
3348  2023-11-09 10:37:43.440043
3349  2023-11-09 10:37:43.472970
3350  2023-11-09 10:37:43.518848
3351  2023-11-09 10:37:43.550751
3352  2023-11-09 10:37:43.598630
3353  2023-11-09 10:37:43.647460
3354  2023-11-09 10:37:43.678407
3355  2023-11-09 10:37:43.727292
3356  2023-11-09 10:37:43.772159
3357  2023-11-09 10:37:43.802277
3358  2023-11-09 10:37:43.850204
3359  2023-11-09 10:37:43.897077
3360  2023-11-09 10:37:43.928992
3361  2023-11-09 10:37:43.975024
3362  2023-11-09 10:37:44.022896
3363  2023-11-09 10:37:44.054944
3364  2023-11-09 10:37:44.101397
3365  2023-11-09 10:37:44.133342
3366  2023-11-09 10:37:44.180393
3367  2023-11-09 10:37:44.227141
3368  2023-11-09 10:37:44.258768
3369  2023-11-09 10:37:44.305612
3370  2023-11-09 10:37:44.353485
3371  2023-11-09 10:37:44.385400
3372  2023-11-09 10:37:44.433350
3373  2023-11-09 10:37:44.481188
3374  2023-11-09 10:37:44.513149
3375  2023-11-09 10:37:44.560020
3376  2023-11-09 10:37:44.591924
3377  2023-11-09 10:37:44.637821
3378  2023-11-09 10:37:44.685682
3379  2023-11-09 10:37:44.718000
3380  2023-11-09 10:37:44.765963
3381  2023-11-09 10:37:44.813853
3382  2023-11-09 10:37:44.845621
3383  2023-11-09 10:37:44.893508
3384  2023-11-09 10:37:44.938343
3385  2023-11-09 10:37:44.970257
3386  2023-11-09 10:37:45.019162
3387  2023-11-09 10:37:45.064007
3388  2023-11-09 10:37:45.093927
3389  2023-11-09 10:37:45.139837
3390  2023-11-09 10:37:45.185720
3391  2023-11-09 10:37:45.217631
3392  2023-11-09 10:37:45.265046
3393  2023-11-09 10:37:45.311965
3394  2023-11-09 10:37:45.342840
3395  2023-11-09 10:37:45.388747
3396  2023-11-09 10:37:45.437618
3397  2023-11-09 10:37:45.469999
3398  2023-11-09 10:37:45.516984
3399  2023-11-09 10:37:45.563828
3400  2023-11-09 10:37:45.596783
3401  2023-11-09 10:37:45.644649
3402  2023-11-09 10:37:45.677567
3403  2023-11-09 10:37:45.725554
3404  2023-11-09 10:37:45.773406
3405  2023-11-09 10:37:45.805301
3406  2023-11-09 10:37:45.853204
3407  2023-11-09 10:37:45.883094
3408  2023-11-09 10:37:45.933009
3409  2023-11-09 10:37:45.979836
3410  2023-11-09 10:37:46.011756
3411  2023-11-09 10:37:46.058626
3412  2023-11-09 10:37:46.105499
3413  2023-11-09 10:37:46.136416
3414  2023-11-09 10:37:46.183295
3415  2023-11-09 10:37:46.231164
3416  2023-11-09 10:37:46.262116
3417  2023-11-09 10:37:46.308987
3418  2023-11-09 10:37:46.340902
3419  2023-11-09 10:37:46.388465
3420  2023-11-09 10:37:46.435407
3421  2023-11-09 10:37:46.466426
3422  2023-11-09 10:37:46.514293
3423  2023-11-09 10:37:46.562246
3424  2023-11-09 10:37:46.594162
3425  2023-11-09 10:37:46.642042
3426  2023-11-09 10:37:46.688908
3427  2023-11-09 10:37:46.719825
3428  2023-11-09 10:37:46.767250
3429  2023-11-09 10:37:46.800161
3430  2023-11-09 10:37:46.847036
3431  2023-11-09 10:37:46.895922
3432  2023-11-09 10:37:46.926826
3433  2023-11-09 10:37:46.975869
3434  2023-11-09 10:37:47.023727
3435  2023-11-09 10:37:47.054644
3436  2023-11-09 10:37:47.103514
3437  2023-11-09 10:37:47.132397
3438  2023-11-09 10:37:47.181317
3439  2023-11-09 10:37:47.228174
3440  2023-11-09 10:37:47.260086
3441  2023-11-09 10:37:47.309954
3442  2023-11-09 10:37:47.352978
3443  2023-11-09 10:37:47.383894
3444  2023-11-09 10:37:47.431766
3445  2023-11-09 10:37:47.479638
3446  2023-11-09 10:37:47.510589
3447  2023-11-09 10:37:47.557653
3448  2023-11-09 10:37:47.603806
3449  2023-11-09 10:37:47.635878
3450  2023-11-09 10:37:47.683715
3451  2023-11-09 10:37:47.731150
3452  2023-11-09 10:37:47.763062
3453  2023-11-09 10:37:47.810932
3454  2023-11-09 10:37:47.842844
3455  2023-11-09 10:37:47.890864
3456  2023-11-09 10:37:47.938517
3457  2023-11-09 10:37:47.970430
3458  2023-11-09 10:37:48.018310
3459  2023-11-09 10:37:48.050219
3460  2023-11-09 10:37:48.098099
3461  2023-11-09 10:37:48.145962
3462  2023-11-09 10:37:48.177699
3463  2023-11-09 10:37:48.224587
3464  2023-11-09 10:37:48.272442
3465  2023-11-09 10:37:48.305323
3466  2023-11-09 10:37:48.352227
3467  2023-11-09 10:37:48.384146
3468  2023-11-09 10:37:48.430027
3469  2023-11-09 10:37:48.476894
3470  2023-11-09 10:37:48.508821
3471  2023-11-09 10:37:48.556651
3472  2023-11-09 10:37:48.605576
3473  2023-11-09 10:37:48.636476
3474  2023-11-09 10:37:48.683360
3475  2023-11-09 10:37:48.731309
3476  2023-11-09 10:37:48.763222
3477  2023-11-09 10:37:48.811095
3478  2023-11-09 10:37:48.843009
3479  2023-11-09 10:37:48.887810
3480  2023-11-09 10:37:48.935683
3481  2023-11-09 10:37:48.967597
3482  2023-11-09 10:37:49.014472
3483  2023-11-09 10:37:49.062344
3484  2023-11-09 10:37:49.094292
3485  2023-11-09 10:37:49.142160
3486  2023-11-09 10:37:49.174082
3487  2023-11-09 10:37:49.222068
3488  2023-11-09 10:37:49.269821
3489  2023-11-09 10:37:49.301739
3490  2023-11-09 10:37:49.349606
3491  2023-11-09 10:37:49.397448
3492  2023-11-09 10:37:49.429394
3493  2023-11-09 10:37:49.475274
3494  2023-11-09 10:37:49.521463
3495  2023-11-09 10:37:49.552376
3496  2023-11-09 10:37:49.599246
3497  2023-11-09 10:37:49.647122
3498  2023-11-09 10:37:49.679031
3499  2023-11-09 10:37:49.725914
3500  2023-11-09 10:37:49.757825
3501  2023-11-09 10:37:49.805691
3502  2023-11-09 10:37:49.853534
3503  2023-11-09 10:37:49.886446
3504  2023-11-09 10:37:49.934363
3505  2023-11-09 10:37:49.982235
3506  2023-11-09 10:37:50.014112
3507  2023-11-09 10:37:50.061010
3508  2023-11-09 10:37:50.091942
3509  2023-11-09 10:37:50.140765
3510  2023-11-09 10:37:50.187675
3511  2023-11-09 10:37:50.219573
3512  2023-11-09 10:37:50.268425
3513  2023-11-09 10:37:50.300400
3514  2023-11-09 10:37:50.346354
3515  2023-11-09 10:37:50.394228
3516  2023-11-09 10:37:50.426139
3517  2023-11-09 10:37:50.474036
3518  2023-11-09 10:37:50.521883
3519  2023-11-09 10:37:50.553804
3520  2023-11-09 10:37:50.601686
3521  2023-11-09 10:37:50.633586
3522  2023-11-09 10:37:50.682424
3523  2023-11-09 10:37:50.729328
3524  2023-11-09 10:37:50.761245
3525  2023-11-09 10:37:50.809270
3526  2023-11-09 10:37:50.854187
3527  2023-11-09 10:37:50.885110
3528  2023-11-09 10:37:50.932025
3529  2023-11-09 10:37:50.979888
3530  2023-11-09 10:37:51.011539
3531  2023-11-09 10:37:51.059604
3532  2023-11-09 10:37:51.105474
3533  2023-11-09 10:37:51.137393
3534  2023-11-09 10:37:51.185354
3535  2023-11-09 10:37:51.217239
3536  2023-11-09 10:37:51.265111
3537  2023-11-09 10:37:51.312982
3538  2023-11-09 10:37:51.344937
3539  2023-11-09 10:37:51.392955
3540  2023-11-09 10:37:51.438817
3541  2023-11-09 10:37:51.470736
3542  2023-11-09 10:37:51.518753
3543  2023-11-09 10:37:51.550541
3544  2023-11-09 10:37:51.599360
3545  2023-11-09 10:37:51.646267
3546  2023-11-09 10:37:51.678179
3547  2023-11-09 10:37:51.726057
3548  2023-11-09 10:37:51.757973
3549  2023-11-09 10:37:51.806016
3550  2023-11-09 10:37:51.853886
3551  2023-11-09 10:37:51.885778
3552  2023-11-09 10:37:51.933656
3553  2023-11-09 10:37:51.980524
3554  2023-11-09 10:37:52.011413
3555  2023-11-09 10:37:52.059317
3556  2023-11-09 10:37:52.106194
3557  2023-11-09 10:37:52.138109
3558  2023-11-09 10:37:52.184988
3559  2023-11-09 10:37:52.216897
3560  2023-11-09 10:37:52.265765
3561  2023-11-09 10:37:52.309615
