
1  2023-10-25 15:47:08.909942
2  2023-10-25 15:47:08.956873
3  2023-10-25 15:47:08.987773
4  2023-10-25 15:47:09.035710
5  2023-10-25 15:47:09.083614
6  2023-10-25 15:47:09.115594
7  2023-10-25 15:47:09.163466
8  2023-10-25 15:47:09.195381
9  2023-10-25 15:47:09.242732
10  2023-10-25 15:47:09.290604
11  2023-10-25 15:47:09.322545
12  2023-10-25 15:47:09.368443
13  2023-10-25 15:47:09.416307
14  2023-10-25 15:47:09.448182
15  2023-10-25 15:47:09.496056
16  2023-10-25 15:47:09.528008
17  2023-10-25 15:47:09.575841
18  2023-10-25 15:47:09.623714
19  2023-10-25 15:47:09.655629
20  2023-10-25 15:47:09.703057
21  2023-10-25 15:47:09.734970
22  2023-10-25 15:47:09.782813
23  2023-10-25 15:47:09.830716
24  2023-10-25 15:47:09.862599
25  2023-10-25 15:47:09.909474
26  2023-10-25 15:47:09.956352
27  2023-10-25 15:47:09.986270
28  2023-10-25 15:47:10.034209
29  2023-10-25 15:47:10.083112
30  2023-10-25 15:47:10.113983
31  2023-10-25 15:47:10.161855
32  2023-10-25 15:47:10.193769
33  2023-10-25 15:47:10.242640
34  2023-10-25 15:47:10.289605
35  2023-10-25 15:47:10.322516
36  2023-10-25 15:47:10.369361
37  2023-10-25 15:47:10.417232
38  2023-10-25 15:47:10.447153
39  2023-10-25 15:47:10.495024
40  2023-10-25 15:47:10.526940
41  2023-10-25 15:47:10.573843
42  2023-10-25 15:47:10.621846
43  2023-10-25 15:47:10.652633
44  2023-10-25 15:47:10.699483
45  2023-10-25 15:47:10.747433
46  2023-10-25 15:47:10.779432
47  2023-10-25 15:47:10.827337
48  2023-10-25 15:47:10.875176
49  2023-10-25 15:47:10.907091
50  2023-10-25 15:47:10.954963
51  2023-10-25 15:47:10.985929
52  2023-10-25 15:47:11.033761
53  2023-10-25 15:47:11.080627
54  2023-10-25 15:47:11.112601
55  2023-10-25 15:47:11.160475
56  2023-10-25 15:47:11.208286
57  2023-10-25 15:47:11.240235
58  2023-10-25 15:47:11.288074
59  2023-10-25 15:47:11.319989
60  2023-10-25 15:47:11.366903
61  2023-10-25 15:47:11.416735
62  2023-10-25 15:47:11.444680
63  2023-10-25 15:47:11.492673
64  2023-10-25 15:47:11.540545
65  2023-10-25 15:47:11.572460
66  2023-10-25 15:47:11.620433
67  2023-10-25 15:47:11.652302
68  2023-10-25 15:47:11.701185
69  2023-10-25 15:47:11.748046
70  2023-10-25 15:47:11.780959
71  2023-10-25 15:47:11.827833
72  2023-10-25 15:47:11.874708
73  2023-10-25 15:47:11.905624
74  2023-10-25 15:47:11.953496
75  2023-10-25 15:47:11.985411
76  2023-10-25 15:47:12.032322
77  2023-10-25 15:47:12.079160
78  2023-10-25 15:47:12.110078
79  2023-10-25 15:47:12.157949
80  2023-10-25 15:47:12.205822
81  2023-10-25 15:47:12.237838
82  2023-10-25 15:47:12.284665
83  2023-10-25 15:47:12.330575
84  2023-10-25 15:47:12.362467
85  2023-10-25 15:47:12.410385
86  2023-10-25 15:47:12.456263
87  2023-10-25 15:47:12.489175
88  2023-10-25 15:47:12.536049
89  2023-10-25 15:47:12.582923
90  2023-10-25 15:47:12.613841
91  2023-10-25 15:47:12.661715
92  2023-10-25 15:47:12.707590
93  2023-10-25 15:47:12.739505
94  2023-10-25 15:47:12.786380
95  2023-10-25 15:47:12.833255
96  2023-10-25 15:47:12.865170
97  2023-10-25 15:47:12.912102
98  2023-10-25 15:47:12.957979
99  2023-10-25 15:47:12.989895
100  2023-10-25 15:47:13.036830
101  2023-10-25 15:47:13.082759
102  2023-10-25 15:47:13.113676
103  2023-10-25 15:47:13.161580
104  2023-10-25 15:47:13.193463
105  2023-10-25 15:47:13.241335
106  2023-10-25 15:47:13.289257
107  2023-10-25 15:47:13.321163
108  2023-10-25 15:47:13.369992
109  2023-10-25 15:47:13.416866
110  2023-10-25 15:47:13.448781
111  2023-10-25 15:47:13.495679
112  2023-10-25 15:47:13.526562
113  2023-10-25 15:47:13.574434
114  2023-10-25 15:47:13.622381
115  2023-10-25 15:47:13.654296
116  2023-10-25 15:47:13.702197
117  2023-10-25 15:47:13.750039
118  2023-10-25 15:47:13.781988
119  2023-10-25 15:47:13.829872
120  2023-10-25 15:47:13.861837
121  2023-10-25 15:47:13.909680
122  2023-10-25 15:47:13.956588
123  2023-10-25 15:47:13.988478
124  2023-10-25 15:47:14.036342
125  2023-10-25 15:47:14.068330
126  2023-10-25 15:47:14.116270
127  2023-10-25 15:47:14.164173
128  2023-10-25 15:47:14.195032
129  2023-10-25 15:47:14.242905
130  2023-10-25 15:47:14.290810
131  2023-10-25 15:47:14.322741
132  2023-10-25 15:47:14.370612
133  2023-10-25 15:47:14.402545
134  2023-10-25 15:47:14.450444
135  2023-10-25 15:47:14.498318
136  2023-10-25 15:47:14.528236
137  2023-10-25 15:47:14.576146
138  2023-10-25 15:47:14.622983
139  2023-10-25 15:47:14.654898
140  2023-10-25 15:47:14.702820
141  2023-10-25 15:47:14.749783
142  2023-10-25 15:47:14.780561
143  2023-10-25 15:47:14.828534
144  2023-10-25 15:47:14.860574
145  2023-10-25 15:47:14.908405
146  2023-10-25 15:47:14.956324
147  2023-10-25 15:47:14.987228
148  2023-10-25 15:47:15.035103
149  2023-10-25 15:47:15.081941
150  2023-10-25 15:47:15.113856
151  2023-10-25 15:47:15.161764
152  2023-10-25 15:47:15.193643
153  2023-10-25 15:47:15.241515
154  2023-10-25 15:47:15.289413
155  2023-10-25 15:47:15.321306
156  2023-10-25 15:47:15.368176
157  2023-10-25 15:47:15.415108
158  2023-10-25 15:47:15.446966
159  2023-10-25 15:47:15.495867
160  2023-10-25 15:47:15.527761
161  2023-10-25 15:47:15.574655
162  2023-10-25 15:47:15.622529
163  2023-10-25 15:47:15.654411
164  2023-10-25 15:47:15.700319
165  2023-10-25 15:47:15.748201
166  2023-10-25 15:47:15.780188
167  2023-10-25 15:47:15.827995
168  2023-10-25 15:47:15.859861
169  2023-10-25 15:47:15.906768
170  2023-10-25 15:47:15.951616
171  2023-10-25 15:47:15.998533
172  2023-10-25 15:47:16.030437
173  2023-10-25 15:47:16.078278
174  2023-10-25 15:47:16.110192
175  2023-10-25 15:47:16.157067
176  2023-10-25 15:47:16.203943
177  2023-10-25 15:47:16.235857
178  2023-10-25 15:47:16.283728
179  2023-10-25 15:47:16.331637
180  2023-10-25 15:47:16.363558
181  2023-10-25 15:47:16.411387
182  2023-10-25 15:47:16.443302
183  2023-10-25 15:47:16.491210
184  2023-10-25 15:47:16.539130
185  2023-10-25 15:47:16.571086
186  2023-10-25 15:47:16.618948
187  2023-10-25 15:47:16.666785
188  2023-10-25 15:47:16.698700
189  2023-10-25 15:47:16.746572
190  2023-10-25 15:47:16.778486
191  2023-10-25 15:47:16.826358
192  2023-10-25 15:47:16.874230
193  2023-10-25 15:47:16.906145
194  2023-10-25 15:47:16.954063
195  2023-10-25 15:47:16.985933
196  2023-10-25 15:47:17.031809
197  2023-10-25 15:47:17.079681
198  2023-10-25 15:47:17.111684
199  2023-10-25 15:47:17.159468
200  2023-10-25 15:47:17.207339
201  2023-10-25 15:47:17.239254
202  2023-10-25 15:47:17.287158
203  2023-10-25 15:47:17.319041
204  2023-10-25 15:47:17.366913
205  2023-10-25 15:47:17.413823
206  2023-10-25 15:47:17.445753
207  2023-10-25 15:47:17.493582
208  2023-10-25 15:47:17.541446
209  2023-10-25 15:47:17.573386
210  2023-10-25 15:47:17.620236
211  2023-10-25 15:47:17.666143
212  2023-10-25 15:47:17.697062
213  2023-10-25 15:47:17.744957
214  2023-10-25 15:47:17.776867
215  2023-10-25 15:47:17.824739
216  2023-10-25 15:47:17.872521
217  2023-10-25 15:47:17.904496
218  2023-10-25 15:47:17.952444
219  2023-10-25 15:47:18.000310
220  2023-10-25 15:47:18.032227
221  2023-10-25 15:47:18.080178
222  2023-10-25 15:47:18.112148
223  2023-10-25 15:47:18.158027
224  2023-10-25 15:47:18.205897
225  2023-10-25 15:47:18.237812
226  2023-10-25 15:47:18.286682
227  2023-10-25 15:47:18.333606
228  2023-10-25 15:47:18.365504
229  2023-10-25 15:47:18.413342
230  2023-10-25 15:47:18.445257
231  2023-10-25 15:47:18.493129
232  2023-10-25 15:47:18.541003
233  2023-10-25 15:47:18.572954
234  2023-10-25 15:47:18.620838
235  2023-10-25 15:47:18.652702
236  2023-10-25 15:47:18.700576
237  2023-10-25 15:47:18.748446
238  2023-10-25 15:47:18.780361
239  2023-10-25 15:47:18.827236
240  2023-10-25 15:47:18.874252
241  2023-10-25 15:47:18.906025
242  2023-10-25 15:47:18.953939
243  2023-10-25 15:47:18.985812
244  2023-10-25 15:47:19.034681
245  2023-10-25 15:47:19.081556
246  2023-10-25 15:47:19.113470
247  2023-10-25 15:47:19.161376
248  2023-10-25 15:47:19.193290
249  2023-10-25 15:47:19.241129
250  2023-10-25 15:47:19.289048
251  2023-10-25 15:47:19.320951
252  2023-10-25 15:47:19.368788
253  2023-10-25 15:47:19.416699
254  2023-10-25 15:47:19.448574
255  2023-10-25 15:47:19.496480
256  2023-10-25 15:47:19.528361
257  2023-10-25 15:47:19.576233
258  2023-10-25 15:47:19.624139
259  2023-10-25 15:47:19.656058
260  2023-10-25 15:47:19.703892
261  2023-10-25 15:47:19.735808
262  2023-10-25 15:47:19.783680
263  2023-10-25 15:47:19.831550
264  2023-10-25 15:47:19.863500
265  2023-10-25 15:47:19.911423
266  2023-10-25 15:47:19.943252
267  2023-10-25 15:47:19.991139
268  2023-10-25 15:47:20.038996
269  2023-10-25 15:47:20.069913
270  2023-10-25 15:47:20.116788
271  2023-10-25 15:47:20.164745
272  2023-10-25 15:47:20.196575
273  2023-10-25 15:47:20.244495
274  2023-10-25 15:47:20.291356
275  2023-10-25 15:47:20.322285
276  2023-10-25 15:47:20.368164
277  2023-10-25 15:47:20.415988
278  2023-10-25 15:47:20.447951
279  2023-10-25 15:47:20.495827
280  2023-10-25 15:47:20.526725
281  2023-10-25 15:47:20.574564
282  2023-10-25 15:47:20.622482
283  2023-10-25 15:47:20.654351
284  2023-10-25 15:47:20.702267
285  2023-10-25 15:47:20.750142
286  2023-10-25 15:47:20.782009
287  2023-10-25 15:47:20.829914
288  2023-10-25 15:47:20.861837
289  2023-10-25 15:47:20.909699
290  2023-10-25 15:47:20.957573
291  2023-10-25 15:47:20.989569
292  2023-10-25 15:47:21.037409
293  2023-10-25 15:47:21.068414
294  2023-10-25 15:47:21.115288
295  2023-10-25 15:47:21.163161
296  2023-10-25 15:47:21.195075
297  2023-10-25 15:47:21.242947
298  2023-10-25 15:47:21.290896
299  2023-10-25 15:47:21.322767
300  2023-10-25 15:47:21.370694
301  2023-10-25 15:47:21.402609
302  2023-10-25 15:47:21.450481
303  2023-10-25 15:47:21.498402
304  2023-10-25 15:47:21.530312
305  2023-10-25 15:47:21.578140
306  2023-10-25 15:47:21.610054
307  2023-10-25 15:47:21.657927
308  2023-10-25 15:47:21.704801
309  2023-10-25 15:47:21.735719
310  2023-10-25 15:47:21.783599
311  2023-10-25 15:47:21.829468
312  2023-10-25 15:47:21.861383
313  2023-10-25 15:47:21.907307
314  2023-10-25 15:47:21.955179
315  2023-10-25 15:47:21.987079
316  2023-10-25 15:47:22.034969
317  2023-10-25 15:47:22.082846
318  2023-10-25 15:47:22.114762
319  2023-10-25 15:47:22.162609
320  2023-10-25 15:47:22.193542
321  2023-10-25 15:47:22.240402
322  2023-10-25 15:47:22.288241
323  2023-10-25 15:47:22.320200
324  2023-10-25 15:47:22.367064
325  2023-10-25 15:47:22.414949
326  2023-10-25 15:47:22.446868
327  2023-10-25 15:47:22.494723
328  2023-10-25 15:47:22.526653
329  2023-10-25 15:47:22.574509
330  2023-10-25 15:47:22.622402
331  2023-10-25 15:47:22.654310
332  2023-10-25 15:47:22.702135
333  2023-10-25 15:47:22.750042
334  2023-10-25 15:47:22.781957
335  2023-10-25 15:47:22.829834
336  2023-10-25 15:47:22.861741
337  2023-10-25 15:47:22.909627
338  2023-10-25 15:47:22.957500
339  2023-10-25 15:47:22.989510
340  2023-10-25 15:47:23.037380
341  2023-10-25 15:47:23.068346
342  2023-10-25 15:47:23.115172
343  2023-10-25 15:47:23.162057
344  2023-10-25 15:47:23.193999
345  2023-10-25 15:47:23.241834
346  2023-10-25 15:47:23.289736
347  2023-10-25 15:47:23.321668
348  2023-10-25 15:47:23.369493
349  2023-10-25 15:47:23.401504
350  2023-10-25 15:47:23.449362
351  2023-10-25 15:47:23.497266
352  2023-10-25 15:47:23.529148
353  2023-10-25 15:47:23.577021
354  2023-10-25 15:47:23.624928
355  2023-10-25 15:47:23.656807
356  2023-10-25 15:47:23.703690
357  2023-10-25 15:47:23.749572
358  2023-10-25 15:47:23.780476
359  2023-10-25 15:47:23.828349
360  2023-10-25 15:47:23.875262
361  2023-10-25 15:47:23.906172
362  2023-10-25 15:47:23.954059
363  2023-10-25 15:47:23.985975
364  2023-10-25 15:47:24.033978
365  2023-10-25 15:47:24.081706
366  2023-10-25 15:47:24.112636
367  2023-10-25 15:47:24.159507
368  2023-10-25 15:47:24.207431
369  2023-10-25 15:47:24.239406
370  2023-10-25 15:47:24.287243
371  2023-10-25 15:47:24.319192
372  2023-10-25 15:47:24.367125
373  2023-10-25 15:47:24.414053
374  2023-10-25 15:47:24.444006
375  2023-10-25 15:47:24.491898
376  2023-10-25 15:47:24.537722
377  2023-10-25 15:47:24.569637
378  2023-10-25 15:47:24.617509
379  2023-10-25 15:47:24.665430
380  2023-10-25 15:47:24.695302
381  2023-10-25 15:47:24.743269
382  2023-10-25 15:47:24.791231
383  2023-10-25 15:47:24.823143
384  2023-10-25 15:47:24.871015
385  2023-10-25 15:47:24.903096
386  2023-10-25 15:47:24.950036
387  2023-10-25 15:47:24.996911
388  2023-10-25 15:47:25.028825
389  2023-10-25 15:47:25.076697
390  2023-10-25 15:47:25.124569
391  2023-10-25 15:47:25.156484
392  2023-10-25 15:47:25.204356
393  2023-10-25 15:47:25.236271
394  2023-10-25 15:47:25.284143
395  2023-10-25 15:47:25.332015
396  2023-10-25 15:47:25.363929
397  2023-10-25 15:47:25.408850
398  2023-10-25 15:47:25.456721
399  2023-10-25 15:47:25.488635
400  2023-10-25 15:47:25.536509
401  2023-10-25 15:47:25.568423
402  2023-10-25 15:47:25.614300
403  2023-10-25 15:47:25.662267
404  2023-10-25 15:47:25.694179
405  2023-10-25 15:47:25.742065
406  2023-10-25 15:47:25.789914
407  2023-10-25 15:47:25.821822
408  2023-10-25 15:47:25.868672
409  2023-10-25 15:47:25.915547
410  2023-10-25 15:47:25.947517
411  2023-10-25 15:47:25.995332
412  2023-10-25 15:47:26.027275
413  2023-10-25 15:47:26.075117
414  2023-10-25 15:47:26.122992
415  2023-10-25 15:47:26.154926
416  2023-10-25 15:47:26.202777
417  2023-10-25 15:47:26.249650
418  2023-10-25 15:47:26.280568
419  2023-10-25 15:47:26.327475
420  2023-10-25 15:47:26.374317
421  2023-10-25 15:47:26.405234
422  2023-10-25 15:47:26.452109
423  2023-10-25 15:47:26.499981
424  2023-10-25 15:47:26.531897
425  2023-10-25 15:47:26.579768
426  2023-10-25 15:47:26.611682
427  2023-10-25 15:47:26.659711
428  2023-10-25 15:47:26.707426
429  2023-10-25 15:47:26.739341
430  2023-10-25 15:47:26.787332
431  2023-10-25 15:47:26.819246
432  2023-10-25 15:47:26.867118
433  2023-10-25 15:47:26.915040
434  2023-10-25 15:47:26.946955
435  2023-10-25 15:47:26.994777
436  2023-10-25 15:47:27.026797
437  2023-10-25 15:47:27.072631
438  2023-10-25 15:47:27.120763
439  2023-10-25 15:47:27.152609
440  2023-10-25 15:47:27.200491
441  2023-10-25 15:47:27.247445
442  2023-10-25 15:47:27.278435
443  2023-10-25 15:47:27.326288
444  2023-10-25 15:47:27.373135
445  2023-10-25 15:47:27.404083
446  2023-10-25 15:47:27.451970
447  2023-10-25 15:47:27.498798
448  2023-10-25 15:47:27.530712
449  2023-10-25 15:47:27.578583
450  2023-10-25 15:47:27.610556
451  2023-10-25 15:47:27.657681
452  2023-10-25 15:47:27.704480
453  2023-10-25 15:47:27.735397
454  2023-10-25 15:47:27.781274
455  2023-10-25 15:47:27.828149
456  2023-10-25 15:47:27.875075
457  2023-10-25 15:47:27.906975
458  2023-10-25 15:47:27.954810
459  2023-10-25 15:47:27.986725
460  2023-10-25 15:47:28.034597
461  2023-10-25 15:47:28.082545
462  2023-10-25 15:47:28.113992
463  2023-10-25 15:47:28.161088
464  2023-10-25 15:47:28.208003
465  2023-10-25 15:47:28.239928
466  2023-10-25 15:47:28.287912
467  2023-10-25 15:47:28.319835
468  2023-10-25 15:47:28.367702
469  2023-10-25 15:47:28.415654
470  2023-10-25 15:47:28.447565
471  2023-10-25 15:47:28.495441
472  2023-10-25 15:47:28.527356
473  2023-10-25 15:47:28.575241
474  2023-10-25 15:47:28.623110
475  2023-10-25 15:47:28.655011
476  2023-10-25 15:47:28.702906
477  2023-10-25 15:47:28.734801
478  2023-10-25 15:47:28.782674
479  2023-10-25 15:47:28.830536
480  2023-10-25 15:47:28.862460
481  2023-10-25 15:47:28.910345
482  2023-10-25 15:47:28.958219
483  2023-10-25 15:47:28.990117
484  2023-10-25 15:47:29.038006
485  2023-10-25 15:47:29.069922
486  2023-10-25 15:47:29.117744
487  2023-10-25 15:47:29.165651
488  2023-10-25 15:47:29.197569
489  2023-10-25 15:47:29.243603
490  2023-10-25 15:47:29.291494
491  2023-10-25 15:47:29.323387
492  2023-10-25 15:47:29.371262
493  2023-10-25 15:47:29.403177
494  2023-10-25 15:47:29.451096
495  2023-10-25 15:47:29.497970
496  2023-10-25 15:47:29.528889
497  2023-10-25 15:47:29.576795
498  2023-10-25 15:47:29.624633
499  2023-10-25 15:47:29.655555
500  2023-10-25 15:47:29.702456
501  2023-10-25 15:47:29.750297
502  2023-10-25 15:47:29.780255
503  2023-10-25 15:47:29.828127
504  2023-10-25 15:47:29.860042
505  2023-10-25 15:47:29.907914
506  2023-10-25 15:47:29.955786
507  2023-10-25 15:47:29.985711
508  2023-10-25 15:47:30.033578
509  2023-10-25 15:47:30.081497
510  2023-10-25 15:47:30.113412
511  2023-10-25 15:47:30.160239
512  2023-10-25 15:47:30.207285
513  2023-10-25 15:47:30.239088
514  2023-10-25 15:47:30.287064
515  2023-10-25 15:47:30.319005
516  2023-10-25 15:47:30.366923
517  2023-10-25 15:47:30.414800
518  2023-10-25 15:47:30.446704
519  2023-10-25 15:47:30.494587
520  2023-10-25 15:47:30.526495
521  2023-10-25 15:47:30.574373
522  2023-10-25 15:47:30.622240
523  2023-10-25 15:47:30.654159
524  2023-10-25 15:47:30.702013
525  2023-10-25 15:47:30.749853
526  2023-10-25 15:47:30.781814
527  2023-10-25 15:47:30.829670
528  2023-10-25 15:47:30.861605
529  2023-10-25 15:47:30.909458
530  2023-10-25 15:47:30.957340
531  2023-10-25 15:47:30.989246
532  2023-10-25 15:47:31.037259
533  2023-10-25 15:47:31.069153
534  2023-10-25 15:47:31.115991
535  2023-10-25 15:47:31.162608
536  2023-10-25 15:47:31.194636
537  2023-10-25 15:47:31.242763
538  2023-10-25 15:47:31.289509
539  2023-10-25 15:47:31.321423
540  2023-10-25 15:47:31.369329
541  2023-10-25 15:47:31.416128
542  2023-10-25 15:47:31.448078
543  2023-10-25 15:47:31.495915
544  2023-10-25 15:47:31.526831
545  2023-10-25 15:47:31.573705
546  2023-10-25 15:47:31.621577
547  2023-10-25 15:47:31.653492
548  2023-10-25 15:47:31.701364
549  2023-10-25 15:47:31.749236
550  2023-10-25 15:47:31.782151
551  2023-10-25 15:47:31.829023
552  2023-10-25 15:47:31.860937
553  2023-10-25 15:47:31.908809
554  2023-10-25 15:47:31.955684
555  2023-10-25 15:47:31.986601
556  2023-10-25 15:47:32.034473
557  2023-10-25 15:47:32.082523
558  2023-10-25 15:47:32.114488
559  2023-10-25 15:47:32.162360
560  2023-10-25 15:47:32.193278
561  2023-10-25 15:47:32.239186
562  2023-10-25 15:47:32.287169
563  2023-10-25 15:47:32.319084
564  2023-10-25 15:47:32.366021
565  2023-10-25 15:47:32.413885
566  2023-10-25 15:47:32.445787
567  2023-10-25 15:47:32.493661
568  2023-10-25 15:47:32.541536
569  2023-10-25 15:47:32.573563
570  2023-10-25 15:47:32.619441
571  2023-10-25 15:47:32.665304
572  2023-10-25 15:47:32.696188
573  2023-10-25 15:47:32.744058
574  2023-10-25 15:47:32.792929
575  2023-10-25 15:47:32.823886
576  2023-10-25 15:47:32.871758
577  2023-10-25 15:47:32.903825
578  2023-10-25 15:47:32.951689
579  2023-10-25 15:47:32.999558
580  2023-10-25 15:47:33.031436
581  2023-10-25 15:47:33.079331
582  2023-10-25 15:47:33.111225
583  2023-10-25 15:47:33.159201
584  2023-10-25 15:47:33.205257
585  2023-10-25 15:47:33.237278
586  2023-10-25 15:47:33.283155
587  2023-10-25 15:47:33.330030
588  2023-10-25 15:47:33.361945
589  2023-10-25 15:47:33.408870
590  2023-10-25 15:47:33.455694
591  2023-10-25 15:47:33.487609
592  2023-10-25 15:47:33.535532
593  2023-10-25 15:47:33.583417
594  2023-10-25 15:47:33.615302
595  2023-10-25 15:47:33.663141
596  2023-10-25 15:47:33.695056
597  2023-10-25 15:47:33.742985
598  2023-10-25 15:47:33.790800
599  2023-10-25 15:47:33.822715
600  2023-10-25 15:47:33.870586
601  2023-10-25 15:47:33.902502
602  2023-10-25 15:47:33.950372
603  2023-10-25 15:47:33.996281
604  2023-10-25 15:47:34.027946
605  2023-10-25 15:47:34.075894
606  2023-10-25 15:47:34.123798
607  2023-10-25 15:47:34.155692
608  2023-10-25 15:47:34.201589
609  2023-10-25 15:47:34.249475
610  2023-10-25 15:47:34.281505
611  2023-10-25 15:47:34.329509
612  2023-10-25 15:47:34.361574
613  2023-10-25 15:47:34.407286
614  2023-10-25 15:47:34.455163
615  2023-10-25 15:47:34.487100
616  2023-10-25 15:47:34.535109
617  2023-10-25 15:47:34.583965
618  2023-10-25 15:47:34.614850
619  2023-10-25 15:47:34.662728
620  2023-10-25 15:47:34.694637
621  2023-10-25 15:47:34.742559
622  2023-10-25 15:47:34.791388
623  2023-10-25 15:47:34.822348
624  2023-10-25 15:47:34.870166
625  2023-10-25 15:47:34.916043
626  2023-10-25 15:47:34.946961
627  2023-10-25 15:47:34.992838
628  2023-10-25 15:47:35.038762
629  2023-10-25 15:47:35.069680
630  2023-10-25 15:47:35.117504
631  2023-10-25 15:47:35.163414
632  2023-10-25 15:47:35.195332
633  2023-10-25 15:47:35.243201
634  2023-10-25 15:47:35.291089
635  2023-10-25 15:47:35.323007
636  2023-10-25 15:47:35.370858
637  2023-10-25 15:47:35.402769
638  2023-10-25 15:47:35.450646
639  2023-10-25 15:47:35.498521
640  2023-10-25 15:47:35.530453
641  2023-10-25 15:47:35.578274
642  2023-10-25 15:47:35.610238
643  2023-10-25 15:47:35.658107
644  2023-10-25 15:47:35.704934
645  2023-10-25 15:47:35.735885
646  2023-10-25 15:47:35.783757
647  2023-10-25 15:47:35.830599
648  2023-10-25 15:47:35.861783
649  2023-10-25 15:47:35.908988
650  2023-10-25 15:47:35.955863
651  2023-10-25 15:47:35.987777
652  2023-10-25 15:47:36.035649
653  2023-10-25 15:47:36.083521
654  2023-10-25 15:47:36.115436
655  2023-10-25 15:47:36.162310
656  2023-10-25 15:47:36.193228
657  2023-10-25 15:47:36.240062
658  2023-10-25 15:47:36.285896
659  2023-10-25 15:47:36.332811
660  2023-10-25 15:47:36.364719
661  2023-10-25 15:47:36.410685
662  2023-10-25 15:47:36.456475
663  2023-10-25 15:47:36.488358
664  2023-10-25 15:47:36.536273
665  2023-10-25 15:47:36.568188
666  2023-10-25 15:47:36.616046
667  2023-10-25 15:47:36.663932
668  2023-10-25 15:47:36.695842
669  2023-10-25 15:47:36.743721
670  2023-10-25 15:47:36.791617
671  2023-10-25 15:47:36.823492
672  2023-10-25 15:47:36.871379
673  2023-10-25 15:47:36.903279
674  2023-10-25 15:47:36.951199
675  2023-10-25 15:47:36.999039
676  2023-10-25 15:47:37.030990
677  2023-10-25 15:47:37.076933
678  2023-10-25 15:47:37.124805
679  2023-10-25 15:47:37.157718
680  2023-10-25 15:47:37.204592
681  2023-10-25 15:47:37.236507
682  2023-10-25 15:47:37.285381
683  2023-10-25 15:47:37.333425
684  2023-10-25 15:47:37.363300
685  2023-10-25 15:47:37.410208
686  2023-10-25 15:47:37.458047
687  2023-10-25 15:47:37.489961
688  2023-10-25 15:47:37.537932
689  2023-10-25 15:47:37.569846
690  2023-10-25 15:47:37.617767
691  2023-10-25 15:47:37.665590
692  2023-10-25 15:47:37.697505
693  2023-10-25 15:47:37.743572
694  2023-10-25 15:47:37.791410
695  2023-10-25 15:47:37.823325
696  2023-10-25 15:47:37.870249
697  2023-10-25 15:47:37.902145
698  2023-10-25 15:47:37.948029
699  2023-10-25 15:47:37.993895
700  2023-10-25 15:47:38.041791
701  2023-10-25 15:47:38.073715
702  2023-10-25 15:47:38.121561
703  2023-10-25 15:47:38.153470
704  2023-10-25 15:47:38.200364
705  2023-10-25 15:47:38.247223
706  2023-10-25 15:47:38.279139
707  2023-10-25 15:47:38.327015
708  2023-10-25 15:47:38.374884
709  2023-10-25 15:47:38.406765
710  2023-10-25 15:47:38.454671
711  2023-10-25 15:47:38.486721
712  2023-10-25 15:47:38.534424
713  2023-10-25 15:47:38.582334
714  2023-10-25 15:47:38.614245
715  2023-10-25 15:47:38.662084
716  2023-10-25 15:47:38.707960
717  2023-10-25 15:47:38.739876
718  2023-10-25 15:47:38.788963
719  2023-10-25 15:47:38.820037
720  2023-10-25 15:47:38.867901
721  2023-10-25 15:47:38.916812
722  2023-10-25 15:47:38.948737
723  2023-10-25 15:47:38.993565
724  2023-10-25 15:47:39.041506
725  2023-10-25 15:47:39.073378
726  2023-10-25 15:47:39.121345
727  2023-10-25 15:47:39.153284
728  2023-10-25 15:47:39.200134
729  2023-10-25 15:47:39.246042
730  2023-10-25 15:47:39.277960
731  2023-10-25 15:47:39.325898
732  2023-10-25 15:47:39.372805
733  2023-10-25 15:47:39.403690
734  2023-10-25 15:47:39.450565
735  2023-10-25 15:47:39.498470
736  2023-10-25 15:47:39.530383
737  2023-10-25 15:47:39.578225
738  2023-10-25 15:47:39.610138
739  2023-10-25 15:47:39.657043
740  2023-10-25 15:47:39.704917
741  2023-10-25 15:47:39.736863
742  2023-10-25 15:47:39.784725
743  2023-10-25 15:47:39.831717
744  2023-10-25 15:47:39.862653
745  2023-10-25 15:47:39.910490
746  2023-10-25 15:47:39.958386
747  2023-10-25 15:47:39.990281
748  2023-10-25 15:47:40.038164
749  2023-10-25 15:47:40.069245
750  2023-10-25 15:47:40.117086
751  2023-10-25 15:47:40.163960
752  2023-10-25 15:47:40.195905
753  2023-10-25 15:47:40.243781
754  2023-10-25 15:47:40.291827
755  2023-10-25 15:47:40.322590
756  2023-10-25 15:47:40.369465
757  2023-10-25 15:47:40.416386
758  2023-10-25 15:47:40.448287
759  2023-10-25 15:47:40.496126
760  2023-10-25 15:47:40.528041
761  2023-10-25 15:47:40.575947
762  2023-10-25 15:47:40.623785
763  2023-10-25 15:47:40.655699
764  2023-10-25 15:47:40.703692
765  2023-10-25 15:47:40.735607
766  2023-10-25 15:47:40.783529
767  2023-10-25 15:47:40.831351
768  2023-10-25 15:47:40.863265
769  2023-10-25 15:47:40.911184
770  2023-10-25 15:47:40.943090
771  2023-10-25 15:47:40.989927
772  2023-10-25 15:47:41.037799
773  2023-10-25 15:47:41.069762
774  2023-10-25 15:47:41.117586
775  2023-10-25 15:47:41.165499
776  2023-10-25 15:47:41.197418
777  2023-10-25 15:47:41.243280
778  2023-10-25 15:47:41.291148
779  2023-10-25 15:47:41.323062
780  2023-10-25 15:47:41.371085
781  2023-10-25 15:47:41.402823
782  2023-10-25 15:47:41.448737
783  2023-10-25 15:47:41.496622
784  2023-10-25 15:47:41.528521
785  2023-10-25 15:47:41.576405
786  2023-10-25 15:47:41.624258
787  2023-10-25 15:47:41.656417
788  2023-10-25 15:47:41.704057
789  2023-10-25 15:47:41.735980
790  2023-10-25 15:47:41.783804
791  2023-10-25 15:47:41.831726
792  2023-10-25 15:47:41.863592
793  2023-10-25 15:47:41.911510
794  2023-10-25 15:47:41.943425
795  2023-10-25 15:47:41.991310
796  2023-10-25 15:47:42.037298
797  2023-10-25 15:47:42.069213
798  2023-10-25 15:47:42.117085
799  2023-10-25 15:47:42.165059
800  2023-10-25 15:47:42.197021
801  2023-10-25 15:47:42.244918
802  2023-10-25 15:47:42.276841
803  2023-10-25 15:47:42.324732
804  2023-10-25 15:47:42.372584
805  2023-10-25 15:47:42.404466
806  2023-10-25 15:47:42.452380
807  2023-10-25 15:47:42.499263
808  2023-10-25 15:47:42.530130
809  2023-10-25 15:47:42.578044
810  2023-10-25 15:47:42.610086
811  2023-10-25 15:47:42.657789
812  2023-10-25 15:47:42.705661
813  2023-10-25 15:47:42.737576
814  2023-10-25 15:47:42.784382
815  2023-10-25 15:47:42.832188
816  2023-10-25 15:47:42.864103
817  2023-10-25 15:47:42.912008
818  2023-10-25 15:47:42.943943
819  2023-10-25 15:47:42.990764
820  2023-10-25 15:47:43.038734
821  2023-10-25 15:47:43.070653
822  2023-10-25 15:47:43.118548
823  2023-10-25 15:47:43.166420
824  2023-10-25 15:47:43.198335
825  2023-10-25 15:47:43.246239
826  2023-10-25 15:47:43.278171
827  2023-10-25 15:47:43.326080
828  2023-10-25 15:47:43.373960
829  2023-10-25 15:47:43.405875
830  2023-10-25 15:47:43.453869
831  2023-10-25 15:47:43.485783
832  2023-10-25 15:47:43.533688
833  2023-10-25 15:47:43.581559
834  2023-10-25 15:47:43.613491
835  2023-10-25 15:47:43.661339
836  2023-10-25 15:47:43.693267
837  2023-10-25 15:47:43.741150
838  2023-10-25 15:47:43.789005
839  2023-10-25 15:47:43.820912
840  2023-10-25 15:47:43.868760
841  2023-10-25 15:47:43.914673
842  2023-10-25 15:47:43.946551
843  2023-10-25 15:47:43.993476
844  2023-10-25 15:47:44.041298
845  2023-10-25 15:47:44.073214
846  2023-10-25 15:47:44.121131
847  2023-10-25 15:47:44.153045
848  2023-10-25 15:47:44.200873
849  2023-10-25 15:47:44.248745
850  2023-10-25 15:47:44.280660
851  2023-10-25 15:47:44.328566
852  2023-10-25 15:47:44.360470
853  2023-10-25 15:47:44.408318
854  2023-10-25 15:47:44.456213
855  2023-10-25 15:47:44.488104
856  2023-10-25 15:47:44.536001
857  2023-10-25 15:47:44.582888
858  2023-10-25 15:47:44.613799
859  2023-10-25 15:47:44.661700
860  2023-10-25 15:47:44.693599
861  2023-10-25 15:47:44.741459
862  2023-10-25 15:47:44.789348
863  2023-10-25 15:47:44.821261
864  2023-10-25 15:47:44.869259
865  2023-10-25 15:47:44.916188
866  2023-10-25 15:47:44.947090
867  2023-10-25 15:47:44.994967
868  2023-10-25 15:47:45.026880
869  2023-10-25 15:47:45.074717
870  2023-10-25 15:47:45.122590
871  2023-10-25 15:47:45.154505
872  2023-10-25 15:47:45.202428
873  2023-10-25 15:47:45.250301
874  2023-10-25 15:47:45.281198
875  2023-10-25 15:47:45.329038
876  2023-10-25 15:47:45.360983
877  2023-10-25 15:47:45.408881
878  2023-10-25 15:47:45.455698
879  2023-10-25 15:47:45.486615
880  2023-10-25 15:47:45.534487
881  2023-10-25 15:47:45.582401
882  2023-10-25 15:47:45.614325
883  2023-10-25 15:47:45.662146
884  2023-10-25 15:47:45.694091
885  2023-10-25 15:47:45.742065
886  2023-10-25 15:47:45.786858
887  2023-10-25 15:47:45.832690
888  2023-10-25 15:47:45.864646
889  2023-10-25 15:47:45.912477
890  2023-10-25 15:47:45.944392
891  2023-10-25 15:47:45.992295
892  2023-10-25 15:47:46.040135
893  2023-10-25 15:47:46.072052
894  2023-10-25 15:47:46.119927
895  2023-10-25 15:47:46.151846
896  2023-10-25 15:47:46.199709
897  2023-10-25 15:47:46.247612
898  2023-10-25 15:47:46.279495
899  2023-10-25 15:47:46.327370
900  2023-10-25 15:47:46.375272
901  2023-10-25 15:47:46.407180
902  2023-10-25 15:47:46.455029
903  2023-10-25 15:47:46.486972
904  2023-10-25 15:47:46.534845
905  2023-10-25 15:47:46.583731
906  2023-10-25 15:47:46.614632
907  2023-10-25 15:47:46.662507
908  2023-10-25 15:47:46.694419
909  2023-10-25 15:47:46.740381
910  2023-10-25 15:47:46.788171
911  2023-10-25 15:47:46.820084
912  2023-10-25 15:47:46.867979
913  2023-10-25 15:47:46.915827
914  2023-10-25 15:47:46.947744
915  2023-10-25 15:47:46.994648
916  2023-10-25 15:47:47.041509
917  2023-10-25 15:47:47.073406
918  2023-10-25 15:47:47.121276
919  2023-10-25 15:47:47.153207
920  2023-10-25 15:47:47.201066
921  2023-10-25 15:47:47.248941
922  2023-10-25 15:47:47.280850
923  2023-10-25 15:47:47.328691
924  2023-10-25 15:47:47.360605
925  2023-10-25 15:47:47.409546
926  2023-10-25 15:47:47.456404
927  2023-10-25 15:47:47.487301
928  2023-10-25 15:47:47.535138
929  2023-10-25 15:47:47.583049
930  2023-10-25 15:47:47.614927
931  2023-10-25 15:47:47.662799
932  2023-10-25 15:47:47.694713
933  2023-10-25 15:47:47.742585
934  2023-10-25 15:47:47.790458
935  2023-10-25 15:47:47.821374
936  2023-10-25 15:47:47.868274
937  2023-10-25 15:47:47.916120
938  2023-10-25 15:47:47.948037
939  2023-10-25 15:47:47.995932
940  2023-10-25 15:47:48.028017
941  2023-10-25 15:47:48.074696
942  2023-10-25 15:47:48.122600
943  2023-10-25 15:47:48.154507
944  2023-10-25 15:47:48.202354
945  2023-10-25 15:47:48.250227
946  2023-10-25 15:47:48.282141
947  2023-10-25 15:47:48.330044
948  2023-10-25 15:47:48.361952
949  2023-10-25 15:47:48.408802
950  2023-10-25 15:47:48.456724
951  2023-10-25 15:47:48.488636
952  2023-10-25 15:47:48.536461
953  2023-10-25 15:47:48.582338
954  2023-10-25 15:47:48.614255
955  2023-10-25 15:47:48.662158
956  2023-10-25 15:47:48.694066
957  2023-10-25 15:47:48.741919
958  2023-10-25 15:47:48.789784
959  2023-10-25 15:47:48.821700
960  2023-10-25 15:47:48.869570
961  2023-10-25 15:47:48.901527
962  2023-10-25 15:47:48.949398
963  2023-10-25 15:47:48.997264
964  2023-10-25 15:47:49.029175
965  2023-10-25 15:47:49.077048
966  2023-10-25 15:47:49.124913
967  2023-10-25 15:47:49.156830
968  2023-10-25 15:47:49.204708
969  2023-10-25 15:47:49.236616
970  2023-10-25 15:47:49.284506
971  2023-10-25 15:47:49.332367
972  2023-10-25 15:47:49.364280
973  2023-10-25 15:47:49.412269
974  2023-10-25 15:47:49.444181
975  2023-10-25 15:47:49.492048
976  2023-10-25 15:47:49.538930
977  2023-10-25 15:47:49.569848
978  2023-10-25 15:47:49.617717
979  2023-10-25 15:47:49.665589
980  2023-10-25 15:47:49.697507
981  2023-10-25 15:47:49.745377
982  2023-10-25 15:47:49.777292
983  2023-10-25 15:47:49.825163
984  2023-10-25 15:47:49.873037
985  2023-10-25 15:47:49.903953
986  2023-10-25 15:47:49.951845
987  2023-10-25 15:47:49.998700
988  2023-10-25 15:47:50.030614
989  2023-10-25 15:47:50.078485
990  2023-10-25 15:47:50.110540
991  2023-10-25 15:47:50.158378
992  2023-10-25 15:47:50.206288
993  2023-10-25 15:47:50.238277
994  2023-10-25 15:47:50.286205
995  2023-10-25 15:47:50.318104
996  2023-10-25 15:47:50.365935
997  2023-10-25 15:47:50.413865
998  2023-10-25 15:47:50.446754
999  2023-10-25 15:47:50.492624
1000  2023-10-25 15:47:50.539471
1001  2023-10-25 15:47:50.571386
1002  2023-10-25 15:47:50.619282
1003  2023-10-25 15:47:50.665181
1004  2023-10-25 15:47:50.697081
1005  2023-10-25 15:47:50.743924
1006  2023-10-25 15:47:50.791837
1007  2023-10-25 15:47:50.823749
1008  2023-10-25 15:47:50.871665
1009  2023-10-25 15:47:50.903497
1010  2023-10-25 15:47:50.951409
1011  2023-10-25 15:47:50.999242
1012  2023-10-25 15:47:51.031156
1013  2023-10-25 15:47:51.079028
1014  2023-10-25 15:47:51.111107
1015  2023-10-25 15:47:51.158980
1016  2023-10-25 15:47:51.206851
1017  2023-10-25 15:47:51.238766
1018  2023-10-25 15:47:51.285641
1019  2023-10-25 15:47:51.332546
1020  2023-10-25 15:47:51.363465
1021  2023-10-25 15:47:51.411335
1022  2023-10-25 15:47:51.443267
1023  2023-10-25 15:47:51.491123
1024  2023-10-25 15:47:51.538995
1025  2023-10-25 15:47:51.570910
1026  2023-10-25 15:47:51.616787
1027  2023-10-25 15:47:51.664660
1028  2023-10-25 15:47:51.696574
1029  2023-10-25 15:47:51.743462
1030  2023-10-25 15:47:51.791359
1031  2023-10-25 15:47:51.823236
1032  2023-10-25 15:47:51.871108
1033  2023-10-25 15:47:51.903157
1034  2023-10-25 15:47:51.950921
1035  2023-10-25 15:47:51.998766
1036  2023-10-25 15:47:52.030681
1037  2023-10-25 15:47:52.078554
1038  2023-10-25 15:47:52.110471
1039  2023-10-25 15:47:52.158347
1040  2023-10-25 15:47:52.204185
1041  2023-10-25 15:47:52.236099
1042  2023-10-25 15:47:52.283973
1043  2023-10-25 15:47:52.331876
1044  2023-10-25 15:47:52.363802
1045  2023-10-25 15:47:52.409635
1046  2023-10-25 15:47:52.457541
1047  2023-10-25 15:47:52.488481
1048  2023-10-25 15:47:52.536297
1049  2023-10-25 15:47:52.568211
1050  2023-10-25 15:47:52.616085
1051  2023-10-25 15:47:52.663957
1052  2023-10-25 15:47:52.695921
1053  2023-10-25 15:47:52.743742
1054  2023-10-25 15:47:52.791647
1055  2023-10-25 15:47:52.823564
1056  2023-10-25 15:47:52.871401
1057  2023-10-25 15:47:52.903315
1058  2023-10-25 15:47:52.951241
1059  2023-10-25 15:47:52.999059
1060  2023-10-25 15:47:53.030974
1061  2023-10-25 15:47:53.076851
1062  2023-10-25 15:47:53.124755
1063  2023-10-25 15:47:53.156674
1064  2023-10-25 15:47:53.204610
1065  2023-10-25 15:47:53.236276
1066  2023-10-25 15:47:53.284087
1067  2023-10-25 15:47:53.331990
1068  2023-10-25 15:47:53.361917
1069  2023-10-25 15:47:53.408860
1070  2023-10-25 15:47:53.455753
1071  2023-10-25 15:47:53.487652
1072  2023-10-25 15:47:53.535490
1073  2023-10-25 15:47:53.583409
1074  2023-10-25 15:47:53.615323
1075  2023-10-25 15:47:53.663179
1076  2023-10-25 15:47:53.695089
1077  2023-10-25 15:47:53.743006
1078  2023-10-25 15:47:53.790846
1079  2023-10-25 15:47:53.822777
1080  2023-10-25 15:47:53.870643
1081  2023-10-25 15:47:53.902541
1082  2023-10-25 15:47:53.950431
1083  2023-10-25 15:47:53.998285
1084  2023-10-25 15:47:54.030201
1085  2023-10-25 15:47:54.078085
1086  2023-10-25 15:47:54.123949
1087  2023-10-25 15:47:54.156860
1088  2023-10-25 15:47:54.203703
1089  2023-10-25 15:47:54.236666
1090  2023-10-25 15:47:54.282493
1091  2023-10-25 15:47:54.329415
1092  2023-10-25 15:47:54.361312
1093  2023-10-25 15:47:54.407159
1094  2023-10-25 15:47:54.453037
1095  2023-10-25 15:47:54.484951
1096  2023-10-25 15:47:54.532869
1097  2023-10-25 15:47:54.580695
1098  2023-10-25 15:47:54.612610
1099  2023-10-25 15:47:54.659485
1100  2023-10-25 15:47:54.706386
1101  2023-10-25 15:47:54.738299
1102  2023-10-25 15:47:54.786193
1103  2023-10-25 15:47:54.818091
1104  2023-10-25 15:47:54.865957
1105  2023-10-25 15:47:54.912840
1106  2023-10-25 15:47:54.944771
1107  2023-10-25 15:47:54.992810
1108  2023-10-25 15:47:55.040513
1109  2023-10-25 15:47:55.072412
1110  2023-10-25 15:47:55.119309
1111  2023-10-25 15:47:55.166162
1112  2023-10-25 15:47:55.198078
1113  2023-10-25 15:47:55.245966
1114  2023-10-25 15:47:55.277945
1115  2023-10-25 15:47:55.325738
1116  2023-10-25 15:47:55.373616
1117  2023-10-25 15:47:55.405492
1118  2023-10-25 15:47:55.453395
1119  2023-10-25 15:47:55.485278
1120  2023-10-25 15:47:55.533197
1121  2023-10-25 15:47:55.581074
1122  2023-10-25 15:47:55.613012
1123  2023-10-25 15:47:55.660856
1124  2023-10-25 15:47:55.707710
1125  2023-10-25 15:47:55.739643
1126  2023-10-25 15:47:55.786513
1127  2023-10-25 15:47:55.833347
1128  2023-10-25 15:47:55.865324
1129  2023-10-25 15:47:55.913134
1130  2023-10-25 15:47:55.945049
1131  2023-10-25 15:47:55.992958
1132  2023-10-25 15:47:56.039795
1133  2023-10-25 15:47:56.071710
1134  2023-10-25 15:47:56.119628
1135  2023-10-25 15:47:56.151538
1136  2023-10-25 15:47:56.199369
1137  2023-10-25 15:47:56.247241
1138  2023-10-25 15:47:56.279155
1139  2023-10-25 15:47:56.327040
1140  2023-10-25 15:47:56.374899
1141  2023-10-25 15:47:56.406914
1142  2023-10-25 15:47:56.455727
1143  2023-10-25 15:47:56.486631
1144  2023-10-25 15:47:56.533475
1145  2023-10-25 15:47:56.579353
1146  2023-10-25 15:47:56.611267
1147  2023-10-25 15:47:56.659171
1148  2023-10-25 15:47:56.707012
1149  2023-10-25 15:47:56.738926
1150  2023-10-25 15:47:56.786845
1151  2023-10-25 15:47:56.818765
1152  2023-10-25 15:47:56.866585
1153  2023-10-25 15:47:56.914486
1154  2023-10-25 15:47:56.946423
1155  2023-10-25 15:47:56.994289
1156  2023-10-25 15:47:57.041118
1157  2023-10-25 15:47:57.073064
1158  2023-10-25 15:47:57.120951
1159  2023-10-25 15:47:57.152872
1160  2023-10-25 15:47:57.200717
1161  2023-10-25 15:47:57.248609
1162  2023-10-25 15:47:57.280509
1163  2023-10-25 15:47:57.328374
1164  2023-10-25 15:47:57.360299
1165  2023-10-25 15:47:57.408137
1166  2023-10-25 15:47:57.456056
1167  2023-10-25 15:47:57.486972
1168  2023-10-25 15:47:57.534846
1169  2023-10-25 15:47:57.582701
1170  2023-10-25 15:47:57.615582
1171  2023-10-25 15:47:57.660500
1172  2023-10-25 15:47:57.708361
1173  2023-10-25 15:47:57.740276
1174  2023-10-25 15:47:57.787123
1175  2023-10-25 15:47:57.819117
1176  2023-10-25 15:47:57.866939
1177  2023-10-25 15:47:57.914782
1178  2023-10-25 15:47:57.945168
1179  2023-10-25 15:47:57.993076
1180  2023-10-25 15:47:58.040912
1181  2023-10-25 15:47:58.072827
1182  2023-10-25 15:47:58.118740
1183  2023-10-25 15:47:58.166576
1184  2023-10-25 15:47:58.198491
1185  2023-10-25 15:47:58.246363
1186  2023-10-25 15:47:58.278278
1187  2023-10-25 15:47:58.326182
1188  2023-10-25 15:47:58.373024
1189  2023-10-25 15:47:58.403942
1190  2023-10-25 15:47:58.451814
1191  2023-10-25 15:47:58.499686
1192  2023-10-25 15:47:58.531600
1193  2023-10-25 15:47:58.579472
1194  2023-10-25 15:47:58.611387
1195  2023-10-25 15:47:58.658297
1196  2023-10-25 15:47:58.705164
1197  2023-10-25 15:47:58.737079
1198  2023-10-25 15:47:58.782971
1199  2023-10-25 15:47:58.830832
1200  2023-10-25 15:47:58.862869
1201  2023-10-25 15:47:58.910640
1202  2023-10-25 15:47:58.958488
1203  2023-10-25 15:47:58.990425
1204  2023-10-25 15:47:59.038280
1205  2023-10-25 15:47:59.070194
1206  2023-10-25 15:47:59.117038
1207  2023-10-25 15:47:59.163944
1208  2023-10-25 15:47:59.195849
1209  2023-10-25 15:47:59.243730
1210  2023-10-25 15:47:59.291612
1211  2023-10-25 15:47:59.323519
1212  2023-10-25 15:47:59.371484
1213  2023-10-25 15:47:59.402273
1214  2023-10-25 15:47:59.450169
1215  2023-10-25 15:47:59.498017
1216  2023-10-25 15:47:59.529934
1217  2023-10-25 15:47:59.577842
1218  2023-10-25 15:47:59.624710
1219  2023-10-25 15:47:59.656624
1220  2023-10-25 15:47:59.704464
1221  2023-10-25 15:47:59.736379
1222  2023-10-25 15:47:59.784282
1223  2023-10-25 15:47:59.832123
1224  2023-10-25 15:47:59.864038
1225  2023-10-25 15:47:59.911910
1226  2023-10-25 15:47:59.943824
1227  2023-10-25 15:47:59.989778
1228  2023-10-25 15:48:00.037574
1229  2023-10-25 15:48:00.069488
1230  2023-10-25 15:48:00.117403
1231  2023-10-25 15:48:00.165232
1232  2023-10-25 15:48:00.197276
1233  2023-10-25 15:48:00.245190
1234  2023-10-25 15:48:00.277241
1235  2023-10-25 15:48:00.325140
1236  2023-10-25 15:48:00.373012
1237  2023-10-25 15:48:00.404927
1238  2023-10-25 15:48:00.452799
1239  2023-10-25 15:48:00.484714
1240  2023-10-25 15:48:00.532648
1241  2023-10-25 15:48:00.580627
1242  2023-10-25 15:48:00.612542
1243  2023-10-25 15:48:00.660414
1244  2023-10-25 15:48:00.708363
1245  2023-10-25 15:48:00.740503
1246  2023-10-25 15:48:00.788313
1247  2023-10-25 15:48:00.820228
1248  2023-10-25 15:48:00.868102
1249  2023-10-25 15:48:00.916006
1250  2023-10-25 15:48:00.947954
1251  2023-10-25 15:48:00.995867
1252  2023-10-25 15:48:01.027782
1253  2023-10-25 15:48:01.075406
1254  2023-10-25 15:48:01.123278
1255  2023-10-25 15:48:01.154226
1256  2023-10-25 15:48:01.201070
1257  2023-10-25 15:48:01.248974
1258  2023-10-25 15:48:01.280891
1259  2023-10-25 15:48:01.326881
1260  2023-10-25 15:48:01.374815
1261  2023-10-25 15:48:01.406714
1262  2023-10-25 15:48:01.454592
1263  2023-10-25 15:48:01.486524
1264  2023-10-25 15:48:01.534551
1265  2023-10-25 15:48:01.582499
1266  2023-10-25 15:48:01.614396
1267  2023-10-25 15:48:01.662282
1268  2023-10-25 15:48:01.693185
1269  2023-10-25 15:48:01.741077
1270  2023-10-25 15:48:01.788922
1271  2023-10-25 15:48:01.820813
1272  2023-10-25 15:48:01.867732
1273  2023-10-25 15:48:01.914692
1274  2023-10-25 15:48:01.946636
1275  2023-10-25 15:48:01.993528
1276  2023-10-25 15:48:02.040383
1277  2023-10-25 15:48:02.072269
1278  2023-10-25 15:48:02.120143
1279  2023-10-25 15:48:02.153101
1280  2023-10-25 15:48:02.200978
1281  2023-10-25 15:48:02.248831
1282  2023-10-25 15:48:02.280754
1283  2023-10-25 15:48:02.327655
1284  2023-10-25 15:48:02.374461
1285  2023-10-25 15:48:02.405447
1286  2023-10-25 15:48:02.453350
1287  2023-10-25 15:48:02.485274
1288  2023-10-25 15:48:02.533221
1289  2023-10-25 15:48:02.581093
1290  2023-10-25 15:48:02.614029
1291  2023-10-25 15:48:02.660880
1292  2023-10-25 15:48:02.707755
1293  2023-10-25 15:48:02.738672
1294  2023-10-25 15:48:02.786578
1295  2023-10-25 15:48:02.818510
1296  2023-10-25 15:48:02.866496
1297  2023-10-25 15:48:02.914396
1298  2023-10-25 15:48:02.946310
1299  2023-10-25 15:48:02.994229
1300  2023-10-25 15:48:03.039062
1301  2023-10-25 15:48:03.071011
1302  2023-10-25 15:48:03.117897
1303  2023-10-25 15:48:03.164883
1304  2023-10-25 15:48:03.196768
1305  2023-10-25 15:48:03.244749
1306  2023-10-25 15:48:03.276566
1307  2023-10-25 15:48:03.324530
1308  2023-10-25 15:48:03.372380
1309  2023-10-25 15:48:03.404336
1310  2023-10-25 15:48:03.452270
1311  2023-10-25 15:48:03.500167
1312  2023-10-25 15:48:03.532082
1313  2023-10-25 15:48:03.579945
1314  2023-10-25 15:48:03.611888
1315  2023-10-25 15:48:03.659740
1316  2023-10-25 15:48:03.707600
1317  2023-10-25 15:48:03.739530
1318  2023-10-25 15:48:03.787395
1319  2023-10-25 15:48:03.819316
1320  2023-10-25 15:48:03.867177
1321  2023-10-25 15:48:03.913018
1322  2023-10-25 15:48:03.944943
1323  2023-10-25 15:48:03.993838
1324  2023-10-25 15:48:04.040677
1325  2023-10-25 15:48:04.072638
1326  2023-10-25 15:48:04.119500
1327  2023-10-25 15:48:04.166340
1328  2023-10-25 15:48:04.198266
1329  2023-10-25 15:48:04.245130
1330  2023-10-25 15:48:04.277185
1331  2023-10-25 15:48:04.326051
1332  2023-10-25 15:48:04.372923
1333  2023-10-25 15:48:04.404838
1334  2023-10-25 15:48:04.450771
1335  2023-10-25 15:48:04.498587
1336  2023-10-25 15:48:04.530504
1337  2023-10-25 15:48:04.578374
1338  2023-10-25 15:48:04.610289
1339  2023-10-25 15:48:04.658211
1340  2023-10-25 15:48:04.704038
1341  2023-10-25 15:48:04.735986
1342  2023-10-25 15:48:04.783866
1343  2023-10-25 15:48:04.831697
1344  2023-10-25 15:48:04.863612
1345  2023-10-25 15:48:04.911483
1346  2023-10-25 15:48:04.943398
1347  2023-10-25 15:48:04.991385
1348  2023-10-25 15:48:05.039287
1349  2023-10-25 15:48:05.071263
1350  2023-10-25 15:48:05.119281
1351  2023-10-25 15:48:05.166290
1352  2023-10-25 15:48:05.197224
1353  2023-10-25 15:48:05.245077
1354  2023-10-25 15:48:05.276958
1355  2023-10-25 15:48:05.324831
1356  2023-10-25 15:48:05.372733
1357  2023-10-25 15:48:05.404647
1358  2023-10-25 15:48:05.452518
1359  2023-10-25 15:48:05.499393
1360  2023-10-25 15:48:05.530327
1361  2023-10-25 15:48:05.578151
1362  2023-10-25 15:48:05.610115
1363  2023-10-25 15:48:05.657971
1364  2023-10-25 15:48:05.705864
1365  2023-10-25 15:48:05.737726
1366  2023-10-25 15:48:05.785628
1367  2023-10-25 15:48:05.833503
1368  2023-10-25 15:48:05.865434
1369  2023-10-25 15:48:05.913304
1370  2023-10-25 15:48:05.945171
1371  2023-10-25 15:48:05.992201
1372  2023-10-25 15:48:06.040070
1373  2023-10-25 15:48:06.070998
1374  2023-10-25 15:48:06.116897
1375  2023-10-25 15:48:06.164769
1376  2023-10-25 15:48:06.195686
1377  2023-10-25 15:48:06.242561
1378  2023-10-25 15:48:06.290467
1379  2023-10-25 15:48:06.322395
1380  2023-10-25 15:48:06.370220
1381  2023-10-25 15:48:06.402134
1382  2023-10-25 15:48:06.450050
1383  2023-10-25 15:48:06.497878
1384  2023-10-25 15:48:06.529841
1385  2023-10-25 15:48:06.577665
1386  2023-10-25 15:48:06.624573
1387  2023-10-25 15:48:06.655499
1388  2023-10-25 15:48:06.703413
1389  2023-10-25 15:48:06.735328
1390  2023-10-25 15:48:06.783249
1391  2023-10-25 15:48:06.831072
1392  2023-10-25 15:48:06.862987
1393  2023-10-25 15:48:06.910859
1394  2023-10-25 15:48:06.957767
1395  2023-10-25 15:48:06.988786
1396  2023-10-25 15:48:07.036568
1397  2023-10-25 15:48:07.068476
1398  2023-10-25 15:48:07.116362
1399  2023-10-25 15:48:07.164260
1400  2023-10-25 15:48:07.196195
1401  2023-10-25 15:48:07.243056
1402  2023-10-25 15:48:07.289898
1403  2023-10-25 15:48:07.321813
1404  2023-10-25 15:48:07.367708
1405  2023-10-25 15:48:07.415593
1406  2023-10-25 15:48:07.447521
1407  2023-10-25 15:48:07.495352
1408  2023-10-25 15:48:07.527294
1409  2023-10-25 15:48:07.575134
1410  2023-10-25 15:48:07.623038
1411  2023-10-25 15:48:07.654954
1412  2023-10-25 15:48:07.702832
1413  2023-10-25 15:48:07.734756
1414  2023-10-25 15:48:07.782581
1415  2023-10-25 15:48:07.831451
1416  2023-10-25 15:48:07.860371
1417  2023-10-25 15:48:07.908243
1418  2023-10-25 15:48:07.956115
1419  2023-10-25 15:48:07.988030
1420  2023-10-25 15:48:08.035902
1421  2023-10-25 15:48:08.082777
1422  2023-10-25 15:48:08.113694
1423  2023-10-25 15:48:08.161614
1424  2023-10-25 15:48:08.208441
1425  2023-10-25 15:48:08.240513
1426  2023-10-25 15:48:08.288431
1427  2023-10-25 15:48:08.320346
1428  2023-10-25 15:48:08.367208
1429  2023-10-25 15:48:08.414082
1430  2023-10-25 15:48:08.446001
1431  2023-10-25 15:48:08.492878
1432  2023-10-25 15:48:08.539749
1433  2023-10-25 15:48:08.570666
1434  2023-10-25 15:48:08.617507
1435  2023-10-25 15:48:08.665427
1436  2023-10-25 15:48:08.697326
1437  2023-10-25 15:48:08.745195
1438  2023-10-25 15:48:08.791155
1439  2023-10-25 15:48:08.821121
1440  2023-10-25 15:48:08.868945
1441  2023-10-25 15:48:08.917819
1442  2023-10-25 15:48:08.948738
1443  2023-10-25 15:48:08.996648
1444  2023-10-25 15:48:09.029551
1445  2023-10-25 15:48:09.077495
1446  2023-10-25 15:48:09.124433
1447  2023-10-25 15:48:09.156348
1448  2023-10-25 15:48:09.205281
1449  2023-10-25 15:48:09.235137
1450  2023-10-25 15:48:09.282012
1451  2023-10-25 15:48:09.329930
1452  2023-10-25 15:48:09.361823
1453  2023-10-25 15:48:09.409685
1454  2023-10-25 15:48:09.456641
1455  2023-10-25 15:48:09.487554
1456  2023-10-25 15:48:09.535379
1457  2023-10-25 15:48:09.583300
1458  2023-10-25 15:48:09.615201
1459  2023-10-25 15:48:09.663102
1460  2023-10-25 15:48:09.694986
1461  2023-10-25 15:48:09.741000
1462  2023-10-25 15:48:09.788886
1463  2023-10-25 15:48:09.820808
1464  2023-10-25 15:48:09.868703
1465  2023-10-25 15:48:09.916579
1466  2023-10-25 15:48:09.948514
1467  2023-10-25 15:48:09.996358
1468  2023-10-25 15:48:10.028273
1469  2023-10-25 15:48:10.076167
1470  2023-10-25 15:48:10.123043
1471  2023-10-25 15:48:10.154959
1472  2023-10-25 15:48:10.202812
1473  2023-10-25 15:48:10.234725
1474  2023-10-25 15:48:10.281644
1475  2023-10-25 15:48:10.329472
1476  2023-10-25 15:48:10.361389
1477  2023-10-25 15:48:10.409278
1478  2023-10-25 15:48:10.457216
1479  2023-10-25 15:48:10.489084
1480  2023-10-25 15:48:10.535922
1481  2023-10-25 15:48:10.582764
1482  2023-10-25 15:48:10.613736
1483  2023-10-25 15:48:10.661585
1484  2023-10-25 15:48:10.693510
1485  2023-10-25 15:48:10.741374
1486  2023-10-25 15:48:10.789211
1487  2023-10-25 15:48:10.822159
1488  2023-10-25 15:48:10.869062
1489  2023-10-25 15:48:10.917868
1490  2023-10-25 15:48:10.949815
1491  2023-10-25 15:48:10.997695
1492  2023-10-25 15:48:11.029626
1493  2023-10-25 15:48:11.077522
1494  2023-10-25 15:48:11.124432
1495  2023-10-25 15:48:11.156312
1496  2023-10-25 15:48:11.204180
1497  2023-10-25 15:48:11.236182
1498  2023-10-25 15:48:11.284048
1499  2023-10-25 15:48:11.331914
1500  2023-10-25 15:48:11.362798
1501  2023-10-25 15:48:11.410670
1502  2023-10-25 15:48:11.459541
1503  2023-10-25 15:48:11.490488
1504  2023-10-25 15:48:11.538329
1505  2023-10-25 15:48:11.570243
1506  2023-10-25 15:48:11.618146
1507  2023-10-25 15:48:11.666026
1508  2023-10-25 15:48:11.697823
1509  2023-10-25 15:48:11.745727
1510  2023-10-25 15:48:11.777829
1511  2023-10-25 15:48:11.825729
1512  2023-10-25 15:48:11.872576
1513  2023-10-25 15:48:11.903493
1514  2023-10-25 15:48:11.951397
1515  2023-10-25 15:48:11.999336
1516  2023-10-25 15:48:12.030188
1517  2023-10-25 15:48:12.077029
1518  2023-10-25 15:48:12.124935
1519  2023-10-25 15:48:12.156853
1520  2023-10-25 15:48:12.203691
1521  2023-10-25 15:48:12.235639
1522  2023-10-25 15:48:12.283510
1523  2023-10-25 15:48:12.331386
1524  2023-10-25 15:48:12.363291
1525  2023-10-25 15:48:12.411136
1526  2023-10-25 15:48:12.458043
1527  2023-10-25 15:48:12.489968
1528  2023-10-25 15:48:12.537831
1529  2023-10-25 15:48:12.569741
1530  2023-10-25 15:48:12.617619
1531  2023-10-25 15:48:12.663461
1532  2023-10-25 15:48:12.695404
1533  2023-10-25 15:48:12.742285
1534  2023-10-25 15:48:12.789187
1535  2023-10-25 15:48:12.821078
1536  2023-10-25 15:48:12.868953
1537  2023-10-25 15:48:12.916784
1538  2023-10-25 15:48:12.948731
1539  2023-10-25 15:48:12.996853
1540  2023-10-25 15:48:13.029485
1541  2023-10-25 15:48:13.076357
1542  2023-10-25 15:48:13.124265
1543  2023-10-25 15:48:13.156186
1544  2023-10-25 15:48:13.204016
1545  2023-10-25 15:48:13.235931
1546  2023-10-25 15:48:13.283803
1547  2023-10-25 15:48:13.331938
1548  2023-10-25 15:48:13.361862
1549  2023-10-25 15:48:13.408803
1550  2023-10-25 15:48:13.455707
1551  2023-10-25 15:48:13.487640
1552  2023-10-25 15:48:13.535464
1553  2023-10-25 15:48:13.583365
1554  2023-10-25 15:48:13.615284
1555  2023-10-25 15:48:13.662331
1556  2023-10-25 15:48:13.693120
1557  2023-10-25 15:48:13.741063
1558  2023-10-25 15:48:13.787970
1559  2023-10-25 15:48:13.820901
1560  2023-10-25 15:48:13.867752
1561  2023-10-25 15:48:13.915635
1562  2023-10-25 15:48:13.947543
1563  2023-10-25 15:48:13.995388
1564  2023-10-25 15:48:14.027335
1565  2023-10-25 15:48:14.075170
1566  2023-10-25 15:48:14.123073
1567  2023-10-25 15:48:14.154987
1568  2023-10-25 15:48:14.202829
1569  2023-10-25 15:48:14.234774
1570  2023-10-25 15:48:14.282662
1571  2023-10-25 15:48:14.330519
1572  2023-10-25 15:48:14.362616
1573  2023-10-25 15:48:14.410274
1574  2023-10-25 15:48:14.458173
1575  2023-10-25 15:48:14.490100
1576  2023-10-25 15:48:14.537966
1577  2023-10-25 15:48:14.569848
1578  2023-10-25 15:48:14.617750
1579  2023-10-25 15:48:14.665640
1580  2023-10-25 15:48:14.697537
1581  2023-10-25 15:48:14.743424
1582  2023-10-25 15:48:14.791256
1583  2023-10-25 15:48:14.823174
1584  2023-10-25 15:48:14.871090
1585  2023-10-25 15:48:14.902989
1586  2023-10-25 15:48:14.950894
1587  2023-10-25 15:48:14.998735
1588  2023-10-25 15:48:15.030668
1589  2023-10-25 15:48:15.078522
1590  2023-10-25 15:48:15.110436
1591  2023-10-25 15:48:15.157326
1592  2023-10-25 15:48:15.203189
1593  2023-10-25 15:48:15.250065
1594  2023-10-25 15:48:15.281975
1595  2023-10-25 15:48:15.329849
1596  2023-10-25 15:48:15.361755
1597  2023-10-25 15:48:15.409603
1598  2023-10-25 15:48:15.456520
1599  2023-10-25 15:48:15.487428
1600  2023-10-25 15:48:15.534269
1601  2023-10-25 15:48:15.580147
1602  2023-10-25 15:48:15.612061
1603  2023-10-25 15:48:15.659967
1604  2023-10-25 15:48:15.707805
1605  2023-10-25 15:48:15.739720
1606  2023-10-25 15:48:15.787593
1607  2023-10-25 15:48:15.819506
1608  2023-10-25 15:48:15.867416
1609  2023-10-25 15:48:15.915250
1610  2023-10-25 15:48:15.946168
1611  2023-10-25 15:48:15.994064
1612  2023-10-25 15:48:16.041912
1613  2023-10-25 15:48:16.073826
1614  2023-10-25 15:48:16.121729
1615  2023-10-25 15:48:16.153668
1616  2023-10-25 15:48:16.200488
1617  2023-10-25 15:48:16.247395
1618  2023-10-25 15:48:16.279306
1619  2023-10-25 15:48:16.327199
1620  2023-10-25 15:48:16.375052
1621  2023-10-25 15:48:16.406967
1622  2023-10-25 15:48:16.455840
1623  2023-10-25 15:48:16.486754
1624  2023-10-25 15:48:16.533632
1625  2023-10-25 15:48:16.581513
1626  2023-10-25 15:48:16.613434
1627  2023-10-25 15:48:16.660382
1628  2023-10-25 15:48:16.707183
1629  2023-10-25 15:48:16.739098
1630  2023-10-25 15:48:16.785955
1631  2023-10-25 15:48:16.832828
1632  2023-10-25 15:48:16.865759
1633  2023-10-25 15:48:16.913662
1634  2023-10-25 15:48:16.945503
1635  2023-10-25 15:48:16.993413
1636  2023-10-25 15:48:17.039246
1637  2023-10-25 15:48:17.071161
1638  2023-10-25 15:48:17.117098
1639  2023-10-25 15:48:17.164957
1640  2023-10-25 15:48:17.196856
1641  2023-10-25 15:48:17.243700
1642  2023-10-25 15:48:17.290607
1643  2023-10-25 15:48:17.322527
1644  2023-10-25 15:48:17.370361
1645  2023-10-25 15:48:17.402276
1646  2023-10-25 15:48:17.450148
1647  2023-10-25 15:48:17.498053
1648  2023-10-25 15:48:17.529978
1649  2023-10-25 15:48:17.577807
1650  2023-10-25 15:48:17.609721
1651  2023-10-25 15:48:17.657649
1652  2023-10-25 15:48:17.705465
1653  2023-10-25 15:48:17.736427
1654  2023-10-25 15:48:17.783306
1655  2023-10-25 15:48:17.831153
1656  2023-10-25 15:48:17.863094
1657  2023-10-25 15:48:17.910948
1658  2023-10-25 15:48:17.957836
1659  2023-10-25 15:48:17.989710
1660  2023-10-25 15:48:18.037608
1661  2023-10-25 15:48:18.069519
1662  2023-10-25 15:48:18.117364
1663  2023-10-25 15:48:18.165285
1664  2023-10-25 15:48:18.197182
1665  2023-10-25 15:48:18.245054
1666  2023-10-25 15:48:18.276970
1667  2023-10-25 15:48:18.324841
1668  2023-10-25 15:48:18.372712
1669  2023-10-25 15:48:18.404629
1670  2023-10-25 15:48:18.451578
1671  2023-10-25 15:48:18.499377
1672  2023-10-25 15:48:18.530287
1673  2023-10-25 15:48:18.576175
1674  2023-10-25 15:48:18.624042
1675  2023-10-25 15:48:18.655957
1676  2023-10-25 15:48:18.704826
1677  2023-10-25 15:48:18.736740
1678  2023-10-25 15:48:18.784635
1679  2023-10-25 15:48:18.829492
1680  2023-10-25 15:48:18.860410
1681  2023-10-25 15:48:18.908249
1682  2023-10-25 15:48:18.956157
1683  2023-10-25 15:48:18.988127
1684  2023-10-25 15:48:19.036032
1685  2023-10-25 15:48:19.082927
1686  2023-10-25 15:48:19.114787
1687  2023-10-25 15:48:19.162690
1688  2023-10-25 15:48:19.194605
1689  2023-10-25 15:48:19.242445
1690  2023-10-25 15:48:19.290363
1691  2023-10-25 15:48:19.321277
1692  2023-10-25 15:48:19.369106
1693  2023-10-25 15:48:19.415981
1694  2023-10-25 15:48:19.446931
1695  2023-10-25 15:48:19.494828
1696  2023-10-25 15:48:19.541675
1697  2023-10-25 15:48:19.572597
1698  2023-10-25 15:48:19.620449
1699  2023-10-25 15:48:19.652393
1700  2023-10-25 15:48:19.700254
1701  2023-10-25 15:48:19.748168
1702  2023-10-25 15:48:19.780008
1703  2023-10-25 15:48:19.827917
1704  2023-10-25 15:48:19.859828
1705  2023-10-25 15:48:19.907718
1706  2023-10-25 15:48:19.955571
1707  2023-10-25 15:48:19.987453
1708  2023-10-25 15:48:20.035374
1709  2023-10-25 15:48:20.083246
1710  2023-10-25 15:48:20.115146
1711  2023-10-25 15:48:20.163014
1712  2023-10-25 15:48:20.194944
1713  2023-10-25 15:48:20.242805
1714  2023-10-25 15:48:20.290688
1715  2023-10-25 15:48:20.322590
1716  2023-10-25 15:48:20.370497
1717  2023-10-25 15:48:20.402378
1718  2023-10-25 15:48:20.449220
1719  2023-10-25 15:48:20.496122
1720  2023-10-25 15:48:20.529071
1721  2023-10-25 15:48:20.574885
1722  2023-10-25 15:48:20.623802
1723  2023-10-25 15:48:20.655697
1724  2023-10-25 15:48:20.703567
1725  2023-10-25 15:48:20.749448
1726  2023-10-25 15:48:20.780449
1727  2023-10-25 15:48:20.826247
1728  2023-10-25 15:48:20.874082
1729  2023-10-25 15:48:20.905997
1730  2023-10-25 15:48:20.954919
1731  2023-10-25 15:48:20.985816
1732  2023-10-25 15:48:21.033719
1733  2023-10-25 15:48:21.081613
1734  2023-10-25 15:48:21.113528
1735  2023-10-25 15:48:21.160454
1736  2023-10-25 15:48:21.207277
1737  2023-10-25 15:48:21.238230
1738  2023-10-25 15:48:21.285112
1739  2023-10-25 15:48:21.332972
1740  2023-10-25 15:48:21.363883
1741  2023-10-25 15:48:21.410781
1742  2023-10-25 15:48:21.457639
1743  2023-10-25 15:48:21.488553
1744  2023-10-25 15:48:21.536431
1745  2023-10-25 15:48:21.568358
1746  2023-10-25 15:48:21.616184
1747  2023-10-25 15:48:21.663096
1748  2023-10-25 15:48:21.695023
1749  2023-10-25 15:48:21.740850
1750  2023-10-25 15:48:21.788763
1751  2023-10-25 15:48:21.820685
1752  2023-10-25 15:48:21.865551
1753  2023-10-25 15:48:21.912392
1754  2023-10-25 15:48:21.944306
1755  2023-10-25 15:48:21.992223
1756  2023-10-25 15:48:22.040050
1757  2023-10-25 15:48:22.071965
1758  2023-10-25 15:48:22.119879
1759  2023-10-25 15:48:22.151841
1760  2023-10-25 15:48:22.199740
1761  2023-10-25 15:48:22.247612
1762  2023-10-25 15:48:22.279671
1763  2023-10-25 15:48:22.327523
1764  2023-10-25 15:48:22.374414
1765  2023-10-25 15:48:22.406299
1766  2023-10-25 15:48:22.454201
1767  2023-10-25 15:48:22.486115
1768  2023-10-25 15:48:22.531999
1769  2023-10-25 15:48:22.579865
1770  2023-10-25 15:48:22.611827
1771  2023-10-25 15:48:22.659698
1772  2023-10-25 15:48:22.707555
1773  2023-10-25 15:48:22.739494
1774  2023-10-25 15:48:22.787357
1775  2023-10-25 15:48:22.819225
1776  2023-10-25 15:48:22.867130
1777  2023-10-25 15:48:22.915017
1778  2023-10-25 15:48:22.946915
1779  2023-10-25 15:48:22.994810
1780  2023-10-25 15:48:23.026717
1781  2023-10-25 15:48:23.074573
1782  2023-10-25 15:48:23.122447
1783  2023-10-25 15:48:23.154379
1784  2023-10-25 15:48:23.202471
1785  2023-10-25 15:48:23.249296
1786  2023-10-25 15:48:23.280165
1787  2023-10-25 15:48:23.328070
1788  2023-10-25 15:48:23.360032
1789  2023-10-25 15:48:23.408040
1790  2023-10-25 15:48:23.454920
1791  2023-10-25 15:48:23.487820
1792  2023-10-25 15:48:23.534707
1793  2023-10-25 15:48:23.583563
1794  2023-10-25 15:48:23.614446
1795  2023-10-25 15:48:23.662440
1796  2023-10-25 15:48:23.694352
1797  2023-10-25 15:48:23.743305
1798  2023-10-25 15:48:23.790244
1799  2023-10-25 15:48:23.823310
1800  2023-10-25 15:48:23.871350
1801  2023-10-25 15:48:23.903161
1802  2023-10-25 15:48:23.948099
1803  2023-10-25 15:48:23.996040
1804  2023-10-25 15:48:24.026922
1805  2023-10-25 15:48:24.074719
1806  2023-10-25 15:48:24.120629
1807  2023-10-25 15:48:24.152509
1808  2023-10-25 15:48:24.200487
1809  2023-10-25 15:48:24.246548
1810  2023-10-25 15:48:24.278549
1811  2023-10-25 15:48:24.326300
1812  2023-10-25 15:48:24.374197
1813  2023-10-25 15:48:24.406118
1814  2023-10-25 15:48:24.453991
1815  2023-10-25 15:48:24.485874
1816  2023-10-25 15:48:24.533828
1817  2023-10-25 15:48:24.581669
1818  2023-10-25 15:48:24.612614
1819  2023-10-25 15:48:24.659519
1820  2023-10-25 15:48:24.706425
1821  2023-10-25 15:48:24.737353
1822  2023-10-25 15:48:24.785216
1823  2023-10-25 15:48:24.831114
1824  2023-10-25 15:48:24.863023
1825  2023-10-25 15:48:24.910944
1826  2023-10-25 15:48:24.957731
1827  2023-10-25 15:48:24.989640
1828  2023-10-25 15:48:25.037536
1829  2023-10-25 15:48:25.069469
1830  2023-10-25 15:48:25.115337
1831  2023-10-25 15:48:25.163174
1832  2023-10-25 15:48:25.195090
1833  2023-10-25 15:48:25.242961
1834  2023-10-25 15:48:25.290888
1835  2023-10-25 15:48:25.322882
1836  2023-10-25 15:48:25.370744
1837  2023-10-25 15:48:25.401927
1838  2023-10-25 15:48:25.448963
1839  2023-10-25 15:48:25.496872
1840  2023-10-25 15:48:25.526755
1841  2023-10-25 15:48:25.574627
1842  2023-10-25 15:48:25.622499
1843  2023-10-25 15:48:25.654445
1844  2023-10-25 15:48:25.702285
1845  2023-10-25 15:48:25.750158
1846  2023-10-25 15:48:25.782074
1847  2023-10-25 15:48:25.830005
1848  2023-10-25 15:48:25.861928
1849  2023-10-25 15:48:25.909743
1850  2023-10-25 15:48:25.956639
1851  2023-10-25 15:48:25.987560
1852  2023-10-25 15:48:26.035445
1853  2023-10-25 15:48:26.083460
1854  2023-10-25 15:48:26.115376
1855  2023-10-25 15:48:26.163234
1856  2023-10-25 15:48:26.195162
1857  2023-10-25 15:48:26.243026
1858  2023-10-25 15:48:26.290906
1859  2023-10-25 15:48:26.322812
1860  2023-10-25 15:48:26.369700
1861  2023-10-25 15:48:26.416524
1862  2023-10-25 15:48:26.447442
1863  2023-10-25 15:48:26.495353
1864  2023-10-25 15:48:26.527263
1865  2023-10-25 15:48:26.575100
1866  2023-10-25 15:48:26.623029
1867  2023-10-25 15:48:26.653923
1868  2023-10-25 15:48:26.701766
1869  2023-10-25 15:48:26.749640
1870  2023-10-25 15:48:26.780584
1871  2023-10-25 15:48:26.828423
1872  2023-10-25 15:48:26.860405
1873  2023-10-25 15:48:26.908329
1874  2023-10-25 15:48:26.957195
1875  2023-10-25 15:48:26.987334
1876  2023-10-25 15:48:27.033267
1877  2023-10-25 15:48:27.082107
1878  2023-10-25 15:48:27.113024
1879  2023-10-25 15:48:27.160941
1880  2023-10-25 15:48:27.207771
1881  2023-10-25 15:48:27.238688
1882  2023-10-25 15:48:27.284566
1883  2023-10-25 15:48:27.332438
1884  2023-10-25 15:48:27.364352
1885  2023-10-25 15:48:27.412224
1886  2023-10-25 15:48:27.444139
1887  2023-10-25 15:48:27.492011
1888  2023-10-25 15:48:27.537889
1889  2023-10-25 15:48:27.569835
1890  2023-10-25 15:48:27.617721
1891  2023-10-25 15:48:27.664585
1892  2023-10-25 15:48:27.695497
1893  2023-10-25 15:48:27.743386
1894  2023-10-25 15:48:27.791262
1895  2023-10-25 15:48:27.823174
1896  2023-10-25 15:48:27.871031
1897  2023-10-25 15:48:27.902960
1898  2023-10-25 15:48:27.950832
1899  2023-10-25 15:48:27.998854
1900  2023-10-25 15:48:28.030805
1901  2023-10-25 15:48:28.075628
1902  2023-10-25 15:48:28.124519
1903  2023-10-25 15:48:28.156466
1904  2023-10-25 15:48:28.203437
1905  2023-10-25 15:48:28.235344
1906  2023-10-25 15:48:28.283220
1907  2023-10-25 15:48:28.331097
1908  2023-10-25 15:48:28.362015
1909  2023-10-25 15:48:28.408843
1910  2023-10-25 15:48:28.456757
1911  2023-10-25 15:48:28.488673
1912  2023-10-25 15:48:28.534507
1913  2023-10-25 15:48:28.582411
1914  2023-10-25 15:48:28.614293
1915  2023-10-25 15:48:28.662205
1916  2023-10-25 15:48:28.694113
1917  2023-10-25 15:48:28.741952
1918  2023-10-25 15:48:28.789937
1919  2023-10-25 15:48:28.822033
1920  2023-10-25 15:48:28.869776
1921  2023-10-25 15:48:28.916598
1922  2023-10-25 15:48:28.948513
1923  2023-10-25 15:48:28.994437
1924  2023-10-25 15:48:29.026450
1925  2023-10-25 15:48:29.074212
1926  2023-10-25 15:48:29.122049
1927  2023-10-25 15:48:29.154001
1928  2023-10-25 15:48:29.200866
1929  2023-10-25 15:48:29.248753
1930  2023-10-25 15:48:29.280625
1931  2023-10-25 15:48:29.328546
1932  2023-10-25 15:48:29.360442
1933  2023-10-25 15:48:29.408283
1934  2023-10-25 15:48:29.456208
1935  2023-10-25 15:48:29.488133
1936  2023-10-25 15:48:29.536190
1937  2023-10-25 15:48:29.581872
1938  2023-10-25 15:48:29.613781
1939  2023-10-25 15:48:29.662639
1940  2023-10-25 15:48:29.693564
1941  2023-10-25 15:48:29.740433
1942  2023-10-25 15:48:29.789296
1943  2023-10-25 15:48:29.821181
1944  2023-10-25 15:48:29.868096
1945  2023-10-25 15:48:29.915926
1946  2023-10-25 15:48:29.948874
1947  2023-10-25 15:48:29.995811
1948  2023-10-25 15:48:30.027688
1949  2023-10-25 15:48:30.075630
1950  2023-10-25 15:48:30.123517
1951  2023-10-25 15:48:30.155418
1952  2023-10-25 15:48:30.203289
1953  2023-10-25 15:48:30.235253
1954  2023-10-25 15:48:30.282229
1955  2023-10-25 15:48:30.329096
1956  2023-10-25 15:48:30.359974
1957  2023-10-25 15:48:30.407845
1958  2023-10-25 15:48:30.455743
1959  2023-10-25 15:48:30.485639
1960  2023-10-25 15:48:30.533509
1961  2023-10-25 15:48:30.581381
1962  2023-10-25 15:48:30.613296
1963  2023-10-25 15:48:30.662176
1964  2023-10-25 15:48:30.693083
1965  2023-10-25 15:48:30.740989
1966  2023-10-25 15:48:30.788827
1967  2023-10-25 15:48:30.820741
1968  2023-10-25 15:48:30.868661
1969  2023-10-25 15:48:30.916573
1970  2023-10-25 15:48:30.948487
1971  2023-10-25 15:48:30.996359
1972  2023-10-25 15:48:31.028310
1973  2023-10-25 15:48:31.075149
1974  2023-10-25 15:48:31.123113
1975  2023-10-25 15:48:31.155028
1976  2023-10-25 15:48:31.204002
1977  2023-10-25 15:48:31.234930
1978  2023-10-25 15:48:31.282776
1979  2023-10-25 15:48:31.330673
1980  2023-10-25 15:48:31.362595
1981  2023-10-25 15:48:31.408472
1982  2023-10-25 15:48:31.455321
1983  2023-10-25 15:48:31.486263
1984  2023-10-25 15:48:31.532165
1985  2023-10-25 15:48:31.580015
1986  2023-10-25 15:48:31.611899
1987  2023-10-25 15:48:31.657774
1988  2023-10-25 15:48:31.703040
1989  2023-10-25 15:48:31.735045
1990  2023-10-25 15:48:31.780922
1991  2023-10-25 15:48:31.828795
1992  2023-10-25 15:48:31.859829
1993  2023-10-25 15:48:31.906796
1994  2023-10-25 15:48:31.954696
1995  2023-10-25 15:48:31.985669
1996  2023-10-25 15:48:32.032651
1997  2023-10-25 15:48:32.080634
1998  2023-10-25 15:48:32.112681
1999  2023-10-25 15:48:32.158477
2000  2023-10-25 15:48:32.206348
2001  2023-10-25 15:48:32.238238
2002  2023-10-25 15:48:32.286136
2003  2023-10-25 15:48:32.318000
2004  2023-10-25 15:48:32.365872
2005  2023-10-25 15:48:32.413791
2006  2023-10-25 15:48:32.445693
2007  2023-10-25 15:48:32.493578
2008  2023-10-25 15:48:32.541435
2009  2023-10-25 15:48:32.573353
2010  2023-10-25 15:48:32.621222
2011  2023-10-25 15:48:32.653137
2012  2023-10-25 15:48:32.701020
2013  2023-10-25 15:48:32.748878
2014  2023-10-25 15:48:32.780795
2015  2023-10-25 15:48:32.828737
2016  2023-10-25 15:48:32.860650
2017  2023-10-25 15:48:32.908519
2018  2023-10-25 15:48:32.956419
2019  2023-10-25 15:48:32.987312
2020  2023-10-25 15:48:33.035180
2021  2023-10-25 15:48:33.083065
2022  2023-10-25 15:48:33.114935
2023  2023-10-25 15:48:33.162939
2024  2023-10-25 15:48:33.194985
2025  2023-10-25 15:48:33.242943
2026  2023-10-25 15:48:33.291841
2027  2023-10-25 15:48:33.322757
2028  2023-10-25 15:48:33.370623
2029  2023-10-25 15:48:33.402655
2030  2023-10-25 15:48:33.449527
2031  2023-10-25 15:48:33.497372
2032  2023-10-25 15:48:33.529308
2033  2023-10-25 15:48:33.577134
2034  2023-10-25 15:48:33.625056
2035  2023-10-25 15:48:33.655960
2036  2023-10-25 15:48:33.702019
2037  2023-10-25 15:48:33.749902
2038  2023-10-25 15:48:33.781840
2039  2023-10-25 15:48:33.830688
2040  2023-10-25 15:48:33.860658
2041  2023-10-25 15:48:33.906581
2042  2023-10-25 15:48:33.954408
2043  2023-10-25 15:48:33.986353
2044  2023-10-25 15:48:34.034235
2045  2023-10-25 15:48:34.082100
2046  2023-10-25 15:48:34.114071
2047  2023-10-25 15:48:34.162138
2048  2023-10-25 15:48:34.194054
2049  2023-10-25 15:48:34.241878
2050  2023-10-25 15:48:34.289750
2051  2023-10-25 15:48:34.321786
2052  2023-10-25 15:48:34.367939
2053  2023-10-25 15:48:34.415831
2054  2023-10-25 15:48:34.447728
2055  2023-10-25 15:48:34.493750
2056  2023-10-25 15:48:34.541647
2057  2023-10-25 15:48:34.573643
2058  2023-10-25 15:48:34.620512
2059  2023-10-25 15:48:34.651428
2060  2023-10-25 15:48:34.699363
2061  2023-10-25 15:48:34.747296
2062  2023-10-25 15:48:34.779256
2063  2023-10-25 15:48:34.827084
2064  2023-10-25 15:48:34.875008
2065  2023-10-25 15:48:34.906918
2066  2023-10-25 15:48:34.954825
2067  2023-10-25 15:48:34.985713
2068  2023-10-25 15:48:35.033570
2069  2023-10-25 15:48:35.081404
2070  2023-10-25 15:48:35.113317
2071  2023-10-25 15:48:35.163230
2072  2023-10-25 15:48:35.193152
2073  2023-10-25 15:48:35.242022
2074  2023-10-25 15:48:35.289847
2075  2023-10-25 15:48:35.320763
2076  2023-10-25 15:48:35.366792
2077  2023-10-25 15:48:35.414664
2078  2023-10-25 15:48:35.447728
2079  2023-10-25 15:48:35.494601
2080  2023-10-25 15:48:35.540478
2081  2023-10-25 15:48:35.572418
2082  2023-10-25 15:48:35.619268
2083  2023-10-25 15:48:35.666189
2084  2023-10-25 15:48:35.697113
2085  2023-10-25 15:48:35.743934
2086  2023-10-25 15:48:35.791841
2087  2023-10-25 15:48:35.822759
2088  2023-10-25 15:48:35.868647
2089  2023-10-25 15:48:35.916506
2090  2023-10-25 15:48:35.946428
2091  2023-10-25 15:48:35.994298
2092  2023-10-25 15:48:36.041214
2093  2023-10-25 15:48:36.072124
2094  2023-10-25 15:48:36.119962
2095  2023-10-25 15:48:36.163876
2096  2023-10-25 15:48:36.194729
2097  2023-10-25 15:48:36.242703
2098  2023-10-25 15:48:36.289476
2099  2023-10-25 15:48:36.320393
2100  2023-10-25 15:48:36.368296
2101  2023-10-25 15:48:36.416137
2102  2023-10-25 15:48:36.448052
2103  2023-10-25 15:48:36.495959
2104  2023-10-25 15:48:36.526880
2105  2023-10-25 15:48:36.573765
2106  2023-10-25 15:48:36.621588
2107  2023-10-25 15:48:36.652554
2108  2023-10-25 15:48:36.700378
2109  2023-10-25 15:48:36.748249
2110  2023-10-25 15:48:36.779217
2111  2023-10-25 15:48:36.825044
2112  2023-10-25 15:48:36.872916
2113  2023-10-25 15:48:36.904831
2114  2023-10-25 15:48:36.951706
2115  2023-10-25 15:48:36.997582
2116  2023-10-25 15:48:37.028500
2117  2023-10-25 15:48:37.076372
2118  2023-10-25 15:48:37.123246
2119  2023-10-25 15:48:37.154164
2120  2023-10-25 15:48:37.201074
2121  2023-10-25 15:48:37.248910
2122  2023-10-25 15:48:37.280825
2123  2023-10-25 15:48:37.328742
2124  2023-10-25 15:48:37.360656
2125  2023-10-25 15:48:37.408484
2126  2023-10-25 15:48:37.456356
2127  2023-10-25 15:48:37.488271
2128  2023-10-25 15:48:37.536301
2129  2023-10-25 15:48:37.568085
2130  2023-10-25 15:48:37.616091
2131  2023-10-25 15:48:37.663989
2132  2023-10-25 15:48:37.695926
2133  2023-10-25 15:48:37.743751
2134  2023-10-25 15:48:37.791622
2135  2023-10-25 15:48:37.822539
2136  2023-10-25 15:48:37.869414
2137  2023-10-25 15:48:37.901329
2138  2023-10-25 15:48:37.948231
2139  2023-10-25 15:48:37.994121
2140  2023-10-25 15:48:38.040988
2141  2023-10-25 15:48:38.072904
2142  2023-10-25 15:48:38.120249
2143  2023-10-25 15:48:38.153322
2144  2023-10-25 15:48:38.200195
2145  2023-10-25 15:48:38.247052
2146  2023-10-25 15:48:38.278975
2147  2023-10-25 15:48:38.324812
2148  2023-10-25 15:48:38.371730
2149  2023-10-25 15:48:38.403601
2150  2023-10-25 15:48:38.451473
2151  2023-10-25 15:48:38.498379
2152  2023-10-25 15:48:38.529297
2153  2023-10-25 15:48:38.577137
2154  2023-10-25 15:48:38.625009
2155  2023-10-25 15:48:38.656924
2156  2023-10-25 15:48:38.703847
2157  2023-10-25 15:48:38.735745
2158  2023-10-25 15:48:38.783585
2159  2023-10-25 15:48:38.829502
2160  2023-10-25 15:48:38.861419
2161  2023-10-25 15:48:38.909249
2162  2023-10-25 15:48:38.957123
2163  2023-10-25 15:48:38.988065
2164  2023-10-25 15:48:39.034914
2165  2023-10-25 15:48:39.082833
2166  2023-10-25 15:48:39.114735
2167  2023-10-25 15:48:39.162639
2168  2023-10-25 15:48:39.194487
2169  2023-10-25 15:48:39.242411
2170  2023-10-25 15:48:39.289275
2171  2023-10-25 15:48:39.321191
2172  2023-10-25 15:48:39.368059
2173  2023-10-25 15:48:39.415895
2174  2023-10-25 15:48:39.447845
2175  2023-10-25 15:48:39.495716
2176  2023-10-25 15:48:39.527630
2177  2023-10-25 15:48:39.575501
2178  2023-10-25 15:48:39.624339
2179  2023-10-25 15:48:39.655306
2180  2023-10-25 15:48:39.702167
2181  2023-10-25 15:48:39.750033
2182  2023-10-25 15:48:39.782914
2183  2023-10-25 15:48:39.829839
2184  2023-10-25 15:48:39.874709
2185  2023-10-25 15:48:39.905638
2186  2023-10-25 15:48:39.953459
2187  2023-10-25 15:48:39.985373
2188  2023-10-25 15:48:40.033290
2189  2023-10-25 15:48:40.081117
2190  2023-10-25 15:48:40.113032
2191  2023-10-25 15:48:40.160940
2192  2023-10-25 15:48:40.207804
2193  2023-10-25 15:48:40.238762
2194  2023-10-25 15:48:40.286670
2195  2023-10-25 15:48:40.318582
2196  2023-10-25 15:48:40.366421
2197  2023-10-25 15:48:40.414333
2198  2023-10-25 15:48:40.446267
2199  2023-10-25 15:48:40.494184
2200  2023-10-25 15:48:40.541014
2201  2023-10-25 15:48:40.571965
2202  2023-10-25 15:48:40.619920
2203  2023-10-25 15:48:40.651751
2204  2023-10-25 15:48:40.699776
2205  2023-10-25 15:48:40.746682
2206  2023-10-25 15:48:40.778596
2207  2023-10-25 15:48:40.826535
2208  2023-10-25 15:48:40.874437
2209  2023-10-25 15:48:40.906415
2210  2023-10-25 15:48:40.953314
2211  2023-10-25 15:48:41.000171
2212  2023-10-25 15:48:41.032083
2213  2023-10-25 15:48:41.078968
2214  2023-10-25 15:48:41.111008
2215  2023-10-25 15:48:41.159845
2216  2023-10-25 15:48:41.205770
2217  2023-10-25 15:48:41.237671
2218  2023-10-25 15:48:41.285543
2219  2023-10-25 15:48:41.333420
2220  2023-10-25 15:48:41.365329
2221  2023-10-25 15:48:41.413199
2222  2023-10-25 15:48:41.446081
2223  2023-10-25 15:48:41.492989
2224  2023-10-25 15:48:41.539829
2225  2023-10-25 15:48:41.571786
2226  2023-10-25 15:48:41.618618
2227  2023-10-25 15:48:41.664529
2228  2023-10-25 15:48:41.695447
2229  2023-10-25 15:48:41.742287
2230  2023-10-25 15:48:41.788217
2231  2023-10-25 15:48:41.819113
2232  2023-10-25 15:48:41.866999
2233  2023-10-25 15:48:41.914850
2234  2023-10-25 15:48:41.946809
2235  2023-10-25 15:48:41.993683
2236  2023-10-25 15:48:42.040700
2237  2023-10-25 15:48:42.072615
2238  2023-10-25 15:48:42.120487
2239  2023-10-25 15:48:42.152409
2240  2023-10-25 15:48:42.199307
2241  2023-10-25 15:48:42.247147
2242  2023-10-25 15:48:42.279061
2243  2023-10-25 15:48:42.326904
2244  2023-10-25 15:48:42.374806
2245  2023-10-25 15:48:42.406892
2246  2023-10-25 15:48:42.454614
2247  2023-10-25 15:48:42.500474
2248  2023-10-25 15:48:42.530393
2249  2023-10-25 15:48:42.578230
2250  2023-10-25 15:48:42.610185
2251  2023-10-25 15:48:42.657326
2252  2023-10-25 15:48:42.703993
2253  2023-10-25 15:48:42.734907
2254  2023-10-25 15:48:42.781810
2255  2023-10-25 15:48:42.829654
2256  2023-10-25 15:48:42.860573
2257  2023-10-25 15:48:42.907475
2258  2023-10-25 15:48:42.955317
2259  2023-10-25 15:48:42.987236
2260  2023-10-25 15:48:43.035168
2261  2023-10-25 15:48:43.083345
2262  2023-10-25 15:48:43.115134
2263  2023-10-25 15:48:43.163020
2264  2023-10-25 15:48:43.194927
2265  2023-10-25 15:48:43.242798
2266  2023-10-25 15:48:43.290665
2267  2023-10-25 15:48:43.322597
2268  2023-10-25 15:48:43.370457
2269  2023-10-25 15:48:43.402378
2270  2023-10-25 15:48:43.450245
2271  2023-10-25 15:48:43.499082
2272  2023-10-25 15:48:43.530995
2273  2023-10-25 15:48:43.577900
2274  2023-10-25 15:48:43.609815
2275  2023-10-25 15:48:43.657659
2276  2023-10-25 15:48:43.702572
2277  2023-10-25 15:48:43.750456
2278  2023-10-25 15:48:43.780363
2279  2023-10-25 15:48:43.828236
2280  2023-10-25 15:48:43.860147
2281  2023-10-25 15:48:43.908176
2282  2023-10-25 15:48:43.956049
2283  2023-10-25 15:48:43.987959
2284  2023-10-25 15:48:44.035836
2285  2023-10-25 15:48:44.083714
2286  2023-10-25 15:48:44.113596
2287  2023-10-25 15:48:44.161468
2288  2023-10-25 15:48:44.193519
2289  2023-10-25 15:48:44.241476
2290  2023-10-25 15:48:44.289368
2291  2023-10-25 15:48:44.321283
2292  2023-10-25 15:48:44.369203
2293  2023-10-25 15:48:44.416030
2294  2023-10-25 15:48:44.446947
2295  2023-10-25 15:48:44.493868
2296  2023-10-25 15:48:44.540696
2297  2023-10-25 15:48:44.571614
2298  2023-10-25 15:48:44.619647
2299  2023-10-25 15:48:44.651537
2300  2023-10-25 15:48:44.699410
2301  2023-10-25 15:48:44.745325
2302  2023-10-25 15:48:44.791211
2303  2023-10-25 15:48:44.823115
2304  2023-10-25 15:48:44.870990
2305  2023-10-25 15:48:44.903004
2306  2023-10-25 15:48:44.950909
2307  2023-10-25 15:48:44.998717
2308  2023-10-25 15:48:45.030875
2309  2023-10-25 15:48:45.078540
2310  2023-10-25 15:48:45.110534
2311  2023-10-25 15:48:45.158468
2312  2023-10-25 15:48:45.206420
2313  2023-10-25 15:48:45.238334
2314  2023-10-25 15:48:45.286240
2315  2023-10-25 15:48:45.333180
2316  2023-10-25 15:48:45.364041
2317  2023-10-25 15:48:45.411086
2318  2023-10-25 15:48:45.458956
2319  2023-10-25 15:48:45.489986
2320  2023-10-25 15:48:45.537795
2321  2023-10-25 15:48:45.569832
2322  2023-10-25 15:48:45.618786
2323  2023-10-25 15:48:45.664644
2324  2023-10-25 15:48:45.696560
2325  2023-10-25 15:48:45.743407
2326  2023-10-25 15:48:45.790313
2327  2023-10-25 15:48:45.822197
2328  2023-10-25 15:48:45.869116
2329  2023-10-25 15:48:45.915993
2330  2023-10-25 15:48:45.945930
2331  2023-10-25 15:48:45.991804
2332  2023-10-25 15:48:46.039705
2333  2023-10-25 15:48:46.071699
2334  2023-10-25 15:48:46.119465
2335  2023-10-25 15:48:46.151418
2336  2023-10-25 15:48:46.199291
2337  2023-10-25 15:48:46.247169
2338  2023-10-25 15:48:46.279083
2339  2023-10-25 15:48:46.325910
2340  2023-10-25 15:48:46.372826
2341  2023-10-25 15:48:46.403809
2342  2023-10-25 15:48:46.452739
2343  2023-10-25 15:48:46.500650
2344  2023-10-25 15:48:46.532505
2345  2023-10-25 15:48:46.578397
2346  2023-10-25 15:48:46.610319
2347  2023-10-25 15:48:46.657159
2348  2023-10-25 15:48:46.705058
2349  2023-10-25 15:48:46.736970
2350  2023-10-25 15:48:46.784818
2351  2023-10-25 15:48:46.832721
2352  2023-10-25 15:48:46.864636
2353  2023-10-25 15:48:46.912509
2354  2023-10-25 15:48:46.944391
2355  2023-10-25 15:48:46.992263
2356  2023-10-25 15:48:47.040168
2357  2023-10-25 15:48:47.072082
2358  2023-10-25 15:48:47.119922
2359  2023-10-25 15:48:47.151836
2360  2023-10-25 15:48:47.199741
2361  2023-10-25 15:48:47.247580
2362  2023-10-25 15:48:47.279495
2363  2023-10-25 15:48:47.327415
2364  2023-10-25 15:48:47.374462
2365  2023-10-25 15:48:47.405358
2366  2023-10-25 15:48:47.453219
2367  2023-10-25 15:48:47.485134
2368  2023-10-25 15:48:47.533008
2369  2023-10-25 15:48:47.578883
2370  2023-10-25 15:48:47.610798
2371  2023-10-25 15:48:47.658744
2372  2023-10-25 15:48:47.706542
2373  2023-10-25 15:48:47.737504
2374  2023-10-25 15:48:47.783349
2375  2023-10-25 15:48:47.831209
2376  2023-10-25 15:48:47.864164
2377  2023-10-25 15:48:47.909046
2378  2023-10-25 15:48:47.954918
2379  2023-10-25 15:48:47.985796
2380  2023-10-25 15:48:48.034696
2381  2023-10-25 15:48:48.082538
2382  2023-10-25 15:48:48.112463
2383  2023-10-25 15:48:48.163383
2384  2023-10-25 15:48:48.208362
2385  2023-10-25 15:48:48.239294
2386  2023-10-25 15:48:48.286120
2387  2023-10-25 15:48:48.333045
2388  2023-10-25 15:48:48.364964
2389  2023-10-25 15:48:48.412781
2390  2023-10-25 15:48:48.444696
2391  2023-10-25 15:48:48.492571
2392  2023-10-25 15:48:48.540443
2393  2023-10-25 15:48:48.573388
2394  2023-10-25 15:48:48.620227
2395  2023-10-25 15:48:48.652141
2396  2023-10-25 15:48:48.700064
2397  2023-10-25 15:48:48.747885
2398  2023-10-25 15:48:48.779800
2399  2023-10-25 15:48:48.825705
2400  2023-10-25 15:48:48.873549
2401  2023-10-25 15:48:48.905493
2402  2023-10-25 15:48:48.953364
2403  2023-10-25 15:48:48.985280
2404  2023-10-25 15:48:49.033176
2405  2023-10-25 15:48:49.080995
2406  2023-10-25 15:48:49.112909
2407  2023-10-25 15:48:49.160782
2408  2023-10-25 15:48:49.207689
2409  2023-10-25 15:48:49.239617
2410  2023-10-25 15:48:49.287494
2411  2023-10-25 15:48:49.319370
2412  2023-10-25 15:48:49.365269
2413  2023-10-25 15:48:49.413140
2414  2023-10-25 15:48:49.445067
2415  2023-10-25 15:48:49.493917
2416  2023-10-25 15:48:49.538802
2417  2023-10-25 15:48:49.570686
2418  2023-10-25 15:48:49.618594
2419  2023-10-25 15:48:49.666454
2420  2023-10-25 15:48:49.699376
2421  2023-10-25 15:48:49.746252
2422  2023-10-25 15:48:49.779128
2423  2023-10-25 15:48:49.826003
2424  2023-10-25 15:48:49.872909
2425  2023-10-25 15:48:49.904824
2426  2023-10-25 15:48:49.952709
2427  2023-10-25 15:48:50.000578
2428  2023-10-25 15:48:50.031509
2429  2023-10-25 15:48:50.079325
2430  2023-10-25 15:48:50.111240
2431  2023-10-25 15:48:50.159112
2432  2023-10-25 15:48:50.205025
2433  2023-10-25 15:48:50.236908
2434  2023-10-25 15:48:50.284776
2435  2023-10-25 15:48:50.330685
2436  2023-10-25 15:48:50.363569
2437  2023-10-25 15:48:50.408478
2438  2023-10-25 15:48:50.456362
2439  2023-10-25 15:48:50.488258
2440  2023-10-25 15:48:50.536106
2441  2023-10-25 15:48:50.568044
2442  2023-10-25 15:48:50.615921
2443  2023-10-25 15:48:50.663766
2444  2023-10-25 15:48:50.695680
2445  2023-10-25 15:48:50.742600
2446  2023-10-25 15:48:50.789570
2447  2023-10-25 15:48:50.821529
2448  2023-10-25 15:48:50.869374
2449  2023-10-25 15:48:50.916207
2450  2023-10-25 15:48:50.948154
2451  2023-10-25 15:48:50.996019
2452  2023-10-25 15:48:51.027978
2453  2023-10-25 15:48:51.075812
2454  2023-10-25 15:48:51.123685
2455  2023-10-25 15:48:51.155567
2456  2023-10-25 15:48:51.203471
2457  2023-10-25 15:48:51.235410
2458  2023-10-25 15:48:51.283276
2459  2023-10-25 15:48:51.331132
2460  2023-10-25 15:48:51.363043
2461  2023-10-25 15:48:51.410924
2462  2023-10-25 15:48:51.457759
2463  2023-10-25 15:48:51.489707
2464  2023-10-25 15:48:51.536578
2465  2023-10-25 15:48:51.582428
2466  2023-10-25 15:48:51.614340
2467  2023-10-25 15:48:51.662435
2468  2023-10-25 15:48:51.694155
2469  2023-10-25 15:48:51.741999
2470  2023-10-25 15:48:51.788906
2471  2023-10-25 15:48:51.820789
2472  2023-10-25 15:48:51.868663
2473  2023-10-25 15:48:51.916533
2474  2023-10-25 15:48:51.948448
2475  2023-10-25 15:48:51.996355
2476  2023-10-25 15:48:52.028237
2477  2023-10-25 15:48:52.076107
2478  2023-10-25 15:48:52.124025
2479  2023-10-25 15:48:52.155917
2480  2023-10-25 15:48:52.204763
2481  2023-10-25 15:48:52.235720
2482  2023-10-25 15:48:52.283552
2483  2023-10-25 15:48:52.331461
2484  2023-10-25 15:48:52.363338
2485  2023-10-25 15:48:52.411211
2486  2023-10-25 15:48:52.443126
2487  2023-10-25 15:48:52.489059
2488  2023-10-25 15:48:52.535934
2489  2023-10-25 15:48:52.582908
2490  2023-10-25 15:48:52.613815
2491  2023-10-25 15:48:52.661715
2492  2023-10-25 15:48:52.694576
2493  2023-10-25 15:48:52.740486
2494  2023-10-25 15:48:52.787398
2495  2023-10-25 15:48:52.819313
2496  2023-10-25 15:48:52.865258
2497  2023-10-25 15:48:52.913094
2498  2023-10-25 15:48:52.945026
2499  2023-10-25 15:48:52.993848
2500  2023-10-25 15:48:53.040751
2501  2023-10-25 15:48:53.073677
2502  2023-10-25 15:48:53.121545
2503  2023-10-25 15:48:53.153454
2504  2023-10-25 15:48:53.201334
2505  2023-10-25 15:48:53.249247
2506  2023-10-25 15:48:53.281142
2507  2023-10-25 15:48:53.328950
2508  2023-10-25 15:48:53.361863
2509  2023-10-25 15:48:53.408740
2510  2023-10-25 15:48:53.455670
2511  2023-10-25 15:48:53.487560
2512  2023-10-25 15:48:53.535432
2513  2023-10-25 15:48:53.581275
2514  2023-10-25 15:48:53.612192
2515  2023-10-25 15:48:53.657105
2516  2023-10-25 15:48:53.703947
2517  2023-10-25 15:48:53.734907
2518  2023-10-25 15:48:53.781773
2519  2023-10-25 15:48:53.828614
2520  2023-10-25 15:48:53.860528
2521  2023-10-25 15:48:53.906431
2522  2023-10-25 15:48:53.954328
2523  2023-10-25 15:48:53.986239
2524  2023-10-25 15:48:54.034113
2525  2023-10-25 15:48:54.081971
2526  2023-10-25 15:48:54.113898
2527  2023-10-25 15:48:54.161755
2528  2023-10-25 15:48:54.193669
2529  2023-10-25 15:48:54.241537
2530  2023-10-25 15:48:54.286517
2531  2023-10-25 15:48:54.334399
2532  2023-10-25 15:48:54.365273
2533  2023-10-25 15:48:54.413144
2534  2023-10-25 15:48:54.445059
2535  2023-10-25 15:48:54.493132
2536  2023-10-25 15:48:54.541833
2537  2023-10-25 15:48:54.571751
2538  2023-10-25 15:48:54.618631
2539  2023-10-25 15:48:54.665500
2540  2023-10-25 15:48:54.697386
2541  2023-10-25 15:48:54.742332
2542  2023-10-25 15:48:54.790208
2543  2023-10-25 15:48:54.822199
2544  2023-10-25 15:48:54.870075
2545  2023-10-25 15:48:54.902108
2546  2023-10-25 15:48:54.949935
2547  2023-10-25 15:48:54.997964
2548  2023-10-25 15:48:55.029875
2549  2023-10-25 15:48:55.077761
2550  2023-10-25 15:48:55.109662
2551  2023-10-25 15:48:55.156586
2552  2023-10-25 15:48:55.204377
2553  2023-10-25 15:48:55.236356
2554  2023-10-25 15:48:55.284207
2555  2023-10-25 15:48:55.332092
2556  2023-10-25 15:48:55.363985
2557  2023-10-25 15:48:55.411848
2558  2023-10-25 15:48:55.443797
2559  2023-10-25 15:48:55.489619
2560  2023-10-25 15:48:55.537678
2561  2023-10-25 15:48:55.569601
2562  2023-10-25 15:48:55.617440
2563  2023-10-25 15:48:55.664340
2564  2023-10-25 15:48:55.695267
2565  2023-10-25 15:48:55.744137
2566  2023-10-25 15:48:55.789980
2567  2023-10-25 15:48:55.821895
2568  2023-10-25 15:48:55.869766
2569  2023-10-25 15:48:55.913648
2570  2023-10-25 15:48:55.943568
2571  2023-10-25 15:48:55.992439
2572  2023-10-25 15:48:56.039445
2573  2023-10-25 15:48:56.071359
2574  2023-10-25 15:48:56.120187
2575  2023-10-25 15:48:56.166116
2576  2023-10-25 15:48:56.198016
2577  2023-10-25 15:48:56.245893
2578  2023-10-25 15:48:56.277843
2579  2023-10-25 15:48:56.325797
2580  2023-10-25 15:48:56.373680
2581  2023-10-25 15:48:56.405663
2582  2023-10-25 15:48:56.453620
2583  2023-10-25 15:48:56.485538
2584  2023-10-25 15:48:56.533355
2585  2023-10-25 15:48:56.582264
2586  2023-10-25 15:48:56.613142
2587  2023-10-25 15:48:56.662054
2588  2023-10-25 15:48:56.707935
2589  2023-10-25 15:48:56.738846
2590  2023-10-25 15:48:56.786716
2591  2023-10-25 15:48:56.818592
2592  2023-10-25 15:48:56.866514
2593  2023-10-25 15:48:56.913388
2594  2023-10-25 15:48:56.944297
2595  2023-10-25 15:48:56.992165
2596  2023-10-25 15:48:57.040037
2597  2023-10-25 15:48:57.071917
2598  2023-10-25 15:48:57.117830
2599  2023-10-25 15:48:57.165699
2600  2023-10-25 15:48:57.198649
2601  2023-10-25 15:48:57.243629
2602  2023-10-25 15:48:57.290530
2603  2023-10-25 15:48:57.321448
2604  2023-10-25 15:48:57.369293
2605  2023-10-25 15:48:57.416168
2606  2023-10-25 15:48:57.447085
2607  2023-10-25 15:48:57.494957
2608  2023-10-25 15:48:57.526905
2609  2023-10-25 15:48:57.574744
2610  2023-10-25 15:48:57.621678
2611  2023-10-25 15:48:57.653566
2612  2023-10-25 15:48:57.699512
2613  2023-10-25 15:48:57.747422
2614  2023-10-25 15:48:57.779419
2615  2023-10-25 15:48:57.827305
2616  2023-10-25 15:48:57.874262
2617  2023-10-25 15:48:57.905166
2618  2023-10-25 15:48:57.953033
2619  2023-10-25 15:48:57.985092
2620  2023-10-25 15:48:58.031842
2621  2023-10-25 15:48:58.079700
2622  2023-10-25 15:48:58.111622
2623  2023-10-25 15:48:58.159501
2624  2023-10-25 15:48:58.207350
2625  2023-10-25 15:48:58.239273
2626  2023-10-25 15:48:58.287109
2627  2023-10-25 15:48:58.319058
2628  2023-10-25 15:48:58.366929
2629  2023-10-25 15:48:58.414768
2630  2023-10-25 15:48:58.446683
2631  2023-10-25 15:48:58.494588
2632  2023-10-25 15:48:58.526528
2633  2023-10-25 15:48:58.574377
2634  2023-10-25 15:48:58.623212
2635  2023-10-25 15:48:58.654162
2636  2023-10-25 15:48:58.704025
2637  2023-10-25 15:48:58.750922
2638  2023-10-25 15:48:58.782816
2639  2023-10-25 15:48:58.828698
2640  2023-10-25 15:48:58.860603
2641  2023-10-25 15:48:58.908595
2642  2023-10-25 15:48:58.956501
2643  2023-10-25 15:48:58.988393
2644  2023-10-25 15:48:59.037275
2645  2023-10-25 15:48:59.084134
2646  2023-10-25 15:48:59.116049
2647  2023-10-25 15:48:59.162922
2648  2023-10-25 15:48:59.194865
2649  2023-10-25 15:48:59.242675
2650  2023-10-25 15:48:59.290580
2651  2023-10-25 15:48:59.322533
2652  2023-10-25 15:48:59.370460
2653  2023-10-25 15:48:59.401377
2654  2023-10-25 15:48:59.448252
2655  2023-10-25 15:48:59.494166
2656  2023-10-25 15:48:59.541061
2657  2023-10-25 15:48:59.571953
2658  2023-10-25 15:48:59.619858
2659  2023-10-25 15:48:59.651732
2660  2023-10-25 15:48:59.699608
2661  2023-10-25 15:48:59.747503
2662  2023-10-25 15:48:59.779414
2663  2023-10-25 15:48:59.827285
2664  2023-10-25 15:48:59.875142
2665  2023-10-25 15:48:59.907278
2666  2023-10-25 15:48:59.953947
2667  2023-10-25 15:48:59.984849
2668  2023-10-25 15:49:00.032721
2669  2023-10-25 15:49:00.079614
2670  2023-10-25 15:49:00.110598
2671  2023-10-25 15:49:00.158469
2672  2023-10-25 15:49:00.206368
2673  2023-10-25 15:49:00.238260
2674  2023-10-25 15:49:00.286133
2675  2023-10-25 15:49:00.318062
2676  2023-10-25 15:49:00.365922
2677  2023-10-25 15:49:00.413786
2678  2023-10-25 15:49:00.445709
2679  2023-10-25 15:49:00.493552
2680  2023-10-25 15:49:00.541419
2681  2023-10-25 15:49:00.572373
2682  2023-10-25 15:49:00.622234
2683  2023-10-25 15:49:00.652156
2684  2023-10-25 15:49:00.700027
2685  2023-10-25 15:49:00.747899
2686  2023-10-25 15:49:00.779838
2687  2023-10-25 15:49:00.827679
2688  2023-10-25 15:49:00.874579
2689  2023-10-25 15:49:00.907443
2690  2023-10-25 15:49:00.955358
2691  2023-10-25 15:49:00.989265
2692  2023-10-25 15:49:01.035198
2693  2023-10-25 15:49:01.083227
2694  2023-10-25 15:49:01.113114
2695  2023-10-25 15:49:01.160059
2696  2023-10-25 15:49:01.206863
2697  2023-10-25 15:49:01.237781
2698  2023-10-25 15:49:01.283822
2699  2023-10-25 15:49:01.331530
2700  2023-10-25 15:49:01.363445
2701  2023-10-25 15:49:01.411362
2702  2023-10-25 15:49:01.443265
2703  2023-10-25 15:49:01.491104
2704  2023-10-25 15:49:01.538028
2705  2023-10-25 15:49:01.568928
2706  2023-10-25 15:49:01.614805
2707  2023-10-25 15:49:01.662677
2708  2023-10-25 15:49:01.694595
2709  2023-10-25 15:49:01.742434
2710  2023-10-25 15:49:01.790306
2711  2023-10-25 15:49:01.822219
2712  2023-10-25 15:49:01.871196
2713  2023-10-25 15:49:01.902038
2714  2023-10-25 15:49:01.949936
2715  2023-10-25 15:49:01.996804
2716  2023-10-25 15:49:02.028698
2717  2023-10-25 15:49:02.075701
2718  2023-10-25 15:49:02.123305
2719  2023-10-25 15:49:02.155220
2720  2023-10-25 15:49:02.203153
2721  2023-10-25 15:49:02.235070
2722  2023-10-25 15:49:02.282941
2723  2023-10-25 15:49:02.331777
2724  2023-10-25 15:49:02.363691
2725  2023-10-25 15:49:02.410735
2726  2023-10-25 15:49:02.458607
2727  2023-10-25 15:49:02.491525
2728  2023-10-25 15:49:02.538394
2729  2023-10-25 15:49:02.568277
2730  2023-10-25 15:49:02.615152
2731  2023-10-25 15:49:02.662060
2732  2023-10-25 15:49:02.694115
2733  2023-10-25 15:49:02.740977
2734  2023-10-25 15:49:02.788811
2735  2023-10-25 15:49:02.821724
2736  2023-10-25 15:49:02.868634
2737  2023-10-25 15:49:02.916520
2738  2023-10-25 15:49:02.948413
2739  2023-10-25 15:49:02.994303
2740  2023-10-25 15:49:03.041169
2741  2023-10-25 15:49:03.072196
2742  2023-10-25 15:49:03.120034
2743  2023-10-25 15:49:03.151982
2744  2023-10-25 15:49:03.199855
2745  2023-10-25 15:49:03.247760
2746  2023-10-25 15:49:03.279656
2747  2023-10-25 15:49:03.327599
2748  2023-10-25 15:49:03.374553
2749  2023-10-25 15:49:03.405469
2750  2023-10-25 15:49:03.452340
2751  2023-10-25 15:49:03.500223
2752  2023-10-25 15:49:03.531178
2753  2023-10-25 15:49:03.575980
2754  2023-10-25 15:49:03.623853
2755  2023-10-25 15:49:03.655821
2756  2023-10-25 15:49:03.702777
2757  2023-10-25 15:49:03.749657
2758  2023-10-25 15:49:03.781597
2759  2023-10-25 15:49:03.830469
2760  2023-10-25 15:49:03.860355
2761  2023-10-25 15:49:03.908277
2762  2023-10-25 15:49:03.954105
2763  2023-10-25 15:49:03.985058
2764  2023-10-25 15:49:04.031927
2765  2023-10-25 15:49:04.077824
2766  2023-10-25 15:49:04.109719
2767  2023-10-25 15:49:04.157593
2768  2023-10-25 15:49:04.205471
2769  2023-10-25 15:49:04.237545
2770  2023-10-25 15:49:04.285273
2771  2023-10-25 15:49:04.334144
2772  2023-10-25 15:49:04.366052
2773  2023-10-25 15:49:04.412932
2774  2023-10-25 15:49:04.445792
2775  2023-10-25 15:49:04.492737
2776  2023-10-25 15:49:04.540538
2777  2023-10-25 15:49:04.572427
2778  2023-10-25 15:49:04.620325
2779  2023-10-25 15:49:04.652216
2780  2023-10-25 15:49:04.700093
2781  2023-10-25 15:49:04.747970
2782  2023-10-25 15:49:04.780019
2783  2023-10-25 15:49:04.825913
2784  2023-10-25 15:49:04.873775
2785  2023-10-25 15:49:04.905691
2786  2023-10-25 15:49:04.953562
2787  2023-10-25 15:49:04.999405
2788  2023-10-25 15:49:05.032349
2789  2023-10-25 15:49:05.077197
2790  2023-10-25 15:49:05.125069
2791  2023-10-25 15:49:05.158117
2792  2023-10-25 15:49:05.204953
2793  2023-10-25 15:49:05.235874
2794  2023-10-25 15:49:05.283743
2795  2023-10-25 15:49:05.331583
2796  2023-10-25 15:49:05.361581
2797  2023-10-25 15:49:05.409487
2798  2023-10-25 15:49:05.457351
2799  2023-10-25 15:49:05.489287
2800  2023-10-25 15:49:05.537164
2801  2023-10-25 15:49:05.583020
2802  2023-10-25 15:49:05.614937
2803  2023-10-25 15:49:05.662810
2804  2023-10-25 15:49:05.694739
2805  2023-10-25 15:49:05.742565
2806  2023-10-25 15:49:05.790469
2807  2023-10-25 15:49:05.822384
2808  2023-10-25 15:49:05.870462
2809  2023-10-25 15:49:05.902173
2810  2023-10-25 15:49:05.950073
2811  2023-10-25 15:49:05.998019
2812  2023-10-25 15:49:06.030033
2813  2023-10-25 15:49:06.076916
2814  2023-10-25 15:49:06.123751
2815  2023-10-25 15:49:06.155696
2816  2023-10-25 15:49:06.204535
2817  2023-10-25 15:49:06.235506
2818  2023-10-25 15:49:06.283357
2819  2023-10-25 15:49:06.331340
2820  2023-10-25 15:49:06.363263
2821  2023-10-25 15:49:06.409129
2822  2023-10-25 15:49:06.456997
2823  2023-10-25 15:49:06.486917
2824  2023-10-25 15:49:06.534757
2825  2023-10-25 15:49:06.582665
2826  2023-10-25 15:49:06.614544
2827  2023-10-25 15:49:06.662459
2828  2023-10-25 15:49:06.694364
2829  2023-10-25 15:49:06.742203
2830  2023-10-25 15:49:06.790117
2831  2023-10-25 15:49:06.822028
2832  2023-10-25 15:49:06.868261
2833  2023-10-25 15:49:06.916002
2834  2023-10-25 15:49:06.947916
2835  2023-10-25 15:49:06.995788
2836  2023-10-25 15:49:07.027703
2837  2023-10-25 15:49:07.075607
2838  2023-10-25 15:49:07.123447
2839  2023-10-25 15:49:07.155361
2840  2023-10-25 15:49:07.203234
2841  2023-10-25 15:49:07.235148
2842  2023-10-25 15:49:07.283047
2843  2023-10-25 15:49:07.329895
2844  2023-10-25 15:49:07.361810
2845  2023-10-25 15:49:07.407718
2846  2023-10-25 15:49:07.455591
2847  2023-10-25 15:49:07.487505
2848  2023-10-25 15:49:07.533393
2849  2023-10-25 15:49:07.580290
2850  2023-10-25 15:49:07.612167
2851  2023-10-25 15:49:07.659066
2852  2023-10-25 15:49:07.706955
2853  2023-10-25 15:49:07.738836
2854  2023-10-25 15:49:07.786675
2855  2023-10-25 15:49:07.818636
2856  2023-10-25 15:49:07.867459
2857  2023-10-25 15:49:07.914367
2858  2023-10-25 15:49:07.946280
2859  2023-10-25 15:49:07.994153
2860  2023-10-25 15:49:08.042990
2861  2023-10-25 15:49:08.071943
2862  2023-10-25 15:49:08.119827
2863  2023-10-25 15:49:08.152710
2864  2023-10-25 15:49:08.199600
2865  2023-10-25 15:49:08.248441
2866  2023-10-25 15:49:08.280453
2867  2023-10-25 15:49:08.328380
2868  2023-10-25 15:49:08.373205
2869  2023-10-25 15:49:08.405119
2870  2023-10-25 15:49:08.451996
2871  2023-10-25 15:49:08.499866
2872  2023-10-25 15:49:08.531781
2873  2023-10-25 15:49:08.579697
2874  2023-10-25 15:49:08.611599
2875  2023-10-25 15:49:08.659439
2876  2023-10-25 15:49:08.707359
2877  2023-10-25 15:49:08.739262
2878  2023-10-25 15:49:08.787098
2879  2023-10-25 15:49:08.819056
2880  2023-10-25 15:49:08.866886
2881  2023-10-25 15:49:08.914792
2882  2023-10-25 15:49:08.946697
2883  2023-10-25 15:49:08.993546
2884  2023-10-25 15:49:09.040500
2885  2023-10-25 15:49:09.072385
2886  2023-10-25 15:49:09.119324
2887  2023-10-25 15:49:09.166228
2888  2023-10-25 15:49:09.198131
2889  2023-10-25 15:49:09.244965
2890  2023-10-25 15:49:09.277875
2891  2023-10-25 15:49:09.324797
2892  2023-10-25 15:49:09.372622
2893  2023-10-25 15:49:09.403540
2894  2023-10-25 15:49:09.450449
2895  2023-10-25 15:49:09.499288
2896  2023-10-25 15:49:09.530247
2897  2023-10-25 15:49:09.578072
2898  2023-10-25 15:49:09.610037
2899  2023-10-25 15:49:09.657906
2900  2023-10-25 15:49:09.705733
2901  2023-10-25 15:49:09.737680
2902  2023-10-25 15:49:09.785570
2903  2023-10-25 15:49:09.832408
2904  2023-10-25 15:49:09.864309
2905  2023-10-25 15:49:09.913226
2906  2023-10-25 15:49:09.944180
2907  2023-10-25 15:49:09.993052
2908  2023-10-25 15:49:10.041963
2909  2023-10-25 15:49:10.073834
2910  2023-10-25 15:49:10.119757
2911  2023-10-25 15:49:10.166650
2912  2023-10-25 15:49:10.199530
2913  2023-10-25 15:49:10.247411
2914  2023-10-25 15:49:10.277357
2915  2023-10-25 15:49:10.323235
2916  2023-10-25 15:49:10.371108
2917  2023-10-25 15:49:10.403023
2918  2023-10-25 15:49:10.448900
2919  2023-10-25 15:49:10.496772
2920  2023-10-25 15:49:10.528686
2921  2023-10-25 15:49:10.576559
2922  2023-10-25 15:49:10.624429
2923  2023-10-25 15:49:10.656344
2924  2023-10-25 15:49:10.704243
2925  2023-10-25 15:49:10.736166
2926  2023-10-25 15:49:10.784037
2927  2023-10-25 15:49:10.831875
2928  2023-10-25 15:49:10.863790
2929  2023-10-25 15:49:10.911713
2930  2023-10-25 15:49:10.943608
2931  2023-10-25 15:49:10.989482
2932  2023-10-25 15:49:11.037372
2933  2023-10-25 15:49:11.069254
2934  2023-10-25 15:49:11.117146
2935  2023-10-25 15:49:11.165016
2936  2023-10-25 15:49:11.196931
2937  2023-10-25 15:49:11.244814
2938  2023-10-25 15:49:11.276729
2939  2023-10-25 15:49:11.323562
2940  2023-10-25 15:49:11.371465
2941  2023-10-25 15:49:11.403408
2942  2023-10-25 15:49:11.450255
2943  2023-10-25 15:49:11.498096
2944  2023-10-25 15:49:11.530024
2945  2023-10-25 15:49:11.578924
2946  2023-10-25 15:49:11.609993
2947  2023-10-25 15:49:11.656724
2948  2023-10-25 15:49:11.704576
2949  2023-10-25 15:49:11.735491
2950  2023-10-25 15:49:11.783385
2951  2023-10-25 15:49:11.831257
2952  2023-10-25 15:49:11.863124
2953  2023-10-25 15:49:11.910023
2954  2023-10-25 15:49:11.958017
2955  2023-10-25 15:49:11.987892
2956  2023-10-25 15:49:12.035763
2957  2023-10-25 15:49:12.080668
2958  2023-10-25 15:49:12.111586
2959  2023-10-25 15:49:12.159465
2960  2023-10-25 15:49:12.207339
2961  2023-10-25 15:49:12.239273
2962  2023-10-25 15:49:12.287240
2963  2023-10-25 15:49:12.319264
2964  2023-10-25 15:49:12.365167
2965  2023-10-25 15:49:12.413183
2966  2023-10-25 15:49:12.445087
2967  2023-10-25 15:49:12.492950
2968  2023-10-25 15:49:12.540839
2969  2023-10-25 15:49:12.572763
2970  2023-10-25 15:49:12.619618
2971  2023-10-25 15:49:12.666462
2972  2023-10-25 15:49:12.696419
2973  2023-10-25 15:49:12.744285
2974  2023-10-25 15:49:12.792167
2975  2023-10-25 15:49:12.825081
2976  2023-10-25 15:49:12.871942
2977  2023-10-25 15:49:12.903870
2978  2023-10-25 15:49:12.951735
2979  2023-10-25 15:49:12.999607
2980  2023-10-25 15:49:13.031527
2981  2023-10-25 15:49:13.078361
2982  2023-10-25 15:49:13.126267
2983  2023-10-25 15:49:13.154189
2984  2023-10-25 15:49:13.202159
2985  2023-10-25 15:49:13.249157
2986  2023-10-25 15:49:13.280105
2987  2023-10-25 15:49:13.328016
2988  2023-10-25 15:49:13.373969
2989  2023-10-25 15:49:13.404855
2990  2023-10-25 15:49:13.451761
2991  2023-10-25 15:49:13.499636
2992  2023-10-25 15:49:13.531567
2993  2023-10-25 15:49:13.579415
2994  2023-10-25 15:49:13.611330
2995  2023-10-25 15:49:13.658202
2996  2023-10-25 15:49:13.707098
2997  2023-10-25 15:49:13.736001
2998  2023-10-25 15:49:13.783887
2999  2023-10-25 15:49:13.831745
3000  2023-10-25 15:49:13.863672
3001  2023-10-25 15:49:13.911532
3002  2023-10-25 15:49:13.959412
3003  2023-10-25 15:49:13.991321
3004  2023-10-25 15:49:14.037203
3005  2023-10-25 15:49:14.069118
3006  2023-10-25 15:49:14.117951
3007  2023-10-25 15:49:14.165861
3008  2023-10-25 15:49:14.197772
3009  2023-10-25 15:49:14.241647
3010  2023-10-25 15:49:14.289489
3011  2023-10-25 15:49:14.320440
3012  2023-10-25 15:49:14.368448
3013  2023-10-25 15:49:14.416182
3014  2023-10-25 15:49:14.448096
3015  2023-10-25 15:49:14.495992
3016  2023-10-25 15:49:14.540933
3017  2023-10-25 15:49:14.571844
3018  2023-10-25 15:49:14.619683
3019  2023-10-25 15:49:14.651598
3020  2023-10-25 15:49:14.698511
3021  2023-10-25 15:49:14.745397
3022  2023-10-25 15:49:14.777297
3023  2023-10-25 15:49:14.825173
3024  2023-10-25 15:49:14.873057
3025  2023-10-25 15:49:14.904963
3026  2023-10-25 15:49:14.952828
3027  2023-10-25 15:49:14.984754
3028  2023-10-25 15:49:15.032617
3029  2023-10-25 15:49:15.080136
3030  2023-10-25 15:49:15.112004
3031  2023-10-25 15:49:15.158879
3032  2023-10-25 15:49:15.205864
3033  2023-10-25 15:49:15.237779
3034  2023-10-25 15:49:15.285634
3035  2023-10-25 15:49:15.332575
3036  2023-10-25 15:49:15.364563
3037  2023-10-25 15:49:15.412399
3038  2023-10-25 15:49:15.444365
3039  2023-10-25 15:49:15.492429
3040  2023-10-25 15:49:15.540306
3041  2023-10-25 15:49:15.572223
3042  2023-10-25 15:49:15.620085
3043  2023-10-25 15:49:15.665933
3044  2023-10-25 15:49:15.696850
3045  2023-10-25 15:49:15.743756
3046  2023-10-25 15:49:15.790633
3047  2023-10-25 15:49:15.822514
3048  2023-10-25 15:49:15.870421
3049  2023-10-25 15:49:15.902328
3050  2023-10-25 15:49:15.949227
3051  2023-10-25 15:49:15.997078
3052  2023-10-25 15:49:16.028993
3053  2023-10-25 15:49:16.074893
3054  2023-10-25 15:49:16.122763
3055  2023-10-25 15:49:16.153656
3056  2023-10-25 15:49:16.200531
3057  2023-10-25 15:49:16.248410
3058  2023-10-25 15:49:16.280346
3059  2023-10-25 15:49:16.328204
3060  2023-10-25 15:49:16.360135
3061  2023-10-25 15:49:16.406982
3062  2023-10-25 15:49:16.453863
3063  2023-10-25 15:49:16.485789
3064  2023-10-25 15:49:16.533646
3065  2023-10-25 15:49:16.582515
3066  2023-10-25 15:49:16.614433
3067  2023-10-25 15:49:16.662312
3068  2023-10-25 15:49:16.694188
3069  2023-10-25 15:49:16.742087
3070  2023-10-25 15:49:16.789928
3071  2023-10-25 15:49:16.821886
3072  2023-10-25 15:49:16.869746
3073  2023-10-25 15:49:16.915690
3074  2023-10-25 15:49:16.947678
3075  2023-10-25 15:49:16.992506
3076  2023-10-25 15:49:17.040356
3077  2023-10-25 15:49:17.072425
3078  2023-10-25 15:49:17.120220
3079  2023-10-25 15:49:17.152122
3080  2023-10-25 15:49:17.199005
3081  2023-10-25 15:49:17.245871
3082  2023-10-25 15:49:17.277790
3083  2023-10-25 15:49:17.325659
3084  2023-10-25 15:49:17.373529
3085  2023-10-25 15:49:17.405411
3086  2023-10-25 15:49:17.452285
3087  2023-10-25 15:49:17.499191
3088  2023-10-25 15:49:17.530123
3089  2023-10-25 15:49:17.577028
3090  2023-10-25 15:49:17.624873
3091  2023-10-25 15:49:17.656797
3092  2023-10-25 15:49:17.704643
3093  2023-10-25 15:49:17.736560
3094  2023-10-25 15:49:17.785443
3095  2023-10-25 15:49:17.833293
3096  2023-10-25 15:49:17.864252
3097  2023-10-25 15:49:17.911092
3098  2023-10-25 15:49:17.958011
3099  2023-10-25 15:49:17.989937
3100  2023-10-25 15:49:18.035811
3101  2023-10-25 15:49:18.083631
3102  2023-10-25 15:49:18.115557
3103  2023-10-25 15:49:18.163430
3104  2023-10-25 15:49:18.196296
3105  2023-10-25 15:49:18.242174
3106  2023-10-25 15:49:18.289048
3107  2023-10-25 15:49:18.318969
3108  2023-10-25 15:49:18.366840
3109  2023-10-25 15:49:18.414743
3110  2023-10-25 15:49:18.446662
3111  2023-10-25 15:49:18.494530
3112  2023-10-25 15:49:18.526413
3113  2023-10-25 15:49:18.574353
3114  2023-10-25 15:49:18.622157
3115  2023-10-25 15:49:18.654072
3116  2023-10-25 15:49:18.701989
3117  2023-10-25 15:49:18.749851
3118  2023-10-25 15:49:18.781780
3119  2023-10-25 15:49:18.828636
3120  2023-10-25 15:49:18.874496
3121  2023-10-25 15:49:18.906445
3122  2023-10-25 15:49:18.952332
3123  2023-10-25 15:49:19.000221
3124  2023-10-25 15:49:19.032110
3125  2023-10-25 15:49:19.079933
3126  2023-10-25 15:49:19.112050
3127  2023-10-25 15:49:19.159746
3128  2023-10-25 15:49:19.207627
3129  2023-10-25 15:49:19.239539
3130  2023-10-25 15:49:19.286383
3131  2023-10-25 15:49:19.333271
3132  2023-10-25 15:49:19.365202
3133  2023-10-25 15:49:19.413083
3134  2023-10-25 15:49:19.444991
3135  2023-10-25 15:49:19.490866
3136  2023-10-25 15:49:19.538740
3137  2023-10-25 15:49:19.570736
3138  2023-10-25 15:49:19.618668
3139  2023-10-25 15:49:19.666540
3140  2023-10-25 15:49:19.698450
3141  2023-10-25 15:49:19.746312
3142  2023-10-25 15:49:19.778243
3143  2023-10-25 15:49:19.824078
3144  2023-10-25 15:49:19.871951
3145  2023-10-25 15:49:19.902941
3146  2023-10-25 15:49:19.949784
3147  2023-10-25 15:49:19.997646
3148  2023-10-25 15:49:20.029576
3149  2023-10-25 15:49:20.075407
3150  2023-10-25 15:49:20.121317
3151  2023-10-25 15:49:20.153230
3152  2023-10-25 15:49:20.201071
3153  2023-10-25 15:49:20.249082
3154  2023-10-25 15:49:20.280857
3155  2023-10-25 15:49:20.327766
3156  2023-10-25 15:49:20.374643
3157  2023-10-25 15:49:20.406553
3158  2023-10-25 15:49:20.454428
3159  2023-10-25 15:49:20.486342
3160  2023-10-25 15:49:20.533230
3161  2023-10-25 15:49:20.580091
3162  2023-10-25 15:49:20.612007
3163  2023-10-25 15:49:20.659879
3164  2023-10-25 15:49:20.707911
3165  2023-10-25 15:49:20.739819
3166  2023-10-25 15:49:20.787695
3167  2023-10-25 15:49:20.819685
3168  2023-10-25 15:49:20.866587
3169  2023-10-25 15:49:20.914477
3170  2023-10-25 15:49:20.945379
3171  2023-10-25 15:49:20.994250
3172  2023-10-25 15:49:21.042114
3173  2023-10-25 15:49:21.074033
3174  2023-10-25 15:49:21.119913
3175  2023-10-25 15:49:21.151933
3176  2023-10-25 15:49:21.199906
3177  2023-10-25 15:49:21.247812
3178  2023-10-25 15:49:21.281719
3179  2023-10-25 15:49:21.327564
3180  2023-10-25 15:49:21.374479
3181  2023-10-25 15:49:21.406383
3182  2023-10-25 15:49:21.454251
3183  2023-10-25 15:49:21.485186
3184  2023-10-25 15:49:21.532202
3185  2023-10-25 15:49:21.579915
3186  2023-10-25 15:49:21.611836
3187  2023-10-25 15:49:21.658715
3188  2023-10-25 15:49:21.706551
3189  2023-10-25 15:49:21.738609
3190  2023-10-25 15:49:21.786476
3191  2023-10-25 15:49:21.831365
3192  2023-10-25 15:49:21.862279
3193  2023-10-25 15:49:21.910157
3194  2023-10-25 15:49:21.958050
3195  2023-10-25 15:49:21.989931
3196  2023-10-25 15:49:22.035804
3197  2023-10-25 15:49:22.083680
3198  2023-10-25 15:49:22.113610
3199  2023-10-25 15:49:22.161475
3200  2023-10-25 15:49:22.193388
3201  2023-10-25 15:49:22.241298
3202  2023-10-25 15:49:22.289130
3203  2023-10-25 15:49:22.321051
3204  2023-10-25 15:49:22.365944
3205  2023-10-25 15:49:22.411804
3206  2023-10-25 15:49:22.457678
3207  2023-10-25 15:49:22.488607
3208  2023-10-25 15:49:22.536470
3209  2023-10-25 15:49:22.568385
3210  2023-10-25 15:49:22.616259
3211  2023-10-25 15:49:22.664101
3212  2023-10-25 15:49:22.696011
3213  2023-10-25 15:49:22.743907
3214  2023-10-25 15:49:22.789785
3215  2023-10-25 15:49:22.821707
3216  2023-10-25 15:49:22.869574
3217  2023-10-25 15:49:22.916465
3218  2023-10-25 15:49:22.947367
3219  2023-10-25 15:49:22.995319
3220  2023-10-25 15:49:23.041240
3221  2023-10-25 15:49:23.073167
3222  2023-10-25 15:49:23.120987
3223  2023-10-25 15:49:23.152914
3224  2023-10-25 15:49:23.200783
3225  2023-10-25 15:49:23.248647
3226  2023-10-25 15:49:23.280563
3227  2023-10-25 15:49:23.328437
3228  2023-10-25 15:49:23.374310
3229  2023-10-25 15:49:23.406219
3230  2023-10-25 15:49:23.453069
3231  2023-10-25 15:49:23.500081
3232  2023-10-25 15:49:23.531996
3233  2023-10-25 15:49:23.579870
3234  2023-10-25 15:49:23.611818
3235  2023-10-25 15:49:23.659655
3236  2023-10-25 15:49:23.707497
3237  2023-10-25 15:49:23.739442
3238  2023-10-25 15:49:23.786317
3239  2023-10-25 15:49:23.818201
3240  2023-10-25 15:49:23.866124
3241  2023-10-25 15:49:23.912947
3242  2023-10-25 15:49:23.943865
3243  2023-10-25 15:49:23.991737
3244  2023-10-25 15:49:24.036649
3245  2023-10-25 15:49:24.083526
3246  2023-10-25 15:49:24.115439
3247  2023-10-25 15:49:24.163343
3248  2023-10-25 15:49:24.195220
3249  2023-10-25 15:49:24.243066
3250  2023-10-25 15:49:24.289975
3251  2023-10-25 15:49:24.321885
3252  2023-10-25 15:49:24.370766
3253  2023-10-25 15:49:24.402763
3254  2023-10-25 15:49:24.450621
3255  2023-10-25 15:49:24.497478
3256  2023-10-25 15:49:24.530404
3257  2023-10-25 15:49:24.577272
3258  2023-10-25 15:49:24.625194
3259  2023-10-25 15:49:24.657051
3260  2023-10-25 15:49:24.704933
3261  2023-10-25 15:49:24.736832
3262  2023-10-25 15:49:24.783710
3263  2023-10-25 15:49:24.831561
3264  2023-10-25 15:49:24.863476
3265  2023-10-25 15:49:24.912345
3266  2023-10-25 15:49:24.956226
3267  2023-10-25 15:49:24.987146
3268  2023-10-25 15:49:25.034091
3269  2023-10-25 15:49:25.082960
3270  2023-10-25 15:49:25.113845
3271  2023-10-25 15:49:25.161822
3272  2023-10-25 15:49:25.193738
3273  2023-10-25 15:49:25.241578
3274  2023-10-25 15:49:25.289475
3275  2023-10-25 15:49:25.321399
3276  2023-10-25 15:49:25.369236
3277  2023-10-25 15:49:25.416111
3278  2023-10-25 15:49:25.447055
3279  2023-10-25 15:49:25.494949
3280  2023-10-25 15:49:25.526845
3281  2023-10-25 15:49:25.574717
3282  2023-10-25 15:49:25.622590
3283  2023-10-25 15:49:25.654691
3284  2023-10-25 15:49:25.702346
3285  2023-10-25 15:49:25.750263
3286  2023-10-25 15:49:25.782166
3287  2023-10-25 15:49:25.829034
3288  2023-10-25 15:49:25.859959
3289  2023-10-25 15:49:25.906844
3290  2023-10-25 15:49:25.953676
3291  2023-10-25 15:49:25.984623
3292  2023-10-25 15:49:26.033499
3293  2023-10-25 15:49:26.081369
3294  2023-10-25 15:49:26.113309
3295  2023-10-25 15:49:26.161181
3296  2023-10-25 15:49:26.209161
3297  2023-10-25 15:49:26.242076
3298  2023-10-25 15:49:26.289956
3299  2023-10-25 15:49:26.321859
3300  2023-10-25 15:49:26.366732
3301  2023-10-25 15:49:26.414678
3302  2023-10-25 15:49:26.446633
3303  2023-10-25 15:49:26.495519
3304  2023-10-25 15:49:26.543366
3305  2023-10-25 15:49:26.575350
3306  2023-10-25 15:49:26.623365
3307  2023-10-25 15:49:26.653252
3308  2023-10-25 15:49:26.703152
3309  2023-10-25 15:49:26.751034
3310  2023-10-25 15:49:26.780967
3311  2023-10-25 15:49:26.828823
3312  2023-10-25 15:49:26.859837
3313  2023-10-25 15:49:26.906682
3314  2023-10-25 15:49:26.954555
3315  2023-10-25 15:49:26.986513
3316  2023-10-25 15:49:27.034373
3317  2023-10-25 15:49:27.082211
3318  2023-10-25 15:49:27.115156
3319  2023-10-25 15:49:27.162032
3320  2023-10-25 15:49:27.192942
3321  2023-10-25 15:49:27.240787
3322  2023-10-25 15:49:27.288659
3323  2023-10-25 15:49:27.318622
3324  2023-10-25 15:49:27.366484
3325  2023-10-25 15:49:27.414323
3326  2023-10-25 15:49:27.446420
3327  2023-10-25 15:49:27.494363
3328  2023-10-25 15:49:27.540239
3329  2023-10-25 15:49:27.572157
3330  2023-10-25 15:49:27.620022
3331  2023-10-25 15:49:27.651948
3332  2023-10-25 15:49:27.699816
3333  2023-10-25 15:49:27.747703
3334  2023-10-25 15:49:27.779601
3335  2023-10-25 15:49:27.827490
3336  2023-10-25 15:49:27.874348
3337  2023-10-25 15:49:27.905266
3338  2023-10-25 15:49:27.951151
3339  2023-10-25 15:49:28.000012
3340  2023-10-25 15:49:28.030964
3341  2023-10-25 15:49:28.078901
3342  2023-10-25 15:49:28.126776
3343  2023-10-25 15:49:28.158690
3344  2023-10-25 15:49:28.206526
3345  2023-10-25 15:49:28.235569
3346  2023-10-25 15:49:28.282312
3347  2023-10-25 15:49:28.330227
3348  2023-10-25 15:49:28.360105
3349  2023-10-25 15:49:28.407976
3350  2023-10-25 15:49:28.455849
3351  2023-10-25 15:49:28.488794
3352  2023-10-25 15:49:28.535635
3353  2023-10-25 15:49:28.583507
3354  2023-10-25 15:49:28.615422
3355  2023-10-25 15:49:28.663339
3356  2023-10-25 15:49:28.695242
3357  2023-10-25 15:49:28.743243
3358  2023-10-25 15:49:28.790111
3359  2023-10-25 15:49:28.821014
3360  2023-10-25 15:49:28.868996
3361  2023-10-25 15:49:28.915945
3362  2023-10-25 15:49:28.946842
3363  2023-10-25 15:49:28.993738
3364  2023-10-25 15:49:29.040607
3365  2023-10-25 15:49:29.072481
3366  2023-10-25 15:49:29.120410
3367  2023-10-25 15:49:29.153309
3368  2023-10-25 15:49:29.200195
3369  2023-10-25 15:49:29.248013
3370  2023-10-25 15:49:29.279927
3371  2023-10-25 15:49:29.326845
3372  2023-10-25 15:49:29.373728
3373  2023-10-25 15:49:29.405625
3374  2023-10-25 15:49:29.451496
3375  2023-10-25 15:49:29.499380
3376  2023-10-25 15:49:29.530412
3377  2023-10-25 15:49:29.579129
3378  2023-10-25 15:49:29.610045
3379  2023-10-25 15:49:29.657971
3380  2023-10-25 15:49:29.705842
3381  2023-10-25 15:49:29.738860
3382  2023-10-25 15:49:29.785757
3383  2023-10-25 15:49:29.832622
3384  2023-10-25 15:49:29.863497
3385  2023-10-25 15:49:29.911368
3386  2023-10-25 15:49:29.943284
3387  2023-10-25 15:49:29.990159
3388  2023-10-25 15:49:30.036036
3389  2023-10-25 15:49:30.081913
3390  2023-10-25 15:49:30.112830
3391  2023-10-25 15:49:30.160769
3392  2023-10-25 15:49:30.207612
3393  2023-10-25 15:49:30.237530
3394  2023-10-25 15:49:30.285403
3395  2023-10-25 15:49:30.333240
3396  2023-10-25 15:49:30.365191
3397  2023-10-25 15:49:30.413135
3398  2023-10-25 15:49:30.445170
3399  2023-10-25 15:49:30.493019
3400  2023-10-25 15:49:30.538865
3401  2023-10-25 15:49:30.569782
3402  2023-10-25 15:49:30.616657
3403  2023-10-25 15:49:30.662569
3404  2023-10-25 15:49:30.694485
3405  2023-10-25 15:49:30.742321
3406  2023-10-25 15:49:30.790323
3407  2023-10-25 15:49:30.822174
3408  2023-10-25 15:49:30.869979
3409  2023-10-25 15:49:30.901894
3410  2023-10-25 15:49:30.949799
3411  2023-10-25 15:49:30.996645
3412  2023-10-25 15:49:31.027655
3413  2023-10-25 15:49:31.075463
3414  2023-10-25 15:49:31.123335
3415  2023-10-25 15:49:31.155249
3416  2023-10-25 15:49:31.203089
3417  2023-10-25 15:49:31.249010
3418  2023-10-25 15:49:31.280916
3419  2023-10-25 15:49:31.327787
3420  2023-10-25 15:49:31.374664
3421  2023-10-25 15:49:31.406545
3422  2023-10-25 15:49:31.454417
3423  2023-10-25 15:49:31.486334
3424  2023-10-25 15:49:31.535240
3425  2023-10-25 15:49:31.582168
3426  2023-10-25 15:49:31.613136
3427  2023-10-25 15:49:31.660053
3428  2023-10-25 15:49:31.708881
3429  2023-10-25 15:49:31.740829
3430  2023-10-25 15:49:31.785742
3431  2023-10-25 15:49:31.832660
3432  2023-10-25 15:49:31.863544
3433  2023-10-25 15:49:31.910416
3434  2023-10-25 15:49:31.956742
3435  2023-10-25 15:49:31.988657
3436  2023-10-25 15:49:32.036529
3437  2023-10-25 15:49:32.068539
3438  2023-10-25 15:49:32.115735
3439  2023-10-25 15:49:32.162609
3440  2023-10-25 15:49:32.194495
3441  2023-10-25 15:49:32.241124
3442  2023-10-25 15:49:32.288050
3443  2023-10-25 15:49:32.318971
3444  2023-10-25 15:49:32.366826
3445  2023-10-25 15:49:32.415705
3446  2023-10-25 15:49:32.446623
3447  2023-10-25 15:49:32.494497
3448  2023-10-25 15:49:32.542440
3449  2023-10-25 15:49:32.572366
3450  2023-10-25 15:49:32.620253
3451  2023-10-25 15:49:32.653171
3452  2023-10-25 15:49:32.700015
3453  2023-10-25 15:49:32.747900
3454  2023-10-25 15:49:32.779812
3455  2023-10-25 15:49:32.827674
3456  2023-10-25 15:49:32.876546
3457  2023-10-25 15:49:32.907462
3458  2023-10-25 15:49:32.956337
3459  2023-10-25 15:49:32.989246
3460  2023-10-25 15:49:33.036086
3461  2023-10-25 15:49:33.079969
3462  2023-10-25 15:49:33.110886
3463  2023-10-25 15:49:33.158797
3464  2023-10-25 15:49:33.205715
3465  2023-10-25 15:49:33.237630
3466  2023-10-25 15:49:33.286500
3467  2023-10-25 15:49:33.333373
3468  2023-10-25 15:49:33.365333
3469  2023-10-25 15:49:33.412163
3470  2023-10-25 15:49:33.443160
3471  2023-10-25 15:49:33.490998
3472  2023-10-25 15:49:33.538951
3473  2023-10-25 15:49:33.569866
3474  2023-10-25 15:49:33.616751
3475  2023-10-25 15:49:33.664614
3476  2023-10-25 15:49:33.695533
3477  2023-10-25 15:49:33.742446
3478  2023-10-25 15:49:33.791306
3479  2023-10-25 15:49:33.823194
3480  2023-10-25 15:49:33.870164
3481  2023-10-25 15:49:33.901975
3482  2023-10-25 15:49:33.950850
3483  2023-10-25 15:49:33.997724
3484  2023-10-25 15:49:34.031640
3485  2023-10-25 15:49:34.076566
3486  2023-10-25 15:49:34.123399
3487  2023-10-25 15:49:34.155313
3488  2023-10-25 15:49:34.203192
3489  2023-10-25 15:49:34.235095
3490  2023-10-25 15:49:34.282962
3491  2023-10-25 15:49:34.330826
3492  2023-10-25 15:49:34.362747
3493  2023-10-25 15:49:34.410619
3494  2023-10-25 15:49:34.459497
3495  2023-10-25 15:49:34.491403
3496  2023-10-25 15:49:34.539286
3497  2023-10-25 15:49:34.571308
3498  2023-10-25 15:49:34.616154
3499  2023-10-25 15:49:34.664028
3500  2023-10-25 15:49:34.694975
3501  2023-10-25 15:49:34.742815
3502  2023-10-25 15:49:34.789721
3503  2023-10-25 15:49:34.820639
3504  2023-10-25 15:49:34.868571
3505  2023-10-25 15:49:34.916430
3506  2023-10-25 15:49:34.948277
3507  2023-10-25 15:49:34.994235
3508  2023-10-25 15:49:35.041093
3509  2023-10-25 15:49:35.072016
3510  2023-10-25 15:49:35.118891
3511  2023-10-25 15:49:35.166752
3512  2023-10-25 15:49:35.198674
3513  2023-10-25 15:49:35.246519
3514  2023-10-25 15:49:35.278476
3515  2023-10-25 15:49:35.326337
3516  2023-10-25 15:49:35.374206
3517  2023-10-25 15:49:35.406121
3518  2023-10-25 15:49:35.453993
3519  2023-10-25 15:49:35.486908
3520  2023-10-25 15:49:35.533748
3521  2023-10-25 15:49:35.581651
3522  2023-10-25 15:49:35.614571
3523  2023-10-25 15:49:35.661411
3524  2023-10-25 15:49:35.706325
3525  2023-10-25 15:49:35.738234
3526  2023-10-25 15:49:35.786109
3527  2023-10-25 15:49:35.833973
3528  2023-10-25 15:49:35.866891
3529  2023-10-25 15:49:35.911735
3530  2023-10-25 15:49:35.957699
3531  2023-10-25 15:49:35.988624
3532  2023-10-25 15:49:36.034468
3533  2023-10-25 15:49:36.081387
3534  2023-10-25 15:49:36.112297
3535  2023-10-25 15:49:36.160252
3536  2023-10-25 15:49:36.208186
3537  2023-10-25 15:49:36.240244
3538  2023-10-25 15:49:36.287094
3539  2023-10-25 15:49:36.318139
3540  2023-10-25 15:49:36.366086
3541  2023-10-25 15:49:36.414014
3542  2023-10-25 15:49:36.446064
3543  2023-10-25 15:49:36.493912
3544  2023-10-25 15:49:36.541763
3545  2023-10-25 15:49:36.573696
3546  2023-10-25 15:49:36.621556
3547  2023-10-25 15:49:36.652488
3548  2023-10-25 15:49:36.701365
3549  2023-10-25 15:49:36.748257
3550  2023-10-25 15:49:36.780138
3551  2023-10-25 15:49:36.826977
3552  2023-10-25 15:49:36.875876
3553  2023-10-25 15:49:36.906763
3554  2023-10-25 15:49:36.954700
3555  2023-10-25 15:49:36.986554
3556  2023-10-25 15:49:37.034422
3557  2023-10-25 15:49:37.082294
3558  2023-10-25 15:49:37.113266
3559  2023-10-25 15:49:37.162113
3560  2023-10-25 15:49:37.206960
3561  2023-10-25 15:49:37.238875
