
1  2023-11-29 14:36:56.961248
2  2023-11-29 14:36:56.993162
3  2023-11-29 14:36:57.041035
4  2023-11-29 14:36:57.072950
5  2023-11-29 14:36:57.104864
6  2023-11-29 14:36:57.137440
7  2023-11-29 14:36:57.169355
8  2023-11-29 14:36:57.201269
9  2023-11-29 14:36:57.233183
10  2023-11-29 14:36:57.265167
11  2023-11-29 14:36:57.297081
12  2023-11-29 14:36:57.328971
13  2023-11-29 14:36:57.360899
14  2023-11-29 14:36:57.392770
15  2023-11-29 14:36:57.440696
16  2023-11-29 14:36:57.472602
17  2023-11-29 14:36:57.504511
18  2023-11-29 14:36:57.537414
19  2023-11-29 14:36:57.569340
20  2023-11-29 14:36:57.601246
21  2023-11-29 14:36:57.633165
22  2023-11-29 14:36:57.665073
23  2023-11-29 14:36:57.696997
24  2023-11-29 14:36:57.728871
25  2023-11-29 14:36:57.760818
26  2023-11-29 14:36:57.793133
27  2023-11-29 14:36:57.841006
28  2023-11-29 14:36:57.872921
29  2023-11-29 14:36:57.904835
30  2023-11-29 14:36:57.936750
31  2023-11-29 14:36:57.969662
32  2023-11-29 14:36:58.000580
33  2023-11-29 14:36:58.032495
34  2023-11-29 14:36:58.064410
35  2023-11-29 14:36:58.097320
36  2023-11-29 14:36:58.129237
37  2023-11-29 14:36:58.161155
38  2023-11-29 14:36:58.193076
39  2023-11-29 14:36:58.241156
40  2023-11-29 14:36:58.273104
41  2023-11-29 14:36:58.305093
42  2023-11-29 14:36:58.336488
43  2023-11-29 14:36:58.368529
44  2023-11-29 14:36:58.400665
45  2023-11-29 14:36:58.432672
46  2023-11-29 14:36:58.464572
47  2023-11-29 14:36:58.497452
48  2023-11-29 14:36:58.528370
49  2023-11-29 14:36:58.561314
50  2023-11-29 14:36:58.593195
51  2023-11-29 14:36:58.641105
52  2023-11-29 14:36:58.673021
53  2023-11-29 14:36:58.704943
54  2023-11-29 14:36:58.736813
55  2023-11-29 14:36:58.768765
56  2023-11-29 14:36:58.800642
57  2023-11-29 14:36:58.832594
58  2023-11-29 14:36:58.864471
59  2023-11-29 14:36:58.897391
60  2023-11-29 14:36:58.929298
61  2023-11-29 14:36:58.961243
62  2023-11-29 14:36:58.993128
63  2023-11-29 14:36:59.041030
64  2023-11-29 14:36:59.072946
65  2023-11-29 14:36:59.105270
66  2023-11-29 14:36:59.137148
67  2023-11-29 14:36:59.169113
68  2023-11-29 14:36:59.201063
69  2023-11-29 14:36:59.233177
70  2023-11-29 14:36:59.265092
71  2023-11-29 14:36:59.296721
72  2023-11-29 14:36:59.328620
73  2023-11-29 14:36:59.360547
74  2023-11-29 14:36:59.408415
75  2023-11-29 14:36:59.441319
76  2023-11-29 14:36:59.473240
77  2023-11-29 14:36:59.505150
78  2023-11-29 14:36:59.537031
79  2023-11-29 14:36:59.568946
80  2023-11-29 14:36:59.600894
81  2023-11-29 14:36:59.632592
82  2023-11-29 14:36:59.664510
83  2023-11-29 14:36:59.696493
84  2023-11-29 14:36:59.729355
85  2023-11-29 14:36:59.761270
86  2023-11-29 14:36:59.809172
87  2023-11-29 14:36:59.841056
88  2023-11-29 14:36:59.872971
89  2023-11-29 14:36:59.904918
90  2023-11-29 14:36:59.936833
91  2023-11-29 14:36:59.968746
92  2023-11-29 14:37:00.000663
93  2023-11-29 14:37:00.032572
94  2023-11-29 14:37:00.065463
95  2023-11-29 14:37:00.097371
96  2023-11-29 14:37:00.129286
97  2023-11-29 14:37:00.161200
98  2023-11-29 14:37:00.209073
99  2023-11-29 14:37:00.240987
100  2023-11-29 14:37:00.272940
101  2023-11-29 14:37:00.304955
102  2023-11-29 14:37:00.336833
103  2023-11-29 14:37:00.368815
104  2023-11-29 14:37:00.400784
105  2023-11-29 14:37:00.432715
106  2023-11-29 14:37:00.464652
107  2023-11-29 14:37:00.496642
108  2023-11-29 14:37:00.528558
109  2023-11-29 14:37:00.561437
110  2023-11-29 14:37:00.609356
111  2023-11-29 14:37:00.641233
112  2023-11-29 14:37:00.673189
113  2023-11-29 14:37:00.705094
114  2023-11-29 14:37:00.736969
115  2023-11-29 14:37:00.768883
116  2023-11-29 14:37:00.800797
117  2023-11-29 14:37:00.832712
118  2023-11-29 14:37:00.864666
119  2023-11-29 14:37:00.896576
120  2023-11-29 14:37:00.928490
121  2023-11-29 14:37:00.961368
122  2023-11-29 14:37:01.009240
123  2023-11-29 14:37:01.041097
124  2023-11-29 14:37:01.073012
125  2023-11-29 14:37:01.104926
126  2023-11-29 14:37:01.136841
127  2023-11-29 14:37:01.168946
128  2023-11-29 14:37:01.200872
129  2023-11-29 14:37:01.233072
130  2023-11-29 14:37:01.264994
131  2023-11-29 14:37:01.296902
132  2023-11-29 14:37:01.328829
133  2023-11-29 14:37:01.360731
134  2023-11-29 14:37:01.408755
135  2023-11-29 14:37:01.440777
136  2023-11-29 14:37:01.473642
137  2023-11-29 14:37:01.504559
138  2023-11-29 14:37:01.537473
139  2023-11-29 14:37:01.569387
140  2023-11-29 14:37:01.601300
141  2023-11-29 14:37:01.633215
142  2023-11-29 14:37:01.664466
143  2023-11-29 14:37:01.696454
144  2023-11-29 14:37:01.728333
145  2023-11-29 14:37:01.761245
146  2023-11-29 14:37:01.808796
147  2023-11-29 14:37:01.840708
148  2023-11-29 14:37:01.872623
149  2023-11-29 14:37:01.904538
150  2023-11-29 14:37:01.937450
151  2023-11-29 14:37:01.968371
152  2023-11-29 14:37:02.000363
153  2023-11-29 14:37:02.033243
154  2023-11-29 14:37:02.065157
155  2023-11-29 14:37:02.097072
156  2023-11-29 14:37:02.128986
157  2023-11-29 14:37:02.160901
158  2023-11-29 14:37:02.208773
159  2023-11-29 14:37:02.240688
160  2023-11-29 14:37:02.272814
161  2023-11-29 14:37:02.304728
162  2023-11-29 14:37:02.336574
163  2023-11-29 14:37:02.369459
164  2023-11-29 14:37:02.401374
165  2023-11-29 14:37:02.433290
166  2023-11-29 14:37:02.465238
167  2023-11-29 14:37:02.496883
168  2023-11-29 14:37:02.528885
169  2023-11-29 14:37:02.560756
170  2023-11-29 14:37:02.608628
171  2023-11-29 14:37:02.640543
172  2023-11-29 14:37:02.672678
173  2023-11-29 14:37:02.704636
174  2023-11-29 14:37:02.736546
175  2023-11-29 14:37:02.768516
176  2023-11-29 14:37:02.800431
177  2023-11-29 14:37:02.832384
178  2023-11-29 14:37:02.865258
179  2023-11-29 14:37:02.897172
180  2023-11-29 14:37:02.929087
181  2023-11-29 14:37:02.976959
182  2023-11-29 14:37:03.008874
183  2023-11-29 14:37:03.040789
184  2023-11-29 14:37:03.072703
185  2023-11-29 14:37:03.104613
186  2023-11-29 14:37:03.137334
187  2023-11-29 14:37:03.169248
188  2023-11-29 14:37:03.201163
189  2023-11-29 14:37:03.233078
190  2023-11-29 14:37:03.264992
191  2023-11-29 14:37:03.296907
192  2023-11-29 14:37:03.328822
193  2023-11-29 14:37:03.376699
194  2023-11-29 14:37:03.408609
195  2023-11-29 14:37:03.441525
196  2023-11-29 14:37:03.472438
197  2023-11-29 14:37:03.505350
198  2023-11-29 14:37:03.537310
199  2023-11-29 14:37:03.569213
200  2023-11-29 14:37:03.601094
201  2023-11-29 14:37:03.633048
202  2023-11-29 14:37:03.664963
203  2023-11-29 14:37:03.697316
204  2023-11-29 14:37:03.728353
205  2023-11-29 14:37:03.777300
206  2023-11-29 14:37:03.809210
207  2023-11-29 14:37:03.841124
208  2023-11-29 14:37:03.873038
209  2023-11-29 14:37:03.904937
210  2023-11-29 14:37:03.936813
211  2023-11-29 14:37:03.968561
212  2023-11-29 14:37:04.000476
213  2023-11-29 14:37:04.032427
214  2023-11-29 14:37:04.064428
215  2023-11-29 14:37:04.097340
216  2023-11-29 14:37:04.129255
217  2023-11-29 14:37:04.177127
218  2023-11-29 14:37:04.209075
219  2023-11-29 14:37:04.240986
220  2023-11-29 14:37:04.272871
221  2023-11-29 14:37:04.305175
222  2023-11-29 14:37:04.336408
223  2023-11-29 14:37:04.368801
224  2023-11-29 14:37:04.400715
225  2023-11-29 14:37:04.432629
226  2023-11-29 14:37:04.464543
227  2023-11-29 14:37:04.496458
228  2023-11-29 14:37:04.529376
229  2023-11-29 14:37:04.577244
230  2023-11-29 14:37:04.609158
231  2023-11-29 14:37:04.641072
232  2023-11-29 14:37:04.673032
233  2023-11-29 14:37:04.704910
234  2023-11-29 14:37:04.736838
235  2023-11-29 14:37:04.768739
236  2023-11-29 14:37:04.800739
237  2023-11-29 14:37:04.832654
238  2023-11-29 14:37:04.864547
239  2023-11-29 14:37:04.896543
240  2023-11-29 14:37:04.928458
241  2023-11-29 14:37:04.977051
242  2023-11-29 14:37:05.008966
243  2023-11-29 14:37:05.040880
244  2023-11-29 14:37:05.072843
245  2023-11-29 14:37:05.104717
246  2023-11-29 14:37:05.136679
247  2023-11-29 14:37:05.168670
248  2023-11-29 14:37:05.200619
249  2023-11-29 14:37:05.232752
250  2023-11-29 14:37:05.264746
251  2023-11-29 14:37:05.296661
252  2023-11-29 14:37:05.328614
253  2023-11-29 14:37:05.376447
254  2023-11-29 14:37:05.408409
255  2023-11-29 14:37:05.441281
256  2023-11-29 14:37:05.473189
257  2023-11-29 14:37:05.505187
258  2023-11-29 14:37:05.537102
259  2023-11-29 14:37:05.569017
260  2023-11-29 14:37:05.600931
261  2023-11-29 14:37:05.632847
262  2023-11-29 14:37:05.664761
263  2023-11-29 14:37:05.696676
264  2023-11-29 14:37:05.728590
265  2023-11-29 14:37:05.776462
266  2023-11-29 14:37:05.809374
267  2023-11-29 14:37:05.840387
268  2023-11-29 14:37:05.873299
269  2023-11-29 14:37:05.905214
270  2023-11-29 14:37:05.937128
271  2023-11-29 14:37:05.969043
272  2023-11-29 14:37:06.000958
273  2023-11-29 14:37:06.032872
274  2023-11-29 14:37:06.064787
275  2023-11-29 14:37:06.096702
276  2023-11-29 14:37:06.128617
277  2023-11-29 14:37:06.176488
278  2023-11-29 14:37:06.208403
279  2023-11-29 14:37:06.241316
280  2023-11-29 14:37:06.273230
281  2023-11-29 14:37:06.305246
282  2023-11-29 14:37:06.337150
283  2023-11-29 14:37:06.369139
284  2023-11-29 14:37:06.401117
285  2023-11-29 14:37:06.433074
286  2023-11-29 14:37:06.464989
287  2023-11-29 14:37:06.496938
288  2023-11-29 14:37:06.528930
289  2023-11-29 14:37:06.576771
290  2023-11-29 14:37:06.608678
291  2023-11-29 14:37:06.640593
292  2023-11-29 14:37:06.672508
293  2023-11-29 14:37:06.704466
294  2023-11-29 14:37:06.736343
295  2023-11-29 14:37:06.769250
296  2023-11-29 14:37:06.801164
297  2023-11-29 14:37:06.833110
298  2023-11-29 14:37:06.864993
299  2023-11-29 14:37:06.896908
300  2023-11-29 14:37:06.944780
301  2023-11-29 14:37:06.976695
302  2023-11-29 14:37:07.008609
303  2023-11-29 14:37:07.040524
304  2023-11-29 14:37:07.072505
305  2023-11-29 14:37:07.104420
306  2023-11-29 14:37:07.137299
307  2023-11-29 14:37:07.169214
308  2023-11-29 14:37:07.201132
309  2023-11-29 14:37:07.233044
310  2023-11-29 14:37:07.264957
311  2023-11-29 14:37:07.296873
312  2023-11-29 14:37:07.344784
313  2023-11-29 14:37:07.376687
314  2023-11-29 14:37:07.408604
315  2023-11-29 14:37:07.441485
316  2023-11-29 14:37:07.472435
317  2023-11-29 14:37:07.505315
318  2023-11-29 14:37:07.537232
319  2023-11-29 14:37:07.569145
320  2023-11-29 14:37:07.601060
321  2023-11-29 14:37:07.632974
322  2023-11-29 14:37:07.664730
323  2023-11-29 14:37:07.696649
324  2023-11-29 14:37:07.745518
325  2023-11-29 14:37:07.777461
326  2023-11-29 14:37:07.809071
327  2023-11-29 14:37:07.840986
328  2023-11-29 14:37:07.872902
329  2023-11-29 14:37:07.904816
330  2023-11-29 14:37:07.936877
331  2023-11-29 14:37:07.968875
332  2023-11-29 14:37:08.000789
333  2023-11-29 14:37:08.032832
334  2023-11-29 14:37:08.064715
335  2023-11-29 14:37:08.096630
336  2023-11-29 14:37:08.144597
337  2023-11-29 14:37:08.176631
338  2023-11-29 14:37:08.208589
339  2023-11-29 14:37:08.240491
340  2023-11-29 14:37:08.273373
341  2023-11-29 14:37:08.305287
342  2023-11-29 14:37:08.337202
343  2023-11-29 14:37:08.369117
344  2023-11-29 14:37:08.401031
345  2023-11-29 14:37:08.432946
346  2023-11-29 14:37:08.464861
347  2023-11-29 14:37:08.496783
348  2023-11-29 14:37:08.544647
349  2023-11-29 14:37:08.576562
350  2023-11-29 14:37:08.608477
351  2023-11-29 14:37:08.640391
352  2023-11-29 14:37:08.673303
353  2023-11-29 14:37:08.705218
354  2023-11-29 14:37:08.737133
355  2023-11-29 14:37:08.769047
356  2023-11-29 14:37:08.800963
357  2023-11-29 14:37:08.832877
358  2023-11-29 14:37:08.864792
359  2023-11-29 14:37:08.896707
360  2023-11-29 14:37:08.944581
361  2023-11-29 14:37:08.976494
362  2023-11-29 14:37:09.008415
363  2023-11-29 14:37:09.040931
364  2023-11-29 14:37:09.072878
365  2023-11-29 14:37:09.104760
366  2023-11-29 14:37:09.136675
367  2023-11-29 14:37:09.168736
368  2023-11-29 14:37:09.200743
369  2023-11-29 14:37:09.233028
370  2023-11-29 14:37:09.265076
371  2023-11-29 14:37:09.296991
372  2023-11-29 14:37:09.344863
373  2023-11-29 14:37:09.376778
374  2023-11-29 14:37:09.408692
375  2023-11-29 14:37:09.440607
376  2023-11-29 14:37:09.472522
377  2023-11-29 14:37:09.504437
378  2023-11-29 14:37:09.537348
379  2023-11-29 14:37:09.569298
380  2023-11-29 14:37:09.601178
381  2023-11-29 14:37:09.633092
382  2023-11-29 14:37:09.665037
383  2023-11-29 14:37:09.696957
384  2023-11-29 14:37:09.744840
385  2023-11-29 14:37:09.776708
386  2023-11-29 14:37:09.808623
387  2023-11-29 14:37:09.840996
388  2023-11-29 14:37:09.872924
389  2023-11-29 14:37:09.905013
390  2023-11-29 14:37:09.936927
391  2023-11-29 14:37:09.968842
392  2023-11-29 14:37:10.000756
393  2023-11-29 14:37:10.032792
394  2023-11-29 14:37:10.064706
395  2023-11-29 14:37:10.096621
396  2023-11-29 14:37:10.144493
397  2023-11-29 14:37:10.177405
398  2023-11-29 14:37:10.208322
399  2023-11-29 14:37:10.241320
400  2023-11-29 14:37:10.273223
401  2023-11-29 14:37:10.305135
402  2023-11-29 14:37:10.337048
403  2023-11-29 14:37:10.368972
404  2023-11-29 14:37:10.400891
405  2023-11-29 14:37:10.432806
406  2023-11-29 14:37:10.464721
407  2023-11-29 14:37:10.512593
408  2023-11-29 14:37:10.544507
409  2023-11-29 14:37:10.576422
410  2023-11-29 14:37:10.609334
411  2023-11-29 14:37:10.641249
412  2023-11-29 14:37:10.673163
413  2023-11-29 14:37:10.705078
414  2023-11-29 14:37:10.736993
415  2023-11-29 14:37:10.769051
416  2023-11-29 14:37:10.800950
417  2023-11-29 14:37:10.832865
418  2023-11-29 14:37:10.864780
419  2023-11-29 14:37:10.912652
420  2023-11-29 14:37:10.944566
421  2023-11-29 14:37:10.976481
422  2023-11-29 14:37:11.009394
423  2023-11-29 14:37:11.041308
424  2023-11-29 14:37:11.073223
425  2023-11-29 14:37:11.105138
426  2023-11-29 14:37:11.137053
427  2023-11-29 14:37:11.168966
428  2023-11-29 14:37:11.201880
429  2023-11-29 14:37:11.232796
430  2023-11-29 14:37:11.264711
431  2023-11-29 14:37:11.313580
432  2023-11-29 14:37:11.345495
433  2023-11-29 14:37:11.377409
434  2023-11-29 14:37:11.409039
435  2023-11-29 14:37:11.440947
436  2023-11-29 14:37:11.472865
437  2023-11-29 14:37:11.504823
438  2023-11-29 14:37:11.536694
439  2023-11-29 14:37:11.568646
440  2023-11-29 14:37:11.600564
441  2023-11-29 14:37:11.632437
442  2023-11-29 14:37:11.665353
443  2023-11-29 14:37:11.713249
444  2023-11-29 14:37:11.744962
445  2023-11-29 14:37:11.776907
446  2023-11-29 14:37:11.809272
447  2023-11-29 14:37:11.841328
448  2023-11-29 14:37:11.873279
449  2023-11-29 14:37:11.905174
450  2023-11-29 14:37:11.937120
451  2023-11-29 14:37:11.969171
452  2023-11-29 14:37:12.001085
453  2023-11-29 14:37:12.033038
454  2023-11-29 14:37:12.064915
455  2023-11-29 14:37:12.112880
456  2023-11-29 14:37:12.144795
457  2023-11-29 14:37:12.176710
458  2023-11-29 14:37:12.208625
459  2023-11-29 14:37:12.240539
460  2023-11-29 14:37:12.272454
461  2023-11-29 14:37:12.304369
462  2023-11-29 14:37:12.337281
463  2023-11-29 14:37:12.369195
464  2023-11-29 14:37:12.401157
465  2023-11-29 14:37:12.433163
466  2023-11-29 14:37:12.465077
467  2023-11-29 14:37:12.512949
468  2023-11-29 14:37:12.544864
469  2023-11-29 14:37:12.576779
470  2023-11-29 14:37:12.608693
471  2023-11-29 14:37:12.640608
472  2023-11-29 14:37:12.672664
473  2023-11-29 14:37:12.704579
474  2023-11-29 14:37:12.736493
475  2023-11-29 14:37:12.769405
476  2023-11-29 14:37:12.801320
477  2023-11-29 14:37:12.833235
478  2023-11-29 14:37:12.865192
479  2023-11-29 14:37:12.913106
480  2023-11-29 14:37:12.945022
481  2023-11-29 14:37:12.976935
482  2023-11-29 14:37:13.008850
483  2023-11-29 14:37:13.040558
484  2023-11-29 14:37:13.072476
485  2023-11-29 14:37:13.105219
486  2023-11-29 14:37:13.137255
487  2023-11-29 14:37:13.169170
488  2023-11-29 14:37:13.201119
489  2023-11-29 14:37:13.232999
490  2023-11-29 14:37:13.264914
491  2023-11-29 14:37:13.312786
492  2023-11-29 14:37:13.344701
493  2023-11-29 14:37:13.376615
494  2023-11-29 14:37:13.408571
495  2023-11-29 14:37:13.440445
496  2023-11-29 14:37:13.472359
497  2023-11-29 14:37:13.504725
498  2023-11-29 14:37:13.536677
499  2023-11-29 14:37:13.568554
500  2023-11-29 14:37:13.600469
501  2023-11-29 14:37:13.632383
502  2023-11-29 14:37:13.665295
503  2023-11-29 14:37:13.713168
504  2023-11-29 14:37:13.745082
505  2023-11-29 14:37:13.776997
506  2023-11-29 14:37:13.808912
507  2023-11-29 14:37:13.840826
508  2023-11-29 14:37:13.872785
509  2023-11-29 14:37:13.904741
510  2023-11-29 14:37:13.936655
511  2023-11-29 14:37:13.968681
512  2023-11-29 14:37:14.000595
513  2023-11-29 14:37:14.032510
514  2023-11-29 14:37:14.064425
515  2023-11-29 14:37:14.113294
516  2023-11-29 14:37:14.145209
517  2023-11-29 14:37:14.177124
518  2023-11-29 14:37:14.209038
519  2023-11-29 14:37:14.241081
520  2023-11-29 14:37:14.272996
521  2023-11-29 14:37:14.304911
522  2023-11-29 14:37:14.337092
523  2023-11-29 14:37:14.369012
524  2023-11-29 14:37:14.400927
525  2023-11-29 14:37:14.432845
526  2023-11-29 14:37:14.480888
527  2023-11-29 14:37:14.512803
528  2023-11-29 14:37:14.545716
529  2023-11-29 14:37:14.576741
530  2023-11-29 14:37:14.608665
531  2023-11-29 14:37:14.641367
532  2023-11-29 14:37:14.672604
533  2023-11-29 14:37:14.704920
534  2023-11-29 14:37:14.736977
535  2023-11-29 14:37:14.768854
536  2023-11-29 14:37:14.800769
537  2023-11-29 14:37:14.832731
538  2023-11-29 14:37:14.881555
539  2023-11-29 14:37:14.913468
540  2023-11-29 14:37:14.945382
541  2023-11-29 14:37:14.977301
542  2023-11-29 14:37:15.009212
543  2023-11-29 14:37:15.041128
544  2023-11-29 14:37:15.073041
545  2023-11-29 14:37:15.104956
546  2023-11-29 14:37:15.136870
547  2023-11-29 14:37:15.168785
548  2023-11-29 14:37:15.201755
549  2023-11-29 14:37:15.232614
550  2023-11-29 14:37:15.281485
551  2023-11-29 14:37:15.313399
552  2023-11-29 14:37:15.345315
553  2023-11-29 14:37:15.377195
554  2023-11-29 14:37:15.409157
555  2023-11-29 14:37:15.441073
556  2023-11-29 14:37:15.472987
557  2023-11-29 14:37:15.504902
558  2023-11-29 14:37:15.536816
559  2023-11-29 14:37:15.569759
560  2023-11-29 14:37:15.600645
561  2023-11-29 14:37:15.633558
562  2023-11-29 14:37:15.680909
563  2023-11-29 14:37:15.712824
564  2023-11-29 14:37:15.744772
565  2023-11-29 14:37:15.776697
566  2023-11-29 14:37:15.809605
567  2023-11-29 14:37:15.840488
568  2023-11-29 14:37:15.873373
569  2023-11-29 14:37:15.904443
570  2023-11-29 14:37:15.936405
571  2023-11-29 14:37:15.969317
572  2023-11-29 14:37:16.001232
573  2023-11-29 14:37:16.033130
574  2023-11-29 14:37:16.081339
575  2023-11-29 14:37:16.113254
576  2023-11-29 14:37:16.145169
577  2023-11-29 14:37:16.177082
578  2023-11-29 14:37:16.208999
579  2023-11-29 14:37:16.240913
580  2023-11-29 14:37:16.272826
581  2023-11-29 14:37:16.304742
582  2023-11-29 14:37:16.336657
583  2023-11-29 14:37:16.369094
584  2023-11-29 14:37:16.402040
585  2023-11-29 14:37:16.432968
586  2023-11-29 14:37:16.480904
587  2023-11-29 14:37:16.512819
588  2023-11-29 14:37:16.544740
589  2023-11-29 14:37:16.576647
590  2023-11-29 14:37:16.609564
591  2023-11-29 14:37:16.641520
592  2023-11-29 14:37:16.673392
593  2023-11-29 14:37:16.705304
594  2023-11-29 14:37:16.737219
595  2023-11-29 14:37:16.769164
596  2023-11-29 14:37:16.801085
597  2023-11-29 14:37:16.832993
598  2023-11-29 14:37:16.880836
599  2023-11-29 14:37:16.912757
600  2023-11-29 14:37:16.944852
601  2023-11-29 14:37:16.976846
602  2023-11-29 14:37:17.008778
603  2023-11-29 14:37:17.040687
604  2023-11-29 14:37:17.072590
605  2023-11-29 14:37:17.104446
606  2023-11-29 14:37:17.137359
607  2023-11-29 14:37:17.168858
608  2023-11-29 14:37:17.200729
609  2023-11-29 14:37:17.232642
610  2023-11-29 14:37:17.280514
611  2023-11-29 14:37:17.313475
612  2023-11-29 14:37:17.344376
613  2023-11-29 14:37:17.377256
614  2023-11-29 14:37:17.409177
615  2023-11-29 14:37:17.441086
616  2023-11-29 14:37:17.472999
617  2023-11-29 14:37:17.504914
618  2023-11-29 14:37:17.536829
619  2023-11-29 14:37:17.568745
620  2023-11-29 14:37:17.600658
621  2023-11-29 14:37:17.632574
622  2023-11-29 14:37:17.680445
623  2023-11-29 14:37:17.713387
624  2023-11-29 14:37:17.744381
625  2023-11-29 14:37:17.777284
626  2023-11-29 14:37:17.809207
627  2023-11-29 14:37:17.841140
628  2023-11-29 14:37:17.873053
629  2023-11-29 14:37:17.904982
630  2023-11-29 14:37:17.936887
631  2023-11-29 14:37:17.968778
632  2023-11-29 14:37:18.000718
633  2023-11-29 14:37:18.032630
634  2023-11-29 14:37:18.080532
635  2023-11-29 14:37:18.112420
636  2023-11-29 14:37:18.145338
637  2023-11-29 14:37:18.177233
638  2023-11-29 14:37:18.209157
639  2023-11-29 14:37:18.241073
640  2023-11-29 14:37:18.272986
641  2023-11-29 14:37:18.304812
642  2023-11-29 14:37:18.336764
643  2023-11-29 14:37:18.368643
644  2023-11-29 14:37:18.400595
645  2023-11-29 14:37:18.448482
646  2023-11-29 14:37:18.481401
647  2023-11-29 14:37:18.513255
648  2023-11-29 14:37:18.545171
649  2023-11-29 14:37:18.577116
650  2023-11-29 14:37:18.609031
651  2023-11-29 14:37:18.640946
652  2023-11-29 14:37:18.672862
653  2023-11-29 14:37:18.704749
654  2023-11-29 14:37:18.736659
655  2023-11-29 14:37:18.768578
656  2023-11-29 14:37:18.800519
657  2023-11-29 14:37:18.848360
658  2023-11-29 14:37:18.881329
659  2023-11-29 14:37:18.913218
660  2023-11-29 14:37:18.945101
661  2023-11-29 14:37:18.977015
662  2023-11-29 14:37:19.008963
663  2023-11-29 14:37:19.040879
664  2023-11-29 14:37:19.072793
665  2023-11-29 14:37:19.105687
666  2023-11-29 14:37:19.136572
667  2023-11-29 14:37:19.168516
668  2023-11-29 14:37:19.201413
669  2023-11-29 14:37:19.249313
670  2023-11-29 14:37:19.281223
671  2023-11-29 14:37:19.313134
672  2023-11-29 14:37:19.345045
673  2023-11-29 14:37:19.376929
674  2023-11-29 14:37:19.408870
675  2023-11-29 14:37:19.440793
676  2023-11-29 14:37:19.472721
677  2023-11-29 14:37:19.504621
678  2023-11-29 14:37:19.536538
679  2023-11-29 14:37:19.568450
680  2023-11-29 14:37:19.600406
681  2023-11-29 14:37:19.649204
682  2023-11-29 14:37:19.681144
683  2023-11-29 14:37:19.713035
684  2023-11-29 14:37:19.745089
685  2023-11-29 14:37:19.776999
686  2023-11-29 14:37:19.808913
687  2023-11-29 14:37:19.840828
688  2023-11-29 14:37:19.872499
689  2023-11-29 14:37:19.904519
690  2023-11-29 14:37:19.936550
691  2023-11-29 14:37:19.968469
692  2023-11-29 14:37:20.001388
693  2023-11-29 14:37:20.049247
694  2023-11-29 14:37:20.081163
695  2023-11-29 14:37:20.113079
696  2023-11-29 14:37:20.144961
697  2023-11-29 14:37:20.176876
698  2023-11-29 14:37:20.208855
699  2023-11-29 14:37:20.240895
700  2023-11-29 14:37:20.272822
701  2023-11-29 14:37:20.304738
702  2023-11-29 14:37:20.336629
703  2023-11-29 14:37:20.368550
704  2023-11-29 14:37:20.400461
705  2023-11-29 14:37:20.449343
706  2023-11-29 14:37:20.481260
707  2023-11-29 14:37:20.513169
708  2023-11-29 14:37:20.545090
709  2023-11-29 14:37:20.576989
710  2023-11-29 14:37:20.608904
711  2023-11-29 14:37:20.640821
712  2023-11-29 14:37:20.672740
713  2023-11-29 14:37:20.704651
714  2023-11-29 14:37:20.736573
715  2023-11-29 14:37:20.768486
716  2023-11-29 14:37:20.801401
717  2023-11-29 14:37:20.849232
718  2023-11-29 14:37:20.881147
719  2023-11-29 14:37:20.913065
720  2023-11-29 14:37:20.945008
721  2023-11-29 14:37:20.976927
722  2023-11-29 14:37:21.008846
723  2023-11-29 14:37:21.040808
724  2023-11-29 14:37:21.078675
725  2023-11-29 14:37:21.104708
726  2023-11-29 14:37:21.136622
727  2023-11-29 14:37:21.168537
728  2023-11-29 14:37:21.200553
729  2023-11-29 14:37:21.248520
730  2023-11-29 14:37:21.281391
731  2023-11-29 14:37:21.313311
732  2023-11-29 14:37:21.345185
733  2023-11-29 14:37:21.377100
734  2023-11-29 14:37:21.409056
735  2023-11-29 14:37:21.440960
736  2023-11-29 14:37:21.472897
737  2023-11-29 14:37:21.504807
738  2023-11-29 14:37:21.536708
739  2023-11-29 14:37:21.568637
740  2023-11-29 14:37:21.600547
741  2023-11-29 14:37:21.649183
742  2023-11-29 14:37:21.681223
743  2023-11-29 14:37:21.713137
744  2023-11-29 14:37:21.745048
745  2023-11-29 14:37:21.776964
746  2023-11-29 14:37:21.808954
747  2023-11-29 14:37:21.840765
748  2023-11-29 14:37:21.872682
749  2023-11-29 14:37:21.904596
750  2023-11-29 14:37:21.936476
751  2023-11-29 14:37:21.968392
752  2023-11-29 14:37:22.017260
753  2023-11-29 14:37:22.049174
754  2023-11-29 14:37:22.080502
755  2023-11-29 14:37:22.112527
756  2023-11-29 14:37:22.145431
757  2023-11-29 14:37:22.177341
758  2023-11-29 14:37:22.209260
759  2023-11-29 14:37:22.241175
760  2023-11-29 14:37:22.273092
761  2023-11-29 14:37:22.305009
762  2023-11-29 14:37:22.336927
763  2023-11-29 14:37:22.368842
764  2023-11-29 14:37:22.416381
765  2023-11-29 14:37:22.449259
766  2023-11-29 14:37:22.481179
767  2023-11-29 14:37:22.513118
768  2023-11-29 14:37:22.545003
769  2023-11-29 14:37:22.576917
770  2023-11-29 14:37:22.608872
771  2023-11-29 14:37:22.640748
772  2023-11-29 14:37:22.672692
773  2023-11-29 14:37:22.704611
774  2023-11-29 14:37:22.737521
775  2023-11-29 14:37:22.768442
776  2023-11-29 14:37:22.817316
777  2023-11-29 14:37:22.849220
778  2023-11-29 14:37:22.881135
779  2023-11-29 14:37:22.913052
780  2023-11-29 14:37:22.944977
781  2023-11-29 14:37:22.976848
782  2023-11-29 14:37:23.008806
783  2023-11-29 14:37:23.041100
784  2023-11-29 14:37:23.073014
785  2023-11-29 14:37:23.104929
786  2023-11-29 14:37:23.136913
787  2023-11-29 14:37:23.168839
788  2023-11-29 14:37:23.216664
789  2023-11-29 14:37:23.248579
790  2023-11-29 14:37:23.280496
791  2023-11-29 14:37:23.312448
792  2023-11-29 14:37:23.344363
793  2023-11-29 14:37:23.377235
794  2023-11-29 14:37:23.409182
795  2023-11-29 14:37:23.441099
796  2023-11-29 14:37:23.472783
797  2023-11-29 14:37:23.504697
798  2023-11-29 14:37:23.536612
799  2023-11-29 14:37:23.568527
800  2023-11-29 14:37:23.616485
801  2023-11-29 14:37:23.648386
802  2023-11-29 14:37:23.681306
803  2023-11-29 14:37:23.713213
804  2023-11-29 14:37:23.745131
805  2023-11-29 14:37:23.777011
806  2023-11-29 14:37:23.808952
807  2023-11-29 14:37:23.840872
808  2023-11-29 14:37:23.872789
809  2023-11-29 14:37:23.904707
810  2023-11-29 14:37:23.936622
811  2023-11-29 14:37:23.968530
812  2023-11-29 14:37:24.016418
813  2023-11-29 14:37:24.049284
814  2023-11-29 14:37:24.081231
815  2023-11-29 14:37:24.113181
816  2023-11-29 14:37:24.145096
817  2023-11-29 14:37:24.177010
818  2023-11-29 14:37:24.208925
819  2023-11-29 14:37:24.240931
820  2023-11-29 14:37:24.272832
821  2023-11-29 14:37:24.304743
822  2023-11-29 14:37:24.336653
823  2023-11-29 14:37:24.368641
824  2023-11-29 14:37:24.417513
825  2023-11-29 14:37:24.449427
826  2023-11-29 14:37:24.481347
827  2023-11-29 14:37:24.513256
828  2023-11-29 14:37:24.545173
829  2023-11-29 14:37:24.577052
830  2023-11-29 14:37:24.608997
831  2023-11-29 14:37:24.640882
832  2023-11-29 14:37:24.672834
833  2023-11-29 14:37:24.704742
834  2023-11-29 14:37:24.736658
835  2023-11-29 14:37:24.768574
836  2023-11-29 14:37:24.816444
837  2023-11-29 14:37:24.849324
838  2023-11-29 14:37:24.881270
839  2023-11-29 14:37:24.913189
840  2023-11-29 14:37:24.945104
841  2023-11-29 14:37:24.976983
842  2023-11-29 14:37:25.008928
843  2023-11-29 14:37:25.040857
844  2023-11-29 14:37:25.072759
845  2023-11-29 14:37:25.104672
846  2023-11-29 14:37:25.136586
847  2023-11-29 14:37:25.168471
848  2023-11-29 14:37:25.216344
849  2023-11-29 14:37:25.249261
850  2023-11-29 14:37:25.281170
851  2023-11-29 14:37:25.313128
852  2023-11-29 14:37:25.345034
853  2023-11-29 14:37:25.376946
854  2023-11-29 14:37:25.408864
855  2023-11-29 14:37:25.440779
856  2023-11-29 14:37:25.472692
857  2023-11-29 14:37:25.504603
858  2023-11-29 14:37:25.536519
859  2023-11-29 14:37:25.568438
860  2023-11-29 14:37:25.617240
861  2023-11-29 14:37:25.649149
862  2023-11-29 14:37:25.681031
863  2023-11-29 14:37:25.712987
864  2023-11-29 14:37:25.745861
865  2023-11-29 14:37:25.776821
866  2023-11-29 14:37:25.809406
867  2023-11-29 14:37:25.841352
868  2023-11-29 14:37:25.872935
869  2023-11-29 14:37:25.904915
870  2023-11-29 14:37:25.936835
871  2023-11-29 14:37:25.984722
872  2023-11-29 14:37:26.016733
873  2023-11-29 14:37:26.048660
874  2023-11-29 14:37:26.080566
875  2023-11-29 14:37:26.112482
876  2023-11-29 14:37:26.144392
877  2023-11-29 14:37:26.177295
878  2023-11-29 14:37:26.209212
879  2023-11-29 14:37:26.241094
880  2023-11-29 14:37:26.273030
881  2023-11-29 14:37:26.304925
882  2023-11-29 14:37:26.336839
883  2023-11-29 14:37:26.384752
884  2023-11-29 14:37:26.416666
885  2023-11-29 14:37:26.448571
886  2023-11-29 14:37:26.480456
887  2023-11-29 14:37:26.512408
888  2023-11-29 14:37:26.544317
889  2023-11-29 14:37:26.577225
890  2023-11-29 14:37:26.609110
891  2023-11-29 14:37:26.641140
892  2023-11-29 14:37:26.673094
893  2023-11-29 14:37:26.705080
894  2023-11-29 14:37:26.736994
895  2023-11-29 14:37:26.784877
896  2023-11-29 14:37:26.816795
897  2023-11-29 14:37:26.848707
898  2023-11-29 14:37:26.880670
899  2023-11-29 14:37:26.912627
900  2023-11-29 14:37:26.944529
901  2023-11-29 14:37:26.977444
902  2023-11-29 14:37:27.008424
903  2023-11-29 14:37:27.041337
904  2023-11-29 14:37:27.073431
905  2023-11-29 14:37:27.105345
906  2023-11-29 14:37:27.137260
907  2023-11-29 14:37:27.185171
908  2023-11-29 14:37:27.217117
909  2023-11-29 14:37:27.249034
910  2023-11-29 14:37:27.280947
911  2023-11-29 14:37:27.312869
912  2023-11-29 14:37:27.344723
913  2023-11-29 14:37:27.376632
914  2023-11-29 14:37:27.408547
915  2023-11-29 14:37:27.440465
916  2023-11-29 14:37:27.472457
917  2023-11-29 14:37:27.505339
918  2023-11-29 14:37:27.537292
919  2023-11-29 14:37:27.585160
920  2023-11-29 14:37:27.617068
921  2023-11-29 14:37:27.648955
922  2023-11-29 14:37:27.680869
923  2023-11-29 14:37:27.712831
924  2023-11-29 14:37:27.744744
925  2023-11-29 14:37:27.776658
926  2023-11-29 14:37:27.808570
927  2023-11-29 14:37:27.840485
928  2023-11-29 14:37:27.873084
929  2023-11-29 14:37:27.905000
930  2023-11-29 14:37:27.936919
931  2023-11-29 14:37:27.984831
932  2023-11-29 14:37:28.016746
933  2023-11-29 14:37:28.048661
934  2023-11-29 14:37:28.080575
935  2023-11-29 14:37:28.112530
936  2023-11-29 14:37:28.145407
937  2023-11-29 14:37:28.177317
938  2023-11-29 14:37:28.209231
939  2023-11-29 14:37:28.241146
940  2023-11-29 14:37:28.273061
941  2023-11-29 14:37:28.304975
942  2023-11-29 14:37:28.336890
943  2023-11-29 14:37:28.384738
944  2023-11-29 14:37:28.416652
945  2023-11-29 14:37:28.448568
946  2023-11-29 14:37:28.480538
947  2023-11-29 14:37:28.512452
948  2023-11-29 14:37:28.544368
949  2023-11-29 14:37:28.577330
950  2023-11-29 14:37:28.609264
951  2023-11-29 14:37:28.641211
952  2023-11-29 14:37:28.673125
953  2023-11-29 14:37:28.705071
954  2023-11-29 14:37:28.736990
955  2023-11-29 14:37:28.784864
956  2023-11-29 14:37:28.816777
957  2023-11-29 14:37:28.848656
958  2023-11-29 14:37:28.880571
959  2023-11-29 14:37:28.912516
960  2023-11-29 14:37:28.944559
961  2023-11-29 14:37:28.976431
962  2023-11-29 14:37:29.009343
963  2023-11-29 14:37:29.041289
964  2023-11-29 14:37:29.073204
965  2023-11-29 14:37:29.105087
966  2023-11-29 14:37:29.137001
967  2023-11-29 14:37:29.184873
968  2023-11-29 14:37:29.216788
969  2023-11-29 14:37:29.248737
970  2023-11-29 14:37:29.280617
971  2023-11-29 14:37:29.312532
972  2023-11-29 14:37:29.344447
973  2023-11-29 14:37:29.377359
974  2023-11-29 14:37:29.409274
975  2023-11-29 14:37:29.441188
976  2023-11-29 14:37:29.473103
977  2023-11-29 14:37:29.505018
978  2023-11-29 14:37:29.552890
979  2023-11-29 14:37:29.584807
980  2023-11-29 14:37:29.616761
981  2023-11-29 14:37:29.648642
982  2023-11-29 14:37:29.680556
983  2023-11-29 14:37:29.713468
984  2023-11-29 14:37:29.745383
985  2023-11-29 14:37:29.777304
986  2023-11-29 14:37:29.809212
987  2023-11-29 14:37:29.841127
988  2023-11-29 14:37:29.873042
989  2023-11-29 14:37:29.905074
990  2023-11-29 14:37:29.952949
991  2023-11-29 14:37:29.984861
992  2023-11-29 14:37:30.016775
993  2023-11-29 14:37:30.048873
994  2023-11-29 14:37:30.080663
995  2023-11-29 14:37:30.112570
996  2023-11-29 14:37:30.144489
997  2023-11-29 14:37:30.176441
998  2023-11-29 14:37:30.209353
999  2023-11-29 14:37:30.241299
1000  2023-11-29 14:37:30.273182
1001  2023-11-29 14:37:30.305097
1002  2023-11-29 14:37:30.352969
1003  2023-11-29 14:37:30.384884
1004  2023-11-29 14:37:30.416798
1005  2023-11-29 14:37:30.448747
1006  2023-11-29 14:37:30.480628
1007  2023-11-29 14:37:30.512542
1008  2023-11-29 14:37:30.544457
1009  2023-11-29 14:37:30.577409
1010  2023-11-29 14:37:30.608746
1011  2023-11-29 14:37:30.640625
1012  2023-11-29 14:37:30.672676
1013  2023-11-29 14:37:30.704738
1014  2023-11-29 14:37:30.752652
1015  2023-11-29 14:37:30.784567
1016  2023-11-29 14:37:30.816482
1017  2023-11-29 14:37:30.848396
1018  2023-11-29 14:37:30.881308
1019  2023-11-29 14:37:30.913223
1020  2023-11-29 14:37:30.945138
1021  2023-11-29 14:37:30.977052
1022  2023-11-29 14:37:31.008967
1023  2023-11-29 14:37:31.040882
1024  2023-11-29 14:37:31.072796
1025  2023-11-29 14:37:31.104711
1026  2023-11-29 14:37:31.152583
1027  2023-11-29 14:37:31.184502
1028  2023-11-29 14:37:31.216413
1029  2023-11-29 14:37:31.249325
1030  2023-11-29 14:37:31.281252
1031  2023-11-29 14:37:31.314152
1032  2023-11-29 14:37:31.345069
1033  2023-11-29 14:37:31.376983
1034  2023-11-29 14:37:31.408900
1035  2023-11-29 14:37:31.440854
1036  2023-11-29 14:37:31.472805
1037  2023-11-29 14:37:31.504720
1038  2023-11-29 14:37:31.552592
1039  2023-11-29 14:37:31.584507
1040  2023-11-29 14:37:31.617451
1041  2023-11-29 14:37:31.649377
1042  2023-11-29 14:37:31.681248
1043  2023-11-29 14:37:31.713165
1044  2023-11-29 14:37:31.745134
1045  2023-11-29 14:37:31.777042
1046  2023-11-29 14:37:31.808907
1047  2023-11-29 14:37:31.840822
1048  2023-11-29 14:37:31.872773
1049  2023-11-29 14:37:31.904689
1050  2023-11-29 14:37:31.952556
1051  2023-11-29 14:37:31.984438
1052  2023-11-29 14:37:32.017350
1053  2023-11-29 14:37:32.049264
1054  2023-11-29 14:37:32.081179
1055  2023-11-29 14:37:32.113094
1056  2023-11-29 14:37:32.145008
1057  2023-11-29 14:37:32.176923
1058  2023-11-29 14:37:32.208870
1059  2023-11-29 14:37:32.240783
1060  2023-11-29 14:37:32.272711
1061  2023-11-29 14:37:32.304582
1062  2023-11-29 14:37:32.352454
1063  2023-11-29 14:37:32.384369
1064  2023-11-29 14:37:32.417281
1065  2023-11-29 14:37:32.448618
1066  2023-11-29 14:37:32.480532
1067  2023-11-29 14:37:32.512447
1068  2023-11-29 14:37:32.545359
1069  2023-11-29 14:37:32.577274
1070  2023-11-29 14:37:32.609188
1071  2023-11-29 14:37:32.641201
1072  2023-11-29 14:37:32.673115
1073  2023-11-29 14:37:32.705030
1074  2023-11-29 14:37:32.752951
1075  2023-11-29 14:37:32.784892
1076  2023-11-29 14:37:32.817804
1077  2023-11-29 14:37:32.848771
1078  2023-11-29 14:37:32.881692
1079  2023-11-29 14:37:32.912601
1080  2023-11-29 14:37:32.945514
1081  2023-11-29 14:37:32.977428
1082  2023-11-29 14:37:33.009342
1083  2023-11-29 14:37:33.041305
1084  2023-11-29 14:37:33.073245
1085  2023-11-29 14:37:33.105120
1086  2023-11-29 14:37:33.152994
1087  2023-11-29 14:37:33.184907
1088  2023-11-29 14:37:33.216745
1089  2023-11-29 14:37:33.248739
1090  2023-11-29 14:37:33.280741
1091  2023-11-29 14:37:33.312603
1092  2023-11-29 14:37:33.345085
1093  2023-11-29 14:37:33.376954
1094  2023-11-29 14:37:33.408870
1095  2023-11-29 14:37:33.440835
1096  2023-11-29 14:37:33.472750
1097  2023-11-29 14:37:33.520622
1098  2023-11-29 14:37:33.552537
1099  2023-11-29 14:37:33.584451
1100  2023-11-29 14:37:33.616405
1101  2023-11-29 14:37:33.649278
1102  2023-11-29 14:37:33.681193
1103  2023-11-29 14:37:33.713107
1104  2023-11-29 14:37:33.745022
1105  2023-11-29 14:37:33.776937
1106  2023-11-29 14:37:33.808867
1107  2023-11-29 14:37:33.840766
1108  2023-11-29 14:37:33.872682
1109  2023-11-29 14:37:33.920584
1110  2023-11-29 14:37:33.952468
1111  2023-11-29 14:37:33.984382
1112  2023-11-29 14:37:34.017294
1113  2023-11-29 14:37:34.049209
1114  2023-11-29 14:37:34.081124
1115  2023-11-29 14:37:34.113038
1116  2023-11-29 14:37:34.144953
1117  2023-11-29 14:37:34.176868
1118  2023-11-29 14:37:34.208782
1119  2023-11-29 14:37:34.241694
1120  2023-11-29 14:37:34.272795
1121  2023-11-29 14:37:34.321666
1122  2023-11-29 14:37:34.352582
1123  2023-11-29 14:37:34.384496
1124  2023-11-29 14:37:34.417044
1125  2023-11-29 14:37:34.448960
1126  2023-11-29 14:37:34.480874
1127  2023-11-29 14:37:34.512793
1128  2023-11-29 14:37:34.544744
1129  2023-11-29 14:37:34.576737
1130  2023-11-29 14:37:34.608626
1131  2023-11-29 14:37:34.640508
1132  2023-11-29 14:37:34.672471
1133  2023-11-29 14:37:34.720890
1134  2023-11-29 14:37:34.752805
1135  2023-11-29 14:37:34.784721
1136  2023-11-29 14:37:34.816673
1137  2023-11-29 14:37:34.848587
1138  2023-11-29 14:37:34.880502
1139  2023-11-29 14:37:34.912456
1140  2023-11-29 14:37:34.944609
1141  2023-11-29 14:37:34.976569
1142  2023-11-29 14:37:35.008488
1143  2023-11-29 14:37:35.041405
1144  2023-11-29 14:37:35.073316
1145  2023-11-29 14:37:35.121187
1146  2023-11-29 14:37:35.153102
1147  2023-11-29 14:37:35.185016
1148  2023-11-29 14:37:35.216931
1149  2023-11-29 14:37:35.248856
1150  2023-11-29 14:37:35.280760
1151  2023-11-29 14:37:35.312675
1152  2023-11-29 14:37:35.344590
1153  2023-11-29 14:37:35.376627
1154  2023-11-29 14:37:35.408541
1155  2023-11-29 14:37:35.440456
1156  2023-11-29 14:37:35.473368
1157  2023-11-29 14:37:35.521240
1158  2023-11-29 14:37:35.553156
1159  2023-11-29 14:37:35.585070
1160  2023-11-29 14:37:35.616993
1161  2023-11-29 14:37:35.649898
1162  2023-11-29 14:37:35.680814
1163  2023-11-29 14:37:35.712728
1164  2023-11-29 14:37:35.745689
1165  2023-11-29 14:37:35.776599
1166  2023-11-29 14:37:35.808535
1167  2023-11-29 14:37:35.840450
1168  2023-11-29 14:37:35.873395
1169  2023-11-29 14:37:35.920643
1170  2023-11-29 14:37:35.952598
1171  2023-11-29 14:37:35.984472
1172  2023-11-29 14:37:36.016387
1173  2023-11-29 14:37:36.049188
1174  2023-11-29 14:37:36.081100
1175  2023-11-29 14:37:36.113021
1176  2023-11-29 14:37:36.144935
1177  2023-11-29 14:37:36.176850
1178  2023-11-29 14:37:36.208807
1179  2023-11-29 14:37:36.240738
1180  2023-11-29 14:37:36.272777
1181  2023-11-29 14:37:36.320650
1182  2023-11-29 14:37:36.352564
1183  2023-11-29 14:37:36.384479
1184  2023-11-29 14:37:36.416393
1185  2023-11-29 14:37:36.449306
1186  2023-11-29 14:37:36.481221
1187  2023-11-29 14:37:36.513135
1188  2023-11-29 14:37:36.545049
1189  2023-11-29 14:37:36.577028
1190  2023-11-29 14:37:36.608879
1191  2023-11-29 14:37:36.640794
1192  2023-11-29 14:37:36.672709
1193  2023-11-29 14:37:36.720580
1194  2023-11-29 14:37:36.752495
1195  2023-11-29 14:37:36.784440
1196  2023-11-29 14:37:36.817354
1197  2023-11-29 14:37:36.849236
1198  2023-11-29 14:37:36.881151
1199  2023-11-29 14:37:36.912438
1200  2023-11-29 14:37:36.944504
1201  2023-11-29 14:37:36.976448
1202  2023-11-29 14:37:37.009360
1203  2023-11-29 14:37:37.041319
1204  2023-11-29 14:37:37.073194
1205  2023-11-29 14:37:37.121219
1206  2023-11-29 14:37:37.153140
1207  2023-11-29 14:37:37.185048
1208  2023-11-29 14:37:37.216963
1209  2023-11-29 14:37:37.248878
1210  2023-11-29 14:37:37.280807
1211  2023-11-29 14:37:37.312707
1212  2023-11-29 14:37:37.344622
1213  2023-11-29 14:37:37.376727
1214  2023-11-29 14:37:37.408642
1215  2023-11-29 14:37:37.440717
1216  2023-11-29 14:37:37.488589
1217  2023-11-29 14:37:37.521501
1218  2023-11-29 14:37:37.553416
1219  2023-11-29 14:37:37.585336
1220  2023-11-29 14:37:37.617246
1221  2023-11-29 14:37:37.649206
1222  2023-11-29 14:37:37.681075
1223  2023-11-29 14:37:37.713001
1224  2023-11-29 14:37:37.744905
1225  2023-11-29 14:37:37.776819
1226  2023-11-29 14:37:37.808733
1227  2023-11-29 14:37:37.840647
1228  2023-11-29 14:37:37.889134
1229  2023-11-29 14:37:37.921049
1230  2023-11-29 14:37:37.953170
1231  2023-11-29 14:37:37.985085
1232  2023-11-29 14:37:38.016963
1233  2023-11-29 14:37:38.048878
1234  2023-11-29 14:37:38.080985
1235  2023-11-29 14:37:38.112900
1236  2023-11-29 14:37:38.144779
1237  2023-11-29 14:37:38.176846
1238  2023-11-29 14:37:38.208761
1239  2023-11-29 14:37:38.240675
1240  2023-11-29 14:37:38.289123
1241  2023-11-29 14:37:38.321086
1242  2023-11-29 14:37:38.353000
1243  2023-11-29 14:37:38.385046
1244  2023-11-29 14:37:38.417130
1245  2023-11-29 14:37:38.449045
1246  2023-11-29 14:37:38.480960
1247  2023-11-29 14:37:38.512877
1248  2023-11-29 14:37:38.544789
1249  2023-11-29 14:37:38.576704
1250  2023-11-29 14:37:38.608618
1251  2023-11-29 14:37:38.640533
1252  2023-11-29 14:37:38.688405
1253  2023-11-29 14:37:38.721317
1254  2023-11-29 14:37:38.753232
1255  2023-11-29 14:37:38.785147
1256  2023-11-29 14:37:38.817061
1257  2023-11-29 14:37:38.848976
1258  2023-11-29 14:37:38.880891
1259  2023-11-29 14:37:38.912805
1260  2023-11-29 14:37:38.945723
1261  2023-11-29 14:37:38.976635
1262  2023-11-29 14:37:39.008634
1263  2023-11-29 14:37:39.041315
1264  2023-11-29 14:37:39.089026
1265  2023-11-29 14:37:39.120941
1266  2023-11-29 14:37:39.153854
1267  2023-11-29 14:37:39.184777
1268  2023-11-29 14:37:39.216685
1269  2023-11-29 14:37:39.248726
1270  2023-11-29 14:37:39.280682
1271  2023-11-29 14:37:39.312555
1272  2023-11-29 14:37:39.344470
1273  2023-11-29 14:37:39.377382
1274  2023-11-29 14:37:39.409351
1275  2023-11-29 14:37:39.441211
1276  2023-11-29 14:37:39.488588
1277  2023-11-29 14:37:39.520553
1278  2023-11-29 14:37:39.552468
1279  2023-11-29 14:37:39.584382
1280  2023-11-29 14:37:39.617295
1281  2023-11-29 14:37:39.649209
1282  2023-11-29 14:37:39.681124
1283  2023-11-29 14:37:39.713039
1284  2023-11-29 14:37:39.744953
1285  2023-11-29 14:37:39.776870
1286  2023-11-29 14:37:39.808783
1287  2023-11-29 14:37:39.840697
1288  2023-11-29 14:37:39.888693
1289  2023-11-29 14:37:39.920607
1290  2023-11-29 14:37:39.952523
1291  2023-11-29 14:37:39.984437
1292  2023-11-29 14:37:40.017349
1293  2023-11-29 14:37:40.049264
1294  2023-11-29 14:37:40.081269
1295  2023-11-29 14:37:40.114225
1296  2023-11-29 14:37:40.145141
1297  2023-11-29 14:37:40.177055
1298  2023-11-29 14:37:40.209634
1299  2023-11-29 14:37:40.241501
1300  2023-11-29 14:37:40.288451
1301  2023-11-29 14:37:40.321499
1302  2023-11-29 14:37:40.352496
1303  2023-11-29 14:37:40.384592
1304  2023-11-29 14:37:40.417609
1305  2023-11-29 14:37:40.448503
1306  2023-11-29 14:37:40.480387
1307  2023-11-29 14:37:40.514312
1308  2023-11-29 14:37:40.545215
1309  2023-11-29 14:37:40.577129
1310  2023-11-29 14:37:40.609043
1311  2023-11-29 14:37:40.640959
1312  2023-11-29 14:37:40.689829
1313  2023-11-29 14:37:40.721778
1314  2023-11-29 14:37:40.753658
1315  2023-11-29 14:37:40.785606
1316  2023-11-29 14:37:40.817487
1317  2023-11-29 14:37:40.849415
1318  2023-11-29 14:37:40.881317
1319  2023-11-29 14:37:40.913840
1320  2023-11-29 14:37:40.945735
1321  2023-11-29 14:37:40.977649
1322  2023-11-29 14:37:41.009540
1323  2023-11-29 14:37:41.057402
1324  2023-11-29 14:37:41.089317
1325  2023-11-29 14:37:41.121393
1326  2023-11-29 14:37:41.153346
1327  2023-11-29 14:37:41.185244
1328  2023-11-29 14:37:41.217286
1329  2023-11-29 14:37:41.249206
1330  2023-11-29 14:37:41.281126
1331  2023-11-29 14:37:41.314079
1332  2023-11-29 14:37:41.344944
1333  2023-11-29 14:37:41.376858
1334  2023-11-29 14:37:41.409807
1335  2023-11-29 14:37:41.456645
1336  2023-11-29 14:37:41.489483
1337  2023-11-29 14:37:41.520500
1338  2023-11-29 14:37:41.553432
1339  2023-11-29 14:37:41.585369
1340  2023-11-29 14:37:41.617277
1341  2023-11-29 14:37:41.649157
1342  2023-11-29 14:37:41.681104
1343  2023-11-29 14:37:41.712987
1344  2023-11-29 14:37:41.744939
1345  2023-11-29 14:37:41.776864
1346  2023-11-29 14:37:41.808730
1347  2023-11-29 14:37:41.856602
1348  2023-11-29 14:37:41.888516
1349  2023-11-29 14:37:41.921429
1350  2023-11-29 14:37:41.953346
1351  2023-11-29 14:37:41.985258
1352  2023-11-29 14:37:42.017199
1353  2023-11-29 14:37:42.049194
1354  2023-11-29 14:37:42.081166
1355  2023-11-29 14:37:42.113120
1356  2023-11-29 14:37:42.145036
1357  2023-11-29 14:37:42.176949
1358  2023-11-29 14:37:42.208946
1359  2023-11-29 14:37:42.257786
1360  2023-11-29 14:37:42.288736
1361  2023-11-29 14:37:42.321645
1362  2023-11-29 14:37:42.352573
1363  2023-11-29 14:37:42.384447
1364  2023-11-29 14:37:42.417365
1365  2023-11-29 14:37:42.450315
1366  2023-11-29 14:37:42.481188
1367  2023-11-29 14:37:42.513103
1368  2023-11-29 14:37:42.545030
1369  2023-11-29 14:37:42.577981
1370  2023-11-29 14:37:42.609849
1371  2023-11-29 14:37:42.657749
1372  2023-11-29 14:37:42.689668
1373  2023-11-29 14:37:42.721581
1374  2023-11-29 14:37:42.752496
1375  2023-11-29 14:37:42.785424
1376  2023-11-29 14:37:42.817291
1377  2023-11-29 14:37:42.849204
1378  2023-11-29 14:37:42.881150
1379  2023-11-29 14:37:42.913033
1380  2023-11-29 14:37:42.944950
1381  2023-11-29 14:37:42.976893
1382  2023-11-29 14:37:43.009807
1383  2023-11-29 14:37:43.057631
1384  2023-11-29 14:37:43.089569
1385  2023-11-29 14:37:43.121478
1386  2023-11-29 14:37:43.152409
1387  2023-11-29 14:37:43.185276
1388  2023-11-29 14:37:43.217195
1389  2023-11-29 14:37:43.249107
1390  2023-11-29 14:37:43.281068
1391  2023-11-29 14:37:43.312935
1392  2023-11-29 14:37:43.344866
1393  2023-11-29 14:37:43.376798
1394  2023-11-29 14:37:43.409717
1395  2023-11-29 14:37:43.456584
1396  2023-11-29 14:37:43.489108
1397  2023-11-29 14:37:43.521120
1398  2023-11-29 14:37:43.553004
1399  2023-11-29 14:37:43.584950
1400  2023-11-29 14:37:43.616892
1401  2023-11-29 14:37:43.648749
1402  2023-11-29 14:37:43.680664
1403  2023-11-29 14:37:43.712603
1404  2023-11-29 14:37:43.745532
1405  2023-11-29 14:37:43.776407
1406  2023-11-29 14:37:43.809369
1407  2023-11-29 14:37:43.857222
1408  2023-11-29 14:37:43.889136
1409  2023-11-29 14:37:43.921052
1410  2023-11-29 14:37:43.952935
1411  2023-11-29 14:37:43.984861
1412  2023-11-29 14:37:44.016818
1413  2023-11-29 14:37:44.048682
1414  2023-11-29 14:37:44.080675
1415  2023-11-29 14:37:44.112609
1416  2023-11-29 14:37:44.145521
1417  2023-11-29 14:37:44.177437
1418  2023-11-29 14:37:44.209353
1419  2023-11-29 14:37:44.257261
1420  2023-11-29 14:37:44.289140
1421  2023-11-29 14:37:44.321057
1422  2023-11-29 14:37:44.352966
1423  2023-11-29 14:37:44.384915
1424  2023-11-29 14:37:44.416841
1425  2023-11-29 14:37:44.448742
1426  2023-11-29 14:37:44.480659
1427  2023-11-29 14:37:44.512540
1428  2023-11-29 14:37:44.544455
1429  2023-11-29 14:37:44.576403
1430  2023-11-29 14:37:44.608594
1431  2023-11-29 14:37:44.656601
1432  2023-11-29 14:37:44.688514
1433  2023-11-29 14:37:44.720584
1434  2023-11-29 14:37:44.752894
1435  2023-11-29 14:37:44.784884
1436  2023-11-29 14:37:44.816801
1437  2023-11-29 14:37:44.848730
1438  2023-11-29 14:37:44.880598
1439  2023-11-29 14:37:44.912545
1440  2023-11-29 14:37:44.944426
1441  2023-11-29 14:37:44.977341
1442  2023-11-29 14:37:45.025366
1443  2023-11-29 14:37:45.057243
1444  2023-11-29 14:37:45.089190
1445  2023-11-29 14:37:45.121114
1446  2023-11-29 14:37:45.153014
1447  2023-11-29 14:37:45.184932
1448  2023-11-29 14:37:45.216817
1449  2023-11-29 14:37:45.248733
1450  2023-11-29 14:37:45.280683
1451  2023-11-29 14:37:45.313579
1452  2023-11-29 14:37:45.345505
1453  2023-11-29 14:37:45.376396
1454  2023-11-29 14:37:45.425262
1455  2023-11-29 14:37:45.457208
1456  2023-11-29 14:37:45.489089
1457  2023-11-29 14:37:45.521051
1458  2023-11-29 14:37:45.552952
1459  2023-11-29 14:37:45.584995
1460  2023-11-29 14:37:45.616952
1461  2023-11-29 14:37:45.648909
1462  2023-11-29 14:37:45.680947
1463  2023-11-29 14:37:45.712863
1464  2023-11-29 14:37:45.745741
1465  2023-11-29 14:37:45.777742
1466  2023-11-29 14:37:45.824835
1467  2023-11-29 14:37:45.856787
1468  2023-11-29 14:37:45.888996
1469  2023-11-29 14:37:45.920950
1470  2023-11-29 14:37:45.952937
1471  2023-11-29 14:37:45.984821
1472  2023-11-29 14:37:46.016767
1473  2023-11-29 14:37:46.048700
1474  2023-11-29 14:37:46.080615
1475  2023-11-29 14:37:46.113527
1476  2023-11-29 14:37:46.144449
1477  2023-11-29 14:37:46.176359
1478  2023-11-29 14:37:46.225252
1479  2023-11-29 14:37:46.257143
1480  2023-11-29 14:37:46.289100
1481  2023-11-29 14:37:46.321016
1482  2023-11-29 14:37:46.352993
1483  2023-11-29 14:37:46.384908
1484  2023-11-29 14:37:46.416793
1485  2023-11-29 14:37:46.449247
1486  2023-11-29 14:37:46.481162
1487  2023-11-29 14:37:46.513081
1488  2023-11-29 14:37:46.545076
1489  2023-11-29 14:37:46.576989
1490  2023-11-29 14:37:46.624859
1491  2023-11-29 14:37:46.657247
1492  2023-11-29 14:37:46.689231
1493  2023-11-29 14:37:46.721134
1494  2023-11-29 14:37:46.753055
1495  2023-11-29 14:37:46.784968
1496  2023-11-29 14:37:46.816930
1497  2023-11-29 14:37:46.848956
1498  2023-11-29 14:37:46.880875
1499  2023-11-29 14:37:46.912785
1500  2023-11-29 14:37:46.944798
1501  2023-11-29 14:37:46.976726
1502  2023-11-29 14:37:47.024556
1503  2023-11-29 14:37:47.056466
1504  2023-11-29 14:37:47.089412
1505  2023-11-29 14:37:47.121347
1506  2023-11-29 14:37:47.153242
1507  2023-11-29 14:37:47.185059
1508  2023-11-29 14:37:47.217008
1509  2023-11-29 14:37:47.248956
1510  2023-11-29 14:37:47.280873
1511  2023-11-29 14:37:47.312786
1512  2023-11-29 14:37:47.344713
1513  2023-11-29 14:37:47.376693
1514  2023-11-29 14:37:47.424531
1515  2023-11-29 14:37:47.456482
1516  2023-11-29 14:37:47.489395
1517  2023-11-29 14:37:47.521328
1518  2023-11-29 14:37:47.553220
1519  2023-11-29 14:37:47.585137
1520  2023-11-29 14:37:47.617017
1521  2023-11-29 14:37:47.649930
1522  2023-11-29 14:37:47.680884
1523  2023-11-29 14:37:47.712794
1524  2023-11-29 14:37:47.744675
1525  2023-11-29 14:37:47.776590
1526  2023-11-29 14:37:47.825513
1527  2023-11-29 14:37:47.857376
1528  2023-11-29 14:37:47.889335
1529  2023-11-29 14:37:47.921235
1530  2023-11-29 14:37:47.953119
1531  2023-11-29 14:37:47.985033
1532  2023-11-29 14:37:48.016948
1533  2023-11-29 14:37:48.048921
1534  2023-11-29 14:37:48.080815
1535  2023-11-29 14:37:48.112740
1536  2023-11-29 14:37:48.144639
1537  2023-11-29 14:37:48.176521
1538  2023-11-29 14:37:48.224434
1539  2023-11-29 14:37:48.257305
1540  2023-11-29 14:37:48.289257
1541  2023-11-29 14:37:48.321165
1542  2023-11-29 14:37:48.353085
1543  2023-11-29 14:37:48.384999
1544  2023-11-29 14:37:48.416886
1545  2023-11-29 14:37:48.448840
1546  2023-11-29 14:37:48.480743
1547  2023-11-29 14:37:48.512668
1548  2023-11-29 14:37:48.544568
1549  2023-11-29 14:37:48.592410
1550  2023-11-29 14:37:48.624325
1551  2023-11-29 14:37:48.657237
1552  2023-11-29 14:37:48.689150
1553  2023-11-29 14:37:48.721097
1554  2023-11-29 14:37:48.753012
1555  2023-11-29 14:37:48.784927
1556  2023-11-29 14:37:48.816809
1557  2023-11-29 14:37:48.848731
1558  2023-11-29 14:37:48.880680
1559  2023-11-29 14:37:48.912558
1560  2023-11-29 14:37:48.945499
1561  2023-11-29 14:37:48.992382
1562  2023-11-29 14:37:49.025297
1563  2023-11-29 14:37:49.057201
1564  2023-11-29 14:37:49.089081
1565  2023-11-29 14:37:49.121042
1566  2023-11-29 14:37:49.152940
1567  2023-11-29 14:37:49.184863
1568  2023-11-29 14:37:49.216740
1569  2023-11-29 14:37:49.248684
1570  2023-11-29 14:37:49.280604
1571  2023-11-29 14:37:49.312525
1572  2023-11-29 14:37:49.344446
1573  2023-11-29 14:37:49.393306
1574  2023-11-29 14:37:49.425215
1575  2023-11-29 14:37:49.457125
1576  2023-11-29 14:37:49.489043
1577  2023-11-29 14:37:49.520962
1578  2023-11-29 14:37:49.552875
1579  2023-11-29 14:37:49.584793
1580  2023-11-29 14:37:49.617670
1581  2023-11-29 14:37:49.648587
1582  2023-11-29 14:37:49.681527
1583  2023-11-29 14:37:49.712415
1584  2023-11-29 14:37:49.745334
1585  2023-11-29 14:37:49.793231
1586  2023-11-29 14:37:49.825148
1587  2023-11-29 14:37:49.857028
1588  2023-11-29 14:37:49.888994
1589  2023-11-29 14:37:49.920894
1590  2023-11-29 14:37:49.952822
1591  2023-11-29 14:37:49.984743
1592  2023-11-29 14:37:50.016643
1593  2023-11-29 14:37:50.048653
1594  2023-11-29 14:37:50.080567
1595  2023-11-29 14:37:50.112482
1596  2023-11-29 14:37:50.145387
1597  2023-11-29 14:37:50.193253
1598  2023-11-29 14:37:50.225180
1599  2023-11-29 14:37:50.257163
1600  2023-11-29 14:37:50.289076
1601  2023-11-29 14:37:50.320995
1602  2023-11-29 14:37:50.352906
1603  2023-11-29 14:37:50.384826
1604  2023-11-29 14:37:50.416743
1605  2023-11-29 14:37:50.448651
1606  2023-11-29 14:37:50.480575
1607  2023-11-29 14:37:50.512480
1608  2023-11-29 14:37:50.545397
1609  2023-11-29 14:37:50.593262
1610  2023-11-29 14:37:50.625175
1611  2023-11-29 14:37:50.657059
1612  2023-11-29 14:37:50.688974
1613  2023-11-29 14:37:50.720923
1614  2023-11-29 14:37:50.752803
1615  2023-11-29 14:37:50.784760
1616  2023-11-29 14:37:50.816675
1617  2023-11-29 14:37:50.848547
1618  2023-11-29 14:37:50.880492
1619  2023-11-29 14:37:50.912510
1620  2023-11-29 14:37:50.944426
1621  2023-11-29 14:37:50.993401
1622  2023-11-29 14:37:51.025321
1623  2023-11-29 14:37:51.057196
1624  2023-11-29 14:37:51.089276
1625  2023-11-29 14:37:51.121189
1626  2023-11-29 14:37:51.153104
1627  2023-11-29 14:37:51.185016
1628  2023-11-29 14:37:51.216902
1629  2023-11-29 14:37:51.248866
1630  2023-11-29 14:37:51.280745
1631  2023-11-29 14:37:51.312694
1632  2023-11-29 14:37:51.344561
1633  2023-11-29 14:37:51.392480
1634  2023-11-29 14:37:51.424376
1635  2023-11-29 14:37:51.457293
1636  2023-11-29 14:37:51.489206
1637  2023-11-29 14:37:51.521089
1638  2023-11-29 14:37:51.553035
1639  2023-11-29 14:37:51.584950
1640  2023-11-29 14:37:51.616874
1641  2023-11-29 14:37:51.648787
1642  2023-11-29 14:37:51.680705
1643  2023-11-29 14:37:51.712617
1644  2023-11-29 14:37:51.745520
1645  2023-11-29 14:37:51.792410
1646  2023-11-29 14:37:51.825332
1647  2023-11-29 14:37:51.857241
1648  2023-11-29 14:37:51.889202
1649  2023-11-29 14:37:51.921117
1650  2023-11-29 14:37:51.953066
1651  2023-11-29 14:37:51.984977
1652  2023-11-29 14:37:52.016897
1653  2023-11-29 14:37:52.048830
1654  2023-11-29 14:37:52.080735
1655  2023-11-29 14:37:52.112637
1656  2023-11-29 14:37:52.144552
1657  2023-11-29 14:37:52.192426
1658  2023-11-29 14:37:52.225338
1659  2023-11-29 14:37:52.257257
1660  2023-11-29 14:37:52.289133
1661  2023-11-29 14:37:52.321048
1662  2023-11-29 14:37:52.352996
1663  2023-11-29 14:37:52.384886
1664  2023-11-29 14:37:52.416793
1665  2023-11-29 14:37:52.448707
1666  2023-11-29 14:37:52.480621
1667  2023-11-29 14:37:52.513580
1668  2023-11-29 14:37:52.560440
1669  2023-11-29 14:37:52.593351
1670  2023-11-29 14:37:52.625266
1671  2023-11-29 14:37:52.657197
1672  2023-11-29 14:37:52.689064
1673  2023-11-29 14:37:52.720979
1674  2023-11-29 14:37:52.752929
1675  2023-11-29 14:37:52.784916
1676  2023-11-29 14:37:52.816833
1677  2023-11-29 14:37:52.848712
1678  2023-11-29 14:37:52.880766
1679  2023-11-29 14:37:52.912610
1680  2023-11-29 14:37:52.960421
1681  2023-11-29 14:37:52.993432
1682  2023-11-29 14:37:53.025351
1683  2023-11-29 14:37:53.057240
1684  2023-11-29 14:37:53.089124
1685  2023-11-29 14:37:53.121039
1686  2023-11-29 14:37:53.152954
1687  2023-11-29 14:37:53.184927
1688  2023-11-29 14:37:53.216825
1689  2023-11-29 14:37:53.248697
1690  2023-11-29 14:37:53.280654
1691  2023-11-29 14:37:53.312569
1692  2023-11-29 14:37:53.360441
1693  2023-11-29 14:37:53.393355
1694  2023-11-29 14:37:53.425252
1695  2023-11-29 14:37:53.457174
1696  2023-11-29 14:37:53.489060
1697  2023-11-29 14:37:53.520970
1698  2023-11-29 14:37:53.552917
1699  2023-11-29 14:37:53.584801
1700  2023-11-29 14:37:53.616781
1701  2023-11-29 14:37:53.648655
1702  2023-11-29 14:37:53.680570
1703  2023-11-29 14:37:53.712526
1704  2023-11-29 14:37:53.761354
1705  2023-11-29 14:37:53.793299
1706  2023-11-29 14:37:53.825183
1707  2023-11-29 14:37:53.857098
1708  2023-11-29 14:37:53.889012
1709  2023-11-29 14:37:53.920927
1710  2023-11-29 14:37:53.952873
1711  2023-11-29 14:37:53.984810
1712  2023-11-29 14:37:54.016704
1713  2023-11-29 14:37:54.049583
1714  2023-11-29 14:37:54.080501
1715  2023-11-29 14:37:54.113413
1716  2023-11-29 14:37:54.161286
1717  2023-11-29 14:37:54.193200
1718  2023-11-29 14:37:54.224632
1719  2023-11-29 14:37:54.257545
1720  2023-11-29 14:37:54.288494
1721  2023-11-29 14:37:54.321375
1722  2023-11-29 14:37:54.353293
1723  2023-11-29 14:37:54.385204
1724  2023-11-29 14:37:54.417118
1725  2023-11-29 14:37:54.449034
1726  2023-11-29 14:37:54.480971
1727  2023-11-29 14:37:54.512871
1728  2023-11-29 14:37:54.560734
1729  2023-11-29 14:37:54.592650
1730  2023-11-29 14:37:54.624568
1731  2023-11-29 14:37:54.656513
1732  2023-11-29 14:37:54.688435
1733  2023-11-29 14:37:54.721357
1734  2023-11-29 14:37:54.753272
1735  2023-11-29 14:37:54.785187
1736  2023-11-29 14:37:54.817101
1737  2023-11-29 14:37:54.849016
1738  2023-11-29 14:37:54.880939
1739  2023-11-29 14:37:54.912846
1740  2023-11-29 14:37:54.960717
1741  2023-11-29 14:37:54.992632
1742  2023-11-29 14:37:55.024547
1743  2023-11-29 14:37:55.056508
1744  2023-11-29 14:37:55.089376
1745  2023-11-29 14:37:55.120304
1746  2023-11-29 14:37:55.153202
1747  2023-11-29 14:37:55.185117
1748  2023-11-29 14:37:55.217032
1749  2023-11-29 14:37:55.248980
1750  2023-11-29 14:37:55.281007
1751  2023-11-29 14:37:55.312933
1752  2023-11-29 14:37:55.360890
1753  2023-11-29 14:37:55.392804
1754  2023-11-29 14:37:55.424719
1755  2023-11-29 14:37:55.456634
1756  2023-11-29 14:37:55.488548
1757  2023-11-29 14:37:55.520463
1758  2023-11-29 14:37:55.552378
1759  2023-11-29 14:37:55.585290
1760  2023-11-29 14:37:55.617204
1761  2023-11-29 14:37:55.649158
1762  2023-11-29 14:37:55.681034
1763  2023-11-29 14:37:55.712949
1764  2023-11-29 14:37:55.760820
1765  2023-11-29 14:37:55.792735
1766  2023-11-29 14:37:55.825647
1767  2023-11-29 14:37:55.856708
1768  2023-11-29 14:37:55.888623
1769  2023-11-29 14:37:55.920538
1770  2023-11-29 14:37:55.952522
1771  2023-11-29 14:37:55.985439
1772  2023-11-29 14:37:56.017348
1773  2023-11-29 14:37:56.049263
1774  2023-11-29 14:37:56.081312
1775  2023-11-29 14:37:56.113269
1776  2023-11-29 14:37:56.161195
1777  2023-11-29 14:37:56.193110
1778  2023-11-29 14:37:56.225025
1779  2023-11-29 14:37:56.256992
1780  2023-11-29 14:37:56.288941
1781  2023-11-29 14:37:56.320880
1782  2023-11-29 14:37:56.352840
1783  2023-11-29 14:37:56.384865
1784  2023-11-29 14:37:56.416779
1785  2023-11-29 14:37:56.449256
1786  2023-11-29 14:37:56.481171
1787  2023-11-29 14:37:56.529126
1788  2023-11-29 14:37:56.561005
1789  2023-11-29 14:37:56.592919
1790  2023-11-29 14:37:56.624880
1791  2023-11-29 14:37:56.656866
1792  2023-11-29 14:37:56.688749
1793  2023-11-29 14:37:56.720663
1794  2023-11-29 14:37:56.752640
1795  2023-11-29 14:37:56.784525
1796  2023-11-29 14:37:56.816471
1797  2023-11-29 14:37:56.849383
1798  2023-11-29 14:37:56.881298
1799  2023-11-29 14:37:56.929170
1800  2023-11-29 14:37:56.961208
1801  2023-11-29 14:37:56.993122
1802  2023-11-29 14:37:57.025037
1803  2023-11-29 14:37:57.056952
1804  2023-11-29 14:37:57.088881
1805  2023-11-29 14:37:57.120787
1806  2023-11-29 14:37:57.152696
1807  2023-11-29 14:37:57.185608
1808  2023-11-29 14:37:57.216649
1809  2023-11-29 14:37:57.248529
1810  2023-11-29 14:37:57.281439
1811  2023-11-29 14:37:57.329438
1812  2023-11-29 14:37:57.361353
1813  2023-11-29 14:37:57.393421
1814  2023-11-29 14:37:57.425335
1815  2023-11-29 14:37:57.457250
1816  2023-11-29 14:37:57.489164
1817  2023-11-29 14:37:57.521123
1818  2023-11-29 14:37:57.552994
1819  2023-11-29 14:37:57.584908
1820  2023-11-29 14:37:57.616823
1821  2023-11-29 14:37:57.648746
1822  2023-11-29 14:37:57.680660
1823  2023-11-29 14:37:57.728524
1824  2023-11-29 14:37:57.760439
1825  2023-11-29 14:37:57.792355
1826  2023-11-29 14:37:57.825268
1827  2023-11-29 14:37:57.857181
1828  2023-11-29 14:37:57.889095
1829  2023-11-29 14:37:57.921010
1830  2023-11-29 14:37:57.953002
1831  2023-11-29 14:37:57.984975
1832  2023-11-29 14:37:58.017280
1833  2023-11-29 14:37:58.049195
1834  2023-11-29 14:37:58.080966
1835  2023-11-29 14:37:58.128890
1836  2023-11-29 14:37:58.160805
1837  2023-11-29 14:37:58.192719
1838  2023-11-29 14:37:58.224634
1839  2023-11-29 14:37:58.256548
1840  2023-11-29 14:37:58.289551
1841  2023-11-29 14:37:58.320464
1842  2023-11-29 14:37:58.353341
1843  2023-11-29 14:37:58.385308
1844  2023-11-29 14:37:58.416901
1845  2023-11-29 14:37:58.448874
1846  2023-11-29 14:37:58.480788
1847  2023-11-29 14:37:58.528660
1848  2023-11-29 14:37:58.561573
1849  2023-11-29 14:37:58.592502
1850  2023-11-29 14:37:58.625402
1851  2023-11-29 14:37:58.657362
1852  2023-11-29 14:37:58.689231
1853  2023-11-29 14:37:58.721184
1854  2023-11-29 14:37:58.753098
1855  2023-11-29 14:37:58.785046
1856  2023-11-29 14:37:58.817038
1857  2023-11-29 14:37:58.848749
1858  2023-11-29 14:37:58.880656
1859  2023-11-29 14:37:58.928531
1860  2023-11-29 14:37:58.960483
1861  2023-11-29 14:37:58.992378
1862  2023-11-29 14:37:59.025254
1863  2023-11-29 14:37:59.057169
1864  2023-11-29 14:37:59.089084
1865  2023-11-29 14:37:59.121037
1866  2023-11-29 14:37:59.152945
1867  2023-11-29 14:37:59.184828
1868  2023-11-29 14:37:59.216742
1869  2023-11-29 14:37:59.248797
1870  2023-11-29 14:37:59.280779
1871  2023-11-29 14:37:59.328652
1872  2023-11-29 14:37:59.360521
1873  2023-11-29 14:37:59.392436
1874  2023-11-29 14:37:59.425152
1875  2023-11-29 14:37:59.457171
1876  2023-11-29 14:37:59.489085
1877  2023-11-29 14:37:59.521000
1878  2023-11-29 14:37:59.552914
1879  2023-11-29 14:37:59.584844
1880  2023-11-29 14:37:59.616744
1881  2023-11-29 14:37:59.648658
1882  2023-11-29 14:37:59.680573
1883  2023-11-29 14:37:59.729593
1884  2023-11-29 14:37:59.760467
1885  2023-11-29 14:37:59.793384
1886  2023-11-29 14:37:59.825295
1887  2023-11-29 14:37:59.857209
1888  2023-11-29 14:37:59.889124
1889  2023-11-29 14:37:59.921038
1890  2023-11-29 14:37:59.952959
1891  2023-11-29 14:37:59.984868
1892  2023-11-29 14:38:00.016783
1893  2023-11-29 14:38:00.048697
1894  2023-11-29 14:38:00.096569
1895  2023-11-29 14:38:00.128484
1896  2023-11-29 14:38:00.161396
1897  2023-11-29 14:38:00.193311
1898  2023-11-29 14:38:00.225225
1899  2023-11-29 14:38:00.257140
1900  2023-11-29 14:38:00.289059
1901  2023-11-29 14:38:00.321005
1902  2023-11-29 14:38:00.352884
1903  2023-11-29 14:38:00.384806
1904  2023-11-29 14:38:00.416713
1905  2023-11-29 14:38:00.448699
1906  2023-11-29 14:38:00.496501
1907  2023-11-29 14:38:00.528464
1908  2023-11-29 14:38:00.561328
1909  2023-11-29 14:38:00.593243
1910  2023-11-29 14:38:00.625157
1911  2023-11-29 14:38:00.657072
1912  2023-11-29 14:38:00.688985
1913  2023-11-29 14:38:00.720900
1914  2023-11-29 14:38:00.752815
1915  2023-11-29 14:38:00.784730
1916  2023-11-29 14:38:00.816644
1917  2023-11-29 14:38:00.848559
1918  2023-11-29 14:38:00.896419
1919  2023-11-29 14:38:00.929392
1920  2023-11-29 14:38:00.961307
1921  2023-11-29 14:38:00.993221
1922  2023-11-29 14:38:01.025136
1923  2023-11-29 14:38:01.057051
1924  2023-11-29 14:38:01.088966
1925  2023-11-29 14:38:01.120880
1926  2023-11-29 14:38:01.152795
1927  2023-11-29 14:38:01.184710
1928  2023-11-29 14:38:01.216624
1929  2023-11-29 14:38:01.248539
1930  2023-11-29 14:38:01.296411
1931  2023-11-29 14:38:01.329323
1932  2023-11-29 14:38:01.361238
1933  2023-11-29 14:38:01.393152
1934  2023-11-29 14:38:01.425067
1935  2023-11-29 14:38:01.457106
1936  2023-11-29 14:38:01.489021
1937  2023-11-29 14:38:01.520936
1938  2023-11-29 14:38:01.552856
1939  2023-11-29 14:38:01.584884
1940  2023-11-29 14:38:01.617796
1941  2023-11-29 14:38:01.648757
1942  2023-11-29 14:38:01.696667
1943  2023-11-29 14:38:01.728662
1944  2023-11-29 14:38:01.761103
1945  2023-11-29 14:38:01.793018
1946  2023-11-29 14:38:01.825017
1947  2023-11-29 14:38:01.856970
1948  2023-11-29 14:38:01.888884
1949  2023-11-29 14:38:01.920799
1950  2023-11-29 14:38:01.952753
1951  2023-11-29 14:38:01.984668
1952  2023-11-29 14:38:02.016561
1953  2023-11-29 14:38:02.049473
1954  2023-11-29 14:38:02.097345
1955  2023-11-29 14:38:02.129261
1956  2023-11-29 14:38:02.161177
1957  2023-11-29 14:38:02.193089
1958  2023-11-29 14:38:02.225004
1959  2023-11-29 14:38:02.256919
1960  2023-11-29 14:38:02.288834
1961  2023-11-29 14:38:02.320748
1962  2023-11-29 14:38:02.352664
1963  2023-11-29 14:38:02.384579
1964  2023-11-29 14:38:02.417500
1965  2023-11-29 14:38:02.448408
1966  2023-11-29 14:38:02.497277
1967  2023-11-29 14:38:02.529192
1968  2023-11-29 14:38:02.561107
1969  2023-11-29 14:38:02.593022
1970  2023-11-29 14:38:02.624936
1971  2023-11-29 14:38:02.656851
1972  2023-11-29 14:38:02.688766
1973  2023-11-29 14:38:02.720680
1974  2023-11-29 14:38:02.752595
1975  2023-11-29 14:38:02.784510
1976  2023-11-29 14:38:02.816424
1977  2023-11-29 14:38:02.849336
1978  2023-11-29 14:38:02.897240
1979  2023-11-29 14:38:02.929123
1980  2023-11-29 14:38:02.961038
1981  2023-11-29 14:38:02.992629
1982  2023-11-29 14:38:03.024580
1983  2023-11-29 14:38:03.056458
1984  2023-11-29 14:38:03.089370
1985  2023-11-29 14:38:03.120838
1986  2023-11-29 14:38:03.152752
1987  2023-11-29 14:38:03.184670
1988  2023-11-29 14:38:03.217580
1989  2023-11-29 14:38:03.248497
1990  2023-11-29 14:38:03.296416
1991  2023-11-29 14:38:03.329302
1992  2023-11-29 14:38:03.361220
1993  2023-11-29 14:38:03.393177
1994  2023-11-29 14:38:03.425092
1995  2023-11-29 14:38:03.457007
1996  2023-11-29 14:38:03.488921
1997  2023-11-29 14:38:03.520841
1998  2023-11-29 14:38:03.552678
1999  2023-11-29 14:38:03.584593
2000  2023-11-29 14:38:03.616656
2001  2023-11-29 14:38:03.648570
2002  2023-11-29 14:38:03.696859
2003  2023-11-29 14:38:03.729736
2004  2023-11-29 14:38:03.760816
2005  2023-11-29 14:38:03.792730
2006  2023-11-29 14:38:03.825643
2007  2023-11-29 14:38:03.857557
2008  2023-11-29 14:38:03.889474
2009  2023-11-29 14:38:03.921386
2010  2023-11-29 14:38:03.953301
2011  2023-11-29 14:38:03.985216
2012  2023-11-29 14:38:04.017130
2013  2023-11-29 14:38:04.065041
2014  2023-11-29 14:38:04.096917
2015  2023-11-29 14:38:04.128832
2016  2023-11-29 14:38:04.160786
2017  2023-11-29 14:38:04.192661
2018  2023-11-29 14:38:04.224576
2019  2023-11-29 14:38:04.256490
2020  2023-11-29 14:38:04.289403
2021  2023-11-29 14:38:04.321324
2022  2023-11-29 14:38:04.353232
2023  2023-11-29 14:38:04.385146
2024  2023-11-29 14:38:04.417062
2025  2023-11-29 14:38:04.464933
2026  2023-11-29 14:38:04.496903
2027  2023-11-29 14:38:04.528794
2028  2023-11-29 14:38:04.560677
2029  2023-11-29 14:38:04.592592
2030  2023-11-29 14:38:04.625058
2031  2023-11-29 14:38:04.657040
2032  2023-11-29 14:38:04.688922
2033  2023-11-29 14:38:04.720845
2034  2023-11-29 14:38:04.753177
2035  2023-11-29 14:38:04.785106
2036  2023-11-29 14:38:04.816539
2037  2023-11-29 14:38:04.865408
2038  2023-11-29 14:38:04.897323
2039  2023-11-29 14:38:04.929237
2040  2023-11-29 14:38:04.961236
2041  2023-11-29 14:38:04.993150
2042  2023-11-29 14:38:05.025065
2043  2023-11-29 14:38:05.056980
2044  2023-11-29 14:38:05.088894
2045  2023-11-29 14:38:05.120809
2046  2023-11-29 14:38:05.152883
2047  2023-11-29 14:38:05.184924
2048  2023-11-29 14:38:05.217837
2049  2023-11-29 14:38:05.264711
2050  2023-11-29 14:38:05.297623
2051  2023-11-29 14:38:05.329546
2052  2023-11-29 14:38:05.361455
2053  2023-11-29 14:38:05.392375
2054  2023-11-29 14:38:05.425282
2055  2023-11-29 14:38:05.458238
2056  2023-11-29 14:38:05.489112
2057  2023-11-29 14:38:05.520779
2058  2023-11-29 14:38:05.553692
2059  2023-11-29 14:38:05.584608
2060  2023-11-29 14:38:05.617522
2061  2023-11-29 14:38:05.665550
2062  2023-11-29 14:38:05.697464
2063  2023-11-29 14:38:05.729392
2064  2023-11-29 14:38:05.762323
2065  2023-11-29 14:38:05.794208
2066  2023-11-29 14:38:05.826160
2067  2023-11-29 14:38:05.858078
2068  2023-11-29 14:38:05.889990
2069  2023-11-29 14:38:05.922866
2070  2023-11-29 14:38:05.953784
2071  2023-11-29 14:38:05.985724
2072  2023-11-29 14:38:06.017642
2073  2023-11-29 14:38:06.065488
2074  2023-11-29 14:38:06.097395
2075  2023-11-29 14:38:06.129309
2076  2023-11-29 14:38:06.162301
2077  2023-11-29 14:38:06.194174
2078  2023-11-29 14:38:06.226057
2079  2023-11-29 14:38:06.258074
2080  2023-11-29 14:38:06.290047
2081  2023-11-29 14:38:06.321956
2082  2023-11-29 14:38:06.353878
2083  2023-11-29 14:38:06.385828
2084  2023-11-29 14:38:06.417756
2085  2023-11-29 14:38:06.465673
2086  2023-11-29 14:38:06.497579
2087  2023-11-29 14:38:06.529494
2088  2023-11-29 14:38:06.561378
2089  2023-11-29 14:38:06.593334
2090  2023-11-29 14:38:06.625243
2091  2023-11-29 14:38:06.657326
2092  2023-11-29 14:38:06.689317
2093  2023-11-29 14:38:06.721264
2094  2023-11-29 14:38:06.753183
2095  2023-11-29 14:38:06.785095
2096  2023-11-29 14:38:06.816976
2097  2023-11-29 14:38:06.864914
2098  2023-11-29 14:38:06.896762
2099  2023-11-29 14:38:06.929718
2100  2023-11-29 14:38:06.961629
2101  2023-11-29 14:38:06.993538
2102  2023-11-29 14:38:07.025468
2103  2023-11-29 14:38:07.057363
2104  2023-11-29 14:38:07.089280
2105  2023-11-29 14:38:07.121192
2106  2023-11-29 14:38:07.153110
2107  2023-11-29 14:38:07.185025
2108  2023-11-29 14:38:07.216936
2109  2023-11-29 14:38:07.264818
2110  2023-11-29 14:38:07.297692
2111  2023-11-29 14:38:07.328646
2112  2023-11-29 14:38:07.360523
2113  2023-11-29 14:38:07.393434
2114  2023-11-29 14:38:07.425352
2115  2023-11-29 14:38:07.457291
2116  2023-11-29 14:38:07.489211
2117  2023-11-29 14:38:07.521094
2118  2023-11-29 14:38:07.553013
2119  2023-11-29 14:38:07.584950
2120  2023-11-29 14:38:07.632980
2121  2023-11-29 14:38:07.664897
2122  2023-11-29 14:38:07.697372
2123  2023-11-29 14:38:07.729295
2124  2023-11-29 14:38:07.761229
2125  2023-11-29 14:38:07.793146
2126  2023-11-29 14:38:07.825050
2127  2023-11-29 14:38:07.857952
2128  2023-11-29 14:38:07.889868
2129  2023-11-29 14:38:07.921797
2130  2023-11-29 14:38:07.952712
2131  2023-11-29 14:38:07.985682
2132  2023-11-29 14:38:08.033556
2133  2023-11-29 14:38:08.065493
2134  2023-11-29 14:38:08.098410
2135  2023-11-29 14:38:08.129300
2136  2023-11-29 14:38:08.162254
2137  2023-11-29 14:38:08.193127
2138  2023-11-29 14:38:08.225041
2139  2023-11-29 14:38:08.256957
2140  2023-11-29 14:38:08.289901
2141  2023-11-29 14:38:08.321818
2142  2023-11-29 14:38:08.352733
2143  2023-11-29 14:38:08.385612
2144  2023-11-29 14:38:08.432520
2145  2023-11-29 14:38:08.465441
2146  2023-11-29 14:38:08.498348
2147  2023-11-29 14:38:08.530285
2148  2023-11-29 14:38:08.561176
2149  2023-11-29 14:38:08.593058
2150  2023-11-29 14:38:08.624973
2151  2023-11-29 14:38:08.657890
2152  2023-11-29 14:38:08.689843
2153  2023-11-29 14:38:08.721744
2154  2023-11-29 14:38:08.752639
2155  2023-11-29 14:38:08.784679
2156  2023-11-29 14:38:08.832547
2157  2023-11-29 14:38:08.864476
2158  2023-11-29 14:38:08.897729
2159  2023-11-29 14:38:08.929733
2160  2023-11-29 14:38:08.961648
2161  2023-11-29 14:38:08.992573
2162  2023-11-29 14:38:09.024490
2163  2023-11-29 14:38:09.057393
2164  2023-11-29 14:38:09.089329
2165  2023-11-29 14:38:09.121193
2166  2023-11-29 14:38:09.153107
2167  2023-11-29 14:38:09.185059
2168  2023-11-29 14:38:09.232927
2169  2023-11-29 14:38:09.264808
2170  2023-11-29 14:38:09.297752
2171  2023-11-29 14:38:09.329667
2172  2023-11-29 14:38:09.361580
2173  2023-11-29 14:38:09.392498
2174  2023-11-29 14:38:09.425378
2175  2023-11-29 14:38:09.457325
2176  2023-11-29 14:38:09.490242
2177  2023-11-29 14:38:09.521153
2178  2023-11-29 14:38:09.553071
2179  2023-11-29 14:38:09.584982
2180  2023-11-29 14:38:09.632858
2181  2023-11-29 14:38:09.665059
2182  2023-11-29 14:38:09.696935
2183  2023-11-29 14:38:09.728849
2184  2023-11-29 14:38:09.760851
2185  2023-11-29 14:38:09.792766
2186  2023-11-29 14:38:09.824678
2187  2023-11-29 14:38:09.856594
2188  2023-11-29 14:38:09.888514
2189  2023-11-29 14:38:09.920421
2190  2023-11-29 14:38:09.953328
2191  2023-11-29 14:38:09.985249
2192  2023-11-29 14:38:10.033120
2193  2023-11-29 14:38:10.065003
2194  2023-11-29 14:38:10.096954
2195  2023-11-29 14:38:10.128864
2196  2023-11-29 14:38:10.160791
2197  2023-11-29 14:38:10.192698
2198  2023-11-29 14:38:10.224577
2199  2023-11-29 14:38:10.256492
2200  2023-11-29 14:38:10.288442
2201  2023-11-29 14:38:10.321354
2202  2023-11-29 14:38:10.353234
2203  2023-11-29 14:38:10.385148
2204  2023-11-29 14:38:10.433054
2205  2023-11-29 14:38:10.464970
2206  2023-11-29 14:38:10.496891
2207  2023-11-29 14:38:10.528801
2208  2023-11-29 14:38:10.560715
2209  2023-11-29 14:38:10.592625
2210  2023-11-29 14:38:10.624540
2211  2023-11-29 14:38:10.656422
2212  2023-11-29 14:38:10.689366
2213  2023-11-29 14:38:10.721281
2214  2023-11-29 14:38:10.753166
2215  2023-11-29 14:38:10.785081
2216  2023-11-29 14:38:10.832954
2217  2023-11-29 14:38:10.864893
2218  2023-11-29 14:38:10.896838
2219  2023-11-29 14:38:10.928586
2220  2023-11-29 14:38:10.960544
2221  2023-11-29 14:38:10.993471
2222  2023-11-29 14:38:11.025389
2223  2023-11-29 14:38:11.057291
2224  2023-11-29 14:38:11.089237
2225  2023-11-29 14:38:11.121166
2226  2023-11-29 14:38:11.153067
2227  2023-11-29 14:38:11.184950
2228  2023-11-29 14:38:11.232885
2229  2023-11-29 14:38:11.264790
2230  2023-11-29 14:38:11.296705
2231  2023-11-29 14:38:11.328695
2232  2023-11-29 14:38:11.360609
2233  2023-11-29 14:38:11.392493
2234  2023-11-29 14:38:11.424408
2235  2023-11-29 14:38:11.457370
2236  2023-11-29 14:38:11.489266
2237  2023-11-29 14:38:11.521181
2238  2023-11-29 14:38:11.553096
2239  2023-11-29 14:38:11.600969
2240  2023-11-29 14:38:11.632887
2241  2023-11-29 14:38:11.664811
2242  2023-11-29 14:38:11.696707
2243  2023-11-29 14:38:11.728626
2244  2023-11-29 14:38:11.761523
2245  2023-11-29 14:38:11.792425
2246  2023-11-29 14:38:11.824549
2247  2023-11-29 14:38:11.856420
2248  2023-11-29 14:38:11.889331
2249  2023-11-29 14:38:11.921250
2250  2023-11-29 14:38:11.953355
2251  2023-11-29 14:38:12.001224
2252  2023-11-29 14:38:12.033114
2253  2023-11-29 14:38:12.065034
2254  2023-11-29 14:38:12.096969
2255  2023-11-29 14:38:12.128895
2256  2023-11-29 14:38:12.160804
2257  2023-11-29 14:38:12.192723
2258  2023-11-29 14:38:12.224596
2259  2023-11-29 14:38:12.256511
2260  2023-11-29 14:38:12.289454
2261  2023-11-29 14:38:12.321364
2262  2023-11-29 14:38:12.353294
2263  2023-11-29 14:38:12.401150
2264  2023-11-29 14:38:12.433070
2265  2023-11-29 14:38:12.464986
2266  2023-11-29 14:38:12.496908
2267  2023-11-29 14:38:12.528833
2268  2023-11-29 14:38:12.560749
2269  2023-11-29 14:38:12.592644
2270  2023-11-29 14:38:12.624567
2271  2023-11-29 14:38:12.656469
2272  2023-11-29 14:38:12.688396
2273  2023-11-29 14:38:12.721302
2274  2023-11-29 14:38:12.753227
2275  2023-11-29 14:38:12.801087
2276  2023-11-29 14:38:12.833005
2277  2023-11-29 14:38:12.864918
2278  2023-11-29 14:38:12.896849
2279  2023-11-29 14:38:12.928715
2280  2023-11-29 14:38:12.960634
2281  2023-11-29 14:38:12.992579
2282  2023-11-29 14:38:13.024458
2283  2023-11-29 14:38:13.057370
2284  2023-11-29 14:38:13.089340
2285  2023-11-29 14:38:13.121229
2286  2023-11-29 14:38:13.153149
2287  2023-11-29 14:38:13.201017
2288  2023-11-29 14:38:13.232933
2289  2023-11-29 14:38:13.264871
2290  2023-11-29 14:38:13.296765
2291  2023-11-29 14:38:13.328675
2292  2023-11-29 14:38:13.360591
2293  2023-11-29 14:38:13.392508
2294  2023-11-29 14:38:13.425392
2295  2023-11-29 14:38:13.457303
2296  2023-11-29 14:38:13.489244
2297  2023-11-29 14:38:13.521162
2298  2023-11-29 14:38:13.553086
2299  2023-11-29 14:38:13.600949
2300  2023-11-29 14:38:13.632892
2301  2023-11-29 14:38:13.664782
2302  2023-11-29 14:38:13.696703
2303  2023-11-29 14:38:13.728607
2304  2023-11-29 14:38:13.761490
2305  2023-11-29 14:38:13.792438
2306  2023-11-29 14:38:13.824356
2307  2023-11-29 14:38:13.857233
2308  2023-11-29 14:38:13.889182
2309  2023-11-29 14:38:13.921062
2310  2023-11-29 14:38:13.953975
2311  2023-11-29 14:38:14.000854
2312  2023-11-29 14:38:14.032764
2313  2023-11-29 14:38:14.064679
2314  2023-11-29 14:38:14.096627
2315  2023-11-29 14:38:14.128542
2316  2023-11-29 14:38:14.160452
2317  2023-11-29 14:38:14.193379
2318  2023-11-29 14:38:14.225279
2319  2023-11-29 14:38:14.257164
2320  2023-11-29 14:38:14.289292
2321  2023-11-29 14:38:14.321282
2322  2023-11-29 14:38:14.353203
2323  2023-11-29 14:38:14.401069
2324  2023-11-29 14:38:14.432992
2325  2023-11-29 14:38:14.464901
2326  2023-11-29 14:38:14.496824
2327  2023-11-29 14:38:14.528696
2328  2023-11-29 14:38:14.560647
2329  2023-11-29 14:38:14.593566
2330  2023-11-29 14:38:14.624471
2331  2023-11-29 14:38:14.657352
2332  2023-11-29 14:38:14.689267
2333  2023-11-29 14:38:14.721214
2334  2023-11-29 14:38:14.753135
2335  2023-11-29 14:38:14.801002
2336  2023-11-29 14:38:14.832909
2337  2023-11-29 14:38:14.864829
2338  2023-11-29 14:38:14.896713
2339  2023-11-29 14:38:14.928659
2340  2023-11-29 14:38:14.960574
2341  2023-11-29 14:38:14.993455
2342  2023-11-29 14:38:15.025369
2343  2023-11-29 14:38:15.057283
2344  2023-11-29 14:38:15.089246
2345  2023-11-29 14:38:15.121166
2346  2023-11-29 14:38:15.169118
2347  2023-11-29 14:38:15.201043
2348  2023-11-29 14:38:15.232947
2349  2023-11-29 14:38:15.264805
2350  2023-11-29 14:38:15.296719
2351  2023-11-29 14:38:15.328912
2352  2023-11-29 14:38:15.360827
2353  2023-11-29 14:38:15.392837
2354  2023-11-29 14:38:15.424756
2355  2023-11-29 14:38:15.456661
2356  2023-11-29 14:38:15.489540
2357  2023-11-29 14:38:15.520501
2358  2023-11-29 14:38:15.569676
2359  2023-11-29 14:38:15.600580
2360  2023-11-29 14:38:15.632492
2361  2023-11-29 14:38:15.664411
2362  2023-11-29 14:38:15.697386
2363  2023-11-29 14:38:15.729327
2364  2023-11-29 14:38:15.761214
2365  2023-11-29 14:38:15.793139
2366  2023-11-29 14:38:15.825030
2367  2023-11-29 14:38:15.856943
2368  2023-11-29 14:38:15.888846
2369  2023-11-29 14:38:15.920793
2370  2023-11-29 14:38:15.968665
2371  2023-11-29 14:38:16.000580
2372  2023-11-29 14:38:16.032463
2373  2023-11-29 14:38:16.064410
2374  2023-11-29 14:38:16.097320
2375  2023-11-29 14:38:16.129269
2376  2023-11-29 14:38:16.161153
2377  2023-11-29 14:38:16.193068
2378  2023-11-29 14:38:16.224983
2379  2023-11-29 14:38:16.256948
2380  2023-11-29 14:38:16.288902
2381  2023-11-29 14:38:16.320810
2382  2023-11-29 14:38:16.368682
2383  2023-11-29 14:38:16.400594
2384  2023-11-29 14:38:16.432509
2385  2023-11-29 14:38:16.464425
2386  2023-11-29 14:38:16.497362
2387  2023-11-29 14:38:16.529252
2388  2023-11-29 14:38:16.561165
2389  2023-11-29 14:38:16.593079
2390  2023-11-29 14:38:16.624996
2391  2023-11-29 14:38:16.656879
2392  2023-11-29 14:38:16.688794
2393  2023-11-29 14:38:16.720740
2394  2023-11-29 14:38:16.768611
2395  2023-11-29 14:38:16.800544
2396  2023-11-29 14:38:16.832434
2397  2023-11-29 14:38:16.865322
2398  2023-11-29 14:38:16.897237
2399  2023-11-29 14:38:16.929176
2400  2023-11-29 14:38:16.961090
2401  2023-11-29 14:38:16.992980
2402  2023-11-29 14:38:17.024931
2403  2023-11-29 14:38:17.056878
2404  2023-11-29 14:38:17.088740
2405  2023-11-29 14:38:17.120681
2406  2023-11-29 14:38:17.168538
2407  2023-11-29 14:38:17.200427
2408  2023-11-29 14:38:17.233339
2409  2023-11-29 14:38:17.265259
2410  2023-11-29 14:38:17.297172
2411  2023-11-29 14:38:17.329118
2412  2023-11-29 14:38:17.361029
2413  2023-11-29 14:38:17.392945
2414  2023-11-29 14:38:17.424856
2415  2023-11-29 14:38:17.456777
2416  2023-11-29 14:38:17.488693
2417  2023-11-29 14:38:17.520570
2418  2023-11-29 14:38:17.568476
2419  2023-11-29 14:38:17.600387
2420  2023-11-29 14:38:17.633293
2421  2023-11-29 14:38:17.665221
2422  2023-11-29 14:38:17.697132
2423  2023-11-29 14:38:17.729013
2424  2023-11-29 14:38:17.760740
2425  2023-11-29 14:38:17.792635
2426  2023-11-29 14:38:17.824554
2427  2023-11-29 14:38:17.856552
2428  2023-11-29 14:38:17.888465
2429  2023-11-29 14:38:17.921346
2430  2023-11-29 14:38:17.969218
2431  2023-11-29 14:38:18.001164
2432  2023-11-29 14:38:18.033079
2433  2023-11-29 14:38:18.064993
2434  2023-11-29 14:38:18.096903
2435  2023-11-29 14:38:18.128830
2436  2023-11-29 14:38:18.160745
2437  2023-11-29 14:38:18.192666
2438  2023-11-29 14:38:18.224574
2439  2023-11-29 14:38:18.256482
2440  2023-11-29 14:38:18.289362
2441  2023-11-29 14:38:18.321277
2442  2023-11-29 14:38:18.369150
2443  2023-11-29 14:38:18.401096
2444  2023-11-29 14:38:18.432568
2445  2023-11-29 14:38:18.464483
2446  2023-11-29 14:38:18.496471
2447  2023-11-29 14:38:18.529387
2448  2023-11-29 14:38:18.561255
2449  2023-11-29 14:38:18.593198
2450  2023-11-29 14:38:18.625111
2451  2023-11-29 14:38:18.657031
2452  2023-11-29 14:38:18.688914
2453  2023-11-29 14:38:18.720831
2454  2023-11-29 14:38:18.768700
2455  2023-11-29 14:38:18.800615
2456  2023-11-29 14:38:18.832530
2457  2023-11-29 14:38:18.864482
2458  2023-11-29 14:38:18.897390
2459  2023-11-29 14:38:18.929271
2460  2023-11-29 14:38:18.961186
2461  2023-11-29 14:38:18.993105
2462  2023-11-29 14:38:19.025050
2463  2023-11-29 14:38:19.056965
2464  2023-11-29 14:38:19.088844
2465  2023-11-29 14:38:19.136758
2466  2023-11-29 14:38:19.168631
2467  2023-11-29 14:38:19.200546
2468  2023-11-29 14:38:19.233498
2469  2023-11-29 14:38:19.265404
2470  2023-11-29 14:38:19.297314
2471  2023-11-29 14:38:19.329235
2472  2023-11-29 14:38:19.361147
2473  2023-11-29 14:38:19.393156
2474  2023-11-29 14:38:19.425024
2475  2023-11-29 14:38:19.456947
2476  2023-11-29 14:38:19.488865
2477  2023-11-29 14:38:19.536758
2478  2023-11-29 14:38:19.569638
2479  2023-11-29 14:38:19.600555
2480  2023-11-29 14:38:19.632510
2481  2023-11-29 14:38:19.665381
2482  2023-11-29 14:38:19.697299
2483  2023-11-29 14:38:19.729248
2484  2023-11-29 14:38:19.761125
2485  2023-11-29 14:38:19.793040
2486  2023-11-29 14:38:19.824991
2487  2023-11-29 14:38:19.856903
2488  2023-11-29 14:38:19.888828
2489  2023-11-29 14:38:19.936695
2490  2023-11-29 14:38:19.968604
2491  2023-11-29 14:38:20.000447
2492  2023-11-29 14:38:20.032432
2493  2023-11-29 14:38:20.065310
2494  2023-11-29 14:38:20.096831
2495  2023-11-29 14:38:20.128816
2496  2023-11-29 14:38:20.160692
2497  2023-11-29 14:38:20.192606
2498  2023-11-29 14:38:20.224561
2499  2023-11-29 14:38:20.257433
2500  2023-11-29 14:38:20.289431
2501  2023-11-29 14:38:20.336404
2502  2023-11-29 14:38:20.369313
2503  2023-11-29 14:38:20.401184
2504  2023-11-29 14:38:20.433099
2505  2023-11-29 14:38:20.465016
2506  2023-11-29 14:38:20.496929
2507  2023-11-29 14:38:20.528843
2508  2023-11-29 14:38:20.560758
2509  2023-11-29 14:38:20.592672
2510  2023-11-29 14:38:20.624624
2511  2023-11-29 14:38:20.656548
2512  2023-11-29 14:38:20.689414
2513  2023-11-29 14:38:20.737323
2514  2023-11-29 14:38:20.769201
2515  2023-11-29 14:38:20.801115
2516  2023-11-29 14:38:20.833060
2517  2023-11-29 14:38:20.865017
2518  2023-11-29 14:38:20.896932
2519  2023-11-29 14:38:20.928882
2520  2023-11-29 14:38:20.960797
2521  2023-11-29 14:38:20.992711
2522  2023-11-29 14:38:21.024673
2523  2023-11-29 14:38:21.056572
2524  2023-11-29 14:38:21.089452
2525  2023-11-29 14:38:21.137325
2526  2023-11-29 14:38:21.169283
2527  2023-11-29 14:38:21.201154
2528  2023-11-29 14:38:21.233068
2529  2023-11-29 14:38:21.264983
2530  2023-11-29 14:38:21.296898
2531  2023-11-29 14:38:21.328813
2532  2023-11-29 14:38:21.360727
2533  2023-11-29 14:38:21.392642
2534  2023-11-29 14:38:21.424589
2535  2023-11-29 14:38:21.456471
2536  2023-11-29 14:38:21.489384
2537  2023-11-29 14:38:21.537295
2538  2023-11-29 14:38:21.569172
2539  2023-11-29 14:38:21.601085
2540  2023-11-29 14:38:21.632999
2541  2023-11-29 14:38:21.664914
2542  2023-11-29 14:38:21.696864
2543  2023-11-29 14:38:21.729050
2544  2023-11-29 14:38:21.760965
2545  2023-11-29 14:38:21.792879
2546  2023-11-29 14:38:21.824842
2547  2023-11-29 14:38:21.856709
2548  2023-11-29 14:38:21.888624
2549  2023-11-29 14:38:21.936495
2550  2023-11-29 14:38:21.968487
2551  2023-11-29 14:38:22.001412
2552  2023-11-29 14:38:22.033291
2553  2023-11-29 14:38:22.065269
2554  2023-11-29 14:38:22.097184
2555  2023-11-29 14:38:22.129098
2556  2023-11-29 14:38:22.161040
2557  2023-11-29 14:38:22.192928
2558  2023-11-29 14:38:22.224842
2559  2023-11-29 14:38:22.256757
2560  2023-11-29 14:38:22.288708
2561  2023-11-29 14:38:22.336544
2562  2023-11-29 14:38:22.368499
2563  2023-11-29 14:38:22.400486
2564  2023-11-29 14:38:22.432401
2565  2023-11-29 14:38:22.465313
2566  2023-11-29 14:38:22.497263
2567  2023-11-29 14:38:22.529142
2568  2023-11-29 14:38:22.561177
2569  2023-11-29 14:38:22.593091
2570  2023-11-29 14:38:22.625006
2571  2023-11-29 14:38:22.656921
2572  2023-11-29 14:38:22.688836
2573  2023-11-29 14:38:22.736707
2574  2023-11-29 14:38:22.768622
2575  2023-11-29 14:38:22.800701
2576  2023-11-29 14:38:22.832616
2577  2023-11-29 14:38:22.865565
2578  2023-11-29 14:38:22.897444
2579  2023-11-29 14:38:22.929357
2580  2023-11-29 14:38:22.961318
2581  2023-11-29 14:38:22.993279
2582  2023-11-29 14:38:23.025193
2583  2023-11-29 14:38:23.057108
2584  2023-11-29 14:38:23.104980
2585  2023-11-29 14:38:23.136894
2586  2023-11-29 14:38:23.168809
2587  2023-11-29 14:38:23.200778
2588  2023-11-29 14:38:23.232638
2589  2023-11-29 14:38:23.265042
2590  2023-11-29 14:38:23.296957
2591  2023-11-29 14:38:23.328513
2592  2023-11-29 14:38:23.360538
2593  2023-11-29 14:38:23.393425
2594  2023-11-29 14:38:23.425333
2595  2023-11-29 14:38:23.457395
2596  2023-11-29 14:38:23.505233
2597  2023-11-29 14:38:23.537183
2598  2023-11-29 14:38:23.569063
2599  2023-11-29 14:38:23.600977
2600  2023-11-29 14:38:23.632892
2601  2023-11-29 14:38:23.664807
2602  2023-11-29 14:38:23.696760
2603  2023-11-29 14:38:23.728636
2604  2023-11-29 14:38:23.760551
2605  2023-11-29 14:38:23.792466
2606  2023-11-29 14:38:23.825378
2607  2023-11-29 14:38:23.857292
2608  2023-11-29 14:38:23.905282
2609  2023-11-29 14:38:23.937197
2610  2023-11-29 14:38:23.969112
2611  2023-11-29 14:38:24.001031
2612  2023-11-29 14:38:24.032941
2613  2023-11-29 14:38:24.064858
2614  2023-11-29 14:38:24.096770
2615  2023-11-29 14:38:24.128685
2616  2023-11-29 14:38:24.160656
2617  2023-11-29 14:38:24.193574
2618  2023-11-29 14:38:24.224486
2619  2023-11-29 14:38:24.257398
2620  2023-11-29 14:38:24.305271
2621  2023-11-29 14:38:24.337185
2622  2023-11-29 14:38:24.368627
2623  2023-11-29 14:38:24.401601
2624  2023-11-29 14:38:24.432465
2625  2023-11-29 14:38:24.465377
2626  2023-11-29 14:38:24.497292
2627  2023-11-29 14:38:24.529208
2628  2023-11-29 14:38:24.561122
2629  2023-11-29 14:38:24.593037
2630  2023-11-29 14:38:24.624951
2631  2023-11-29 14:38:24.656906
2632  2023-11-29 14:38:24.704682
2633  2023-11-29 14:38:24.736704
2634  2023-11-29 14:38:24.768629
2635  2023-11-29 14:38:24.800544
2636  2023-11-29 14:38:24.832459
2637  2023-11-29 14:38:24.864374
2638  2023-11-29 14:38:24.897285
2639  2023-11-29 14:38:24.929200
2640  2023-11-29 14:38:24.961248
2641  2023-11-29 14:38:24.993193
2642  2023-11-29 14:38:25.025077
2643  2023-11-29 14:38:25.056992
2644  2023-11-29 14:38:25.104865
2645  2023-11-29 14:38:25.136780
2646  2023-11-29 14:38:25.168695
2647  2023-11-29 14:38:25.200639
2648  2023-11-29 14:38:25.232524
2649  2023-11-29 14:38:25.265436
2650  2023-11-29 14:38:25.297351
2651  2023-11-29 14:38:25.329303
2652  2023-11-29 14:38:25.361214
2653  2023-11-29 14:38:25.393095
2654  2023-11-29 14:38:25.425009
2655  2023-11-29 14:38:25.457094
2656  2023-11-29 14:38:25.504965
2657  2023-11-29 14:38:25.536915
2658  2023-11-29 14:38:25.568467
2659  2023-11-29 14:38:25.601379
2660  2023-11-29 14:38:25.633420
2661  2023-11-29 14:38:25.665335
2662  2023-11-29 14:38:25.697249
2663  2023-11-29 14:38:25.729164
2664  2023-11-29 14:38:25.761079
2665  2023-11-29 14:38:25.792994
2666  2023-11-29 14:38:25.824909
2667  2023-11-29 14:38:25.857862
2668  2023-11-29 14:38:25.905705
2669  2023-11-29 14:38:25.937608
2670  2023-11-29 14:38:25.969522
2671  2023-11-29 14:38:26.001436
2672  2023-11-29 14:38:26.033390
2673  2023-11-29 14:38:26.065267
2674  2023-11-29 14:38:26.097180
2675  2023-11-29 14:38:26.129231
2676  2023-11-29 14:38:26.161182
2677  2023-11-29 14:38:26.193061
2678  2023-11-29 14:38:26.224975
2679  2023-11-29 14:38:26.256902
2680  2023-11-29 14:38:26.304762
2681  2023-11-29 14:38:26.336676
2682  2023-11-29 14:38:26.369124
2683  2023-11-29 14:38:26.401002
2684  2023-11-29 14:38:26.432917
2685  2023-11-29 14:38:26.464830
2686  2023-11-29 14:38:26.496748
2687  2023-11-29 14:38:26.528703
2688  2023-11-29 14:38:26.560645
2689  2023-11-29 14:38:26.592560
2690  2023-11-29 14:38:26.624506
2691  2023-11-29 14:38:26.673344
2692  2023-11-29 14:38:26.705252
2693  2023-11-29 14:38:26.737243
2694  2023-11-29 14:38:26.769121
2695  2023-11-29 14:38:26.801036
2696  2023-11-29 14:38:26.832981
2697  2023-11-29 14:38:26.864903
2698  2023-11-29 14:38:26.896928
2699  2023-11-29 14:38:26.928972
2700  2023-11-29 14:38:26.960922
2701  2023-11-29 14:38:26.992801
2702  2023-11-29 14:38:27.024717
2703  2023-11-29 14:38:27.072588
2704  2023-11-29 14:38:27.104503
2705  2023-11-29 14:38:27.137428
2706  2023-11-29 14:38:27.169338
2707  2023-11-29 14:38:27.201244
2708  2023-11-29 14:38:27.233159
2709  2023-11-29 14:38:27.265073
2710  2023-11-29 14:38:27.297082
2711  2023-11-29 14:38:27.328996
2712  2023-11-29 14:38:27.360911
2713  2023-11-29 14:38:27.392826
2714  2023-11-29 14:38:27.424740
2715  2023-11-29 14:38:27.472612
2716  2023-11-29 14:38:27.504540
2717  2023-11-29 14:38:27.536442
2718  2023-11-29 14:38:27.569391
2719  2023-11-29 14:38:27.601269
2720  2023-11-29 14:38:27.633229
2721  2023-11-29 14:38:27.665182
2722  2023-11-29 14:38:27.697148
2723  2023-11-29 14:38:27.729353
2724  2023-11-29 14:38:27.760425
2725  2023-11-29 14:38:27.793337
2726  2023-11-29 14:38:27.825295
2727  2023-11-29 14:38:27.873168
2728  2023-11-29 14:38:27.905076
2729  2023-11-29 14:38:27.936953
2730  2023-11-29 14:38:27.969011
2731  2023-11-29 14:38:28.000957
2732  2023-11-29 14:38:28.032875
2733  2023-11-29 14:38:28.064755
2734  2023-11-29 14:38:28.096670
2735  2023-11-29 14:38:28.128585
2736  2023-11-29 14:38:28.160500
2737  2023-11-29 14:38:28.193411
2738  2023-11-29 14:38:28.225326
2739  2023-11-29 14:38:28.273198
2740  2023-11-29 14:38:28.305112
2741  2023-11-29 14:38:28.337027
2742  2023-11-29 14:38:28.368942
2743  2023-11-29 14:38:28.400856
2744  2023-11-29 14:38:28.432771
2745  2023-11-29 14:38:28.465683
2746  2023-11-29 14:38:28.496702
2747  2023-11-29 14:38:28.529655
2748  2023-11-29 14:38:28.561528
2749  2023-11-29 14:38:28.593443
2750  2023-11-29 14:38:28.625367
2751  2023-11-29 14:38:28.673230
2752  2023-11-29 14:38:28.705145
2753  2023-11-29 14:38:28.737060
2754  2023-11-29 14:38:28.768974
2755  2023-11-29 14:38:28.800889
2756  2023-11-29 14:38:28.832810
2757  2023-11-29 14:38:28.864736
2758  2023-11-29 14:38:28.896677
2759  2023-11-29 14:38:28.928635
2760  2023-11-29 14:38:28.960466
2761  2023-11-29 14:38:28.993382
2762  2023-11-29 14:38:29.025354
2763  2023-11-29 14:38:29.073209
2764  2023-11-29 14:38:29.105088
2765  2023-11-29 14:38:29.137002
2766  2023-11-29 14:38:29.168917
2767  2023-11-29 14:38:29.200833
2768  2023-11-29 14:38:29.232748
2769  2023-11-29 14:38:29.264661
2770  2023-11-29 14:38:29.296576
2771  2023-11-29 14:38:29.328528
2772  2023-11-29 14:38:29.360444
2773  2023-11-29 14:38:29.393409
2774  2023-11-29 14:38:29.425276
2775  2023-11-29 14:38:29.473178
2776  2023-11-29 14:38:29.505088
2777  2023-11-29 14:38:29.537046
2778  2023-11-29 14:38:29.568961
2779  2023-11-29 14:38:29.600877
2780  2023-11-29 14:38:29.632790
2781  2023-11-29 14:38:29.664705
2782  2023-11-29 14:38:29.697668
2783  2023-11-29 14:38:29.728534
2784  2023-11-29 14:38:29.760449
2785  2023-11-29 14:38:29.793368
2786  2023-11-29 14:38:29.825317
2787  2023-11-29 14:38:29.873156
2788  2023-11-29 14:38:29.905072
2789  2023-11-29 14:38:29.936996
2790  2023-11-29 14:38:29.968922
2791  2023-11-29 14:38:30.000837
2792  2023-11-29 14:38:30.032752
2793  2023-11-29 14:38:30.064666
2794  2023-11-29 14:38:30.096581
2795  2023-11-29 14:38:30.128496
2796  2023-11-29 14:38:30.161408
2797  2023-11-29 14:38:30.193322
2798  2023-11-29 14:38:30.225237
2799  2023-11-29 14:38:30.273110
2800  2023-11-29 14:38:30.305024
2801  2023-11-29 14:38:30.336939
2802  2023-11-29 14:38:30.368896
2803  2023-11-29 14:38:30.400804
2804  2023-11-29 14:38:30.432682
2805  2023-11-29 14:38:30.464518
2806  2023-11-29 14:38:30.496466
2807  2023-11-29 14:38:30.529405
2808  2023-11-29 14:38:30.561259
2809  2023-11-29 14:38:30.593174
2810  2023-11-29 14:38:30.641046
2811  2023-11-29 14:38:30.672960
2812  2023-11-29 14:38:30.704875
2813  2023-11-29 14:38:30.736790
2814  2023-11-29 14:38:30.768704
2815  2023-11-29 14:38:30.800619
2816  2023-11-29 14:38:30.832534
2817  2023-11-29 14:38:30.864449
2818  2023-11-29 14:38:30.897361
2819  2023-11-29 14:38:30.928388
2820  2023-11-29 14:38:30.961326
2821  2023-11-29 14:38:30.993355
2822  2023-11-29 14:38:31.041227
2823  2023-11-29 14:38:31.074171
2824  2023-11-29 14:38:31.106090
2825  2023-11-29 14:38:31.138001
2826  2023-11-29 14:38:31.169917
2827  2023-11-29 14:38:31.201831
2828  2023-11-29 14:38:31.233745
2829  2023-11-29 14:38:31.266676
2830  2023-11-29 14:38:31.298574
2831  2023-11-29 14:38:31.330485
2832  2023-11-29 14:38:31.361406
2833  2023-11-29 14:38:31.394292
2834  2023-11-29 14:38:31.442191
2835  2023-11-29 14:38:31.474072
2836  2023-11-29 14:38:31.506017
2837  2023-11-29 14:38:31.537948
2838  2023-11-29 14:38:31.569848
2839  2023-11-29 14:38:31.601761
2840  2023-11-29 14:38:31.633675
2841  2023-11-29 14:38:31.665589
2842  2023-11-29 14:38:31.697504
2843  2023-11-29 14:38:31.729389
2844  2023-11-29 14:38:31.762335
2845  2023-11-29 14:38:31.794252
2846  2023-11-29 14:38:31.842124
2847  2023-11-29 14:38:31.874173
2848  2023-11-29 14:38:31.905084
2849  2023-11-29 14:38:31.937996
2850  2023-11-29 14:38:31.969914
2851  2023-11-29 14:38:32.001825
2852  2023-11-29 14:38:32.034103
2853  2023-11-29 14:38:32.066027
2854  2023-11-29 14:38:32.097974
2855  2023-11-29 14:38:32.129888
2856  2023-11-29 14:38:32.161804
2857  2023-11-29 14:38:32.193719
2858  2023-11-29 14:38:32.241591
2859  2023-11-29 14:38:32.273505
2860  2023-11-29 14:38:32.305424
2861  2023-11-29 14:38:32.337332
2862  2023-11-29 14:38:32.369251
2863  2023-11-29 14:38:32.401158
2864  2023-11-29 14:38:32.433095
2865  2023-11-29 14:38:32.464993
2866  2023-11-29 14:38:32.496912
2867  2023-11-29 14:38:32.528830
2868  2023-11-29 14:38:32.561738
2869  2023-11-29 14:38:32.593652
2870  2023-11-29 14:38:32.641649
2871  2023-11-29 14:38:32.673560
2872  2023-11-29 14:38:32.705485
2873  2023-11-29 14:38:32.737648
2874  2023-11-29 14:38:32.769566
2875  2023-11-29 14:38:32.801502
2876  2023-11-29 14:38:32.832572
2877  2023-11-29 14:38:32.865439
2878  2023-11-29 14:38:32.897474
2879  2023-11-29 14:38:32.929383
2880  2023-11-29 14:38:32.961432
2881  2023-11-29 14:38:32.993347
2882  2023-11-29 14:38:33.041302
2883  2023-11-29 14:38:33.073214
2884  2023-11-29 14:38:33.105129
2885  2023-11-29 14:38:33.137043
2886  2023-11-29 14:38:33.168959
2887  2023-11-29 14:38:33.200872
2888  2023-11-29 14:38:33.232801
2889  2023-11-29 14:38:33.264702
2890  2023-11-29 14:38:33.296617
2891  2023-11-29 14:38:33.329498
2892  2023-11-29 14:38:33.362410
2893  2023-11-29 14:38:33.393355
2894  2023-11-29 14:38:33.441200
2895  2023-11-29 14:38:33.473145
2896  2023-11-29 14:38:33.505079
2897  2023-11-29 14:38:33.536990
2898  2023-11-29 14:38:33.568860
2899  2023-11-29 14:38:33.600778
2900  2023-11-29 14:38:33.632718
2901  2023-11-29 14:38:33.665119
2902  2023-11-29 14:38:33.696652
2903  2023-11-29 14:38:33.729520
2904  2023-11-29 14:38:33.762475
2905  2023-11-29 14:38:33.793393
2906  2023-11-29 14:38:33.841241
2907  2023-11-29 14:38:33.873199
2908  2023-11-29 14:38:33.905121
2909  2023-11-29 14:38:33.938113
2910  2023-11-29 14:38:33.970246
2911  2023-11-29 14:38:34.002191
2912  2023-11-29 14:38:34.032714
2913  2023-11-29 14:38:34.064625
2914  2023-11-29 14:38:34.097537
2915  2023-11-29 14:38:34.128454
2916  2023-11-29 14:38:34.162468
2917  2023-11-29 14:38:34.210341
2918  2023-11-29 14:38:34.242256
2919  2023-11-29 14:38:34.273140
2920  2023-11-29 14:38:34.305087
2921  2023-11-29 14:38:34.337997
2922  2023-11-29 14:38:34.369916
2923  2023-11-29 14:38:34.401832
2924  2023-11-29 14:38:34.432747
2925  2023-11-29 14:38:34.464674
2926  2023-11-29 14:38:34.497542
2927  2023-11-29 14:38:34.529490
2928  2023-11-29 14:38:34.561405
2929  2023-11-29 14:38:34.610241
2930  2023-11-29 14:38:34.642154
2931  2023-11-29 14:38:34.673076
2932  2023-11-29 14:38:34.705017
2933  2023-11-29 14:38:34.737928
2934  2023-11-29 14:38:34.769948
2935  2023-11-29 14:38:34.801858
2936  2023-11-29 14:38:34.832772
2937  2023-11-29 14:38:34.864680
2938  2023-11-29 14:38:34.897594
2939  2023-11-29 14:38:34.929506
2940  2023-11-29 14:38:34.961418
2941  2023-11-29 14:38:35.009296
2942  2023-11-29 14:38:35.041179
2943  2023-11-29 14:38:35.073093
2944  2023-11-29 14:38:35.105048
2945  2023-11-29 14:38:35.137944
2946  2023-11-29 14:38:35.169868
2947  2023-11-29 14:38:35.201789
2948  2023-11-29 14:38:35.232699
2949  2023-11-29 14:38:35.264612
2950  2023-11-29 14:38:35.297527
2951  2023-11-29 14:38:35.329442
2952  2023-11-29 14:38:35.361355
2953  2023-11-29 14:38:35.409034
2954  2023-11-29 14:38:35.440950
2955  2023-11-29 14:38:35.472937
2956  2023-11-29 14:38:35.504848
2957  2023-11-29 14:38:35.537763
2958  2023-11-29 14:38:35.568699
2959  2023-11-29 14:38:35.601593
2960  2023-11-29 14:38:35.632514
2961  2023-11-29 14:38:35.664426
2962  2023-11-29 14:38:35.697308
2963  2023-11-29 14:38:35.729222
2964  2023-11-29 14:38:35.761138
2965  2023-11-29 14:38:35.809041
2966  2023-11-29 14:38:35.840955
2967  2023-11-29 14:38:35.872880
2968  2023-11-29 14:38:35.904783
2969  2023-11-29 14:38:35.936699
2970  2023-11-29 14:38:35.968614
2971  2023-11-29 14:38:36.001527
2972  2023-11-29 14:38:36.032443
2973  2023-11-29 14:38:36.065370
2974  2023-11-29 14:38:36.097280
2975  2023-11-29 14:38:36.129186
2976  2023-11-29 14:38:36.161100
2977  2023-11-29 14:38:36.208975
2978  2023-11-29 14:38:36.240902
2979  2023-11-29 14:38:36.273768
2980  2023-11-29 14:38:36.304722
2981  2023-11-29 14:38:36.336632
2982  2023-11-29 14:38:36.368548
2983  2023-11-29 14:38:36.401426
2984  2023-11-29 14:38:36.433377
2985  2023-11-29 14:38:36.465294
2986  2023-11-29 14:38:36.497200
2987  2023-11-29 14:38:36.529085
2988  2023-11-29 14:38:36.561045
2989  2023-11-29 14:38:36.608903
2990  2023-11-29 14:38:36.640827
2991  2023-11-29 14:38:36.672734
2992  2023-11-29 14:38:36.704647
2993  2023-11-29 14:38:36.736560
2994  2023-11-29 14:38:36.768476
2995  2023-11-29 14:38:36.801396
2996  2023-11-29 14:38:36.833271
2997  2023-11-29 14:38:36.865187
2998  2023-11-29 14:38:36.897105
2999  2023-11-29 14:38:36.929052
3000  2023-11-29 14:38:36.961062
3001  2023-11-29 14:38:37.008936
3002  2023-11-29 14:38:37.040868
3003  2023-11-29 14:38:37.072788
3004  2023-11-29 14:38:37.104681
3005  2023-11-29 14:38:37.136604
3006  2023-11-29 14:38:37.168510
3007  2023-11-29 14:38:37.201391
3008  2023-11-29 14:38:37.232349
3009  2023-11-29 14:38:37.265256
3010  2023-11-29 14:38:37.297174
3011  2023-11-29 14:38:37.329081
3012  2023-11-29 14:38:37.360998
3013  2023-11-29 14:38:37.408878
3014  2023-11-29 14:38:37.440785
3015  2023-11-29 14:38:37.472694
3016  2023-11-29 14:38:37.504687
3017  2023-11-29 14:38:37.536600
3018  2023-11-29 14:38:37.568525
3019  2023-11-29 14:38:37.600558
3020  2023-11-29 14:38:37.632473
3021  2023-11-29 14:38:37.664394
3022  2023-11-29 14:38:37.697298
3023  2023-11-29 14:38:37.729216
3024  2023-11-29 14:38:37.761128
3025  2023-11-29 14:38:37.809002
3026  2023-11-29 14:38:37.840918
3027  2023-11-29 14:38:37.872839
3028  2023-11-29 14:38:37.904718
3029  2023-11-29 14:38:37.936629
3030  2023-11-29 14:38:37.968576
3031  2023-11-29 14:38:38.001496
3032  2023-11-29 14:38:38.032405
3033  2023-11-29 14:38:38.065321
3034  2023-11-29 14:38:38.097235
3035  2023-11-29 14:38:38.129145
3036  2023-11-29 14:38:38.176985
3037  2023-11-29 14:38:38.208937
3038  2023-11-29 14:38:38.240880
3039  2023-11-29 14:38:38.272809
3040  2023-11-29 14:38:38.304676
3041  2023-11-29 14:38:38.336614
3042  2023-11-29 14:38:38.368510
3043  2023-11-29 14:38:38.401386
3044  2023-11-29 14:38:38.433300
3045  2023-11-29 14:38:38.465248
3046  2023-11-29 14:38:38.497219
3047  2023-11-29 14:38:38.529188
3048  2023-11-29 14:38:38.577060
3049  2023-11-29 14:38:38.608975
3050  2023-11-29 14:38:38.640922
3051  2023-11-29 14:38:38.672836
3052  2023-11-29 14:38:38.704767
3053  2023-11-29 14:38:38.736702
3054  2023-11-29 14:38:38.768581
3055  2023-11-29 14:38:38.800493
3056  2023-11-29 14:38:38.833409
3057  2023-11-29 14:38:38.865332
3058  2023-11-29 14:38:38.897252
3059  2023-11-29 14:38:38.929278
3060  2023-11-29 14:38:38.977125
3061  2023-11-29 14:38:39.009041
3062  2023-11-29 14:38:39.040959
3063  2023-11-29 14:38:39.072910
3064  2023-11-29 14:38:39.104806
3065  2023-11-29 14:38:39.136721
3066  2023-11-29 14:38:39.168700
3067  2023-11-29 14:38:39.200584
3068  2023-11-29 14:38:39.232535
3069  2023-11-29 14:38:39.264442
3070  2023-11-29 14:38:39.297369
3071  2023-11-29 14:38:39.329277
3072  2023-11-29 14:38:39.376494
3073  2023-11-29 14:38:39.408447
3074  2023-11-29 14:38:39.441364
3075  2023-11-29 14:38:39.473268
3076  2023-11-29 14:38:39.505152
3077  2023-11-29 14:38:39.537098
3078  2023-11-29 14:38:39.569005
3079  2023-11-29 14:38:39.600930
3080  2023-11-29 14:38:39.632849
3081  2023-11-29 14:38:39.664770
3082  2023-11-29 14:38:39.696678
3083  2023-11-29 14:38:39.728587
3084  2023-11-29 14:38:39.776470
3085  2023-11-29 14:38:39.809372
3086  2023-11-29 14:38:39.841287
3087  2023-11-29 14:38:39.873201
3088  2023-11-29 14:38:39.905134
3089  2023-11-29 14:38:39.937023
3090  2023-11-29 14:38:39.968936
3091  2023-11-29 14:38:40.000859
3092  2023-11-29 14:38:40.032742
3093  2023-11-29 14:38:40.064661
3094  2023-11-29 14:38:40.096573
3095  2023-11-29 14:38:40.128518
3096  2023-11-29 14:38:40.177399
3097  2023-11-29 14:38:40.209326
3098  2023-11-29 14:38:40.241217
3099  2023-11-29 14:38:40.273099
3100  2023-11-29 14:38:40.306012
3101  2023-11-29 14:38:40.336933
3102  2023-11-29 14:38:40.368868
3103  2023-11-29 14:38:40.401757
3104  2023-11-29 14:38:40.432703
3105  2023-11-29 14:38:40.464620
3106  2023-11-29 14:38:40.496536
3107  2023-11-29 14:38:40.529418
3108  2023-11-29 14:38:40.577330
3109  2023-11-29 14:38:40.609201
3110  2023-11-29 14:38:40.641168
3111  2023-11-29 14:38:40.673082
3112  2023-11-29 14:38:40.704998
3113  2023-11-29 14:38:40.736911
3114  2023-11-29 14:38:40.768862
3115  2023-11-29 14:38:40.800745
3116  2023-11-29 14:38:40.832750
3117  2023-11-29 14:38:40.864690
3118  2023-11-29 14:38:40.896671
3119  2023-11-29 14:38:40.928592
3120  2023-11-29 14:38:40.976432
3121  2023-11-29 14:38:41.008378
3122  2023-11-29 14:38:41.041292
3123  2023-11-29 14:38:41.073213
3124  2023-11-29 14:38:41.105088
3125  2023-11-29 14:38:41.137004
3126  2023-11-29 14:38:41.168919
3127  2023-11-29 14:38:41.200832
3128  2023-11-29 14:38:41.232782
3129  2023-11-29 14:38:41.264692
3130  2023-11-29 14:38:41.296673
3131  2023-11-29 14:38:41.328578
3132  2023-11-29 14:38:41.377415
3133  2023-11-29 14:38:41.409387
3134  2023-11-29 14:38:41.441278
3135  2023-11-29 14:38:41.473194
3136  2023-11-29 14:38:41.505109
3137  2023-11-29 14:38:41.537023
3138  2023-11-29 14:38:41.568928
3139  2023-11-29 14:38:41.600851
3140  2023-11-29 14:38:41.632760
3141  2023-11-29 14:38:41.664661
3142  2023-11-29 14:38:41.697560
3143  2023-11-29 14:38:41.729535
3144  2023-11-29 14:38:41.777347
3145  2023-11-29 14:38:41.809307
3146  2023-11-29 14:38:41.841209
3147  2023-11-29 14:38:41.873122
3148  2023-11-29 14:38:41.905005
3149  2023-11-29 14:38:41.936958
3150  2023-11-29 14:38:41.968886
3151  2023-11-29 14:38:42.000779
3152  2023-11-29 14:38:42.032720
3153  2023-11-29 14:38:42.064705
3154  2023-11-29 14:38:42.096628
3155  2023-11-29 14:38:42.144506
3156  2023-11-29 14:38:42.176417
3157  2023-11-29 14:38:42.209289
3158  2023-11-29 14:38:42.241208
3159  2023-11-29 14:38:42.273119
3160  2023-11-29 14:38:42.305038
3161  2023-11-29 14:38:42.336982
3162  2023-11-29 14:38:42.368916
3163  2023-11-29 14:38:42.400811
3164  2023-11-29 14:38:42.432726
3165  2023-11-29 14:38:42.464606
3166  2023-11-29 14:38:42.496555
3167  2023-11-29 14:38:42.544423
3168  2023-11-29 14:38:42.577351
3169  2023-11-29 14:38:42.609244
3170  2023-11-29 14:38:42.641158
3171  2023-11-29 14:38:42.673076
3172  2023-11-29 14:38:42.704994
3173  2023-11-29 14:38:42.736907
3174  2023-11-29 14:38:42.768793
3175  2023-11-29 14:38:42.800732
3176  2023-11-29 14:38:42.832663
3177  2023-11-29 14:38:42.864567
3178  2023-11-29 14:38:42.896481
3179  2023-11-29 14:38:42.944432
3180  2023-11-29 14:38:42.977344
3181  2023-11-29 14:38:43.009245
3182  2023-11-29 14:38:43.041173
3183  2023-11-29 14:38:43.073117
3184  2023-11-29 14:38:43.104997
3185  2023-11-29 14:38:43.136918
3186  2023-11-29 14:38:43.168835
3187  2023-11-29 14:38:43.200759
3188  2023-11-29 14:38:43.233621
3189  2023-11-29 14:38:43.264574
3190  2023-11-29 14:38:43.296489
3191  2023-11-29 14:38:43.344325
3192  2023-11-29 14:38:43.377241
3193  2023-11-29 14:38:43.409196
3194  2023-11-29 14:38:43.441105
3195  2023-11-29 14:38:43.473004
3196  2023-11-29 14:38:43.504926
3197  2023-11-29 14:38:43.536858
3198  2023-11-29 14:38:43.568778
3199  2023-11-29 14:38:43.600672
3200  2023-11-29 14:38:43.632586
3201  2023-11-29 14:38:43.664502
3202  2023-11-29 14:38:43.696419
3203  2023-11-29 14:38:43.745289
3204  2023-11-29 14:38:43.777200
3205  2023-11-29 14:38:43.809081
3206  2023-11-29 14:38:43.840996
3207  2023-11-29 14:38:43.872965
3208  2023-11-29 14:38:43.904865
3209  2023-11-29 14:38:43.936771
3210  2023-11-29 14:38:43.968690
3211  2023-11-29 14:38:44.000604
3212  2023-11-29 14:38:44.032522
3213  2023-11-29 14:38:44.064433
3214  2023-11-29 14:38:44.097338
3215  2023-11-29 14:38:44.145213
3216  2023-11-29 14:38:44.177136
3217  2023-11-29 14:38:44.209012
3218  2023-11-29 14:38:44.240928
3219  2023-11-29 14:38:44.272873
3220  2023-11-29 14:38:44.304788
3221  2023-11-29 14:38:44.336705
3222  2023-11-29 14:38:44.368584
3223  2023-11-29 14:38:44.400500
3224  2023-11-29 14:38:44.432415
3225  2023-11-29 14:38:44.465325
3226  2023-11-29 14:38:44.497344
3227  2023-11-29 14:38:44.545371
3228  2023-11-29 14:38:44.577288
3229  2023-11-29 14:38:44.609315
3230  2023-11-29 14:38:44.641229
3231  2023-11-29 14:38:44.673170
3232  2023-11-29 14:38:44.705095
3233  2023-11-29 14:38:44.737006
3234  2023-11-29 14:38:44.768888
3235  2023-11-29 14:38:44.800803
3236  2023-11-29 14:38:44.832757
3237  2023-11-29 14:38:44.864663
3238  2023-11-29 14:38:44.896577
3239  2023-11-29 14:38:44.945418
3240  2023-11-29 14:38:44.977367
3241  2023-11-29 14:38:45.009245
3242  2023-11-29 14:38:45.041160
3243  2023-11-29 14:38:45.073075
3244  2023-11-29 14:38:45.105154
3245  2023-11-29 14:38:45.137068
3246  2023-11-29 14:38:45.168945
3247  2023-11-29 14:38:45.200859
3248  2023-11-29 14:38:45.232774
3249  2023-11-29 14:38:45.265750
3250  2023-11-29 14:38:45.296635
3251  2023-11-29 14:38:45.344516
3252  2023-11-29 14:38:45.376425
3253  2023-11-29 14:38:45.409357
3254  2023-11-29 14:38:45.441267
3255  2023-11-29 14:38:45.473131
3256  2023-11-29 14:38:45.505052
3257  2023-11-29 14:38:45.536964
3258  2023-11-29 14:38:45.568909
3259  2023-11-29 14:38:45.600664
3260  2023-11-29 14:38:45.632580
3261  2023-11-29 14:38:45.664501
3262  2023-11-29 14:38:45.712400
3263  2023-11-29 14:38:45.745339
3264  2023-11-29 14:38:45.777253
3265  2023-11-29 14:38:45.809169
3266  2023-11-29 14:38:45.841056
3267  2023-11-29 14:38:45.872999
3268  2023-11-29 14:38:45.904928
3269  2023-11-29 14:38:45.936850
3270  2023-11-29 14:38:45.968755
3271  2023-11-29 14:38:46.000940
3272  2023-11-29 14:38:46.032855
3273  2023-11-29 14:38:46.064830
3274  2023-11-29 14:38:46.112709
3275  2023-11-29 14:38:46.144634
3276  2023-11-29 14:38:46.176538
3277  2023-11-29 14:38:46.208449
3278  2023-11-29 14:38:46.240373
3279  2023-11-29 14:38:46.273249
3280  2023-11-29 14:38:46.305191
3281  2023-11-29 14:38:46.337103
3282  2023-11-29 14:38:46.369030
3283  2023-11-29 14:38:46.400908
3284  2023-11-29 14:38:46.432822
3285  2023-11-29 14:38:46.464773
3286  2023-11-29 14:38:46.512609
3287  2023-11-29 14:38:46.544561
3288  2023-11-29 14:38:46.576443
3289  2023-11-29 14:38:46.608354
3290  2023-11-29 14:38:46.641265
3291  2023-11-29 14:38:46.673180
3292  2023-11-29 14:38:46.705129
3293  2023-11-29 14:38:46.737009
3294  2023-11-29 14:38:46.768924
3295  2023-11-29 14:38:46.800838
3296  2023-11-29 14:38:46.832753
3297  2023-11-29 14:38:46.864698
3298  2023-11-29 14:38:46.912741
3299  2023-11-29 14:38:46.944656
3300  2023-11-29 14:38:46.976570
3301  2023-11-29 14:38:47.008516
3302  2023-11-29 14:38:47.040399
3303  2023-11-29 14:38:47.073343
3304  2023-11-29 14:38:47.105226
3305  2023-11-29 14:38:47.137187
3306  2023-11-29 14:38:47.169140
3307  2023-11-29 14:38:47.201017
3308  2023-11-29 14:38:47.232932
3309  2023-11-29 14:38:47.264847
3310  2023-11-29 14:38:47.312763
3311  2023-11-29 14:38:47.344702
3312  2023-11-29 14:38:47.376617
3313  2023-11-29 14:38:47.408572
3314  2023-11-29 14:38:47.440446
3315  2023-11-29 14:38:47.473358
3316  2023-11-29 14:38:47.505273
3317  2023-11-29 14:38:47.537223
3318  2023-11-29 14:38:47.569133
3319  2023-11-29 14:38:47.601017
3320  2023-11-29 14:38:47.632932
3321  2023-11-29 14:38:47.664795
3322  2023-11-29 14:38:47.712671
3323  2023-11-29 14:38:47.744684
3324  2023-11-29 14:38:47.776552
3325  2023-11-29 14:38:47.809465
3326  2023-11-29 14:38:47.841379
3327  2023-11-29 14:38:47.873294
3328  2023-11-29 14:38:47.905247
3329  2023-11-29 14:38:47.937123
3330  2023-11-29 14:38:47.969038
3331  2023-11-29 14:38:48.000978
3332  2023-11-29 14:38:48.032679
3333  2023-11-29 14:38:48.064620
3334  2023-11-29 14:38:48.112547
3335  2023-11-29 14:38:48.144428
3336  2023-11-29 14:38:48.176346
3337  2023-11-29 14:38:48.209299
3338  2023-11-29 14:38:48.241202
3339  2023-11-29 14:38:48.273084
3340  2023-11-29 14:38:48.304999
3341  2023-11-29 14:38:48.336951
3342  2023-11-29 14:38:48.368860
3343  2023-11-29 14:38:48.400743
3344  2023-11-29 14:38:48.432658
3345  2023-11-29 14:38:48.464572
3346  2023-11-29 14:38:48.512444
3347  2023-11-29 14:38:48.545356
3348  2023-11-29 14:38:48.577271
3349  2023-11-29 14:38:48.609186
3350  2023-11-29 14:38:48.641100
3351  2023-11-29 14:38:48.673015
3352  2023-11-29 14:38:48.704930
3353  2023-11-29 14:38:48.736844
3354  2023-11-29 14:38:48.768760
3355  2023-11-29 14:38:48.800675
3356  2023-11-29 14:38:48.832590
3357  2023-11-29 14:38:48.864491
3358  2023-11-29 14:38:48.913360
3359  2023-11-29 14:38:48.945307
3360  2023-11-29 14:38:48.977189
3361  2023-11-29 14:38:49.009104
3362  2023-11-29 14:38:49.041024
3363  2023-11-29 14:38:49.072997
3364  2023-11-29 14:38:49.104848
3365  2023-11-29 14:38:49.136763
3366  2023-11-29 14:38:49.168677
3367  2023-11-29 14:38:49.200631
3368  2023-11-29 14:38:49.232508
3369  2023-11-29 14:38:49.265421
3370  2023-11-29 14:38:49.313302
3371  2023-11-29 14:38:49.345207
3372  2023-11-29 14:38:49.377122
3373  2023-11-29 14:38:49.409074
3374  2023-11-29 14:38:49.440950
3375  2023-11-29 14:38:49.472864
3376  2023-11-29 14:38:49.504779
3377  2023-11-29 14:38:49.536694
3378  2023-11-29 14:38:49.569607
3379  2023-11-29 14:38:49.600523
3380  2023-11-29 14:38:49.632438
3381  2023-11-29 14:38:49.681307
3382  2023-11-29 14:38:49.713222
3383  2023-11-29 14:38:49.745168
3384  2023-11-29 14:38:49.777085
3385  2023-11-29 14:38:49.808966
3386  2023-11-29 14:38:49.840881
3387  2023-11-29 14:38:49.872847
3388  2023-11-29 14:38:49.904750
3389  2023-11-29 14:38:49.936624
3390  2023-11-29 14:38:49.969536
3391  2023-11-29 14:38:50.001451
3392  2023-11-29 14:38:50.033417
3393  2023-11-29 14:38:50.081279
3394  2023-11-29 14:38:50.113187
3395  2023-11-29 14:38:50.145067
3396  2023-11-29 14:38:50.177016
3397  2023-11-29 14:38:50.208966
3398  2023-11-29 14:38:50.240892
3399  2023-11-29 14:38:50.272973
3400  2023-11-29 14:38:50.304888
3401  2023-11-29 14:38:50.336846
3402  2023-11-29 14:38:50.368717
3403  2023-11-29 14:38:50.400632
3404  2023-11-29 14:38:50.433544
3405  2023-11-29 14:38:50.480418
3406  2023-11-29 14:38:50.512489
3407  2023-11-29 14:38:50.545401
3408  2023-11-29 14:38:50.577316
3409  2023-11-29 14:38:50.609230
3410  2023-11-29 14:38:50.641145
3411  2023-11-29 14:38:50.673060
3412  2023-11-29 14:38:50.704974
3413  2023-11-29 14:38:50.736937
3414  2023-11-29 14:38:50.768804
3415  2023-11-29 14:38:50.800718
3416  2023-11-29 14:38:50.832633
3417  2023-11-29 14:38:50.880354
3418  2023-11-29 14:38:50.913267
3419  2023-11-29 14:38:50.945186
3420  2023-11-29 14:38:50.977133
3421  2023-11-29 14:38:51.009048
3422  2023-11-29 14:38:51.040962
3423  2023-11-29 14:38:51.073040
3424  2023-11-29 14:38:51.104921
3425  2023-11-29 14:38:51.136835
3426  2023-11-29 14:38:51.168750
3427  2023-11-29 14:38:51.200696
3428  2023-11-29 14:38:51.232579
3429  2023-11-29 14:38:51.280452
3430  2023-11-29 14:38:51.313364
3431  2023-11-29 14:38:51.345278
3432  2023-11-29 14:38:51.377193
3433  2023-11-29 14:38:51.409170
3434  2023-11-29 14:38:51.441022
3435  2023-11-29 14:38:51.472937
3436  2023-11-29 14:38:51.504852
3437  2023-11-29 14:38:51.536766
3438  2023-11-29 14:38:51.569052
3439  2023-11-29 14:38:51.600966
3440  2023-11-29 14:38:51.632881
3441  2023-11-29 14:38:51.680753
3442  2023-11-29 14:38:51.712668
3443  2023-11-29 14:38:51.744583
3444  2023-11-29 14:38:51.776529
3445  2023-11-29 14:38:51.809409
3446  2023-11-29 14:38:51.841325
3447  2023-11-29 14:38:51.873239
3448  2023-11-29 14:38:51.905214
3449  2023-11-29 14:38:51.937289
3450  2023-11-29 14:38:51.969204
3451  2023-11-29 14:38:52.001119
3452  2023-11-29 14:38:52.033032
3453  2023-11-29 14:38:52.080905
3454  2023-11-29 14:38:52.112819
3455  2023-11-29 14:38:52.144772
3456  2023-11-29 14:38:52.176698
3457  2023-11-29 14:38:52.208657
3458  2023-11-29 14:38:52.240577
3459  2023-11-29 14:38:52.273446
3460  2023-11-29 14:38:52.305354
3461  2023-11-29 14:38:52.337269
3462  2023-11-29 14:38:52.369219
3463  2023-11-29 14:38:52.401098
3464  2023-11-29 14:38:52.433013
3465  2023-11-29 14:38:52.480886
3466  2023-11-29 14:38:52.512800
3467  2023-11-29 14:38:52.544714
3468  2023-11-29 14:38:52.576629
3469  2023-11-29 14:38:52.608556
3470  2023-11-29 14:38:52.641456
3471  2023-11-29 14:38:52.673370
3472  2023-11-29 14:38:52.705285
3473  2023-11-29 14:38:52.737200
3474  2023-11-29 14:38:52.769114
3475  2023-11-29 14:38:52.801029
3476  2023-11-29 14:38:52.832945
3477  2023-11-29 14:38:52.880816
3478  2023-11-29 14:38:52.912730
3479  2023-11-29 14:38:52.945682
3480  2023-11-29 14:38:52.977557
3481  2023-11-29 14:38:53.008729
3482  2023-11-29 14:38:53.040650
3483  2023-11-29 14:38:53.072557
3484  2023-11-29 14:38:53.104476
3485  2023-11-29 14:38:53.136438
3486  2023-11-29 14:38:53.169351
3487  2023-11-29 14:38:53.201266
3488  2023-11-29 14:38:53.249137
3489  2023-11-29 14:38:53.281052
3490  2023-11-29 14:38:53.312966
3491  2023-11-29 14:38:53.344881
3492  2023-11-29 14:38:53.376796
3493  2023-11-29 14:38:53.408775
3494  2023-11-29 14:38:53.440625
3495  2023-11-29 14:38:53.473147
3496  2023-11-29 14:38:53.505061
3497  2023-11-29 14:38:53.536976
3498  2023-11-29 14:38:53.568916
3499  2023-11-29 14:38:53.600806
3500  2023-11-29 14:38:53.648677
3501  2023-11-29 14:38:53.680592
3502  2023-11-29 14:38:53.712507
3503  2023-11-29 14:38:53.744566
3504  2023-11-29 14:38:53.776481
3505  2023-11-29 14:38:53.809393
3506  2023-11-29 14:38:53.840430
3507  2023-11-29 14:38:53.873342
3508  2023-11-29 14:38:53.905296
3509  2023-11-29 14:38:53.937368
3510  2023-11-29 14:38:53.969277
3511  2023-11-29 14:38:54.001192
3512  2023-11-29 14:38:54.049064
3513  2023-11-29 14:38:54.080978
3514  2023-11-29 14:38:54.112894
3515  2023-11-29 14:38:54.144808
3516  2023-11-29 14:38:54.176723
3517  2023-11-29 14:38:54.208637
3518  2023-11-29 14:38:54.240593
3519  2023-11-29 14:38:54.273464
3520  2023-11-29 14:38:54.305378
3521  2023-11-29 14:38:54.337293
3522  2023-11-29 14:38:54.369153
3523  2023-11-29 14:38:54.401067
3524  2023-11-29 14:38:54.449035
3525  2023-11-29 14:38:54.480983
3526  2023-11-29 14:38:54.512897
3527  2023-11-29 14:38:54.544812
3528  2023-11-29 14:38:54.576771
3529  2023-11-29 14:38:54.608641
3530  2023-11-29 14:38:54.640556
3531  2023-11-29 14:38:54.673116
3532  2023-11-29 14:38:54.705115
3533  2023-11-29 14:38:54.736596
3534  2023-11-29 14:38:54.768550
3535  2023-11-29 14:38:54.800580
3536  2023-11-29 14:38:54.849531
3537  2023-11-29 14:38:54.880535
3538  2023-11-29 14:38:54.912496
3539  2023-11-29 14:38:54.944925
3540  2023-11-29 14:38:54.976913
3541  2023-11-29 14:38:55.008827
3542  2023-11-29 14:38:55.040773
3543  2023-11-29 14:38:55.072688
3544  2023-11-29 14:38:55.104571
3545  2023-11-29 14:38:55.137483
3546  2023-11-29 14:38:55.169398
3547  2023-11-29 14:38:55.201313
3548  2023-11-29 14:38:55.249185
3549  2023-11-29 14:38:55.281102
3550  2023-11-29 14:38:55.313014
3551  2023-11-29 14:38:55.344929
3552  2023-11-29 14:38:55.376844
3553  2023-11-29 14:38:55.409756
3554  2023-11-29 14:38:55.440705
3555  2023-11-29 14:38:55.472587
3556  2023-11-29 14:38:55.504502
3557  2023-11-29 14:38:55.536451
3558  2023-11-29 14:38:55.569184
3559  2023-11-29 14:38:55.601303
3560  2023-11-29 14:38:55.649206
3561  2023-11-29 14:38:55.681121
