
1  2023-11-30 15:01:59.487896
2  2023-11-30 15:01:59.535121
3  2023-11-30 15:01:59.566457
4  2023-11-30 15:01:59.613149
5  2023-11-30 15:01:59.659818
6  2023-11-30 15:01:59.689830
7  2023-11-30 15:01:59.735956
8  2023-11-30 15:01:59.784191
9  2023-11-30 15:01:59.816230
10  2023-11-30 15:01:59.864243
11  2023-11-30 15:01:59.912191
12  2023-11-30 15:01:59.944080
13  2023-11-30 15:01:59.992179
14  2023-11-30 15:02:00.023896
15  2023-11-30 15:02:00.070010
16  2023-11-30 15:02:00.115055
17  2023-11-30 15:02:00.160666
18  2023-11-30 15:02:00.192118
19  2023-11-30 15:02:00.237616
20  2023-11-30 15:02:00.284188
21  2023-11-30 15:02:00.316362
22  2023-11-30 15:02:00.361857
23  2023-11-30 15:02:00.407671
24  2023-11-30 15:02:00.439871
25  2023-11-30 15:02:00.486308
26  2023-11-30 15:02:00.533466
27  2023-11-30 15:02:00.564805
28  2023-11-30 15:02:00.611129
29  2023-11-30 15:02:00.658162
30  2023-11-30 15:02:00.704462
31  2023-11-30 15:02:00.734765
32  2023-11-30 15:02:00.782166
33  2023-11-30 15:02:00.829440
34  2023-11-30 15:02:00.861147
35  2023-11-30 15:02:00.907156
36  2023-11-30 15:02:00.954804
37  2023-11-30 15:02:00.984208
38  2023-11-30 15:02:01.031001
39  2023-11-30 15:02:01.077316
40  2023-11-30 15:02:01.108554
41  2023-11-30 15:02:01.155343
42  2023-11-30 15:02:01.202120
43  2023-11-30 15:02:01.233219
44  2023-11-30 15:02:01.280120
45  2023-11-30 15:02:01.326276
46  2023-11-30 15:02:01.357152
47  2023-11-30 15:02:01.404715
48  2023-11-30 15:02:01.451451
49  2023-11-30 15:02:01.483470
50  2023-11-30 15:02:01.530126
51  2023-11-30 15:02:01.577188
52  2023-11-30 15:02:01.607840
53  2023-11-30 15:02:01.654701
54  2023-11-30 15:02:01.701155
55  2023-11-30 15:02:01.732203
56  2023-11-30 15:02:01.779894
57  2023-11-30 15:02:01.826153
58  2023-11-30 15:02:01.858124
59  2023-11-30 15:02:01.905453
60  2023-11-30 15:02:01.952009
61  2023-11-30 15:02:01.983167
62  2023-11-30 15:02:02.031116
63  2023-11-30 15:02:02.076402
64  2023-11-30 15:02:02.109391
65  2023-11-30 15:02:02.155181
66  2023-11-30 15:02:02.201255
67  2023-11-30 15:02:02.233145
68  2023-11-30 15:02:02.278174
69  2023-11-30 15:02:02.325087
70  2023-11-30 15:02:02.355994
71  2023-11-30 15:02:02.402884
72  2023-11-30 15:02:02.449285
73  2023-11-30 15:02:02.481280
74  2023-11-30 15:02:02.528219
75  2023-11-30 15:02:02.575149
76  2023-11-30 15:02:02.606452
77  2023-11-30 15:02:02.653479
78  2023-11-30 15:02:02.701260
79  2023-11-30 15:02:02.733073
80  2023-11-30 15:02:02.779615
81  2023-11-30 15:02:02.826183
82  2023-11-30 15:02:02.856299
83  2023-11-30 15:02:02.902471
84  2023-11-30 15:02:02.947914
85  2023-11-30 15:02:02.993999
86  2023-11-30 15:02:03.026106
87  2023-11-30 15:02:03.072425
88  2023-11-30 15:02:03.119636
89  2023-11-30 15:02:03.150158
90  2023-11-30 15:02:03.198086
91  2023-11-30 15:02:03.245216
92  2023-11-30 15:02:03.275745
93  2023-11-30 15:02:03.321681
94  2023-11-30 15:02:03.368118
95  2023-11-30 15:02:03.400073
96  2023-11-30 15:02:03.446419
97  2023-11-30 15:02:03.494182
98  2023-11-30 15:02:03.525579
99  2023-11-30 15:02:03.573290
100  2023-11-30 15:02:03.619340
101  2023-11-30 15:02:03.650918
102  2023-11-30 15:02:03.696355
103  2023-11-30 15:02:03.744284
104  2023-11-30 15:02:03.775848
105  2023-11-30 15:02:03.822174
106  2023-11-30 15:02:03.869137
107  2023-11-30 15:02:03.900161
108  2023-11-30 15:02:03.947137
109  2023-11-30 15:02:03.994927
110  2023-11-30 15:02:04.025012
111  2023-11-30 15:02:04.071476
112  2023-11-30 15:02:04.118194
113  2023-11-30 15:02:04.149753
114  2023-11-30 15:02:04.196139
115  2023-11-30 15:02:04.242796
116  2023-11-30 15:02:04.274183
117  2023-11-30 15:02:04.321682
118  2023-11-30 15:02:04.367094
119  2023-11-30 15:02:04.399104
120  2023-11-30 15:02:04.445650
121  2023-11-30 15:02:04.492734
122  2023-11-30 15:02:04.523102
123  2023-11-30 15:02:04.569278
124  2023-11-30 15:02:04.616091
125  2023-11-30 15:02:04.662356
126  2023-11-30 15:02:04.693271
127  2023-11-30 15:02:04.739852
128  2023-11-30 15:02:04.787081
129  2023-11-30 15:02:04.819164
130  2023-11-30 15:02:04.866103
131  2023-11-30 15:02:04.912034
132  2023-11-30 15:02:04.943086
133  2023-11-30 15:02:04.992156
134  2023-11-30 15:02:05.022591
135  2023-11-30 15:02:05.069135
136  2023-11-30 15:02:05.116150
137  2023-11-30 15:02:05.162274
138  2023-11-30 15:02:05.193293
139  2023-11-30 15:02:05.239913
140  2023-11-30 15:02:05.286908
141  2023-11-30 15:02:05.317964
142  2023-11-30 15:02:05.364754
143  2023-11-30 15:02:05.412050
144  2023-11-30 15:02:05.442618
145  2023-11-30 15:02:05.489040
146  2023-11-30 15:02:05.536044
147  2023-11-30 15:02:05.567542
148  2023-11-30 15:02:05.615152
149  2023-11-30 15:02:05.662402
150  2023-11-30 15:02:05.692382
151  2023-11-30 15:02:05.737978
152  2023-11-30 15:02:05.784796
153  2023-11-30 15:02:05.816748
154  2023-11-30 15:02:05.863155
155  2023-11-30 15:02:05.910333
156  2023-11-30 15:02:05.942029
157  2023-11-30 15:02:05.988134
158  2023-11-30 15:02:06.035345
159  2023-11-30 15:02:06.066752
160  2023-11-30 15:02:06.113459
161  2023-11-30 15:02:06.160120
162  2023-11-30 15:02:06.192120
163  2023-11-30 15:02:06.238830
164  2023-11-30 15:02:06.285814
165  2023-11-30 15:02:06.317551
166  2023-11-30 15:02:06.364172
167  2023-11-30 15:02:06.410910
168  2023-11-30 15:02:06.442858
169  2023-11-30 15:02:06.489182
170  2023-11-30 15:02:06.535912
171  2023-11-30 15:02:06.567248
172  2023-11-30 15:02:06.613365
173  2023-11-30 15:02:06.660131
174  2023-11-30 15:02:06.690618
175  2023-11-30 15:02:06.738136
176  2023-11-30 15:02:06.786103
177  2023-11-30 15:02:06.816330
178  2023-11-30 15:02:06.864137
179  2023-11-30 15:02:06.910114
180  2023-11-30 15:02:06.943111
181  2023-11-30 15:02:06.987345
182  2023-11-30 15:02:07.035511
183  2023-11-30 15:02:07.066480
184  2023-11-30 15:02:07.112835
185  2023-11-30 15:02:07.159432
186  2023-11-30 15:02:07.190570
187  2023-11-30 15:02:07.237745
188  2023-11-30 15:02:07.285096
189  2023-11-30 15:02:07.317236
190  2023-11-30 15:02:07.364134
191  2023-11-30 15:02:07.412019
192  2023-11-30 15:02:07.443017
193  2023-11-30 15:02:07.489756
194  2023-11-30 15:02:07.536726
195  2023-11-30 15:02:07.567340
196  2023-11-30 15:02:07.615359
197  2023-11-30 15:02:07.647388
198  2023-11-30 15:02:07.693590
199  2023-11-30 15:02:07.739685
200  2023-11-30 15:02:07.786883
201  2023-11-30 15:02:07.816660
202  2023-11-30 15:02:07.863719
203  2023-11-30 15:02:07.910386
204  2023-11-30 15:02:07.941605
205  2023-11-30 15:02:07.987150
206  2023-11-30 15:02:08.032389
207  2023-11-30 15:02:08.064390
208  2023-11-30 15:02:08.112719
209  2023-11-30 15:02:08.159099
210  2023-11-30 15:02:08.190153
211  2023-11-30 15:02:08.236853
212  2023-11-30 15:02:08.284249
213  2023-11-30 15:02:08.315557
214  2023-11-30 15:02:08.362084
215  2023-11-30 15:02:08.407760
216  2023-11-30 15:02:08.439424
217  2023-11-30 15:02:08.485853
218  2023-11-30 15:02:08.532090
219  2023-11-30 15:02:08.579166
220  2023-11-30 15:02:08.610197
221  2023-11-30 15:02:08.657427
222  2023-11-30 15:02:08.689019
223  2023-11-30 15:02:08.735565
224  2023-11-30 15:02:08.782166
225  2023-11-30 15:02:08.828249
226  2023-11-30 15:02:08.859208
227  2023-11-30 15:02:08.905052
228  2023-11-30 15:02:08.951081
229  2023-11-30 15:02:08.981804
230  2023-11-30 15:02:09.028429
231  2023-11-30 15:02:09.075377
232  2023-11-30 15:02:09.106778
233  2023-11-30 15:02:09.153286
234  2023-11-30 15:02:09.201075
235  2023-11-30 15:02:09.231613
236  2023-11-30 15:02:09.279276
237  2023-11-30 15:02:09.326124
238  2023-11-30 15:02:09.357319
239  2023-11-30 15:02:09.404129
240  2023-11-30 15:02:09.451973
241  2023-11-30 15:02:09.482269
242  2023-11-30 15:02:09.528525
243  2023-11-30 15:02:09.575358
244  2023-11-30 15:02:09.605611
245  2023-11-30 15:02:09.652748
246  2023-11-30 15:02:09.698797
247  2023-11-30 15:02:09.745383
248  2023-11-30 15:02:09.776608
249  2023-11-30 15:02:09.823123
250  2023-11-30 15:02:09.869169
251  2023-11-30 15:02:09.901107
252  2023-11-30 15:02:09.949120
253  2023-11-30 15:02:09.995371
254  2023-11-30 15:02:10.026095
255  2023-11-30 15:02:10.071577
256  2023-11-30 15:02:10.119279
257  2023-11-30 15:02:10.149627
258  2023-11-30 15:02:10.196139
259  2023-11-30 15:02:10.243090
260  2023-11-30 15:02:10.274316
261  2023-11-30 15:02:10.321103
262  2023-11-30 15:02:10.368102
263  2023-11-30 15:02:10.401136
264  2023-11-30 15:02:10.447374
265  2023-11-30 15:02:10.495148
266  2023-11-30 15:02:10.528106
267  2023-11-30 15:02:10.572990
268  2023-11-30 15:02:10.618908
269  2023-11-30 15:02:10.650644
270  2023-11-30 15:02:10.696160
271  2023-11-30 15:02:10.742098
272  2023-11-30 15:02:10.772956
273  2023-11-30 15:02:10.820679
274  2023-11-30 15:02:10.867939
275  2023-11-30 15:02:10.898840
276  2023-11-30 15:02:10.946147
277  2023-11-30 15:02:10.993358
278  2023-11-30 15:02:11.024847
279  2023-11-30 15:02:11.071384
280  2023-11-30 15:02:11.118183
281  2023-11-30 15:02:11.149159
282  2023-11-30 15:02:11.194352
283  2023-11-30 15:02:11.241462
284  2023-11-30 15:02:11.286932
285  2023-11-30 15:02:11.318382
286  2023-11-30 15:02:11.366182
287  2023-11-30 15:02:11.412848
288  2023-11-30 15:02:11.443123
289  2023-11-30 15:02:11.488836
290  2023-11-30 15:02:11.536107
291  2023-11-30 15:02:11.565515
292  2023-11-30 15:02:11.613118
293  2023-11-30 15:02:11.661105
294  2023-11-30 15:02:11.693101
295  2023-11-30 15:02:11.741283
296  2023-11-30 15:02:11.773107
297  2023-11-30 15:02:11.820431
298  2023-11-30 15:02:11.866563
299  2023-11-30 15:02:11.898015
300  2023-11-30 15:02:11.943941
301  2023-11-30 15:02:11.990859
302  2023-11-30 15:02:12.036119
303  2023-11-30 15:02:12.066049
304  2023-11-30 15:02:12.113092
305  2023-11-30 15:02:12.161225
306  2023-11-30 15:02:12.191206
307  2023-11-30 15:02:12.238930
308  2023-11-30 15:02:12.287123
309  2023-11-30 15:02:12.319124
310  2023-11-30 15:02:12.365415
311  2023-11-30 15:02:12.412677
312  2023-11-30 15:02:12.444681
313  2023-11-30 15:02:12.491373
314  2023-11-30 15:02:12.523345
315  2023-11-30 15:02:12.568457
316  2023-11-30 15:02:12.614468
317  2023-11-30 15:02:12.660647
318  2023-11-30 15:02:12.691935
319  2023-11-30 15:02:12.737770
320  2023-11-30 15:02:12.786089
321  2023-11-30 15:02:12.817803
322  2023-11-30 15:02:12.864141
323  2023-11-30 15:02:12.911398
324  2023-11-30 15:02:12.942111
325  2023-11-30 15:02:12.989503
326  2023-11-30 15:02:13.037034
327  2023-11-30 15:02:13.068955
328  2023-11-30 15:02:13.115410
329  2023-11-30 15:02:13.162144
330  2023-11-30 15:02:13.193293
331  2023-11-30 15:02:13.240023
332  2023-11-30 15:02:13.285608
333  2023-11-30 15:02:13.317586
334  2023-11-30 15:02:13.364359
335  2023-11-30 15:02:13.410372
336  2023-11-30 15:02:13.441197
337  2023-11-30 15:02:13.487967
338  2023-11-30 15:02:13.535531
339  2023-11-30 15:02:13.567364
340  2023-11-30 15:02:13.615281
341  2023-11-30 15:02:13.661438
342  2023-11-30 15:02:13.692953
343  2023-11-30 15:02:13.740762
344  2023-11-30 15:02:13.786977
345  2023-11-30 15:02:13.818229
346  2023-11-30 15:02:13.864204
347  2023-11-30 15:02:13.910910
348  2023-11-30 15:02:13.942431
349  2023-11-30 15:02:13.988089
350  2023-11-30 15:02:14.034603
351  2023-11-30 15:02:14.065972
352  2023-11-30 15:02:14.112892
353  2023-11-30 15:02:14.159422
354  2023-11-30 15:02:14.191128
355  2023-11-30 15:02:14.238016
356  2023-11-30 15:02:14.285018
357  2023-11-30 15:02:14.316212
358  2023-11-30 15:02:14.364021
359  2023-11-30 15:02:14.410993
360  2023-11-30 15:02:14.442204
361  2023-11-30 15:02:14.487899
362  2023-11-30 15:02:14.533756
363  2023-11-30 15:02:14.563936
364  2023-11-30 15:02:14.611968
365  2023-11-30 15:02:14.658682
366  2023-11-30 15:02:14.690068
367  2023-11-30 15:02:14.736669
368  2023-11-30 15:02:14.783168
369  2023-11-30 15:02:14.815109
370  2023-11-30 15:02:14.862817
371  2023-11-30 15:02:14.909750
372  2023-11-30 15:02:14.940057
373  2023-11-30 15:02:14.985598
374  2023-11-30 15:02:15.032347
375  2023-11-30 15:02:15.077676
376  2023-11-30 15:02:15.109083
377  2023-11-30 15:02:15.155517
378  2023-11-30 15:02:15.202989
379  2023-11-30 15:02:15.234428
380  2023-11-30 15:02:15.280286
381  2023-11-30 15:02:15.327235
382  2023-11-30 15:02:15.359133
383  2023-11-30 15:02:15.405398
384  2023-11-30 15:02:15.452965
385  2023-11-30 15:02:15.483296
386  2023-11-30 15:02:15.529842
387  2023-11-30 15:02:15.576783
388  2023-11-30 15:02:15.608112
389  2023-11-30 15:02:15.653945
390  2023-11-30 15:02:15.701379
391  2023-11-30 15:02:15.732241
392  2023-11-30 15:02:15.778932
393  2023-11-30 15:02:15.825373
394  2023-11-30 15:02:15.857115
395  2023-11-30 15:02:15.903471
396  2023-11-30 15:02:15.951146
397  2023-11-30 15:02:15.983056
398  2023-11-30 15:02:16.030887
399  2023-11-30 15:02:16.077145
400  2023-11-30 15:02:16.107828
401  2023-11-30 15:02:16.153881
402  2023-11-30 15:02:16.201060
403  2023-11-30 15:02:16.231281
404  2023-11-30 15:02:16.278087
405  2023-11-30 15:02:16.324090
406  2023-11-30 15:02:16.370114
407  2023-11-30 15:02:16.402103
408  2023-11-30 15:02:16.448757
409  2023-11-30 15:02:16.496103
410  2023-11-30 15:02:16.526150
411  2023-11-30 15:02:16.575248
412  2023-11-30 15:02:16.621040
413  2023-11-30 15:02:16.652156
414  2023-11-30 15:02:16.699235
415  2023-11-30 15:02:16.745254
416  2023-11-30 15:02:16.777589
417  2023-11-30 15:02:16.824679
418  2023-11-30 15:02:16.856149
419  2023-11-30 15:02:16.902848
420  2023-11-30 15:02:16.948909
421  2023-11-30 15:02:16.995870
422  2023-11-30 15:02:17.027346
423  2023-11-30 15:02:17.074572
424  2023-11-30 15:02:17.105535
425  2023-11-30 15:02:17.152378
426  2023-11-30 15:02:17.199269
427  2023-11-30 15:02:17.245115
428  2023-11-30 15:02:17.275537
429  2023-11-30 15:02:17.323164
430  2023-11-30 15:02:17.369909
431  2023-11-30 15:02:17.401609
432  2023-11-30 15:02:17.448216
433  2023-11-30 15:02:17.494818
434  2023-11-30 15:02:17.527086
435  2023-11-30 15:02:17.573412
436  2023-11-30 15:02:17.620388
437  2023-11-30 15:02:17.651517
438  2023-11-30 15:02:17.699279
439  2023-11-30 15:02:17.746456
440  2023-11-30 15:02:17.777095
441  2023-11-30 15:02:17.824181
442  2023-11-30 15:02:17.870337
443  2023-11-30 15:02:17.902156
444  2023-11-30 15:02:17.950771
445  2023-11-30 15:02:17.981129
446  2023-11-30 15:02:18.028150
447  2023-11-30 15:02:18.074562
448  2023-11-30 15:02:18.105824
449  2023-11-30 15:02:18.153625
450  2023-11-30 15:02:18.200698
451  2023-11-30 15:02:18.231595
452  2023-11-30 15:02:18.277980
453  2023-11-30 15:02:18.324045
454  2023-11-30 15:02:18.370708
455  2023-11-30 15:02:18.402584
456  2023-11-30 15:02:18.449290
457  2023-11-30 15:02:18.481419
458  2023-11-30 15:02:18.527386
459  2023-11-30 15:02:18.574688
460  2023-11-30 15:02:18.606104
461  2023-11-30 15:02:18.652799
462  2023-11-30 15:02:18.699120
463  2023-11-30 15:02:18.745638
464  2023-11-30 15:02:18.776247
465  2023-11-30 15:02:18.823459
466  2023-11-30 15:02:18.869536
467  2023-11-30 15:02:18.900122
468  2023-11-30 15:02:18.948590
469  2023-11-30 15:02:18.994919
470  2023-11-30 15:02:19.026105
471  2023-11-30 15:02:19.073116
472  2023-11-30 15:02:19.119141
473  2023-11-30 15:02:19.151137
474  2023-11-30 15:02:19.198158
475  2023-11-30 15:02:19.245172
476  2023-11-30 15:02:19.274989
477  2023-11-30 15:02:19.321081
478  2023-11-30 15:02:19.367902
479  2023-11-30 15:02:19.399242
480  2023-11-30 15:02:19.445642
481  2023-11-30 15:02:19.492995
482  2023-11-30 15:02:19.524296
483  2023-11-30 15:02:19.570500
484  2023-11-30 15:02:19.617137
485  2023-11-30 15:02:19.648183
486  2023-11-30 15:02:19.695033
487  2023-11-30 15:02:19.742408
488  2023-11-30 15:02:19.774220
489  2023-11-30 15:02:19.821636
490  2023-11-30 15:02:19.867463
491  2023-11-30 15:02:19.899019
492  2023-11-30 15:02:19.945021
493  2023-11-30 15:02:19.991620
494  2023-11-30 15:02:20.023581
495  2023-11-30 15:02:20.071402
496  2023-11-30 15:02:20.119407
497  2023-11-30 15:02:20.149127
498  2023-11-30 15:02:20.195123
499  2023-11-30 15:02:20.242138
500  2023-11-30 15:02:20.274450
501  2023-11-30 15:02:20.320102
502  2023-11-30 15:02:20.366742
503  2023-11-30 15:02:20.398135
504  2023-11-30 15:02:20.445132
505  2023-11-30 15:02:20.492175
506  2023-11-30 15:02:20.524281
507  2023-11-30 15:02:20.571275
508  2023-11-30 15:02:20.618031
509  2023-11-30 15:02:20.649917
510  2023-11-30 15:02:20.696257
511  2023-11-30 15:02:20.742991
512  2023-11-30 15:02:20.774668
513  2023-11-30 15:02:20.821938
514  2023-11-30 15:02:20.868079
515  2023-11-30 15:02:20.900133
516  2023-11-30 15:02:20.947496
517  2023-11-30 15:02:20.994123
518  2023-11-30 15:02:21.025051
519  2023-11-30 15:02:21.072231
520  2023-11-30 15:02:21.119241
521  2023-11-30 15:02:21.151117
522  2023-11-30 15:02:21.195636
523  2023-11-30 15:02:21.243075
524  2023-11-30 15:02:21.273210
525  2023-11-30 15:02:21.320260
526  2023-11-30 15:02:21.367623
527  2023-11-30 15:02:21.399302
528  2023-11-30 15:02:21.444887
529  2023-11-30 15:02:21.491149
530  2023-11-30 15:02:21.522357
531  2023-11-30 15:02:21.568693
532  2023-11-30 15:02:21.615298
533  2023-11-30 15:02:21.647323
534  2023-11-30 15:02:21.694103
535  2023-11-30 15:02:21.740032
536  2023-11-30 15:02:21.787137
537  2023-11-30 15:02:21.817953
538  2023-11-30 15:02:21.864325
539  2023-11-30 15:02:21.911291
540  2023-11-30 15:02:21.941578
541  2023-11-30 15:02:21.987376
542  2023-11-30 15:02:22.034762
543  2023-11-30 15:02:22.065874
544  2023-11-30 15:02:22.112661
545  2023-11-30 15:02:22.159774
546  2023-11-30 15:02:22.191444
547  2023-11-30 15:02:22.238789
548  2023-11-30 15:02:22.285366
549  2023-11-30 15:02:22.317124
550  2023-11-30 15:02:22.362300
551  2023-11-30 15:02:22.407988
552  2023-11-30 15:02:22.454291
553  2023-11-30 15:02:22.485505
554  2023-11-30 15:02:22.533580
555  2023-11-30 15:02:22.564260
556  2023-11-30 15:02:22.610034
557  2023-11-30 15:02:22.657296
558  2023-11-30 15:02:22.689150
559  2023-11-30 15:02:22.737089
560  2023-11-30 15:02:22.783241
561  2023-11-30 15:02:22.814393
562  2023-11-30 15:02:22.862095
563  2023-11-30 15:02:22.907106
564  2023-11-30 15:02:22.953913
565  2023-11-30 15:02:22.985480
566  2023-11-30 15:02:23.032271
567  2023-11-30 15:02:23.078033
568  2023-11-30 15:02:23.109827
569  2023-11-30 15:02:23.156339
570  2023-11-30 15:02:23.203064
571  2023-11-30 15:02:23.234131
572  2023-11-30 15:02:23.281084
573  2023-11-30 15:02:23.328311
574  2023-11-30 15:02:23.359653
575  2023-11-30 15:02:23.406127
576  2023-11-30 15:02:23.453122
577  2023-11-30 15:02:23.484262
578  2023-11-30 15:02:23.532137
579  2023-11-30 15:02:23.578490
580  2023-11-30 15:02:23.609409
581  2023-11-30 15:02:23.655657
582  2023-11-30 15:02:23.702384
583  2023-11-30 15:02:23.733102
584  2023-11-30 15:02:23.781191
585  2023-11-30 15:02:23.829104
586  2023-11-30 15:02:23.861072
587  2023-11-30 15:02:23.908182
588  2023-11-30 15:02:23.938874
589  2023-11-30 15:02:23.987175
590  2023-11-30 15:02:24.033087
591  2023-11-30 15:02:24.065093
592  2023-11-30 15:02:24.111064
593  2023-11-30 15:02:24.159129
594  2023-11-30 15:02:24.189720
595  2023-11-30 15:02:24.236036
596  2023-11-30 15:02:24.282265
597  2023-11-30 15:02:24.329188
598  2023-11-30 15:02:24.360423
599  2023-11-30 15:02:24.406337
600  2023-11-30 15:02:24.453384
601  2023-11-30 15:02:24.484103
602  2023-11-30 15:02:24.530549
603  2023-11-30 15:02:24.577835
604  2023-11-30 15:02:24.609061
605  2023-11-30 15:02:24.655927
606  2023-11-30 15:02:24.703292
607  2023-11-30 15:02:24.735339
608  2023-11-30 15:02:24.783221
609  2023-11-30 15:02:24.814306
610  2023-11-30 15:02:24.863103
611  2023-11-30 15:02:24.908918
612  2023-11-30 15:02:24.940187
613  2023-11-30 15:02:24.987237
614  2023-11-30 15:02:25.033605
615  2023-11-30 15:02:25.064534
616  2023-11-30 15:02:25.110134
617  2023-11-30 15:02:25.156368
618  2023-11-30 15:02:25.204084
619  2023-11-30 15:02:25.235216
620  2023-11-30 15:02:25.281138
621  2023-11-30 15:02:25.327125
622  2023-11-30 15:02:25.358142
623  2023-11-30 15:02:25.405088
624  2023-11-30 15:02:25.451504
625  2023-11-30 15:02:25.483415
626  2023-11-30 15:02:25.529003
627  2023-11-30 15:02:25.575061
628  2023-11-30 15:02:25.606327
629  2023-11-30 15:02:25.653408
630  2023-11-30 15:02:25.699718
631  2023-11-30 15:02:25.731088
632  2023-11-30 15:02:25.777478
633  2023-11-30 15:02:25.824109
634  2023-11-30 15:02:25.870234
635  2023-11-30 15:02:25.901286
636  2023-11-30 15:02:25.947685
637  2023-11-30 15:02:25.993586
638  2023-11-30 15:02:26.024936
639  2023-11-30 15:02:26.072254
640  2023-11-30 15:02:26.119630
641  2023-11-30 15:02:26.150554
642  2023-11-30 15:02:26.197309
643  2023-11-30 15:02:26.244514
644  2023-11-30 15:02:26.276033
645  2023-11-30 15:02:26.323515
646  2023-11-30 15:02:26.370085
647  2023-11-30 15:02:26.402084
648  2023-11-30 15:02:26.448125
649  2023-11-30 15:02:26.493092
650  2023-11-30 15:02:26.524556
651  2023-11-30 15:02:26.572260
652  2023-11-30 15:02:26.618765
653  2023-11-30 15:02:26.649652
654  2023-11-30 15:02:26.696182
655  2023-11-30 15:02:26.743115
656  2023-11-30 15:02:26.774154
657  2023-11-30 15:02:26.820635
658  2023-11-30 15:02:26.867060
659  2023-11-30 15:02:26.899119
660  2023-11-30 15:02:26.946268
661  2023-11-30 15:02:26.993306
662  2023-11-30 15:02:27.023135
663  2023-11-30 15:02:27.071188
664  2023-11-30 15:02:27.118200
665  2023-11-30 15:02:27.150255
666  2023-11-30 15:02:27.197385
667  2023-11-30 15:02:27.243876
668  2023-11-30 15:02:27.274713
669  2023-11-30 15:02:27.320665
670  2023-11-30 15:02:27.367318
671  2023-11-30 15:02:27.398777
672  2023-11-30 15:02:27.444501
673  2023-11-30 15:02:27.492281
674  2023-11-30 15:02:27.523395
675  2023-11-30 15:02:27.571078
676  2023-11-30 15:02:27.615858
677  2023-11-30 15:02:27.647253
678  2023-11-30 15:02:27.694444
679  2023-11-30 15:02:27.742175
680  2023-11-30 15:02:27.772996
681  2023-11-30 15:02:27.819519
682  2023-11-30 15:02:27.865945
683  2023-11-30 15:02:27.911634
684  2023-11-30 15:02:27.943521
685  2023-11-30 15:02:27.990258
686  2023-11-30 15:02:28.036079
687  2023-11-30 15:02:28.067834
688  2023-11-30 15:02:28.113380
689  2023-11-30 15:02:28.160855
690  2023-11-30 15:02:28.192900
691  2023-11-30 15:02:28.240773
692  2023-11-30 15:02:28.287046
693  2023-11-30 15:02:28.318203
694  2023-11-30 15:02:28.365116
695  2023-11-30 15:02:28.412230
696  2023-11-30 15:02:28.442799
697  2023-11-30 15:02:28.488625
698  2023-11-30 15:02:28.534731
699  2023-11-30 15:02:28.565910
700  2023-11-30 15:02:28.612512
701  2023-11-30 15:02:28.659287
702  2023-11-30 15:02:28.691207
703  2023-11-30 15:02:28.738617
704  2023-11-30 15:02:28.785129
705  2023-11-30 15:02:28.816279
706  2023-11-30 15:02:28.863698
707  2023-11-30 15:02:28.908970
708  2023-11-30 15:02:28.940073
709  2023-11-30 15:02:28.987578
710  2023-11-30 15:02:29.033841
711  2023-11-30 15:02:29.064700
712  2023-11-30 15:02:29.110440
713  2023-11-30 15:02:29.157176
714  2023-11-30 15:02:29.189723
715  2023-11-30 15:02:29.237073
716  2023-11-30 15:02:29.283496
717  2023-11-30 15:02:29.314105
718  2023-11-30 15:02:29.360222
719  2023-11-30 15:02:29.407045
720  2023-11-30 15:02:29.439112
721  2023-11-30 15:02:29.487133
722  2023-11-30 15:02:29.533931
723  2023-11-30 15:02:29.578686
724  2023-11-30 15:02:29.609920
725  2023-11-30 15:02:29.656105
726  2023-11-30 15:02:29.702808
727  2023-11-30 15:02:29.734151
728  2023-11-30 15:02:29.779623
729  2023-11-30 15:02:29.826694
730  2023-11-30 15:02:29.857636
731  2023-11-30 15:02:29.905013
732  2023-11-30 15:02:29.951949
733  2023-11-30 15:02:29.982993
734  2023-11-30 15:02:30.031096
735  2023-11-30 15:02:30.076682
736  2023-11-30 15:02:30.109090
737  2023-11-30 15:02:30.154505
738  2023-11-30 15:02:30.200583
739  2023-11-30 15:02:30.230945
740  2023-11-30 15:02:30.277561
741  2023-11-30 15:02:30.323451
742  2023-11-30 15:02:30.370501
743  2023-11-30 15:02:30.401375
744  2023-11-30 15:02:30.448116
745  2023-11-30 15:02:30.495866
746  2023-11-30 15:02:30.526650
747  2023-11-30 15:02:30.573406
748  2023-11-30 15:02:30.620645
749  2023-11-30 15:02:30.652045
750  2023-11-30 15:02:30.698315
751  2023-11-30 15:02:30.744905
752  2023-11-30 15:02:30.775431
753  2023-11-30 15:02:30.820940
754  2023-11-30 15:02:30.866830
755  2023-11-30 15:02:30.898408
756  2023-11-30 15:02:30.945525
757  2023-11-30 15:02:30.992397
758  2023-11-30 15:02:31.024233
759  2023-11-30 15:02:31.071928
760  2023-11-30 15:02:31.118149
761  2023-11-30 15:02:31.150824
762  2023-11-30 15:02:31.197164
763  2023-11-30 15:02:31.243676
764  2023-11-30 15:02:31.275000
765  2023-11-30 15:02:31.321142
766  2023-11-30 15:02:31.367738
767  2023-11-30 15:02:31.399191
768  2023-11-30 15:02:31.445126
769  2023-11-30 15:02:31.492292
770  2023-11-30 15:02:31.523392
771  2023-11-30 15:02:31.570437
772  2023-11-30 15:02:31.616876
773  2023-11-30 15:02:31.647767
774  2023-11-30 15:02:31.694987
775  2023-11-30 15:02:31.743078
776  2023-11-30 15:02:31.773121
777  2023-11-30 15:02:31.820329
778  2023-11-30 15:02:31.866355
779  2023-11-30 15:02:31.911960
780  2023-11-30 15:02:31.943205
781  2023-11-30 15:02:31.988774
782  2023-11-30 15:02:32.036644
783  2023-11-30 15:02:32.068054
784  2023-11-30 15:02:32.114221
785  2023-11-30 15:02:32.161276
786  2023-11-30 15:02:32.192357
787  2023-11-30 15:02:32.238814
788  2023-11-30 15:02:32.286093
789  2023-11-30 15:02:32.316923
790  2023-11-30 15:02:32.364166
791  2023-11-30 15:02:32.410544
792  2023-11-30 15:02:32.440861
793  2023-11-30 15:02:32.486547
794  2023-11-30 15:02:32.533181
795  2023-11-30 15:02:32.578491
796  2023-11-30 15:02:32.609673
797  2023-11-30 15:02:32.656339
798  2023-11-30 15:02:32.703551
799  2023-11-30 15:02:32.734601
800  2023-11-30 15:02:32.782406
801  2023-11-30 15:02:32.813943
802  2023-11-30 15:02:32.861686
803  2023-11-30 15:02:32.908913
804  2023-11-30 15:02:32.940186
805  2023-11-30 15:02:32.985865
806  2023-11-30 15:02:33.032313
807  2023-11-30 15:02:33.078304
808  2023-11-30 15:02:33.108953
809  2023-11-30 15:02:33.156239
810  2023-11-30 15:02:33.202489
811  2023-11-30 15:02:33.233242
812  2023-11-30 15:02:33.280060
813  2023-11-30 15:02:33.327397
814  2023-11-30 15:02:33.359249
815  2023-11-30 15:02:33.405060
816  2023-11-30 15:02:33.451783
817  2023-11-30 15:02:33.482079
818  2023-11-30 15:02:33.529179
819  2023-11-30 15:02:33.575706
820  2023-11-30 15:02:33.607167
821  2023-11-30 15:02:33.652368
822  2023-11-30 15:02:33.699618
823  2023-11-30 15:02:33.730713
824  2023-11-30 15:02:33.777891
825  2023-11-30 15:02:33.824621
826  2023-11-30 15:02:33.855931
827  2023-11-30 15:02:33.903977
828  2023-11-30 15:02:33.949606
829  2023-11-30 15:02:33.981427
830  2023-11-30 15:02:34.027866
831  2023-11-30 15:02:34.076833
832  2023-11-30 15:02:34.108695
833  2023-11-30 15:02:34.155234
834  2023-11-30 15:02:34.202231
835  2023-11-30 15:02:34.234223
836  2023-11-30 15:02:34.280940
837  2023-11-30 15:02:34.326803
838  2023-11-30 15:02:34.357344
839  2023-11-30 15:02:34.405602
840  2023-11-30 15:02:34.451486
841  2023-11-30 15:02:34.482743
842  2023-11-30 15:02:34.528076
843  2023-11-30 15:02:34.575897
844  2023-11-30 15:02:34.606855
845  2023-11-30 15:02:34.653225
846  2023-11-30 15:02:34.699885
847  2023-11-30 15:02:34.732863
848  2023-11-30 15:02:34.779167
849  2023-11-30 15:02:34.826998
850  2023-11-30 15:02:34.857303
851  2023-11-30 15:02:34.903078
852  2023-11-30 15:02:34.949402
853  2023-11-30 15:02:34.995124
854  2023-11-30 15:02:35.026292
855  2023-11-30 15:02:35.073718
856  2023-11-30 15:02:35.119792
857  2023-11-30 15:02:35.151240
858  2023-11-30 15:02:35.199128
859  2023-11-30 15:02:35.244198
860  2023-11-30 15:02:35.275653
861  2023-11-30 15:02:35.322959
862  2023-11-30 15:02:35.370365
863  2023-11-30 15:02:35.401514
864  2023-11-30 15:02:35.449583
865  2023-11-30 15:02:35.494555
866  2023-11-30 15:02:35.524636
867  2023-11-30 15:02:35.572087
868  2023-11-30 15:02:35.619099
869  2023-11-30 15:02:35.649274
870  2023-11-30 15:02:35.696033
871  2023-11-30 15:02:35.741410
872  2023-11-30 15:02:35.772399
873  2023-11-30 15:02:35.820582
874  2023-11-30 15:02:35.867792
875  2023-11-30 15:02:35.899129
876  2023-11-30 15:02:35.946040
877  2023-11-30 15:02:35.993520
878  2023-11-30 15:02:36.023611
879  2023-11-30 15:02:36.070401
880  2023-11-30 15:02:36.116250
881  2023-11-30 15:02:36.161905
882  2023-11-30 15:02:36.193167
883  2023-11-30 15:02:36.241082
884  2023-11-30 15:02:36.272827
885  2023-11-30 15:02:36.319405
886  2023-11-30 15:02:36.367024
887  2023-11-30 15:02:36.397458
888  2023-11-30 15:02:36.443624
889  2023-11-30 15:02:36.490674
890  2023-11-30 15:02:36.536148
891  2023-11-30 15:02:36.566618
892  2023-11-30 15:02:36.613003
893  2023-11-30 15:02:36.660144
894  2023-11-30 15:02:36.690575
895  2023-11-30 15:02:36.737601
896  2023-11-30 15:02:36.783365
897  2023-11-30 15:02:36.814120
898  2023-11-30 15:02:36.862309
899  2023-11-30 15:02:36.908107
900  2023-11-30 15:02:36.940312
901  2023-11-30 15:02:36.986690
902  2023-11-30 15:02:37.032939
903  2023-11-30 15:02:37.063844
904  2023-11-30 15:02:37.110245
905  2023-11-30 15:02:37.157285
906  2023-11-30 15:02:37.189238
907  2023-11-30 15:02:37.236060
908  2023-11-30 15:02:37.281405
909  2023-11-30 15:02:37.328371
910  2023-11-30 15:02:37.360093
911  2023-11-30 15:02:37.406862
912  2023-11-30 15:02:37.453990
913  2023-11-30 15:02:37.485692
914  2023-11-30 15:02:37.534148
915  2023-11-30 15:02:37.563997
916  2023-11-30 15:02:37.610319
917  2023-11-30 15:02:37.657758
918  2023-11-30 15:02:37.703228
919  2023-11-30 15:02:37.734082
920  2023-11-30 15:02:37.780546
921  2023-11-30 15:02:37.826761
922  2023-11-30 15:02:37.857584
923  2023-11-30 15:02:37.903018
924  2023-11-30 15:02:37.949285
925  2023-11-30 15:02:37.995592
926  2023-11-30 15:02:38.026548
927  2023-11-30 15:02:38.074225
928  2023-11-30 15:02:38.120310
929  2023-11-30 15:02:38.152399
930  2023-11-30 15:02:38.201235
931  2023-11-30 15:02:38.232259
932  2023-11-30 15:02:38.280148
933  2023-11-30 15:02:38.327686
934  2023-11-30 15:02:38.357143
935  2023-11-30 15:02:38.403092
936  2023-11-30 15:02:38.449692
937  2023-11-30 15:02:38.481840
938  2023-11-30 15:02:38.528081
939  2023-11-30 15:02:38.575262
940  2023-11-30 15:02:38.607374
941  2023-11-30 15:02:38.654284
942  2023-11-30 15:02:38.699963
943  2023-11-30 15:02:38.731028
944  2023-11-30 15:02:38.778578
945  2023-11-30 15:02:38.824583
946  2023-11-30 15:02:38.856358
947  2023-11-30 15:02:38.903984
948  2023-11-30 15:02:38.949550
949  2023-11-30 15:02:38.980882
950  2023-11-30 15:02:39.028149
951  2023-11-30 15:02:39.073065
952  2023-11-30 15:02:39.121015
953  2023-11-30 15:02:39.152193
954  2023-11-30 15:02:39.199133
955  2023-11-30 15:02:39.245585
956  2023-11-30 15:02:39.276742
957  2023-11-30 15:02:39.322933
958  2023-11-30 15:02:39.369980
959  2023-11-30 15:02:39.401850
960  2023-11-30 15:02:39.448200
961  2023-11-30 15:02:39.495154
962  2023-11-30 15:02:39.526199
963  2023-11-30 15:02:39.572546
964  2023-11-30 15:02:39.618480
965  2023-11-30 15:02:39.649428
966  2023-11-30 15:02:39.696131
967  2023-11-30 15:02:39.743096
968  2023-11-30 15:02:39.775148
969  2023-11-30 15:02:39.822123
970  2023-11-30 15:02:39.868141
971  2023-11-30 15:02:39.898671
972  2023-11-30 15:02:39.945895
973  2023-11-30 15:02:39.994152
974  2023-11-30 15:02:40.024734
975  2023-11-30 15:02:40.071043
976  2023-11-30 15:02:40.116913
977  2023-11-30 15:02:40.148930
978  2023-11-30 15:02:40.197235
979  2023-11-30 15:02:40.243140
980  2023-11-30 15:02:40.274081
981  2023-11-30 15:02:40.319872
982  2023-11-30 15:02:40.367022
983  2023-11-30 15:02:40.397986
984  2023-11-30 15:02:40.444264
985  2023-11-30 15:02:40.490363
986  2023-11-30 15:02:40.536239
987  2023-11-30 15:02:40.568235
988  2023-11-30 15:02:40.615681
989  2023-11-30 15:02:40.661781
990  2023-11-30 15:02:40.693837
991  2023-11-30 15:02:40.741893
992  2023-11-30 15:02:40.774072
993  2023-11-30 15:02:40.819939
994  2023-11-30 15:02:40.866440
995  2023-11-30 15:02:40.912313
996  2023-11-30 15:02:40.943641
997  2023-11-30 15:02:40.990234
998  2023-11-30 15:02:41.036118
999  2023-11-30 15:02:41.066870
1000  2023-11-30 15:02:41.113230
1001  2023-11-30 15:02:41.160243
1002  2023-11-30 15:02:41.190756
1003  2023-11-30 15:02:41.237468
1004  2023-11-30 15:02:41.284251
1005  2023-11-30 15:02:41.316246
1006  2023-11-30 15:02:41.362766
1007  2023-11-30 15:02:41.408474
1008  2023-11-30 15:02:41.439973
1009  2023-11-30 15:02:41.485488
1010  2023-11-30 15:02:41.533088
1011  2023-11-30 15:02:41.565268
1012  2023-11-30 15:02:41.613171
1013  2023-11-30 15:02:41.659512
1014  2023-11-30 15:02:41.689684
1015  2023-11-30 15:02:41.736250
1016  2023-11-30 15:02:41.782108
1017  2023-11-30 15:02:41.814023
1018  2023-11-30 15:02:41.861173
1019  2023-11-30 15:02:41.908074
1020  2023-11-30 15:02:41.953578
1021  2023-11-30 15:02:41.984201
1022  2023-11-30 15:02:42.032185
1023  2023-11-30 15:02:42.077755
1024  2023-11-30 15:02:42.108842
1025  2023-11-30 15:02:42.155687
1026  2023-11-30 15:02:42.202837
1027  2023-11-30 15:02:42.232802
1028  2023-11-30 15:02:42.279054
1029  2023-11-30 15:02:42.326019
1030  2023-11-30 15:02:42.357934
1031  2023-11-30 15:02:42.405108
1032  2023-11-30 15:02:42.452085
1033  2023-11-30 15:02:42.482196
1034  2023-11-30 15:02:42.528073
1035  2023-11-30 15:02:42.575116
1036  2023-11-30 15:02:42.606489
1037  2023-11-30 15:02:42.653403
1038  2023-11-30 15:02:42.701085
1039  2023-11-30 15:02:42.733102
1040  2023-11-30 15:02:42.779722
1041  2023-11-30 15:02:42.825932
1042  2023-11-30 15:02:42.856774
1043  2023-11-30 15:02:42.904577
1044  2023-11-30 15:02:42.950689
1045  2023-11-30 15:02:42.981906
1046  2023-11-30 15:02:43.030195
1047  2023-11-30 15:02:43.074065
1048  2023-11-30 15:02:43.120125
1049  2023-11-30 15:02:43.151316
1050  2023-11-30 15:02:43.198074
1051  2023-11-30 15:02:43.245506
1052  2023-11-30 15:02:43.276149
1053  2023-11-30 15:02:43.322375
1054  2023-11-30 15:02:43.368653
1055  2023-11-30 15:02:43.400051
1056  2023-11-30 15:02:43.448094
1057  2023-11-30 15:02:43.494666
1058  2023-11-30 15:02:43.525538
1059  2023-11-30 15:02:43.572052
1060  2023-11-30 15:02:43.619599
1061  2023-11-30 15:02:43.651330
1062  2023-11-30 15:02:43.699287
1063  2023-11-30 15:02:43.746030
1064  2023-11-30 15:02:43.776960
1065  2023-11-30 15:02:43.824209
1066  2023-11-30 15:02:43.870918
1067  2023-11-30 15:02:43.901310
1068  2023-11-30 15:02:43.946978
1069  2023-11-30 15:02:43.994056
1070  2023-11-30 15:02:44.025642
1071  2023-11-30 15:02:44.072073
1072  2023-11-30 15:02:44.118489
1073  2023-11-30 15:02:44.149533
1074  2023-11-30 15:02:44.196228
1075  2023-11-30 15:02:44.243105
1076  2023-11-30 15:02:44.274074
1077  2023-11-30 15:02:44.319875
1078  2023-11-30 15:02:44.366351
1079  2023-11-30 15:02:44.398101
1080  2023-11-30 15:02:44.443914
1081  2023-11-30 15:02:44.490089
1082  2023-11-30 15:02:44.536756
1083  2023-11-30 15:02:44.567378
1084  2023-11-30 15:02:44.614170
1085  2023-11-30 15:02:44.661446
1086  2023-11-30 15:02:44.692768
1087  2023-11-30 15:02:44.741082
1088  2023-11-30 15:02:44.786836
1089  2023-11-30 15:02:44.819433
1090  2023-11-30 15:02:44.866058
1091  2023-11-30 15:02:44.913308
1092  2023-11-30 15:02:44.945435
1093  2023-11-30 15:02:44.991136
1094  2023-11-30 15:02:45.037070
1095  2023-11-30 15:02:45.068987
1096  2023-11-30 15:02:45.117262
1097  2023-11-30 15:02:45.148326
1098  2023-11-30 15:02:45.194302
1099  2023-11-30 15:02:45.240555
1100  2023-11-30 15:02:45.286333
1101  2023-11-30 15:02:45.316843
1102  2023-11-30 15:02:45.364401
1103  2023-11-30 15:02:45.411243
1104  2023-11-30 15:02:45.443106
1105  2023-11-30 15:02:45.489837
1106  2023-11-30 15:02:45.536371
1107  2023-11-30 15:02:45.568059
1108  2023-11-30 15:02:45.613879
1109  2023-11-30 15:02:45.660120
1110  2023-11-30 15:02:45.691710
1111  2023-11-30 15:02:45.737891
1112  2023-11-30 15:02:45.784551
1113  2023-11-30 15:02:45.815563
1114  2023-11-30 15:02:45.862105
1115  2023-11-30 15:02:45.908213
1116  2023-11-30 15:02:45.940295
1117  2023-11-30 15:02:45.985450
1118  2023-11-30 15:02:46.034029
1119  2023-11-30 15:02:46.077739
1120  2023-11-30 15:02:46.109065
1121  2023-11-30 15:02:46.156988
1122  2023-11-30 15:02:46.203331
1123  2023-11-30 15:02:46.235439
1124  2023-11-30 15:02:46.281744
1125  2023-11-30 15:02:46.327501
1126  2023-11-30 15:02:46.359493
1127  2023-11-30 15:02:46.405933
1128  2023-11-30 15:02:46.453035
1129  2023-11-30 15:02:46.484529
1130  2023-11-30 15:02:46.531736
1131  2023-11-30 15:02:46.577392
1132  2023-11-30 15:02:46.609627
1133  2023-11-30 15:02:46.654648
1134  2023-11-30 15:02:46.703384
1135  2023-11-30 15:02:46.733145
1136  2023-11-30 15:02:46.778877
1137  2023-11-30 15:02:46.825790
1138  2023-11-30 15:02:46.856998
1139  2023-11-30 15:02:46.903429
1140  2023-11-30 15:02:46.949799
1141  2023-11-30 15:02:46.995810
1142  2023-11-30 15:02:47.026726
1143  2023-11-30 15:02:47.073234
1144  2023-11-30 15:02:47.120214
1145  2023-11-30 15:02:47.150291
1146  2023-11-30 15:02:47.197595
1147  2023-11-30 15:02:47.244180
1148  2023-11-30 15:02:47.276207
1149  2023-11-30 15:02:47.322287
1150  2023-11-30 15:02:47.369101
1151  2023-11-30 15:02:47.400620
1152  2023-11-30 15:02:47.447430
1153  2023-11-30 15:02:47.493028
1154  2023-11-30 15:02:47.524096
1155  2023-11-30 15:02:47.570055
1156  2023-11-30 15:02:47.615980
1157  2023-11-30 15:02:47.663108
1158  2023-11-30 15:02:47.693078
1159  2023-11-30 15:02:47.740104
1160  2023-11-30 15:02:47.786995
1161  2023-11-30 15:02:47.818352
1162  2023-11-30 15:02:47.865614
1163  2023-11-30 15:02:47.912477
1164  2023-11-30 15:02:47.943521
1165  2023-11-30 15:02:47.989630
1166  2023-11-30 15:02:48.038041
1167  2023-11-30 15:02:48.068061
1168  2023-11-30 15:02:48.115333
1169  2023-11-30 15:02:48.161866
1170  2023-11-30 15:02:48.192717
1171  2023-11-30 15:02:48.240548
1172  2023-11-30 15:02:48.287079
1173  2023-11-30 15:02:48.317144
1174  2023-11-30 15:02:48.363547
1175  2023-11-30 15:02:48.410525
1176  2023-11-30 15:02:48.442582
1177  2023-11-30 15:02:48.488376
1178  2023-11-30 15:02:48.536077
1179  2023-11-30 15:02:48.567394
1180  2023-11-30 15:02:48.613803
1181  2023-11-30 15:02:48.659376
1182  2023-11-30 15:02:48.690546
1183  2023-11-30 15:02:48.738090
1184  2023-11-30 15:02:48.784107
1185  2023-11-30 15:02:48.816106
1186  2023-11-30 15:02:48.863788
1187  2023-11-30 15:02:48.910334
1188  2023-11-30 15:02:48.942270
1189  2023-11-30 15:02:48.988091
1190  2023-11-30 15:02:49.033852
1191  2023-11-30 15:02:49.065458
1192  2023-11-30 15:02:49.111503
1193  2023-11-30 15:02:49.158052
1194  2023-11-30 15:02:49.189308
1195  2023-11-30 15:02:49.237211
1196  2023-11-30 15:02:49.283785
1197  2023-11-30 15:02:49.315313
1198  2023-11-30 15:02:49.362026
1199  2023-11-30 15:02:49.409364
1200  2023-11-30 15:02:49.440428
1201  2023-11-30 15:02:49.487609
1202  2023-11-30 15:02:49.535550
1203  2023-11-30 15:02:49.566342
1204  2023-11-30 15:02:49.613237
1205  2023-11-30 15:02:49.659849
1206  2023-11-30 15:02:49.691368
1207  2023-11-30 15:02:49.737766
1208  2023-11-30 15:02:49.783501
1209  2023-11-30 15:02:49.814160
1210  2023-11-30 15:02:49.860856
1211  2023-11-30 15:02:49.907236
1212  2023-11-30 15:02:49.953207
1213  2023-11-30 15:02:49.985131
1214  2023-11-30 15:02:50.032959
1215  2023-11-30 15:02:50.064878
1216  2023-11-30 15:02:50.112188
1217  2023-11-30 15:02:50.159064
1218  2023-11-30 15:02:50.190978
1219  2023-11-30 15:02:50.238008
1220  2023-11-30 15:02:50.284555
1221  2023-11-30 15:02:50.317098
1222  2023-11-30 15:02:50.362653
1223  2023-11-30 15:02:50.408360
1224  2023-11-30 15:02:50.439934
1225  2023-11-30 15:02:50.488113
1226  2023-11-30 15:02:50.534547
1227  2023-11-30 15:02:50.564727
1228  2023-11-30 15:02:50.611567
1229  2023-11-30 15:02:50.657283
1230  2023-11-30 15:02:50.705054
1231  2023-11-30 15:02:50.736147
1232  2023-11-30 15:02:50.783027
1233  2023-11-30 15:02:50.814599
1234  2023-11-30 15:02:50.861052
1235  2023-11-30 15:02:50.908492
1236  2023-11-30 15:02:50.953447
1237  2023-11-30 15:02:50.984446
1238  2023-11-30 15:02:51.030826
1239  2023-11-30 15:02:51.078244
1240  2023-11-30 15:02:51.109647
1241  2023-11-30 15:02:51.155935
1242  2023-11-30 15:02:51.201047
1243  2023-11-30 15:02:51.232049
1244  2023-11-30 15:02:51.278148
1245  2023-11-30 15:02:51.325965
1246  2023-11-30 15:02:51.357755
1247  2023-11-30 15:02:51.404657
1248  2023-11-30 15:02:51.451966
1249  2023-11-30 15:02:51.481693
1250  2023-11-30 15:02:51.528323
1251  2023-11-30 15:02:51.574818
1252  2023-11-30 15:02:51.606213
1253  2023-11-30 15:02:51.652621
1254  2023-11-30 15:02:51.698259
1255  2023-11-30 15:02:51.745731
1256  2023-11-30 15:02:51.775657
1257  2023-11-30 15:02:51.821551
1258  2023-11-30 15:02:51.869217
1259  2023-11-30 15:02:51.901333
1260  2023-11-30 15:02:51.946321
1261  2023-11-30 15:02:51.993685
1262  2023-11-30 15:02:52.024128
1263  2023-11-30 15:02:52.070040
1264  2023-11-30 15:02:52.117083
1265  2023-11-30 15:02:52.147982
1266  2023-11-30 15:02:52.194735
1267  2023-11-30 15:02:52.240924
1268  2023-11-30 15:02:52.287184
1269  2023-11-30 15:02:52.318652
1270  2023-11-30 15:02:52.366835
1271  2023-11-30 15:02:52.399108
1272  2023-11-30 15:02:52.444129
1273  2023-11-30 15:02:52.491734
1274  2023-11-30 15:02:52.523229
1275  2023-11-30 15:02:52.568753
1276  2023-11-30 15:02:52.615234
1277  2023-11-30 15:02:52.647198
1278  2023-11-30 15:02:52.693635
1279  2023-11-30 15:02:52.739538
1280  2023-11-30 15:02:52.785629
1281  2023-11-30 15:02:52.816715
1282  2023-11-30 15:02:52.863651
1283  2023-11-30 15:02:52.909746
1284  2023-11-30 15:02:52.940357
1285  2023-11-30 15:02:52.988523
1286  2023-11-30 15:02:53.035259
1287  2023-11-30 15:02:53.067543
1288  2023-11-30 15:02:53.112937
1289  2023-11-30 15:02:53.160147
1290  2023-11-30 15:02:53.191193
1291  2023-11-30 15:02:53.238052
1292  2023-11-30 15:02:53.285428
1293  2023-11-30 15:02:53.315892
1294  2023-11-30 15:02:53.362191
1295  2023-11-30 15:02:53.408208
1296  2023-11-30 15:02:53.438912
1297  2023-11-30 15:02:53.486181
1298  2023-11-30 15:02:53.533850
1299  2023-11-30 15:02:53.578803
1300  2023-11-30 15:02:53.610821
1301  2023-11-30 15:02:53.658757
1302  2023-11-30 15:02:53.690435
1303  2023-11-30 15:02:53.737789
1304  2023-11-30 15:02:53.783460
1305  2023-11-30 15:02:53.814051
1306  2023-11-30 15:02:53.861724
1307  2023-11-30 15:02:53.907819
1308  2023-11-30 15:02:53.953667
1309  2023-11-30 15:02:53.984697
1310  2023-11-30 15:02:54.030705
1311  2023-11-30 15:02:54.077481
1312  2023-11-30 15:02:54.107606
1313  2023-11-30 15:02:54.154445
1314  2023-11-30 15:02:54.203571
1315  2023-11-30 15:02:54.234667
1316  2023-11-30 15:02:54.282245
1317  2023-11-30 15:02:54.328268
1318  2023-11-30 15:02:54.359948
1319  2023-11-30 15:02:54.406045
1320  2023-11-30 15:02:54.452480
1321  2023-11-30 15:02:54.483153
1322  2023-11-30 15:02:54.529147
1323  2023-11-30 15:02:54.576228
1324  2023-11-30 15:02:54.606485
1325  2023-11-30 15:02:54.652811
1326  2023-11-30 15:02:54.700066
1327  2023-11-30 15:02:54.732164
1328  2023-11-30 15:02:54.777714
1329  2023-11-30 15:02:54.824473
1330  2023-11-30 15:02:54.855801
1331  2023-11-30 15:02:54.902162
1332  2023-11-30 15:02:54.948723
1333  2023-11-30 15:02:54.994722
1334  2023-11-30 15:02:55.025914
1335  2023-11-30 15:02:55.073985
1336  2023-11-30 15:02:55.120271
1337  2023-11-30 15:02:55.151179
1338  2023-11-30 15:02:55.198088
1339  2023-11-30 15:02:55.244718
1340  2023-11-30 15:02:55.275680
1341  2023-11-30 15:02:55.323196
1342  2023-11-30 15:02:55.370102
1343  2023-11-30 15:02:55.401354
1344  2023-11-30 15:02:55.448333
1345  2023-11-30 15:02:55.493130
1346  2023-11-30 15:02:55.523634
1347  2023-11-30 15:02:55.569934
1348  2023-11-30 15:02:55.616253
1349  2023-11-30 15:02:55.661893
1350  2023-11-30 15:02:55.693415
1351  2023-11-30 15:02:55.740232
1352  2023-11-30 15:02:55.786865
1353  2023-11-30 15:02:55.818768
1354  2023-11-30 15:02:55.865073
1355  2023-11-30 15:02:55.911847
1356  2023-11-30 15:02:55.943186
1357  2023-11-30 15:02:55.989654
1358  2023-11-30 15:02:56.035714
1359  2023-11-30 15:02:56.066903
1360  2023-11-30 15:02:56.113076
1361  2023-11-30 15:02:56.159822
1362  2023-11-30 15:02:56.191266
1363  2023-11-30 15:02:56.237149
1364  2023-11-30 15:02:56.283698
1365  2023-11-30 15:02:56.314437
1366  2023-11-30 15:02:56.362975
1367  2023-11-30 15:02:56.409571
1368  2023-11-30 15:02:56.440069
1369  2023-11-30 15:02:56.486788
1370  2023-11-30 15:02:56.534161
1371  2023-11-30 15:02:56.564381
1372  2023-11-30 15:02:56.609890
1373  2023-11-30 15:02:56.655486
1374  2023-11-30 15:02:56.702939
1375  2023-11-30 15:02:56.734060
1376  2023-11-30 15:02:56.780275
1377  2023-11-30 15:02:56.827442
1378  2023-11-30 15:02:56.859155
1379  2023-11-30 15:02:56.905407
1380  2023-11-30 15:02:56.952875
1381  2023-11-30 15:02:56.984162
1382  2023-11-30 15:02:57.030820
1383  2023-11-30 15:02:57.076906
1384  2023-11-30 15:02:57.107596
1385  2023-11-30 15:02:57.154780
1386  2023-11-30 15:02:57.201134
1387  2023-11-30 15:02:57.232840
1388  2023-11-30 15:02:57.279124
1389  2023-11-30 15:02:57.326083
1390  2023-11-30 15:02:57.357360
1391  2023-11-30 15:02:57.403831
1392  2023-11-30 15:02:57.449918
1393  2023-11-30 15:02:57.481170
1394  2023-11-30 15:02:57.529131
1395  2023-11-30 15:02:57.575713
1396  2023-11-30 15:02:57.606393
1397  2023-11-30 15:02:57.653135
1398  2023-11-30 15:02:57.699720
1399  2023-11-30 15:02:57.730689
1400  2023-11-30 15:02:57.777434
1401  2023-11-30 15:02:57.823067
1402  2023-11-30 15:02:57.870057
1403  2023-11-30 15:02:57.903050
1404  2023-11-30 15:02:57.949093
1405  2023-11-30 15:02:57.995255
1406  2023-11-30 15:02:58.026840
1407  2023-11-30 15:02:58.073727
1408  2023-11-30 15:02:58.120956
1409  2023-11-30 15:02:58.152050
1410  2023-11-30 15:02:58.199100
1411  2023-11-30 15:02:58.231110
1412  2023-11-30 15:02:58.278951
1413  2023-11-30 15:02:58.326975
1414  2023-11-30 15:02:58.358973
1415  2023-11-30 15:02:58.405900
1416  2023-11-30 15:02:58.451255
1417  2023-11-30 15:02:58.483443
1418  2023-11-30 15:02:58.529282
1419  2023-11-30 15:02:58.575714
1420  2023-11-30 15:02:58.606810
1421  2023-11-30 15:02:58.654271
1422  2023-11-30 15:02:58.702080
1423  2023-11-30 15:02:58.733886
1424  2023-11-30 15:02:58.780296
1425  2023-11-30 15:02:58.827498
1426  2023-11-30 15:02:58.857386
1427  2023-11-30 15:02:58.904103
1428  2023-11-30 15:02:58.951469
1429  2023-11-30 15:02:58.982489
1430  2023-11-30 15:02:59.032429
1431  2023-11-30 15:02:59.079203
1432  2023-11-30 15:02:59.108878
1433  2023-11-30 15:02:59.154799
1434  2023-11-30 15:02:59.203092
1435  2023-11-30 15:02:59.233625
1436  2023-11-30 15:02:59.280025
1437  2023-11-30 15:02:59.326985
1438  2023-11-30 15:02:59.358197
1439  2023-11-30 15:02:59.404592
1440  2023-11-30 15:02:59.451116
1441  2023-11-30 15:02:59.482402
1442  2023-11-30 15:02:59.528105
1443  2023-11-30 15:02:59.575242
1444  2023-11-30 15:02:59.606083
1445  2023-11-30 15:02:59.653645
1446  2023-11-30 15:02:59.697701
1447  2023-11-30 15:02:59.744518
1448  2023-11-30 15:02:59.776309
1449  2023-11-30 15:02:59.821603
1450  2023-11-30 15:02:59.868503
1451  2023-11-30 15:02:59.899968
1452  2023-11-30 15:02:59.946396
1453  2023-11-30 15:02:59.992347
1454  2023-11-30 15:03:00.023325
1455  2023-11-30 15:03:00.070609
1456  2023-11-30 15:03:00.118452
1457  2023-11-30 15:03:00.149615
1458  2023-11-30 15:03:00.197546
1459  2023-11-30 15:03:00.244495
1460  2023-11-30 15:03:00.274805
1461  2023-11-30 15:03:00.321571
1462  2023-11-30 15:03:00.367935
1463  2023-11-30 15:03:00.399020
1464  2023-11-30 15:03:00.445149
1465  2023-11-30 15:03:00.492977
1466  2023-11-30 15:03:00.524135
1467  2023-11-30 15:03:00.569994
1468  2023-11-30 15:03:00.616182
1469  2023-11-30 15:03:00.664127
1470  2023-11-30 15:03:00.694087
1471  2023-11-30 15:03:00.742035
1472  2023-11-30 15:03:00.772421
1473  2023-11-30 15:03:00.819554
1474  2023-11-30 15:03:00.866400
1475  2023-11-30 15:03:00.897137
1476  2023-11-30 15:03:00.943057
1477  2023-11-30 15:03:00.988566
1478  2023-11-30 15:03:01.035359
1479  2023-11-30 15:03:01.067254
1480  2023-11-30 15:03:01.113329
1481  2023-11-30 15:03:01.160591
1482  2023-11-30 15:03:01.191161
1483  2023-11-30 15:03:01.238490
1484  2023-11-30 15:03:01.285179
1485  2023-11-30 15:03:01.316011
1486  2023-11-30 15:03:01.363097
1487  2023-11-30 15:03:01.409774
1488  2023-11-30 15:03:01.441304
1489  2023-11-30 15:03:01.488012
1490  2023-11-30 15:03:01.535773
1491  2023-11-30 15:03:01.566096
1492  2023-11-30 15:03:01.614106
1493  2023-11-30 15:03:01.661867
1494  2023-11-30 15:03:01.693065
1495  2023-11-30 15:03:01.739344
1496  2023-11-30 15:03:01.786344
1497  2023-11-30 15:03:01.816877
1498  2023-11-30 15:03:01.863691
1499  2023-11-30 15:03:01.911439
1500  2023-11-30 15:03:01.942621
1501  2023-11-30 15:03:01.990913
1502  2023-11-30 15:03:02.036081
1503  2023-11-30 15:03:02.067062
1504  2023-11-30 15:03:02.114533
1505  2023-11-30 15:03:02.161353
1506  2023-11-30 15:03:02.192973
1507  2023-11-30 15:03:02.240072
1508  2023-11-30 15:03:02.287586
1509  2023-11-30 15:03:02.318123
1510  2023-11-30 15:03:02.363911
1511  2023-11-30 15:03:02.410613
1512  2023-11-30 15:03:02.441973
1513  2023-11-30 15:03:02.488257
1514  2023-11-30 15:03:02.534225
1515  2023-11-30 15:03:02.565793
1516  2023-11-30 15:03:02.612635
1517  2023-11-30 15:03:02.660450
1518  2023-11-30 15:03:02.691331
1519  2023-11-30 15:03:02.739073
1520  2023-11-30 15:03:02.784607
1521  2023-11-30 15:03:02.815280
1522  2023-11-30 15:03:02.862267
1523  2023-11-30 15:03:02.912080
1524  2023-11-30 15:03:02.941068
1525  2023-11-30 15:03:02.987784
1526  2023-11-30 15:03:03.034904
1527  2023-11-30 15:03:03.065227
1528  2023-11-30 15:03:03.112786
1529  2023-11-30 15:03:03.159836
1530  2023-11-30 15:03:03.190669
1531  2023-11-30 15:03:03.237180
1532  2023-11-30 15:03:03.284838
1533  2023-11-30 15:03:03.316087
1534  2023-11-30 15:03:03.362900
1535  2023-11-30 15:03:03.409955
1536  2023-11-30 15:03:03.442993
1537  2023-11-30 15:03:03.490503
1538  2023-11-30 15:03:03.535977
1539  2023-11-30 15:03:03.566530
1540  2023-11-30 15:03:03.613090
1541  2023-11-30 15:03:03.660061
1542  2023-11-30 15:03:03.691408
1543  2023-11-30 15:03:03.738155
1544  2023-11-30 15:03:03.784791
1545  2023-11-30 15:03:03.815878
1546  2023-11-30 15:03:03.862710
1547  2023-11-30 15:03:03.909868
1548  2023-11-30 15:03:03.939982
1549  2023-11-30 15:03:03.986236
1550  2023-11-30 15:03:04.033404
1551  2023-11-30 15:03:04.064929
1552  2023-11-30 15:03:04.111092
1553  2023-11-30 15:03:04.158346
1554  2023-11-30 15:03:04.189822
1555  2023-11-30 15:03:04.236062
1556  2023-11-30 15:03:04.281835
1557  2023-11-30 15:03:04.328819
1558  2023-11-30 15:03:04.360316
1559  2023-11-30 15:03:04.406797
1560  2023-11-30 15:03:04.452600
1561  2023-11-30 15:03:04.485046
1562  2023-11-30 15:03:04.531881
1563  2023-11-30 15:03:04.577134
1564  2023-11-30 15:03:04.609858
1565  2023-11-30 15:03:04.655306
1566  2023-11-30 15:03:04.703066
1567  2023-11-30 15:03:04.733426
1568  2023-11-30 15:03:04.781447
1569  2023-11-30 15:03:04.830094
1570  2023-11-30 15:03:04.860281
1571  2023-11-30 15:03:04.907239
1572  2023-11-30 15:03:04.953822
1573  2023-11-30 15:03:04.984982
1574  2023-11-30 15:03:05.031885
1575  2023-11-30 15:03:05.079118
1576  2023-11-30 15:03:05.111079
1577  2023-11-30 15:03:05.157772
1578  2023-11-30 15:03:05.203534
1579  2023-11-30 15:03:05.234449
1580  2023-11-30 15:03:05.281304
1581  2023-11-30 15:03:05.329735
1582  2023-11-30 15:03:05.361077
1583  2023-11-30 15:03:05.405983
1584  2023-11-30 15:03:05.453066
1585  2023-11-30 15:03:05.484178
1586  2023-11-30 15:03:05.531060
1587  2023-11-30 15:03:05.577204
1588  2023-11-30 15:03:05.608390
1589  2023-11-30 15:03:05.655093
1590  2023-11-30 15:03:05.702960
1591  2023-11-30 15:03:05.734879
1592  2023-11-30 15:03:05.781023
1593  2023-11-30 15:03:05.827698
1594  2023-11-30 15:03:05.858661
1595  2023-11-30 15:03:05.905985
1596  2023-11-30 15:03:05.952716
1597  2023-11-30 15:03:05.984305
1598  2023-11-30 15:03:06.032397
1599  2023-11-30 15:03:06.078186
1600  2023-11-30 15:03:06.111185
1601  2023-11-30 15:03:06.159366
1602  2023-11-30 15:03:06.189553
1603  2023-11-30 15:03:06.236659
1604  2023-11-30 15:03:06.284276
1605  2023-11-30 15:03:06.314704
1606  2023-11-30 15:03:06.360611
1607  2023-11-30 15:03:06.405873
1608  2023-11-30 15:03:06.453264
1609  2023-11-30 15:03:06.485062
1610  2023-11-30 15:03:06.530953
1611  2023-11-30 15:03:06.578043
1612  2023-11-30 15:03:06.609001
1613  2023-11-30 15:03:06.655648
1614  2023-11-30 15:03:06.704127
1615  2023-11-30 15:03:06.735165
1616  2023-11-30 15:03:06.781332
1617  2023-11-30 15:03:06.829264
1618  2023-11-30 15:03:06.860115
1619  2023-11-30 15:03:06.906395
1620  2023-11-30 15:03:06.952158
1621  2023-11-30 15:03:06.983127
1622  2023-11-30 15:03:07.030124
1623  2023-11-30 15:03:07.077135
1624  2023-11-30 15:03:07.107943
1625  2023-11-30 15:03:07.155211
1626  2023-11-30 15:03:07.200546
1627  2023-11-30 15:03:07.232154
1628  2023-11-30 15:03:07.279089
1629  2023-11-30 15:03:07.326342
1630  2023-11-30 15:03:07.358703
1631  2023-11-30 15:03:07.404781
1632  2023-11-30 15:03:07.451136
1633  2023-11-30 15:03:07.482083
1634  2023-11-30 15:03:07.528249
1635  2023-11-30 15:03:07.575950
1636  2023-11-30 15:03:07.606616
1637  2023-11-30 15:03:07.652984
1638  2023-11-30 15:03:07.700168
1639  2023-11-30 15:03:07.731383
1640  2023-11-30 15:03:07.777195
1641  2023-11-30 15:03:07.823515
1642  2023-11-30 15:03:07.855433
1643  2023-11-30 15:03:07.903309
1644  2023-11-30 15:03:07.951404
1645  2023-11-30 15:03:07.982321
1646  2023-11-30 15:03:08.030193
1647  2023-11-30 15:03:08.074986
1648  2023-11-30 15:03:08.106795
1649  2023-11-30 15:03:08.154313
1650  2023-11-30 15:03:08.200910
1651  2023-11-30 15:03:08.231631
1652  2023-11-30 15:03:08.277716
1653  2023-11-30 15:03:08.323220
1654  2023-11-30 15:03:08.369699
1655  2023-11-30 15:03:08.400143
1656  2023-11-30 15:03:08.448086
1657  2023-11-30 15:03:08.495423
1658  2023-11-30 15:03:08.527196
1659  2023-11-30 15:03:08.575048
1660  2023-11-30 15:03:08.620078
1661  2023-11-30 15:03:08.651982
1662  2023-11-30 15:03:08.698406
1663  2023-11-30 15:03:08.744456
1664  2023-11-30 15:03:08.776084
1665  2023-11-30 15:03:08.822314
1666  2023-11-30 15:03:08.869029
1667  2023-11-30 15:03:08.899633
1668  2023-11-30 15:03:08.946067
1669  2023-11-30 15:03:08.993965
1670  2023-11-30 15:03:09.025296
1671  2023-11-30 15:03:09.072257
1672  2023-11-30 15:03:09.118062
1673  2023-11-30 15:03:09.150146
1674  2023-11-30 15:03:09.194716
1675  2023-11-30 15:03:09.240039
1676  2023-11-30 15:03:09.286107
1677  2023-11-30 15:03:09.317018
1678  2023-11-30 15:03:09.363198
1679  2023-11-30 15:03:09.409830
1680  2023-11-30 15:03:09.441281
1681  2023-11-30 15:03:09.487771
1682  2023-11-30 15:03:09.535649
1683  2023-11-30 15:03:09.567390
1684  2023-11-30 15:03:09.613693
1685  2023-11-30 15:03:09.661418
1686  2023-11-30 15:03:09.691331
1687  2023-11-30 15:03:09.738349
1688  2023-11-30 15:03:09.784713
1689  2023-11-30 15:03:09.816130
1690  2023-11-30 15:03:09.862820
1691  2023-11-30 15:03:09.910000
1692  2023-11-30 15:03:09.941240
1693  2023-11-30 15:03:09.988347
1694  2023-11-30 15:03:10.034477
1695  2023-11-30 15:03:10.065338
1696  2023-11-30 15:03:10.113056
1697  2023-11-30 15:03:10.158772
1698  2023-11-30 15:03:10.190771
1699  2023-11-30 15:03:10.239859
1700  2023-11-30 15:03:10.286048
1701  2023-11-30 15:03:10.318938
1702  2023-11-30 15:03:10.365595
1703  2023-11-30 15:03:10.410217
1704  2023-11-30 15:03:10.441733
1705  2023-11-30 15:03:10.487324
1706  2023-11-30 15:03:10.534081
1707  2023-11-30 15:03:10.565510
1708  2023-11-30 15:03:10.612171
1709  2023-11-30 15:03:10.657842
1710  2023-11-30 15:03:10.689033
1711  2023-11-30 15:03:10.734956
1712  2023-11-30 15:03:10.783477
1713  2023-11-30 15:03:10.828954
1714  2023-11-30 15:03:10.860591
1715  2023-11-30 15:03:10.909479
1716  2023-11-30 15:03:10.953916
1717  2023-11-30 15:03:10.985982
1718  2023-11-30 15:03:11.032685
1719  2023-11-30 15:03:11.078882
1720  2023-11-30 15:03:11.109885
1721  2023-11-30 15:03:11.157191
1722  2023-11-30 15:03:11.203500
1723  2023-11-30 15:03:11.233846
1724  2023-11-30 15:03:11.280283
1725  2023-11-30 15:03:11.327231
1726  2023-11-30 15:03:11.358371
1727  2023-11-30 15:03:11.405129
1728  2023-11-30 15:03:11.452097
1729  2023-11-30 15:03:11.483749
1730  2023-11-30 15:03:11.532808
1731  2023-11-30 15:03:11.577763
1732  2023-11-30 15:03:11.608261
1733  2023-11-30 15:03:11.654894
1734  2023-11-30 15:03:11.701243
1735  2023-11-30 15:03:11.732283
1736  2023-11-30 15:03:11.778451
1737  2023-11-30 15:03:11.825577
1738  2023-11-30 15:03:11.856380
1739  2023-11-30 15:03:11.903274
1740  2023-11-30 15:03:11.949649
1741  2023-11-30 15:03:11.982678
1742  2023-11-30 15:03:12.027665
1743  2023-11-30 15:03:12.076064
1744  2023-11-30 15:03:12.120680
1745  2023-11-30 15:03:12.151260
1746  2023-11-30 15:03:12.197144
1747  2023-11-30 15:03:12.244251
1748  2023-11-30 15:03:12.275336
1749  2023-11-30 15:03:12.321620
1750  2023-11-30 15:03:12.367430
1751  2023-11-30 15:03:12.398980
1752  2023-11-30 15:03:12.446044
1753  2023-11-30 15:03:12.493733
1754  2023-11-30 15:03:12.523748
1755  2023-11-30 15:03:12.571012
1756  2023-11-30 15:03:12.618026
1757  2023-11-30 15:03:12.662730
1758  2023-11-30 15:03:12.693302
1759  2023-11-30 15:03:12.739930
1760  2023-11-30 15:03:12.786934
1761  2023-11-30 15:03:12.818836
1762  2023-11-30 15:03:12.865951
1763  2023-11-30 15:03:12.911720
1764  2023-11-30 15:03:12.942203
1765  2023-11-30 15:03:12.989381
1766  2023-11-30 15:03:13.036413
1767  2023-11-30 15:03:13.068348
1768  2023-11-30 15:03:13.115635
1769  2023-11-30 15:03:13.162694
1770  2023-11-30 15:03:13.192569
1771  2023-11-30 15:03:13.239027
1772  2023-11-30 15:03:13.287103
1773  2023-11-30 15:03:13.319140
1774  2023-11-30 15:03:13.366609
1775  2023-11-30 15:03:13.397606
1776  2023-11-30 15:03:13.444443
1777  2023-11-30 15:03:13.491393
1778  2023-11-30 15:03:13.522508
1779  2023-11-30 15:03:13.569698
1780  2023-11-30 15:03:13.616607
1781  2023-11-30 15:03:13.647133
1782  2023-11-30 15:03:13.695204
1783  2023-11-30 15:03:13.741859
1784  2023-11-30 15:03:13.786890
1785  2023-11-30 15:03:13.817133
1786  2023-11-30 15:03:13.864197
1787  2023-11-30 15:03:13.910407
1788  2023-11-30 15:03:13.941807
1789  2023-11-30 15:03:13.987383
1790  2023-11-30 15:03:14.034794
1791  2023-11-30 15:03:14.066149
1792  2023-11-30 15:03:14.113149
1793  2023-11-30 15:03:14.160544
1794  2023-11-30 15:03:14.191821
1795  2023-11-30 15:03:14.237038
1796  2023-11-30 15:03:14.283826
1797  2023-11-30 15:03:14.316027
1798  2023-11-30 15:03:14.361609
1799  2023-11-30 15:03:14.408385
1800  2023-11-30 15:03:14.439897
1801  2023-11-30 15:03:14.486332
1802  2023-11-30 15:03:14.532791
1803  2023-11-30 15:03:14.564295
1804  2023-11-30 15:03:14.610504
1805  2023-11-30 15:03:14.656446
1806  2023-11-30 15:03:14.702670
1807  2023-11-30 15:03:14.733347
1808  2023-11-30 15:03:14.780505
1809  2023-11-30 15:03:14.827065
1810  2023-11-30 15:03:14.859153
1811  2023-11-30 15:03:14.905812
1812  2023-11-30 15:03:14.952724
1813  2023-11-30 15:03:14.983696
1814  2023-11-30 15:03:15.029616
1815  2023-11-30 15:03:15.076112
1816  2023-11-30 15:03:15.107529
1817  2023-11-30 15:03:15.154733
1818  2023-11-30 15:03:15.200676
1819  2023-11-30 15:03:15.231712
1820  2023-11-30 15:03:15.279276
1821  2023-11-30 15:03:15.326175
1822  2023-11-30 15:03:15.357073
1823  2023-11-30 15:03:15.404307
1824  2023-11-30 15:03:15.451056
1825  2023-11-30 15:03:15.482477
1826  2023-11-30 15:03:15.528628
1827  2023-11-30 15:03:15.576068
1828  2023-11-30 15:03:15.606349
1829  2023-11-30 15:03:15.652685
1830  2023-11-30 15:03:15.699284
1831  2023-11-30 15:03:15.745186
1832  2023-11-30 15:03:15.775539
1833  2023-11-30 15:03:15.822193
1834  2023-11-30 15:03:15.869075
1835  2023-11-30 15:03:15.901235
1836  2023-11-30 15:03:15.947436
1837  2023-11-30 15:03:15.993180
1838  2023-11-30 15:03:16.025100
1839  2023-11-30 15:03:16.072645
1840  2023-11-30 15:03:16.121049
1841  2023-11-30 15:03:16.151237
1842  2023-11-30 15:03:16.196389
1843  2023-11-30 15:03:16.242825
1844  2023-11-30 15:03:16.273761
1845  2023-11-30 15:03:16.319972
1846  2023-11-30 15:03:16.367101
1847  2023-11-30 15:03:16.398280
1848  2023-11-30 15:03:16.444716
1849  2023-11-30 15:03:16.491444
1850  2023-11-30 15:03:16.536853
1851  2023-11-30 15:03:16.567764
1852  2023-11-30 15:03:16.614537
1853  2023-11-30 15:03:16.661020
1854  2023-11-30 15:03:16.692342
1855  2023-11-30 15:03:16.738970
1856  2023-11-30 15:03:16.785104
1857  2023-11-30 15:03:16.817887
1858  2023-11-30 15:03:16.864022
1859  2023-11-30 15:03:16.911075
1860  2023-11-30 15:03:16.941037
1861  2023-11-30 15:03:16.987760
1862  2023-11-30 15:03:17.035336
1863  2023-11-30 15:03:17.065525
1864  2023-11-30 15:03:17.113089
1865  2023-11-30 15:03:17.160160
1866  2023-11-30 15:03:17.191826
1867  2023-11-30 15:03:17.239337
1868  2023-11-30 15:03:17.284790
1869  2023-11-30 15:03:17.316054
1870  2023-11-30 15:03:17.362893
1871  2023-11-30 15:03:17.408969
1872  2023-11-30 15:03:17.439889
1873  2023-11-30 15:03:17.486229
1874  2023-11-30 15:03:17.532076
1875  2023-11-30 15:03:17.579314
1876  2023-11-30 15:03:17.609740
1877  2023-11-30 15:03:17.656824
1878  2023-11-30 15:03:17.688754
1879  2023-11-30 15:03:17.734842
1880  2023-11-30 15:03:17.782314
1881  2023-11-30 15:03:17.829855
1882  2023-11-30 15:03:17.858750
1883  2023-11-30 15:03:17.905252
1884  2023-11-30 15:03:17.952120
1885  2023-11-30 15:03:17.982719
1886  2023-11-30 15:03:18.030255
1887  2023-11-30 15:03:18.078098
1888  2023-11-30 15:03:18.109166
1889  2023-11-30 15:03:18.155070
1890  2023-11-30 15:03:18.202986
1891  2023-11-30 15:03:18.234739
1892  2023-11-30 15:03:18.281354
1893  2023-11-30 15:03:18.328110
1894  2023-11-30 15:03:18.360007
1895  2023-11-30 15:03:18.406917
1896  2023-11-30 15:03:18.453702
1897  2023-11-30 15:03:18.485894
1898  2023-11-30 15:03:18.532062
1899  2023-11-30 15:03:18.578474
1900  2023-11-30 15:03:18.610073
1901  2023-11-30 15:03:18.657622
1902  2023-11-30 15:03:18.703681
1903  2023-11-30 15:03:18.734718
1904  2023-11-30 15:03:18.781091
1905  2023-11-30 15:03:18.827584
1906  2023-11-30 15:03:18.858172
1907  2023-11-30 15:03:18.904486
1908  2023-11-30 15:03:18.950627
1909  2023-11-30 15:03:18.983023
1910  2023-11-30 15:03:19.030337
1911  2023-11-30 15:03:19.076134
1912  2023-11-30 15:03:19.106571
1913  2023-11-30 15:03:19.153063
1914  2023-11-30 15:03:19.199477
1915  2023-11-30 15:03:19.230549
1916  2023-11-30 15:03:19.277640
1917  2023-11-30 15:03:19.325062
1918  2023-11-30 15:03:19.355882
1919  2023-11-30 15:03:19.403079
1920  2023-11-30 15:03:19.449650
1921  2023-11-30 15:03:19.480816
1922  2023-11-30 15:03:19.526354
1923  2023-11-30 15:03:19.574615
1924  2023-11-30 15:03:19.606220
1925  2023-11-30 15:03:19.654098
1926  2023-11-30 15:03:19.702103
1927  2023-11-30 15:03:19.732101
1928  2023-11-30 15:03:19.779056
1929  2023-11-30 15:03:19.827631
1930  2023-11-30 15:03:19.858286
1931  2023-11-30 15:03:19.905375
1932  2023-11-30 15:03:19.952922
1933  2023-11-30 15:03:19.985052
1934  2023-11-30 15:03:20.031849
1935  2023-11-30 15:03:20.078100
1936  2023-11-30 15:03:20.109670
1937  2023-11-30 15:03:20.157052
1938  2023-11-30 15:03:20.203960
1939  2023-11-30 15:03:20.234655
1940  2023-11-30 15:03:20.280953
1941  2023-11-30 15:03:20.326629
1942  2023-11-30 15:03:20.357438
1943  2023-11-30 15:03:20.404507
1944  2023-11-30 15:03:20.451725
1945  2023-11-30 15:03:20.484187
1946  2023-11-30 15:03:20.532398
1947  2023-11-30 15:03:20.576029
1948  2023-11-30 15:03:20.607065
1949  2023-11-30 15:03:20.654129
1950  2023-11-30 15:03:20.700096
1951  2023-11-30 15:03:20.730770
1952  2023-11-30 15:03:20.777502
1953  2023-11-30 15:03:20.824508
1954  2023-11-30 15:03:20.856148
1955  2023-11-30 15:03:20.902924
1956  2023-11-30 15:03:20.951009
1957  2023-11-30 15:03:20.980834
1958  2023-11-30 15:03:21.027559
1959  2023-11-30 15:03:21.076067
1960  2023-11-30 15:03:21.107451
1961  2023-11-30 15:03:21.153037
1962  2023-11-30 15:03:21.200136
1963  2023-11-30 15:03:21.231310
1964  2023-11-30 15:03:21.277975
1965  2023-11-30 15:03:21.324648
1966  2023-11-30 15:03:21.370710
1967  2023-11-30 15:03:21.401987
1968  2023-11-30 15:03:21.448700
1969  2023-11-30 15:03:21.495066
1970  2023-11-30 15:03:21.525480
1971  2023-11-30 15:03:21.571473
1972  2023-11-30 15:03:21.620018
1973  2023-11-30 15:03:21.651636
1974  2023-11-30 15:03:21.696108
1975  2023-11-30 15:03:21.742739
1976  2023-11-30 15:03:21.774250
1977  2023-11-30 15:03:21.821422
1978  2023-11-30 15:03:21.869028
1979  2023-11-30 15:03:21.900199
1980  2023-11-30 15:03:21.946745
1981  2023-11-30 15:03:21.993978
1982  2023-11-30 15:03:22.024627
1983  2023-11-30 15:03:22.070592
1984  2023-11-30 15:03:22.116894
1985  2023-11-30 15:03:22.148543
1986  2023-11-30 15:03:22.195015
1987  2023-11-30 15:03:22.242028
1988  2023-11-30 15:03:22.274640
1989  2023-11-30 15:03:22.319229
1990  2023-11-30 15:03:22.366114
1991  2023-11-30 15:03:22.398271
1992  2023-11-30 15:03:22.444057
1993  2023-11-30 15:03:22.490550
1994  2023-11-30 15:03:22.537351
1995  2023-11-30 15:03:22.568246
1996  2023-11-30 15:03:22.615263
1997  2023-11-30 15:03:22.662683
1998  2023-11-30 15:03:22.695012
1999  2023-11-30 15:03:22.739399
2000  2023-11-30 15:03:22.787095
2001  2023-11-30 15:03:22.818234
2002  2023-11-30 15:03:22.865041
2003  2023-11-30 15:03:22.911946
2004  2023-11-30 15:03:22.942095
2005  2023-11-30 15:03:22.989455
2006  2023-11-30 15:03:23.037376
2007  2023-11-30 15:03:23.069009
2008  2023-11-30 15:03:23.116310
2009  2023-11-30 15:03:23.147690
2010  2023-11-30 15:03:23.195836
2011  2023-11-30 15:03:23.241487
2012  2023-11-30 15:03:23.286759
2013  2023-11-30 15:03:23.317846
2014  2023-11-30 15:03:23.365835
2015  2023-11-30 15:03:23.412564
2016  2023-11-30 15:03:23.443088
2017  2023-11-30 15:03:23.491018
2018  2023-11-30 15:03:23.538974
2019  2023-11-30 15:03:23.570047
2020  2023-11-30 15:03:23.616660
2021  2023-11-30 15:03:23.650239
2022  2023-11-30 15:03:23.695242
2023  2023-11-30 15:03:23.745204
2024  2023-11-30 15:03:23.774295
2025  2023-11-30 15:03:23.820839
2026  2023-11-30 15:03:23.866733
2027  2023-11-30 15:03:23.897624
2028  2023-11-30 15:03:23.944434
2029  2023-11-30 15:03:23.990510
2030  2023-11-30 15:03:24.037470
2031  2023-11-30 15:03:24.068635
2032  2023-11-30 15:03:24.114874
2033  2023-11-30 15:03:24.162217
2034  2023-11-30 15:03:24.194176
2035  2023-11-30 15:03:24.242007
2036  2023-11-30 15:03:24.272530
2037  2023-11-30 15:03:24.322050
2038  2023-11-30 15:03:24.369314
2039  2023-11-30 15:03:24.398239
2040  2023-11-30 15:03:24.445035
2041  2023-11-30 15:03:24.491319
2042  2023-11-30 15:03:24.522386
2043  2023-11-30 15:03:24.567858
2044  2023-11-30 15:03:24.614495
2045  2023-11-30 15:03:24.660799
2046  2023-11-30 15:03:24.692798
2047  2023-11-30 15:03:24.740417
2048  2023-11-30 15:03:24.785945
2049  2023-11-30 15:03:24.817007
2050  2023-11-30 15:03:24.865280
2051  2023-11-30 15:03:24.912243
2052  2023-11-30 15:03:24.944038
2053  2023-11-30 15:03:24.989679
2054  2023-11-30 15:03:25.036105
2055  2023-11-30 15:03:25.067323
2056  2023-11-30 15:03:25.113454
2057  2023-11-30 15:03:25.160209
2058  2023-11-30 15:03:25.191227
2059  2023-11-30 15:03:25.238794
2060  2023-11-30 15:03:25.286679
2061  2023-11-30 15:03:25.318088
2062  2023-11-30 15:03:25.364332
2063  2023-11-30 15:03:25.412135
2064  2023-11-30 15:03:25.442089
2065  2023-11-30 15:03:25.489072
2066  2023-11-30 15:03:25.535761
2067  2023-11-30 15:03:25.566410
2068  2023-11-30 15:03:25.613081
2069  2023-11-30 15:03:25.659164
2070  2023-11-30 15:03:25.689309
2071  2023-11-30 15:03:25.735925
2072  2023-11-30 15:03:25.782604
2073  2023-11-30 15:03:25.829352
2074  2023-11-30 15:03:25.860039
2075  2023-11-30 15:03:25.906675
2076  2023-11-30 15:03:25.953753
2077  2023-11-30 15:03:25.983938
2078  2023-11-30 15:03:26.030657
2079  2023-11-30 15:03:26.077043
2080  2023-11-30 15:03:26.107495
2081  2023-11-30 15:03:26.155257
2082  2023-11-30 15:03:26.202697
2083  2023-11-30 15:03:26.234219
2084  2023-11-30 15:03:26.281008
2085  2023-11-30 15:03:26.326570
2086  2023-11-30 15:03:26.357487
2087  2023-11-30 15:03:26.404566
2088  2023-11-30 15:03:26.451943
2089  2023-11-30 15:03:26.483179
2090  2023-11-30 15:03:26.530127
2091  2023-11-30 15:03:26.577016
2092  2023-11-30 15:03:26.607428
2093  2023-11-30 15:03:26.655801
2094  2023-11-30 15:03:26.704076
2095  2023-11-30 15:03:26.732076
2096  2023-11-30 15:03:26.779146
2097  2023-11-30 15:03:26.825193
2098  2023-11-30 15:03:26.856209
2099  2023-11-30 15:03:26.902410
2100  2023-11-30 15:03:26.949199
2101  2023-11-30 15:03:26.995468
2102  2023-11-30 15:03:27.026914
2103  2023-11-30 15:03:27.074263
2104  2023-11-30 15:03:27.106118
2105  2023-11-30 15:03:27.152907
2106  2023-11-30 15:03:27.200300
2107  2023-11-30 15:03:27.231885
2108  2023-11-30 15:03:27.279463
2109  2023-11-30 15:03:27.326049
2110  2023-11-30 15:03:27.370826
2111  2023-11-30 15:03:27.402407
2112  2023-11-30 15:03:27.450246
2113  2023-11-30 15:03:27.481410
2114  2023-11-30 15:03:27.528209
2115  2023-11-30 15:03:27.574375
2116  2023-11-30 15:03:27.620300
2117  2023-11-30 15:03:27.651750
2118  2023-11-30 15:03:27.698081
2119  2023-11-30 15:03:27.745236
2120  2023-11-30 15:03:27.777939
2121  2023-11-30 15:03:27.824188
2122  2023-11-30 15:03:27.870099
2123  2023-11-30 15:03:27.902355
2124  2023-11-30 15:03:27.947085
2125  2023-11-30 15:03:27.994707
2126  2023-11-30 15:03:28.027003
2127  2023-11-30 15:03:28.073566
2128  2023-11-30 15:03:28.120179
2129  2023-11-30 15:03:28.151296
2130  2023-11-30 15:03:28.198669
2131  2023-11-30 15:03:28.244264
2132  2023-11-30 15:03:28.275932
2133  2023-11-30 15:03:28.321822
2134  2023-11-30 15:03:28.368227
2135  2023-11-30 15:03:28.401323
2136  2023-11-30 15:03:28.446235
2137  2023-11-30 15:03:28.493792
2138  2023-11-30 15:03:28.524624
2139  2023-11-30 15:03:28.571642
2140  2023-11-30 15:03:28.618351
2141  2023-11-30 15:03:28.648743
2142  2023-11-30 15:03:28.694825
2143  2023-11-30 15:03:28.741378
2144  2023-11-30 15:03:28.786892
2145  2023-11-30 15:03:28.818932
2146  2023-11-30 15:03:28.865972
2147  2023-11-30 15:03:28.897439
2148  2023-11-30 15:03:28.947955
2149  2023-11-30 15:03:28.990543
2150  2023-11-30 15:03:29.022540
2151  2023-11-30 15:03:29.068980
2152  2023-11-30 15:03:29.116387
2153  2023-11-30 15:03:29.161759
2154  2023-11-30 15:03:29.193673
2155  2023-11-30 15:03:29.240256
2156  2023-11-30 15:03:29.285896
2157  2023-11-30 15:03:29.317919
2158  2023-11-30 15:03:29.363634
2159  2023-11-30 15:03:29.410423
2160  2023-11-30 15:03:29.441763
2161  2023-11-30 15:03:29.488530
2162  2023-11-30 15:03:29.534532
2163  2023-11-30 15:03:29.565429
2164  2023-11-30 15:03:29.612820
2165  2023-11-30 15:03:29.661727
2166  2023-11-30 15:03:29.692760
2167  2023-11-30 15:03:29.737174
2168  2023-11-30 15:03:29.784023
2169  2023-11-30 15:03:29.815245
2170  2023-11-30 15:03:29.861809
2171  2023-11-30 15:03:29.907659
2172  2023-11-30 15:03:29.939612
2173  2023-11-30 15:03:29.986270
2174  2023-11-30 15:03:30.033953
2175  2023-11-30 15:03:30.065203
2176  2023-11-30 15:03:30.112178
2177  2023-11-30 15:03:30.160082
2178  2023-11-30 15:03:30.190997
2179  2023-11-30 15:03:30.237992
2180  2023-11-30 15:03:30.283882
2181  2023-11-30 15:03:30.315987
2182  2023-11-30 15:03:30.360774
2183  2023-11-30 15:03:30.406607
2184  2023-11-30 15:03:30.453410
2185  2023-11-30 15:03:30.484520
2186  2023-11-30 15:03:30.531128
2187  2023-11-30 15:03:30.577818
2188  2023-11-30 15:03:30.608629
2189  2023-11-30 15:03:30.655781
2190  2023-11-30 15:03:30.703048
2191  2023-11-30 15:03:30.735048
2192  2023-11-30 15:03:30.781468
2193  2023-11-30 15:03:30.828681
2194  2023-11-30 15:03:30.860738
2195  2023-11-30 15:03:30.908092
2196  2023-11-30 15:03:30.940424
2197  2023-11-30 15:03:30.986873
2198  2023-11-30 15:03:31.033168
2199  2023-11-30 15:03:31.064527
2200  2023-11-30 15:03:31.112594
2201  2023-11-30 15:03:31.158118
2202  2023-11-30 15:03:31.189736
2203  2023-11-30 15:03:31.236988
2204  2023-11-30 15:03:31.283918
2205  2023-11-30 15:03:31.315611
2206  2023-11-30 15:03:31.362895
2207  2023-11-30 15:03:31.407992
2208  2023-11-30 15:03:31.439562
2209  2023-11-30 15:03:31.486048
2210  2023-11-30 15:03:31.535003
2211  2023-11-30 15:03:31.565180
2212  2023-11-30 15:03:31.612691
2213  2023-11-30 15:03:31.660972
2214  2023-11-30 15:03:31.692205
2215  2023-11-30 15:03:31.739334
2216  2023-11-30 15:03:31.783011
2217  2023-11-30 15:03:31.814210
2218  2023-11-30 15:03:31.859485
2219  2023-11-30 15:03:31.906702
2220  2023-11-30 15:03:31.953275
2221  2023-11-30 15:03:31.984328
2222  2023-11-30 15:03:32.030790
2223  2023-11-30 15:03:32.077792
2224  2023-11-30 15:03:32.108260
2225  2023-11-30 15:03:32.155266
2226  2023-11-30 15:03:32.202594
2227  2023-11-30 15:03:32.234343
2228  2023-11-30 15:03:32.279905
2229  2023-11-30 15:03:32.326031
2230  2023-11-30 15:03:32.356533
2231  2023-11-30 15:03:32.403206
2232  2023-11-30 15:03:32.450340
2233  2023-11-30 15:03:32.481081
2234  2023-11-30 15:03:32.528490
2235  2023-11-30 15:03:32.576302
2236  2023-11-30 15:03:32.607295
2237  2023-11-30 15:03:32.655295
2238  2023-11-30 15:03:32.703133
2239  2023-11-30 15:03:32.734073
2240  2023-11-30 15:03:32.780669
2241  2023-11-30 15:03:32.827884
2242  2023-11-30 15:03:32.860805
2243  2023-11-30 15:03:32.907827
2244  2023-11-30 15:03:32.939499
2245  2023-11-30 15:03:32.986758
2246  2023-11-30 15:03:33.033484
2247  2023-11-30 15:03:33.066256
2248  2023-11-30 15:03:33.110873
2249  2023-11-30 15:03:33.156917
2250  2023-11-30 15:03:33.203317
2251  2023-11-30 15:03:33.234332
2252  2023-11-30 15:03:33.280669
2253  2023-11-30 15:03:33.327219
2254  2023-11-30 15:03:33.358798
2255  2023-11-30 15:03:33.405359
2256  2023-11-30 15:03:33.453091
2257  2023-11-30 15:03:33.485122
2258  2023-11-30 15:03:33.532300
2259  2023-11-30 15:03:33.563989
2260  2023-11-30 15:03:33.611109
2261  2023-11-30 15:03:33.657045
2262  2023-11-30 15:03:33.688758
2263  2023-11-30 15:03:33.737849
2264  2023-11-30 15:03:33.785076
2265  2023-11-30 15:03:33.813996
2266  2023-11-30 15:03:33.859933
2267  2023-11-30 15:03:33.906506
2268  2023-11-30 15:03:33.953475
2269  2023-11-30 15:03:33.985606
2270  2023-11-30 15:03:34.031239
2271  2023-11-30 15:03:34.079280
2272  2023-11-30 15:03:34.110939
2273  2023-11-30 15:03:34.157379
2274  2023-11-30 15:03:34.188778
2275  2023-11-30 15:03:34.235677
2276  2023-11-30 15:03:34.283826
2277  2023-11-30 15:03:34.314966
2278  2023-11-30 15:03:34.362456
2279  2023-11-30 15:03:34.410082
2280  2023-11-30 15:03:34.441034
2281  2023-11-30 15:03:34.487172
2282  2023-11-30 15:03:34.533912
2283  2023-11-30 15:03:34.565061
2284  2023-11-30 15:03:34.611093
2285  2023-11-30 15:03:34.658285
2286  2023-11-30 15:03:34.690109
2287  2023-11-30 15:03:34.737244
2288  2023-11-30 15:03:34.784683
2289  2023-11-30 15:03:34.816058
2290  2023-11-30 15:03:34.863544
2291  2023-11-30 15:03:34.910491
2292  2023-11-30 15:03:34.941983
2293  2023-11-30 15:03:34.988819
2294  2023-11-30 15:03:35.034476
2295  2023-11-30 15:03:35.065047
2296  2023-11-30 15:03:35.112876
2297  2023-11-30 15:03:35.159472
2298  2023-11-30 15:03:35.188888
2299  2023-11-30 15:03:35.235620
2300  2023-11-30 15:03:35.281584
2301  2023-11-30 15:03:35.327776
2302  2023-11-30 15:03:35.358094
2303  2023-11-30 15:03:35.405336
2304  2023-11-30 15:03:35.453204
2305  2023-11-30 15:03:35.484093
2306  2023-11-30 15:03:35.531102
2307  2023-11-30 15:03:35.578401
2308  2023-11-30 15:03:35.610316
2309  2023-11-30 15:03:35.657750
2310  2023-11-30 15:03:35.689090
2311  2023-11-30 15:03:35.736397
2312  2023-11-30 15:03:35.784262
2313  2023-11-30 15:03:35.815355
2314  2023-11-30 15:03:35.862143
2315  2023-11-30 15:03:35.908096
2316  2023-11-30 15:03:35.939809
2317  2023-11-30 15:03:35.986045
2318  2023-11-30 15:03:36.032264
2319  2023-11-30 15:03:36.063766
2320  2023-11-30 15:03:36.111801
2321  2023-11-30 15:03:36.158632
2322  2023-11-30 15:03:36.189360
2323  2023-11-30 15:03:36.235561
2324  2023-11-30 15:03:36.282400
2325  2023-11-30 15:03:36.328925
2326  2023-11-30 15:03:36.359479
2327  2023-11-30 15:03:36.406849
2328  2023-11-30 15:03:36.452376
2329  2023-11-30 15:03:36.484379
2330  2023-11-30 15:03:36.531179
2331  2023-11-30 15:03:36.578708
2332  2023-11-30 15:03:36.610474
2333  2023-11-30 15:03:36.657152
2334  2023-11-30 15:03:36.703399
2335  2023-11-30 15:03:36.734298
2336  2023-11-30 15:03:36.780158
2337  2023-11-30 15:03:36.826914
2338  2023-11-30 15:03:36.858222
2339  2023-11-30 15:03:36.905596
2340  2023-11-30 15:03:36.953343
2341  2023-11-30 15:03:36.984107
2342  2023-11-30 15:03:37.032214
2343  2023-11-30 15:03:37.078174
2344  2023-11-30 15:03:37.110907
2345  2023-11-30 15:03:37.158108
2346  2023-11-30 15:03:37.203661
2347  2023-11-30 15:03:37.234799
2348  2023-11-30 15:03:37.282555
2349  2023-11-30 15:03:37.328330
2350  2023-11-30 15:03:37.359162
2351  2023-11-30 15:03:37.405222
2352  2023-11-30 15:03:37.452389
2353  2023-11-30 15:03:37.484316
2354  2023-11-30 15:03:37.531074
2355  2023-11-30 15:03:37.578994
2356  2023-11-30 15:03:37.609860
2357  2023-11-30 15:03:37.656619
2358  2023-11-30 15:03:37.705123
2359  2023-11-30 15:03:37.734751
2360  2023-11-30 15:03:37.780965
2361  2023-11-30 15:03:37.827231
2362  2023-11-30 15:03:37.858284
2363  2023-11-30 15:03:37.904695
2364  2023-11-30 15:03:37.951863
2365  2023-11-30 15:03:37.984153
2366  2023-11-30 15:03:38.031256
2367  2023-11-30 15:03:38.078028
2368  2023-11-30 15:03:38.109040
2369  2023-11-30 15:03:38.156022
2370  2023-11-30 15:03:38.202377
2371  2023-11-30 15:03:38.233734
2372  2023-11-30 15:03:38.280966
2373  2023-11-30 15:03:38.328434
2374  2023-11-30 15:03:38.360132
2375  2023-11-30 15:03:38.406044
2376  2023-11-30 15:03:38.453635
2377  2023-11-30 15:03:38.485465
2378  2023-11-30 15:03:38.532620
2379  2023-11-30 15:03:38.564534
2380  2023-11-30 15:03:38.612430
2381  2023-11-30 15:03:38.658320
2382  2023-11-30 15:03:38.689070
2383  2023-11-30 15:03:38.735850
2384  2023-11-30 15:03:38.782091
2385  2023-11-30 15:03:38.814062
2386  2023-11-30 15:03:38.861238
2387  2023-11-30 15:03:38.907952
2388  2023-11-30 15:03:38.938866
2389  2023-11-30 15:03:38.985759
2390  2023-11-30 15:03:39.031639
2391  2023-11-30 15:03:39.078506
2392  2023-11-30 15:03:39.110400
2393  2023-11-30 15:03:39.157156
2394  2023-11-30 15:03:39.200859
2395  2023-11-30 15:03:39.232402
2396  2023-11-30 15:03:39.279844
2397  2023-11-30 15:03:39.326533
2398  2023-11-30 15:03:39.358088
2399  2023-11-30 15:03:39.405846
2400  2023-11-30 15:03:39.453112
2401  2023-11-30 15:03:39.485028
2402  2023-11-30 15:03:39.533899
2403  2023-11-30 15:03:39.578579
2404  2023-11-30 15:03:39.609744
2405  2023-11-30 15:03:39.656179
2406  2023-11-30 15:03:39.703134
2407  2023-11-30 15:03:39.733741
2408  2023-11-30 15:03:39.780950
2409  2023-11-30 15:03:39.828900
2410  2023-11-30 15:03:39.860266
2411  2023-11-30 15:03:39.907328
2412  2023-11-30 15:03:39.953366
2413  2023-11-30 15:03:39.984211
2414  2023-11-30 15:03:40.031691
2415  2023-11-30 15:03:40.079056
2416  2023-11-30 15:03:40.111326
2417  2023-11-30 15:03:40.157092
2418  2023-11-30 15:03:40.204072
2419  2023-11-30 15:03:40.235019
2420  2023-11-30 15:03:40.281959
2421  2023-11-30 15:03:40.328391
2422  2023-11-30 15:03:40.358674
2423  2023-11-30 15:03:40.405091
2424  2023-11-30 15:03:40.452141
2425  2023-11-30 15:03:40.484104
2426  2023-11-30 15:03:40.531742
2427  2023-11-30 15:03:40.578997
2428  2023-11-30 15:03:40.610961
2429  2023-11-30 15:03:40.658186
2430  2023-11-30 15:03:40.703902
2431  2023-11-30 15:03:40.735010
2432  2023-11-30 15:03:40.782108
2433  2023-11-30 15:03:40.829150
2434  2023-11-30 15:03:40.860052
2435  2023-11-30 15:03:40.906126
2436  2023-11-30 15:03:40.951800
2437  2023-11-30 15:03:40.982504
2438  2023-11-30 15:03:41.029382
2439  2023-11-30 15:03:41.075534
2440  2023-11-30 15:03:41.107806
2441  2023-11-30 15:03:41.154107
2442  2023-11-30 15:03:41.202839
2443  2023-11-30 15:03:41.231562
2444  2023-11-30 15:03:41.278077
2445  2023-11-30 15:03:41.325009
2446  2023-11-30 15:03:41.357029
2447  2023-11-30 15:03:41.404098
2448  2023-11-30 15:03:41.451235
2449  2023-11-30 15:03:41.482159
2450  2023-11-30 15:03:41.530062
2451  2023-11-30 15:03:41.577324
2452  2023-11-30 15:03:41.606791
2453  2023-11-30 15:03:41.653759
2454  2023-11-30 15:03:41.700423
2455  2023-11-30 15:03:41.733046
2456  2023-11-30 15:03:41.779606
2457  2023-11-30 15:03:41.826025
2458  2023-11-30 15:03:41.856042
2459  2023-11-30 15:03:41.903012
2460  2023-11-30 15:03:41.950980
2461  2023-11-30 15:03:41.982214
2462  2023-11-30 15:03:42.030354
2463  2023-11-30 15:03:42.074825
2464  2023-11-30 15:03:42.106461
2465  2023-11-30 15:03:42.153809
2466  2023-11-30 15:03:42.200026
2467  2023-11-30 15:03:42.231227
2468  2023-11-30 15:03:42.278771
2469  2023-11-30 15:03:42.324881
2470  2023-11-30 15:03:42.355754
2471  2023-11-30 15:03:42.403635
2472  2023-11-30 15:03:42.451825
2473  2023-11-30 15:03:42.482318
2474  2023-11-30 15:03:42.531227
2475  2023-11-30 15:03:42.576614
2476  2023-11-30 15:03:42.608529
2477  2023-11-30 15:03:42.653488
2478  2023-11-30 15:03:42.701325
2479  2023-11-30 15:03:42.732083
2480  2023-11-30 15:03:42.778521
2481  2023-11-30 15:03:42.825062
2482  2023-11-30 15:03:42.856037
2483  2023-11-30 15:03:42.902105
2484  2023-11-30 15:03:42.949543
2485  2023-11-30 15:03:42.980437
2486  2023-11-30 15:03:43.028379
2487  2023-11-30 15:03:43.074471
2488  2023-11-30 15:03:43.106333
2489  2023-11-30 15:03:43.153199
2490  2023-11-30 15:03:43.201510
2491  2023-11-30 15:03:43.232694
2492  2023-11-30 15:03:43.280946
2493  2023-11-30 15:03:43.327106
2494  2023-11-30 15:03:43.357979
2495  2023-11-30 15:03:43.404484
2496  2023-11-30 15:03:43.450907
2497  2023-11-30 15:03:43.480809
2498  2023-11-30 15:03:43.526928
2499  2023-11-30 15:03:43.573568
2500  2023-11-30 15:03:43.621089
2501  2023-11-30 15:03:43.653151
2502  2023-11-30 15:03:43.698564
2503  2023-11-30 15:03:43.730542
2504  2023-11-30 15:03:43.777493
2505  2023-11-30 15:03:43.824495
2506  2023-11-30 15:03:43.870191
2507  2023-11-30 15:03:43.901038
2508  2023-11-30 15:03:43.949039
2509  2023-11-30 15:03:43.995025
2510  2023-11-30 15:03:44.025520
2511  2023-11-30 15:03:44.072265
2512  2023-11-30 15:03:44.118645
2513  2023-11-30 15:03:44.149699
2514  2023-11-30 15:03:44.197034
2515  2023-11-30 15:03:44.243541
2516  2023-11-30 15:03:44.275574
2517  2023-11-30 15:03:44.323413
2518  2023-11-30 15:03:44.370416
2519  2023-11-30 15:03:44.402188
2520  2023-11-30 15:03:44.450060
2521  2023-11-30 15:03:44.481029
2522  2023-11-30 15:03:44.528227
2523  2023-11-30 15:03:44.577235
2524  2023-11-30 15:03:44.608311
2525  2023-11-30 15:03:44.655616
2526  2023-11-30 15:03:44.699453
2527  2023-11-30 15:03:44.745332
2528  2023-11-30 15:03:44.775592
2529  2023-11-30 15:03:44.822823
2530  2023-11-30 15:03:44.868871
2531  2023-11-30 15:03:44.900023
2532  2023-11-30 15:03:44.946594
2533  2023-11-30 15:03:44.993040
2534  2023-11-30 15:03:45.024359
2535  2023-11-30 15:03:45.072112
2536  2023-11-30 15:03:45.117218
2537  2023-11-30 15:03:45.149006
2538  2023-11-30 15:03:45.194899
2539  2023-11-30 15:03:45.240846
2540  2023-11-30 15:03:45.272512
2541  2023-11-30 15:03:45.319893
2542  2023-11-30 15:03:45.367724
2543  2023-11-30 15:03:45.397962
2544  2023-11-30 15:03:45.445491
2545  2023-11-30 15:03:45.491384
2546  2023-11-30 15:03:45.523063
2547  2023-11-30 15:03:45.571027
2548  2023-11-30 15:03:45.617792
2549  2023-11-30 15:03:45.649046
2550  2023-11-30 15:03:45.696974
2551  2023-11-30 15:03:45.742831
2552  2023-11-30 15:03:45.774520
2553  2023-11-30 15:03:45.823278
2554  2023-11-30 15:03:45.867933
2555  2023-11-30 15:03:45.899210
2556  2023-11-30 15:03:45.946096
2557  2023-11-30 15:03:45.992524
2558  2023-11-30 15:03:46.024086
2559  2023-11-30 15:03:46.069791
2560  2023-11-30 15:03:46.116116
2561  2023-11-30 15:03:46.147189
2562  2023-11-30 15:03:46.195598
2563  2023-11-30 15:03:46.242009
2564  2023-11-30 15:03:46.273550
2565  2023-11-30 15:03:46.319579
2566  2023-11-30 15:03:46.368330
2567  2023-11-30 15:03:46.400705
2568  2023-11-30 15:03:46.445692
2569  2023-11-30 15:03:46.492042
2570  2023-11-30 15:03:46.522738
2571  2023-11-30 15:03:46.569560
2572  2023-11-30 15:03:46.617123
2573  2023-11-30 15:03:46.647180
2574  2023-11-30 15:03:46.694362
2575  2023-11-30 15:03:46.740506
2576  2023-11-30 15:03:46.787142
2577  2023-11-30 15:03:46.819193
2578  2023-11-30 15:03:46.866235
2579  2023-11-30 15:03:46.911998
2580  2023-11-30 15:03:46.945201
2581  2023-11-30 15:03:46.991896
2582  2023-11-30 15:03:47.023853
2583  2023-11-30 15:03:47.070370
2584  2023-11-30 15:03:47.118106
2585  2023-11-30 15:03:47.149951
2586  2023-11-30 15:03:47.194639
2587  2023-11-30 15:03:47.241521
2588  2023-11-30 15:03:47.272369
2589  2023-11-30 15:03:47.319936
2590  2023-11-30 15:03:47.367883
2591  2023-11-30 15:03:47.399837
2592  2023-11-30 15:03:47.447716
2593  2023-11-30 15:03:47.495576
2594  2023-11-30 15:03:47.526460
2595  2023-11-30 15:03:47.572954
2596  2023-11-30 15:03:47.620126
2597  2023-11-30 15:03:47.650406
2598  2023-11-30 15:03:47.697291
2599  2023-11-30 15:03:47.745892
2600  2023-11-30 15:03:47.776519
2601  2023-11-30 15:03:47.825372
2602  2023-11-30 15:03:47.872333
2603  2023-11-30 15:03:47.901974
2604  2023-11-30 15:03:47.950939
2605  2023-11-30 15:03:47.996949
2606  2023-11-30 15:03:48.026372
2607  2023-11-30 15:03:48.072870
2608  2023-11-30 15:03:48.120325
2609  2023-11-30 15:03:48.151930
2610  2023-11-30 15:03:48.198002
2611  2023-11-30 15:03:48.245393
2612  2023-11-30 15:03:48.275899
2613  2023-11-30 15:03:48.323837
2614  2023-11-30 15:03:48.370858
2615  2023-11-30 15:03:48.402786
2616  2023-11-30 15:03:48.448925
2617  2023-11-30 15:03:48.495565
2618  2023-11-30 15:03:48.527485
2619  2023-11-30 15:03:48.574195
2620  2023-11-30 15:03:48.605613
2621  2023-11-30 15:03:48.652560
2622  2023-11-30 15:03:48.700850
2623  2023-11-30 15:03:48.745643
2624  2023-11-30 15:03:48.776512
2625  2023-11-30 15:03:48.821947
2626  2023-11-30 15:03:48.867166
2627  2023-11-30 15:03:48.898519
2628  2023-11-30 15:03:48.944863
2629  2023-11-30 15:03:48.993868
2630  2023-11-30 15:03:49.024320
2631  2023-11-30 15:03:49.070658
2632  2023-11-30 15:03:49.117938
2633  2023-11-30 15:03:49.149906
2634  2023-11-30 15:03:49.197430
2635  2023-11-30 15:03:49.244552
2636  2023-11-30 15:03:49.276549
2637  2023-11-30 15:03:49.323919
2638  2023-11-30 15:03:49.355584
2639  2023-11-30 15:03:49.403703
2640  2023-11-30 15:03:49.452379
2641  2023-11-30 15:03:49.481043
2642  2023-11-30 15:03:49.527678
2643  2023-11-30 15:03:49.574143
2644  2023-11-30 15:03:49.619984
2645  2023-11-30 15:03:49.651085
2646  2023-11-30 15:03:49.696720
2647  2023-11-30 15:03:49.744399
2648  2023-11-30 15:03:49.775804
2649  2023-11-30 15:03:49.823088
2650  2023-11-30 15:03:49.870192
2651  2023-11-30 15:03:49.903158
2652  2023-11-30 15:03:49.946307
2653  2023-11-30 15:03:49.992973
2654  2023-11-30 15:03:50.024712
2655  2023-11-30 15:03:50.071947
2656  2023-11-30 15:03:50.119653
2657  2023-11-30 15:03:50.150516
2658  2023-11-30 15:03:50.197423
2659  2023-11-30 15:03:50.244482
2660  2023-11-30 15:03:50.274306
2661  2023-11-30 15:03:50.321721
2662  2023-11-30 15:03:50.368172
2663  2023-11-30 15:03:50.399378
2664  2023-11-30 15:03:50.446167
2665  2023-11-30 15:03:50.493937
2666  2023-11-30 15:03:50.525548
2667  2023-11-30 15:03:50.573689
2668  2023-11-30 15:03:50.621507
2669  2023-11-30 15:03:50.651468
2670  2023-11-30 15:03:50.698687
2671  2023-11-30 15:03:50.745332
2672  2023-11-30 15:03:50.777339
2673  2023-11-30 15:03:50.826583
2674  2023-11-30 15:03:50.855938
2675  2023-11-30 15:03:50.902460
2676  2023-11-30 15:03:50.947833
2677  2023-11-30 15:03:50.993807
2678  2023-11-30 15:03:51.025042
2679  2023-11-30 15:03:51.071514
2680  2023-11-30 15:03:51.118972
2681  2023-11-30 15:03:51.150964
2682  2023-11-30 15:03:51.197117
2683  2023-11-30 15:03:51.243500
2684  2023-11-30 15:03:51.274020
2685  2023-11-30 15:03:51.321305
2686  2023-11-30 15:03:51.368301
2687  2023-11-30 15:03:51.398570
2688  2023-11-30 15:03:51.445064
2689  2023-11-30 15:03:51.490383
2690  2023-11-30 15:03:51.536722
2691  2023-11-30 15:03:51.567776
2692  2023-11-30 15:03:51.615149
2693  2023-11-30 15:03:51.662969
2694  2023-11-30 15:03:51.692319
2695  2023-11-30 15:03:51.739928
2696  2023-11-30 15:03:51.785958
2697  2023-11-30 15:03:51.818907
2698  2023-11-30 15:03:51.865251
2699  2023-11-30 15:03:51.913294
2700  2023-11-30 15:03:51.943264
2701  2023-11-30 15:03:51.989657
2702  2023-11-30 15:03:52.035855
2703  2023-11-30 15:03:52.066405
2704  2023-11-30 15:03:52.113436
2705  2023-11-30 15:03:52.161444
2706  2023-11-30 15:03:52.191211
2707  2023-11-30 15:03:52.239102
2708  2023-11-30 15:03:52.286958
2709  2023-11-30 15:03:52.317094
2710  2023-11-30 15:03:52.364280
2711  2023-11-30 15:03:52.410348
2712  2023-11-30 15:03:52.443315
2713  2023-11-30 15:03:52.489063
2714  2023-11-30 15:03:52.536887
2715  2023-11-30 15:03:52.568595
2716  2023-11-30 15:03:52.613361
2717  2023-11-30 15:03:52.660547
2718  2023-11-30 15:03:52.690761
2719  2023-11-30 15:03:52.736734
2720  2023-11-30 15:03:52.784212
2721  2023-11-30 15:03:52.816057
2722  2023-11-30 15:03:52.862960
2723  2023-11-30 15:03:52.910291
2724  2023-11-30 15:03:52.942199
2725  2023-11-30 15:03:52.989003
2726  2023-11-30 15:03:53.034971
2727  2023-11-30 15:03:53.065745
2728  2023-11-30 15:03:53.113850
2729  2023-11-30 15:03:53.162343
2730  2023-11-30 15:03:53.191938
2731  2023-11-30 15:03:53.237909
2732  2023-11-30 15:03:53.285189
2733  2023-11-30 15:03:53.315334
2734  2023-11-30 15:03:53.362627
2735  2023-11-30 15:03:53.410722
2736  2023-11-30 15:03:53.442605
2737  2023-11-30 15:03:53.490477
2738  2023-11-30 15:03:53.522391
2739  2023-11-30 15:03:53.570263
2740  2023-11-30 15:03:53.617632
2741  2023-11-30 15:03:53.648580
2742  2023-11-30 15:03:53.695109
2743  2023-11-30 15:03:53.741083
2744  2023-11-30 15:03:53.772127
2745  2023-11-30 15:03:53.819087
2746  2023-11-30 15:03:53.865784
2747  2023-11-30 15:03:53.912694
2748  2023-11-30 15:03:53.943747
2749  2023-11-30 15:03:53.992669
2750  2023-11-30 15:03:54.023586
2751  2023-11-30 15:03:54.071940
2752  2023-11-30 15:03:54.117495
2753  2023-11-30 15:03:54.149439
2754  2023-11-30 15:03:54.195550
2755  2023-11-30 15:03:54.243153
2756  2023-11-30 15:03:54.274196
2757  2023-11-30 15:03:54.321288
2758  2023-11-30 15:03:54.368776
2759  2023-11-30 15:03:54.399227
2760  2023-11-30 15:03:54.446144
2761  2023-11-30 15:03:54.493086
2762  2023-11-30 15:03:54.525137
2763  2023-11-30 15:03:54.571009
2764  2023-11-30 15:03:54.618539
2765  2023-11-30 15:03:54.650434
2766  2023-11-30 15:03:54.698647
2767  2023-11-30 15:03:54.744888
2768  2023-11-30 15:03:54.776006
2769  2023-11-30 15:03:54.823625
2770  2023-11-30 15:03:54.870845
2771  2023-11-30 15:03:54.902047
2772  2023-11-30 15:03:54.946542
2773  2023-11-30 15:03:54.992831
2774  2023-11-30 15:03:55.024620
2775  2023-11-30 15:03:55.072257
2776  2023-11-30 15:03:55.119367
2777  2023-11-30 15:03:55.151254
2778  2023-11-30 15:03:55.198480
2779  2023-11-30 15:03:55.244387
2780  2023-11-30 15:03:55.274360
2781  2023-11-30 15:03:55.322853
2782  2023-11-30 15:03:55.367771
2783  2023-11-30 15:03:55.399078
2784  2023-11-30 15:03:55.447827
2785  2023-11-30 15:03:55.490678
2786  2023-11-30 15:03:55.522396
2787  2023-11-30 15:03:55.569731
2788  2023-11-30 15:03:55.617233
2789  2023-11-30 15:03:55.648252
2790  2023-11-30 15:03:55.696054
2791  2023-11-30 15:03:55.742110
2792  2023-11-30 15:03:55.773925
2793  2023-11-30 15:03:55.821086
2794  2023-11-30 15:03:55.866622
2795  2023-11-30 15:03:55.898326
2796  2023-11-30 15:03:55.944332
2797  2023-11-30 15:03:55.992325
2798  2023-11-30 15:03:56.037954
2799  2023-11-30 15:03:56.067769
2800  2023-11-30 15:03:56.114667
2801  2023-11-30 15:03:56.161128
2802  2023-11-30 15:03:56.192949
2803  2023-11-30 15:03:56.240381
2804  2023-11-30 15:03:56.287223
2805  2023-11-30 15:03:56.317872
2806  2023-11-30 15:03:56.364218
2807  2023-11-30 15:03:56.411084
2808  2023-11-30 15:03:56.441211
2809  2023-11-30 15:03:56.487112
2810  2023-11-30 15:03:56.534894
2811  2023-11-30 15:03:56.566747
2812  2023-11-30 15:03:56.614127
2813  2023-11-30 15:03:56.661646
2814  2023-11-30 15:03:56.693303
2815  2023-11-30 15:03:56.741175
2816  2023-11-30 15:03:56.773175
2817  2023-11-30 15:03:56.818964
2818  2023-11-30 15:03:56.864933
2819  2023-11-30 15:03:56.911497
2820  2023-11-30 15:03:56.942574
2821  2023-11-30 15:03:56.989042
2822  2023-11-30 15:03:57.036856
2823  2023-11-30 15:03:57.066352
2824  2023-11-30 15:03:57.112247
2825  2023-11-30 15:03:57.159213
2826  2023-11-30 15:03:57.192113
2827  2023-11-30 15:03:57.236785
2828  2023-11-30 15:03:57.283896
2829  2023-11-30 15:03:57.316089
2830  2023-11-30 15:03:57.361723
2831  2023-11-30 15:03:57.409262
2832  2023-11-30 15:03:57.440579
2833  2023-11-30 15:03:57.488081
2834  2023-11-30 15:03:57.534831
2835  2023-11-30 15:03:57.565988
2836  2023-11-30 15:03:57.613156
2837  2023-11-30 15:03:57.659926
2838  2023-11-30 15:03:57.691035
2839  2023-11-30 15:03:57.738174
2840  2023-11-30 15:03:57.783520
2841  2023-11-30 15:03:57.814126
2842  2023-11-30 15:03:57.861487
2843  2023-11-30 15:03:57.908374
2844  2023-11-30 15:03:57.941210
2845  2023-11-30 15:03:57.986153
2846  2023-11-30 15:03:58.032177
2847  2023-11-30 15:03:58.079578
2848  2023-11-30 15:03:58.110271
2849  2023-11-30 15:03:58.157314
2850  2023-11-30 15:03:58.203618
2851  2023-11-30 15:03:58.234801
2852  2023-11-30 15:03:58.281050
2853  2023-11-30 15:03:58.327186
2854  2023-11-30 15:03:58.359106
2855  2023-11-30 15:03:58.405228
2856  2023-11-30 15:03:58.452231
2857  2023-11-30 15:03:58.484202
2858  2023-11-30 15:03:58.532508
2859  2023-11-30 15:03:58.577811
2860  2023-11-30 15:03:58.608670
2861  2023-11-30 15:03:58.655268
2862  2023-11-30 15:03:58.702864
2863  2023-11-30 15:03:58.734646
2864  2023-11-30 15:03:58.782049
2865  2023-11-30 15:03:58.813961
2866  2023-11-30 15:03:58.861092
2867  2023-11-30 15:03:58.907307
2868  2023-11-30 15:03:58.953707
2869  2023-11-30 15:03:58.984266
2870  2023-11-30 15:03:59.030851
2871  2023-11-30 15:03:59.077617
2872  2023-11-30 15:03:59.110946
2873  2023-11-30 15:03:59.157323
2874  2023-11-30 15:03:59.203275
2875  2023-11-30 15:03:59.236026
2876  2023-11-30 15:03:59.280803
2877  2023-11-30 15:03:59.328021
2878  2023-11-30 15:03:59.357056
2879  2023-11-30 15:03:59.403670
2880  2023-11-30 15:03:59.450230
2881  2023-11-30 15:03:59.481746
2882  2023-11-30 15:03:59.527836
2883  2023-11-30 15:03:59.575213
2884  2023-11-30 15:03:59.606073
2885  2023-11-30 15:03:59.653111
2886  2023-11-30 15:03:59.701511
2887  2023-11-30 15:03:59.730434
2888  2023-11-30 15:03:59.778306
2889  2023-11-30 15:03:59.826178
2890  2023-11-30 15:03:59.858126
2891  2023-11-30 15:03:59.905966
2892  2023-11-30 15:03:59.951592
2893  2023-11-30 15:03:59.982591
2894  2023-11-30 15:04:00.030379
2895  2023-11-30 15:04:00.076198
2896  2023-11-30 15:04:00.107486
2897  2023-11-30 15:04:00.153981
2898  2023-11-30 15:04:00.200771
2899  2023-11-30 15:04:00.231711
2900  2023-11-30 15:04:00.278140
2901  2023-11-30 15:04:00.324152
2902  2023-11-30 15:04:00.372565
2903  2023-11-30 15:04:00.402804
2904  2023-11-30 15:04:00.451139
2905  2023-11-30 15:04:00.482117
2906  2023-11-30 15:04:00.530273
2907  2023-11-30 15:04:00.578579
2908  2023-11-30 15:04:00.610299
2909  2023-11-30 15:04:00.657238
2910  2023-11-30 15:04:00.704130
2911  2023-11-30 15:04:00.735040
2912  2023-11-30 15:04:00.781910
2913  2023-11-30 15:04:00.813828
2914  2023-11-30 15:04:00.861629
2915  2023-11-30 15:04:00.908268
2916  2023-11-30 15:04:00.939170
2917  2023-11-30 15:04:00.985763
2918  2023-11-30 15:04:01.033253
2919  2023-11-30 15:04:01.064406
2920  2023-11-30 15:04:01.111959
2921  2023-11-30 15:04:01.158710
2922  2023-11-30 15:04:01.189663
2923  2023-11-30 15:04:01.236859
2924  2023-11-30 15:04:01.284685
2925  2023-11-30 15:04:01.330804
2926  2023-11-30 15:04:01.360036
2927  2023-11-30 15:04:01.406656
2928  2023-11-30 15:04:01.453375
2929  2023-11-30 15:04:01.485094
2930  2023-11-30 15:04:01.530767
2931  2023-11-30 15:04:01.577648
2932  2023-11-30 15:04:01.608953
2933  2023-11-30 15:04:01.655168
2934  2023-11-30 15:04:01.701433
2935  2023-11-30 15:04:01.733013
2936  2023-11-30 15:04:01.779285
2937  2023-11-30 15:04:01.825142
2938  2023-11-30 15:04:01.856965
2939  2023-11-30 15:04:01.904243
2940  2023-11-30 15:04:01.953190
2941  2023-11-30 15:04:01.982291
2942  2023-11-30 15:04:02.029830
2943  2023-11-30 15:04:02.075531
2944  2023-11-30 15:04:02.106572
2945  2023-11-30 15:04:02.153461
2946  2023-11-30 15:04:02.200951
2947  2023-11-30 15:04:02.231955
2948  2023-11-30 15:04:02.278082
2949  2023-11-30 15:04:02.326023
2950  2023-11-30 15:04:02.356629
2951  2023-11-30 15:04:02.404063
2952  2023-11-30 15:04:02.449803
2953  2023-11-30 15:04:02.480762
2954  2023-11-30 15:04:02.528689
2955  2023-11-30 15:04:02.576585
2956  2023-11-30 15:04:02.605313
2957  2023-11-30 15:04:02.653240
2958  2023-11-30 15:04:02.698965
2959  2023-11-30 15:04:02.745052
2960  2023-11-30 15:04:02.776056
2961  2023-11-30 15:04:02.823603
2962  2023-11-30 15:04:02.870006
2963  2023-11-30 15:04:02.901385
2964  2023-11-30 15:04:02.948457
2965  2023-11-30 15:04:02.994790
2966  2023-11-30 15:04:03.026839
2967  2023-11-30 15:04:03.073927
2968  2023-11-30 15:04:03.105691
2969  2023-11-30 15:04:03.153136
2970  2023-11-30 15:04:03.200140
2971  2023-11-30 15:04:03.231423
2972  2023-11-30 15:04:03.277064
2973  2023-11-30 15:04:03.324106
2974  2023-11-30 15:04:03.370128
2975  2023-11-30 15:04:03.401423
2976  2023-11-30 15:04:03.449087
2977  2023-11-30 15:04:03.495205
2978  2023-11-30 15:04:03.526957
2979  2023-11-30 15:04:03.572905
2980  2023-11-30 15:04:03.619197
2981  2023-11-30 15:04:03.650643
2982  2023-11-30 15:04:03.698274
2983  2023-11-30 15:04:03.745287
2984  2023-11-30 15:04:03.776201
2985  2023-11-30 15:04:03.823506
2986  2023-11-30 15:04:03.871254
2987  2023-11-30 15:04:03.901321
2988  2023-11-30 15:04:03.947509
2989  2023-11-30 15:04:03.993312
2990  2023-11-30 15:04:04.023635
2991  2023-11-30 15:04:04.070607
2992  2023-11-30 15:04:04.117592
2993  2023-11-30 15:04:04.149034
2994  2023-11-30 15:04:04.195959
2995  2023-11-30 15:04:04.243833
2996  2023-11-30 15:04:04.275405
2997  2023-11-30 15:04:04.322841
2998  2023-11-30 15:04:04.370710
2999  2023-11-30 15:04:04.402546
3000  2023-11-30 15:04:04.450418
3001  2023-11-30 15:04:04.482332
3002  2023-11-30 15:04:04.529692
3003  2023-11-30 15:04:04.576914
3004  2023-11-30 15:04:04.607887
3005  2023-11-30 15:04:04.655487
3006  2023-11-30 15:04:04.703823
3007  2023-11-30 15:04:04.735096
3008  2023-11-30 15:04:04.778738
3009  2023-11-30 15:04:04.826599
3010  2023-11-30 15:04:04.858050
3011  2023-11-30 15:04:04.904670
3012  2023-11-30 15:04:04.950752
3013  2023-11-30 15:04:04.982039
3014  2023-11-30 15:04:05.028603
3015  2023-11-30 15:04:05.075406
3016  2023-11-30 15:04:05.106642
3017  2023-11-30 15:04:05.154133
3018  2023-11-30 15:04:05.201009
3019  2023-11-30 15:04:05.232923
3020  2023-11-30 15:04:05.279927
3021  2023-11-30 15:04:05.327165
3022  2023-11-30 15:04:05.360215
3023  2023-11-30 15:04:05.406087
3024  2023-11-30 15:04:05.453678
3025  2023-11-30 15:04:05.483864
3026  2023-11-30 15:04:05.530668
3027  2023-11-30 15:04:05.576264
3028  2023-11-30 15:04:05.606819
3029  2023-11-30 15:04:05.653470
3030  2023-11-30 15:04:05.700906
3031  2023-11-30 15:04:05.732719
3032  2023-11-30 15:04:05.778817
3033  2023-11-30 15:04:05.827022
3034  2023-11-30 15:04:05.856830
3035  2023-11-30 15:04:05.903710
3036  2023-11-30 15:04:05.951666
3037  2023-11-30 15:04:05.983782
3038  2023-11-30 15:04:06.031174
3039  2023-11-30 15:04:06.077456
3040  2023-11-30 15:04:06.108947
3041  2023-11-30 15:04:06.156880
3042  2023-11-30 15:04:06.202872
3043  2023-11-30 15:04:06.233788
3044  2023-11-30 15:04:06.279791
3045  2023-11-30 15:04:06.326415
3046  2023-11-30 15:04:06.357514
3047  2023-11-30 15:04:06.404952
3048  2023-11-30 15:04:06.451937
3049  2023-11-30 15:04:06.482921
3050  2023-11-30 15:04:06.529965
3051  2023-11-30 15:04:06.577782
3052  2023-11-30 15:04:06.608821
3053  2023-11-30 15:04:06.656793
3054  2023-11-30 15:04:06.703921
3055  2023-11-30 15:04:06.735852
3056  2023-11-30 15:04:06.783919
3057  2023-11-30 15:04:06.814832
3058  2023-11-30 15:04:06.862923
3059  2023-11-30 15:04:06.909995
3060  2023-11-30 15:04:06.941841
3061  2023-11-30 15:04:06.988903
3062  2023-11-30 15:04:07.034186
3063  2023-11-30 15:04:07.065503
3064  2023-11-30 15:04:07.111671
3065  2023-11-30 15:04:07.158963
3066  2023-11-30 15:04:07.190997
3067  2023-11-30 15:04:07.237664
3068  2023-11-30 15:04:07.283627
3069  2023-11-30 15:04:07.314700
3070  2023-11-30 15:04:07.361021
3071  2023-11-30 15:04:07.408253
3072  2023-11-30 15:04:07.440509
3073  2023-11-30 15:04:07.485936
3074  2023-11-30 15:04:07.533272
3075  2023-11-30 15:04:07.563769
3076  2023-11-30 15:04:07.610396
3077  2023-11-30 15:04:07.656858
3078  2023-11-30 15:04:07.703272
3079  2023-11-30 15:04:07.733918
3080  2023-11-30 15:04:07.779939
3081  2023-11-30 15:04:07.826306
3082  2023-11-30 15:04:07.858374
3083  2023-11-30 15:04:07.905214
3084  2023-11-30 15:04:07.951184
3085  2023-11-30 15:04:07.982309
3086  2023-11-30 15:04:08.031016
3087  2023-11-30 15:04:08.077168
3088  2023-11-30 15:04:08.110193
3089  2023-11-30 15:04:08.156029
3090  2023-11-30 15:04:08.200863
3091  2023-11-30 15:04:08.231679
3092  2023-11-30 15:04:08.277458
3093  2023-11-30 15:04:08.324262
3094  2023-11-30 15:04:08.370810
3095  2023-11-30 15:04:08.401736
3096  2023-11-30 15:04:08.449195
3097  2023-11-30 15:04:08.496398
3098  2023-11-30 15:04:08.526063
3099  2023-11-30 15:04:08.573729
3100  2023-11-30 15:04:08.619111
3101  2023-11-30 15:04:08.651204
3102  2023-11-30 15:04:08.697023
3103  2023-11-30 15:04:08.743209
3104  2023-11-30 15:04:08.774102
3105  2023-11-30 15:04:08.820697
3106  2023-11-30 15:04:08.867072
3107  2023-11-30 15:04:08.898260
3108  2023-11-30 15:04:08.944080
3109  2023-11-30 15:04:08.991010
3110  2023-11-30 15:04:09.022241
3111  2023-11-30 15:04:09.070257
3112  2023-11-30 15:04:09.117575
3113  2023-11-30 15:04:09.148525
3114  2023-11-30 15:04:09.197362
3115  2023-11-30 15:04:09.242992
3116  2023-11-30 15:04:09.274715
3117  2023-11-30 15:04:09.319857
3118  2023-11-30 15:04:09.366822
3119  2023-11-30 15:04:09.397481
3120  2023-11-30 15:04:09.444462
3121  2023-11-30 15:04:09.491217
3122  2023-11-30 15:04:09.522821
3123  2023-11-30 15:04:09.569948
3124  2023-11-30 15:04:09.617288
3125  2023-11-30 15:04:09.648617
3126  2023-11-30 15:04:09.694485
3127  2023-11-30 15:04:09.741297
3128  2023-11-30 15:04:09.786629
3129  2023-11-30 15:04:09.818565
3130  2023-11-30 15:04:09.866377
3131  2023-11-30 15:04:09.899634
3132  2023-11-30 15:04:09.944079
3133  2023-11-30 15:04:09.990969
3134  2023-11-30 15:04:10.037376
3135  2023-11-30 15:04:10.068501
3136  2023-11-30 15:04:10.115532
3137  2023-11-30 15:04:10.147447
3138  2023-11-30 15:04:10.194322
3139  2023-11-30 15:04:10.242223
3140  2023-11-30 15:04:10.274406
3141  2023-11-30 15:04:10.321274
3142  2023-11-30 15:04:10.368031
3143  2023-11-30 15:04:10.399173
3144  2023-11-30 15:04:10.446247
3145  2023-11-30 15:04:10.495406
3146  2023-11-30 15:04:10.525012
3147  2023-11-30 15:04:10.572956
3148  2023-11-30 15:04:10.620931
3149  2023-11-30 15:04:10.652994
3150  2023-11-30 15:04:10.698796
3151  2023-11-30 15:04:10.730808
3152  2023-11-30 15:04:10.776864
3153  2023-11-30 15:04:10.822919
3154  2023-11-30 15:04:10.869915
3155  2023-11-30 15:04:10.899492
3156  2023-11-30 15:04:10.946682
3157  2023-11-30 15:04:10.992527
3158  2023-11-30 15:04:11.023940
3159  2023-11-30 15:04:11.070401
3160  2023-11-30 15:04:11.117399
3161  2023-11-30 15:04:11.149270
3162  2023-11-30 15:04:11.196157
3163  2023-11-30 15:04:11.243830
3164  2023-11-30 15:04:11.274838
3165  2023-11-30 15:04:11.323709
3166  2023-11-30 15:04:11.371018
3167  2023-11-30 15:04:11.400817
3168  2023-11-30 15:04:11.448835
3169  2023-11-30 15:04:11.480816
3170  2023-11-30 15:04:11.529613
3171  2023-11-30 15:04:11.573444
3172  2023-11-30 15:04:11.619377
3173  2023-11-30 15:04:11.650857
3174  2023-11-30 15:04:11.697420
3175  2023-11-30 15:04:11.744246
3176  2023-11-30 15:04:11.775234
3177  2023-11-30 15:04:11.821959
3178  2023-11-30 15:04:11.868391
3179  2023-11-30 15:04:11.900763
3180  2023-11-30 15:04:11.946782
3181  2023-11-30 15:04:11.993621
3182  2023-11-30 15:04:12.025640
3183  2023-11-30 15:04:12.072300
3184  2023-11-30 15:04:12.118311
3185  2023-11-30 15:04:12.149002
3186  2023-11-30 15:04:12.195359
3187  2023-11-30 15:04:12.241237
3188  2023-11-30 15:04:12.273186
3189  2023-11-30 15:04:12.321418
3190  2023-11-30 15:04:12.366405
3191  2023-11-30 15:04:12.397763
3192  2023-11-30 15:04:12.445066
3193  2023-11-30 15:04:12.492394
3194  2023-11-30 15:04:12.524439
3195  2023-11-30 15:04:12.571125
3196  2023-11-30 15:04:12.617185
3197  2023-11-30 15:04:12.651361
3198  2023-11-30 15:04:12.697426
3199  2023-11-30 15:04:12.743703
3200  2023-11-30 15:04:12.773121
3201  2023-11-30 15:04:12.819021
3202  2023-11-30 15:04:12.865640
3203  2023-11-30 15:04:12.912168
3204  2023-11-30 15:04:12.943442
3205  2023-11-30 15:04:12.991192
3206  2023-11-30 15:04:13.037072
3207  2023-11-30 15:04:13.067794
3208  2023-11-30 15:04:13.114812
3209  2023-11-30 15:04:13.165355
3210  2023-11-30 15:04:13.196716
3211  2023-11-30 15:04:13.243073
3212  2023-11-30 15:04:13.288350
3213  2023-11-30 15:04:13.319528
3214  2023-11-30 15:04:13.364132
3215  2023-11-30 15:04:13.412287
3216  2023-11-30 15:04:13.442208
3217  2023-11-30 15:04:13.490148
3218  2023-11-30 15:04:13.536607
3219  2023-11-30 15:04:13.567229
3220  2023-11-30 15:04:13.613211
3221  2023-11-30 15:04:13.661177
3222  2023-11-30 15:04:13.692658
3223  2023-11-30 15:04:13.739891
3224  2023-11-30 15:04:13.786481
3225  2023-11-30 15:04:13.817244
3226  2023-11-30 15:04:13.864202
3227  2023-11-30 15:04:13.912033
3228  2023-11-30 15:04:13.942946
3229  2023-11-30 15:04:13.992734
3230  2023-11-30 15:04:14.039021
3231  2023-11-30 15:04:14.067943
3232  2023-11-30 15:04:14.114233
3233  2023-11-30 15:04:14.161266
3234  2023-11-30 15:04:14.192668
3235  2023-11-30 15:04:14.239308
3236  2023-11-30 15:04:14.285055
3237  2023-11-30 15:04:14.317042
3238  2023-11-30 15:04:14.362521
3239  2023-11-30 15:04:14.410323
3240  2023-11-30 15:04:14.441203
3241  2023-11-30 15:04:14.489199
3242  2023-11-30 15:04:14.536129
3243  2023-11-30 15:04:14.569461
3244  2023-11-30 15:04:14.615259
3245  2023-11-30 15:04:14.662517
3246  2023-11-30 15:04:14.695410
3247  2023-11-30 15:04:14.741614
3248  2023-11-30 15:04:14.773911
3249  2023-11-30 15:04:14.819735
3250  2023-11-30 15:04:14.865654
3251  2023-11-30 15:04:14.912452
3252  2023-11-30 15:04:14.943993
3253  2023-11-30 15:04:14.991116
3254  2023-11-30 15:04:15.037955
3255  2023-11-30 15:04:15.067680
3256  2023-11-30 15:04:15.113989
3257  2023-11-30 15:04:15.160158
3258  2023-11-30 15:04:15.190819
3259  2023-11-30 15:04:15.239774
3260  2023-11-30 15:04:15.286887
3261  2023-11-30 15:04:15.314667
3262  2023-11-30 15:04:15.360772
3263  2023-11-30 15:04:15.406887
3264  2023-11-30 15:04:15.439800
3265  2023-11-30 15:04:15.486294
3266  2023-11-30 15:04:15.534836
3267  2023-11-30 15:04:15.565186
3268  2023-11-30 15:04:15.612149
3269  2023-11-30 15:04:15.657692
3270  2023-11-30 15:04:15.689614
3271  2023-11-30 15:04:15.736077
3272  2023-11-30 15:04:15.784348
3273  2023-11-30 15:04:15.831196
3274  2023-11-30 15:04:15.863113
3275  2023-11-30 15:04:15.908899
3276  2023-11-30 15:04:15.941288
3277  2023-11-30 15:04:15.986045
3278  2023-11-30 15:04:16.032239
3279  2023-11-30 15:04:16.079167
3280  2023-11-30 15:04:16.110071
3281  2023-11-30 15:04:16.157376
3282  2023-11-30 15:04:16.189004
3283  2023-11-30 15:04:16.235571
3284  2023-11-30 15:04:16.281626
3285  2023-11-30 15:04:16.328298
3286  2023-11-30 15:04:16.359212
3287  2023-11-30 15:04:16.406694
3288  2023-11-30 15:04:16.453566
3289  2023-11-30 15:04:16.485508
3290  2023-11-30 15:04:16.532486
3291  2023-11-30 15:04:16.564447
3292  2023-11-30 15:04:16.612330
3293  2023-11-30 15:04:16.657815
3294  2023-11-30 15:04:16.689976
3295  2023-11-30 15:04:16.737398
3296  2023-11-30 15:04:16.784192
3297  2023-11-30 15:04:16.814914
3298  2023-11-30 15:04:16.861541
3299  2023-11-30 15:04:16.907230
3300  2023-11-30 15:04:16.953110
3301  2023-11-30 15:04:16.984337
3302  2023-11-30 15:04:17.032452
3303  2023-11-30 15:04:17.076255
3304  2023-11-30 15:04:17.108824
3305  2023-11-30 15:04:17.154044
3306  2023-11-30 15:04:17.200582
3307  2023-11-30 15:04:17.231510
3308  2023-11-30 15:04:17.278209
3309  2023-11-30 15:04:17.325893
3310  2023-11-30 15:04:17.357661
3311  2023-11-30 15:04:17.405154
3312  2023-11-30 15:04:17.453004
3313  2023-11-30 15:04:17.484184
3314  2023-11-30 15:04:17.530887
3315  2023-11-30 15:04:17.576862
3316  2023-11-30 15:04:17.608229
3317  2023-11-30 15:04:17.656360
3318  2023-11-30 15:04:17.704948
3319  2023-11-30 15:04:17.735700
3320  2023-11-30 15:04:17.780672
3321  2023-11-30 15:04:17.829078
3322  2023-11-30 15:04:17.861256
3323  2023-11-30 15:04:17.907708
3324  2023-11-30 15:04:17.952551
3325  2023-11-30 15:04:17.983397
3326  2023-11-30 15:04:18.030176
3327  2023-11-30 15:04:18.077197
3328  2023-11-30 15:04:18.107862
3329  2023-11-30 15:04:18.155334
3330  2023-11-30 15:04:18.202680
3331  2023-11-30 15:04:18.233673
3332  2023-11-30 15:04:18.279519
3333  2023-11-30 15:04:18.326958
3334  2023-11-30 15:04:18.359015
3335  2023-11-30 15:04:18.406980
3336  2023-11-30 15:04:18.438862
3337  2023-11-30 15:04:18.486360
3338  2023-11-30 15:04:18.535239
3339  2023-11-30 15:04:18.565687
3340  2023-11-30 15:04:18.613249
3341  2023-11-30 15:04:18.660039
3342  2023-11-30 15:04:18.691799
3343  2023-11-30 15:04:18.737955
3344  2023-11-30 15:04:18.782052
3345  2023-11-30 15:04:18.813974
3346  2023-11-30 15:04:18.860060
3347  2023-11-30 15:04:18.907642
3348  2023-11-30 15:04:18.953251
3349  2023-11-30 15:04:18.984822
3350  2023-11-30 15:04:19.030122
3351  2023-11-30 15:04:19.077811
3352  2023-11-30 15:04:19.109877
3353  2023-11-30 15:04:19.156492
3354  2023-11-30 15:04:19.203855
3355  2023-11-30 15:04:19.234493
3356  2023-11-30 15:04:19.283094
3357  2023-11-30 15:04:19.328150
3358  2023-11-30 15:04:19.358096
3359  2023-11-30 15:04:19.404942
3360  2023-11-30 15:04:19.451817
3361  2023-11-30 15:04:19.482734
3362  2023-11-30 15:04:19.529926
3363  2023-11-30 15:04:19.575892
3364  2023-11-30 15:04:19.606641
3365  2023-11-30 15:04:19.654755
3366  2023-11-30 15:04:19.701328
3367  2023-11-30 15:04:19.732683
3368  2023-11-30 15:04:19.778001
3369  2023-11-30 15:04:19.825062
3370  2023-11-30 15:04:19.859286
3371  2023-11-30 15:04:19.904890
3372  2023-11-30 15:04:19.950172
3373  2023-11-30 15:04:19.982057
3374  2023-11-30 15:04:20.029005
3375  2023-11-30 15:04:20.073987
3376  2023-11-30 15:04:20.105967
3377  2023-11-30 15:04:20.152163
3378  2023-11-30 15:04:20.200031
3379  2023-11-30 15:04:20.230581
3380  2023-11-30 15:04:20.277936
3381  2023-11-30 15:04:20.325591
3382  2023-11-30 15:04:20.357268
3383  2023-11-30 15:04:20.404490
3384  2023-11-30 15:04:20.452079
3385  2023-11-30 15:04:20.482997
3386  2023-11-30 15:04:20.532022
3387  2023-11-30 15:04:20.577585
3388  2023-11-30 15:04:20.607015
3389  2023-11-30 15:04:20.653042
3390  2023-11-30 15:04:20.699995
3391  2023-11-30 15:04:20.730928
3392  2023-11-30 15:04:20.776769
3393  2023-11-30 15:04:20.823722
3394  2023-11-30 15:04:20.869818
3395  2023-11-30 15:04:20.902710
3396  2023-11-30 15:04:20.947822
3397  2023-11-30 15:04:20.994062
3398  2023-11-30 15:04:21.026010
3399  2023-11-30 15:04:21.074227
3400  2023-11-30 15:04:21.121823
3401  2023-11-30 15:04:21.152613
3402  2023-11-30 15:04:21.199072
3403  2023-11-30 15:04:21.245197
3404  2023-11-30 15:04:21.276712
3405  2023-11-30 15:04:21.322935
3406  2023-11-30 15:04:21.369460
3407  2023-11-30 15:04:21.400869
3408  2023-11-30 15:04:21.448421
3409  2023-11-30 15:04:21.495082
3410  2023-11-30 15:04:21.526783
3411  2023-11-30 15:04:21.573501
3412  2023-11-30 15:04:21.606017
3413  2023-11-30 15:04:21.652149
3414  2023-11-30 15:04:21.700214
3415  2023-11-30 15:04:21.745335
3416  2023-11-30 15:04:21.776931
3417  2023-11-30 15:04:21.824158
3418  2023-11-30 15:04:21.873913
3419  2023-11-30 15:04:21.902002
3420  2023-11-30 15:04:21.947503
3421  2023-11-30 15:04:21.993841
3422  2023-11-30 15:04:22.024839
3423  2023-11-30 15:04:22.071913
3424  2023-11-30 15:04:22.117804
3425  2023-11-30 15:04:22.148353
3426  2023-11-30 15:04:22.196719
3427  2023-11-30 15:04:22.242860
3428  2023-11-30 15:04:22.274942
3429  2023-11-30 15:04:22.323560
3430  2023-11-30 15:04:22.369579
3431  2023-11-30 15:04:22.399120
3432  2023-11-30 15:04:22.448235
3433  2023-11-30 15:04:22.496111
3434  2023-11-30 15:04:22.527383
3435  2023-11-30 15:04:22.572053
3436  2023-11-30 15:04:22.618475
3437  2023-11-30 15:04:22.649680
3438  2023-11-30 15:04:22.697321
3439  2023-11-30 15:04:22.743652
3440  2023-11-30 15:04:22.774650
3441  2023-11-30 15:04:22.821996
3442  2023-11-30 15:04:22.869199
3443  2023-11-30 15:04:22.900358
3444  2023-11-30 15:04:22.946971
3445  2023-11-30 15:04:22.994943
3446  2023-11-30 15:04:23.024817
3447  2023-11-30 15:04:23.075100
3448  2023-11-30 15:04:23.120287
3449  2023-11-30 15:04:23.152871
3450  2023-11-30 15:04:23.198874
3451  2023-11-30 15:04:23.245045
3452  2023-11-30 15:04:23.275382
3453  2023-11-30 15:04:23.322115
3454  2023-11-30 15:04:23.369155
3455  2023-11-30 15:04:23.400398
3456  2023-11-30 15:04:23.448307
3457  2023-11-30 15:04:23.495180
3458  2023-11-30 15:04:23.526066
3459  2023-11-30 15:04:23.572451
3460  2023-11-30 15:04:23.618044
3461  2023-11-30 15:04:23.649790
3462  2023-11-30 15:04:23.695780
3463  2023-11-30 15:04:23.743443
3464  2023-11-30 15:04:23.775251
3465  2023-11-30 15:04:23.822864
3466  2023-11-30 15:04:23.870949
3467  2023-11-30 15:04:23.901165
3468  2023-11-30 15:04:23.946699
3469  2023-11-30 15:04:23.993589
3470  2023-11-30 15:04:24.024793
3471  2023-11-30 15:04:24.072204
3472  2023-11-30 15:04:24.118817
3473  2023-11-30 15:04:24.150557
3474  2023-11-30 15:04:24.197400
3475  2023-11-30 15:04:24.245313
3476  2023-11-30 15:04:24.276202
3477  2023-11-30 15:04:24.323404
3478  2023-11-30 15:04:24.369827
3479  2023-11-30 15:04:24.401223
3480  2023-11-30 15:04:24.447353
3481  2023-11-30 15:04:24.495092
3482  2023-11-30 15:04:24.525700
3483  2023-11-30 15:04:24.574306
3484  2023-11-30 15:04:24.622275
3485  2023-11-30 15:04:24.650335
3486  2023-11-30 15:04:24.696683
3487  2023-11-30 15:04:24.742800
3488  2023-11-30 15:04:24.773694
3489  2023-11-30 15:04:24.820708
3490  2023-11-30 15:04:24.868260
3491  2023-11-30 15:04:24.898862
3492  2023-11-30 15:04:24.946841
3493  2023-11-30 15:04:24.993576
3494  2023-11-30 15:04:25.025263
3495  2023-11-30 15:04:25.071046
3496  2023-11-30 15:04:25.119198
3497  2023-11-30 15:04:25.149585
3498  2023-11-30 15:04:25.198291
3499  2023-11-30 15:04:25.245743
3500  2023-11-30 15:04:25.274289
3501  2023-11-30 15:04:25.321092
3502  2023-11-30 15:04:25.368931
3503  2023-11-30 15:04:25.400846
3504  2023-11-30 15:04:25.448155
3505  2023-11-30 15:04:25.495030
3506  2023-11-30 15:04:25.526978
3507  2023-11-30 15:04:25.574821
3508  2023-11-30 15:04:25.606772
3509  2023-11-30 15:04:25.653636
3510  2023-11-30 15:04:25.700517
3511  2023-11-30 15:04:25.731133
3512  2023-11-30 15:04:25.778917
3513  2023-11-30 15:04:25.823897
3514  2023-11-30 15:04:25.856070
3515  2023-11-30 15:04:25.902782
3516  2023-11-30 15:04:25.950762
3517  2023-11-30 15:04:25.982872
3518  2023-11-30 15:04:26.030751
3519  2023-11-30 15:04:26.076799
3520  2023-11-30 15:04:26.110350
3521  2023-11-30 15:04:26.157269
3522  2023-11-30 15:04:26.201955
3523  2023-11-30 15:04:26.231918
3524  2023-11-30 15:04:26.279632
3525  2023-11-30 15:04:26.326066
3526  2023-11-30 15:04:26.356777
3527  2023-11-30 15:04:26.403387
3528  2023-11-30 15:04:26.450728
3529  2023-11-30 15:04:26.481306
3530  2023-11-30 15:04:26.528088
3531  2023-11-30 15:04:26.575307
3532  2023-11-30 15:04:26.606259
3533  2023-11-30 15:04:26.655108
3534  2023-11-30 15:04:26.702184
3535  2023-11-30 15:04:26.732222
3536  2023-11-30 15:04:26.777730
3537  2023-11-30 15:04:26.823493
3538  2023-11-30 15:04:26.869929
3539  2023-11-30 15:04:26.900959
3540  2023-11-30 15:04:26.947719
3541  2023-11-30 15:04:26.994922
3542  2023-11-30 15:04:27.025918
3543  2023-11-30 15:04:27.072605
3544  2023-11-30 15:04:27.118037
3545  2023-11-30 15:04:27.149690
3546  2023-11-30 15:04:27.196710
3547  2023-11-30 15:04:27.243665
3548  2023-11-30 15:04:27.275407
3549  2023-11-30 15:04:27.323266
3550  2023-11-30 15:04:27.371077
3551  2023-11-30 15:04:27.403109
3552  2023-11-30 15:04:27.447556
3553  2023-11-30 15:04:27.493900
3554  2023-11-30 15:04:27.525021
3555  2023-11-30 15:04:27.572911
3556  2023-11-30 15:04:27.619456
3557  2023-11-30 15:04:27.651171
3558  2023-11-30 15:04:27.697362
3559  2023-11-30 15:04:27.744148
3560  2023-11-30 15:04:27.777301
3561  2023-11-30 15:04:27.822215
