
1  2023-10-18 09:49:25.897783
2  2023-10-18 09:49:25.929695
3  2023-10-18 09:49:25.961610
4  2023-10-18 09:49:25.993062
5  2023-10-18 09:49:26.025032
6  2023-10-18 09:49:26.056990
7  2023-10-18 09:49:26.088937
8  2023-10-18 09:49:26.137775
9  2023-10-18 09:49:26.169690
10  2023-10-18 09:49:26.201605
11  2023-10-18 09:49:26.234516
12  2023-10-18 09:49:26.266431
13  2023-10-18 09:49:26.297348
14  2023-10-18 09:49:26.329266
15  2023-10-18 09:49:26.361269
16  2023-10-18 09:49:26.393302
17  2023-10-18 09:49:26.425281
18  2023-10-18 09:49:26.457193
19  2023-10-18 09:49:26.489141
20  2023-10-18 09:49:26.537978
21  2023-10-18 09:49:26.568895
22  2023-10-18 09:49:26.601807
23  2023-10-18 09:49:26.633797
24  2023-10-18 09:49:26.665772
25  2023-10-18 09:49:26.697626
26  2023-10-18 09:49:26.729574
27  2023-10-18 09:49:26.761493
28  2023-10-18 09:49:26.793092
29  2023-10-18 09:49:26.825042
30  2023-10-18 09:49:26.856922
31  2023-10-18 09:49:26.888837
32  2023-10-18 09:49:26.937707
33  2023-10-18 09:49:26.969621
34  2023-10-18 09:49:27.001568
35  2023-10-18 09:49:27.033482
36  2023-10-18 09:49:27.065422
37  2023-10-18 09:49:27.097311
38  2023-10-18 09:49:27.129227
39  2023-10-18 09:49:27.161179
40  2023-10-18 09:49:27.193174
41  2023-10-18 09:49:27.225079
42  2023-10-18 09:49:27.256957
43  2023-10-18 09:49:27.288919
44  2023-10-18 09:49:27.337777
45  2023-10-18 09:49:27.369657
46  2023-10-18 09:49:27.401606
47  2023-10-18 09:49:27.433488
48  2023-10-18 09:49:27.465400
49  2023-10-18 09:49:27.497315
50  2023-10-18 09:49:27.529262
51  2023-10-18 09:49:27.561220
52  2023-10-18 09:49:27.593059
53  2023-10-18 09:49:27.624974
54  2023-10-18 09:49:27.656938
55  2023-10-18 09:49:27.688885
56  2023-10-18 09:49:27.737915
57  2023-10-18 09:49:27.769831
58  2023-10-18 09:49:27.801745
59  2023-10-18 09:49:27.833684
60  2023-10-18 09:49:27.865543
61  2023-10-18 09:49:27.897488
62  2023-10-18 09:49:27.929372
63  2023-10-18 09:49:27.961287
64  2023-10-18 09:49:27.993202
65  2023-10-18 09:49:28.025189
66  2023-10-18 09:49:28.057096
67  2023-10-18 09:49:28.089976
68  2023-10-18 09:49:28.137849
69  2023-10-18 09:49:28.169763
70  2023-10-18 09:49:28.201684
71  2023-10-18 09:49:28.233592
72  2023-10-18 09:49:28.265509
73  2023-10-18 09:49:28.297458
74  2023-10-18 09:49:28.329337
75  2023-10-18 09:49:28.361251
76  2023-10-18 09:49:28.394165
77  2023-10-18 09:49:28.426079
78  2023-10-18 09:49:28.457049
79  2023-10-18 09:49:28.489908
80  2023-10-18 09:49:28.537759
81  2023-10-18 09:49:28.569674
82  2023-10-18 09:49:28.601590
83  2023-10-18 09:49:28.634545
84  2023-10-18 09:49:28.665461
85  2023-10-18 09:49:28.697376
86  2023-10-18 09:49:28.730288
87  2023-10-18 09:49:28.762209
88  2023-10-18 09:49:28.793171
89  2023-10-18 09:49:28.826032
90  2023-10-18 09:49:28.856950
91  2023-10-18 09:49:28.905820
92  2023-10-18 09:49:28.937734
93  2023-10-18 09:49:28.969648
94  2023-10-18 09:49:29.001562
95  2023-10-18 09:49:29.033502
96  2023-10-18 09:49:29.065392
97  2023-10-18 09:49:29.097332
98  2023-10-18 09:49:29.129222
99  2023-10-18 09:49:29.161185
100  2023-10-18 09:49:29.193051
101  2023-10-18 09:49:29.225963
102  2023-10-18 09:49:29.256917
103  2023-10-18 09:49:29.305785
104  2023-10-18 09:49:29.337696
105  2023-10-18 09:49:29.369607
106  2023-10-18 09:49:29.401528
107  2023-10-18 09:49:29.433418
108  2023-10-18 09:49:29.465323
109  2023-10-18 09:49:29.497237
110  2023-10-18 09:49:29.648833
111  2023-10-18 09:49:29.657812
112  2023-10-18 09:49:29.705710
113  2023-10-18 09:49:29.737595
114  2023-10-18 09:49:29.769543
115  2023-10-18 09:49:29.801424
116  2023-10-18 09:49:29.833368
117  2023-10-18 09:49:29.865259
118  2023-10-18 09:49:29.897236
119  2023-10-18 09:49:29.929083
120  2023-10-18 09:49:29.961026
121  2023-10-18 09:49:29.993910
122  2023-10-18 09:49:30.025826
123  2023-10-18 09:49:30.057739
124  2023-10-18 09:49:30.105646
125  2023-10-18 09:49:30.137526
126  2023-10-18 09:49:30.169477
127  2023-10-18 09:49:30.201355
128  2023-10-18 09:49:30.233299
129  2023-10-18 09:49:30.265151
130  2023-10-18 09:49:30.297066
131  2023-10-18 09:49:30.329013
132  2023-10-18 09:49:30.360943
133  2023-10-18 09:49:30.392895
134  2023-10-18 09:49:30.425771
135  2023-10-18 09:49:30.457451
136  2023-10-18 09:49:30.505323
137  2023-10-18 09:49:30.537238
138  2023-10-18 09:49:30.569152
139  2023-10-18 09:49:30.601140
140  2023-10-18 09:49:30.634053
141  2023-10-18 09:49:30.664968
142  2023-10-18 09:49:30.697881
143  2023-10-18 09:49:30.729835
144  2023-10-18 09:49:30.761761
145  2023-10-18 09:49:30.793656
146  2023-10-18 09:49:30.857456
147  2023-10-18 09:49:30.917296
148  2023-10-18 09:49:30.946217
149  2023-10-18 09:49:30.993093
150  2023-10-18 09:49:31.033983
151  2023-10-18 09:49:31.065898
152  2023-10-18 09:49:31.096814
153  2023-10-18 09:49:31.129727
154  2023-10-18 09:49:31.161641
155  2023-10-18 09:49:31.193556
156  2023-10-18 09:49:31.225472
157  2023-10-18 09:49:31.257385
158  2023-10-18 09:49:31.305257
159  2023-10-18 09:49:31.337187
160  2023-10-18 09:49:31.369090
161  2023-10-18 09:49:31.401036
162  2023-10-18 09:49:31.432951
163  2023-10-18 09:49:31.465831
164  2023-10-18 09:49:31.497777
165  2023-10-18 09:49:31.529689
166  2023-10-18 09:49:31.561611
167  2023-10-18 09:49:31.593487
168  2023-10-18 09:49:31.625401
169  2023-10-18 09:49:31.657315
170  2023-10-18 09:49:31.705174
171  2023-10-18 09:49:31.737455
172  2023-10-18 09:49:31.769344
173  2023-10-18 09:49:31.801258
174  2023-10-18 09:49:31.833234
175  2023-10-18 09:49:31.865142
176  2023-10-18 09:49:31.897038
177  2023-10-18 09:49:31.929916
178  2023-10-18 09:49:31.960867
179  2023-10-18 09:49:31.993795
180  2023-10-18 09:49:32.025684
181  2023-10-18 09:49:32.057608
182  2023-10-18 09:49:32.105445
183  2023-10-18 09:49:32.137360
184  2023-10-18 09:49:32.169274
185  2023-10-18 09:49:32.201191
186  2023-10-18 09:49:32.234103
187  2023-10-18 09:49:32.266017
188  2023-10-18 09:49:32.296934
189  2023-10-18 09:49:32.329847
190  2023-10-18 09:49:32.361761
191  2023-10-18 09:49:32.393700
192  2023-10-18 09:49:32.425590
193  2023-10-18 09:49:32.473462
194  2023-10-18 09:49:32.505376
195  2023-10-18 09:49:32.537325
196  2023-10-18 09:49:32.569243
197  2023-10-18 09:49:32.601121
198  2023-10-18 09:49:32.634033
199  2023-10-18 09:49:32.665949
200  2023-10-18 09:49:32.697863
201  2023-10-18 09:49:32.729776
202  2023-10-18 09:49:32.761693
203  2023-10-18 09:49:32.793607
204  2023-10-18 09:49:32.825521
205  2023-10-18 09:49:32.872903
206  2023-10-18 09:49:32.904916
207  2023-10-18 09:49:32.937837
208  2023-10-18 09:49:32.969768
209  2023-10-18 09:49:33.001656
210  2023-10-18 09:49:33.033572
211  2023-10-18 09:49:33.065519
212  2023-10-18 09:49:33.097402
213  2023-10-18 09:49:33.129351
214  2023-10-18 09:49:33.161273
215  2023-10-18 09:49:33.193144
216  2023-10-18 09:49:33.225094
217  2023-10-18 09:49:33.273961
218  2023-10-18 09:49:33.304846
219  2023-10-18 09:49:33.336791
220  2023-10-18 09:49:33.369747
221  2023-10-18 09:49:33.401620
222  2023-10-18 09:49:33.433536
223  2023-10-18 09:49:33.465469
224  2023-10-18 09:49:33.497331
225  2023-10-18 09:49:33.529300
226  2023-10-18 09:49:33.561196
227  2023-10-18 09:49:33.593075
228  2023-10-18 09:49:33.626016
229  2023-10-18 09:49:33.673859
230  2023-10-18 09:49:33.705774
231  2023-10-18 09:49:33.737738
232  2023-10-18 09:49:33.769652
233  2023-10-18 09:49:33.801518
234  2023-10-18 09:49:33.833432
235  2023-10-18 09:49:33.865397
236  2023-10-18 09:49:33.897299
237  2023-10-18 09:49:33.929251
238  2023-10-18 09:49:33.961091
239  2023-10-18 09:49:33.993006
240  2023-10-18 09:49:34.024970
241  2023-10-18 09:49:34.073790
242  2023-10-18 09:49:34.105705
243  2023-10-18 09:49:34.137668
244  2023-10-18 09:49:34.169535
245  2023-10-18 09:49:34.201463
246  2023-10-18 09:49:34.233363
247  2023-10-18 09:49:34.265279
248  2023-10-18 09:49:34.297229
249  2023-10-18 09:49:34.329109
250  2023-10-18 09:49:34.361022
251  2023-10-18 09:49:34.392968
252  2023-10-18 09:49:34.425849
253  2023-10-18 09:49:34.473721
254  2023-10-18 09:49:34.505635
255  2023-10-18 09:49:34.537551
256  2023-10-18 09:49:34.569499
257  2023-10-18 09:49:34.601380
258  2023-10-18 09:49:34.633321
259  2023-10-18 09:49:34.665209
260  2023-10-18 09:49:35.213743
261  2023-10-18 09:49:35.225711
262  2023-10-18 09:49:35.273194
263  2023-10-18 09:49:35.305109
264  2023-10-18 09:49:35.337023
265  2023-10-18 09:49:35.369937
266  2023-10-18 09:49:35.400853
267  2023-10-18 09:49:35.433765
268  2023-10-18 09:49:35.465709
269  2023-10-18 09:49:35.497624
270  2023-10-18 09:49:35.529548
271  2023-10-18 09:49:35.561428
272  2023-10-18 09:49:35.593370
273  2023-10-18 09:49:35.625287
274  2023-10-18 09:49:35.673127
275  2023-10-18 09:49:35.705076
276  2023-10-18 09:49:35.736988
277  2023-10-18 09:49:35.768911
278  2023-10-18 09:49:35.801783
279  2023-10-18 09:49:35.833725
280  2023-10-18 09:49:35.865617
281  2023-10-18 09:49:35.897525
282  2023-10-18 09:49:35.929319
283  2023-10-18 09:49:35.961234
284  2023-10-18 09:49:35.993148
285  2023-10-18 09:49:36.025062
286  2023-10-18 09:49:36.072965
287  2023-10-18 09:49:36.105847
288  2023-10-18 09:49:36.137763
289  2023-10-18 09:49:36.169678
290  2023-10-18 09:49:36.201591
291  2023-10-18 09:49:36.233727
292  2023-10-18 09:49:36.265616
293  2023-10-18 09:49:36.297564
294  2023-10-18 09:49:36.329478
295  2023-10-18 09:49:36.361361
296  2023-10-18 09:49:36.393275
297  2023-10-18 09:49:36.441176
298  2023-10-18 09:49:36.473061
299  2023-10-18 09:49:36.505012
300  2023-10-18 09:49:36.536924
301  2023-10-18 09:49:36.569844
302  2023-10-18 09:49:36.601720
303  2023-10-18 09:49:36.633632
304  2023-10-18 09:49:36.665548
305  2023-10-18 09:49:36.697496
306  2023-10-18 09:49:36.729377
307  2023-10-18 09:49:36.761337
308  2023-10-18 09:49:36.793245
309  2023-10-18 09:49:36.841125
310  2023-10-18 09:49:36.873087
311  2023-10-18 09:49:36.904987
312  2023-10-18 09:49:36.937905
313  2023-10-18 09:49:36.969796
314  2023-10-18 09:49:37.001696
315  2023-10-18 09:49:37.033642
316  2023-10-18 09:49:37.065526
317  2023-10-18 09:49:37.097477
318  2023-10-18 09:49:37.129366
319  2023-10-18 09:49:37.161309
320  2023-10-18 09:49:37.193227
321  2023-10-18 09:49:37.241082
322  2023-10-18 09:49:37.272996
323  2023-10-18 09:49:37.304935
324  2023-10-18 09:49:37.337854
325  2023-10-18 09:49:37.369748
326  2023-10-18 09:49:37.401769
327  2023-10-18 09:49:37.433625
328  2023-10-18 09:49:37.465540
329  2023-10-18 09:49:37.497487
330  2023-10-18 09:49:37.529401
331  2023-10-18 09:49:37.561318
332  2023-10-18 09:49:37.593198
333  2023-10-18 09:49:37.642101
334  2023-10-18 09:49:37.673983
335  2023-10-18 09:49:37.704900
336  2023-10-18 09:49:37.736889
337  2023-10-18 09:49:37.769779
338  2023-10-18 09:49:37.801686
339  2023-10-18 09:49:37.833648
340  2023-10-18 09:49:37.865587
341  2023-10-18 09:49:37.897534
342  2023-10-18 09:49:37.929387
343  2023-10-18 09:49:37.961302
344  2023-10-18 09:49:37.994248
345  2023-10-18 09:49:38.041122
346  2023-10-18 09:49:38.074065
347  2023-10-18 09:49:38.105950
348  2023-10-18 09:49:38.137865
349  2023-10-18 09:49:38.169811
350  2023-10-18 09:49:38.201627
351  2023-10-18 09:49:38.233627
352  2023-10-18 09:49:38.265548
353  2023-10-18 09:49:38.297671
354  2023-10-18 09:49:38.329586
355  2023-10-18 09:49:38.361501
356  2023-10-18 09:49:38.393415
357  2023-10-18 09:49:38.441289
358  2023-10-18 09:49:38.473237
359  2023-10-18 09:49:38.505152
360  2023-10-18 09:49:38.537120
361  2023-10-18 09:49:38.570012
362  2023-10-18 09:49:38.601908
363  2023-10-18 09:49:38.633841
364  2023-10-18 09:49:38.665756
365  2023-10-18 09:49:38.697664
366  2023-10-18 09:49:38.729546
367  2023-10-18 09:49:38.761463
368  2023-10-18 09:49:38.793433
369  2023-10-18 09:49:38.841333
370  2023-10-18 09:49:38.873290
371  2023-10-18 09:49:38.905163
372  2023-10-18 09:49:38.937078
373  2023-10-18 09:49:38.970027
374  2023-10-18 09:49:39.001905
375  2023-10-18 09:49:39.033819
376  2023-10-18 09:49:39.065738
377  2023-10-18 09:49:39.097550
378  2023-10-18 09:49:39.129573
379  2023-10-18 09:49:39.161490
380  2023-10-18 09:49:39.193371
381  2023-10-18 09:49:39.241278
382  2023-10-18 09:49:39.273160
383  2023-10-18 09:49:39.305073
384  2023-10-18 09:49:39.337033
385  2023-10-18 09:49:39.369899
386  2023-10-18 09:49:39.401868
387  2023-10-18 09:49:39.433729
388  2023-10-18 09:49:39.465644
389  2023-10-18 09:49:39.497558
390  2023-10-18 09:49:39.529505
391  2023-10-18 09:49:39.561425
392  2023-10-18 09:49:39.593302
393  2023-10-18 09:49:39.641220
394  2023-10-18 09:49:39.673150
395  2023-10-18 09:49:39.705003
396  2023-10-18 09:49:39.736990
397  2023-10-18 09:49:39.769831
398  2023-10-18 09:49:39.801783
399  2023-10-18 09:49:39.833710
400  2023-10-18 09:49:39.865574
401  2023-10-18 09:49:39.897522
402  2023-10-18 09:49:39.929435
403  2023-10-18 09:49:39.961318
404  2023-10-18 09:49:40.009263
405  2023-10-18 09:49:40.041139
406  2023-10-18 09:49:40.074017
407  2023-10-18 09:49:40.105933
408  2023-10-18 09:49:40.137846
409  2023-10-18 09:49:40.169795
410  2023-10-18 09:49:40.201709
411  2023-10-18 09:49:40.233643
412  2023-10-18 09:49:40.265507
413  2023-10-18 09:49:40.546755
414  2023-10-18 09:49:40.569719
415  2023-10-18 09:49:40.601607
416  2023-10-18 09:49:40.634524
417  2023-10-18 09:49:40.665470
418  2023-10-18 09:49:40.698352
419  2023-10-18 09:49:40.729308
420  2023-10-18 09:49:40.762180
421  2023-10-18 09:49:40.810052
422  2023-10-18 09:49:40.841966
423  2023-10-18 09:49:40.873914
424  2023-10-18 09:49:40.905802
425  2023-10-18 09:49:40.937710
426  2023-10-18 09:49:40.969624
427  2023-10-18 09:49:41.001539
428  2023-10-18 09:49:41.033484
429  2023-10-18 09:49:41.065417
430  2023-10-18 09:49:41.097284
431  2023-10-18 09:49:41.129262
432  2023-10-18 09:49:41.161189
433  2023-10-18 09:49:41.208984
434  2023-10-18 09:49:41.241926
435  2023-10-18 09:49:41.272849
436  2023-10-18 09:49:41.305726
437  2023-10-18 09:49:41.337640
438  2023-10-18 09:49:41.369555
439  2023-10-18 09:49:41.401470
440  2023-10-18 09:49:41.433412
441  2023-10-18 09:49:41.465299
442  2023-10-18 09:49:41.497214
443  2023-10-18 09:49:41.529161
444  2023-10-18 09:49:41.561077
445  2023-10-18 09:49:41.609912
446  2023-10-18 09:49:41.641836
447  2023-10-18 09:49:41.673742
448  2023-10-18 09:49:41.705656
449  2023-10-18 09:49:41.737572
450  2023-10-18 09:49:41.769486
451  2023-10-18 09:49:41.801400
452  2023-10-18 09:49:41.833315
453  2023-10-18 09:49:41.865230
454  2023-10-18 09:49:41.897145
455  2023-10-18 09:49:41.929107
456  2023-10-18 09:49:41.960974
457  2023-10-18 09:49:42.009843
458  2023-10-18 09:49:42.041758
459  2023-10-18 09:49:42.073703
460  2023-10-18 09:49:42.105621
461  2023-10-18 09:49:42.137503
462  2023-10-18 09:49:42.169417
463  2023-10-18 09:49:42.201332
464  2023-10-18 09:49:42.233329
465  2023-10-18 09:49:42.265161
466  2023-10-18 09:49:42.297075
467  2023-10-18 09:49:42.329021
468  2023-10-18 09:49:42.360951
469  2023-10-18 09:49:42.409774
470  2023-10-18 09:49:42.441775
471  2023-10-18 09:49:42.473677
472  2023-10-18 09:49:42.505518
473  2023-10-18 09:49:42.537433
474  2023-10-18 09:49:42.569388
475  2023-10-18 09:49:42.601335
476  2023-10-18 09:49:42.633219
477  2023-10-18 09:49:42.665091
478  2023-10-18 09:49:42.697006
479  2023-10-18 09:49:42.728966
480  2023-10-18 09:49:42.761833
481  2023-10-18 09:49:42.809759
482  2023-10-18 09:49:42.841668
483  2023-10-18 09:49:42.873535
484  2023-10-18 09:49:42.905497
485  2023-10-18 09:49:42.937397
486  2023-10-18 09:49:42.969312
487  2023-10-18 09:49:43.001193
488  2023-10-18 09:49:43.034156
489  2023-10-18 09:49:43.065052
490  2023-10-18 09:49:43.096937
491  2023-10-18 09:49:43.128897
492  2023-10-18 09:49:43.161764
493  2023-10-18 09:49:43.209636
494  2023-10-18 09:49:43.241551
495  2023-10-18 09:49:43.273517
496  2023-10-18 09:49:43.305380
497  2023-10-18 09:49:43.337295
498  2023-10-18 09:49:43.369209
499  2023-10-18 09:49:43.402122
500  2023-10-18 09:49:43.434037
501  2023-10-18 09:49:43.465952
502  2023-10-18 09:49:43.497866
503  2023-10-18 09:49:43.529780
504  2023-10-18 09:49:43.561731
505  2023-10-18 09:49:43.609567
506  2023-10-18 09:49:43.641511
507  2023-10-18 09:49:43.673450
508  2023-10-18 09:49:43.705338
509  2023-10-18 09:49:43.737226
510  2023-10-18 09:49:43.769187
511  2023-10-18 09:49:43.801087
512  2023-10-18 09:49:43.833012
513  2023-10-18 09:49:43.865881
514  2023-10-18 09:49:43.897797
515  2023-10-18 09:49:43.929740
516  2023-10-18 09:49:43.977583
517  2023-10-18 09:49:44.009498
518  2023-10-18 09:49:44.041412
519  2023-10-18 09:49:44.073333
520  2023-10-18 09:49:44.105242
521  2023-10-18 09:49:44.137185
522  2023-10-18 09:49:44.169171
523  2023-10-18 09:49:44.201086
524  2023-10-18 09:49:44.233047
525  2023-10-18 09:49:44.264946
526  2023-10-18 09:49:44.297827
527  2023-10-18 09:49:44.329742
528  2023-10-18 09:49:44.377614
529  2023-10-18 09:49:44.409529
530  2023-10-18 09:49:44.441495
531  2023-10-18 09:49:44.473390
532  2023-10-18 09:49:44.505273
533  2023-10-18 09:49:44.537194
534  2023-10-18 09:49:44.569135
535  2023-10-18 09:49:44.601079
536  2023-10-18 09:49:44.632931
537  2023-10-18 09:49:44.665843
538  2023-10-18 09:49:44.697796
539  2023-10-18 09:49:44.729704
540  2023-10-18 09:49:44.777573
541  2023-10-18 09:49:44.809512
542  2023-10-18 09:49:44.841374
543  2023-10-18 09:49:44.873289
544  2023-10-18 09:49:44.905288
545  2023-10-18 09:49:44.937118
546  2023-10-18 09:49:44.970030
547  2023-10-18 09:49:45.001945
548  2023-10-18 09:49:45.033868
549  2023-10-18 09:49:45.065774
550  2023-10-18 09:49:45.097689
551  2023-10-18 09:49:45.129604
552  2023-10-18 09:49:45.177476
553  2023-10-18 09:49:45.209498
554  2023-10-18 09:49:45.241407
555  2023-10-18 09:49:45.274346
556  2023-10-18 09:49:45.305236
557  2023-10-18 09:49:45.337151
558  2023-10-18 09:49:45.370064
559  2023-10-18 09:49:45.400980
560  2023-10-18 09:49:45.433919
561  2023-10-18 09:49:45.465807
562  2023-10-18 09:49:45.497722
563  2023-10-18 09:49:45.529636
564  2023-10-18 09:49:45.577510
565  2023-10-18 09:49:45.924588
566  2023-10-18 09:49:45.932562
567  2023-10-18 09:49:45.977635
568  2023-10-18 09:49:46.009542
569  2023-10-18 09:49:46.041457
570  2023-10-18 09:49:46.073372
571  2023-10-18 09:49:46.105287
572  2023-10-18 09:49:46.137206
573  2023-10-18 09:49:46.169116
574  2023-10-18 09:49:46.201031
575  2023-10-18 09:49:46.233014
576  2023-10-18 09:49:46.265891
577  2023-10-18 09:49:46.297805
578  2023-10-18 09:49:46.329719
579  2023-10-18 09:49:46.377591
580  2023-10-18 09:49:46.409506
581  2023-10-18 09:49:46.441450
582  2023-10-18 09:49:46.473361
583  2023-10-18 09:49:46.505250
584  2023-10-18 09:49:46.537164
585  2023-10-18 09:49:46.570076
586  2023-10-18 09:49:46.601991
587  2023-10-18 09:49:46.632908
588  2023-10-18 09:49:46.665843
589  2023-10-18 09:49:46.697837
590  2023-10-18 09:49:46.729835
591  2023-10-18 09:49:46.777652
592  2023-10-18 09:49:46.809590
593  2023-10-18 09:49:46.841453
594  2023-10-18 09:49:46.873367
595  2023-10-18 09:49:46.905313
596  2023-10-18 09:49:46.937280
597  2023-10-18 09:49:46.969111
598  2023-10-18 09:49:47.002023
599  2023-10-18 09:49:47.033939
600  2023-10-18 09:49:47.065895
601  2023-10-18 09:49:47.097817
602  2023-10-18 09:49:47.129673
603  2023-10-18 09:49:47.177545
604  2023-10-18 09:49:47.209459
605  2023-10-18 09:49:47.241374
606  2023-10-18 09:49:47.273325
607  2023-10-18 09:49:47.305203
608  2023-10-18 09:49:47.337118
609  2023-10-18 09:49:47.369033
610  2023-10-18 09:49:47.401945
611  2023-10-18 09:49:47.433865
612  2023-10-18 09:49:47.465774
613  2023-10-18 09:49:47.497689
614  2023-10-18 09:49:47.545561
615  2023-10-18 09:49:47.577475
616  2023-10-18 09:49:47.609390
617  2023-10-18 09:49:47.641305
618  2023-10-18 09:49:47.673219
619  2023-10-18 09:49:47.705136
620  2023-10-18 09:49:47.737061
621  2023-10-18 09:49:47.769994
622  2023-10-18 09:49:47.800878
623  2023-10-18 09:49:47.833790
624  2023-10-18 09:49:47.865705
625  2023-10-18 09:49:47.897620
626  2023-10-18 09:49:47.945492
627  2023-10-18 09:49:47.977436
628  2023-10-18 09:49:48.010350
629  2023-10-18 09:49:48.042265
630  2023-10-18 09:49:48.074178
631  2023-10-18 09:49:48.106094
632  2023-10-18 09:49:48.138008
633  2023-10-18 09:49:48.169927
634  2023-10-18 09:49:48.201837
635  2023-10-18 09:49:48.233752
636  2023-10-18 09:49:48.265666
637  2023-10-18 09:49:48.297582
638  2023-10-18 09:49:48.345455
639  2023-10-18 09:49:48.377367
640  2023-10-18 09:49:48.409284
641  2023-10-18 09:49:48.442195
642  2023-10-18 09:49:48.474153
643  2023-10-18 09:49:48.506028
644  2023-10-18 09:49:48.537977
645  2023-10-18 09:49:48.568856
646  2023-10-18 09:49:48.601768
647  2023-10-18 09:49:48.633682
648  2023-10-18 09:49:48.665597
649  2023-10-18 09:49:48.697511
650  2023-10-18 09:49:48.745383
651  2023-10-18 09:49:48.777298
652  2023-10-18 09:49:48.809213
653  2023-10-18 09:49:48.841128
654  2023-10-18 09:49:48.873042
655  2023-10-18 09:49:48.905957
656  2023-10-18 09:49:48.937870
657  2023-10-18 09:49:48.969783
658  2023-10-18 09:49:49.001698
659  2023-10-18 09:49:49.033613
660  2023-10-18 09:49:49.065553
661  2023-10-18 09:49:49.097480
662  2023-10-18 09:49:49.145355
663  2023-10-18 09:49:49.177239
664  2023-10-18 09:49:49.209143
665  2023-10-18 09:49:49.242056
666  2023-10-18 09:49:49.273971
667  2023-10-18 09:49:49.305941
668  2023-10-18 09:49:49.336907
669  2023-10-18 09:49:49.369819
670  2023-10-18 09:49:49.401808
671  2023-10-18 09:49:49.433651
672  2023-10-18 09:49:49.465563
673  2023-10-18 09:49:49.497478
674  2023-10-18 09:49:49.545350
675  2023-10-18 09:49:49.577265
676  2023-10-18 09:49:49.609180
677  2023-10-18 09:49:49.642093
678  2023-10-18 09:49:49.673009
679  2023-10-18 09:49:49.705921
680  2023-10-18 09:49:49.736838
681  2023-10-18 09:49:49.769750
682  2023-10-18 09:49:49.801665
683  2023-10-18 09:49:49.833580
684  2023-10-18 09:49:49.865494
685  2023-10-18 09:49:49.897442
686  2023-10-18 09:49:49.945397
687  2023-10-18 09:49:49.977285
688  2023-10-18 09:49:50.009222
689  2023-10-18 09:49:50.042104
690  2023-10-18 09:49:50.074019
691  2023-10-18 09:49:50.105966
692  2023-10-18 09:49:50.137848
693  2023-10-18 09:49:50.169762
694  2023-10-18 09:49:50.201677
695  2023-10-18 09:49:50.234619
696  2023-10-18 09:49:50.265533
697  2023-10-18 09:49:50.297421
698  2023-10-18 09:49:50.346346
699  2023-10-18 09:49:50.377208
700  2023-10-18 09:49:50.409122
701  2023-10-18 09:49:50.442060
702  2023-10-18 09:49:50.472952
703  2023-10-18 09:49:50.505865
704  2023-10-18 09:49:50.537779
705  2023-10-18 09:49:50.569729
706  2023-10-18 09:49:50.601608
707  2023-10-18 09:49:50.633523
708  2023-10-18 09:49:50.665437
709  2023-10-18 09:49:50.697402
710  2023-10-18 09:49:50.745224
711  2023-10-18 09:49:50.778169
712  2023-10-18 09:49:50.810090
713  2023-10-18 09:49:50.841998
714  2023-10-18 09:49:50.873882
715  2023-10-18 09:49:50.905796
716  2023-10-18 09:49:50.937709
717  2023-10-18 09:49:51.263871
718  2023-10-18 09:49:51.273881
719  2023-10-18 09:49:51.305728
720  2023-10-18 09:49:51.337641
721  2023-10-18 09:49:51.369557
722  2023-10-18 09:49:51.401507
723  2023-10-18 09:49:51.434383
724  2023-10-18 09:49:51.466306
725  2023-10-18 09:49:51.513207
726  2023-10-18 09:49:51.546086
727  2023-10-18 09:49:51.578000
728  2023-10-18 09:49:51.609914
729  2023-10-18 09:49:51.641834
730  2023-10-18 09:49:51.674741
731  2023-10-18 09:49:51.705658
732  2023-10-18 09:49:51.737575
733  2023-10-18 09:49:51.769489
734  2023-10-18 09:49:51.802399
735  2023-10-18 09:49:51.833317
736  2023-10-18 09:49:51.866274
737  2023-10-18 09:49:51.914140
738  2023-10-18 09:49:51.945028
739  2023-10-18 09:49:51.977930
740  2023-10-18 09:49:52.009897
741  2023-10-18 09:49:52.041761
742  2023-10-18 09:49:52.073676
743  2023-10-18 09:49:52.105589
744  2023-10-18 09:49:52.137545
745  2023-10-18 09:49:52.169418
746  2023-10-18 09:49:52.201333
747  2023-10-18 09:49:52.233247
748  2023-10-18 09:49:52.265163
749  2023-10-18 09:49:52.313080
750  2023-10-18 09:49:52.344979
751  2023-10-18 09:49:52.377862
752  2023-10-18 09:49:52.409792
753  2023-10-18 09:49:52.441693
754  2023-10-18 09:49:52.473637
755  2023-10-18 09:49:52.505524
756  2023-10-18 09:49:52.537465
757  2023-10-18 09:49:52.569395
758  2023-10-18 09:49:52.601312
759  2023-10-18 09:49:52.633187
760  2023-10-18 09:49:52.665093
761  2023-10-18 09:49:52.713007
762  2023-10-18 09:49:52.746004
763  2023-10-18 09:49:52.777890
764  2023-10-18 09:49:52.809803
765  2023-10-18 09:49:52.841717
766  2023-10-18 09:49:52.873666
767  2023-10-18 09:49:52.905547
768  2023-10-18 09:49:52.937493
769  2023-10-18 09:49:52.969376
770  2023-10-18 09:49:53.001296
771  2023-10-18 09:49:53.033252
772  2023-10-18 09:49:53.066170
773  2023-10-18 09:49:53.114017
774  2023-10-18 09:49:53.145905
775  2023-10-18 09:49:53.177820
776  2023-10-18 09:49:53.209734
777  2023-10-18 09:49:53.241648
778  2023-10-18 09:49:53.273591
779  2023-10-18 09:49:53.305477
780  2023-10-18 09:49:53.337430
781  2023-10-18 09:49:53.369339
782  2023-10-18 09:49:53.401222
783  2023-10-18 09:49:53.433139
784  2023-10-18 09:49:53.466099
785  2023-10-18 09:49:53.512941
786  2023-10-18 09:49:53.545806
787  2023-10-18 09:49:53.577750
788  2023-10-18 09:49:53.609664
789  2023-10-18 09:49:53.641550
790  2023-10-18 09:49:53.673493
791  2023-10-18 09:49:53.705379
792  2023-10-18 09:49:53.737339
793  2023-10-18 09:49:53.769277
794  2023-10-18 09:49:53.801123
795  2023-10-18 09:49:53.833114
796  2023-10-18 09:49:53.864983
797  2023-10-18 09:49:53.912867
798  2023-10-18 09:49:53.945782
799  2023-10-18 09:49:53.977651
800  2023-10-18 09:49:54.009566
801  2023-10-18 09:49:54.041481
802  2023-10-18 09:49:54.073444
803  2023-10-18 09:49:54.105399
804  2023-10-18 09:49:54.137387
805  2023-10-18 09:49:54.169334
806  2023-10-18 09:49:54.201246
807  2023-10-18 09:49:54.233159
808  2023-10-18 09:49:54.265100
809  2023-10-18 09:49:54.313916
810  2023-10-18 09:49:54.344866
811  2023-10-18 09:49:54.377745
812  2023-10-18 09:49:54.409661
813  2023-10-18 09:49:54.441576
814  2023-10-18 09:49:54.473489
815  2023-10-18 09:49:54.506435
816  2023-10-18 09:49:54.537319
817  2023-10-18 09:49:54.569235
818  2023-10-18 09:49:54.602146
819  2023-10-18 09:49:54.634062
820  2023-10-18 09:49:54.665974
821  2023-10-18 09:49:54.713849
822  2023-10-18 09:49:54.745761
823  2023-10-18 09:49:54.777676
824  2023-10-18 09:49:54.809593
825  2023-10-18 09:49:54.841508
826  2023-10-18 09:49:54.873447
827  2023-10-18 09:49:54.905361
828  2023-10-18 09:49:54.937390
829  2023-10-18 09:49:54.969305
830  2023-10-18 09:49:55.001219
831  2023-10-18 09:49:55.033174
832  2023-10-18 09:49:55.081011
833  2023-10-18 09:49:55.113922
834  2023-10-18 09:49:55.145877
835  2023-10-18 09:49:55.177748
836  2023-10-18 09:49:55.209662
837  2023-10-18 09:49:55.241577
838  2023-10-18 09:49:55.273518
839  2023-10-18 09:49:55.305439
840  2023-10-18 09:49:55.337321
841  2023-10-18 09:49:55.370233
842  2023-10-18 09:49:55.401175
843  2023-10-18 09:49:55.434091
844  2023-10-18 09:49:55.480925
845  2023-10-18 09:49:55.512913
846  2023-10-18 09:49:55.545858
847  2023-10-18 09:49:55.577740
848  2023-10-18 09:49:55.609691
849  2023-10-18 09:49:55.641595
850  2023-10-18 09:49:55.673484
851  2023-10-18 09:49:55.705399
852  2023-10-18 09:49:55.737340
853  2023-10-18 09:49:55.769276
854  2023-10-18 09:49:55.801273
855  2023-10-18 09:49:55.833142
856  2023-10-18 09:49:55.881014
857  2023-10-18 09:49:55.912961
858  2023-10-18 09:49:55.945840
859  2023-10-18 09:49:55.977778
860  2023-10-18 09:49:56.009670
861  2023-10-18 09:49:56.041611
862  2023-10-18 09:49:56.073535
863  2023-10-18 09:49:56.105415
864  2023-10-18 09:49:56.137368
865  2023-10-18 09:49:56.169270
866  2023-10-18 09:49:56.201158
867  2023-10-18 09:49:56.233116
868  2023-10-18 09:49:56.280946
869  2023-10-18 09:49:56.412645
870  2023-10-18 09:49:56.441550
871  2023-10-18 09:49:56.473470
872  2023-10-18 09:49:56.505372
873  2023-10-18 09:49:56.537306
874  2023-10-18 09:49:56.569225
875  2023-10-18 09:49:56.602121
876  2023-10-18 09:49:56.633048
877  2023-10-18 09:49:56.681967
878  2023-10-18 09:49:56.712917
879  2023-10-18 09:49:56.745830
880  2023-10-18 09:49:56.777779
881  2023-10-18 09:49:56.809706
882  2023-10-18 09:49:56.841573
883  2023-10-18 09:49:56.873516
884  2023-10-18 09:49:56.905402
885  2023-10-18 09:49:56.937346
886  2023-10-18 09:49:56.969231
887  2023-10-18 09:49:57.002145
888  2023-10-18 09:49:57.034059
889  2023-10-18 09:49:57.080968
890  2023-10-18 09:49:57.113846
891  2023-10-18 09:49:57.146012
892  2023-10-18 09:49:57.177030
893  2023-10-18 09:49:57.209909
894  2023-10-18 09:49:57.241824
895  2023-10-18 09:49:57.273772
896  2023-10-18 09:49:57.305656
897  2023-10-18 09:49:57.337594
898  2023-10-18 09:49:57.369513
899  2023-10-18 09:49:57.401430
900  2023-10-18 09:49:57.433312
901  2023-10-18 09:49:57.481227
902  2023-10-18 09:49:57.513099
903  2023-10-18 09:49:57.545013
904  2023-10-18 09:49:57.576965
905  2023-10-18 09:49:57.608878
906  2023-10-18 09:49:57.641794
907  2023-10-18 09:49:57.673671
908  2023-10-18 09:49:57.705584
909  2023-10-18 09:49:57.737526
910  2023-10-18 09:49:57.769430
911  2023-10-18 09:49:57.801329
912  2023-10-18 09:49:57.833281
913  2023-10-18 09:49:57.881147
914  2023-10-18 09:49:57.913030
915  2023-10-18 09:49:57.945987
916  2023-10-18 09:49:57.977857
917  2023-10-18 09:49:58.009829
918  2023-10-18 09:49:58.041730
919  2023-10-18 09:49:58.073600
920  2023-10-18 09:49:58.105552
921  2023-10-18 09:49:58.137463
922  2023-10-18 09:49:58.169344
923  2023-10-18 09:49:58.201259
924  2023-10-18 09:49:58.233174
925  2023-10-18 09:49:58.281086
926  2023-10-18 09:49:58.313992
927  2023-10-18 09:49:58.345875
928  2023-10-18 09:49:58.377788
929  2023-10-18 09:49:58.409774
930  2023-10-18 09:49:58.441647
931  2023-10-18 09:49:58.473573
932  2023-10-18 09:49:58.505446
933  2023-10-18 09:49:58.537361
934  2023-10-18 09:49:58.569303
935  2023-10-18 09:49:58.601191
936  2023-10-18 09:49:58.649062
937  2023-10-18 09:49:58.681002
938  2023-10-18 09:49:58.713889
939  2023-10-18 09:49:58.744806
940  2023-10-18 09:49:58.777775
941  2023-10-18 09:49:58.809674
942  2023-10-18 09:49:58.841577
943  2023-10-18 09:49:58.873462
944  2023-10-18 09:49:58.905404
945  2023-10-18 09:49:58.937332
946  2023-10-18 09:49:58.969213
947  2023-10-18 09:49:59.001121
948  2023-10-18 09:49:59.049018
949  2023-10-18 09:49:59.081939
950  2023-10-18 09:49:59.113824
951  2023-10-18 09:49:59.145803
952  2023-10-18 09:49:59.177699
953  2023-10-18 09:49:59.209564
954  2023-10-18 09:49:59.241479
955  2023-10-18 09:49:59.273435
956  2023-10-18 09:49:59.305335
957  2023-10-18 09:49:59.337267
958  2023-10-18 09:49:59.370134
959  2023-10-18 09:49:59.402096
960  2023-10-18 09:49:59.448958
961  2023-10-18 09:49:59.481880
962  2023-10-18 09:49:59.513785
963  2023-10-18 09:49:59.545701
964  2023-10-18 09:49:59.577615
965  2023-10-18 09:49:59.609545
966  2023-10-18 09:49:59.641413
967  2023-10-18 09:49:59.673361
968  2023-10-18 09:49:59.706242
969  2023-10-18 09:49:59.737205
970  2023-10-18 09:49:59.770072
971  2023-10-18 09:49:59.803005
972  2023-10-18 09:49:59.849854
973  2023-10-18 09:49:59.882765
974  2023-10-18 09:49:59.913682
975  2023-10-18 09:49:59.945598
976  2023-10-18 09:49:59.977512
977  2023-10-18 09:50:00.010425
978  2023-10-18 09:50:00.042369
979  2023-10-18 09:50:00.074254
980  2023-10-18 09:50:00.106196
981  2023-10-18 09:50:00.138109
982  2023-10-18 09:50:00.169997
983  2023-10-18 09:50:00.201914
984  2023-10-18 09:50:00.249851
985  2023-10-18 09:50:00.281727
986  2023-10-18 09:50:00.313612
987  2023-10-18 09:50:00.345561
988  2023-10-18 09:50:00.377467
989  2023-10-18 09:50:00.409411
990  2023-10-18 09:50:00.441302
991  2023-10-18 09:50:00.473233
992  2023-10-18 09:50:00.505100
993  2023-10-18 09:50:00.537078
994  2023-10-18 09:50:00.569959
995  2023-10-18 09:50:00.601878
996  2023-10-18 09:50:00.649714
997  2023-10-18 09:50:00.681674
998  2023-10-18 09:50:00.713578
999  2023-10-18 09:50:00.745489
1000  2023-10-18 09:50:00.777410
1001  2023-10-18 09:50:00.810310
1002  2023-10-18 09:50:00.841202
1003  2023-10-18 09:50:00.873116
1004  2023-10-18 09:50:00.906061
1005  2023-10-18 09:50:00.937946
1006  2023-10-18 09:50:00.969895
1007  2023-10-18 09:50:01.001828
1008  2023-10-18 09:50:01.049679
1009  2023-10-18 09:50:01.081606
1010  2023-10-18 09:50:01.113500
1011  2023-10-18 09:50:01.145390
1012  2023-10-18 09:50:01.177330
1013  2023-10-18 09:50:01.209268
1014  2023-10-18 09:50:01.241189
1015  2023-10-18 09:50:01.273087
1016  2023-10-18 09:50:01.305960
1017  2023-10-18 09:50:01.337875
1018  2023-10-18 09:50:01.369818
1019  2023-10-18 09:50:01.401755
1020  2023-10-18 09:50:01.449577
1021  2023-10-18 09:50:01.553299
1022  2023-10-18 09:50:01.577288
1023  2023-10-18 09:50:01.609203
1024  2023-10-18 09:50:01.641062
1025  2023-10-18 09:50:01.673080
1026  2023-10-18 09:50:01.705946
1027  2023-10-18 09:50:01.737893
1028  2023-10-18 09:50:01.769828
1029  2023-10-18 09:50:01.801744
1030  2023-10-18 09:50:01.849591
1031  2023-10-18 09:50:01.882511
1032  2023-10-18 09:50:01.913390
1033  2023-10-18 09:50:01.945422
1034  2023-10-18 09:50:01.977221
1035  2023-10-18 09:50:02.010136
1036  2023-10-18 09:50:02.042049
1037  2023-10-18 09:50:02.073963
1038  2023-10-18 09:50:02.105884
1039  2023-10-18 09:50:02.137793
1040  2023-10-18 09:50:02.169742
1041  2023-10-18 09:50:02.201622
1042  2023-10-18 09:50:02.249492
1043  2023-10-18 09:50:02.281408
1044  2023-10-18 09:50:02.313322
1045  2023-10-18 09:50:02.345270
1046  2023-10-18 09:50:02.378163
1047  2023-10-18 09:50:02.409105
1048  2023-10-18 09:50:02.442009
1049  2023-10-18 09:50:02.473893
1050  2023-10-18 09:50:02.505807
1051  2023-10-18 09:50:02.537724
1052  2023-10-18 09:50:02.569678
1053  2023-10-18 09:50:02.617539
1054  2023-10-18 09:50:02.649454
1055  2023-10-18 09:50:02.682335
1056  2023-10-18 09:50:02.713286
1057  2023-10-18 09:50:02.745243
1058  2023-10-18 09:50:02.778080
1059  2023-10-18 09:50:02.808998
1060  2023-10-18 09:50:02.841908
1061  2023-10-18 09:50:02.872856
1062  2023-10-18 09:50:02.905738
1063  2023-10-18 09:50:02.937688
1064  2023-10-18 09:50:02.969617
1065  2023-10-18 09:50:03.017472
1066  2023-10-18 09:50:03.049378
1067  2023-10-18 09:50:03.081292
1068  2023-10-18 09:50:03.113235
1069  2023-10-18 09:50:03.145145
1070  2023-10-18 09:50:03.177012
1071  2023-10-18 09:50:03.209961
1072  2023-10-18 09:50:03.241839
1073  2023-10-18 09:50:03.273778
1074  2023-10-18 09:50:03.305727
1075  2023-10-18 09:50:03.337690
1076  2023-10-18 09:50:03.369655
1077  2023-10-18 09:50:03.417511
1078  2023-10-18 09:50:03.449427
1079  2023-10-18 09:50:03.481393
1080  2023-10-18 09:50:03.513406
1081  2023-10-18 09:50:03.545322
1082  2023-10-18 09:50:03.578208
1083  2023-10-18 09:50:03.609156
1084  2023-10-18 09:50:03.641039
1085  2023-10-18 09:50:03.673983
1086  2023-10-18 09:50:03.705866
1087  2023-10-18 09:50:03.737824
1088  2023-10-18 09:50:03.769736
1089  2023-10-18 09:50:03.817596
1090  2023-10-18 09:50:03.849506
1091  2023-10-18 09:50:03.881429
1092  2023-10-18 09:50:03.913363
1093  2023-10-18 09:50:03.946264
1094  2023-10-18 09:50:03.977209
1095  2023-10-18 09:50:04.010054
1096  2023-10-18 09:50:04.041084
1097  2023-10-18 09:50:04.073031
1098  2023-10-18 09:50:04.105912
1099  2023-10-18 09:50:04.137840
1100  2023-10-18 09:50:04.169740
1101  2023-10-18 09:50:04.217640
1102  2023-10-18 09:50:04.249554
1103  2023-10-18 09:50:04.281472
1104  2023-10-18 09:50:04.313391
1105  2023-10-18 09:50:04.345303
1106  2023-10-18 09:50:04.377227
1107  2023-10-18 09:50:04.409136
1108  2023-10-18 09:50:04.442039
1109  2023-10-18 09:50:04.473928
1110  2023-10-18 09:50:04.505841
1111  2023-10-18 09:50:04.537810
1112  2023-10-18 09:50:04.569723
1113  2023-10-18 09:50:04.617575
1114  2023-10-18 09:50:04.649459
1115  2023-10-18 09:50:04.681373
1116  2023-10-18 09:50:04.713287
1117  2023-10-18 09:50:04.745202
1118  2023-10-18 09:50:04.777156
1119  2023-10-18 09:50:04.810029
1120  2023-10-18 09:50:04.841943
1121  2023-10-18 09:50:04.873857
1122  2023-10-18 09:50:04.905812
1123  2023-10-18 09:50:04.937732
1124  2023-10-18 09:50:04.969601
1125  2023-10-18 09:50:05.017507
1126  2023-10-18 09:50:05.049413
1127  2023-10-18 09:50:05.081336
1128  2023-10-18 09:50:05.113275
1129  2023-10-18 09:50:05.145165
1130  2023-10-18 09:50:05.177076
1131  2023-10-18 09:50:05.209986
1132  2023-10-18 09:50:05.241874
1133  2023-10-18 09:50:05.273832
1134  2023-10-18 09:50:05.305742
1135  2023-10-18 09:50:05.337644
1136  2023-10-18 09:50:05.369561
1137  2023-10-18 09:50:05.417435
1138  2023-10-18 09:50:05.449348
1139  2023-10-18 09:50:05.481263
1140  2023-10-18 09:50:05.513210
1141  2023-10-18 09:50:05.546148
1142  2023-10-18 09:50:05.578038
1143  2023-10-18 09:50:05.609953
1144  2023-10-18 09:50:05.641866
1145  2023-10-18 09:50:05.673782
1146  2023-10-18 09:50:05.705734
1147  2023-10-18 09:50:05.738624
1148  2023-10-18 09:50:05.769526
1149  2023-10-18 09:50:05.817460
1150  2023-10-18 09:50:05.849313
1151  2023-10-18 09:50:05.881286
1152  2023-10-18 09:50:05.914172
1153  2023-10-18 09:50:05.946088
1154  2023-10-18 09:50:05.977001
1155  2023-10-18 09:50:06.009939
1156  2023-10-18 09:50:06.041808
1157  2023-10-18 09:50:06.073712
1158  2023-10-18 09:50:06.105662
1159  2023-10-18 09:50:06.137577
1160  2023-10-18 09:50:06.185447
1161  2023-10-18 09:50:06.217359
1162  2023-10-18 09:50:06.249287
1163  2023-10-18 09:50:06.281189
1164  2023-10-18 09:50:06.313098
1165  2023-10-18 09:50:06.345156
1166  2023-10-18 09:50:06.378070
1167  2023-10-18 09:50:06.409016
1168  2023-10-18 09:50:06.441950
1169  2023-10-18 09:50:06.473861
1170  2023-10-18 09:50:06.505785
1171  2023-10-18 09:50:06.537671
1172  2023-10-18 09:50:06.585514
1173  2023-10-18 09:50:06.758054
1174  2023-10-18 09:50:06.778029
1175  2023-10-18 09:50:06.809102
1176  2023-10-18 09:50:06.841622
1177  2023-10-18 09:50:06.873537
1178  2023-10-18 09:50:06.905452
1179  2023-10-18 09:50:06.937367
1180  2023-10-18 09:50:06.985314
1181  2023-10-18 09:50:07.017236
1182  2023-10-18 09:50:07.049145
1183  2023-10-18 09:50:07.081067
1184  2023-10-18 09:50:07.112986
1185  2023-10-18 09:50:07.144883
1186  2023-10-18 09:50:07.177771
1187  2023-10-18 09:50:07.209682
1188  2023-10-18 09:50:07.241596
1189  2023-10-18 09:50:07.273511
1190  2023-10-18 09:50:07.305426
1191  2023-10-18 09:50:07.337340
1192  2023-10-18 09:50:07.385271
1193  2023-10-18 09:50:07.417158
1194  2023-10-18 09:50:07.449073
1195  2023-10-18 09:50:07.482003
1196  2023-10-18 09:50:07.513868
1197  2023-10-18 09:50:07.545818
1198  2023-10-18 09:50:07.577734
1199  2023-10-18 09:50:07.609640
1200  2023-10-18 09:50:07.641554
1201  2023-10-18 09:50:07.673443
1202  2023-10-18 09:50:07.705392
1203  2023-10-18 09:50:07.737325
1204  2023-10-18 09:50:07.785210
1205  2023-10-18 09:50:07.817082
1206  2023-10-18 09:50:07.849971
1207  2023-10-18 09:50:07.880887
1208  2023-10-18 09:50:07.913799
1209  2023-10-18 09:50:07.945775
1210  2023-10-18 09:50:07.977629
1211  2023-10-18 09:50:08.009543
1212  2023-10-18 09:50:08.041457
1213  2023-10-18 09:50:08.073372
1214  2023-10-18 09:50:08.105289
1215  2023-10-18 09:50:08.137249
1216  2023-10-18 09:50:08.186089
1217  2023-10-18 09:50:08.217024
1218  2023-10-18 09:50:08.248927
1219  2023-10-18 09:50:08.281815
1220  2023-10-18 09:50:08.313774
1221  2023-10-18 09:50:08.345686
1222  2023-10-18 09:50:08.377561
1223  2023-10-18 09:50:08.409502
1224  2023-10-18 09:50:08.441419
1225  2023-10-18 09:50:08.473335
1226  2023-10-18 09:50:08.505273
1227  2023-10-18 09:50:08.537177
1228  2023-10-18 09:50:08.585030
1229  2023-10-18 09:50:08.616954
1230  2023-10-18 09:50:08.648840
1231  2023-10-18 09:50:08.681779
1232  2023-10-18 09:50:08.713660
1233  2023-10-18 09:50:08.745644
1234  2023-10-18 09:50:08.777535
1235  2023-10-18 09:50:08.809406
1236  2023-10-18 09:50:08.841319
1237  2023-10-18 09:50:08.873234
1238  2023-10-18 09:50:08.905212
1239  2023-10-18 09:50:08.937095
1240  2023-10-18 09:50:08.984968
1241  2023-10-18 09:50:09.017849
1242  2023-10-18 09:50:09.048926
1243  2023-10-18 09:50:09.080870
1244  2023-10-18 09:50:09.113758
1245  2023-10-18 09:50:09.145661
1246  2023-10-18 09:50:09.177576
1247  2023-10-18 09:50:09.209508
1248  2023-10-18 09:50:09.241405
1249  2023-10-18 09:50:09.273307
1250  2023-10-18 09:50:09.305277
1251  2023-10-18 09:50:09.337237
1252  2023-10-18 09:50:09.385064
1253  2023-10-18 09:50:09.417019
1254  2023-10-18 09:50:09.448922
1255  2023-10-18 09:50:09.480840
1256  2023-10-18 09:50:09.513732
1257  2023-10-18 09:50:09.545635
1258  2023-10-18 09:50:09.577581
1259  2023-10-18 09:50:09.609490
1260  2023-10-18 09:50:09.641379
1261  2023-10-18 09:50:09.674294
1262  2023-10-18 09:50:09.705208
1263  2023-10-18 09:50:09.738122
1264  2023-10-18 09:50:09.785993
1265  2023-10-18 09:50:09.817984
1266  2023-10-18 09:50:09.849934
1267  2023-10-18 09:50:09.881848
1268  2023-10-18 09:50:09.913760
1269  2023-10-18 09:50:09.945675
1270  2023-10-18 09:50:09.977594
1271  2023-10-18 09:50:10.010533
1272  2023-10-18 09:50:10.041419
1273  2023-10-18 09:50:10.073334
1274  2023-10-18 09:50:10.106245
1275  2023-10-18 09:50:10.153120
1276  2023-10-18 09:50:10.186033
1277  2023-10-18 09:50:10.218008
1278  2023-10-18 09:50:10.249899
1279  2023-10-18 09:50:10.281786
1280  2023-10-18 09:50:10.313691
1281  2023-10-18 09:50:10.345631
1282  2023-10-18 09:50:10.377573
1283  2023-10-18 09:50:10.409468
1284  2023-10-18 09:50:10.441382
1285  2023-10-18 09:50:10.473301
1286  2023-10-18 09:50:10.506182
1287  2023-10-18 09:50:10.553051
1288  2023-10-18 09:50:10.584965
1289  2023-10-18 09:50:10.616925
1290  2023-10-18 09:50:10.648826
1291  2023-10-18 09:50:10.681780
1292  2023-10-18 09:50:10.713622
1293  2023-10-18 09:50:10.745537
1294  2023-10-18 09:50:10.777487
1295  2023-10-18 09:50:10.809367
1296  2023-10-18 09:50:10.841280
1297  2023-10-18 09:50:10.873195
1298  2023-10-18 09:50:10.906146
1299  2023-10-18 09:50:10.952981
1300  2023-10-18 09:50:10.984896
1301  2023-10-18 09:50:11.017843
1302  2023-10-18 09:50:11.049763
1303  2023-10-18 09:50:11.081669
1304  2023-10-18 09:50:11.113679
1305  2023-10-18 09:50:11.145627
1306  2023-10-18 09:50:11.177533
1307  2023-10-18 09:50:11.209475
1308  2023-10-18 09:50:11.241370
1309  2023-10-18 09:50:11.273303
1310  2023-10-18 09:50:11.306197
1311  2023-10-18 09:50:11.353086
1312  2023-10-18 09:50:11.384954
1313  2023-10-18 09:50:11.416903
1314  2023-10-18 09:50:11.449814
1315  2023-10-18 09:50:11.481725
1316  2023-10-18 09:50:11.513643
1317  2023-10-18 09:50:11.545525
1318  2023-10-18 09:50:11.577471
1319  2023-10-18 09:50:11.609386
1320  2023-10-18 09:50:11.641319
1321  2023-10-18 09:50:11.673183
1322  2023-10-18 09:50:11.705148
1323  2023-10-18 09:50:11.753001
1324  2023-10-18 09:50:11.784885
1325  2023-10-18 09:50:11.925565
1326  2023-10-18 09:50:11.946531
1327  2023-10-18 09:50:11.977409
1328  2023-10-18 09:50:12.010326
1329  2023-10-18 09:50:12.041233
1330  2023-10-18 09:50:12.074155
1331  2023-10-18 09:50:12.105083
1332  2023-10-18 09:50:12.153931
1333  2023-10-18 09:50:12.184848
1334  2023-10-18 09:50:12.217786
1335  2023-10-18 09:50:12.249667
1336  2023-10-18 09:50:12.281598
1337  2023-10-18 09:50:12.313542
1338  2023-10-18 09:50:12.345490
1339  2023-10-18 09:50:12.377405
1340  2023-10-18 09:50:12.409374
1341  2023-10-18 09:50:12.441283
1342  2023-10-18 09:50:12.473149
1343  2023-10-18 09:50:12.506062
1344  2023-10-18 09:50:12.552936
1345  2023-10-18 09:50:12.585848
1346  2023-10-18 09:50:12.617795
1347  2023-10-18 09:50:12.649719
1348  2023-10-18 09:50:12.681618
1349  2023-10-18 09:50:12.713506
1350  2023-10-18 09:50:12.745421
1351  2023-10-18 09:50:12.778341
1352  2023-10-18 09:50:12.809332
1353  2023-10-18 09:50:12.842164
1354  2023-10-18 09:50:12.873080
1355  2023-10-18 09:50:12.905992
1356  2023-10-18 09:50:12.953864
1357  2023-10-18 09:50:12.985781
1358  2023-10-18 09:50:13.018726
1359  2023-10-18 09:50:13.049609
1360  2023-10-18 09:50:13.081524
1361  2023-10-18 09:50:13.113438
1362  2023-10-18 09:50:13.146350
1363  2023-10-18 09:50:13.178265
1364  2023-10-18 09:50:13.210212
1365  2023-10-18 09:50:13.242126
1366  2023-10-18 09:50:13.274008
1367  2023-10-18 09:50:13.305923
1368  2023-10-18 09:50:13.353807
1369  2023-10-18 09:50:13.385711
1370  2023-10-18 09:50:13.417624
1371  2023-10-18 09:50:13.449573
1372  2023-10-18 09:50:13.481498
1373  2023-10-18 09:50:13.513396
1374  2023-10-18 09:50:13.545308
1375  2023-10-18 09:50:13.578195
1376  2023-10-18 09:50:13.610140
1377  2023-10-18 09:50:13.642052
1378  2023-10-18 09:50:13.673940
1379  2023-10-18 09:50:13.721845
1380  2023-10-18 09:50:13.753804
1381  2023-10-18 09:50:13.785640
1382  2023-10-18 09:50:13.817555
1383  2023-10-18 09:50:13.849480
1384  2023-10-18 09:50:13.881409
1385  2023-10-18 09:50:13.913330
1386  2023-10-18 09:50:13.945214
1387  2023-10-18 09:50:13.977129
1388  2023-10-18 09:50:14.009090
1389  2023-10-18 09:50:14.040990
1390  2023-10-18 09:50:14.073909
1391  2023-10-18 09:50:14.121773
1392  2023-10-18 09:50:14.153683
1393  2023-10-18 09:50:14.185602
1394  2023-10-18 09:50:14.217486
1395  2023-10-18 09:50:14.249427
1396  2023-10-18 09:50:14.281345
1397  2023-10-18 09:50:14.313231
1398  2023-10-18 09:50:14.346143
1399  2023-10-18 09:50:14.377074
1400  2023-10-18 09:50:14.410006
1401  2023-10-18 09:50:14.441949
1402  2023-10-18 09:50:14.473801
1403  2023-10-18 09:50:14.521726
1404  2023-10-18 09:50:14.553590
1405  2023-10-18 09:50:14.585502
1406  2023-10-18 09:50:14.617417
1407  2023-10-18 09:50:14.649387
1408  2023-10-18 09:50:14.681281
1409  2023-10-18 09:50:14.713244
1410  2023-10-18 09:50:14.745075
1411  2023-10-18 09:50:14.777987
1412  2023-10-18 09:50:14.809936
1413  2023-10-18 09:50:14.841844
1414  2023-10-18 09:50:14.873784
1415  2023-10-18 09:50:14.921630
1416  2023-10-18 09:50:14.953544
1417  2023-10-18 09:50:14.985457
1418  2023-10-18 09:50:15.017378
1419  2023-10-18 09:50:15.049306
1420  2023-10-18 09:50:15.081218
1421  2023-10-18 09:50:15.113117
1422  2023-10-18 09:50:15.146031
1423  2023-10-18 09:50:15.176974
1424  2023-10-18 09:50:15.209880
1425  2023-10-18 09:50:15.241785
1426  2023-10-18 09:50:15.273690
1427  2023-10-18 09:50:15.321565
1428  2023-10-18 09:50:15.353457
1429  2023-10-18 09:50:15.385364
1430  2023-10-18 09:50:15.417278
1431  2023-10-18 09:50:15.449234
1432  2023-10-18 09:50:15.481138
1433  2023-10-18 09:50:15.514020
1434  2023-10-18 09:50:15.544937
1435  2023-10-18 09:50:15.577081
1436  2023-10-18 09:50:15.609026
1437  2023-10-18 09:50:15.640945
1438  2023-10-18 09:50:15.673823
1439  2023-10-18 09:50:15.721745
1440  2023-10-18 09:50:15.753634
1441  2023-10-18 09:50:15.785524
1442  2023-10-18 09:50:15.817439
1443  2023-10-18 09:50:15.849355
1444  2023-10-18 09:50:15.882267
1445  2023-10-18 09:50:15.913215
1446  2023-10-18 09:50:15.945098
1447  2023-10-18 09:50:15.977063
1448  2023-10-18 09:50:16.009927
1449  2023-10-18 09:50:16.041839
1450  2023-10-18 09:50:16.073789
1451  2023-10-18 09:50:16.121653
1452  2023-10-18 09:50:16.153582
1453  2023-10-18 09:50:16.185485
1454  2023-10-18 09:50:16.217407
1455  2023-10-18 09:50:16.249327
1456  2023-10-18 09:50:16.281243
1457  2023-10-18 09:50:16.313145
1458  2023-10-18 09:50:16.346057
1459  2023-10-18 09:50:16.377941
1460  2023-10-18 09:50:16.409855
1461  2023-10-18 09:50:16.441770
1462  2023-10-18 09:50:16.473685
1463  2023-10-18 09:50:16.521590
1464  2023-10-18 09:50:16.553502
1465  2023-10-18 09:50:16.585386
1466  2023-10-18 09:50:16.617348
1467  2023-10-18 09:50:16.649256
1468  2023-10-18 09:50:16.681164
1469  2023-10-18 09:50:16.714042
1470  2023-10-18 09:50:16.745992
1471  2023-10-18 09:50:16.777871
1472  2023-10-18 09:50:16.809788
1473  2023-10-18 09:50:16.841701
1474  2023-10-18 09:50:16.873650
1475  2023-10-18 09:50:16.921487
1476  2023-10-18 09:50:16.953435
1477  2023-10-18 09:50:16.985349
1478  2023-10-18 09:50:17.017252
1479  2023-10-18 09:50:17.049208
1480  2023-10-18 09:50:17.081090
1481  2023-10-18 09:50:17.113020
1482  2023-10-18 09:50:17.145890
1483  2023-10-18 09:50:17.177802
1484  2023-10-18 09:50:17.209717
1485  2023-10-18 09:50:17.241632
1486  2023-10-18 09:50:17.289504
1487  2023-10-18 09:50:17.321418
1488  2023-10-18 09:50:17.353333
1489  2023-10-18 09:50:17.408188
1490  2023-10-18 09:50:17.417191
1491  2023-10-18 09:50:17.449111
1492  2023-10-18 09:50:17.481027
1493  2023-10-18 09:50:17.513935
1494  2023-10-18 09:50:17.545819
1495  2023-10-18 09:50:17.577820
1496  2023-10-18 09:50:17.609768
1497  2023-10-18 09:50:17.641650
1498  2023-10-18 09:50:17.689557
1499  2023-10-18 09:50:17.721470
1500  2023-10-18 09:50:17.753351
1501  2023-10-18 09:50:17.785266
1502  2023-10-18 09:50:17.817214
1503  2023-10-18 09:50:17.849095
1504  2023-10-18 09:50:17.881010
1505  2023-10-18 09:50:17.913927
1506  2023-10-18 09:50:17.945836
1507  2023-10-18 09:50:17.977751
1508  2023-10-18 09:50:18.009666
1509  2023-10-18 09:50:18.041615
1510  2023-10-18 09:50:18.089452
1511  2023-10-18 09:50:18.121367
1512  2023-10-18 09:50:18.153315
1513  2023-10-18 09:50:18.185197
1514  2023-10-18 09:50:18.218109
1515  2023-10-18 09:50:18.250025
1516  2023-10-18 09:50:18.281938
1517  2023-10-18 09:50:18.313854
1518  2023-10-18 09:50:18.345769
1519  2023-10-18 09:50:18.377683
1520  2023-10-18 09:50:18.409633
1521  2023-10-18 09:50:18.441511
1522  2023-10-18 09:50:18.489383
1523  2023-10-18 09:50:18.521364
1524  2023-10-18 09:50:18.554221
1525  2023-10-18 09:50:18.585191
1526  2023-10-18 09:50:18.617043
1527  2023-10-18 09:50:18.648986
1528  2023-10-18 09:50:18.681934
1529  2023-10-18 09:50:18.713819
1530  2023-10-18 09:50:18.745737
1531  2023-10-18 09:50:18.777613
1532  2023-10-18 09:50:18.809553
1533  2023-10-18 09:50:18.841442
1534  2023-10-18 09:50:18.889360
1535  2023-10-18 09:50:18.921229
1536  2023-10-18 09:50:18.953144
1537  2023-10-18 09:50:18.985089
1538  2023-10-18 09:50:19.018030
1539  2023-10-18 09:50:19.049082
1540  2023-10-18 09:50:19.081024
1541  2023-10-18 09:50:19.113909
1542  2023-10-18 09:50:19.145867
1543  2023-10-18 09:50:19.177739
1544  2023-10-18 09:50:19.209653
1545  2023-10-18 09:50:19.241568
1546  2023-10-18 09:50:19.289440
1547  2023-10-18 09:50:19.321354
1548  2023-10-18 09:50:19.353311
1549  2023-10-18 09:50:19.385184
1550  2023-10-18 09:50:19.417098
1551  2023-10-18 09:50:19.449013
1552  2023-10-18 09:50:19.480929
1553  2023-10-18 09:50:19.512843
1554  2023-10-18 09:50:19.545757
1555  2023-10-18 09:50:19.577669
1556  2023-10-18 09:50:19.609619
1557  2023-10-18 09:50:19.641544
1558  2023-10-18 09:50:19.689397
1559  2023-10-18 09:50:19.721285
1560  2023-10-18 09:50:19.753200
1561  2023-10-18 09:50:19.785149
1562  2023-10-18 09:50:19.817063
1563  2023-10-18 09:50:19.848979
1564  2023-10-18 09:50:19.881856
1565  2023-10-18 09:50:19.913771
1566  2023-10-18 09:50:19.945717
1567  2023-10-18 09:50:19.977641
1568  2023-10-18 09:50:20.009515
1569  2023-10-18 09:50:20.041429
1570  2023-10-18 09:50:20.089301
1571  2023-10-18 09:50:20.121216
1572  2023-10-18 09:50:20.153155
1573  2023-10-18 09:50:20.185093
1574  2023-10-18 09:50:20.216960
1575  2023-10-18 09:50:20.248875
1576  2023-10-18 09:50:20.281829
1577  2023-10-18 09:50:20.313736
1578  2023-10-18 09:50:20.345616
1579  2023-10-18 09:50:20.377531
1580  2023-10-18 09:50:20.409446
1581  2023-10-18 09:50:20.441393
1582  2023-10-18 09:50:20.489232
1583  2023-10-18 09:50:20.521148
1584  2023-10-18 09:50:20.553095
1585  2023-10-18 09:50:20.584976
1586  2023-10-18 09:50:20.616891
1587  2023-10-18 09:50:20.649805
1588  2023-10-18 09:50:20.681784
1589  2023-10-18 09:50:20.713668
1590  2023-10-18 09:50:20.745547
1591  2023-10-18 09:50:20.777462
1592  2023-10-18 09:50:20.810374
1593  2023-10-18 09:50:20.841291
1594  2023-10-18 09:50:20.890187
1595  2023-10-18 09:50:20.921079
1596  2023-10-18 09:50:20.952993
1597  2023-10-18 09:50:20.985906
1598  2023-10-18 09:50:21.017858
1599  2023-10-18 09:50:21.049734
1600  2023-10-18 09:50:21.081676
1601  2023-10-18 09:50:21.113563
1602  2023-10-18 09:50:21.145504
1603  2023-10-18 09:50:21.177443
1604  2023-10-18 09:50:21.209307
1605  2023-10-18 09:50:21.257395
1606  2023-10-18 09:50:21.289309
1607  2023-10-18 09:50:21.321224
1608  2023-10-18 09:50:21.353143
1609  2023-10-18 09:50:21.385053
1610  2023-10-18 09:50:21.416968
1611  2023-10-18 09:50:21.449880
1612  2023-10-18 09:50:21.481848
1613  2023-10-18 09:50:21.513755
1614  2023-10-18 09:50:21.545624
1615  2023-10-18 09:50:21.577539
1616  2023-10-18 09:50:21.609488
1617  2023-10-18 09:50:21.657326
1618  2023-10-18 09:50:21.689270
1619  2023-10-18 09:50:21.721155
1620  2023-10-18 09:50:21.753110
1621  2023-10-18 09:50:21.785021
1622  2023-10-18 09:50:21.816935
1623  2023-10-18 09:50:21.849845
1624  2023-10-18 09:50:21.881726
1625  2023-10-18 09:50:21.913640
1626  2023-10-18 09:50:21.945588
1627  2023-10-18 09:50:21.977504
1628  2023-10-18 09:50:22.009384
1629  2023-10-18 09:50:22.057281
1630  2023-10-18 09:50:22.089171
1631  2023-10-18 09:50:22.121086
1632  2023-10-18 09:50:22.153000
1633  2023-10-18 09:50:22.184946
1634  2023-10-18 09:50:22.217827
1635  2023-10-18 09:50:22.249742
1636  2023-10-18 09:50:22.281683
1637  2023-10-18 09:50:22.313607
1638  2023-10-18 09:50:22.345486
1639  2023-10-18 09:50:22.377401
1640  2023-10-18 09:50:22.409315
1641  2023-10-18 09:50:22.457187
1642  2023-10-18 09:50:22.489134
1643  2023-10-18 09:50:22.521047
1644  2023-10-18 09:50:22.552931
1645  2023-10-18 09:50:22.584846
1646  2023-10-18 09:50:22.617758
1647  2023-10-18 09:50:22.649673
1648  2023-10-18 09:50:22.681587
1649  2023-10-18 09:50:22.713502
1650  2023-10-18 09:50:22.745417
1651  2023-10-18 09:50:22.777332
1652  2023-10-18 09:50:22.809246
1653  2023-10-18 09:50:22.857118
1654  2023-10-18 09:50:22.889033
1655  2023-10-18 09:50:22.920947
1656  2023-10-18 09:50:22.953890
1657  2023-10-18 09:50:22.985774
1658  2023-10-18 09:50:23.017691
1659  2023-10-18 09:50:23.087537
1660  2023-10-18 09:50:23.113467
1661  2023-10-18 09:50:23.145353
1662  2023-10-18 09:50:23.179291
1663  2023-10-18 09:50:23.209179
1664  2023-10-18 09:50:23.258050
1665  2023-10-18 09:50:23.288966
1666  2023-10-18 09:50:23.321897
1667  2023-10-18 09:50:23.353841
1668  2023-10-18 09:50:23.385707
1669  2023-10-18 09:50:23.417621
1670  2023-10-18 09:50:23.449536
1671  2023-10-18 09:50:23.481450
1672  2023-10-18 09:50:23.513367
1673  2023-10-18 09:50:23.545280
1674  2023-10-18 09:50:23.577196
1675  2023-10-18 09:50:23.609111
1676  2023-10-18 09:50:23.656981
1677  2023-10-18 09:50:23.689893
1678  2023-10-18 09:50:23.721818
1679  2023-10-18 09:50:23.753722
1680  2023-10-18 09:50:23.785636
1681  2023-10-18 09:50:23.817552
1682  2023-10-18 09:50:23.849500
1683  2023-10-18 09:50:23.881532
1684  2023-10-18 09:50:23.913408
1685  2023-10-18 09:50:23.945322
1686  2023-10-18 09:50:23.978235
1687  2023-10-18 09:50:24.009178
1688  2023-10-18 09:50:24.057055
1689  2023-10-18 09:50:24.088970
1690  2023-10-18 09:50:24.121850
1691  2023-10-18 09:50:24.153765
1692  2023-10-18 09:50:24.186722
1693  2023-10-18 09:50:24.218624
1694  2023-10-18 09:50:24.250537
1695  2023-10-18 09:50:24.282453
1696  2023-10-18 09:50:24.314345
1697  2023-10-18 09:50:24.346252
1698  2023-10-18 09:50:24.378198
1699  2023-10-18 09:50:24.410109
1700  2023-10-18 09:50:24.457951
1701  2023-10-18 09:50:24.489903
1702  2023-10-18 09:50:24.521822
1703  2023-10-18 09:50:24.554727
1704  2023-10-18 09:50:24.586632
1705  2023-10-18 09:50:24.618588
1706  2023-10-18 09:50:24.650511
1707  2023-10-18 09:50:24.682399
1708  2023-10-18 09:50:24.714300
1709  2023-10-18 09:50:24.746215
1710  2023-10-18 09:50:24.778133
1711  2023-10-18 09:50:24.825968
1712  2023-10-18 09:50:24.857916
1713  2023-10-18 09:50:24.889797
1714  2023-10-18 09:50:24.921712
1715  2023-10-18 09:50:24.953643
1716  2023-10-18 09:50:24.985541
1717  2023-10-18 09:50:25.017487
1718  2023-10-18 09:50:25.049371
1719  2023-10-18 09:50:25.082316
1720  2023-10-18 09:50:25.114233
1721  2023-10-18 09:50:25.146155
1722  2023-10-18 09:50:25.178172
1723  2023-10-18 09:50:25.226007
1724  2023-10-18 09:50:25.257956
1725  2023-10-18 09:50:25.289862
1726  2023-10-18 09:50:25.321785
1727  2023-10-18 09:50:25.353700
1728  2023-10-18 09:50:25.385612
1729  2023-10-18 09:50:25.417531
1730  2023-10-18 09:50:25.449450
1731  2023-10-18 09:50:25.481356
1732  2023-10-18 09:50:25.513240
1733  2023-10-18 09:50:25.546195
1734  2023-10-18 09:50:25.598015
1735  2023-10-18 09:50:25.624976
1736  2023-10-18 09:50:25.657901
1737  2023-10-18 09:50:25.689860
1738  2023-10-18 09:50:25.721849
1739  2023-10-18 09:50:25.753714
1740  2023-10-18 09:50:25.785639
1741  2023-10-18 09:50:25.817545
1742  2023-10-18 09:50:25.849453
1743  2023-10-18 09:50:25.881395
1744  2023-10-18 09:50:25.913300
1745  2023-10-18 09:50:25.946198
1746  2023-10-18 09:50:25.977118
1747  2023-10-18 09:50:26.025991
1748  2023-10-18 09:50:26.056985
1749  2023-10-18 09:50:26.089930
1750  2023-10-18 09:50:26.121853
1751  2023-10-18 09:50:26.153772
1752  2023-10-18 09:50:26.185672
1753  2023-10-18 09:50:26.217606
1754  2023-10-18 09:50:26.249504
1755  2023-10-18 09:50:26.281419
1756  2023-10-18 09:50:26.313334
1757  2023-10-18 09:50:26.345282
1758  2023-10-18 09:50:26.377192
1759  2023-10-18 09:50:26.426003
1760  2023-10-18 09:50:26.457925
1761  2023-10-18 09:50:26.489832
1762  2023-10-18 09:50:26.521755
1763  2023-10-18 09:50:26.553661
1764  2023-10-18 09:50:26.585586
1765  2023-10-18 09:50:26.617489
1766  2023-10-18 09:50:26.649451
1767  2023-10-18 09:50:26.681318
1768  2023-10-18 09:50:26.714262
1769  2023-10-18 09:50:26.745193
1770  2023-10-18 09:50:26.777061
1771  2023-10-18 09:50:26.825062
1772  2023-10-18 09:50:26.856977
1773  2023-10-18 09:50:26.889897
1774  2023-10-18 09:50:26.921780
1775  2023-10-18 09:50:26.953745
1776  2023-10-18 09:50:26.985640
1777  2023-10-18 09:50:27.017557
1778  2023-10-18 09:50:27.049473
1779  2023-10-18 09:50:27.081383
1780  2023-10-18 09:50:27.114266
1781  2023-10-18 09:50:27.145219
1782  2023-10-18 09:50:27.177130
1783  2023-10-18 09:50:27.225967
1784  2023-10-18 09:50:27.256913
1785  2023-10-18 09:50:27.289821
1786  2023-10-18 09:50:27.321710
1787  2023-10-18 09:50:27.353626
1788  2023-10-18 09:50:27.385607
1789  2023-10-18 09:50:27.417503
1790  2023-10-18 09:50:27.449423
1791  2023-10-18 09:50:27.481316
1792  2023-10-18 09:50:27.513198
1793  2023-10-18 09:50:27.545172
1794  2023-10-18 09:50:27.578025
1795  2023-10-18 09:50:27.624930
1796  2023-10-18 09:50:27.657838
1797  2023-10-18 09:50:27.689759
1798  2023-10-18 09:50:27.721641
1799  2023-10-18 09:50:27.753582
1800  2023-10-18 09:50:27.785496
1801  2023-10-18 09:50:27.817469
1802  2023-10-18 09:50:27.849368
1803  2023-10-18 09:50:27.881248
1804  2023-10-18 09:50:27.913129
1805  2023-10-18 09:50:27.946079
1806  2023-10-18 09:50:27.977981
1807  2023-10-18 09:50:28.024862
1808  2023-10-18 09:50:28.057783
1809  2023-10-18 09:50:28.089691
1810  2023-10-18 09:50:28.121603
1811  2023-10-18 09:50:28.153520
1812  2023-10-18 09:50:28.185454
1813  2023-10-18 09:50:28.217353
1814  2023-10-18 09:50:28.249310
1815  2023-10-18 09:50:28.282143
1816  2023-10-18 09:50:28.314085
1817  2023-10-18 09:50:28.345972
1818  2023-10-18 09:50:28.393898
1819  2023-10-18 09:50:28.425810
1820  2023-10-18 09:50:28.457673
1821  2023-10-18 09:50:28.489622
1822  2023-10-18 09:50:28.521531
1823  2023-10-18 09:50:28.553469
1824  2023-10-18 09:50:28.585366
1825  2023-10-18 09:50:28.617321
1826  2023-10-18 09:50:28.649220
1827  2023-10-18 09:50:28.681105
1828  2023-10-18 09:50:28.713130
1829  2023-10-18 09:50:28.745968
1830  2023-10-18 09:50:28.792843
1831  2023-10-18 09:50:28.825789
1832  2023-10-18 09:50:28.857697
1833  2023-10-18 09:50:28.889622
1834  2023-10-18 09:50:28.921533
1835  2023-10-18 09:50:28.953447
1836  2023-10-18 09:50:28.985364
1837  2023-10-18 09:50:29.017295
1838  2023-10-18 09:50:29.049198
1839  2023-10-18 09:50:29.081098
1840  2023-10-18 09:50:29.113991
1841  2023-10-18 09:50:29.145901
1842  2023-10-18 09:50:29.193771
1843  2023-10-18 09:50:29.225686
1844  2023-10-18 09:50:29.257631
1845  2023-10-18 09:50:29.289547
1846  2023-10-18 09:50:29.321465
1847  2023-10-18 09:50:29.353386
1848  2023-10-18 09:50:29.385290
1849  2023-10-18 09:50:29.417206
1850  2023-10-18 09:50:29.449118
1851  2023-10-18 09:50:29.482001
1852  2023-10-18 09:50:29.513917
1853  2023-10-18 09:50:29.545829
1854  2023-10-18 09:50:29.593701
1855  2023-10-18 09:50:29.625647
1856  2023-10-18 09:50:29.657566
1857  2023-10-18 09:50:29.689483
1858  2023-10-18 09:50:29.721394
1859  2023-10-18 09:50:29.753305
1860  2023-10-18 09:50:29.785233
1861  2023-10-18 09:50:29.817155
1862  2023-10-18 09:50:29.849052
1863  2023-10-18 09:50:29.880983
1864  2023-10-18 09:50:29.913879
1865  2023-10-18 09:50:29.945801
1866  2023-10-18 09:50:29.993668
1867  2023-10-18 09:50:30.025580
1868  2023-10-18 09:50:30.057464
1869  2023-10-18 09:50:30.089409
1870  2023-10-18 09:50:30.121324
1871  2023-10-18 09:50:30.153234
1872  2023-10-18 09:50:30.185153
1873  2023-10-18 09:50:30.217068
1874  2023-10-18 09:50:30.248980
1875  2023-10-18 09:50:30.280904
1876  2023-10-18 09:50:30.313810
1877  2023-10-18 09:50:30.345691
1878  2023-10-18 09:50:30.393590
1879  2023-10-18 09:50:30.425509
1880  2023-10-18 09:50:30.458426
1881  2023-10-18 09:50:30.489341
1882  2023-10-18 09:50:30.521276
1883  2023-10-18 09:50:30.554136
1884  2023-10-18 09:50:30.586049
1885  2023-10-18 09:50:30.617964
1886  2023-10-18 09:50:30.649880
1887  2023-10-18 09:50:30.681794
1888  2023-10-18 09:50:30.713708
1889  2023-10-18 09:50:30.746621
1890  2023-10-18 09:50:30.793497
1891  2023-10-18 09:50:30.825416
1892  2023-10-18 09:50:30.857325
1893  2023-10-18 09:50:30.890287
1894  2023-10-18 09:50:30.921163
1895  2023-10-18 09:50:30.953074
1896  2023-10-18 09:50:30.985980
1897  2023-10-18 09:50:31.017951
1898  2023-10-18 09:50:31.049838
1899  2023-10-18 09:50:31.081757
1900  2023-10-18 09:50:31.113677
1901  2023-10-18 09:50:31.145554
1902  2023-10-18 09:50:31.193460
1903  2023-10-18 09:50:31.225368
1904  2023-10-18 09:50:31.257289
1905  2023-10-18 09:50:31.289204
1906  2023-10-18 09:50:31.321126
1907  2023-10-18 09:50:31.354031
1908  2023-10-18 09:50:31.385912
1909  2023-10-18 09:50:31.417846
1910  2023-10-18 09:50:31.449741
1911  2023-10-18 09:50:31.481690
1912  2023-10-18 09:50:31.513603
1913  2023-10-18 09:50:31.545509
1914  2023-10-18 09:50:31.593388
1915  2023-10-18 09:50:31.625305
1916  2023-10-18 09:50:31.657220
1917  2023-10-18 09:50:31.689133
1918  2023-10-18 09:50:31.721016
1919  2023-10-18 09:50:31.752953
1920  2023-10-18 09:50:31.784876
1921  2023-10-18 09:50:31.817790
1922  2023-10-18 09:50:31.849726
1923  2023-10-18 09:50:31.881640
1924  2023-10-18 09:50:31.913500
1925  2023-10-18 09:50:31.945441
1926  2023-10-18 09:50:31.993312
1927  2023-10-18 09:50:32.025228
1928  2023-10-18 09:50:32.057147
1929  2023-10-18 09:50:32.089062
1930  2023-10-18 09:50:32.120976
1931  2023-10-18 09:50:32.153891
1932  2023-10-18 09:50:32.185828
1933  2023-10-18 09:50:32.217727
1934  2023-10-18 09:50:32.249632
1935  2023-10-18 09:50:32.281546
1936  2023-10-18 09:50:32.313438
1937  2023-10-18 09:50:32.361334
1938  2023-10-18 09:50:32.393257
1939  2023-10-18 09:50:32.425163
1940  2023-10-18 09:50:32.457082
1941  2023-10-18 09:50:32.489002
1942  2023-10-18 09:50:32.521876
1943  2023-10-18 09:50:32.553821
1944  2023-10-18 09:50:32.585735
1945  2023-10-18 09:50:32.617650
1946  2023-10-18 09:50:32.649575
1947  2023-10-18 09:50:32.681493
1948  2023-10-18 09:50:32.713362
1949  2023-10-18 09:50:32.761279
1950  2023-10-18 09:50:32.793196
1951  2023-10-18 09:50:32.825114
1952  2023-10-18 09:50:32.857022
1953  2023-10-18 09:50:32.889922
1954  2023-10-18 09:50:32.921835
1955  2023-10-18 09:50:32.953754
1956  2023-10-18 09:50:32.985667
1957  2023-10-18 09:50:33.017591
1958  2023-10-18 09:50:33.049493
1959  2023-10-18 09:50:33.081411
1960  2023-10-18 09:50:33.114293
1961  2023-10-18 09:50:33.161202
1962  2023-10-18 09:50:33.194078
1963  2023-10-18 09:50:33.225994
1964  2023-10-18 09:50:33.257908
1965  2023-10-18 09:50:33.289823
1966  2023-10-18 09:50:33.321736
1967  2023-10-18 09:50:33.353652
1968  2023-10-18 09:50:33.385597
1969  2023-10-18 09:50:33.417481
1970  2023-10-18 09:50:33.449431
1971  2023-10-18 09:50:33.481342
1972  2023-10-18 09:50:33.513261
1973  2023-10-18 09:50:33.561097
1974  2023-10-18 09:50:33.593044
1975  2023-10-18 09:50:33.625922
1976  2023-10-18 09:50:33.656865
1977  2023-10-18 09:50:33.689752
1978  2023-10-18 09:50:33.721725
1979  2023-10-18 09:50:33.753606
1980  2023-10-18 09:50:33.785523
1981  2023-10-18 09:50:33.817454
1982  2023-10-18 09:50:33.849363
1983  2023-10-18 09:50:33.881291
1984  2023-10-18 09:50:33.913154
1985  2023-10-18 09:50:33.961053
1986  2023-10-18 09:50:33.992967
1987  2023-10-18 09:50:34.025854
1988  2023-10-18 09:50:34.057803
1989  2023-10-18 09:50:34.089684
1990  2023-10-18 09:50:34.121632
1991  2023-10-18 09:50:34.153542
1992  2023-10-18 09:50:34.185461
1993  2023-10-18 09:50:34.217376
1994  2023-10-18 09:50:34.249290
1995  2023-10-18 09:50:34.281235
1996  2023-10-18 09:50:34.314083
1997  2023-10-18 09:50:34.360962
1998  2023-10-18 09:50:34.393871
1999  2023-10-18 09:50:34.425833
2000  2023-10-18 09:50:34.457762
2001  2023-10-18 09:50:34.489647
2002  2023-10-18 09:50:34.521568
2003  2023-10-18 09:50:34.553483
2004  2023-10-18 09:50:34.585404
2005  2023-10-18 09:50:34.617329
2006  2023-10-18 09:50:34.649223
2007  2023-10-18 09:50:34.681132
2008  2023-10-18 09:50:34.714056
2009  2023-10-18 09:50:34.761900
2010  2023-10-18 09:50:34.793857
2011  2023-10-18 09:50:34.825769
2012  2023-10-18 09:50:34.857691
2013  2023-10-18 09:50:34.889602
2014  2023-10-18 09:50:34.921495
2015  2023-10-18 09:50:34.954398
2016  2023-10-18 09:50:34.986326
2017  2023-10-18 09:50:35.018258
2018  2023-10-18 09:50:35.050126
2019  2023-10-18 09:50:35.081047
2020  2023-10-18 09:50:35.113961
2021  2023-10-18 09:50:35.161817
2022  2023-10-18 09:50:35.193759
2023  2023-10-18 09:50:35.225674
2024  2023-10-18 09:50:35.257563
2025  2023-10-18 09:50:35.289509
2026  2023-10-18 09:50:35.321431
2027  2023-10-18 09:50:35.353336
2028  2023-10-18 09:50:35.385253
2029  2023-10-18 09:50:35.417175
2030  2023-10-18 09:50:35.449089
2031  2023-10-18 09:50:35.482002
2032  2023-10-18 09:50:35.513876
2033  2023-10-18 09:50:35.561796
2034  2023-10-18 09:50:35.593722
2035  2023-10-18 09:50:35.625606
2036  2023-10-18 09:50:35.657524
2037  2023-10-18 09:50:35.689453
2038  2023-10-18 09:50:35.721345
2039  2023-10-18 09:50:35.753280
2040  2023-10-18 09:50:35.785151
2041  2023-10-18 09:50:35.817090
2042  2023-10-18 09:50:35.849531
2043  2023-10-18 09:50:35.881446
2044  2023-10-18 09:50:35.929387
2045  2023-10-18 09:50:35.961324
2046  2023-10-18 09:50:35.994241
2047  2023-10-18 09:50:36.026155
2048  2023-10-18 09:50:36.058072
2049  2023-10-18 09:50:36.089018
2050  2023-10-18 09:50:36.120900
2051  2023-10-18 09:50:36.153853
2052  2023-10-18 09:50:36.185701
2053  2023-10-18 09:50:36.217662
2054  2023-10-18 09:50:36.249558
2055  2023-10-18 09:50:36.281488
2056  2023-10-18 09:50:36.329343
2057  2023-10-18 09:50:36.361265
2058  2023-10-18 09:50:36.394176
2059  2023-10-18 09:50:36.426104
2060  2023-10-18 09:50:36.458010
2061  2023-10-18 09:50:36.488950
2062  2023-10-18 09:50:36.521838
2063  2023-10-18 09:50:36.553753
2064  2023-10-18 09:50:36.585665
2065  2023-10-18 09:50:36.617587
2066  2023-10-18 09:50:36.649512
2067  2023-10-18 09:50:36.681400
2068  2023-10-18 09:50:36.729282
2069  2023-10-18 09:50:36.761186
2070  2023-10-18 09:50:36.793112
2071  2023-10-18 09:50:36.825028
2072  2023-10-18 09:50:36.857930
2073  2023-10-18 09:50:36.888855
2074  2023-10-18 09:50:36.921788
2075  2023-10-18 09:50:36.953672
2076  2023-10-18 09:50:36.985595
2077  2023-10-18 09:50:37.017505
2078  2023-10-18 09:50:37.049420
2079  2023-10-18 09:50:37.081346
2080  2023-10-18 09:50:37.129219
2081  2023-10-18 09:50:37.161121
2082  2023-10-18 09:50:37.194048
2083  2023-10-18 09:50:37.224923
2084  2023-10-18 09:50:37.257875
2085  2023-10-18 09:50:37.289802
2086  2023-10-18 09:50:37.321689
2087  2023-10-18 09:50:37.353632
2088  2023-10-18 09:50:37.385519
2089  2023-10-18 09:50:37.417446
2090  2023-10-18 09:50:37.449366
2091  2023-10-18 09:50:37.481281
2092  2023-10-18 09:50:37.529140
2093  2023-10-18 09:50:37.562023
2094  2023-10-18 09:50:37.593970
2095  2023-10-18 09:50:37.625853
2096  2023-10-18 09:50:37.657769
2097  2023-10-18 09:50:37.689693
2098  2023-10-18 09:50:37.721597
2099  2023-10-18 09:50:37.753510
2100  2023-10-18 09:50:37.785668
2101  2023-10-18 09:50:37.818581
2102  2023-10-18 09:50:37.849536
2103  2023-10-18 09:50:37.881413
2104  2023-10-18 09:50:37.929381
2105  2023-10-18 09:50:37.961261
2106  2023-10-18 09:50:37.994210
2107  2023-10-18 09:50:38.026111
2108  2023-10-18 09:50:38.058048
2109  2023-10-18 09:50:38.088951
2110  2023-10-18 09:50:38.120876
2111  2023-10-18 09:50:38.153815
2112  2023-10-18 09:50:38.185660
2113  2023-10-18 09:50:38.217607
2114  2023-10-18 09:50:38.249521
2115  2023-10-18 09:50:38.281404
2116  2023-10-18 09:50:38.329307
2117  2023-10-18 09:50:38.361229
2118  2023-10-18 09:50:38.394107
2119  2023-10-18 09:50:38.426068
2120  2023-10-18 09:50:38.458015
2121  2023-10-18 09:50:38.488926
2122  2023-10-18 09:50:38.521819
2123  2023-10-18 09:50:38.553726
2124  2023-10-18 09:50:38.585665
2125  2023-10-18 09:50:38.617589
2126  2023-10-18 09:50:38.649497
2127  2023-10-18 09:50:38.681381
2128  2023-10-18 09:50:38.729253
2129  2023-10-18 09:50:38.761202
2130  2023-10-18 09:50:38.794111
2131  2023-10-18 09:50:38.825003
2132  2023-10-18 09:50:38.857909
2133  2023-10-18 09:50:38.889824
2134  2023-10-18 09:50:38.921737
2135  2023-10-18 09:50:38.953688
2136  2023-10-18 09:50:38.985600
2137  2023-10-18 09:50:39.017510
2138  2023-10-18 09:50:39.049396
2139  2023-10-18 09:50:39.081312
2140  2023-10-18 09:50:39.129184
2141  2023-10-18 09:50:39.161131
2142  2023-10-18 09:50:39.193037
2143  2023-10-18 09:50:39.225925
2144  2023-10-18 09:50:39.257840
2145  2023-10-18 09:50:39.289754
2146  2023-10-18 09:50:39.321702
2147  2023-10-18 09:50:39.353588
2148  2023-10-18 09:50:39.385498
2149  2023-10-18 09:50:39.417413
2150  2023-10-18 09:50:39.449327
2151  2023-10-18 09:50:39.481243
2152  2023-10-18 09:50:39.529211
2153  2023-10-18 09:50:39.561147
2154  2023-10-18 09:50:39.593045
2155  2023-10-18 09:50:39.624954
2156  2023-10-18 09:50:39.657873
2157  2023-10-18 09:50:39.689796
2158  2023-10-18 09:50:39.721716
2159  2023-10-18 09:50:39.753587
2160  2023-10-18 09:50:39.785502
2161  2023-10-18 09:50:39.817417
2162  2023-10-18 09:50:39.849330
2163  2023-10-18 09:50:39.897202
2164  2023-10-18 09:50:39.929118
2165  2023-10-18 09:50:39.961032
2166  2023-10-18 09:50:39.992946
2167  2023-10-18 09:50:40.024892
2168  2023-10-18 09:50:40.057830
2169  2023-10-18 09:50:40.089721
2170  2023-10-18 09:50:40.121646
2171  2023-10-18 09:50:40.153561
2172  2023-10-18 09:50:40.185467
2173  2023-10-18 09:50:40.217433
2174  2023-10-18 09:50:40.250343
2175  2023-10-18 09:50:40.297219
2176  2023-10-18 09:50:40.329133
2177  2023-10-18 09:50:40.362057
2178  2023-10-18 09:50:40.393962
2179  2023-10-18 09:50:40.425875
2180  2023-10-18 09:50:40.457789
2181  2023-10-18 09:50:40.489704
2182  2023-10-18 09:50:40.521619
2183  2023-10-18 09:50:40.553534
2184  2023-10-18 09:50:40.585449
2185  2023-10-18 09:50:40.617362
2186  2023-10-18 09:50:40.649277
2187  2023-10-18 09:50:40.698149
2188  2023-10-18 09:50:40.730061
2189  2023-10-18 09:50:40.761003
2190  2023-10-18 09:50:40.792929
2191  2023-10-18 09:50:40.825808
2192  2023-10-18 09:50:40.857757
2193  2023-10-18 09:50:40.889635
2194  2023-10-18 09:50:40.921551
2195  2023-10-18 09:50:40.953465
2196  2023-10-18 09:50:40.985380
2197  2023-10-18 09:50:41.017294
2198  2023-10-18 09:50:41.049209
2199  2023-10-18 09:50:41.097079
2200  2023-10-18 09:50:41.129027
2201  2023-10-18 09:50:41.161907
2202  2023-10-18 09:50:41.192892
2203  2023-10-18 09:50:41.225857
2204  2023-10-18 09:50:41.257755
2205  2023-10-18 09:50:41.289673
2206  2023-10-18 09:50:41.321584
2207  2023-10-18 09:50:41.353500
2208  2023-10-18 09:50:41.385415
2209  2023-10-18 09:50:41.417332
2210  2023-10-18 09:50:41.449247
2211  2023-10-18 09:50:41.497118
2212  2023-10-18 09:50:41.529138
2213  2023-10-18 09:50:41.562047
2214  2023-10-18 09:50:41.592967
2215  2023-10-18 09:50:41.624882
2216  2023-10-18 09:50:41.657818
2217  2023-10-18 09:50:41.689733
2218  2023-10-18 09:50:41.721621
2219  2023-10-18 09:50:41.753565
2220  2023-10-18 09:50:41.785483
2221  2023-10-18 09:50:41.817364
2222  2023-10-18 09:50:41.849374
2223  2023-10-18 09:50:41.897246
2224  2023-10-18 09:50:41.929193
2225  2023-10-18 09:50:41.961111
2226  2023-10-18 09:50:41.993050
2227  2023-10-18 09:50:42.024998
2228  2023-10-18 09:50:42.056922
2229  2023-10-18 09:50:42.089827
2230  2023-10-18 09:50:42.121707
2231  2023-10-18 09:50:42.153647
2232  2023-10-18 09:50:42.185572
2233  2023-10-18 09:50:42.217492
2234  2023-10-18 09:50:42.249400
2235  2023-10-18 09:50:42.297277
2236  2023-10-18 09:50:42.329204
2237  2023-10-18 09:50:42.361100
2238  2023-10-18 09:50:42.393012
2239  2023-10-18 09:50:42.425946
2240  2023-10-18 09:50:42.457842
2241  2023-10-18 09:50:42.489750
2242  2023-10-18 09:50:42.521666
2243  2023-10-18 09:50:42.553553
2244  2023-10-18 09:50:42.585501
2245  2023-10-18 09:50:42.617417
2246  2023-10-18 09:50:42.649324
2247  2023-10-18 09:50:42.697196
2248  2023-10-18 09:50:42.729121
2249  2023-10-18 09:50:42.760998
2250  2023-10-18 09:50:42.792945
2251  2023-10-18 09:50:42.824865
2252  2023-10-18 09:50:42.857810
2253  2023-10-18 09:50:42.889704
2254  2023-10-18 09:50:42.921569
2255  2023-10-18 09:50:42.953484
2256  2023-10-18 09:50:42.985430
2257  2023-10-18 09:50:43.017346
2258  2023-10-18 09:50:43.049255
2259  2023-10-18 09:50:43.097136
2260  2023-10-18 09:50:43.129056
2261  2023-10-18 09:50:43.161070
2262  2023-10-18 09:50:43.192985
2263  2023-10-18 09:50:43.225852
2264  2023-10-18 09:50:43.257767
2265  2023-10-18 09:50:43.289683
2266  2023-10-18 09:50:43.321597
2267  2023-10-18 09:50:43.353510
2268  2023-10-18 09:50:43.385426
2269  2023-10-18 09:50:43.417340
2270  2023-10-18 09:50:43.466215
2271  2023-10-18 09:50:43.498190
2272  2023-10-18 09:50:43.529148
2273  2023-10-18 09:50:43.562020
2274  2023-10-18 09:50:43.593983
2275  2023-10-18 09:50:43.625899
2276  2023-10-18 09:50:43.657814
2277  2023-10-18 09:50:43.689727
2278  2023-10-18 09:50:43.721642
2279  2023-10-18 09:50:43.753589
2280  2023-10-18 09:50:43.785470
2281  2023-10-18 09:50:43.817387
2282  2023-10-18 09:50:43.865268
2283  2023-10-18 09:50:43.897172
2284  2023-10-18 09:50:43.929155
2285  2023-10-18 09:50:43.961070
2286  2023-10-18 09:50:43.993018
2287  2023-10-18 09:50:44.024940
2288  2023-10-18 09:50:44.057812
2289  2023-10-18 09:50:44.089727
2290  2023-10-18 09:50:44.121642
2291  2023-10-18 09:50:44.153557
2292  2023-10-18 09:50:44.185471
2293  2023-10-18 09:50:44.217386
2294  2023-10-18 09:50:44.265324
2295  2023-10-18 09:50:44.297271
2296  2023-10-18 09:50:44.329186
2297  2023-10-18 09:50:44.361104
2298  2023-10-18 09:50:44.393007
2299  2023-10-18 09:50:44.425908
2300  2023-10-18 09:50:44.458808
2301  2023-10-18 09:50:44.489790
2302  2023-10-18 09:50:44.521672
2303  2023-10-18 09:50:44.553640
2304  2023-10-18 09:50:44.585555
2305  2023-10-18 09:50:44.617468
2306  2023-10-18 09:50:44.665420
2307  2023-10-18 09:50:44.697366
2308  2023-10-18 09:50:44.729276
2309  2023-10-18 09:50:44.761192
2310  2023-10-18 09:50:44.793078
2311  2023-10-18 09:50:44.825148
2312  2023-10-18 09:50:44.857098
2313  2023-10-18 09:50:44.890054
2314  2023-10-18 09:50:44.921071
2315  2023-10-18 09:50:44.953054
2316  2023-10-18 09:50:44.984988
2317  2023-10-18 09:50:45.017933
2318  2023-10-18 09:50:45.065776
2319  2023-10-18 09:50:45.097688
2320  2023-10-18 09:50:45.129638
2321  2023-10-18 09:50:45.161572
2322  2023-10-18 09:50:45.193430
2323  2023-10-18 09:50:45.225386
2324  2023-10-18 09:50:45.257291
2325  2023-10-18 09:50:45.289215
2326  2023-10-18 09:50:45.321171
2327  2023-10-18 09:50:45.353085
2328  2023-10-18 09:50:45.385000
2329  2023-10-18 09:50:45.416939
2330  2023-10-18 09:50:45.465840
2331  2023-10-18 09:50:45.497828
2332  2023-10-18 09:50:45.529716
2333  2023-10-18 09:50:45.561622
2334  2023-10-18 09:50:45.593499
2335  2023-10-18 09:50:45.625445
2336  2023-10-18 09:50:45.657369
2337  2023-10-18 09:50:45.689314
2338  2023-10-18 09:50:45.721194
2339  2023-10-18 09:50:45.753073
2340  2023-10-18 09:50:45.784987
2341  2023-10-18 09:50:45.816927
2342  2023-10-18 09:50:45.865771
2343  2023-10-18 09:50:45.897718
2344  2023-10-18 09:50:45.929641
2345  2023-10-18 09:50:45.961547
2346  2023-10-18 09:50:45.993430
2347  2023-10-18 09:50:46.025371
2348  2023-10-18 09:50:46.057297
2349  2023-10-18 09:50:46.089206
2350  2023-10-18 09:50:46.122133
2351  2023-10-18 09:50:46.153034
2352  2023-10-18 09:50:46.184950
2353  2023-10-18 09:50:46.216871
2354  2023-10-18 09:50:46.265702
2355  2023-10-18 09:50:46.297641
2356  2023-10-18 09:50:46.329565
2357  2023-10-18 09:50:46.361478
2358  2023-10-18 09:50:46.393409
2359  2023-10-18 09:50:46.425276
2360  2023-10-18 09:50:46.457238
2361  2023-10-18 09:50:46.489159
2362  2023-10-18 09:50:46.521049
2363  2023-10-18 09:50:46.553932
2364  2023-10-18 09:50:46.585847
2365  2023-10-18 09:50:46.617823
2366  2023-10-18 09:50:46.665633
2367  2023-10-18 09:50:46.697580
2368  2023-10-18 09:50:46.729495
2369  2023-10-18 09:50:46.761377
2370  2023-10-18 09:50:46.793292
2371  2023-10-18 09:50:46.825262
2372  2023-10-18 09:50:46.857178
2373  2023-10-18 09:50:46.889068
2374  2023-10-18 09:50:46.922947
2375  2023-10-18 09:50:46.953863
2376  2023-10-18 09:50:46.985777
2377  2023-10-18 09:50:47.033679
2378  2023-10-18 09:50:47.065564
2379  2023-10-18 09:50:47.097480
2380  2023-10-18 09:50:47.129394
2381  2023-10-18 09:50:47.161310
2382  2023-10-18 09:50:47.193223
2383  2023-10-18 09:50:47.225170
2384  2023-10-18 09:50:47.257083
2385  2023-10-18 09:50:47.288968
2386  2023-10-18 09:50:47.320926
2387  2023-10-18 09:50:47.353827
2388  2023-10-18 09:50:47.385757
2389  2023-10-18 09:50:47.433615
2390  2023-10-18 09:50:47.465520
2391  2023-10-18 09:50:47.497467
2392  2023-10-18 09:50:47.529354
2393  2023-10-18 09:50:47.561274
2394  2023-10-18 09:50:47.593153
2395  2023-10-18 09:50:47.625068
2396  2023-10-18 09:50:47.657029
2397  2023-10-18 09:50:47.689895
2398  2023-10-18 09:50:47.721844
2399  2023-10-18 09:50:47.753757
2400  2023-10-18 09:50:47.785639
2401  2023-10-18 09:50:47.833549
2402  2023-10-18 09:50:47.865426
2403  2023-10-18 09:50:47.897374
2404  2023-10-18 09:50:47.929321
2405  2023-10-18 09:50:47.961202
2406  2023-10-18 09:50:47.993121
2407  2023-10-18 09:50:48.025034
2408  2023-10-18 09:50:48.056958
2409  2023-10-18 09:50:48.089885
2410  2023-10-18 09:50:48.121782
2411  2023-10-18 09:50:48.153690
2412  2023-10-18 09:50:48.185601
2413  2023-10-18 09:50:48.233457
2414  2023-10-18 09:50:48.265395
2415  2023-10-18 09:50:48.297271
2416  2023-10-18 09:50:48.329241
2417  2023-10-18 09:50:48.361126
2418  2023-10-18 09:50:48.393049
2419  2023-10-18 09:50:48.425074
2420  2023-10-18 09:50:48.456989
2421  2023-10-18 09:50:48.488934
2422  2023-10-18 09:50:48.521850
2423  2023-10-18 09:50:48.553787
2424  2023-10-18 09:50:48.585677
2425  2023-10-18 09:50:48.633517
2426  2023-10-18 09:50:48.665432
2427  2023-10-18 09:50:48.697347
2428  2023-10-18 09:50:48.729309
2429  2023-10-18 09:50:48.761203
2430  2023-10-18 09:50:48.793119
2431  2023-10-18 09:50:48.825005
2432  2023-10-18 09:50:48.856952
2433  2023-10-18 09:50:48.888879
2434  2023-10-18 09:50:48.921801
2435  2023-10-18 09:50:48.953687
2436  2023-10-18 09:50:48.985672
2437  2023-10-18 09:50:49.033639
2438  2023-10-18 09:50:49.065561
2439  2023-10-18 09:50:49.097432
2440  2023-10-18 09:50:49.129371
2441  2023-10-18 09:50:49.162295
2442  2023-10-18 09:50:49.194180
2443  2023-10-18 09:50:49.226089
2444  2023-10-18 09:50:49.258017
2445  2023-10-18 09:50:49.289919
2446  2023-10-18 09:50:49.321873
2447  2023-10-18 09:50:49.353747
2448  2023-10-18 09:50:49.385662
2449  2023-10-18 09:50:49.433568
2450  2023-10-18 09:50:49.465448
2451  2023-10-18 09:50:49.497363
2452  2023-10-18 09:50:49.529325
2453  2023-10-18 09:50:49.561233
2454  2023-10-18 09:50:49.593162
2455  2023-10-18 09:50:49.625054
2456  2023-10-18 09:50:49.657933
2457  2023-10-18 09:50:49.689893
2458  2023-10-18 09:50:49.721798
2459  2023-10-18 09:50:49.753702
2460  2023-10-18 09:50:49.785592
2461  2023-10-18 09:50:49.833464
2462  2023-10-18 09:50:49.865379
2463  2023-10-18 09:50:49.897298
2464  2023-10-18 09:50:49.929262
2465  2023-10-18 09:50:49.961147
2466  2023-10-18 09:50:49.993070
2467  2023-10-18 09:50:50.024988
2468  2023-10-18 09:50:50.057897
2469  2023-10-18 09:50:50.089814
2470  2023-10-18 09:50:50.121718
2471  2023-10-18 09:50:50.153644
2472  2023-10-18 09:50:50.185558
2473  2023-10-18 09:50:50.233430
2474  2023-10-18 09:50:50.265310
2475  2023-10-18 09:50:50.297224
2476  2023-10-18 09:50:50.329141
2477  2023-10-18 09:50:50.361082
2478  2023-10-18 09:50:50.393001
2479  2023-10-18 09:50:50.425880
2480  2023-10-18 09:50:50.457830
2481  2023-10-18 09:50:50.489750
2482  2023-10-18 09:50:50.521650
2483  2023-10-18 09:50:50.553565
2484  2023-10-18 09:50:50.585454
2485  2023-10-18 09:50:50.633375
2486  2023-10-18 09:50:50.665240
2487  2023-10-18 09:50:50.697155
2488  2023-10-18 09:50:50.729104
2489  2023-10-18 09:50:50.761015
2490  2023-10-18 09:50:50.793932
2491  2023-10-18 09:50:50.825811
2492  2023-10-18 09:50:50.857728
2493  2023-10-18 09:50:50.889643
2494  2023-10-18 09:50:50.921557
2495  2023-10-18 09:50:50.953476
2496  2023-10-18 09:50:51.001368
2497  2023-10-18 09:50:51.033294
2498  2023-10-18 09:50:51.065214
2499  2023-10-18 09:50:51.097119
2500  2023-10-18 09:50:51.129033
2501  2023-10-18 09:50:51.161948
2502  2023-10-18 09:50:51.193868
2503  2023-10-18 09:50:51.225782
2504  2023-10-18 09:50:51.257696
2505  2023-10-18 09:50:51.289643
2506  2023-10-18 09:50:51.321526
2507  2023-10-18 09:50:51.353563
2508  2023-10-18 09:50:51.401438
2509  2023-10-18 09:50:51.433320
2510  2023-10-18 09:50:51.465269
2511  2023-10-18 09:50:51.498145
2512  2023-10-18 09:50:51.529092
2513  2023-10-18 09:50:51.562053
2514  2023-10-18 09:50:51.593080
2515  2023-10-18 09:50:51.624942
2516  2023-10-18 09:50:51.657855
2517  2023-10-18 09:50:51.689828
2518  2023-10-18 09:50:51.721731
2519  2023-10-18 09:50:51.753623
2520  2023-10-18 09:50:51.801470
2521  2023-10-18 09:50:51.833424
2522  2023-10-18 09:50:51.865300
2523  2023-10-18 09:50:51.897255
2524  2023-10-18 09:50:51.929155
2525  2023-10-18 09:50:51.961078
2526  2023-10-18 09:50:51.992991
2527  2023-10-18 09:50:52.024906
2528  2023-10-18 09:50:52.057818
2529  2023-10-18 09:50:52.089700
2530  2023-10-18 09:50:52.121668
2531  2023-10-18 09:50:52.153530
2532  2023-10-18 09:50:52.201432
2533  2023-10-18 09:50:52.233352
2534  2023-10-18 09:50:52.265286
2535  2023-10-18 09:50:52.297145
2536  2023-10-18 09:50:52.329133
2537  2023-10-18 09:50:52.361005
2538  2023-10-18 09:50:52.392919
2539  2023-10-18 09:50:52.425837
2540  2023-10-18 09:50:52.457716
2541  2023-10-18 09:50:52.489631
2542  2023-10-18 09:50:52.521591
2543  2023-10-18 09:50:52.553487
2544  2023-10-18 09:50:52.601364
2545  2023-10-18 09:50:52.633305
2546  2023-10-18 09:50:52.665195
2547  2023-10-18 09:50:52.697110
2548  2023-10-18 09:50:52.729044
2549  2023-10-18 09:50:52.760936
2550  2023-10-18 09:50:52.793851
2551  2023-10-18 09:50:52.825757
2552  2023-10-18 09:50:52.857672
2553  2023-10-18 09:50:52.889562
2554  2023-10-18 09:50:52.921500
2555  2023-10-18 09:50:52.953419
2556  2023-10-18 09:50:53.001311
2557  2023-10-18 09:50:53.034176
2558  2023-10-18 09:50:53.066121
2559  2023-10-18 09:50:53.097007
2560  2023-10-18 09:50:53.128922
2561  2023-10-18 09:50:53.161834
2562  2023-10-18 09:50:53.193749
2563  2023-10-18 09:50:53.225697
2564  2023-10-18 09:50:53.257578
2565  2023-10-18 09:50:53.289493
2566  2023-10-18 09:50:53.321458
2567  2023-10-18 09:50:53.354322
2568  2023-10-18 09:50:53.401239
2569  2023-10-18 09:50:53.434154
2570  2023-10-18 09:50:53.466021
2571  2023-10-18 09:50:53.497026
2572  2023-10-18 09:50:53.528936
2573  2023-10-18 09:50:53.561849
2574  2023-10-18 09:50:53.593770
2575  2023-10-18 09:50:53.625677
2576  2023-10-18 09:50:53.657592
2577  2023-10-18 09:50:53.689539
2578  2023-10-18 09:50:53.721467
2579  2023-10-18 09:50:53.753378
2580  2023-10-18 09:50:53.801289
2581  2023-10-18 09:50:53.833123
2582  2023-10-18 09:50:53.866036
2583  2023-10-18 09:50:53.896983
2584  2023-10-18 09:50:53.929920
2585  2023-10-18 09:50:53.961779
2586  2023-10-18 09:50:53.993729
2587  2023-10-18 09:50:54.025642
2588  2023-10-18 09:50:54.057548
2589  2023-10-18 09:50:54.089472
2590  2023-10-18 09:50:54.121400
2591  2023-10-18 09:50:54.153268
2592  2023-10-18 09:50:54.202136
2593  2023-10-18 09:50:54.234052
2594  2023-10-18 09:50:54.266011
2595  2023-10-18 09:50:54.297984
2596  2023-10-18 09:50:54.328901
2597  2023-10-18 09:50:54.361865
2598  2023-10-18 09:50:54.393765
2599  2023-10-18 09:50:54.425643
2600  2023-10-18 09:50:54.457557
2601  2023-10-18 09:50:54.489472
2602  2023-10-18 09:50:54.521432
2603  2023-10-18 09:50:54.569292
2604  2023-10-18 09:50:54.601179
2605  2023-10-18 09:50:54.633115
2606  2023-10-18 09:50:54.665003
2607  2023-10-18 09:50:54.696948
2608  2023-10-18 09:50:54.729862
2609  2023-10-18 09:50:54.761745
2610  2023-10-18 09:50:54.793659
2611  2023-10-18 09:50:54.825574
2612  2023-10-18 09:50:54.857530
2613  2023-10-18 09:50:54.889403
2614  2023-10-18 09:50:54.921318
2615  2023-10-18 09:50:54.969190
2616  2023-10-18 09:50:55.001105
2617  2023-10-18 09:50:55.034016
2618  2023-10-18 09:50:55.065933
2619  2023-10-18 09:50:55.096848
2620  2023-10-18 09:50:55.129760
2621  2023-10-18 09:50:55.161675
2622  2023-10-18 09:50:55.193621
2623  2023-10-18 09:50:55.225550
2624  2023-10-18 09:50:55.257419
2625  2023-10-18 09:50:55.289334
2626  2023-10-18 09:50:55.321314
2627  2023-10-18 09:50:55.369120
2628  2023-10-18 09:50:55.402032
2629  2023-10-18 09:50:55.433947
2630  2023-10-18 09:50:55.465895
2631  2023-10-18 09:50:55.497777
2632  2023-10-18 09:50:55.529691
2633  2023-10-18 09:50:55.561607
2634  2023-10-18 09:50:55.594519
2635  2023-10-18 09:50:55.625437
2636  2023-10-18 09:50:55.657350
2637  2023-10-18 09:50:55.689265
2638  2023-10-18 09:50:55.721234
2639  2023-10-18 09:50:55.770082
2640  2023-10-18 09:50:55.801964
2641  2023-10-18 09:50:55.833878
2642  2023-10-18 09:50:55.865862
2643  2023-10-18 09:50:55.897738
2644  2023-10-18 09:50:55.929679
2645  2023-10-18 09:50:55.961593
2646  2023-10-18 09:50:55.993594
2647  2023-10-18 09:50:56.025474
2648  2023-10-18 09:50:56.058384
2649  2023-10-18 09:50:56.089368
2650  2023-10-18 09:50:56.121359
2651  2023-10-18 09:50:56.169232
2652  2023-10-18 09:50:56.201146
2653  2023-10-18 09:50:56.233095
2654  2023-10-18 09:50:56.265006
2655  2023-10-18 09:50:56.296889
2656  2023-10-18 09:50:56.328804
2657  2023-10-18 09:50:56.361716
2658  2023-10-18 09:50:56.393658
2659  2023-10-18 09:50:56.425545
2660  2023-10-18 09:50:56.457460
2661  2023-10-18 09:50:56.489375
2662  2023-10-18 09:50:56.521333
2663  2023-10-18 09:50:56.569161
2664  2023-10-18 09:50:56.602121
2665  2023-10-18 09:50:56.632991
2666  2023-10-18 09:50:56.665903
2667  2023-10-18 09:50:56.697817
2668  2023-10-18 09:50:56.729768
2669  2023-10-18 09:50:56.761647
2670  2023-10-18 09:50:56.793562
2671  2023-10-18 09:50:56.825477
2672  2023-10-18 09:50:56.858389
2673  2023-10-18 09:50:56.889310
2674  2023-10-18 09:50:56.921236
2675  2023-10-18 09:50:56.970091
2676  2023-10-18 09:50:57.002005
2677  2023-10-18 09:50:57.033951
2678  2023-10-18 09:50:57.065837
2679  2023-10-18 09:50:57.097750
2680  2023-10-18 09:50:57.129664
2681  2023-10-18 09:50:57.161579
2682  2023-10-18 09:50:57.193529
2683  2023-10-18 09:50:57.225408
2684  2023-10-18 09:50:57.257366
2685  2023-10-18 09:50:57.289238
2686  2023-10-18 09:50:57.321182
2687  2023-10-18 09:50:57.369024
2688  2023-10-18 09:50:57.401937
2689  2023-10-18 09:50:57.432854
2690  2023-10-18 09:50:57.465766
2691  2023-10-18 09:50:57.497680
2692  2023-10-18 09:50:57.529638
2693  2023-10-18 09:50:57.561510
2694  2023-10-18 09:50:57.593426
2695  2023-10-18 09:50:57.625354
2696  2023-10-18 09:50:57.658288
2697  2023-10-18 09:50:57.689169
2698  2023-10-18 09:50:57.722118
2699  2023-10-18 09:50:57.769954
2700  2023-10-18 09:50:57.801909
2701  2023-10-18 09:50:57.833783
2702  2023-10-18 09:50:57.865697
2703  2023-10-18 09:50:57.897612
2704  2023-10-18 09:50:57.929582
2705  2023-10-18 09:50:57.961441
2706  2023-10-18 09:50:57.993354
2707  2023-10-18 09:50:58.025270
2708  2023-10-18 09:50:58.058182
2709  2023-10-18 09:50:58.089125
2710  2023-10-18 09:50:58.121044
2711  2023-10-18 09:50:58.169884
2712  2023-10-18 09:50:58.201799
2713  2023-10-18 09:50:58.233712
2714  2023-10-18 09:50:58.265628
2715  2023-10-18 09:50:58.297542
2716  2023-10-18 09:50:58.329457
2717  2023-10-18 09:50:58.361371
2718  2023-10-18 09:50:58.393333
2719  2023-10-18 09:50:58.425240
2720  2023-10-18 09:50:58.457144
2721  2023-10-18 09:50:58.489030
2722  2023-10-18 09:50:58.537900
2723  2023-10-18 09:50:58.569814
2724  2023-10-18 09:50:58.601764
2725  2023-10-18 09:50:58.633679
2726  2023-10-18 09:50:58.665591
2727  2023-10-18 09:50:58.697496
2728  2023-10-18 09:50:58.729413
2729  2023-10-18 09:50:58.762312
2730  2023-10-18 09:50:58.793217
2731  2023-10-18 09:50:58.825132
2732  2023-10-18 09:50:58.858082
2733  2023-10-18 09:50:58.888995
2734  2023-10-18 09:50:58.937874
2735  2023-10-18 09:50:58.969745
2736  2023-10-18 09:50:59.001660
2737  2023-10-18 09:50:59.033574
2738  2023-10-18 09:50:59.065522
2739  2023-10-18 09:50:59.097455
2740  2023-10-18 09:50:59.129319
2741  2023-10-18 09:50:59.161233
2742  2023-10-18 09:50:59.193192
2743  2023-10-18 09:50:59.225112
2744  2023-10-18 09:50:59.258973
2745  2023-10-18 09:50:59.289889
2746  2023-10-18 09:50:59.338759
2747  2023-10-18 09:50:59.371671
2748  2023-10-18 09:50:59.403586
2749  2023-10-18 09:50:59.434549
2750  2023-10-18 09:50:59.467414
2751  2023-10-18 09:50:59.498415
2752  2023-10-18 09:50:59.531283
2753  2023-10-18 09:50:59.563159
2754  2023-10-18 09:50:59.595100
2755  2023-10-18 09:50:59.625990
2756  2023-10-18 09:50:59.658925
2757  2023-10-18 09:50:59.690853
2758  2023-10-18 09:50:59.738731
2759  2023-10-18 09:50:59.771672
2760  2023-10-18 09:50:59.801522
2761  2023-10-18 09:50:59.834466
2762  2023-10-18 09:50:59.866380
2763  2023-10-18 09:50:59.898293
2764  2023-10-18 09:50:59.931213
2765  2023-10-18 09:50:59.963120
2766  2023-10-18 09:50:59.995045
2767  2023-10-18 09:51:00.026961
2768  2023-10-18 09:51:00.058873
2769  2023-10-18 09:51:00.090791
2770  2023-10-18 09:51:00.138663
2771  2023-10-18 09:51:00.170566
2772  2023-10-18 09:51:00.202481
2773  2023-10-18 09:51:00.235408
2774  2023-10-18 09:51:00.266322
2775  2023-10-18 09:51:00.298226
2776  2023-10-18 09:51:00.330134
2777  2023-10-18 09:51:00.362112
2778  2023-10-18 09:51:00.394971
2779  2023-10-18 09:51:00.425909
2780  2023-10-18 09:51:00.457767
2781  2023-10-18 09:51:00.489714
2782  2023-10-18 09:51:00.538583
2783  2023-10-18 09:51:00.570498
2784  2023-10-18 09:51:00.602425
2785  2023-10-18 09:51:00.634332
2786  2023-10-18 09:51:00.666258
2787  2023-10-18 09:51:00.698157
2788  2023-10-18 09:51:00.730071
2789  2023-10-18 09:51:00.762019
2790  2023-10-18 09:51:00.793939
2791  2023-10-18 09:51:00.825881
2792  2023-10-18 09:51:00.858855
2793  2023-10-18 09:51:00.889745
2794  2023-10-18 09:51:00.938639
2795  2023-10-18 09:51:00.970507
2796  2023-10-18 09:51:01.002485
2797  2023-10-18 09:51:01.034375
2798  2023-10-18 09:51:01.066300
2799  2023-10-18 09:51:01.098195
2800  2023-10-18 09:51:01.130122
2801  2023-10-18 09:51:01.162020
2802  2023-10-18 09:51:01.193942
2803  2023-10-18 09:51:01.225854
2804  2023-10-18 09:51:01.257787
2805  2023-10-18 09:51:01.289690
2806  2023-10-18 09:51:01.337550
2807  2023-10-18 09:51:01.369469
2808  2023-10-18 09:51:01.402382
2809  2023-10-18 09:51:01.434300
2810  2023-10-18 09:51:01.466207
2811  2023-10-18 09:51:01.498136
2812  2023-10-18 09:51:01.530039
2813  2023-10-18 09:51:01.561972
2814  2023-10-18 09:51:01.593883
2815  2023-10-18 09:51:01.625812
2816  2023-10-18 09:51:01.657708
2817  2023-10-18 09:51:01.690610
2818  2023-10-18 09:51:01.737665
2819  2023-10-18 09:51:01.769531
2820  2023-10-18 09:51:01.802508
2821  2023-10-18 09:51:01.834358
2822  2023-10-18 09:51:01.865325
2823  2023-10-18 09:51:01.898224
2824  2023-10-18 09:51:01.930147
2825  2023-10-18 09:51:01.962061
2826  2023-10-18 09:51:01.993979
2827  2023-10-18 09:51:02.025896
2828  2023-10-18 09:51:02.057822
2829  2023-10-18 09:51:02.105665
2830  2023-10-18 09:51:02.137600
2831  2023-10-18 09:51:02.169492
2832  2023-10-18 09:51:02.201402
2833  2023-10-18 09:51:02.234333
2834  2023-10-18 09:51:02.266204
2835  2023-10-18 09:51:02.297162
2836  2023-10-18 09:51:02.329058
2837  2023-10-18 09:51:02.361988
2838  2023-10-18 09:51:02.393885
2839  2023-10-18 09:51:02.425850
2840  2023-10-18 09:51:02.457736
2841  2023-10-18 09:51:02.505595
2842  2023-10-18 09:51:02.537528
2843  2023-10-18 09:51:02.569424
2844  2023-10-18 09:51:02.601339
2845  2023-10-18 09:51:02.633247
2846  2023-10-18 09:51:02.665226
2847  2023-10-18 09:51:02.697075
2848  2023-10-18 09:51:02.729012
2849  2023-10-18 09:51:02.760914
2850  2023-10-18 09:51:02.793849
2851  2023-10-18 09:51:02.825758
2852  2023-10-18 09:51:02.857730
2853  2023-10-18 09:51:02.905602
2854  2023-10-18 09:51:02.937514
2855  2023-10-18 09:51:02.969422
2856  2023-10-18 09:51:03.001348
2857  2023-10-18 09:51:03.033278
2858  2023-10-18 09:51:03.066169
2859  2023-10-18 09:51:03.097089
2860  2023-10-18 09:51:03.129083
2861  2023-10-18 09:51:03.161114
2862  2023-10-18 09:51:03.193136
2863  2023-10-18 09:51:03.225039
2864  2023-10-18 09:51:03.257954
2865  2023-10-18 09:51:03.305789
2866  2023-10-18 09:51:03.337731
2867  2023-10-18 09:51:03.369634
2868  2023-10-18 09:51:03.401562
2869  2023-10-18 09:51:03.433448
2870  2023-10-18 09:51:03.465410
2871  2023-10-18 09:51:03.497322
2872  2023-10-18 09:51:03.529193
2873  2023-10-18 09:51:03.562139
2874  2023-10-18 09:51:03.594067
2875  2023-10-18 09:51:03.625964
2876  2023-10-18 09:51:03.656905
2877  2023-10-18 09:51:03.705775
2878  2023-10-18 09:51:03.737635
2879  2023-10-18 09:51:03.769587
2880  2023-10-18 09:51:03.801464
2881  2023-10-18 09:51:03.833379
2882  2023-10-18 09:51:03.865331
2883  2023-10-18 09:51:03.897255
2884  2023-10-18 09:51:03.929170
2885  2023-10-18 09:51:03.961071
2886  2023-10-18 09:51:03.992982
2887  2023-10-18 09:51:04.025897
2888  2023-10-18 09:51:04.057779
2889  2023-10-18 09:51:04.105697
2890  2023-10-18 09:51:04.137600
2891  2023-10-18 09:51:04.169480
2892  2023-10-18 09:51:04.201395
2893  2023-10-18 09:51:04.233336
2894  2023-10-18 09:51:04.265265
2895  2023-10-18 09:51:04.297190
2896  2023-10-18 09:51:04.329113
2897  2023-10-18 09:51:04.361004
2898  2023-10-18 09:51:04.392917
2899  2023-10-18 09:51:04.425829
2900  2023-10-18 09:51:04.457767
2901  2023-10-18 09:51:04.505617
2902  2023-10-18 09:51:04.537504
2903  2023-10-18 09:51:04.569450
2904  2023-10-18 09:51:04.601359
2905  2023-10-18 09:51:04.633306
2906  2023-10-18 09:51:04.667151
2907  2023-10-18 09:51:04.698068
2908  2023-10-18 09:51:04.728989
2909  2023-10-18 09:51:04.760930
2910  2023-10-18 09:51:04.793845
2911  2023-10-18 09:51:04.825760
2912  2023-10-18 09:51:04.857681
2913  2023-10-18 09:51:04.905544
2914  2023-10-18 09:51:04.937463
2915  2023-10-18 09:51:04.969375
2916  2023-10-18 09:51:05.001257
2917  2023-10-18 09:51:05.033171
2918  2023-10-18 09:51:05.065127
2919  2023-10-18 09:51:05.097004
2920  2023-10-18 09:51:05.128946
2921  2023-10-18 09:51:05.161854
2922  2023-10-18 09:51:05.193775
2923  2023-10-18 09:51:05.225694
2924  2023-10-18 09:51:05.257605
2925  2023-10-18 09:51:05.305443
2926  2023-10-18 09:51:05.337364
2927  2023-10-18 09:51:05.369299
2928  2023-10-18 09:51:05.401233
2929  2023-10-18 09:51:05.433102
2930  2023-10-18 09:51:05.466015
2931  2023-10-18 09:51:05.496965
2932  2023-10-18 09:51:05.529849
2933  2023-10-18 09:51:05.562798
2934  2023-10-18 09:51:05.594642
2935  2023-10-18 09:51:05.625521
2936  2023-10-18 09:51:05.673496
2937  2023-10-18 09:51:05.705409
2938  2023-10-18 09:51:05.737353
2939  2023-10-18 09:51:05.769259
2940  2023-10-18 09:51:05.801198
2941  2023-10-18 09:51:05.834098
2942  2023-10-18 09:51:05.865981
2943  2023-10-18 09:51:05.897896
2944  2023-10-18 09:51:05.929840
2945  2023-10-18 09:51:05.961757
2946  2023-10-18 09:51:05.993684
2947  2023-10-18 09:51:06.025586
2948  2023-10-18 09:51:06.073425
2949  2023-10-18 09:51:06.105342
2950  2023-10-18 09:51:06.138256
2951  2023-10-18 09:51:06.169196
2952  2023-10-18 09:51:06.201084
2953  2023-10-18 09:51:06.234025
2954  2023-10-18 09:51:06.265963
2955  2023-10-18 09:51:06.297825
2956  2023-10-18 09:51:06.329787
2957  2023-10-18 09:51:06.361689
2958  2023-10-18 09:51:06.393601
2959  2023-10-18 09:51:06.425515
2960  2023-10-18 09:51:06.473386
2961  2023-10-18 09:51:06.505271
2962  2023-10-18 09:51:06.537239
2963  2023-10-18 09:51:06.569139
2964  2023-10-18 09:51:06.601046
2965  2023-10-18 09:51:06.632929
2966  2023-10-18 09:51:06.665842
2967  2023-10-18 09:51:06.697800
2968  2023-10-18 09:51:06.729703
2969  2023-10-18 09:51:06.761617
2970  2023-10-18 09:51:06.793535
2971  2023-10-18 09:51:06.825459
2972  2023-10-18 09:51:06.873287
2973  2023-10-18 09:51:06.905202
2974  2023-10-18 09:51:06.937153
2975  2023-10-18 09:51:06.970029
2976  2023-10-18 09:51:07.000978
2977  2023-10-18 09:51:07.033861
2978  2023-10-18 09:51:07.065816
2979  2023-10-18 09:51:07.097722
2980  2023-10-18 09:51:07.129633
2981  2023-10-18 09:51:07.161518
2982  2023-10-18 09:51:07.193431
2983  2023-10-18 09:51:07.225348
2984  2023-10-18 09:51:07.273225
2985  2023-10-18 09:51:07.306132
2986  2023-10-18 09:51:07.337047
2987  2023-10-18 09:51:07.370021
2988  2023-10-18 09:51:07.401899
2989  2023-10-18 09:51:07.433837
2990  2023-10-18 09:51:07.465705
2991  2023-10-18 09:51:07.497650
2992  2023-10-18 09:51:07.529566
2993  2023-10-18 09:51:07.561448
2994  2023-10-18 09:51:07.593428
2995  2023-10-18 09:51:07.625278
2996  2023-10-18 09:51:07.674202
2997  2023-10-18 09:51:07.705096
2998  2023-10-18 09:51:07.737976
2999  2023-10-18 09:51:07.769893
3000  2023-10-18 09:51:07.801854
3001  2023-10-18 09:51:07.833719
3002  2023-10-18 09:51:07.865634
3003  2023-10-18 09:51:07.897581
3004  2023-10-18 09:51:07.929498
3005  2023-10-18 09:51:07.961378
3006  2023-10-18 09:51:07.993324
3007  2023-10-18 09:51:08.025298
3008  2023-10-18 09:51:08.073237
3009  2023-10-18 09:51:08.105178
3010  2023-10-18 09:51:08.138101
3011  2023-10-18 09:51:08.169978
3012  2023-10-18 09:51:08.200929
3013  2023-10-18 09:51:08.233808
3014  2023-10-18 09:51:08.265781
3015  2023-10-18 09:51:08.297637
3016  2023-10-18 09:51:08.329589
3017  2023-10-18 09:51:08.361502
3018  2023-10-18 09:51:08.393383
3019  2023-10-18 09:51:08.425330
3020  2023-10-18 09:51:08.473199
3021  2023-10-18 09:51:08.505082
3022  2023-10-18 09:51:08.537028
3023  2023-10-18 09:51:08.568945
3024  2023-10-18 09:51:08.601869
3025  2023-10-18 09:51:08.633739
3026  2023-10-18 09:51:08.665653
3027  2023-10-18 09:51:08.697600
3028  2023-10-18 09:51:08.729516
3029  2023-10-18 09:51:08.761431
3030  2023-10-18 09:51:08.793369
3031  2023-10-18 09:51:08.825238
3032  2023-10-18 09:51:08.873147
3033  2023-10-18 09:51:08.905049
3034  2023-10-18 09:51:08.937927
3035  2023-10-18 09:51:08.969855
3036  2023-10-18 09:51:09.001788
3037  2023-10-18 09:51:09.033696
3038  2023-10-18 09:51:09.065620
3039  2023-10-18 09:51:09.097500
3040  2023-10-18 09:51:09.129446
3041  2023-10-18 09:51:09.161365
3042  2023-10-18 09:51:09.193279
3043  2023-10-18 09:51:09.225197
3044  2023-10-18 09:51:09.273105
3045  2023-10-18 09:51:09.306035
3046  2023-10-18 09:51:09.336952
3047  2023-10-18 09:51:09.369880
3048  2023-10-18 09:51:09.401837
3049  2023-10-18 09:51:09.433726
3050  2023-10-18 09:51:09.466612
3051  2023-10-18 09:51:09.497557
3052  2023-10-18 09:51:09.529484
3053  2023-10-18 09:51:09.561399
3054  2023-10-18 09:51:09.593436
3055  2023-10-18 09:51:09.642275
3056  2023-10-18 09:51:09.673191
3057  2023-10-18 09:51:09.705107
3058  2023-10-18 09:51:09.738066
3059  2023-10-18 09:51:09.769936
3060  2023-10-18 09:51:09.801849
3061  2023-10-18 09:51:09.833788
3062  2023-10-18 09:51:09.865677
3063  2023-10-18 09:51:09.897638
3064  2023-10-18 09:51:09.929542
3065  2023-10-18 09:51:09.961455
3066  2023-10-18 09:51:09.993364
3067  2023-10-18 09:51:10.041243
3068  2023-10-18 09:51:10.073153
3069  2023-10-18 09:51:10.105068
3070  2023-10-18 09:51:10.137950
3071  2023-10-18 09:51:10.169866
3072  2023-10-18 09:51:10.201849
3073  2023-10-18 09:51:10.233730
3074  2023-10-18 09:51:10.265720
3075  2023-10-18 09:51:10.297593
3076  2023-10-18 09:51:10.329589
3077  2023-10-18 09:51:10.361505
3078  2023-10-18 09:51:10.393419
3079  2023-10-18 09:51:10.441291
3080  2023-10-18 09:51:10.473213
3081  2023-10-18 09:51:10.505181
3082  2023-10-18 09:51:10.539125
3083  2023-10-18 09:51:10.569043
3084  2023-10-18 09:51:10.601963
3085  2023-10-18 09:51:10.633880
3086  2023-10-18 09:51:10.666802
3087  2023-10-18 09:51:10.698716
3088  2023-10-18 09:51:10.729618
3089  2023-10-18 09:51:10.761535
3090  2023-10-18 09:51:10.793446
3091  2023-10-18 09:51:10.841293
3092  2023-10-18 09:51:10.873248
3093  2023-10-18 09:51:10.905111
3094  2023-10-18 09:51:10.938025
3095  2023-10-18 09:51:10.968979
3096  2023-10-18 09:51:11.001886
3097  2023-10-18 09:51:11.034798
3098  2023-10-18 09:51:11.065736
3099  2023-10-18 09:51:11.097640
3100  2023-10-18 09:51:11.129548
3101  2023-10-18 09:51:11.161492
3102  2023-10-18 09:51:11.193388
3103  2023-10-18 09:51:11.241243
3104  2023-10-18 09:51:11.275208
3105  2023-10-18 09:51:11.307077
3106  2023-10-18 09:51:11.338997
3107  2023-10-18 09:51:11.369946
3108  2023-10-18 09:51:11.401824
3109  2023-10-18 09:51:11.434735
3110  2023-10-18 09:51:11.466760
3111  2023-10-18 09:51:11.498674
3112  2023-10-18 09:51:11.529560
3113  2023-10-18 09:51:11.561475
3114  2023-10-18 09:51:11.594419
3115  2023-10-18 09:51:11.641333
3116  2023-10-18 09:51:11.673289
3117  2023-10-18 09:51:11.706196
3118  2023-10-18 09:51:11.739103
3119  2023-10-18 09:51:11.770006
3120  2023-10-18 09:51:11.801943
3121  2023-10-18 09:51:11.834816
3122  2023-10-18 09:51:11.866731
3123  2023-10-18 09:51:11.897651
3124  2023-10-18 09:51:11.929598
3125  2023-10-18 09:51:11.961478
3126  2023-10-18 09:51:11.993435
3127  2023-10-18 09:51:12.041317
3128  2023-10-18 09:51:12.075208
3129  2023-10-18 09:51:12.106133
3130  2023-10-18 09:51:12.139034
3131  2023-10-18 09:51:12.169920
3132  2023-10-18 09:51:12.201888
3133  2023-10-18 09:51:12.234791
3134  2023-10-18 09:51:12.266662
3135  2023-10-18 09:51:12.298607
3136  2023-10-18 09:51:12.329518
3137  2023-10-18 09:51:12.361444
3138  2023-10-18 09:51:12.394355
3139  2023-10-18 09:51:12.442260
3140  2023-10-18 09:51:12.474115
3141  2023-10-18 09:51:12.506054
3142  2023-10-18 09:51:12.537938
3143  2023-10-18 09:51:12.569888
3144  2023-10-18 09:51:12.601797
3145  2023-10-18 09:51:12.633707
3146  2023-10-18 09:51:12.665752
3147  2023-10-18 09:51:12.698664
3148  2023-10-18 09:51:12.729561
3149  2023-10-18 09:51:12.761473
3150  2023-10-18 09:51:12.794407
3151  2023-10-18 09:51:12.841319
3152  2023-10-18 09:51:12.874170
3153  2023-10-18 09:51:12.906095
3154  2023-10-18 09:51:12.937976
3155  2023-10-18 09:51:12.968892
3156  2023-10-18 09:51:13.001806
3157  2023-10-18 09:51:13.033784
3158  2023-10-18 09:51:13.066688
3159  2023-10-18 09:51:13.097573
3160  2023-10-18 09:51:13.129490
3161  2023-10-18 09:51:13.161410
3162  2023-10-18 09:51:13.209287
3163  2023-10-18 09:51:13.241204
3164  2023-10-18 09:51:13.274102
3165  2023-10-18 09:51:13.305025
3166  2023-10-18 09:51:13.337970
3167  2023-10-18 09:51:13.369852
3168  2023-10-18 09:51:13.401793
3169  2023-10-18 09:51:13.433650
3170  2023-10-18 09:51:13.465591
3171  2023-10-18 09:51:13.497517
3172  2023-10-18 09:51:13.530392
3173  2023-10-18 09:51:13.561336
3174  2023-10-18 09:51:13.610226
3175  2023-10-18 09:51:13.641095
3176  2023-10-18 09:51:13.674008
3177  2023-10-18 09:51:13.704959
3178  2023-10-18 09:51:13.738836
3179  2023-10-18 09:51:13.769818
3180  2023-10-18 09:51:13.801703
3181  2023-10-18 09:51:13.833678
3182  2023-10-18 09:51:13.865634
3183  2023-10-18 09:51:13.898555
3184  2023-10-18 09:51:13.931466
3185  2023-10-18 09:51:13.961385
3186  2023-10-18 09:51:14.010301
3187  2023-10-18 09:51:14.041253
3188  2023-10-18 09:51:14.073135
3189  2023-10-18 09:51:14.106082
3190  2023-10-18 09:51:14.138999
3191  2023-10-18 09:51:14.169917
3192  2023-10-18 09:51:14.201830
3193  2023-10-18 09:51:14.233831
3194  2023-10-18 09:51:14.265731
3195  2023-10-18 09:51:14.297610
3196  2023-10-18 09:51:14.330558
3197  2023-10-18 09:51:14.361476
3198  2023-10-18 09:51:14.410310
3199  2023-10-18 09:51:14.441229
3200  2023-10-18 09:51:14.473171
3201  2023-10-18 09:51:14.506097
3202  2023-10-18 09:51:14.537969
3203  2023-10-18 09:51:14.569896
3204  2023-10-18 09:51:14.601844
3205  2023-10-18 09:51:14.633868
3206  2023-10-18 09:51:14.665788
3207  2023-10-18 09:51:14.697690
3208  2023-10-18 09:51:14.729606
3209  2023-10-18 09:51:14.761510
3210  2023-10-18 09:51:14.809386
3211  2023-10-18 09:51:14.841312
3212  2023-10-18 09:51:14.874210
3213  2023-10-18 09:51:14.905140
3214  2023-10-18 09:51:14.938020
3215  2023-10-18 09:51:14.969931
3216  2023-10-18 09:51:15.001923
3217  2023-10-18 09:51:15.032857
3218  2023-10-18 09:51:15.065801
3219  2023-10-18 09:51:15.097701
3220  2023-10-18 09:51:15.129616
3221  2023-10-18 09:51:15.161530
3222  2023-10-18 09:51:15.209511
3223  2023-10-18 09:51:15.241556
3224  2023-10-18 09:51:15.273517
3225  2023-10-18 09:51:15.305529
3226  2023-10-18 09:51:15.338409
3227  2023-10-18 09:51:15.369354
3228  2023-10-18 09:51:15.401293
3229  2023-10-18 09:51:15.433155
3230  2023-10-18 09:51:15.466068
3231  2023-10-18 09:51:15.497019
3232  2023-10-18 09:51:15.529943
3233  2023-10-18 09:51:15.561815
3234  2023-10-18 09:51:15.609716
3235  2023-10-18 09:51:15.641630
3236  2023-10-18 09:51:15.673632
3237  2023-10-18 09:51:15.705546
3238  2023-10-18 09:51:15.737478
3239  2023-10-18 09:51:15.769396
3240  2023-10-18 09:51:15.801301
3241  2023-10-18 09:51:15.833220
3242  2023-10-18 09:51:15.866093
3243  2023-10-18 09:51:15.898037
3244  2023-10-18 09:51:15.929958
3245  2023-10-18 09:51:15.961838
3246  2023-10-18 09:51:16.009714
3247  2023-10-18 09:51:16.041624
3248  2023-10-18 09:51:16.074567
3249  2023-10-18 09:51:16.105454
3250  2023-10-18 09:51:16.137403
3251  2023-10-18 09:51:16.169326
3252  2023-10-18 09:51:16.201232
3253  2023-10-18 09:51:16.233145
3254  2023-10-18 09:51:16.266025
3255  2023-10-18 09:51:16.297994
3256  2023-10-18 09:51:16.328886
3257  2023-10-18 09:51:16.361829
3258  2023-10-18 09:51:16.409665
3259  2023-10-18 09:51:16.441555
3260  2023-10-18 09:51:16.473500
3261  2023-10-18 09:51:16.506385
3262  2023-10-18 09:51:16.537354
3263  2023-10-18 09:51:16.569278
3264  2023-10-18 09:51:16.602186
3265  2023-10-18 09:51:16.634039
3266  2023-10-18 09:51:16.665955
3267  2023-10-18 09:51:16.697902
3268  2023-10-18 09:51:16.729784
3269  2023-10-18 09:51:16.761741
3270  2023-10-18 09:51:16.809662
3271  2023-10-18 09:51:16.841576
3272  2023-10-18 09:51:16.873552
3273  2023-10-18 09:51:16.905502
3274  2023-10-18 09:51:16.937424
3275  2023-10-18 09:51:16.969296
3276  2023-10-18 09:51:17.001270
3277  2023-10-18 09:51:17.033167
3278  2023-10-18 09:51:17.066039
3279  2023-10-18 09:51:17.097952
3280  2023-10-18 09:51:17.129918
3281  2023-10-18 09:51:17.179741
3282  2023-10-18 09:51:17.209689
3283  2023-10-18 09:51:17.241568
3284  2023-10-18 09:51:17.273519
3285  2023-10-18 09:51:17.305429
3286  2023-10-18 09:51:17.337312
3287  2023-10-18 09:51:17.370252
3288  2023-10-18 09:51:17.401165
3289  2023-10-18 09:51:17.433056
3290  2023-10-18 09:51:17.465004
3291  2023-10-18 09:51:17.496923
3292  2023-10-18 09:51:17.530796
3293  2023-10-18 09:51:17.577689
3294  2023-10-18 09:51:17.610636
3295  2023-10-18 09:51:17.641535
3296  2023-10-18 09:51:17.673414
3297  2023-10-18 09:51:17.705328
3298  2023-10-18 09:51:17.737282
3299  2023-10-18 09:51:17.770157
3300  2023-10-18 09:51:17.801103
3301  2023-10-18 09:51:17.832987
3302  2023-10-18 09:51:17.865905
3303  2023-10-18 09:51:17.897815
3304  2023-10-18 09:51:17.929767
3305  2023-10-18 09:51:17.977650
3306  2023-10-18 09:51:18.009515
3307  2023-10-18 09:51:18.041457
3308  2023-10-18 09:51:18.073344
3309  2023-10-18 09:51:18.105261
3310  2023-10-18 09:51:18.137227
3311  2023-10-18 09:51:18.169089
3312  2023-10-18 09:51:18.202002
3313  2023-10-18 09:51:18.232942
3314  2023-10-18 09:51:18.265832
3315  2023-10-18 09:51:18.297772
3316  2023-10-18 09:51:18.329687
3317  2023-10-18 09:51:18.377578
3318  2023-10-18 09:51:18.409471
3319  2023-10-18 09:51:18.442401
3320  2023-10-18 09:51:18.473320
3321  2023-10-18 09:51:18.505229
3322  2023-10-18 09:51:18.537152
3323  2023-10-18 09:51:18.569020
3324  2023-10-18 09:51:18.601934
3325  2023-10-18 09:51:18.633846
3326  2023-10-18 09:51:18.665760
3327  2023-10-18 09:51:18.697709
3328  2023-10-18 09:51:18.729590
3329  2023-10-18 09:51:18.777463
3330  2023-10-18 09:51:18.809377
3331  2023-10-18 09:51:18.841293
3332  2023-10-18 09:51:18.874204
3333  2023-10-18 09:51:18.906145
3334  2023-10-18 09:51:18.937062
3335  2023-10-18 09:51:18.968981
3336  2023-10-18 09:51:19.000912
3337  2023-10-18 09:51:19.033781
3338  2023-10-18 09:51:19.065692
3339  2023-10-18 09:51:19.097632
3340  2023-10-18 09:51:19.129564
3341  2023-10-18 09:51:19.177425
3342  2023-10-18 09:51:19.209342
3343  2023-10-18 09:51:19.241259
3344  2023-10-18 09:51:19.274135
3345  2023-10-18 09:51:19.305052
3346  2023-10-18 09:51:19.337006
3347  2023-10-18 09:51:19.368917
3348  2023-10-18 09:51:19.401821
3349  2023-10-18 09:51:19.433708
3350  2023-10-18 09:51:19.465622
3351  2023-10-18 09:51:19.497567
3352  2023-10-18 09:51:19.529453
3353  2023-10-18 09:51:19.578322
3354  2023-10-18 09:51:19.609241
3355  2023-10-18 09:51:19.641154
3356  2023-10-18 09:51:19.674075
3357  2023-10-18 09:51:19.705134
3358  2023-10-18 09:51:19.738105
3359  2023-10-18 09:51:19.769962
3360  2023-10-18 09:51:19.801878
3361  2023-10-18 09:51:19.833790
3362  2023-10-18 09:51:19.865704
3363  2023-10-18 09:51:19.897670
3364  2023-10-18 09:51:19.929534
3365  2023-10-18 09:51:19.977408
3366  2023-10-18 09:51:20.009321
3367  2023-10-18 09:51:20.041292
3368  2023-10-18 09:51:20.073150
3369  2023-10-18 09:51:20.105089
3370  2023-10-18 09:51:20.137978
3371  2023-10-18 09:51:20.169891
3372  2023-10-18 09:51:20.201843
3373  2023-10-18 09:51:20.233754
3374  2023-10-18 09:51:20.265668
3375  2023-10-18 09:51:20.297582
3376  2023-10-18 09:51:20.329492
3377  2023-10-18 09:51:20.377372
3378  2023-10-18 09:51:20.409288
3379  2023-10-18 09:51:20.441166
3380  2023-10-18 09:51:20.473134
3381  2023-10-18 09:51:20.504996
3382  2023-10-18 09:51:20.536937
3383  2023-10-18 09:51:20.569882
3384  2023-10-18 09:51:20.601774
3385  2023-10-18 09:51:20.633651
3386  2023-10-18 09:51:20.665597
3387  2023-10-18 09:51:20.697512
3388  2023-10-18 09:51:20.745387
3389  2023-10-18 09:51:20.777269
3390  2023-10-18 09:51:20.809209
3391  2023-10-18 09:51:20.841145
3392  2023-10-18 09:51:20.873012
3393  2023-10-18 09:51:20.904928
3394  2023-10-18 09:51:20.937841
3395  2023-10-18 09:51:20.969754
3396  2023-10-18 09:51:21.001703
3397  2023-10-18 09:51:21.033582
3398  2023-10-18 09:51:21.065498
3399  2023-10-18 09:51:21.097447
3400  2023-10-18 09:51:21.145318
3401  2023-10-18 09:51:21.177228
3402  2023-10-18 09:51:21.209149
3403  2023-10-18 09:51:21.242026
3404  2023-10-18 09:51:21.273973
3405  2023-10-18 09:51:21.305856
3406  2023-10-18 09:51:21.337802
3407  2023-10-18 09:51:21.369736
3408  2023-10-18 09:51:21.401626
3409  2023-10-18 09:51:21.433546
3410  2023-10-18 09:51:21.465429
3411  2023-10-18 09:51:21.497367
3412  2023-10-18 09:51:21.545223
3413  2023-10-18 09:51:21.577131
3414  2023-10-18 09:51:21.610046
3415  2023-10-18 09:51:21.641958
3416  2023-10-18 09:51:21.673882
3417  2023-10-18 09:51:21.705796
3418  2023-10-18 09:51:21.737702
3419  2023-10-18 09:51:21.770614
3420  2023-10-18 09:51:21.801532
3421  2023-10-18 09:51:21.833446
3422  2023-10-18 09:51:21.866357
3423  2023-10-18 09:51:21.898273
3424  2023-10-18 09:51:21.946176
3425  2023-10-18 09:51:21.978059
3426  2023-10-18 09:51:22.009974
3427  2023-10-18 09:51:22.040925
3428  2023-10-18 09:51:22.073836
3429  2023-10-18 09:51:22.105717
3430  2023-10-18 09:51:22.137668
3431  2023-10-18 09:51:22.169579
3432  2023-10-18 09:51:22.201462
3433  2023-10-18 09:51:22.233375
3434  2023-10-18 09:51:22.266318
3435  2023-10-18 09:51:22.297236
3436  2023-10-18 09:51:22.345077
3437  2023-10-18 09:51:22.377990
3438  2023-10-18 09:51:22.409904
3439  2023-10-18 09:51:22.441820
3440  2023-10-18 09:51:22.473779
3441  2023-10-18 09:51:22.505648
3442  2023-10-18 09:51:22.537563
3443  2023-10-18 09:51:22.569502
3444  2023-10-18 09:51:22.601421
3445  2023-10-18 09:51:22.633307
3446  2023-10-18 09:51:22.666219
3447  2023-10-18 09:51:22.697161
3448  2023-10-18 09:51:22.745008
3449  2023-10-18 09:51:22.777921
3450  2023-10-18 09:51:22.809840
3451  2023-10-18 09:51:22.841797
3452  2023-10-18 09:51:22.873695
3453  2023-10-18 09:51:22.905610
3454  2023-10-18 09:51:22.938491
3455  2023-10-18 09:51:22.969408
3456  2023-10-18 09:51:23.001324
3457  2023-10-18 09:51:23.033315
3458  2023-10-18 09:51:23.065153
3459  2023-10-18 09:51:23.097067
3460  2023-10-18 09:51:23.145939
3461  2023-10-18 09:51:23.178881
3462  2023-10-18 09:51:23.209797
3463  2023-10-18 09:51:23.242678
3464  2023-10-18 09:51:23.273628
3465  2023-10-18 09:51:23.305535
3466  2023-10-18 09:51:23.337425
3467  2023-10-18 09:51:23.369364
3468  2023-10-18 09:51:23.401292
3469  2023-10-18 09:51:23.433314
3470  2023-10-18 09:51:23.465193
3471  2023-10-18 09:51:23.497108
3472  2023-10-18 09:51:23.545978
3473  2023-10-18 09:51:23.577955
3474  2023-10-18 09:51:23.609838
3475  2023-10-18 09:51:23.641751
3476  2023-10-18 09:51:23.673765
3477  2023-10-18 09:51:23.705647
3478  2023-10-18 09:51:23.737609
3479  2023-10-18 09:51:23.769609
3480  2023-10-18 09:51:23.801517
3481  2023-10-18 09:51:23.833445
3482  2023-10-18 09:51:23.865319
3483  2023-10-18 09:51:23.897262
3484  2023-10-18 09:51:23.945106
3485  2023-10-18 09:51:23.977022
3486  2023-10-18 09:51:24.009933
3487  2023-10-18 09:51:24.041848
3488  2023-10-18 09:51:24.073764
3489  2023-10-18 09:51:24.105724
3490  2023-10-18 09:51:24.137592
3491  2023-10-18 09:51:24.169508
3492  2023-10-18 09:51:24.201448
3493  2023-10-18 09:51:24.233369
3494  2023-10-18 09:51:24.266292
3495  2023-10-18 09:51:24.314178
3496  2023-10-18 09:51:24.345068
3497  2023-10-18 09:51:24.376952
3498  2023-10-18 09:51:24.409897
3499  2023-10-18 09:51:24.441815
3500  2023-10-18 09:51:24.473693
3501  2023-10-18 09:51:24.505608
3502  2023-10-18 09:51:24.537522
3503  2023-10-18 09:51:24.569470
3504  2023-10-18 09:51:24.601405
3505  2023-10-18 09:51:24.634265
3506  2023-10-18 09:51:24.665181
3507  2023-10-18 09:51:24.713097
3508  2023-10-18 09:51:24.745966
3509  2023-10-18 09:51:24.777881
3510  2023-10-18 09:51:24.809828
3511  2023-10-18 09:51:24.841761
3512  2023-10-18 09:51:24.873666
3513  2023-10-18 09:51:24.905574
3514  2023-10-18 09:51:24.937483
3515  2023-10-18 09:51:24.969385
3516  2023-10-18 09:51:25.001333
3517  2023-10-18 09:51:25.034231
3518  2023-10-18 09:51:25.066109
3519  2023-10-18 09:51:25.113008
3520  2023-10-18 09:51:25.145896
3521  2023-10-18 09:51:25.177857
3522  2023-10-18 09:51:25.209757
3523  2023-10-18 09:51:25.241672
3524  2023-10-18 09:51:25.273590
3525  2023-10-18 09:51:25.305469
3526  2023-10-18 09:51:25.337384
3527  2023-10-18 09:51:25.369308
3528  2023-10-18 09:51:25.401272
3529  2023-10-18 09:51:25.434181
3530  2023-10-18 09:51:25.465043
3531  2023-10-18 09:51:25.513914
3532  2023-10-18 09:51:25.545827
3533  2023-10-18 09:51:25.577785
3534  2023-10-18 09:51:25.609693
3535  2023-10-18 09:51:25.641614
3536  2023-10-18 09:51:25.673486
3537  2023-10-18 09:51:25.705436
3538  2023-10-18 09:51:25.737315
3539  2023-10-18 09:51:25.769275
3540  2023-10-18 09:51:25.801181
3541  2023-10-18 09:51:25.834058
3542  2023-10-18 09:51:25.865972
3543  2023-10-18 09:51:25.913885
3544  2023-10-18 09:51:25.945820
3545  2023-10-18 09:51:25.977724
3546  2023-10-18 09:51:26.009587
3547  2023-10-18 09:51:26.041534
3548  2023-10-18 09:51:26.073450
3549  2023-10-18 09:51:26.105366
3550  2023-10-18 09:51:26.137246
3551  2023-10-18 09:51:26.169160
3552  2023-10-18 09:51:26.202111
3553  2023-10-18 09:51:26.233021
3554  2023-10-18 09:51:26.264951
3555  2023-10-18 09:51:26.313937
3556  2023-10-18 09:51:26.345716
3557  2023-10-18 09:51:26.377603
3558  2023-10-18 09:51:26.409518
3559  2023-10-18 09:51:26.442433
3560  2023-10-18 09:51:26.473348
3561  2023-10-18 09:51:26.506260
