
1  2023-11-01 14:07:01.436471
2  2023-11-01 14:07:01.468397
3  2023-11-01 14:07:01.500301
4  2023-11-01 14:07:01.532258
5  2023-11-01 14:07:01.564160
6  2023-11-01 14:07:01.596082
7  2023-11-01 14:07:01.627958
8  2023-11-01 14:07:01.660903
9  2023-11-01 14:07:01.692681
10  2023-11-01 14:07:01.724629
11  2023-11-01 14:07:01.756510
12  2023-11-01 14:07:01.788424
13  2023-11-01 14:07:01.836297
14  2023-11-01 14:07:01.868212
15  2023-11-01 14:07:01.900174
16  2023-11-01 14:07:01.932125
17  2023-11-01 14:07:01.965000
18  2023-11-01 14:07:01.996915
19  2023-11-01 14:07:02.028898
20  2023-11-01 14:07:02.060813
21  2023-11-01 14:07:02.092815
22  2023-11-01 14:07:02.124778
23  2023-11-01 14:07:02.156644
24  2023-11-01 14:07:02.188558
25  2023-11-01 14:07:02.236431
26  2023-11-01 14:07:02.268346
27  2023-11-01 14:07:02.300262
28  2023-11-01 14:07:02.332217
29  2023-11-01 14:07:02.364131
30  2023-11-01 14:07:02.397045
31  2023-11-01 14:07:02.427991
32  2023-11-01 14:07:02.460914
33  2023-11-01 14:07:02.492787
34  2023-11-01 14:07:02.524844
35  2023-11-01 14:07:02.556728
36  2023-11-01 14:07:02.588631
37  2023-11-01 14:07:02.636533
38  2023-11-01 14:07:02.668496
39  2023-11-01 14:07:02.700465
40  2023-11-01 14:07:02.732326
41  2023-11-01 14:07:02.764253
42  2023-11-01 14:07:02.796213
43  2023-11-01 14:07:02.828277
44  2023-11-01 14:07:02.860193
45  2023-11-01 14:07:02.892138
46  2023-11-01 14:07:02.924059
47  2023-11-01 14:07:02.956934
48  2023-11-01 14:07:02.988848
49  2023-11-01 14:07:03.036720
50  2023-11-01 14:07:03.068672
51  2023-11-01 14:07:03.100550
52  2023-11-01 14:07:03.132464
53  2023-11-01 14:07:03.164410
54  2023-11-01 14:07:03.196294
55  2023-11-01 14:07:03.228208
56  2023-11-01 14:07:03.261120
57  2023-11-01 14:07:03.292038
58  2023-11-01 14:07:03.324950
59  2023-11-01 14:07:03.356864
60  2023-11-01 14:07:03.388793
61  2023-11-01 14:07:03.436651
62  2023-11-01 14:07:03.468566
63  2023-11-01 14:07:03.501161
64  2023-11-01 14:07:03.532126
65  2023-11-01 14:07:03.563992
66  2023-11-01 14:07:03.595912
67  2023-11-01 14:07:03.628852
68  2023-11-01 14:07:03.660733
69  2023-11-01 14:07:03.692648
70  2023-11-01 14:07:03.724595
71  2023-11-01 14:07:03.756521
72  2023-11-01 14:07:03.788391
73  2023-11-01 14:07:03.836266
74  2023-11-01 14:07:03.868228
75  2023-11-01 14:07:03.901140
76  2023-11-01 14:07:03.932143
77  2023-11-01 14:07:03.964317
78  2023-11-01 14:07:03.996103
79  2023-11-01 14:07:04.028048
80  2023-11-01 14:07:04.060962
81  2023-11-01 14:07:04.092847
82  2023-11-01 14:07:04.124759
83  2023-11-01 14:07:04.156706
84  2023-11-01 14:07:04.188620
85  2023-11-01 14:07:04.236460
86  2023-11-01 14:07:04.268375
87  2023-11-01 14:07:04.300344
88  2023-11-01 14:07:04.332259
89  2023-11-01 14:07:04.364174
90  2023-11-01 14:07:04.397087
91  2023-11-01 14:07:04.428003
92  2023-11-01 14:07:04.460915
93  2023-11-01 14:07:04.492837
94  2023-11-01 14:07:04.524745
95  2023-11-01 14:07:04.556729
96  2023-11-01 14:07:04.604608
97  2023-11-01 14:07:04.636570
98  2023-11-01 14:07:04.668485
99  2023-11-01 14:07:04.700401
100  2023-11-01 14:07:04.732314
101  2023-11-01 14:07:04.764228
102  2023-11-01 14:07:04.796143
103  2023-11-01 14:07:04.829056
104  2023-11-01 14:07:04.860892
105  2023-11-01 14:07:04.892851
106  2023-11-01 14:07:04.924734
107  2023-11-01 14:07:04.956636
108  2023-11-01 14:07:05.004584
109  2023-11-01 14:07:05.036570
110  2023-11-01 14:07:05.068571
111  2023-11-01 14:07:05.100453
112  2023-11-01 14:07:05.132368
113  2023-11-01 14:07:05.164333
114  2023-11-01 14:07:05.196249
115  2023-11-01 14:07:05.228237
116  2023-11-01 14:07:05.260121
117  2023-11-01 14:07:05.292151
118  2023-11-01 14:07:05.325030
119  2023-11-01 14:07:05.356944
120  2023-11-01 14:07:05.404818
121  2023-11-01 14:07:05.436731
122  2023-11-01 14:07:05.468679
123  2023-11-01 14:07:05.500663
124  2023-11-01 14:07:05.532613
125  2023-11-01 14:07:05.564493
126  2023-11-01 14:07:05.596407
127  2023-11-01 14:07:05.628322
128  2023-11-01 14:07:05.660237
129  2023-11-01 14:07:05.693163
130  2023-11-01 14:07:05.725063
131  2023-11-01 14:07:05.755980
132  2023-11-01 14:07:05.804882
133  2023-11-01 14:07:05.836765
134  2023-11-01 14:07:05.868716
135  2023-11-01 14:07:05.900620
136  2023-11-01 14:07:05.932508
137  2023-11-01 14:07:05.964558
138  2023-11-01 14:07:05.996507
139  2023-11-01 14:07:06.028387
140  2023-11-01 14:07:06.060302
141  2023-11-01 14:07:06.092216
142  2023-11-01 14:07:06.124162
143  2023-11-01 14:07:06.156046
144  2023-11-01 14:07:06.204915
145  2023-11-01 14:07:06.236855
146  2023-11-01 14:07:06.268744
147  2023-11-01 14:07:06.300691
148  2023-11-01 14:07:06.332574
149  2023-11-01 14:07:06.364488
150  2023-11-01 14:07:06.397402
151  2023-11-01 14:07:06.428318
152  2023-11-01 14:07:06.460233
153  2023-11-01 14:07:06.492147
154  2023-11-01 14:07:06.524062
155  2023-11-01 14:07:06.555976
156  2023-11-01 14:07:06.604847
157  2023-11-01 14:07:06.636761
158  2023-11-01 14:07:06.668747
159  2023-11-01 14:07:06.700664
160  2023-11-01 14:07:06.732575
161  2023-11-01 14:07:06.764490
162  2023-11-01 14:07:06.796406
163  2023-11-01 14:07:06.828165
164  2023-11-01 14:07:06.860127
165  2023-11-01 14:07:06.893039
166  2023-11-01 14:07:06.924954
167  2023-11-01 14:07:06.956171
168  2023-11-01 14:07:07.004047
169  2023-11-01 14:07:07.036918
170  2023-11-01 14:07:07.068836
171  2023-11-01 14:07:07.100796
172  2023-11-01 14:07:07.132865
173  2023-11-01 14:07:07.164861
174  2023-11-01 14:07:07.196810
175  2023-11-01 14:07:07.228690
176  2023-11-01 14:07:07.260604
177  2023-11-01 14:07:07.292519
178  2023-11-01 14:07:07.324434
179  2023-11-01 14:07:07.356348
180  2023-11-01 14:07:07.404221
181  2023-11-01 14:07:07.436135
182  2023-11-01 14:07:07.469047
183  2023-11-01 14:07:07.500962
184  2023-11-01 14:07:07.532877
185  2023-11-01 14:07:07.564791
186  2023-11-01 14:07:07.596706
187  2023-11-01 14:07:07.628620
188  2023-11-01 14:07:07.660535
189  2023-11-01 14:07:07.692450
190  2023-11-01 14:07:07.724364
191  2023-11-01 14:07:07.756279
192  2023-11-01 14:07:07.804247
193  2023-11-01 14:07:07.836162
194  2023-11-01 14:07:07.868089
195  2023-11-01 14:07:07.900029
196  2023-11-01 14:07:07.932903
197  2023-11-01 14:07:07.964818
198  2023-11-01 14:07:07.996733
199  2023-11-01 14:07:08.028647
200  2023-11-01 14:07:08.060562
201  2023-11-01 14:07:08.092477
202  2023-11-01 14:07:08.124391
203  2023-11-01 14:07:08.172263
204  2023-11-01 14:07:08.204178
205  2023-11-01 14:07:08.236103
206  2023-11-01 14:07:08.269005
207  2023-11-01 14:07:08.300920
208  2023-11-01 14:07:08.332841
209  2023-11-01 14:07:08.364749
210  2023-11-01 14:07:08.396665
211  2023-11-01 14:07:08.428578
212  2023-11-01 14:07:08.460493
213  2023-11-01 14:07:08.492408
214  2023-11-01 14:07:08.524324
215  2023-11-01 14:07:08.572194
216  2023-11-01 14:07:08.604655
217  2023-11-01 14:07:08.636604
218  2023-11-01 14:07:08.668524
219  2023-11-01 14:07:08.700399
220  2023-11-01 14:07:08.732314
221  2023-11-01 14:07:08.764229
222  2023-11-01 14:07:08.796184
223  2023-11-01 14:07:08.828132
224  2023-11-01 14:07:08.861122
225  2023-11-01 14:07:08.892062
226  2023-11-01 14:07:08.924027
227  2023-11-01 14:07:08.972896
228  2023-11-01 14:07:09.004813
229  2023-11-01 14:07:09.036771
230  2023-11-01 14:07:09.068653
231  2023-11-01 14:07:09.100639
232  2023-11-01 14:07:09.132554
233  2023-11-01 14:07:09.164468
234  2023-11-01 14:07:09.196383
235  2023-11-01 14:07:09.228297
236  2023-11-01 14:07:09.260212
237  2023-11-01 14:07:09.292157
238  2023-11-01 14:07:09.324098
239  2023-11-01 14:07:09.372967
240  2023-11-01 14:07:09.404881
241  2023-11-01 14:07:09.436852
242  2023-11-01 14:07:09.468767
243  2023-11-01 14:07:09.500682
244  2023-11-01 14:07:09.532597
245  2023-11-01 14:07:09.564511
246  2023-11-01 14:07:09.596426
247  2023-11-01 14:07:09.628341
248  2023-11-01 14:07:09.660255
249  2023-11-01 14:07:09.693221
250  2023-11-01 14:07:09.724088
251  2023-11-01 14:07:09.772956
252  2023-11-01 14:07:09.804870
253  2023-11-01 14:07:09.836784
254  2023-11-01 14:07:09.868699
255  2023-11-01 14:07:09.900613
256  2023-11-01 14:07:09.932527
257  2023-11-01 14:07:09.964442
258  2023-11-01 14:07:09.996357
259  2023-11-01 14:07:10.028911
260  2023-11-01 14:07:10.060823
261  2023-11-01 14:07:10.092770
262  2023-11-01 14:07:10.124678
263  2023-11-01 14:07:10.172618
264  2023-11-01 14:07:10.204564
265  2023-11-01 14:07:10.236479
266  2023-11-01 14:07:10.268390
267  2023-11-01 14:07:10.300356
268  2023-11-01 14:07:10.332305
269  2023-11-01 14:07:10.364173
270  2023-11-01 14:07:10.397086
271  2023-11-01 14:07:10.428032
272  2023-11-01 14:07:10.460915
273  2023-11-01 14:07:10.492862
274  2023-11-01 14:07:10.524743
275  2023-11-01 14:07:10.572615
276  2023-11-01 14:07:10.604530
277  2023-11-01 14:07:10.636451
278  2023-11-01 14:07:10.668360
279  2023-11-01 14:07:10.700299
280  2023-11-01 14:07:10.732189
281  2023-11-01 14:07:10.764103
282  2023-11-01 14:07:10.796051
283  2023-11-01 14:07:10.828963
284  2023-11-01 14:07:10.860879
285  2023-11-01 14:07:10.892759
286  2023-11-01 14:07:10.924674
287  2023-11-01 14:07:10.972547
288  2023-11-01 14:07:11.004492
289  2023-11-01 14:07:11.036376
290  2023-11-01 14:07:11.068291
291  2023-11-01 14:07:11.100237
292  2023-11-01 14:07:11.132119
293  2023-11-01 14:07:11.165045
294  2023-11-01 14:07:11.195984
295  2023-11-01 14:07:11.228861
296  2023-11-01 14:07:11.260776
297  2023-11-01 14:07:11.292725
298  2023-11-01 14:07:11.324637
299  2023-11-01 14:07:11.372477
300  2023-11-01 14:07:11.404424
301  2023-11-01 14:07:11.436313
302  2023-11-01 14:07:11.468364
303  2023-11-01 14:07:11.500279
304  2023-11-01 14:07:11.533194
305  2023-11-01 14:07:11.564139
306  2023-11-01 14:07:11.596023
307  2023-11-01 14:07:11.628965
308  2023-11-01 14:07:11.660880
309  2023-11-01 14:07:11.692797
310  2023-11-01 14:07:11.724711
311  2023-11-01 14:07:11.772552
312  2023-11-01 14:07:11.804499
313  2023-11-01 14:07:11.836421
314  2023-11-01 14:07:11.869272
315  2023-11-01 14:07:11.900230
316  2023-11-01 14:07:11.932145
317  2023-11-01 14:07:11.964184
318  2023-11-01 14:07:11.996098
319  2023-11-01 14:07:12.028072
320  2023-11-01 14:07:12.059985
321  2023-11-01 14:07:12.092897
322  2023-11-01 14:07:12.140784
323  2023-11-01 14:07:12.172684
324  2023-11-01 14:07:12.204599
325  2023-11-01 14:07:12.236633
326  2023-11-01 14:07:12.268548
327  2023-11-01 14:07:12.300462
328  2023-11-01 14:07:12.332414
329  2023-11-01 14:07:12.364296
330  2023-11-01 14:07:12.397203
331  2023-11-01 14:07:12.428120
332  2023-11-01 14:07:12.460035
333  2023-11-01 14:07:12.492948
334  2023-11-01 14:07:12.539938
335  2023-11-01 14:07:12.572869
336  2023-11-01 14:07:12.604784
337  2023-11-01 14:07:12.636781
338  2023-11-01 14:07:12.668704
339  2023-11-01 14:07:12.700585
340  2023-11-01 14:07:12.732504
341  2023-11-01 14:07:12.764414
342  2023-11-01 14:07:12.796330
343  2023-11-01 14:07:12.828285
344  2023-11-01 14:07:12.861156
345  2023-11-01 14:07:12.892072
346  2023-11-01 14:07:12.939946
347  2023-11-01 14:07:12.972856
348  2023-11-01 14:07:13.004772
349  2023-11-01 14:07:13.036686
350  2023-11-01 14:07:13.068601
351  2023-11-01 14:07:13.100548
352  2023-11-01 14:07:13.132431
353  2023-11-01 14:07:13.164345
354  2023-11-01 14:07:13.197257
355  2023-11-01 14:07:13.228175
356  2023-11-01 14:07:13.260089
357  2023-11-01 14:07:13.293066
358  2023-11-01 14:07:13.340919
359  2023-11-01 14:07:13.372831
360  2023-11-01 14:07:13.404741
361  2023-11-01 14:07:13.436693
362  2023-11-01 14:07:13.468571
363  2023-11-01 14:07:13.500485
364  2023-11-01 14:07:13.532432
365  2023-11-01 14:07:13.564320
366  2023-11-01 14:07:13.596230
367  2023-11-01 14:07:13.628212
368  2023-11-01 14:07:13.661090
369  2023-11-01 14:07:13.692970
370  2023-11-01 14:07:13.740844
371  2023-11-01 14:07:13.772790
372  2023-11-01 14:07:13.804673
373  2023-11-01 14:07:13.836639
374  2023-11-01 14:07:13.868502
375  2023-11-01 14:07:13.900416
376  2023-11-01 14:07:13.933357
377  2023-11-01 14:07:13.965031
378  2023-11-01 14:07:13.997106
379  2023-11-01 14:07:14.028985
380  2023-11-01 14:07:14.060932
381  2023-11-01 14:07:14.092814
382  2023-11-01 14:07:14.140687
383  2023-11-01 14:07:14.172634
384  2023-11-01 14:07:14.204517
385  2023-11-01 14:07:14.236430
386  2023-11-01 14:07:14.268377
387  2023-11-01 14:07:14.300260
388  2023-11-01 14:07:14.332174
389  2023-11-01 14:07:14.365092
390  2023-11-01 14:07:14.397042
391  2023-11-01 14:07:14.428958
392  2023-11-01 14:07:14.461055
393  2023-11-01 14:07:14.492746
394  2023-11-01 14:07:14.540642
395  2023-11-01 14:07:14.572563
396  2023-11-01 14:07:14.604447
397  2023-11-01 14:07:14.637364
398  2023-11-01 14:07:14.669274
399  2023-11-01 14:07:14.701189
400  2023-11-01 14:07:14.733103
401  2023-11-01 14:07:14.765050
402  2023-11-01 14:07:14.796932
403  2023-11-01 14:07:14.828847
404  2023-11-01 14:07:14.860760
405  2023-11-01 14:07:14.892603
406  2023-11-01 14:07:14.940442
407  2023-11-01 14:07:14.972387
408  2023-11-01 14:07:15.004313
409  2023-11-01 14:07:15.036186
410  2023-11-01 14:07:15.068151
411  2023-11-01 14:07:15.100159
412  2023-11-01 14:07:15.132040
413  2023-11-01 14:07:15.164952
414  2023-11-01 14:07:15.196909
415  2023-11-01 14:07:15.228821
416  2023-11-01 14:07:15.260732
417  2023-11-01 14:07:15.292646
418  2023-11-01 14:07:15.340514
419  2023-11-01 14:07:15.372396
420  2023-11-01 14:07:15.404346
421  2023-11-01 14:07:15.436269
422  2023-11-01 14:07:15.469177
423  2023-11-01 14:07:15.500094
424  2023-11-01 14:07:15.533000
425  2023-11-01 14:07:15.564915
426  2023-11-01 14:07:15.596825
427  2023-11-01 14:07:15.628740
428  2023-11-01 14:07:15.660659
429  2023-11-01 14:07:15.708530
430  2023-11-01 14:07:15.740445
431  2023-11-01 14:07:15.772364
432  2023-11-01 14:07:15.804292
433  2023-11-01 14:07:15.836212
434  2023-11-01 14:07:15.869099
435  2023-11-01 14:07:15.900034
436  2023-11-01 14:07:15.932900
437  2023-11-01 14:07:15.964848
438  2023-11-01 14:07:15.996763
439  2023-11-01 14:07:16.028677
440  2023-11-01 14:07:16.060589
441  2023-11-01 14:07:16.108461
442  2023-11-01 14:07:16.140374
443  2023-11-01 14:07:16.172294
444  2023-11-01 14:07:16.204205
445  2023-11-01 14:07:16.236089
446  2023-11-01 14:07:16.268037
447  2023-11-01 14:07:16.300947
448  2023-11-01 14:07:16.332983
449  2023-11-01 14:07:16.364865
450  2023-11-01 14:07:16.396777
451  2023-11-01 14:07:16.428724
452  2023-11-01 14:07:16.460645
453  2023-11-01 14:07:16.508508
454  2023-11-01 14:07:16.540423
455  2023-11-01 14:07:16.572309
456  2023-11-01 14:07:16.604223
457  2023-11-01 14:07:16.636168
458  2023-11-01 14:07:16.668094
459  2023-11-01 14:07:16.701019
460  2023-11-01 14:07:16.732879
461  2023-11-01 14:07:16.764825
462  2023-11-01 14:07:16.796751
463  2023-11-01 14:07:16.828657
464  2023-11-01 14:07:16.860571
465  2023-11-01 14:07:16.908438
466  2023-11-01 14:07:16.940364
467  2023-11-01 14:07:16.972251
468  2023-11-01 14:07:17.004183
469  2023-11-01 14:07:17.037099
470  2023-11-01 14:07:17.067986
471  2023-11-01 14:07:17.100895
472  2023-11-01 14:07:17.132835
473  2023-11-01 14:07:17.164773
474  2023-11-01 14:07:17.196638
475  2023-11-01 14:07:17.228600
476  2023-11-01 14:07:17.260501
477  2023-11-01 14:07:17.308373
478  2023-11-01 14:07:17.340305
479  2023-11-01 14:07:17.372205
480  2023-11-01 14:07:17.404117
481  2023-11-01 14:07:17.437026
482  2023-11-01 14:07:17.468910
483  2023-11-01 14:07:17.500033
484  2023-11-01 14:07:17.532941
485  2023-11-01 14:07:17.564858
486  2023-11-01 14:07:17.596770
487  2023-11-01 14:07:17.628684
488  2023-11-01 14:07:17.660600
489  2023-11-01 14:07:17.708472
490  2023-11-01 14:07:17.740388
491  2023-11-01 14:07:17.772269
492  2023-11-01 14:07:17.804221
493  2023-11-01 14:07:17.836128
494  2023-11-01 14:07:17.868052
495  2023-11-01 14:07:17.899964
496  2023-11-01 14:07:17.932877
497  2023-11-01 14:07:17.964797
498  2023-11-01 14:07:17.996700
499  2023-11-01 14:07:18.028619
500  2023-11-01 14:07:18.060530
501  2023-11-01 14:07:18.108412
502  2023-11-01 14:07:18.140350
503  2023-11-01 14:07:18.172265
504  2023-11-01 14:07:18.204275
505  2023-11-01 14:07:18.237171
506  2023-11-01 14:07:18.268095
507  2023-11-01 14:07:18.301004
508  2023-11-01 14:07:18.332886
509  2023-11-01 14:07:18.364833
510  2023-11-01 14:07:18.396715
511  2023-11-01 14:07:18.428662
512  2023-11-01 14:07:18.460578
513  2023-11-01 14:07:18.508451
514  2023-11-01 14:07:18.540365
515  2023-11-01 14:07:18.572276
516  2023-11-01 14:07:18.604160
517  2023-11-01 14:07:18.637073
518  2023-11-01 14:07:18.668001
519  2023-11-01 14:07:18.700942
520  2023-11-01 14:07:18.732852
521  2023-11-01 14:07:18.764765
522  2023-11-01 14:07:18.796678
523  2023-11-01 14:07:18.828608
524  2023-11-01 14:07:18.860509
525  2023-11-01 14:07:18.908382
526  2023-11-01 14:07:18.940312
527  2023-11-01 14:07:18.972221
528  2023-11-01 14:07:19.004125
529  2023-11-01 14:07:19.037004
530  2023-11-01 14:07:19.068954
531  2023-11-01 14:07:19.100867
532  2023-11-01 14:07:19.132793
533  2023-11-01 14:07:19.164699
534  2023-11-01 14:07:19.196576
535  2023-11-01 14:07:19.228524
536  2023-11-01 14:07:19.260442
537  2023-11-01 14:07:19.308315
538  2023-11-01 14:07:19.340244
539  2023-11-01 14:07:19.372146
540  2023-11-01 14:07:19.404058
541  2023-11-01 14:07:19.436935
542  2023-11-01 14:07:19.468884
543  2023-11-01 14:07:19.500798
544  2023-11-01 14:07:19.532715
545  2023-11-01 14:07:19.564592
546  2023-11-01 14:07:19.596508
547  2023-11-01 14:07:19.628612
548  2023-11-01 14:07:19.676485
549  2023-11-01 14:07:19.708400
550  2023-11-01 14:07:19.740319
551  2023-11-01 14:07:19.772238
552  2023-11-01 14:07:19.804139
553  2023-11-01 14:07:19.836054
554  2023-11-01 14:07:19.868973
555  2023-11-01 14:07:19.900892
556  2023-11-01 14:07:19.932802
557  2023-11-01 14:07:19.964712
558  2023-11-01 14:07:19.996593
559  2023-11-01 14:07:20.028534
560  2023-11-01 14:07:20.076411
561  2023-11-01 14:07:20.108336
562  2023-11-01 14:07:20.140259
563  2023-11-01 14:07:20.172160
564  2023-11-01 14:07:20.204070
565  2023-11-01 14:07:20.236991
566  2023-11-01 14:07:20.268903
567  2023-11-01 14:07:20.300811
568  2023-11-01 14:07:20.332734
569  2023-11-01 14:07:20.364648
570  2023-11-01 14:07:20.396524
571  2023-11-01 14:07:20.429448
572  2023-11-01 14:07:20.476361
573  2023-11-01 14:07:20.508225
574  2023-11-01 14:07:20.540183
575  2023-11-01 14:07:20.572165
576  2023-11-01 14:07:20.604081
577  2023-11-01 14:07:20.635997
578  2023-11-01 14:07:20.668925
579  2023-11-01 14:07:20.700844
580  2023-11-01 14:07:20.732763
581  2023-11-01 14:07:20.764653
582  2023-11-01 14:07:20.796570
583  2023-11-01 14:07:20.828481
584  2023-11-01 14:07:20.876346
585  2023-11-01 14:07:20.908274
586  2023-11-01 14:07:20.940183
587  2023-11-01 14:07:20.972066
588  2023-11-01 14:07:21.004017
589  2023-11-01 14:07:21.036893
590  2023-11-01 14:07:21.068843
591  2023-11-01 14:07:21.100776
592  2023-11-01 14:07:21.132673
593  2023-11-01 14:07:21.164588
594  2023-11-01 14:07:21.196466
595  2023-11-01 14:07:21.228417
596  2023-11-01 14:07:21.277250
597  2023-11-01 14:07:21.308167
598  2023-11-01 14:07:21.340117
599  2023-11-01 14:07:21.372038
600  2023-11-01 14:07:21.404920
601  2023-11-01 14:07:21.436825
602  2023-11-01 14:07:21.468738
603  2023-11-01 14:07:21.500653
604  2023-11-01 14:07:21.532567
605  2023-11-01 14:07:21.564486
606  2023-11-01 14:07:21.596430
607  2023-11-01 14:07:21.628311
608  2023-11-01 14:07:21.676183
609  2023-11-01 14:07:21.708098
610  2023-11-01 14:07:21.740045
611  2023-11-01 14:07:21.772961
612  2023-11-01 14:07:21.804839
613  2023-11-01 14:07:21.836823
614  2023-11-01 14:07:21.868713
615  2023-11-01 14:07:21.900620
616  2023-11-01 14:07:21.932529
617  2023-11-01 14:07:21.964444
618  2023-11-01 14:07:21.996364
619  2023-11-01 14:07:22.028288
620  2023-11-01 14:07:22.076148
621  2023-11-01 14:07:22.108072
622  2023-11-01 14:07:22.139976
623  2023-11-01 14:07:22.172889
624  2023-11-01 14:07:22.204826
625  2023-11-01 14:07:22.236685
626  2023-11-01 14:07:22.268600
627  2023-11-01 14:07:22.300546
628  2023-11-01 14:07:22.332461
629  2023-11-01 14:07:22.364381
630  2023-11-01 14:07:22.396258
631  2023-11-01 14:07:22.428173
632  2023-11-01 14:07:22.476045
633  2023-11-01 14:07:22.507960
634  2023-11-01 14:07:22.539874
635  2023-11-01 14:07:22.572823
636  2023-11-01 14:07:22.604701
637  2023-11-01 14:07:22.636616
638  2023-11-01 14:07:22.668598
639  2023-11-01 14:07:22.700575
640  2023-11-01 14:07:22.732478
641  2023-11-01 14:07:22.764358
642  2023-11-01 14:07:22.796272
643  2023-11-01 14:07:22.828221
644  2023-11-01 14:07:22.876059
645  2023-11-01 14:07:22.908971
646  2023-11-01 14:07:22.940885
647  2023-11-01 14:07:22.972849
648  2023-11-01 14:07:23.004764
649  2023-11-01 14:07:23.036630
650  2023-11-01 14:07:23.068546
651  2023-11-01 14:07:23.100494
652  2023-11-01 14:07:23.132409
653  2023-11-01 14:07:23.164335
654  2023-11-01 14:07:23.196237
655  2023-11-01 14:07:23.244109
656  2023-11-01 14:07:23.276059
657  2023-11-01 14:07:23.307973
658  2023-11-01 14:07:23.340885
659  2023-11-01 14:07:23.372813
660  2023-11-01 14:07:23.404716
661  2023-11-01 14:07:23.436665
662  2023-11-01 14:07:23.468544
663  2023-11-01 14:07:23.501503
664  2023-11-01 14:07:23.532375
665  2023-11-01 14:07:23.564288
666  2023-11-01 14:07:23.596228
667  2023-11-01 14:07:23.644154
668  2023-11-01 14:07:23.676069
669  2023-11-01 14:07:23.707984
670  2023-11-01 14:07:23.739932
671  2023-11-01 14:07:23.772853
672  2023-11-01 14:07:23.804759
673  2023-11-01 14:07:23.836673
674  2023-11-01 14:07:23.868588
675  2023-11-01 14:07:23.900470
676  2023-11-01 14:07:23.932384
677  2023-11-01 14:07:23.964299
678  2023-11-01 14:07:23.996251
679  2023-11-01 14:07:24.044085
680  2023-11-01 14:07:24.076034
681  2023-11-01 14:07:24.107948
682  2023-11-01 14:07:24.140826
683  2023-11-01 14:07:24.172777
684  2023-11-01 14:07:24.204656
685  2023-11-01 14:07:24.236571
686  2023-11-01 14:07:24.268485
687  2023-11-01 14:07:24.300400
688  2023-11-01 14:07:24.332315
689  2023-11-01 14:07:24.364260
690  2023-11-01 14:07:24.397176
691  2023-11-01 14:07:24.445013
692  2023-11-01 14:07:24.476929
693  2023-11-01 14:07:24.508851
694  2023-11-01 14:07:24.540757
695  2023-11-01 14:07:24.572706
696  2023-11-01 14:07:24.604587
697  2023-11-01 14:07:24.636502
698  2023-11-01 14:07:24.668452
699  2023-11-01 14:07:24.700366
700  2023-11-01 14:07:24.733245
701  2023-11-01 14:07:24.764160
702  2023-11-01 14:07:24.796112
703  2023-11-01 14:07:24.844944
704  2023-11-01 14:07:24.875983
705  2023-11-01 14:07:24.907898
706  2023-11-01 14:07:24.940810
707  2023-11-01 14:07:24.972724
708  2023-11-01 14:07:25.004639
709  2023-11-01 14:07:25.036588
710  2023-11-01 14:07:25.068556
711  2023-11-01 14:07:25.100470
712  2023-11-01 14:07:25.132420
713  2023-11-01 14:07:25.164428
714  2023-11-01 14:07:25.196379
715  2023-11-01 14:07:25.244214
716  2023-11-01 14:07:25.276129
717  2023-11-01 14:07:25.308043
718  2023-11-01 14:07:25.339958
719  2023-11-01 14:07:25.372901
720  2023-11-01 14:07:25.404787
721  2023-11-01 14:07:25.436701
722  2023-11-01 14:07:25.468615
723  2023-11-01 14:07:25.500560
724  2023-11-01 14:07:25.532446
725  2023-11-01 14:07:25.564360
726  2023-11-01 14:07:25.596273
727  2023-11-01 14:07:25.644145
728  2023-11-01 14:07:25.676059
729  2023-11-01 14:07:25.708973
730  2023-11-01 14:07:25.739923
731  2023-11-01 14:07:25.772802
732  2023-11-01 14:07:25.804766
733  2023-11-01 14:07:25.836635
734  2023-11-01 14:07:25.868548
735  2023-11-01 14:07:25.900462
736  2023-11-01 14:07:25.932413
737  2023-11-01 14:07:25.964271
738  2023-11-01 14:07:25.996177
739  2023-11-01 14:07:26.044148
740  2023-11-01 14:07:26.077060
741  2023-11-01 14:07:26.108975
742  2023-11-01 14:07:26.140890
743  2023-11-01 14:07:26.172804
744  2023-11-01 14:07:26.204719
745  2023-11-01 14:07:26.236634
746  2023-11-01 14:07:26.268549
747  2023-11-01 14:07:26.300463
748  2023-11-01 14:07:26.332377
749  2023-11-01 14:07:26.364294
750  2023-11-01 14:07:26.397207
751  2023-11-01 14:07:26.445077
752  2023-11-01 14:07:26.475994
753  2023-11-01 14:07:26.508906
754  2023-11-01 14:07:26.540820
755  2023-11-01 14:07:26.572736
756  2023-11-01 14:07:26.604651
757  2023-11-01 14:07:26.636565
758  2023-11-01 14:07:26.668550
759  2023-11-01 14:07:26.700328
760  2023-11-01 14:07:26.732252
761  2023-11-01 14:07:26.764120
762  2023-11-01 14:07:26.797032
763  2023-11-01 14:07:26.844904
764  2023-11-01 14:07:26.876829
765  2023-11-01 14:07:26.908790
766  2023-11-01 14:07:26.940648
767  2023-11-01 14:07:26.972563
768  2023-11-01 14:07:27.004478
769  2023-11-01 14:07:27.036436
770  2023-11-01 14:07:27.068313
771  2023-11-01 14:07:27.100222
772  2023-11-01 14:07:27.132168
773  2023-11-01 14:07:27.164050
774  2023-11-01 14:07:27.212920
775  2023-11-01 14:07:27.244876
776  2023-11-01 14:07:27.276803
777  2023-11-01 14:07:27.308664
778  2023-11-01 14:07:27.340579
779  2023-11-01 14:07:27.372525
780  2023-11-01 14:07:27.404409
781  2023-11-01 14:07:27.436379
782  2023-11-01 14:07:27.468238
783  2023-11-01 14:07:27.501154
784  2023-11-01 14:07:27.532068
785  2023-11-01 14:07:27.564979
786  2023-11-01 14:07:27.612855
787  2023-11-01 14:07:27.644770
788  2023-11-01 14:07:27.676685
789  2023-11-01 14:07:27.708599
790  2023-11-01 14:07:27.740514
791  2023-11-01 14:07:27.772462
792  2023-11-01 14:07:27.804514
793  2023-11-01 14:07:27.836425
794  2023-11-01 14:07:27.868311
795  2023-11-01 14:07:27.900227
796  2023-11-01 14:07:27.932140
797  2023-11-01 14:07:27.965052
798  2023-11-01 14:07:28.011927
799  2023-11-01 14:07:28.044878
800  2023-11-01 14:07:28.076813
801  2023-11-01 14:07:28.108846
802  2023-11-01 14:07:28.140715
803  2023-11-01 14:07:28.172783
804  2023-11-01 14:07:28.204686
805  2023-11-01 14:07:28.236570
806  2023-11-01 14:07:28.268517
807  2023-11-01 14:07:28.300439
808  2023-11-01 14:07:28.332353
809  2023-11-01 14:07:28.364268
810  2023-11-01 14:07:28.412257
811  2023-11-01 14:07:28.444172
812  2023-11-01 14:07:28.476090
813  2023-11-01 14:07:28.508005
814  2023-11-01 14:07:28.539989
815  2023-11-01 14:07:28.572872
816  2023-11-01 14:07:28.604785
817  2023-11-01 14:07:28.636826
818  2023-11-01 14:07:28.668786
819  2023-11-01 14:07:28.700684
820  2023-11-01 14:07:28.732570
821  2023-11-01 14:07:28.764519
822  2023-11-01 14:07:28.812357
823  2023-11-01 14:07:28.844271
824  2023-11-01 14:07:28.876186
825  2023-11-01 14:07:28.908101
826  2023-11-01 14:07:28.941013
827  2023-11-01 14:07:28.971931
828  2023-11-01 14:07:29.004916
829  2023-11-01 14:07:29.036864
830  2023-11-01 14:07:29.068745
831  2023-11-01 14:07:29.100660
832  2023-11-01 14:07:29.132800
833  2023-11-01 14:07:29.164738
834  2023-11-01 14:07:29.212744
835  2023-11-01 14:07:29.244524
836  2023-11-01 14:07:29.276439
837  2023-11-01 14:07:29.308353
838  2023-11-01 14:07:29.340273
839  2023-11-01 14:07:29.372183
840  2023-11-01 14:07:29.405098
841  2023-11-01 14:07:29.436102
842  2023-11-01 14:07:29.469064
843  2023-11-01 14:07:29.500012
844  2023-11-01 14:07:29.532894
845  2023-11-01 14:07:29.564807
846  2023-11-01 14:07:29.612674
847  2023-11-01 14:07:29.644647
848  2023-11-01 14:07:29.676561
849  2023-11-01 14:07:29.708477
850  2023-11-01 14:07:29.740422
851  2023-11-01 14:07:29.772343
852  2023-11-01 14:07:29.804431
853  2023-11-01 14:07:29.836432
854  2023-11-01 14:07:29.868367
855  2023-11-01 14:07:29.901257
856  2023-11-01 14:07:29.932291
857  2023-11-01 14:07:29.964154
858  2023-11-01 14:07:30.012235
859  2023-11-01 14:07:30.044167
860  2023-11-01 14:07:30.076115
861  2023-11-01 14:07:30.108029
862  2023-11-01 14:07:30.140908
863  2023-11-01 14:07:30.172861
864  2023-11-01 14:07:30.204773
865  2023-11-01 14:07:30.236652
866  2023-11-01 14:07:30.268567
867  2023-11-01 14:07:30.300513
868  2023-11-01 14:07:30.332397
869  2023-11-01 14:07:30.365360
870  2023-11-01 14:07:30.412330
871  2023-11-01 14:07:30.444244
872  2023-11-01 14:07:30.476159
873  2023-11-01 14:07:30.508173
874  2023-11-01 14:07:30.540087
875  2023-11-01 14:07:30.572003
876  2023-11-01 14:07:30.604915
877  2023-11-01 14:07:30.636875
878  2023-11-01 14:07:30.668856
879  2023-11-01 14:07:30.700901
880  2023-11-01 14:07:30.732816
881  2023-11-01 14:07:30.780689
882  2023-11-01 14:07:30.812602
883  2023-11-01 14:07:30.844517
884  2023-11-01 14:07:30.876431
885  2023-11-01 14:07:30.908346
886  2023-11-01 14:07:30.940273
887  2023-11-01 14:07:30.973218
888  2023-11-01 14:07:31.005174
889  2023-11-01 14:07:31.037289
890  2023-11-01 14:07:31.069220
891  2023-11-01 14:07:31.101251
892  2023-11-01 14:07:31.133338
893  2023-11-01 14:07:31.181185
894  2023-11-01 14:07:31.213131
895  2023-11-01 14:07:31.245009
896  2023-11-01 14:07:31.276916
897  2023-11-01 14:07:31.308828
898  2023-11-01 14:07:31.340744
899  2023-11-01 14:07:31.372660
900  2023-11-01 14:07:31.404573
901  2023-11-01 14:07:31.436508
902  2023-11-01 14:07:31.468403
903  2023-11-01 14:07:31.501315
904  2023-11-01 14:07:31.532278
905  2023-11-01 14:07:31.580103
906  2023-11-01 14:07:31.613015
907  2023-11-01 14:07:31.644967
908  2023-11-01 14:07:31.676880
909  2023-11-01 14:07:31.708791
910  2023-11-01 14:07:31.740712
911  2023-11-01 14:07:31.772589
912  2023-11-01 14:07:31.804504
913  2023-11-01 14:07:31.836420
914  2023-11-01 14:07:31.868334
915  2023-11-01 14:07:31.900249
916  2023-11-01 14:07:31.932213
917  2023-11-01 14:07:31.980034
918  2023-11-01 14:07:32.012031
919  2023-11-01 14:07:32.043968
920  2023-11-01 14:07:32.075968
921  2023-11-01 14:07:32.108932
922  2023-11-01 14:07:32.140796
923  2023-11-01 14:07:32.172711
924  2023-11-01 14:07:32.204641
925  2023-11-01 14:07:32.237597
926  2023-11-01 14:07:32.268571
927  2023-11-01 14:07:32.300467
928  2023-11-01 14:07:32.332408
929  2023-11-01 14:07:32.380297
930  2023-11-01 14:07:32.412161
931  2023-11-01 14:07:32.445134
932  2023-11-01 14:07:32.477021
933  2023-11-01 14:07:32.508934
934  2023-11-01 14:07:32.540865
935  2023-11-01 14:07:32.572732
936  2023-11-01 14:07:32.604648
937  2023-11-01 14:07:32.636603
938  2023-11-01 14:07:32.668489
939  2023-11-01 14:07:32.700391
940  2023-11-01 14:07:32.733332
941  2023-11-01 14:07:32.780080
942  2023-11-01 14:07:32.813040
943  2023-11-01 14:07:32.844959
944  2023-11-01 14:07:32.876871
945  2023-11-01 14:07:32.908821
946  2023-11-01 14:07:32.940698
947  2023-11-01 14:07:32.972662
948  2023-11-01 14:07:33.004689
949  2023-11-01 14:07:33.036604
950  2023-11-01 14:07:33.068552
951  2023-11-01 14:07:33.100463
952  2023-11-01 14:07:33.132416
953  2023-11-01 14:07:33.180219
954  2023-11-01 14:07:33.212133
955  2023-11-01 14:07:33.244093
956  2023-11-01 14:07:33.275993
957  2023-11-01 14:07:33.307890
958  2023-11-01 14:07:33.340789
959  2023-11-01 14:07:33.372735
960  2023-11-01 14:07:33.404659
961  2023-11-01 14:07:33.436540
962  2023-11-01 14:07:33.468483
963  2023-11-01 14:07:33.500375
964  2023-11-01 14:07:33.532324
965  2023-11-01 14:07:33.580182
966  2023-11-01 14:07:33.612096
967  2023-11-01 14:07:33.644013
968  2023-11-01 14:07:33.675894
969  2023-11-01 14:07:33.708891
970  2023-11-01 14:07:33.740875
971  2023-11-01 14:07:33.772816
972  2023-11-01 14:07:33.804674
973  2023-11-01 14:07:33.836619
974  2023-11-01 14:07:33.868517
975  2023-11-01 14:07:33.900418
976  2023-11-01 14:07:33.932371
977  2023-11-01 14:07:33.980243
978  2023-11-01 14:07:34.012157
979  2023-11-01 14:07:34.044067
980  2023-11-01 14:07:34.075981
981  2023-11-01 14:07:34.107897
982  2023-11-01 14:07:34.140811
983  2023-11-01 14:07:34.172722
984  2023-11-01 14:07:34.204637
985  2023-11-01 14:07:34.236519
986  2023-11-01 14:07:34.268472
987  2023-11-01 14:07:34.300384
988  2023-11-01 14:07:34.332330
989  2023-11-01 14:07:34.380314
990  2023-11-01 14:07:34.412238
991  2023-11-01 14:07:34.445105
992  2023-11-01 14:07:34.477020
993  2023-11-01 14:07:34.508968
994  2023-11-01 14:07:34.540873
995  2023-11-01 14:07:34.572765
996  2023-11-01 14:07:34.604679
997  2023-11-01 14:07:34.636627
998  2023-11-01 14:07:34.668507
999  2023-11-01 14:07:34.700433
1000  2023-11-01 14:07:34.748344
1001  2023-11-01 14:07:34.780353
1002  2023-11-01 14:07:34.812274
1003  2023-11-01 14:07:34.844251
1004  2023-11-01 14:07:34.876209
1005  2023-11-01 14:07:34.908129
1006  2023-11-01 14:07:34.940045
1007  2023-11-01 14:07:34.972939
1008  2023-11-01 14:07:35.004857
1009  2023-11-01 14:07:35.036775
1010  2023-11-01 14:07:35.068686
1011  2023-11-01 14:07:35.100602
1012  2023-11-01 14:07:35.148611
1013  2023-11-01 14:07:35.180523
1014  2023-11-01 14:07:35.212406
1015  2023-11-01 14:07:35.244430
1016  2023-11-01 14:07:35.276384
1017  2023-11-01 14:07:35.308296
1018  2023-11-01 14:07:35.340228
1019  2023-11-01 14:07:35.372126
1020  2023-11-01 14:07:35.404238
1021  2023-11-01 14:07:35.437146
1022  2023-11-01 14:07:35.468028
1023  2023-11-01 14:07:35.500976
1024  2023-11-01 14:07:35.548854
1025  2023-11-01 14:07:35.580762
1026  2023-11-01 14:07:35.612098
1027  2023-11-01 14:07:35.643984
1028  2023-11-01 14:07:35.676005
1029  2023-11-01 14:07:35.707925
1030  2023-11-01 14:07:35.740834
1031  2023-11-01 14:07:35.772751
1032  2023-11-01 14:07:35.804661
1033  2023-11-01 14:07:35.836579
1034  2023-11-01 14:07:35.868492
1035  2023-11-01 14:07:35.900409
1036  2023-11-01 14:07:35.948274
1037  2023-11-01 14:07:35.981194
1038  2023-11-01 14:07:36.012105
1039  2023-11-01 14:07:36.044022
1040  2023-11-01 14:07:36.075935
1041  2023-11-01 14:07:36.108868
1042  2023-11-01 14:07:36.140763
1043  2023-11-01 14:07:36.172681
1044  2023-11-01 14:07:36.204606
1045  2023-11-01 14:07:36.236501
1046  2023-11-01 14:07:36.268421
1047  2023-11-01 14:07:36.301332
1048  2023-11-01 14:07:36.348212
1049  2023-11-01 14:07:36.380125
1050  2023-11-01 14:07:36.412047
1051  2023-11-01 14:07:36.444951
1052  2023-11-01 14:07:36.476831
1053  2023-11-01 14:07:36.508788
1054  2023-11-01 14:07:36.540692
1055  2023-11-01 14:07:36.572575
1056  2023-11-01 14:07:36.604492
1057  2023-11-01 14:07:36.636444
1058  2023-11-01 14:07:36.668319
1059  2023-11-01 14:07:36.701263
1060  2023-11-01 14:07:36.748142
1061  2023-11-01 14:07:36.780053
1062  2023-11-01 14:07:36.812964
1063  2023-11-01 14:07:36.843883
1064  2023-11-01 14:07:36.876762
1065  2023-11-01 14:07:36.908712
1066  2023-11-01 14:07:36.940623
1067  2023-11-01 14:07:36.972539
1068  2023-11-01 14:07:37.004454
1069  2023-11-01 14:07:37.036369
1070  2023-11-01 14:07:37.068296
1071  2023-11-01 14:07:37.100214
1072  2023-11-01 14:07:37.148075
1073  2023-11-01 14:07:37.180083
1074  2023-11-01 14:07:37.211999
1075  2023-11-01 14:07:37.244927
1076  2023-11-01 14:07:37.275830
1077  2023-11-01 14:07:37.308740
1078  2023-11-01 14:07:37.340648
1079  2023-11-01 14:07:37.372572
1080  2023-11-01 14:07:37.404487
1081  2023-11-01 14:07:37.436399
1082  2023-11-01 14:07:37.468330
1083  2023-11-01 14:07:37.500212
1084  2023-11-01 14:07:37.548111
1085  2023-11-01 14:07:37.580016
1086  2023-11-01 14:07:37.611928
1087  2023-11-01 14:07:37.644810
1088  2023-11-01 14:07:37.676724
1089  2023-11-01 14:07:37.708672
1090  2023-11-01 14:07:37.740585
1091  2023-11-01 14:07:37.772503
1092  2023-11-01 14:07:37.804416
1093  2023-11-01 14:07:37.836324
1094  2023-11-01 14:07:37.868250
1095  2023-11-01 14:07:37.900176
1096  2023-11-01 14:07:37.948042
1097  2023-11-01 14:07:37.980947
1098  2023-11-01 14:07:38.012869
1099  2023-11-01 14:07:38.044775
1100  2023-11-01 14:07:38.076694
1101  2023-11-01 14:07:38.108603
1102  2023-11-01 14:07:38.140516
1103  2023-11-01 14:07:38.172432
1104  2023-11-01 14:07:38.204351
1105  2023-11-01 14:07:38.236230
1106  2023-11-01 14:07:38.268175
1107  2023-11-01 14:07:38.300092
1108  2023-11-01 14:07:38.347936
1109  2023-11-01 14:07:38.380885
1110  2023-11-01 14:07:38.412809
1111  2023-11-01 14:07:38.444708
1112  2023-11-01 14:07:38.476617
1113  2023-11-01 14:07:38.508532
1114  2023-11-01 14:07:38.540448
1115  2023-11-01 14:07:38.572372
1116  2023-11-01 14:07:38.604298
1117  2023-11-01 14:07:38.636161
1118  2023-11-01 14:07:38.668075
1119  2023-11-01 14:07:38.715979
1120  2023-11-01 14:07:38.748792
1121  2023-11-01 14:07:38.780707
1122  2023-11-01 14:07:38.812722
1123  2023-11-01 14:07:38.844637
1124  2023-11-01 14:07:38.876553
1125  2023-11-01 14:07:38.908436
1126  2023-11-01 14:07:38.940419
1127  2023-11-01 14:07:38.972359
1128  2023-11-01 14:07:39.004249
1129  2023-11-01 14:07:39.037152
1130  2023-11-01 14:07:39.069042
1131  2023-11-01 14:07:39.115953
1132  2023-11-01 14:07:39.148828
1133  2023-11-01 14:07:39.180774
1134  2023-11-01 14:07:39.212690
1135  2023-11-01 14:07:39.244614
1136  2023-11-01 14:07:39.276486
1137  2023-11-01 14:07:39.308401
1138  2023-11-01 14:07:39.340354
1139  2023-11-01 14:07:39.372262
1140  2023-11-01 14:07:39.404181
1141  2023-11-01 14:07:39.436064
1142  2023-11-01 14:07:39.468972
1143  2023-11-01 14:07:39.516844
1144  2023-11-01 14:07:39.548758
1145  2023-11-01 14:07:39.580708
1146  2023-11-01 14:07:39.612589
1147  2023-11-01 14:07:39.644537
1148  2023-11-01 14:07:39.676417
1149  2023-11-01 14:07:39.708332
1150  2023-11-01 14:07:39.740302
1151  2023-11-01 14:07:39.773193
1152  2023-11-01 14:07:39.804107
1153  2023-11-01 14:07:39.835991
1154  2023-11-01 14:07:39.868942
1155  2023-11-01 14:07:39.916774
1156  2023-11-01 14:07:39.948689
1157  2023-11-01 14:07:39.980604
1158  2023-11-01 14:07:40.012518
1159  2023-11-01 14:07:40.044465
1160  2023-11-01 14:07:40.076348
1161  2023-11-01 14:07:40.108262
1162  2023-11-01 14:07:40.140209
1163  2023-11-01 14:07:40.172119
1164  2023-11-01 14:07:40.204044
1165  2023-11-01 14:07:40.236952
1166  2023-11-01 14:07:40.268833
1167  2023-11-01 14:07:40.316705
1168  2023-11-01 14:07:40.348754
1169  2023-11-01 14:07:40.380669
1170  2023-11-01 14:07:40.412584
1171  2023-11-01 14:07:40.444499
1172  2023-11-01 14:07:40.476413
1173  2023-11-01 14:07:40.509325
1174  2023-11-01 14:07:40.540242
1175  2023-11-01 14:07:40.572158
1176  2023-11-01 14:07:40.605071
1177  2023-11-01 14:07:40.635987
1178  2023-11-01 14:07:40.668940
1179  2023-11-01 14:07:40.716771
1180  2023-11-01 14:07:40.748787
1181  2023-11-01 14:07:40.780702
1182  2023-11-01 14:07:40.812616
1183  2023-11-01 14:07:40.844531
1184  2023-11-01 14:07:40.876446
1185  2023-11-01 14:07:40.908360
1186  2023-11-01 14:07:40.940286
1187  2023-11-01 14:07:40.972191
1188  2023-11-01 14:07:41.005124
1189  2023-11-01 14:07:41.036021
1190  2023-11-01 14:07:41.068965
1191  2023-11-01 14:07:41.115930
1192  2023-11-01 14:07:41.148850
1193  2023-11-01 14:07:41.180764
1194  2023-11-01 14:07:41.212679
1195  2023-11-01 14:07:41.244635
1196  2023-11-01 14:07:41.276559
1197  2023-11-01 14:07:41.308423
1198  2023-11-01 14:07:41.340338
1199  2023-11-01 14:07:41.372302
1200  2023-11-01 14:07:41.404168
1201  2023-11-01 14:07:41.436129
1202  2023-11-01 14:07:41.468039
1203  2023-11-01 14:07:41.515869
1204  2023-11-01 14:07:41.548781
1205  2023-11-01 14:07:41.580730
1206  2023-11-01 14:07:41.612645
1207  2023-11-01 14:07:41.644611
1208  2023-11-01 14:07:41.676525
1209  2023-11-01 14:07:41.708440
1210  2023-11-01 14:07:41.740355
1211  2023-11-01 14:07:41.772321
1212  2023-11-01 14:07:41.804217
1213  2023-11-01 14:07:41.836137
1214  2023-11-01 14:07:41.868154
1215  2023-11-01 14:07:41.915991
1216  2023-11-01 14:07:41.948902
1217  2023-11-01 14:07:41.980817
1218  2023-11-01 14:07:42.012732
1219  2023-11-01 14:07:42.044647
1220  2023-11-01 14:07:42.076561
1221  2023-11-01 14:07:42.108477
1222  2023-11-01 14:07:42.140445
1223  2023-11-01 14:07:42.172339
1224  2023-11-01 14:07:42.204253
1225  2023-11-01 14:07:42.236137
1226  2023-11-01 14:07:42.284007
1227  2023-11-01 14:07:42.315921
1228  2023-11-01 14:07:42.348833
1229  2023-11-01 14:07:42.380748
1230  2023-11-01 14:07:42.412663
1231  2023-11-01 14:07:42.444577
1232  2023-11-01 14:07:42.476492
1233  2023-11-01 14:07:42.508407
1234  2023-11-01 14:07:42.540321
1235  2023-11-01 14:07:42.572279
1236  2023-11-01 14:07:42.604182
1237  2023-11-01 14:07:42.636168
1238  2023-11-01 14:07:42.684040
1239  2023-11-01 14:07:42.715954
1240  2023-11-01 14:07:42.747869
1241  2023-11-01 14:07:42.779928
1242  2023-11-01 14:07:42.812805
1243  2023-11-01 14:07:42.844720
1244  2023-11-01 14:07:42.876635
1245  2023-11-01 14:07:42.908580
1246  2023-11-01 14:07:42.940464
1247  2023-11-01 14:07:42.972379
1248  2023-11-01 14:07:43.004328
1249  2023-11-01 14:07:43.036267
1250  2023-11-01 14:07:43.084177
1251  2023-11-01 14:07:43.116125
1252  2023-11-01 14:07:43.148006
1253  2023-11-01 14:07:43.179923
1254  2023-11-01 14:07:43.212835
1255  2023-11-01 14:07:43.244790
1256  2023-11-01 14:07:43.276662
1257  2023-11-01 14:07:43.308577
1258  2023-11-01 14:07:43.340492
1259  2023-11-01 14:07:43.372439
1260  2023-11-01 14:07:43.404358
1261  2023-11-01 14:07:43.436267
1262  2023-11-01 14:07:43.484108
1263  2023-11-01 14:07:43.517020
1264  2023-11-01 14:07:43.548936
1265  2023-11-01 14:07:43.580849
1266  2023-11-01 14:07:43.612764
1267  2023-11-01 14:07:43.644679
1268  2023-11-01 14:07:43.676593
1269  2023-11-01 14:07:43.708508
1270  2023-11-01 14:07:43.740423
1271  2023-11-01 14:07:43.772364
1272  2023-11-01 14:07:43.804252
1273  2023-11-01 14:07:43.836218
1274  2023-11-01 14:07:43.884039
1275  2023-11-01 14:07:43.915953
1276  2023-11-01 14:07:43.947868
1277  2023-11-01 14:07:43.980780
1278  2023-11-01 14:07:44.012695
1279  2023-11-01 14:07:44.044609
1280  2023-11-01 14:07:44.076524
1281  2023-11-01 14:07:44.108439
1282  2023-11-01 14:07:44.140353
1283  2023-11-01 14:07:44.172269
1284  2023-11-01 14:07:44.204217
1285  2023-11-01 14:07:44.237130
1286  2023-11-01 14:07:44.283971
1287  2023-11-01 14:07:44.315885
1288  2023-11-01 14:07:44.348796
1289  2023-11-01 14:07:44.380711
1290  2023-11-01 14:07:44.412626
1291  2023-11-01 14:07:44.444540
1292  2023-11-01 14:07:44.476455
1293  2023-11-01 14:07:44.508370
1294  2023-11-01 14:07:44.540284
1295  2023-11-01 14:07:44.572231
1296  2023-11-01 14:07:44.605112
1297  2023-11-01 14:07:44.636030
1298  2023-11-01 14:07:44.684898
1299  2023-11-01 14:07:44.716815
1300  2023-11-01 14:07:44.748727
1301  2023-11-01 14:07:44.780723
1302  2023-11-01 14:07:44.812649
1303  2023-11-01 14:07:44.844521
1304  2023-11-01 14:07:44.876474
1305  2023-11-01 14:07:44.908429
1306  2023-11-01 14:07:44.940327
1307  2023-11-01 14:07:44.972218
1308  2023-11-01 14:07:45.004170
1309  2023-11-01 14:07:45.036081
1310  2023-11-01 14:07:45.083918
1311  2023-11-01 14:07:45.116888
1312  2023-11-01 14:07:45.148745
1313  2023-11-01 14:07:45.180660
1314  2023-11-01 14:07:45.212574
1315  2023-11-01 14:07:45.244521
1316  2023-11-01 14:07:45.276452
1317  2023-11-01 14:07:45.308318
1318  2023-11-01 14:07:45.340233
1319  2023-11-01 14:07:45.372149
1320  2023-11-01 14:07:45.405061
1321  2023-11-01 14:07:45.435978
1322  2023-11-01 14:07:45.483880
1323  2023-11-01 14:07:45.516761
1324  2023-11-01 14:07:45.548676
1325  2023-11-01 14:07:45.580627
1326  2023-11-01 14:07:45.612538
1327  2023-11-01 14:07:45.644420
1328  2023-11-01 14:07:45.676335
1329  2023-11-01 14:07:45.708284
1330  2023-11-01 14:07:45.740164
1331  2023-11-01 14:07:45.772110
1332  2023-11-01 14:07:45.803995
1333  2023-11-01 14:07:45.836906
1334  2023-11-01 14:07:45.884777
1335  2023-11-01 14:07:45.916693
1336  2023-11-01 14:07:45.948607
1337  2023-11-01 14:07:45.980521
1338  2023-11-01 14:07:46.012436
1339  2023-11-01 14:07:46.044431
1340  2023-11-01 14:07:46.076444
1341  2023-11-01 14:07:46.108359
1342  2023-11-01 14:07:46.140282
1343  2023-11-01 14:07:46.172221
1344  2023-11-01 14:07:46.205100
1345  2023-11-01 14:07:46.252089
1346  2023-11-01 14:07:46.284003
1347  2023-11-01 14:07:46.316915
1348  2023-11-01 14:07:46.348889
1349  2023-11-01 14:07:46.380799
1350  2023-11-01 14:07:46.412714
1351  2023-11-01 14:07:46.444630
1352  2023-11-01 14:07:46.476543
1353  2023-11-01 14:07:46.508458
1354  2023-11-01 14:07:46.540478
1355  2023-11-01 14:07:46.572426
1356  2023-11-01 14:07:46.604308
1357  2023-11-01 14:07:46.652179
1358  2023-11-01 14:07:46.684094
1359  2023-11-01 14:07:46.717006
1360  2023-11-01 14:07:46.747923
1361  2023-11-01 14:07:46.780835
1362  2023-11-01 14:07:46.812750
1363  2023-11-01 14:07:46.844665
1364  2023-11-01 14:07:46.876579
1365  2023-11-01 14:07:46.908586
1366  2023-11-01 14:07:46.940517
1367  2023-11-01 14:07:46.972540
1368  2023-11-01 14:07:47.005451
1369  2023-11-01 14:07:47.052326
1370  2023-11-01 14:07:47.084241
1371  2023-11-01 14:07:47.116155
1372  2023-11-01 14:07:47.148078
1373  2023-11-01 14:07:47.179985
1374  2023-11-01 14:07:47.212899
1375  2023-11-01 14:07:47.244811
1376  2023-11-01 14:07:47.276780
1377  2023-11-01 14:07:47.308641
1378  2023-11-01 14:07:47.340555
1379  2023-11-01 14:07:47.372471
1380  2023-11-01 14:07:47.404422
1381  2023-11-01 14:07:47.452257
1382  2023-11-01 14:07:47.484207
1383  2023-11-01 14:07:47.516086
1384  2023-11-01 14:07:47.548001
1385  2023-11-01 14:07:47.580913
1386  2023-11-01 14:07:47.612920
1387  2023-11-01 14:07:47.643901
1388  2023-11-01 14:07:47.676287
1389  2023-11-01 14:07:47.708246
1390  2023-11-01 14:07:47.740152
1391  2023-11-01 14:07:47.773105
1392  2023-11-01 14:07:47.805009
1393  2023-11-01 14:07:47.852013
1394  2023-11-01 14:07:47.883927
1395  2023-11-01 14:07:47.916839
1396  2023-11-01 14:07:47.948790
1397  2023-11-01 14:07:47.980701
1398  2023-11-01 14:07:48.012583
1399  2023-11-01 14:07:48.044498
1400  2023-11-01 14:07:48.076418
1401  2023-11-01 14:07:48.108364
1402  2023-11-01 14:07:48.140242
1403  2023-11-01 14:07:48.172214
1404  2023-11-01 14:07:48.204209
1405  2023-11-01 14:07:48.252127
1406  2023-11-01 14:07:48.284181
1407  2023-11-01 14:07:48.316166
1408  2023-11-01 14:07:48.348046
1409  2023-11-01 14:07:48.380959
1410  2023-11-01 14:07:48.412910
1411  2023-11-01 14:07:48.444826
1412  2023-11-01 14:07:48.476703
1413  2023-11-01 14:07:48.508617
1414  2023-11-01 14:07:48.540619
1415  2023-11-01 14:07:48.572502
1416  2023-11-01 14:07:48.604415
1417  2023-11-01 14:07:48.652388
1418  2023-11-01 14:07:48.684254
1419  2023-11-01 14:07:48.716246
1420  2023-11-01 14:07:48.748223
1421  2023-11-01 14:07:48.781081
1422  2023-11-01 14:07:48.812995
1423  2023-11-01 14:07:48.844910
1424  2023-11-01 14:07:48.876824
1425  2023-11-01 14:07:48.908739
1426  2023-11-01 14:07:48.940654
1427  2023-11-01 14:07:48.973655
1428  2023-11-01 14:07:49.005616
1429  2023-11-01 14:07:49.052458
1430  2023-11-01 14:07:49.085417
1431  2023-11-01 14:07:49.116401
1432  2023-11-01 14:07:49.148316
1433  2023-11-01 14:07:49.181278
1434  2023-11-01 14:07:49.213143
1435  2023-11-01 14:07:49.245104
1436  2023-11-01 14:07:49.277017
1437  2023-11-01 14:07:49.309898
1438  2023-11-01 14:07:49.340801
1439  2023-11-01 14:07:49.373768
1440  2023-11-01 14:07:49.404632
1441  2023-11-01 14:07:49.453526
1442  2023-11-01 14:07:49.485454
1443  2023-11-01 14:07:49.517372
1444  2023-11-01 14:07:49.549289
1445  2023-11-01 14:07:49.581211
1446  2023-11-01 14:07:49.613134
1447  2023-11-01 14:07:49.645023
1448  2023-11-01 14:07:49.676935
1449  2023-11-01 14:07:49.708818
1450  2023-11-01 14:07:49.740767
1451  2023-11-01 14:07:49.772648
1452  2023-11-01 14:07:49.820591
1453  2023-11-01 14:07:49.852514
1454  2023-11-01 14:07:49.884427
1455  2023-11-01 14:07:49.916342
1456  2023-11-01 14:07:49.948399
1457  2023-11-01 14:07:49.980282
1458  2023-11-01 14:07:50.013233
1459  2023-11-01 14:07:50.044176
1460  2023-11-01 14:07:50.077106
1461  2023-11-01 14:07:50.108057
1462  2023-11-01 14:07:50.139936
1463  2023-11-01 14:07:50.172889
1464  2023-11-01 14:07:50.220721
1465  2023-11-01 14:07:50.252772
1466  2023-11-01 14:07:50.285741
1467  2023-11-01 14:07:50.316633
1468  2023-11-01 14:07:50.348549
1469  2023-11-01 14:07:50.380463
1470  2023-11-01 14:07:50.412392
1471  2023-11-01 14:07:50.444293
1472  2023-11-01 14:07:50.477388
1473  2023-11-01 14:07:50.508323
1474  2023-11-01 14:07:50.540249
1475  2023-11-01 14:07:50.572161
1476  2023-11-01 14:07:50.620046
1477  2023-11-01 14:07:50.652913
1478  2023-11-01 14:07:50.684889
1479  2023-11-01 14:07:50.717769
1480  2023-11-01 14:07:50.748689
1481  2023-11-01 14:07:50.780571
1482  2023-11-01 14:07:50.812520
1483  2023-11-01 14:07:50.844401
1484  2023-11-01 14:07:50.877351
1485  2023-11-01 14:07:50.909385
1486  2023-11-01 14:07:50.940301
1487  2023-11-01 14:07:50.972361
1488  2023-11-01 14:07:51.020179
1489  2023-11-01 14:07:51.052118
1490  2023-11-01 14:07:51.085049
1491  2023-11-01 14:07:51.116948
1492  2023-11-01 14:07:51.148835
1493  2023-11-01 14:07:51.180798
1494  2023-11-01 14:07:51.212664
1495  2023-11-01 14:07:51.244682
1496  2023-11-01 14:07:51.276591
1497  2023-11-01 14:07:51.308592
1498  2023-11-01 14:07:51.340464
1499  2023-11-01 14:07:51.372542
1500  2023-11-01 14:07:51.420408
1501  2023-11-01 14:07:51.452327
1502  2023-11-01 14:07:51.484238
1503  2023-11-01 14:07:51.516154
1504  2023-11-01 14:07:51.548051
1505  2023-11-01 14:07:51.579988
1506  2023-11-01 14:07:51.612862
1507  2023-11-01 14:07:51.644836
1508  2023-11-01 14:07:51.676694
1509  2023-11-01 14:07:51.708640
1510  2023-11-01 14:07:51.740645
1511  2023-11-01 14:07:51.772597
1512  2023-11-01 14:07:51.820431
1513  2023-11-01 14:07:51.852382
1514  2023-11-01 14:07:51.884298
1515  2023-11-01 14:07:51.916215
1516  2023-11-01 14:07:51.949089
1517  2023-11-01 14:07:51.981036
1518  2023-11-01 14:07:52.013003
1519  2023-11-01 14:07:52.044196
1520  2023-11-01 14:07:52.076110
1521  2023-11-01 14:07:52.108992
1522  2023-11-01 14:07:52.140946
1523  2023-11-01 14:07:52.172897
1524  2023-11-01 14:07:52.220805
1525  2023-11-01 14:07:52.252684
1526  2023-11-01 14:07:52.284631
1527  2023-11-01 14:07:52.316515
1528  2023-11-01 14:07:52.348465
1529  2023-11-01 14:07:52.380383
1530  2023-11-01 14:07:52.412293
1531  2023-11-01 14:07:52.444234
1532  2023-11-01 14:07:52.476188
1533  2023-11-01 14:07:52.508117
1534  2023-11-01 14:07:52.540037
1535  2023-11-01 14:07:52.572946
1536  2023-11-01 14:07:52.620813
1537  2023-11-01 14:07:52.652735
1538  2023-11-01 14:07:52.684627
1539  2023-11-01 14:07:52.716542
1540  2023-11-01 14:07:52.748457
1541  2023-11-01 14:07:52.780366
1542  2023-11-01 14:07:52.812250
1543  2023-11-01 14:07:52.844165
1544  2023-11-01 14:07:52.876112
1545  2023-11-01 14:07:52.908030
1546  2023-11-01 14:07:52.939947
1547  2023-11-01 14:07:52.972854
1548  2023-11-01 14:07:53.020725
1549  2023-11-01 14:07:53.052608
1550  2023-11-01 14:07:53.084557
1551  2023-11-01 14:07:53.116468
1552  2023-11-01 14:07:53.148395
1553  2023-11-01 14:07:53.180303
1554  2023-11-01 14:07:53.212181
1555  2023-11-01 14:07:53.244133
1556  2023-11-01 14:07:53.276046
1557  2023-11-01 14:07:53.307960
1558  2023-11-01 14:07:53.339876
1559  2023-11-01 14:07:53.372800
1560  2023-11-01 14:07:53.420656
1561  2023-11-01 14:07:53.452539
1562  2023-11-01 14:07:53.484484
1563  2023-11-01 14:07:53.516398
1564  2023-11-01 14:07:53.548323
1565  2023-11-01 14:07:53.580238
1566  2023-11-01 14:07:53.612145
1567  2023-11-01 14:07:53.644026
1568  2023-11-01 14:07:53.675977
1569  2023-11-01 14:07:53.707898
1570  2023-11-01 14:07:53.740801
1571  2023-11-01 14:07:53.788674
1572  2023-11-01 14:07:53.820589
1573  2023-11-01 14:07:53.852472
1574  2023-11-01 14:07:53.884384
1575  2023-11-01 14:07:53.916349
1576  2023-11-01 14:07:53.948247
1577  2023-11-01 14:07:53.981126
1578  2023-11-01 14:07:54.013041
1579  2023-11-01 14:07:54.043996
1580  2023-11-01 14:07:54.076905
1581  2023-11-01 14:07:54.108832
1582  2023-11-01 14:07:54.140734
1583  2023-11-01 14:07:54.188605
1584  2023-11-01 14:07:54.220517
1585  2023-11-01 14:07:54.252432
1586  2023-11-01 14:07:54.284357
1587  2023-11-01 14:07:54.316268
1588  2023-11-01 14:07:54.348185
1589  2023-11-01 14:07:54.380095
1590  2023-11-01 14:07:54.412014
1591  2023-11-01 14:07:54.443921
1592  2023-11-01 14:07:54.476800
1593  2023-11-01 14:07:54.508747
1594  2023-11-01 14:07:54.540635
1595  2023-11-01 14:07:54.588534
1596  2023-11-01 14:07:54.620454
1597  2023-11-01 14:07:54.652372
1598  2023-11-01 14:07:54.684287
1599  2023-11-01 14:07:54.716193
1600  2023-11-01 14:07:54.748105
1601  2023-11-01 14:07:54.780022
1602  2023-11-01 14:07:54.811940
1603  2023-11-01 14:07:54.844816
1604  2023-11-01 14:07:54.876765
1605  2023-11-01 14:07:54.908677
1606  2023-11-01 14:07:54.940598
1607  2023-11-01 14:07:54.988479
1608  2023-11-01 14:07:55.020379
1609  2023-11-01 14:07:55.052302
1610  2023-11-01 14:07:55.084209
1611  2023-11-01 14:07:55.116132
1612  2023-11-01 14:07:55.148048
1613  2023-11-01 14:07:55.179953
1614  2023-11-01 14:07:55.211869
1615  2023-11-01 14:07:55.244783
1616  2023-11-01 14:07:55.276663
1617  2023-11-01 14:07:55.308607
1618  2023-11-01 14:07:55.340527
1619  2023-11-01 14:07:55.388395
1620  2023-11-01 14:07:55.420322
1621  2023-11-01 14:07:55.452226
1622  2023-11-01 14:07:55.484141
1623  2023-11-01 14:07:55.516022
1624  2023-11-01 14:07:55.547985
1625  2023-11-01 14:07:55.579908
1626  2023-11-01 14:07:55.612764
1627  2023-11-01 14:07:55.644708
1628  2023-11-01 14:07:55.676631
1629  2023-11-01 14:07:55.708539
1630  2023-11-01 14:07:55.740454
1631  2023-11-01 14:07:55.788325
1632  2023-11-01 14:07:55.820244
1633  2023-11-01 14:07:55.852155
1634  2023-11-01 14:07:55.884078
1635  2023-11-01 14:07:55.915988
1636  2023-11-01 14:07:55.948898
1637  2023-11-01 14:07:55.980812
1638  2023-11-01 14:07:56.012726
1639  2023-11-01 14:07:56.044644
1640  2023-11-01 14:07:56.076557
1641  2023-11-01 14:07:56.108475
1642  2023-11-01 14:07:56.140384
1643  2023-11-01 14:07:56.188278
1644  2023-11-01 14:07:56.220175
1645  2023-11-01 14:07:56.252090
1646  2023-11-01 14:07:56.284001
1647  2023-11-01 14:07:56.316929
1648  2023-11-01 14:07:56.348838
1649  2023-11-01 14:07:56.380804
1650  2023-11-01 14:07:56.412658
1651  2023-11-01 14:07:56.444541
1652  2023-11-01 14:07:56.476487
1653  2023-11-01 14:07:56.508404
1654  2023-11-01 14:07:56.540325
1655  2023-11-01 14:07:56.588197
1656  2023-11-01 14:07:56.620102
1657  2023-11-01 14:07:56.653038
1658  2023-11-01 14:07:56.683901
1659  2023-11-01 14:07:56.716845
1660  2023-11-01 14:07:56.748757
1661  2023-11-01 14:07:56.780643
1662  2023-11-01 14:07:56.812617
1663  2023-11-01 14:07:56.844502
1664  2023-11-01 14:07:56.876418
1665  2023-11-01 14:07:56.908342
1666  2023-11-01 14:07:56.940254
1667  2023-11-01 14:07:56.988124
1668  2023-11-01 14:07:57.020033
1669  2023-11-01 14:07:57.052951
1670  2023-11-01 14:07:57.084865
1671  2023-11-01 14:07:57.116784
1672  2023-11-01 14:07:57.148657
1673  2023-11-01 14:07:57.180606
1674  2023-11-01 14:07:57.212489
1675  2023-11-01 14:07:57.244434
1676  2023-11-01 14:07:57.276359
1677  2023-11-01 14:07:57.308262
1678  2023-11-01 14:07:57.356134
1679  2023-11-01 14:07:57.388052
1680  2023-11-01 14:07:57.419969
1681  2023-11-01 14:07:57.452901
1682  2023-11-01 14:07:57.484795
1683  2023-11-01 14:07:57.516673
1684  2023-11-01 14:07:57.548588
1685  2023-11-01 14:07:57.580536
1686  2023-11-01 14:07:57.612451
1687  2023-11-01 14:07:57.644364
1688  2023-11-01 14:07:57.676280
1689  2023-11-01 14:07:57.708196
1690  2023-11-01 14:07:57.756065
1691  2023-11-01 14:07:57.787980
1692  2023-11-01 14:07:57.819898
1693  2023-11-01 14:07:57.852817
1694  2023-11-01 14:07:57.884721
1695  2023-11-01 14:07:57.916636
1696  2023-11-01 14:07:57.948544
1697  2023-11-01 14:07:57.980477
1698  2023-11-01 14:07:58.012379
1699  2023-11-01 14:07:58.044297
1700  2023-11-01 14:07:58.076179
1701  2023-11-01 14:07:58.108121
1702  2023-11-01 14:07:58.156003
1703  2023-11-01 14:07:58.188883
1704  2023-11-01 14:07:58.220825
1705  2023-11-01 14:07:58.252737
1706  2023-11-01 14:07:58.284652
1707  2023-11-01 14:07:58.316568
1708  2023-11-01 14:07:58.348451
1709  2023-11-01 14:07:58.380396
1710  2023-11-01 14:07:58.412328
1711  2023-11-01 14:07:58.444232
1712  2023-11-01 14:07:58.476109
1713  2023-11-01 14:07:58.508024
1714  2023-11-01 14:07:58.556893
1715  2023-11-01 14:07:58.588808
1716  2023-11-01 14:07:58.620757
1717  2023-11-01 14:07:58.652675
1718  2023-11-01 14:07:58.684595
1719  2023-11-01 14:07:58.716467
1720  2023-11-01 14:07:58.748414
1721  2023-11-01 14:07:58.780331
1722  2023-11-01 14:07:58.812250
1723  2023-11-01 14:07:58.845123
1724  2023-11-01 14:07:58.876040
1725  2023-11-01 14:07:58.907995
1726  2023-11-01 14:07:58.956009
1727  2023-11-01 14:07:58.987954
1728  2023-11-01 14:07:59.020824
1729  2023-11-01 14:07:59.052739
1730  2023-11-01 14:07:59.084776
1731  2023-11-01 14:07:59.116736
1732  2023-11-01 14:07:59.148765
1733  2023-11-01 14:07:59.180679
1734  2023-11-01 14:07:59.212594
1735  2023-11-01 14:07:59.244549
1736  2023-11-01 14:07:59.276455
1737  2023-11-01 14:07:59.308341
1738  2023-11-01 14:07:59.356246
1739  2023-11-01 14:07:59.388125
1740  2023-11-01 14:07:59.420040
1741  2023-11-01 14:07:59.451997
1742  2023-11-01 14:07:59.484866
1743  2023-11-01 14:07:59.516781
1744  2023-11-01 14:07:59.548696
1745  2023-11-01 14:07:59.580610
1746  2023-11-01 14:07:59.612525
1747  2023-11-01 14:07:59.644440
1748  2023-11-01 14:07:59.676386
1749  2023-11-01 14:07:59.708269
1750  2023-11-01 14:07:59.756176
1751  2023-11-01 14:07:59.788056
1752  2023-11-01 14:07:59.820006
1753  2023-11-01 14:07:59.852883
1754  2023-11-01 14:07:59.884797
1755  2023-11-01 14:07:59.916712
1756  2023-11-01 14:07:59.948632
1757  2023-11-01 14:07:59.980541
1758  2023-11-01 14:08:00.012456
1759  2023-11-01 14:08:00.044371
1760  2023-11-01 14:08:00.076325
1761  2023-11-01 14:08:00.108238
1762  2023-11-01 14:08:00.156073
1763  2023-11-01 14:08:00.187986
1764  2023-11-01 14:08:00.220898
1765  2023-11-01 14:08:00.252813
1766  2023-11-01 14:08:00.284766
1767  2023-11-01 14:08:00.316674
1768  2023-11-01 14:08:00.348557
1769  2023-11-01 14:08:00.380472
1770  2023-11-01 14:08:00.412429
1771  2023-11-01 14:08:00.444352
1772  2023-11-01 14:08:00.476216
1773  2023-11-01 14:08:00.508130
1774  2023-11-01 14:08:00.556003
1775  2023-11-01 14:08:00.588915
1776  2023-11-01 14:08:00.620829
1777  2023-11-01 14:08:00.652744
1778  2023-11-01 14:08:00.684659
1779  2023-11-01 14:08:00.716573
1780  2023-11-01 14:08:00.748488
1781  2023-11-01 14:08:00.780403
1782  2023-11-01 14:08:00.812317
1783  2023-11-01 14:08:00.844232
1784  2023-11-01 14:08:00.876147
1785  2023-11-01 14:08:00.908061
1786  2023-11-01 14:08:00.956962
1787  2023-11-01 14:08:00.988845
1788  2023-11-01 14:08:01.020770
1789  2023-11-01 14:08:01.052675
1790  2023-11-01 14:08:01.084589
1791  2023-11-01 14:08:01.116504
1792  2023-11-01 14:08:01.148419
1793  2023-11-01 14:08:01.180333
1794  2023-11-01 14:08:01.212248
1795  2023-11-01 14:08:01.244163
1796  2023-11-01 14:08:01.276077
1797  2023-11-01 14:08:01.324979
1798  2023-11-01 14:08:01.356898
1799  2023-11-01 14:08:01.388776
1800  2023-11-01 14:08:01.420691
1801  2023-11-01 14:08:01.452605
1802  2023-11-01 14:08:01.484520
1803  2023-11-01 14:08:01.516435
1804  2023-11-01 14:08:01.549359
1805  2023-11-01 14:08:01.580264
1806  2023-11-01 14:08:01.613185
1807  2023-11-01 14:08:01.645092
1808  2023-11-01 14:08:01.676008
1809  2023-11-01 14:08:01.724911
1810  2023-11-01 14:08:01.756835
1811  2023-11-01 14:08:01.788707
1812  2023-11-01 14:08:01.820622
1813  2023-11-01 14:08:01.852544
1814  2023-11-01 14:08:01.884451
1815  2023-11-01 14:08:01.916366
1816  2023-11-01 14:08:01.948315
1817  2023-11-01 14:08:01.980256
1818  2023-11-01 14:08:02.012110
1819  2023-11-01 14:08:02.044024
1820  2023-11-01 14:08:02.076939
1821  2023-11-01 14:08:02.124844
1822  2023-11-01 14:08:02.156762
1823  2023-11-01 14:08:02.188638
1824  2023-11-01 14:08:02.220552
1825  2023-11-01 14:08:02.252467
1826  2023-11-01 14:08:02.284392
1827  2023-11-01 14:08:02.316362
1828  2023-11-01 14:08:02.348211
1829  2023-11-01 14:08:02.380126
1830  2023-11-01 14:08:02.412076
1831  2023-11-01 14:08:02.443999
1832  2023-11-01 14:08:02.476867
1833  2023-11-01 14:08:02.524782
1834  2023-11-01 14:08:02.556691
1835  2023-11-01 14:08:02.588568
1836  2023-11-01 14:08:02.620516
1837  2023-11-01 14:08:02.652404
1838  2023-11-01 14:08:02.684312
1839  2023-11-01 14:08:02.716239
1840  2023-11-01 14:08:02.748177
1841  2023-11-01 14:08:02.780092
1842  2023-11-01 14:08:02.811971
1843  2023-11-01 14:08:02.843886
1844  2023-11-01 14:08:02.876798
1845  2023-11-01 14:08:02.924703
1846  2023-11-01 14:08:02.956635
1847  2023-11-01 14:08:02.988500
1848  2023-11-01 14:08:03.020414
1849  2023-11-01 14:08:03.052329
1850  2023-11-01 14:08:03.084243
1851  2023-11-01 14:08:03.116158
1852  2023-11-01 14:08:03.148073
1853  2023-11-01 14:08:03.179987
1854  2023-11-01 14:08:03.212148
1855  2023-11-01 14:08:03.244112
1856  2023-11-01 14:08:03.276068
1857  2023-11-01 14:08:03.324094
1858  2023-11-01 14:08:03.356085
1859  2023-11-01 14:08:03.387998
1860  2023-11-01 14:08:03.419913
1861  2023-11-01 14:08:03.452825
1862  2023-11-01 14:08:03.484847
1863  2023-11-01 14:08:03.516761
1864  2023-11-01 14:08:03.548676
1865  2023-11-01 14:08:03.580591
1866  2023-11-01 14:08:03.612543
1867  2023-11-01 14:08:03.644420
1868  2023-11-01 14:08:03.676335
1869  2023-11-01 14:08:03.724065
1870  2023-11-01 14:08:03.755984
1871  2023-11-01 14:08:03.788048
1872  2023-11-01 14:08:03.820951
1873  2023-11-01 14:08:03.852890
1874  2023-11-01 14:08:03.884799
1875  2023-11-01 14:08:03.916768
1876  2023-11-01 14:08:03.948714
1877  2023-11-01 14:08:03.980597
1878  2023-11-01 14:08:04.012512
1879  2023-11-01 14:08:04.044426
1880  2023-11-01 14:08:04.076373
1881  2023-11-01 14:08:04.124213
1882  2023-11-01 14:08:04.156169
1883  2023-11-01 14:08:04.188042
1884  2023-11-01 14:08:04.219957
1885  2023-11-01 14:08:04.252870
1886  2023-11-01 14:08:04.284817
1887  2023-11-01 14:08:04.316698
1888  2023-11-01 14:08:04.348613
1889  2023-11-01 14:08:04.380528
1890  2023-11-01 14:08:04.412443
1891  2023-11-01 14:08:04.444357
1892  2023-11-01 14:08:04.476272
1893  2023-11-01 14:08:04.524144
1894  2023-11-01 14:08:04.556059
1895  2023-11-01 14:08:04.587973
1896  2023-11-01 14:08:04.619888
1897  2023-11-01 14:08:04.652800
1898  2023-11-01 14:08:04.684714
1899  2023-11-01 14:08:04.716629
1900  2023-11-01 14:08:04.748544
1901  2023-11-01 14:08:04.780527
1902  2023-11-01 14:08:04.812413
1903  2023-11-01 14:08:04.844360
1904  2023-11-01 14:08:04.876295
1905  2023-11-01 14:08:04.924204
1906  2023-11-01 14:08:04.956106
1907  2023-11-01 14:08:04.987988
1908  2023-11-01 14:08:05.020901
1909  2023-11-01 14:08:05.052897
1910  2023-11-01 14:08:05.084988
1911  2023-11-01 14:08:05.116902
1912  2023-11-01 14:08:05.148831
1913  2023-11-01 14:08:05.180731
1914  2023-11-01 14:08:05.212646
1915  2023-11-01 14:08:05.244560
1916  2023-11-01 14:08:05.292433
1917  2023-11-01 14:08:05.324401
1918  2023-11-01 14:08:05.357271
1919  2023-11-01 14:08:05.388177
1920  2023-11-01 14:08:05.420091
1921  2023-11-01 14:08:05.452132
1922  2023-11-01 14:08:05.484016
1923  2023-11-01 14:08:05.515929
1924  2023-11-01 14:08:05.548841
1925  2023-11-01 14:08:05.580797
1926  2023-11-01 14:08:05.612702
1927  2023-11-01 14:08:05.644585
1928  2023-11-01 14:08:05.692489
1929  2023-11-01 14:08:05.724385
1930  2023-11-01 14:08:05.756322
1931  2023-11-01 14:08:05.788201
1932  2023-11-01 14:08:05.820115
1933  2023-11-01 14:08:05.852181
1934  2023-11-01 14:08:05.885093
1935  2023-11-01 14:08:05.916010
1936  2023-11-01 14:08:05.948923
1937  2023-11-01 14:08:05.980840
1938  2023-11-01 14:08:06.012752
1939  2023-11-01 14:08:06.044666
1940  2023-11-01 14:08:06.092539
1941  2023-11-01 14:08:06.124453
1942  2023-11-01 14:08:06.156423
1943  2023-11-01 14:08:06.188289
1944  2023-11-01 14:08:06.220197
1945  2023-11-01 14:08:06.252112
1946  2023-11-01 14:08:06.284062
1947  2023-11-01 14:08:06.315977
1948  2023-11-01 14:08:06.348853
1949  2023-11-01 14:08:06.380768
1950  2023-11-01 14:08:06.412772
1951  2023-11-01 14:08:06.444645
1952  2023-11-01 14:08:06.492518
1953  2023-11-01 14:08:06.524522
1954  2023-11-01 14:08:06.556402
1955  2023-11-01 14:08:06.588317
1956  2023-11-01 14:08:06.620270
1957  2023-11-01 14:08:06.652179
1958  2023-11-01 14:08:06.684059
1959  2023-11-01 14:08:06.715974
1960  2023-11-01 14:08:06.747925
1961  2023-11-01 14:08:06.780842
1962  2023-11-01 14:08:06.812782
1963  2023-11-01 14:08:06.844697
1964  2023-11-01 14:08:06.892602
1965  2023-11-01 14:08:06.924485
1966  2023-11-01 14:08:06.956431
1967  2023-11-01 14:08:06.988349
1968  2023-11-01 14:08:07.020851
1969  2023-11-01 14:08:07.052856
1970  2023-11-01 14:08:07.084770
1971  2023-11-01 14:08:07.116718
1972  2023-11-01 14:08:07.148600
1973  2023-11-01 14:08:07.180644
1974  2023-11-01 14:08:07.213593
1975  2023-11-01 14:08:07.244507
1976  2023-11-01 14:08:07.292383
1977  2023-11-01 14:08:07.324295
1978  2023-11-01 14:08:07.356181
1979  2023-11-01 14:08:07.388089
1980  2023-11-01 14:08:07.420004
1981  2023-11-01 14:08:07.452916
1982  2023-11-01 14:08:07.484831
1983  2023-11-01 14:08:07.516747
1984  2023-11-01 14:08:07.549692
1985  2023-11-01 14:08:07.581604
1986  2023-11-01 14:08:07.613522
1987  2023-11-01 14:08:07.645434
1988  2023-11-01 14:08:07.693302
1989  2023-11-01 14:08:07.725223
1990  2023-11-01 14:08:07.757136
1991  2023-11-01 14:08:07.789018
1992  2023-11-01 14:08:07.820934
1993  2023-11-01 14:08:07.852847
1994  2023-11-01 14:08:07.884778
1995  2023-11-01 14:08:07.916676
1996  2023-11-01 14:08:07.948591
1997  2023-11-01 14:08:07.980506
1998  2023-11-01 14:08:08.013450
1999  2023-11-01 14:08:08.045365
2000  2023-11-01 14:08:08.093238
2001  2023-11-01 14:08:08.126150
2002  2023-11-01 14:08:08.158111
2003  2023-11-01 14:08:08.188982
2004  2023-11-01 14:08:08.220864
2005  2023-11-01 14:08:08.252813
2006  2023-11-01 14:08:08.284731
2007  2023-11-01 14:08:08.316623
2008  2023-11-01 14:08:08.348523
2009  2023-11-01 14:08:08.380582
2010  2023-11-01 14:08:08.413507
2011  2023-11-01 14:08:08.445418
2012  2023-11-01 14:08:08.493285
2013  2023-11-01 14:08:08.525202
2014  2023-11-01 14:08:08.557114
2015  2023-11-01 14:08:08.588041
2016  2023-11-01 14:08:08.620969
2017  2023-11-01 14:08:08.652947
2018  2023-11-01 14:08:08.684869
2019  2023-11-01 14:08:08.716841
2020  2023-11-01 14:08:08.748788
2021  2023-11-01 14:08:08.780781
2022  2023-11-01 14:08:08.812691
2023  2023-11-01 14:08:08.860564
2024  2023-11-01 14:08:08.892493
2025  2023-11-01 14:08:08.924406
2026  2023-11-01 14:08:08.956331
2027  2023-11-01 14:08:08.988249
2028  2023-11-01 14:08:09.020156
2029  2023-11-01 14:08:09.052195
2030  2023-11-01 14:08:09.085137
2031  2023-11-01 14:08:09.116133
2032  2023-11-01 14:08:09.148099
2033  2023-11-01 14:08:09.180015
2034  2023-11-01 14:08:09.212927
2035  2023-11-01 14:08:09.260764
2036  2023-11-01 14:08:09.292797
2037  2023-11-01 14:08:09.324822
2038  2023-11-01 14:08:09.356830
2039  2023-11-01 14:08:09.389791
2040  2023-11-01 14:08:09.420699
2041  2023-11-01 14:08:09.452698
2042  2023-11-01 14:08:09.485648
2043  2023-11-01 14:08:09.517572
2044  2023-11-01 14:08:09.549479
2045  2023-11-01 14:08:09.580522
2046  2023-11-01 14:08:09.613400
2047  2023-11-01 14:08:09.660306
2048  2023-11-01 14:08:09.693191
2049  2023-11-01 14:08:09.725116
2050  2023-11-01 14:08:09.758056
2051  2023-11-01 14:08:09.788963
2052  2023-11-01 14:08:09.820979
2053  2023-11-01 14:08:09.852984
2054  2023-11-01 14:08:09.884951
2055  2023-11-01 14:08:09.916866
2056  2023-11-01 14:08:09.948741
2057  2023-11-01 14:08:09.980965
2058  2023-11-01 14:08:10.011943
2059  2023-11-01 14:08:10.060775
2060  2023-11-01 14:08:10.092688
2061  2023-11-01 14:08:10.125601
2062  2023-11-01 14:08:10.157663
2063  2023-11-01 14:08:10.188579
2064  2023-11-01 14:08:10.220502
2065  2023-11-01 14:08:10.252408
2066  2023-11-01 14:08:10.284328
2067  2023-11-01 14:08:10.317263
2068  2023-11-01 14:08:10.348156
2069  2023-11-01 14:08:10.380072
2070  2023-11-01 14:08:10.412985
2071  2023-11-01 14:08:10.460820
2072  2023-11-01 14:08:10.492770
2073  2023-11-01 14:08:10.525646
2074  2023-11-01 14:08:10.556602
2075  2023-11-01 14:08:10.588508
2076  2023-11-01 14:08:10.620392
2077  2023-11-01 14:08:10.652348
2078  2023-11-01 14:08:10.684255
2079  2023-11-01 14:08:10.716181
2080  2023-11-01 14:08:10.748085
2081  2023-11-01 14:08:10.781011
2082  2023-11-01 14:08:10.812878
2083  2023-11-01 14:08:10.860854
2084  2023-11-01 14:08:10.892790
2085  2023-11-01 14:08:10.924688
2086  2023-11-01 14:08:10.956571
2087  2023-11-01 14:08:10.988517
2088  2023-11-01 14:08:11.020443
2089  2023-11-01 14:08:11.052315
2090  2023-11-01 14:08:11.084264
2091  2023-11-01 14:08:11.116176
2092  2023-11-01 14:08:11.148095
2093  2023-11-01 14:08:11.180054
2094  2023-11-01 14:08:11.212935
2095  2023-11-01 14:08:11.260809
2096  2023-11-01 14:08:11.292753
2097  2023-11-01 14:08:11.324671
2098  2023-11-01 14:08:11.356552
2099  2023-11-01 14:08:11.388504
2100  2023-11-01 14:08:11.420412
2101  2023-11-01 14:08:11.452337
2102  2023-11-01 14:08:11.484256
2103  2023-11-01 14:08:11.516246
2104  2023-11-01 14:08:11.548159
2105  2023-11-01 14:08:11.580080
2106  2023-11-01 14:08:11.611984
2107  2023-11-01 14:08:11.660860
2108  2023-11-01 14:08:11.692775
2109  2023-11-01 14:08:11.724689
2110  2023-11-01 14:08:11.756604
2111  2023-11-01 14:08:11.788512
2112  2023-11-01 14:08:11.820556
2113  2023-11-01 14:08:11.852544
2114  2023-11-01 14:08:11.884494
2115  2023-11-01 14:08:11.916388
2116  2023-11-01 14:08:11.948320
2117  2023-11-01 14:08:11.980254
2118  2023-11-01 14:08:12.012118
2119  2023-11-01 14:08:12.061022
2120  2023-11-01 14:08:12.092950
2121  2023-11-01 14:08:12.124850
2122  2023-11-01 14:08:12.156731
2123  2023-11-01 14:08:12.188680
2124  2023-11-01 14:08:12.220593
2125  2023-11-01 14:08:12.252507
2126  2023-11-01 14:08:12.284424
2127  2023-11-01 14:08:12.316340
2128  2023-11-01 14:08:12.348252
2129  2023-11-01 14:08:12.380167
2130  2023-11-01 14:08:12.412086
2131  2023-11-01 14:08:12.460919
2132  2023-11-01 14:08:12.492866
2133  2023-11-01 14:08:12.524795
2134  2023-11-01 14:08:12.556694
2135  2023-11-01 14:08:12.588607
2136  2023-11-01 14:08:12.620632
2137  2023-11-01 14:08:12.652685
2138  2023-11-01 14:08:12.684546
2139  2023-11-01 14:08:12.716491
2140  2023-11-01 14:08:12.748410
2141  2023-11-01 14:08:12.780326
2142  2023-11-01 14:08:12.828196
2143  2023-11-01 14:08:12.860126
2144  2023-11-01 14:08:12.893021
2145  2023-11-01 14:08:12.924938
2146  2023-11-01 14:08:12.956929
2147  2023-11-01 14:08:12.988864
2148  2023-11-01 14:08:13.020794
2149  2023-11-01 14:08:13.052673
2150  2023-11-01 14:08:13.084587
2151  2023-11-01 14:08:13.116508
2152  2023-11-01 14:08:13.148423
2153  2023-11-01 14:08:13.180420
2154  2023-11-01 14:08:13.228300
2155  2023-11-01 14:08:13.260228
2156  2023-11-01 14:08:13.292123
2157  2023-11-01 14:08:13.324038
2158  2023-11-01 14:08:13.356949
2159  2023-11-01 14:08:13.387873
2160  2023-11-01 14:08:13.420778
2161  2023-11-01 14:08:13.452694
2162  2023-11-01 14:08:13.484610
2163  2023-11-01 14:08:13.516522
2164  2023-11-01 14:08:13.548441
2165  2023-11-01 14:08:13.580358
2166  2023-11-01 14:08:13.628222
2167  2023-11-01 14:08:13.660107
2168  2023-11-01 14:08:13.692056
2169  2023-11-01 14:08:13.724934
2170  2023-11-01 14:08:13.756881
2171  2023-11-01 14:08:13.788812
2172  2023-11-01 14:08:13.820806
2173  2023-11-01 14:08:13.852750
2174  2023-11-01 14:08:13.884793
2175  2023-11-01 14:08:13.916699
2176  2023-11-01 14:08:13.948582
2177  2023-11-01 14:08:13.980536
2178  2023-11-01 14:08:14.028449
2179  2023-11-01 14:08:14.060450
2180  2023-11-01 14:08:14.092365
2181  2023-11-01 14:08:14.124312
2182  2023-11-01 14:08:14.156223
2183  2023-11-01 14:08:14.188214
2184  2023-11-01 14:08:14.220130
2185  2023-11-01 14:08:14.252044
2186  2023-11-01 14:08:14.283951
2187  2023-11-01 14:08:14.315866
2188  2023-11-01 14:08:14.348793
2189  2023-11-01 14:08:14.380696
2190  2023-11-01 14:08:14.428565
2191  2023-11-01 14:08:14.460484
2192  2023-11-01 14:08:14.492365
2193  2023-11-01 14:08:14.524323
2194  2023-11-01 14:08:14.556228
2195  2023-11-01 14:08:14.588147
2196  2023-11-01 14:08:14.620112
2197  2023-11-01 14:08:14.652005
2198  2023-11-01 14:08:14.683991
2199  2023-11-01 14:08:14.716907
2200  2023-11-01 14:08:14.748842
2201  2023-11-01 14:08:14.780752
2202  2023-11-01 14:08:14.828606
2203  2023-11-01 14:08:14.860535
2204  2023-11-01 14:08:14.892446
2205  2023-11-01 14:08:14.924356
2206  2023-11-01 14:08:14.956192
2207  2023-11-01 14:08:14.989127
2208  2023-11-01 14:08:15.021028
2209  2023-11-01 14:08:15.052019
2210  2023-11-01 14:08:15.083940
2211  2023-11-01 14:08:15.116865
2212  2023-11-01 14:08:15.148762
2213  2023-11-01 14:08:15.180685
2214  2023-11-01 14:08:15.228515
2215  2023-11-01 14:08:15.260458
2216  2023-11-01 14:08:15.292347
2217  2023-11-01 14:08:15.324289
2218  2023-11-01 14:08:15.356207
2219  2023-11-01 14:08:15.388086
2220  2023-11-01 14:08:15.420043
2221  2023-11-01 14:08:15.451951
2222  2023-11-01 14:08:15.484864
2223  2023-11-01 14:08:15.516774
2224  2023-11-01 14:08:15.548689
2225  2023-11-01 14:08:15.580604
2226  2023-11-01 14:08:15.628444
2227  2023-11-01 14:08:15.660362
2228  2023-11-01 14:08:15.692303
2229  2023-11-01 14:08:15.724229
2230  2023-11-01 14:08:15.756156
2231  2023-11-01 14:08:15.788054
2232  2023-11-01 14:08:15.819965
2233  2023-11-01 14:08:15.851893
2234  2023-11-01 14:08:15.884791
2235  2023-11-01 14:08:15.916704
2236  2023-11-01 14:08:15.948627
2237  2023-11-01 14:08:15.980535
2238  2023-11-01 14:08:16.028407
2239  2023-11-01 14:08:16.060324
2240  2023-11-01 14:08:16.092236
2241  2023-11-01 14:08:16.124172
2242  2023-11-01 14:08:16.157069
2243  2023-11-01 14:08:16.187948
2244  2023-11-01 14:08:16.220894
2245  2023-11-01 14:08:16.252807
2246  2023-11-01 14:08:16.284723
2247  2023-11-01 14:08:16.316604
2248  2023-11-01 14:08:16.348519
2249  2023-11-01 14:08:16.396424
2250  2023-11-01 14:08:16.428352
2251  2023-11-01 14:08:16.460221
2252  2023-11-01 14:08:16.492161
2253  2023-11-01 14:08:16.525084
2254  2023-11-01 14:08:16.556962
2255  2023-11-01 14:08:16.588876
2256  2023-11-01 14:08:16.620928
2257  2023-11-01 14:08:16.652739
2258  2023-11-01 14:08:16.684653
2259  2023-11-01 14:08:16.716535
2260  2023-11-01 14:08:16.748449
2261  2023-11-01 14:08:16.796352
2262  2023-11-01 14:08:16.829234
2263  2023-11-01 14:08:16.860190
2264  2023-11-01 14:08:16.893064
2265  2023-11-01 14:08:16.925011
2266  2023-11-01 14:08:16.956927
2267  2023-11-01 14:08:16.988860
2268  2023-11-01 14:08:17.020754
2269  2023-11-01 14:08:17.052668
2270  2023-11-01 14:08:17.084581
2271  2023-11-01 14:08:17.116514
2272  2023-11-01 14:08:17.148414
2273  2023-11-01 14:08:17.196289
2274  2023-11-01 14:08:17.228167
2275  2023-11-01 14:08:17.261111
2276  2023-11-01 14:08:17.292048
2277  2023-11-01 14:08:17.324942
2278  2023-11-01 14:08:17.356864
2279  2023-11-01 14:08:17.388737
2280  2023-11-01 14:08:17.420686
2281  2023-11-01 14:08:17.452629
2282  2023-11-01 14:08:17.484513
2283  2023-11-01 14:08:17.516396
2284  2023-11-01 14:08:17.548311
2285  2023-11-01 14:08:17.596184
2286  2023-11-01 14:08:17.628098
2287  2023-11-01 14:08:17.661049
2288  2023-11-01 14:08:17.692958
2289  2023-11-01 14:08:17.724875
2290  2023-11-01 14:08:17.756786
2291  2023-11-01 14:08:17.788668
2292  2023-11-01 14:08:17.820583
2293  2023-11-01 14:08:17.852627
2294  2023-11-01 14:08:17.884638
2295  2023-11-01 14:08:17.916553
2296  2023-11-01 14:08:17.948509
2297  2023-11-01 14:08:17.996383
2298  2023-11-01 14:08:18.028297
2299  2023-11-01 14:08:18.060211
2300  2023-11-01 14:08:18.092159
2301  2023-11-01 14:08:18.124074
2302  2023-11-01 14:08:18.155997
2303  2023-11-01 14:08:18.188912
2304  2023-11-01 14:08:18.220919
2305  2023-11-01 14:08:18.252834
2306  2023-11-01 14:08:18.284748
2307  2023-11-01 14:08:18.316663
2308  2023-11-01 14:08:18.348578
2309  2023-11-01 14:08:18.397480
2310  2023-11-01 14:08:18.428365
2311  2023-11-01 14:08:18.460279
2312  2023-11-01 14:08:18.493224
2313  2023-11-01 14:08:18.524142
2314  2023-11-01 14:08:18.557021
2315  2023-11-01 14:08:18.588935
2316  2023-11-01 14:08:18.620890
2317  2023-11-01 14:08:18.652818
2318  2023-11-01 14:08:18.684679
2319  2023-11-01 14:08:18.716594
2320  2023-11-01 14:08:18.748542
2321  2023-11-01 14:08:18.796406
2322  2023-11-01 14:08:18.828481
2323  2023-11-01 14:08:18.860402
2324  2023-11-01 14:08:18.892281
2325  2023-11-01 14:08:18.924232
2326  2023-11-01 14:08:18.956163
2327  2023-11-01 14:08:18.988056
2328  2023-11-01 14:08:19.020936
2329  2023-11-01 14:08:19.052851
2330  2023-11-01 14:08:19.084765
2331  2023-11-01 14:08:19.116857
2332  2023-11-01 14:08:19.148733
2333  2023-11-01 14:08:19.196658
2334  2023-11-01 14:08:19.228520
2335  2023-11-01 14:08:19.260435
2336  2023-11-01 14:08:19.292383
2337  2023-11-01 14:08:19.324265
2338  2023-11-01 14:08:19.356179
2339  2023-11-01 14:08:19.388093
2340  2023-11-01 14:08:19.420008
2341  2023-11-01 14:08:19.451958
2342  2023-11-01 14:08:19.484834
2343  2023-11-01 14:08:19.516749
2344  2023-11-01 14:08:19.548664
2345  2023-11-01 14:08:19.596536
2346  2023-11-01 14:08:19.628451
2347  2023-11-01 14:08:19.660579
2348  2023-11-01 14:08:19.692460
2349  2023-11-01 14:08:19.724405
2350  2023-11-01 14:08:19.756327
2351  2023-11-01 14:08:19.788203
2352  2023-11-01 14:08:19.820117
2353  2023-11-01 14:08:19.852032
2354  2023-11-01 14:08:19.884944
2355  2023-11-01 14:08:19.916867
2356  2023-11-01 14:08:19.948777
2357  2023-11-01 14:08:19.996678
2358  2023-11-01 14:08:20.028593
2359  2023-11-01 14:08:20.060475
2360  2023-11-01 14:08:20.092391
2361  2023-11-01 14:08:20.124340
2362  2023-11-01 14:08:20.156226
2363  2023-11-01 14:08:20.188135
2364  2023-11-01 14:08:20.221047
2365  2023-11-01 14:08:20.252962
2366  2023-11-01 14:08:20.283909
2367  2023-11-01 14:08:20.316791
2368  2023-11-01 14:08:20.364716
2369  2023-11-01 14:08:20.396609
2370  2023-11-01 14:08:20.428532
2371  2023-11-01 14:08:20.460408
2372  2023-11-01 14:08:20.492322
2373  2023-11-01 14:08:20.524284
2374  2023-11-01 14:08:20.556160
2375  2023-11-01 14:08:20.588066
2376  2023-11-01 14:08:20.619981
2377  2023-11-01 14:08:20.651895
2378  2023-11-01 14:08:20.684807
2379  2023-11-01 14:08:20.716722
2380  2023-11-01 14:08:20.764627
2381  2023-11-01 14:08:20.796510
2382  2023-11-01 14:08:20.828423
2383  2023-11-01 14:08:20.860339
2384  2023-11-01 14:08:20.892310
2385  2023-11-01 14:08:20.924167
2386  2023-11-01 14:08:20.957114
2387  2023-11-01 14:08:20.988994
2388  2023-11-01 14:08:21.020909
2389  2023-11-01 14:08:21.052823
2390  2023-11-01 14:08:21.084738
2391  2023-11-01 14:08:21.116653
2392  2023-11-01 14:08:21.164563
2393  2023-11-01 14:08:21.196466
2394  2023-11-01 14:08:21.228358
2395  2023-11-01 14:08:21.260300
2396  2023-11-01 14:08:21.293180
2397  2023-11-01 14:08:21.324130
2398  2023-11-01 14:08:21.357045
2399  2023-11-01 14:08:21.388924
2400  2023-11-01 14:08:21.420839
2401  2023-11-01 14:08:21.452790
2402  2023-11-01 14:08:21.484703
2403  2023-11-01 14:08:21.516584
2404  2023-11-01 14:08:21.564495
2405  2023-11-01 14:08:21.596402
2406  2023-11-01 14:08:21.628286
2407  2023-11-01 14:08:21.661239
2408  2023-11-01 14:08:21.692150
2409  2023-11-01 14:08:21.724067
2410  2023-11-01 14:08:21.756974
2411  2023-11-01 14:08:21.788913
2412  2023-11-01 14:08:21.820816
2413  2023-11-01 14:08:21.852685
2414  2023-11-01 14:08:21.884599
2415  2023-11-01 14:08:21.916548
2416  2023-11-01 14:08:21.964387
2417  2023-11-01 14:08:21.996338
2418  2023-11-01 14:08:22.028235
2419  2023-11-01 14:08:22.061161
2420  2023-11-01 14:08:22.092046
2421  2023-11-01 14:08:22.124995
2422  2023-11-01 14:08:22.156901
2423  2023-11-01 14:08:22.188786
2424  2023-11-01 14:08:22.220701
2425  2023-11-01 14:08:22.252616
2426  2023-11-01 14:08:22.284530
2427  2023-11-01 14:08:22.316445
2428  2023-11-01 14:08:22.364318
2429  2023-11-01 14:08:22.396233
2430  2023-11-01 14:08:22.428150
2431  2023-11-01 14:08:22.461091
2432  2023-11-01 14:08:22.492974
2433  2023-11-01 14:08:22.524903
2434  2023-11-01 14:08:22.556838
2435  2023-11-01 14:08:22.588717
2436  2023-11-01 14:08:22.620632
2437  2023-11-01 14:08:22.652546
2438  2023-11-01 14:08:22.684461
2439  2023-11-01 14:08:22.716535
2440  2023-11-01 14:08:22.764249
2441  2023-11-01 14:08:22.796194
2442  2023-11-01 14:08:22.829075
2443  2023-11-01 14:08:22.860026
2444  2023-11-01 14:08:22.892906
2445  2023-11-01 14:08:22.924850
2446  2023-11-01 14:08:22.956734
2447  2023-11-01 14:08:22.988692
2448  2023-11-01 14:08:23.020564
2449  2023-11-01 14:08:23.052477
2450  2023-11-01 14:08:23.084392
2451  2023-11-01 14:08:23.116357
2452  2023-11-01 14:08:23.164215
2453  2023-11-01 14:08:23.197133
2454  2023-11-01 14:08:23.228030
2455  2023-11-01 14:08:23.260920
2456  2023-11-01 14:08:23.292836
2457  2023-11-01 14:08:23.324782
2458  2023-11-01 14:08:23.356706
2459  2023-11-01 14:08:23.388579
2460  2023-11-01 14:08:23.420493
2461  2023-11-01 14:08:23.452890
2462  2023-11-01 14:08:23.484804
2463  2023-11-01 14:08:23.516719
2464  2023-11-01 14:08:23.564623
2465  2023-11-01 14:08:23.596539
2466  2023-11-01 14:08:23.628453
2467  2023-11-01 14:08:23.660335
2468  2023-11-01 14:08:23.692252
2469  2023-11-01 14:08:23.725163
2470  2023-11-01 14:08:23.756080
2471  2023-11-01 14:08:23.787993
2472  2023-11-01 14:08:23.819908
2473  2023-11-01 14:08:23.852820
2474  2023-11-01 14:08:23.884735
2475  2023-11-01 14:08:23.932609
2476  2023-11-01 14:08:23.964662
2477  2023-11-01 14:08:23.996576
2478  2023-11-01 14:08:24.028531
2479  2023-11-01 14:08:24.060406
2480  2023-11-01 14:08:24.092320
2481  2023-11-01 14:08:24.124235
2482  2023-11-01 14:08:24.157182
2483  2023-11-01 14:08:24.187976
2484  2023-11-01 14:08:24.220924
2485  2023-11-01 14:08:24.252839
2486  2023-11-01 14:08:24.283896
2487  2023-11-01 14:08:24.332734
2488  2023-11-01 14:08:24.364680
2489  2023-11-01 14:08:24.396563
2490  2023-11-01 14:08:24.428485
2491  2023-11-01 14:08:24.460393
2492  2023-11-01 14:08:24.492309
2493  2023-11-01 14:08:24.524223
2494  2023-11-01 14:08:24.557135
2495  2023-11-01 14:08:24.588050
2496  2023-11-01 14:08:24.620018
2497  2023-11-01 14:08:24.652915
2498  2023-11-01 14:08:24.684792
2499  2023-11-01 14:08:24.732664
2500  2023-11-01 14:08:24.764610
2501  2023-11-01 14:08:24.796493
2502  2023-11-01 14:08:24.828442
2503  2023-11-01 14:08:24.860323
2504  2023-11-01 14:08:24.893234
2505  2023-11-01 14:08:24.924163
2506  2023-11-01 14:08:24.956128
2507  2023-11-01 14:08:24.987981
2508  2023-11-01 14:08:25.020895
2509  2023-11-01 14:08:25.052808
2510  2023-11-01 14:08:25.084722
2511  2023-11-01 14:08:25.132630
2512  2023-11-01 14:08:25.164510
2513  2023-11-01 14:08:25.196424
2514  2023-11-01 14:08:25.228339
2515  2023-11-01 14:08:25.260298
2516  2023-11-01 14:08:25.293206
2517  2023-11-01 14:08:25.324118
2518  2023-11-01 14:08:25.357032
2519  2023-11-01 14:08:25.388072
2520  2023-11-01 14:08:25.419987
2521  2023-11-01 14:08:25.452899
2522  2023-11-01 14:08:25.484816
2523  2023-11-01 14:08:25.532740
2524  2023-11-01 14:08:25.564682
2525  2023-11-01 14:08:25.596651
2526  2023-11-01 14:08:25.628566
2527  2023-11-01 14:08:25.660513
2528  2023-11-01 14:08:25.692395
2529  2023-11-01 14:08:25.724347
2530  2023-11-01 14:08:25.758253
2531  2023-11-01 14:08:25.788139
2532  2023-11-01 14:08:25.820053
2533  2023-11-01 14:08:25.854163
2534  2023-11-01 14:08:25.885929
2535  2023-11-01 14:08:25.933790
2536  2023-11-01 14:08:25.965779
2537  2023-11-01 14:08:25.997688
2538  2023-11-01 14:08:26.028622
2539  2023-11-01 14:08:26.061631
2540  2023-11-01 14:08:26.093541
2541  2023-11-01 14:08:26.125424
2542  2023-11-01 14:08:26.156369
2543  2023-11-01 14:08:26.189234
2544  2023-11-01 14:08:26.221191
2545  2023-11-01 14:08:26.253088
2546  2023-11-01 14:08:26.285009
2547  2023-11-01 14:08:26.333886
2548  2023-11-01 14:08:26.365809
2549  2023-11-01 14:08:26.397695
2550  2023-11-01 14:08:26.428639
2551  2023-11-01 14:08:26.461530
2552  2023-11-01 14:08:26.493469
2553  2023-11-01 14:08:26.525456
2554  2023-11-01 14:08:26.557342
2555  2023-11-01 14:08:26.589289
2556  2023-11-01 14:08:26.621209
2557  2023-11-01 14:08:26.653119
2558  2023-11-01 14:08:26.685150
2559  2023-11-01 14:08:26.733022
2560  2023-11-01 14:08:26.764898
2561  2023-11-01 14:08:26.796812
2562  2023-11-01 14:08:26.828759
2563  2023-11-01 14:08:26.861674
2564  2023-11-01 14:08:26.893601
2565  2023-11-01 14:08:26.925508
2566  2023-11-01 14:08:26.957413
2567  2023-11-01 14:08:26.988301
2568  2023-11-01 14:08:27.020215
2569  2023-11-01 14:08:27.053165
2570  2023-11-01 14:08:27.085100
2571  2023-11-01 14:08:27.132951
2572  2023-11-01 14:08:27.164863
2573  2023-11-01 14:08:27.196776
2574  2023-11-01 14:08:27.228690
2575  2023-11-01 14:08:27.261603
2576  2023-11-01 14:08:27.292520
2577  2023-11-01 14:08:27.325414
2578  2023-11-01 14:08:27.356363
2579  2023-11-01 14:08:27.388270
2580  2023-11-01 14:08:27.421152
2581  2023-11-01 14:08:27.453074
2582  2023-11-01 14:08:27.484009
2583  2023-11-01 14:08:27.532889
2584  2023-11-01 14:08:27.565764
2585  2023-11-01 14:08:27.596704
2586  2023-11-01 14:08:27.628728
2587  2023-11-01 14:08:27.660644
2588  2023-11-01 14:08:27.693557
2589  2023-11-01 14:08:27.724517
2590  2023-11-01 14:08:27.757492
2591  2023-11-01 14:08:27.789445
2592  2023-11-01 14:08:27.820352
2593  2023-11-01 14:08:27.852456
2594  2023-11-01 14:08:27.900309
2595  2023-11-01 14:08:27.932224
2596  2023-11-01 14:08:27.966189
2597  2023-11-01 14:08:27.997052
2598  2023-11-01 14:08:28.028965
2599  2023-11-01 14:08:28.060880
2600  2023-11-01 14:08:28.092795
2601  2023-11-01 14:08:28.124709
2602  2023-11-01 14:08:28.158693
2603  2023-11-01 14:08:28.189578
2604  2023-11-01 14:08:28.220493
2605  2023-11-01 14:08:28.252455
2606  2023-11-01 14:08:28.301305
2607  2023-11-01 14:08:28.333219
2608  2023-11-01 14:08:28.365155
2609  2023-11-01 14:08:28.397060
2610  2023-11-01 14:08:28.429987
2611  2023-11-01 14:08:28.460938
2612  2023-11-01 14:08:28.492813
2613  2023-11-01 14:08:28.525726
2614  2023-11-01 14:08:28.557672
2615  2023-11-01 14:08:28.588588
2616  2023-11-01 14:08:28.620510
2617  2023-11-01 14:08:28.652515
2618  2023-11-01 14:08:28.701421
2619  2023-11-01 14:08:28.732301
2620  2023-11-01 14:08:28.765247
2621  2023-11-01 14:08:28.797167
2622  2023-11-01 14:08:28.829077
2623  2023-11-01 14:08:28.860957
2624  2023-11-01 14:08:28.892877
2625  2023-11-01 14:08:28.924817
2626  2023-11-01 14:08:28.956735
2627  2023-11-01 14:08:28.988657
2628  2023-11-01 14:08:29.020640
2629  2023-11-01 14:08:29.052586
2630  2023-11-01 14:08:29.100459
2631  2023-11-01 14:08:29.132373
2632  2023-11-01 14:08:29.164257
2633  2023-11-01 14:08:29.196202
2634  2023-11-01 14:08:29.228117
2635  2023-11-01 14:08:29.261044
2636  2023-11-01 14:08:29.292913
2637  2023-11-01 14:08:29.324828
2638  2023-11-01 14:08:29.357773
2639  2023-11-01 14:08:29.388698
2640  2023-11-01 14:08:29.420603
2641  2023-11-01 14:08:29.452523
2642  2023-11-01 14:08:29.500490
2643  2023-11-01 14:08:29.532405
2644  2023-11-01 14:08:29.564328
2645  2023-11-01 14:08:29.597232
2646  2023-11-01 14:08:29.628147
2647  2023-11-01 14:08:29.661027
2648  2023-11-01 14:08:29.692975
2649  2023-11-01 14:08:29.724889
2650  2023-11-01 14:08:29.756803
2651  2023-11-01 14:08:29.788716
2652  2023-11-01 14:08:29.820638
2653  2023-11-01 14:08:29.852548
2654  2023-11-01 14:08:29.900401
2655  2023-11-01 14:08:29.932364
2656  2023-11-01 14:08:29.964247
2657  2023-11-01 14:08:29.996164
2658  2023-11-01 14:08:30.029044
2659  2023-11-01 14:08:30.060958
2660  2023-11-01 14:08:30.092907
2661  2023-11-01 14:08:30.124829
2662  2023-11-01 14:08:30.156736
2663  2023-11-01 14:08:30.188651
2664  2023-11-01 14:08:30.220565
2665  2023-11-01 14:08:30.252480
2666  2023-11-01 14:08:30.301353
2667  2023-11-01 14:08:30.332268
2668  2023-11-01 14:08:30.364184
2669  2023-11-01 14:08:30.397097
2670  2023-11-01 14:08:30.429026
2671  2023-11-01 14:08:30.460925
2672  2023-11-01 14:08:30.492864
2673  2023-11-01 14:08:30.524719
2674  2023-11-01 14:08:30.556649
2675  2023-11-01 14:08:30.588645
2676  2023-11-01 14:08:30.620553
2677  2023-11-01 14:08:30.652437
2678  2023-11-01 14:08:30.701356
2679  2023-11-01 14:08:30.732272
2680  2023-11-01 14:08:30.764183
2681  2023-11-01 14:08:30.797078
2682  2023-11-01 14:08:30.828994
2683  2023-11-01 14:08:30.860878
2684  2023-11-01 14:08:30.892793
2685  2023-11-01 14:08:30.924708
2686  2023-11-01 14:08:30.956627
2687  2023-11-01 14:08:30.988540
2688  2023-11-01 14:08:31.020452
2689  2023-11-01 14:08:31.052366
2690  2023-11-01 14:08:31.100286
2691  2023-11-01 14:08:31.133183
2692  2023-11-01 14:08:31.164112
2693  2023-11-01 14:08:31.197068
2694  2023-11-01 14:08:31.229011
2695  2023-11-01 14:08:31.260931
2696  2023-11-01 14:08:31.292906
2697  2023-11-01 14:08:31.324830
2698  2023-11-01 14:08:31.356727
2699  2023-11-01 14:08:31.388641
2700  2023-11-01 14:08:31.420553
2701  2023-11-01 14:08:31.468428
2702  2023-11-01 14:08:31.500357
2703  2023-11-01 14:08:31.532268
2704  2023-11-01 14:08:31.564199
2705  2023-11-01 14:08:31.597079
2706  2023-11-01 14:08:31.628997
2707  2023-11-01 14:08:31.660911
2708  2023-11-01 14:08:31.692830
2709  2023-11-01 14:08:31.724833
2710  2023-11-01 14:08:31.756726
2711  2023-11-01 14:08:31.788656
2712  2023-11-01 14:08:31.820555
2713  2023-11-01 14:08:31.868392
2714  2023-11-01 14:08:31.900342
2715  2023-11-01 14:08:31.933258
2716  2023-11-01 14:08:31.964177
2717  2023-11-01 14:08:31.997082
2718  2023-11-01 14:08:32.028963
2719  2023-11-01 14:08:32.060911
2720  2023-11-01 14:08:32.092829
2721  2023-11-01 14:08:32.124741
2722  2023-11-01 14:08:32.156624
2723  2023-11-01 14:08:32.188572
2724  2023-11-01 14:08:32.220481
2725  2023-11-01 14:08:32.268324
2726  2023-11-01 14:08:32.301236
2727  2023-11-01 14:08:32.332191
2728  2023-11-01 14:08:32.365067
2729  2023-11-01 14:08:32.397006
2730  2023-11-01 14:08:32.428903
2731  2023-11-01 14:08:32.460864
2732  2023-11-01 14:08:32.492724
2733  2023-11-01 14:08:32.524795
2734  2023-11-01 14:08:32.556688
2735  2023-11-01 14:08:32.588637
2736  2023-11-01 14:08:32.620548
2737  2023-11-01 14:08:32.668389
2738  2023-11-01 14:08:32.700358
2739  2023-11-01 14:08:32.732256
2740  2023-11-01 14:08:32.764173
2741  2023-11-01 14:08:32.797081
2742  2023-11-01 14:08:32.828975
2743  2023-11-01 14:08:32.860877
2744  2023-11-01 14:08:32.892835
2745  2023-11-01 14:08:32.924737
2746  2023-11-01 14:08:32.956652
2747  2023-11-01 14:08:32.988566
2748  2023-11-01 14:08:33.020481
2749  2023-11-01 14:08:33.068372
2750  2023-11-01 14:08:33.100396
2751  2023-11-01 14:08:33.132795
2752  2023-11-01 14:08:33.164692
2753  2023-11-01 14:08:33.196607
2754  2023-11-01 14:08:33.228552
2755  2023-11-01 14:08:33.260499
2756  2023-11-01 14:08:33.292412
2757  2023-11-01 14:08:33.324350
2758  2023-11-01 14:08:33.356210
2759  2023-11-01 14:08:33.388171
2760  2023-11-01 14:08:33.420069
2761  2023-11-01 14:08:33.468940
2762  2023-11-01 14:08:33.500868
2763  2023-11-01 14:08:33.532771
2764  2023-11-01 14:08:33.564686
2765  2023-11-01 14:08:33.596568
2766  2023-11-01 14:08:33.628517
2767  2023-11-01 14:08:33.660431
2768  2023-11-01 14:08:33.692345
2769  2023-11-01 14:08:33.725258
2770  2023-11-01 14:08:33.757172
2771  2023-11-01 14:08:33.788102
2772  2023-11-01 14:08:33.821000
2773  2023-11-01 14:08:33.868842
2774  2023-11-01 14:08:33.900754
2775  2023-11-01 14:08:33.932703
2776  2023-11-01 14:08:33.964616
2777  2023-11-01 14:08:33.996532
2778  2023-11-01 14:08:34.028448
2779  2023-11-01 14:08:34.060360
2780  2023-11-01 14:08:34.093273
2781  2023-11-01 14:08:34.124249
2782  2023-11-01 14:08:34.156162
2783  2023-11-01 14:08:34.188045
2784  2023-11-01 14:08:34.220995
2785  2023-11-01 14:08:34.268881
2786  2023-11-01 14:08:34.300806
2787  2023-11-01 14:08:34.332694
2788  2023-11-01 14:08:34.364578
2789  2023-11-01 14:08:34.396488
2790  2023-11-01 14:08:34.428436
2791  2023-11-01 14:08:34.460368
2792  2023-11-01 14:08:34.492364
2793  2023-11-01 14:08:34.524278
2794  2023-11-01 14:08:34.556276
2795  2023-11-01 14:08:34.588225
2796  2023-11-01 14:08:34.620136
2797  2023-11-01 14:08:34.668974
2798  2023-11-01 14:08:34.700941
2799  2023-11-01 14:08:34.732838
2800  2023-11-01 14:08:34.764745
2801  2023-11-01 14:08:34.796766
2802  2023-11-01 14:08:34.828755
2803  2023-11-01 14:08:34.860666
2804  2023-11-01 14:08:34.892584
2805  2023-11-01 14:08:34.924361
2806  2023-11-01 14:08:34.956380
2807  2023-11-01 14:08:34.988280
2808  2023-11-01 14:08:35.020215
2809  2023-11-01 14:08:35.068178
2810  2023-11-01 14:08:35.100143
2811  2023-11-01 14:08:35.133038
2812  2023-11-01 14:08:35.164952
2813  2023-11-01 14:08:35.196867
2814  2023-11-01 14:08:35.228781
2815  2023-11-01 14:08:35.260666
2816  2023-11-01 14:08:35.292614
2817  2023-11-01 14:08:35.324492
2818  2023-11-01 14:08:35.357440
2819  2023-11-01 14:08:35.388322
2820  2023-11-01 14:08:35.436227
2821  2023-11-01 14:08:35.469020
2822  2023-11-01 14:08:35.501010
2823  2023-11-01 14:08:35.532926
2824  2023-11-01 14:08:35.564843
2825  2023-11-01 14:08:35.596755
2826  2023-11-01 14:08:35.628669
2827  2023-11-01 14:08:35.660582
2828  2023-11-01 14:08:35.692466
2829  2023-11-01 14:08:35.724414
2830  2023-11-01 14:08:35.756299
2831  2023-11-01 14:08:35.788257
2832  2023-11-01 14:08:35.836232
2833  2023-11-01 14:08:35.868146
2834  2023-11-01 14:08:35.901073
2835  2023-11-01 14:08:35.932934
2836  2023-11-01 14:08:35.964902
2837  2023-11-01 14:08:35.996795
2838  2023-11-01 14:08:36.028718
2839  2023-11-01 14:08:36.060592
2840  2023-11-01 14:08:36.092537
2841  2023-11-01 14:08:36.124431
2842  2023-11-01 14:08:36.156369
2843  2023-11-01 14:08:36.188250
2844  2023-11-01 14:08:36.236178
2845  2023-11-01 14:08:36.268207
2846  2023-11-01 14:08:36.300085
2847  2023-11-01 14:08:36.333030
2848  2023-11-01 14:08:36.364928
2849  2023-11-01 14:08:36.396827
2850  2023-11-01 14:08:36.428741
2851  2023-11-01 14:08:36.460655
2852  2023-11-01 14:08:36.492595
2853  2023-11-01 14:08:36.524485
2854  2023-11-01 14:08:36.556433
2855  2023-11-01 14:08:36.588314
2856  2023-11-01 14:08:36.637211
2857  2023-11-01 14:08:36.668161
2858  2023-11-01 14:08:36.701046
2859  2023-11-01 14:08:36.732960
2860  2023-11-01 14:08:36.764882
2861  2023-11-01 14:08:36.796790
2862  2023-11-01 14:08:36.828723
2863  2023-11-01 14:08:36.860620
2864  2023-11-01 14:08:36.892627
2865  2023-11-01 14:08:36.924510
2866  2023-11-01 14:08:36.956392
2867  2023-11-01 14:08:36.988301
2868  2023-11-01 14:08:37.036330
2869  2023-11-01 14:08:37.068315
2870  2023-11-01 14:08:37.100189
2871  2023-11-01 14:08:37.133105
2872  2023-11-01 14:08:37.165018
2873  2023-11-01 14:08:37.196934
2874  2023-11-01 14:08:37.228857
2875  2023-11-01 14:08:37.260729
2876  2023-11-01 14:08:37.292684
2877  2023-11-01 14:08:37.324628
2878  2023-11-01 14:08:37.356513
2879  2023-11-01 14:08:37.388466
2880  2023-11-01 14:08:37.436299
2881  2023-11-01 14:08:37.468215
2882  2023-11-01 14:08:37.500129
2883  2023-11-01 14:08:37.532134
2884  2023-11-01 14:08:37.565014
2885  2023-11-01 14:08:37.595969
2886  2023-11-01 14:08:37.628844
2887  2023-11-01 14:08:37.660758
2888  2023-11-01 14:08:37.692704
2889  2023-11-01 14:08:37.724620
2890  2023-11-01 14:08:37.756613
2891  2023-11-01 14:08:37.788540
2892  2023-11-01 14:08:37.836372
2893  2023-11-01 14:08:37.868313
2894  2023-11-01 14:08:37.900211
2895  2023-11-01 14:08:37.932154
2896  2023-11-01 14:08:37.965055
2897  2023-11-01 14:08:37.996937
2898  2023-11-01 14:08:38.028852
2899  2023-11-01 14:08:38.060801
2900  2023-11-01 14:08:38.092682
2901  2023-11-01 14:08:38.124597
2902  2023-11-01 14:08:38.156546
2903  2023-11-01 14:08:38.188425
2904  2023-11-01 14:08:38.237295
2905  2023-11-01 14:08:38.269243
2906  2023-11-01 14:08:38.300127
2907  2023-11-01 14:08:38.333043
2908  2023-11-01 14:08:38.364955
2909  2023-11-01 14:08:38.396875
2910  2023-11-01 14:08:38.428784
2911  2023-11-01 14:08:38.460697
2912  2023-11-01 14:08:38.492644
2913  2023-11-01 14:08:38.524560
2914  2023-11-01 14:08:38.556443
2915  2023-11-01 14:08:38.588356
2916  2023-11-01 14:08:38.636282
2917  2023-11-01 14:08:38.668181
2918  2023-11-01 14:08:38.701089
2919  2023-11-01 14:08:38.733014
2920  2023-11-01 14:08:38.764932
2921  2023-11-01 14:08:38.796831
2922  2023-11-01 14:08:38.828746
2923  2023-11-01 14:08:38.860670
2924  2023-11-01 14:08:38.892543
2925  2023-11-01 14:08:38.924563
2926  2023-11-01 14:08:38.956491
2927  2023-11-01 14:08:38.988428
2928  2023-11-01 14:08:39.036315
2929  2023-11-01 14:08:39.068220
2930  2023-11-01 14:08:39.101098
2931  2023-11-01 14:08:39.132014
2932  2023-11-01 14:08:39.164955
2933  2023-11-01 14:08:39.196889
2934  2023-11-01 14:08:39.228785
2935  2023-11-01 14:08:39.260703
2936  2023-11-01 14:08:39.292612
2937  2023-11-01 14:08:39.324496
2938  2023-11-01 14:08:39.356440
2939  2023-11-01 14:08:39.404332
2940  2023-11-01 14:08:39.436229
2941  2023-11-01 14:08:39.468143
2942  2023-11-01 14:08:39.501023
2943  2023-11-01 14:08:39.532937
2944  2023-11-01 14:08:39.564887
2945  2023-11-01 14:08:39.596801
2946  2023-11-01 14:08:39.628681
2947  2023-11-01 14:08:39.660627
2948  2023-11-01 14:08:39.692510
2949  2023-11-01 14:08:39.724625
2950  2023-11-01 14:08:39.756502
2951  2023-11-01 14:08:39.804404
2952  2023-11-01 14:08:39.836292
2953  2023-11-01 14:08:39.868247
2954  2023-11-01 14:08:39.901124
2955  2023-11-01 14:08:39.933030
2956  2023-11-01 14:08:39.964981
2957  2023-11-01 14:08:39.996894
2958  2023-11-01 14:08:40.028948
2959  2023-11-01 14:08:40.060689
2960  2023-11-01 14:08:40.092604
2961  2023-11-01 14:08:40.124519
2962  2023-11-01 14:08:40.156439
2963  2023-11-01 14:08:40.204339
2964  2023-11-01 14:08:40.236299
2965  2023-11-01 14:08:40.268334
2966  2023-11-01 14:08:40.300244
2967  2023-11-01 14:08:40.332162
2968  2023-11-01 14:08:40.364112
2969  2023-11-01 14:08:40.396956
2970  2023-11-01 14:08:40.428867
2971  2023-11-01 14:08:40.460816
2972  2023-11-01 14:08:40.492698
2973  2023-11-01 14:08:40.524645
2974  2023-11-01 14:08:40.556557
2975  2023-11-01 14:08:40.604399
2976  2023-11-01 14:08:40.636319
2977  2023-11-01 14:08:40.668227
2978  2023-11-01 14:08:40.701139
2979  2023-11-01 14:08:40.733086
2980  2023-11-01 14:08:40.764969
2981  2023-11-01 14:08:40.796883
2982  2023-11-01 14:08:40.828830
2983  2023-11-01 14:08:40.860715
2984  2023-11-01 14:08:40.892627
2985  2023-11-01 14:08:40.924543
2986  2023-11-01 14:08:40.956457
2987  2023-11-01 14:08:41.004328
2988  2023-11-01 14:08:41.036263
2989  2023-11-01 14:08:41.068158
2990  2023-11-01 14:08:41.101101
2991  2023-11-01 14:08:41.133017
2992  2023-11-01 14:08:41.164905
2993  2023-11-01 14:08:41.196846
2994  2023-11-01 14:08:41.228728
2995  2023-11-01 14:08:41.260644
2996  2023-11-01 14:08:41.292563
2997  2023-11-01 14:08:41.324474
2998  2023-11-01 14:08:41.356599
2999  2023-11-01 14:08:41.404471
3000  2023-11-01 14:08:41.437397
3001  2023-11-01 14:08:41.468334
3002  2023-11-01 14:08:41.500259
3003  2023-11-01 14:08:41.532130
3004  2023-11-01 14:08:41.565042
3005  2023-11-01 14:08:41.596956
3006  2023-11-01 14:08:41.628872
3007  2023-11-01 14:08:41.660819
3008  2023-11-01 14:08:41.692747
3009  2023-11-01 14:08:41.724616
3010  2023-11-01 14:08:41.756529
3011  2023-11-01 14:08:41.804402
3012  2023-11-01 14:08:41.836316
3013  2023-11-01 14:08:41.868262
3014  2023-11-01 14:08:41.901156
3015  2023-11-01 14:08:41.933058
3016  2023-11-01 14:08:41.964972
3017  2023-11-01 14:08:41.996919
3018  2023-11-01 14:08:42.028803
3019  2023-11-01 14:08:42.060853
3020  2023-11-01 14:08:42.092802
3021  2023-11-01 14:08:42.124682
3022  2023-11-01 14:08:42.156597
3023  2023-11-01 14:08:42.204514
3024  2023-11-01 14:08:42.236384
3025  2023-11-01 14:08:42.268297
3026  2023-11-01 14:08:42.300212
3027  2023-11-01 14:08:42.333183
3028  2023-11-01 14:08:42.365039
3029  2023-11-01 14:08:42.396954
3030  2023-11-01 14:08:42.428901
3031  2023-11-01 14:08:42.460783
3032  2023-11-01 14:08:42.492733
3033  2023-11-01 14:08:42.524645
3034  2023-11-01 14:08:42.556570
3035  2023-11-01 14:08:42.604405
3036  2023-11-01 14:08:42.636352
3037  2023-11-01 14:08:42.668235
3038  2023-11-01 14:08:42.700162
3039  2023-11-01 14:08:42.733045
3040  2023-11-01 14:08:42.765090
3041  2023-11-01 14:08:42.797041
3042  2023-11-01 14:08:42.828957
3043  2023-11-01 14:08:42.860895
3044  2023-11-01 14:08:42.892749
3045  2023-11-01 14:08:42.924664
3046  2023-11-01 14:08:42.972535
3047  2023-11-01 14:08:43.004450
3048  2023-11-01 14:08:43.036372
3049  2023-11-01 14:08:43.068279
3050  2023-11-01 14:08:43.100235
3051  2023-11-01 14:08:43.133070
3052  2023-11-01 14:08:43.164978
3053  2023-11-01 14:08:43.196892
3054  2023-11-01 14:08:43.228807
3055  2023-11-01 14:08:43.260752
3056  2023-11-01 14:08:43.292670
3057  2023-11-01 14:08:43.324551
3058  2023-11-01 14:08:43.372422
3059  2023-11-01 14:08:43.404338
3060  2023-11-01 14:08:43.436289
3061  2023-11-01 14:08:43.470194
3062  2023-11-01 14:08:43.502124
3063  2023-11-01 14:08:43.532995
3064  2023-11-01 14:08:43.565938
3065  2023-11-01 14:08:43.597856
3066  2023-11-01 14:08:43.629782
3067  2023-11-01 14:08:43.660700
3068  2023-11-01 14:08:43.692582
3069  2023-11-01 14:08:43.725511
3070  2023-11-01 14:08:43.772466
3071  2023-11-01 14:08:43.805413
3072  2023-11-01 14:08:43.838362
3073  2023-11-01 14:08:43.868405
3074  2023-11-01 14:08:43.901302
3075  2023-11-01 14:08:43.933212
3076  2023-11-01 14:08:43.966095
3077  2023-11-01 14:08:43.998057
3078  2023-11-01 14:08:44.029953
3079  2023-11-01 14:08:44.061890
3080  2023-11-01 14:08:44.093791
3081  2023-11-01 14:08:44.125700
3082  2023-11-01 14:08:44.173679
3083  2023-11-01 14:08:44.205565
3084  2023-11-01 14:08:44.238514
3085  2023-11-01 14:08:44.269434
3086  2023-11-01 14:08:44.302348
3087  2023-11-01 14:08:44.333240
3088  2023-11-01 14:08:44.366150
3089  2023-11-01 14:08:44.398107
3090  2023-11-01 14:08:44.430054
3091  2023-11-01 14:08:44.461978
3092  2023-11-01 14:08:44.493894
3093  2023-11-01 14:08:44.525802
3094  2023-11-01 14:08:44.572676
3095  2023-11-01 14:08:44.605583
3096  2023-11-01 14:08:44.637751
3097  2023-11-01 14:08:44.669742
3098  2023-11-01 14:08:44.701681
3099  2023-11-01 14:08:44.733572
3100  2023-11-01 14:08:44.765501
3101  2023-11-01 14:08:44.797404
3102  2023-11-01 14:08:44.829306
3103  2023-11-01 14:08:44.861252
3104  2023-11-01 14:08:44.893147
3105  2023-11-01 14:08:44.925204
3106  2023-11-01 14:08:44.973077
3107  2023-11-01 14:08:45.005003
3108  2023-11-01 14:08:45.036914
3109  2023-11-01 14:08:45.069784
3110  2023-11-01 14:08:45.101729
3111  2023-11-01 14:08:45.133615
3112  2023-11-01 14:08:45.164562
3113  2023-11-01 14:08:45.196469
3114  2023-11-01 14:08:45.228391
3115  2023-11-01 14:08:45.260305
3116  2023-11-01 14:08:45.292220
3117  2023-11-01 14:08:45.325133
3118  2023-11-01 14:08:45.373001
3119  2023-11-01 14:08:45.404923
3120  2023-11-01 14:08:45.436831
3121  2023-11-01 14:08:45.468751
3122  2023-11-01 14:08:45.500666
3123  2023-11-01 14:08:45.532571
3124  2023-11-01 14:08:45.566456
3125  2023-11-01 14:08:45.597373
3126  2023-11-01 14:08:45.629288
3127  2023-11-01 14:08:45.661202
3128  2023-11-01 14:08:45.693118
3129  2023-11-01 14:08:45.726074
3130  2023-11-01 14:08:45.772926
3131  2023-11-01 14:08:45.805846
3132  2023-11-01 14:08:45.836733
3133  2023-11-01 14:08:45.869679
3134  2023-11-01 14:08:45.900562
3135  2023-11-01 14:08:45.932485
3136  2023-11-01 14:08:45.965434
3137  2023-11-01 14:08:45.998418
3138  2023-11-01 14:08:46.028348
3139  2023-11-01 14:08:46.061279
3140  2023-11-01 14:08:46.092167
3141  2023-11-01 14:08:46.126111
3142  2023-11-01 14:08:46.171988
3143  2023-11-01 14:08:46.205903
3144  2023-11-01 14:08:46.236781
3145  2023-11-01 14:08:46.269725
3146  2023-11-01 14:08:46.300609
3147  2023-11-01 14:08:46.332574
3148  2023-11-01 14:08:46.364438
3149  2023-11-01 14:08:46.396388
3150  2023-11-01 14:08:46.430308
3151  2023-11-01 14:08:46.460182
3152  2023-11-01 14:08:46.493096
3153  2023-11-01 14:08:46.527006
3154  2023-11-01 14:08:46.572912
3155  2023-11-01 14:08:46.604797
3156  2023-11-01 14:08:46.637761
3157  2023-11-01 14:08:46.668656
3158  2023-11-01 14:08:46.701538
3159  2023-11-01 14:08:46.732455
3160  2023-11-01 14:08:46.765400
3161  2023-11-01 14:08:46.797322
3162  2023-11-01 14:08:46.829249
3163  2023-11-01 14:08:46.861150
3164  2023-11-01 14:08:46.893057
3165  2023-11-01 14:08:46.940949
3166  2023-11-01 14:08:46.971852
3167  2023-11-01 14:08:47.004728
3168  2023-11-01 14:08:47.037688
3169  2023-11-01 14:08:47.068582
3170  2023-11-01 14:08:47.100507
3171  2023-11-01 14:08:47.132457
3172  2023-11-01 14:08:47.164347
3173  2023-11-01 14:08:47.198212
3174  2023-11-01 14:08:47.230125
3175  2023-11-01 14:08:47.260071
3176  2023-11-01 14:08:47.292995
3177  2023-11-01 14:08:47.340879
3178  2023-11-01 14:08:47.372776
3179  2023-11-01 14:08:47.404690
3180  2023-11-01 14:08:47.436605
3181  2023-11-01 14:08:47.468522
3182  2023-11-01 14:08:47.500440
3183  2023-11-01 14:08:47.532374
3184  2023-11-01 14:08:47.564306
3185  2023-11-01 14:08:47.596180
3186  2023-11-01 14:08:47.628098
3187  2023-11-01 14:08:47.660973
3188  2023-11-01 14:08:47.692922
3189  2023-11-01 14:08:47.740760
3190  2023-11-01 14:08:47.772684
3191  2023-11-01 14:08:47.804590
3192  2023-11-01 14:08:47.836504
3193  2023-11-01 14:08:47.868456
3194  2023-11-01 14:08:47.900333
3195  2023-11-01 14:08:47.932277
3196  2023-11-01 14:08:47.964213
3197  2023-11-01 14:08:47.997106
3198  2023-11-01 14:08:48.029023
3199  2023-11-01 14:08:48.060906
3200  2023-11-01 14:08:48.092857
3201  2023-11-01 14:08:48.140691
3202  2023-11-01 14:08:48.172605
3203  2023-11-01 14:08:48.204520
3204  2023-11-01 14:08:48.237437
3205  2023-11-01 14:08:48.268410
3206  2023-11-01 14:08:48.300305
3207  2023-11-01 14:08:48.332222
3208  2023-11-01 14:08:48.364135
3209  2023-11-01 14:08:48.397096
3210  2023-11-01 14:08:48.429031
3211  2023-11-01 14:08:48.461062
3212  2023-11-01 14:08:48.492977
3213  2023-11-01 14:08:48.540868
3214  2023-11-01 14:08:48.571897
3215  2023-11-01 14:08:48.604830
3216  2023-11-01 14:08:48.636689
3217  2023-11-01 14:08:48.668603
3218  2023-11-01 14:08:48.700519
3219  2023-11-01 14:08:48.732466
3220  2023-11-01 14:08:48.764390
3221  2023-11-01 14:08:48.796303
3222  2023-11-01 14:08:48.828209
3223  2023-11-01 14:08:48.861136
3224  2023-11-01 14:08:48.892041
3225  2023-11-01 14:08:48.940932
3226  2023-11-01 14:08:48.972824
3227  2023-11-01 14:08:49.004738
3228  2023-11-01 14:08:49.036662
3229  2023-11-01 14:08:49.068578
3230  2023-11-01 14:08:49.100488
3231  2023-11-01 14:08:49.132423
3232  2023-11-01 14:08:49.164279
3233  2023-11-01 14:08:49.196236
3234  2023-11-01 14:08:49.228142
3235  2023-11-01 14:08:49.261020
3236  2023-11-01 14:08:49.292935
3237  2023-11-01 14:08:49.340840
3238  2023-11-01 14:08:49.372756
3239  2023-11-01 14:08:49.404670
3240  2023-11-01 14:08:49.436551
3241  2023-11-01 14:08:49.468496
3242  2023-11-01 14:08:49.500397
3243  2023-11-01 14:08:49.533292
3244  2023-11-01 14:08:49.565239
3245  2023-11-01 14:08:49.596177
3246  2023-11-01 14:08:49.629076
3247  2023-11-01 14:08:49.660952
3248  2023-11-01 14:08:49.692865
3249  2023-11-01 14:08:49.740737
3250  2023-11-01 14:08:49.772682
3251  2023-11-01 14:08:49.804598
3252  2023-11-01 14:08:49.836495
3253  2023-11-01 14:08:49.868426
3254  2023-11-01 14:08:49.900388
3255  2023-11-01 14:08:49.932352
3256  2023-11-01 14:08:49.965262
3257  2023-11-01 14:08:49.996167
3258  2023-11-01 14:08:50.029078
3259  2023-11-01 14:08:50.060989
3260  2023-11-01 14:08:50.092905
3261  2023-11-01 14:08:50.140778
3262  2023-11-01 14:08:50.172691
3263  2023-11-01 14:08:50.204573
3264  2023-11-01 14:08:50.236523
3265  2023-11-01 14:08:50.268401
3266  2023-11-01 14:08:50.300351
3267  2023-11-01 14:08:50.332232
3268  2023-11-01 14:08:50.364184
3269  2023-11-01 14:08:50.396095
3270  2023-11-01 14:08:50.428973
3271  2023-11-01 14:08:50.460928
3272  2023-11-01 14:08:50.508800
3273  2023-11-01 14:08:50.540707
3274  2023-11-01 14:08:50.572619
3275  2023-11-01 14:08:50.604503
3276  2023-11-01 14:08:50.636418
3277  2023-11-01 14:08:50.668342
3278  2023-11-01 14:08:50.700280
3279  2023-11-01 14:08:50.732192
3280  2023-11-01 14:08:50.764083
3281  2023-11-01 14:08:50.796989
3282  2023-11-01 14:08:50.828945
3283  2023-11-01 14:08:50.860852
3284  2023-11-01 14:08:50.908718
3285  2023-11-01 14:08:50.940697
3286  2023-11-01 14:08:50.972615
3287  2023-11-01 14:08:51.004529
3288  2023-11-01 14:08:51.036461
3289  2023-11-01 14:08:51.068324
3290  2023-11-01 14:08:51.100240
3291  2023-11-01 14:08:51.132185
3292  2023-11-01 14:08:51.165122
3293  2023-11-01 14:08:51.196981
3294  2023-11-01 14:08:51.228927
3295  2023-11-01 14:08:51.260809
3296  2023-11-01 14:08:51.308714
3297  2023-11-01 14:08:51.340628
3298  2023-11-01 14:08:51.372546
3299  2023-11-01 14:08:51.404461
3300  2023-11-01 14:08:51.436340
3301  2023-11-01 14:08:51.468299
3302  2023-11-01 14:08:51.500345
3303  2023-11-01 14:08:51.533213
3304  2023-11-01 14:08:51.564171
3305  2023-11-01 14:08:51.597081
3306  2023-11-01 14:08:51.628957
3307  2023-11-01 14:08:51.660871
3308  2023-11-01 14:08:51.708742
3309  2023-11-01 14:08:51.740657
3310  2023-11-01 14:08:51.772607
3311  2023-11-01 14:08:51.804521
3312  2023-11-01 14:08:51.836426
3313  2023-11-01 14:08:51.868317
3314  2023-11-01 14:08:51.900277
3315  2023-11-01 14:08:51.933179
3316  2023-11-01 14:08:51.964223
3317  2023-11-01 14:08:51.996170
3318  2023-11-01 14:08:52.028129
3319  2023-11-01 14:08:52.061040
3320  2023-11-01 14:08:52.107919
3321  2023-11-01 14:08:52.140842
3322  2023-11-01 14:08:52.172742
3323  2023-11-01 14:08:52.204658
3324  2023-11-01 14:08:52.236573
3325  2023-11-01 14:08:52.268488
3326  2023-11-01 14:08:52.300408
3327  2023-11-01 14:08:52.332317
3328  2023-11-01 14:08:52.364231
3329  2023-11-01 14:08:52.396212
3330  2023-11-01 14:08:52.429156
3331  2023-11-01 14:08:52.460072
3332  2023-11-01 14:08:52.507943
3333  2023-11-01 14:08:52.539858
3334  2023-11-01 14:08:52.572781
3335  2023-11-01 14:08:52.604655
3336  2023-11-01 14:08:52.636580
3337  2023-11-01 14:08:52.668484
3338  2023-11-01 14:08:52.700399
3339  2023-11-01 14:08:52.732314
3340  2023-11-01 14:08:52.764231
3341  2023-11-01 14:08:52.797140
3342  2023-11-01 14:08:52.829065
3343  2023-11-01 14:08:52.861003
3344  2023-11-01 14:08:52.908006
3345  2023-11-01 14:08:52.940950
3346  2023-11-01 14:08:52.972936
3347  2023-11-01 14:08:53.004854
3348  2023-11-01 14:08:53.036768
3349  2023-11-01 14:08:53.068690
3350  2023-11-01 14:08:53.100607
3351  2023-11-01 14:08:53.132507
3352  2023-11-01 14:08:53.164423
3353  2023-11-01 14:08:53.196308
3354  2023-11-01 14:08:53.228221
3355  2023-11-01 14:08:53.260169
3356  2023-11-01 14:08:53.308042
3357  2023-11-01 14:08:53.339961
3358  2023-11-01 14:08:53.372870
3359  2023-11-01 14:08:53.404803
3360  2023-11-01 14:08:53.436715
3361  2023-11-01 14:08:53.468580
3362  2023-11-01 14:08:53.500494
3363  2023-11-01 14:08:53.532463
3364  2023-11-01 14:08:53.565353
3365  2023-11-01 14:08:53.597235
3366  2023-11-01 14:08:53.628184
3367  2023-11-01 14:08:53.661098
3368  2023-11-01 14:08:53.708014
3369  2023-11-01 14:08:53.740926
3370  2023-11-01 14:08:53.771881
3371  2023-11-01 14:08:53.804792
3372  2023-11-01 14:08:53.836705
3373  2023-11-01 14:08:53.868586
3374  2023-11-01 14:08:53.900543
3375  2023-11-01 14:08:53.932592
3376  2023-11-01 14:08:53.964363
3377  2023-11-01 14:08:53.997273
3378  2023-11-01 14:08:54.028237
3379  2023-11-01 14:08:54.061072
3380  2023-11-01 14:08:54.109002
3381  2023-11-01 14:08:54.140857
3382  2023-11-01 14:08:54.172805
3383  2023-11-01 14:08:54.204719
3384  2023-11-01 14:08:54.236604
3385  2023-11-01 14:08:54.268516
3386  2023-11-01 14:08:54.300465
3387  2023-11-01 14:08:54.332347
3388  2023-11-01 14:08:54.364290
3389  2023-11-01 14:08:54.397173
3390  2023-11-01 14:08:54.429088
3391  2023-11-01 14:08:54.475997
3392  2023-11-01 14:08:54.508873
3393  2023-11-01 14:08:54.540787
3394  2023-11-01 14:08:54.572737
3395  2023-11-01 14:08:54.604690
3396  2023-11-01 14:08:54.636663
3397  2023-11-01 14:08:54.668576
3398  2023-11-01 14:08:54.700496
3399  2023-11-01 14:08:54.732445
3400  2023-11-01 14:08:54.764354
3401  2023-11-01 14:08:54.796290
3402  2023-11-01 14:08:54.828183
3403  2023-11-01 14:08:54.876025
3404  2023-11-01 14:08:54.908934
3405  2023-11-01 14:08:54.940847
3406  2023-11-01 14:08:54.972762
3407  2023-11-01 14:08:55.004710
3408  2023-11-01 14:08:55.036594
3409  2023-11-01 14:08:55.068506
3410  2023-11-01 14:08:55.100421
3411  2023-11-01 14:08:55.132377
3412  2023-11-01 14:08:55.164285
3413  2023-11-01 14:08:55.196224
3414  2023-11-01 14:08:55.228235
3415  2023-11-01 14:08:55.276114
3416  2023-11-01 14:08:55.308984
3417  2023-11-01 14:08:55.339997
3418  2023-11-01 14:08:55.372865
3419  2023-11-01 14:08:55.404785
3420  2023-11-01 14:08:55.436778
3421  2023-11-01 14:08:55.468692
3422  2023-11-01 14:08:55.500607
3423  2023-11-01 14:08:55.532608
3424  2023-11-01 14:08:55.564522
3425  2023-11-01 14:08:55.596867
3426  2023-11-01 14:08:55.628850
3427  2023-11-01 14:08:55.676690
3428  2023-11-01 14:08:55.708604
3429  2023-11-01 14:08:55.740550
3430  2023-11-01 14:08:55.772434
3431  2023-11-01 14:08:55.804380
3432  2023-11-01 14:08:55.837262
3433  2023-11-01 14:08:55.868212
3434  2023-11-01 14:08:55.901090
3435  2023-11-01 14:08:55.932313
3436  2023-11-01 14:08:55.964246
3437  2023-11-01 14:08:55.996157
3438  2023-11-01 14:08:56.029023
3439  2023-11-01 14:08:56.076894
3440  2023-11-01 14:08:56.108808
3441  2023-11-01 14:08:56.140723
3442  2023-11-01 14:08:56.172638
3443  2023-11-01 14:08:56.204587
3444  2023-11-01 14:08:56.236508
3445  2023-11-01 14:08:56.268385
3446  2023-11-01 14:08:56.301294
3447  2023-11-01 14:08:56.332212
3448  2023-11-01 14:08:56.365124
3449  2023-11-01 14:08:56.397099
3450  2023-11-01 14:08:56.428988
3451  2023-11-01 14:08:56.476825
3452  2023-11-01 14:08:56.508740
3453  2023-11-01 14:08:56.540654
3454  2023-11-01 14:08:56.572569
3455  2023-11-01 14:08:56.604485
3456  2023-11-01 14:08:56.636399
3457  2023-11-01 14:08:56.668312
3458  2023-11-01 14:08:56.700229
3459  2023-11-01 14:08:56.733181
3460  2023-11-01 14:08:56.765088
3461  2023-11-01 14:08:56.796969
3462  2023-11-01 14:08:56.828956
3463  2023-11-01 14:08:56.876862
3464  2023-11-01 14:08:56.908816
3465  2023-11-01 14:08:56.940746
3466  2023-11-01 14:08:56.972705
3467  2023-11-01 14:08:57.004654
3468  2023-11-01 14:08:57.036536
3469  2023-11-01 14:08:57.068452
3470  2023-11-01 14:08:57.100400
3471  2023-11-01 14:08:57.132282
3472  2023-11-01 14:08:57.164225
3473  2023-11-01 14:08:57.197141
3474  2023-11-01 14:08:57.229020
3475  2023-11-01 14:08:57.276006
3476  2023-11-01 14:08:57.307980
3477  2023-11-01 14:08:57.340892
3478  2023-11-01 14:08:57.372807
3479  2023-11-01 14:08:57.404754
3480  2023-11-01 14:08:57.436682
3481  2023-11-01 14:08:57.468604
3482  2023-11-01 14:08:57.500466
3483  2023-11-01 14:08:57.532428
3484  2023-11-01 14:08:57.564343
3485  2023-11-01 14:08:57.596258
3486  2023-11-01 14:08:57.628359
3487  2023-11-01 14:08:57.676253
3488  2023-11-01 14:08:57.708200
3489  2023-11-01 14:08:57.740163
3490  2023-11-01 14:08:57.772077
3491  2023-11-01 14:08:57.804992
3492  2023-11-01 14:08:57.836943
3493  2023-11-01 14:08:57.868864
3494  2023-11-01 14:08:57.900868
3495  2023-11-01 14:08:57.932899
3496  2023-11-01 14:08:57.964845
3497  2023-11-01 14:08:57.996761
3498  2023-11-01 14:08:58.044600
3499  2023-11-01 14:08:58.076516
3500  2023-11-01 14:08:58.108429
3501  2023-11-01 14:08:58.140344
3502  2023-11-01 14:08:58.172294
3503  2023-11-01 14:08:58.204205
3504  2023-11-01 14:08:58.236091
3505  2023-11-01 14:08:58.269032
3506  2023-11-01 14:08:58.300954
3507  2023-11-01 14:08:58.332830
3508  2023-11-01 14:08:58.364777
3509  2023-11-01 14:08:58.396692
3510  2023-11-01 14:08:58.444565
3511  2023-11-01 14:08:58.476445
3512  2023-11-01 14:08:58.508361
3513  2023-11-01 14:08:58.540327
3514  2023-11-01 14:08:58.572240
3515  2023-11-01 14:08:58.605103
3516  2023-11-01 14:08:58.637017
3517  2023-11-01 14:08:58.668933
3518  2023-11-01 14:08:58.700896
3519  2023-11-01 14:08:58.732852
3520  2023-11-01 14:08:58.764796
3521  2023-11-01 14:08:58.796710
3522  2023-11-01 14:08:58.844551
3523  2023-11-01 14:08:58.876465
3524  2023-11-01 14:08:58.908423
3525  2023-11-01 14:08:58.940295
3526  2023-11-01 14:08:58.972209
3527  2023-11-01 14:08:59.004141
3528  2023-11-01 14:08:59.037069
3529  2023-11-01 14:08:59.068951
3530  2023-11-01 14:08:59.100866
3531  2023-11-01 14:08:59.132792
3532  2023-11-01 14:08:59.164696
3533  2023-11-01 14:08:59.196611
3534  2023-11-01 14:08:59.244481
3535  2023-11-01 14:08:59.276396
3536  2023-11-01 14:08:59.308311
3537  2023-11-01 14:08:59.340324
3538  2023-11-01 14:08:59.372239
3539  2023-11-01 14:08:59.404189
3540  2023-11-01 14:08:59.437070
3541  2023-11-01 14:08:59.469025
3542  2023-11-01 14:08:59.500931
3543  2023-11-01 14:08:59.532812
3544  2023-11-01 14:08:59.564757
3545  2023-11-01 14:08:59.596639
3546  2023-11-01 14:08:59.644511
3547  2023-11-01 14:08:59.676426
3548  2023-11-01 14:08:59.708341
3549  2023-11-01 14:08:59.740260
3550  2023-11-01 14:08:59.772170
3551  2023-11-01 14:08:59.805082
3552  2023-11-01 14:08:59.836997
3553  2023-11-01 14:08:59.868943
3554  2023-11-01 14:08:59.900826
3555  2023-11-01 14:08:59.932741
3556  2023-11-01 14:08:59.964656
3557  2023-11-01 14:08:59.996616
3558  2023-11-01 14:09:00.044442
3559  2023-11-01 14:09:00.076357
3560  2023-11-01 14:09:00.108271
3561  2023-11-01 14:09:00.140186
