
1  2023-10-31 09:51:44.293009
2  2023-10-31 09:51:44.340881
3  2023-10-31 09:51:44.372796
4  2023-10-31 09:51:44.404710
5  2023-10-31 09:51:44.437623
6  2023-10-31 09:51:44.469538
7  2023-10-31 09:51:44.501452
8  2023-10-31 09:51:44.533367
9  2023-10-31 09:51:44.565281
10  2023-10-31 09:51:44.598237
11  2023-10-31 09:51:44.629111
12  2023-10-31 09:51:44.661026
13  2023-10-31 09:51:44.692941
14  2023-10-31 09:51:44.741810
15  2023-10-31 09:51:44.773725
16  2023-10-31 09:51:44.805640
17  2023-10-31 09:51:44.837554
18  2023-10-31 09:51:44.869469
19  2023-10-31 09:51:44.901383
20  2023-10-31 09:51:44.933348
21  2023-10-31 09:51:44.965214
22  2023-10-31 09:51:44.997127
23  2023-10-31 09:51:45.029191
24  2023-10-31 09:51:45.061106
25  2023-10-31 09:51:45.093021
26  2023-10-31 09:51:45.140893
27  2023-10-31 09:51:45.172808
28  2023-10-31 09:51:45.204722
29  2023-10-31 09:51:45.237648
30  2023-10-31 09:51:45.269576
31  2023-10-31 09:51:45.301464
32  2023-10-31 09:51:45.333378
33  2023-10-31 09:51:45.365293
34  2023-10-31 09:51:45.397209
35  2023-10-31 09:51:45.429156
36  2023-10-31 09:51:45.461037
37  2023-10-31 09:51:45.492953
38  2023-10-31 09:51:45.540824
39  2023-10-31 09:51:45.573737
40  2023-10-31 09:51:45.605731
41  2023-10-31 09:51:45.637565
42  2023-10-31 09:51:45.669480
43  2023-10-31 09:51:45.701395
44  2023-10-31 09:51:45.733338
45  2023-10-31 09:51:45.765307
46  2023-10-31 09:51:45.797294
47  2023-10-31 09:51:45.829276
48  2023-10-31 09:51:45.861228
49  2023-10-31 09:51:45.893175
50  2023-10-31 09:51:45.942013
51  2023-10-31 09:51:45.972966
52  2023-10-31 09:51:46.005842
53  2023-10-31 09:51:46.037756
54  2023-10-31 09:51:46.068674
55  2023-10-31 09:51:46.101586
56  2023-10-31 09:51:46.133500
57  2023-10-31 09:51:46.165415
58  2023-10-31 09:51:46.197330
59  2023-10-31 09:51:46.229244
60  2023-10-31 09:51:46.261159
61  2023-10-31 09:51:46.293074
62  2023-10-31 09:51:46.340946
63  2023-10-31 09:51:46.372861
64  2023-10-31 09:51:46.404775
65  2023-10-31 09:51:46.437688
66  2023-10-31 09:51:46.469603
67  2023-10-31 09:51:46.501517
68  2023-10-31 09:51:46.533432
69  2023-10-31 09:51:46.565346
70  2023-10-31 09:51:46.597261
71  2023-10-31 09:51:46.628837
72  2023-10-31 09:51:46.660753
73  2023-10-31 09:51:46.693648
74  2023-10-31 09:51:46.741442
75  2023-10-31 09:51:46.773357
76  2023-10-31 09:51:46.805271
77  2023-10-31 09:51:46.837186
78  2023-10-31 09:51:46.869101
79  2023-10-31 09:51:46.901330
80  2023-10-31 09:51:46.933238
81  2023-10-31 09:51:46.964920
82  2023-10-31 09:51:46.996836
83  2023-10-31 09:51:47.028793
84  2023-10-31 09:51:47.061698
85  2023-10-31 09:51:47.093625
86  2023-10-31 09:51:47.141499
87  2023-10-31 09:51:47.173412
88  2023-10-31 09:51:47.205359
89  2023-10-31 09:51:47.237105
90  2023-10-31 09:51:47.269020
91  2023-10-31 09:51:47.300969
92  2023-10-31 09:51:47.332937
93  2023-10-31 09:51:47.364852
94  2023-10-31 09:51:47.396775
95  2023-10-31 09:51:47.428683
96  2023-10-31 09:51:47.460769
97  2023-10-31 09:51:47.509605
98  2023-10-31 09:51:47.541559
99  2023-10-31 09:51:47.573474
100  2023-10-31 09:51:47.605424
101  2023-10-31 09:51:47.637303
102  2023-10-31 09:51:47.669218
103  2023-10-31 09:51:47.701133
104  2023-10-31 09:51:47.733048
105  2023-10-31 09:51:47.765007
106  2023-10-31 09:51:47.797875
107  2023-10-31 09:51:47.828792
108  2023-10-31 09:51:47.861704
109  2023-10-31 09:51:47.909683
110  2023-10-31 09:51:47.941592
111  2023-10-31 09:51:47.973506
112  2023-10-31 09:51:48.005421
113  2023-10-31 09:51:48.037336
114  2023-10-31 09:51:48.069251
115  2023-10-31 09:51:48.101165
116  2023-10-31 09:51:48.133080
117  2023-10-31 09:51:48.164994
118  2023-10-31 09:51:48.197907
119  2023-10-31 09:51:48.228824
120  2023-10-31 09:51:48.260739
121  2023-10-31 09:51:48.308611
122  2023-10-31 09:51:48.341523
123  2023-10-31 09:51:48.373438
124  2023-10-31 09:51:48.405352
125  2023-10-31 09:51:48.437267
126  2023-10-31 09:51:48.469182
127  2023-10-31 09:51:48.501106
128  2023-10-31 09:51:48.533011
129  2023-10-31 09:51:48.564768
130  2023-10-31 09:51:48.597692
131  2023-10-31 09:51:48.629595
132  2023-10-31 09:51:48.661510
133  2023-10-31 09:51:48.709382
134  2023-10-31 09:51:48.741313
135  2023-10-31 09:51:48.773211
136  2023-10-31 09:51:48.805126
137  2023-10-31 09:51:48.838038
138  2023-10-31 09:51:48.868955
139  2023-10-31 09:51:48.900870
140  2023-10-31 09:51:48.932785
141  2023-10-31 09:51:48.965697
142  2023-10-31 09:51:48.997612
143  2023-10-31 09:51:49.029526
144  2023-10-31 09:51:49.061441
145  2023-10-31 09:51:49.109313
146  2023-10-31 09:51:49.141233
147  2023-10-31 09:51:49.173143
148  2023-10-31 09:51:49.205057
149  2023-10-31 09:51:49.237970
150  2023-10-31 09:51:49.268886
151  2023-10-31 09:51:49.300801
152  2023-10-31 09:51:49.332716
153  2023-10-31 09:51:49.365628
154  2023-10-31 09:51:49.397543
155  2023-10-31 09:51:49.429458
156  2023-10-31 09:51:49.461372
157  2023-10-31 09:51:49.509246
158  2023-10-31 09:51:49.541159
159  2023-10-31 09:51:49.573127
160  2023-10-31 09:51:49.605044
161  2023-10-31 09:51:49.637012
162  2023-10-31 09:51:49.668926
163  2023-10-31 09:51:49.700841
164  2023-10-31 09:51:49.733144
165  2023-10-31 09:51:49.765059
166  2023-10-31 09:51:49.796974
167  2023-10-31 09:51:49.828888
168  2023-10-31 09:51:49.860833
169  2023-10-31 09:51:49.908710
170  2023-10-31 09:51:49.941585
171  2023-10-31 09:51:49.973638
172  2023-10-31 09:51:50.005499
173  2023-10-31 09:51:50.037413
174  2023-10-31 09:51:50.069328
175  2023-10-31 09:51:50.101243
176  2023-10-31 09:51:50.133158
177  2023-10-31 09:51:50.165072
178  2023-10-31 09:51:50.197984
179  2023-10-31 09:51:50.228902
180  2023-10-31 09:51:50.260851
181  2023-10-31 09:51:50.308736
182  2023-10-31 09:51:50.341600
183  2023-10-31 09:51:50.373515
184  2023-10-31 09:51:50.405430
185  2023-10-31 09:51:50.437417
186  2023-10-31 09:51:50.469388
187  2023-10-31 09:51:50.501303
188  2023-10-31 09:51:50.533391
189  2023-10-31 09:51:50.565351
190  2023-10-31 09:51:50.597220
191  2023-10-31 09:51:50.629246
192  2023-10-31 09:51:50.661161
193  2023-10-31 09:51:50.709034
194  2023-10-31 09:51:50.740948
195  2023-10-31 09:51:50.772862
196  2023-10-31 09:51:50.804785
197  2023-10-31 09:51:50.837690
198  2023-10-31 09:51:50.869604
199  2023-10-31 09:51:50.901519
200  2023-10-31 09:51:50.933158
201  2023-10-31 09:51:50.965041
202  2023-10-31 09:51:50.996956
203  2023-10-31 09:51:51.028906
204  2023-10-31 09:51:51.077739
205  2023-10-31 09:51:51.109654
206  2023-10-31 09:51:51.141568
207  2023-10-31 09:51:51.173483
208  2023-10-31 09:51:51.205429
209  2023-10-31 09:51:51.237312
210  2023-10-31 09:51:51.269276
211  2023-10-31 09:51:51.301141
212  2023-10-31 09:51:51.333118
213  2023-10-31 09:51:51.365015
214  2023-10-31 09:51:51.397883
215  2023-10-31 09:51:51.428804
216  2023-10-31 09:51:51.477669
217  2023-10-31 09:51:51.509585
218  2023-10-31 09:51:51.541501
219  2023-10-31 09:51:51.573446
220  2023-10-31 09:51:51.605367
221  2023-10-31 09:51:51.637281
222  2023-10-31 09:51:51.669159
223  2023-10-31 09:51:51.701413
224  2023-10-31 09:51:51.733330
225  2023-10-31 09:51:51.765209
226  2023-10-31 09:51:51.797157
227  2023-10-31 09:51:51.829086
228  2023-10-31 09:51:51.877105
229  2023-10-31 09:51:51.909020
230  2023-10-31 09:51:51.941127
231  2023-10-31 09:51:51.973051
232  2023-10-31 09:51:52.004956
233  2023-10-31 09:51:52.037869
234  2023-10-31 09:51:52.069783
235  2023-10-31 09:51:52.100700
236  2023-10-31 09:51:52.133612
237  2023-10-31 09:51:52.165527
238  2023-10-31 09:51:52.197442
239  2023-10-31 09:51:52.229512
240  2023-10-31 09:51:52.277384
241  2023-10-31 09:51:52.309299
242  2023-10-31 09:51:52.341214
243  2023-10-31 09:51:52.373128
244  2023-10-31 09:51:52.405043
245  2023-10-31 09:51:52.436958
246  2023-10-31 09:51:52.468872
247  2023-10-31 09:51:52.500787
248  2023-10-31 09:51:52.532702
249  2023-10-31 09:51:52.564760
250  2023-10-31 09:51:52.596672
251  2023-10-31 09:51:52.629584
252  2023-10-31 09:51:52.677456
253  2023-10-31 09:51:52.709371
254  2023-10-31 09:51:52.741285
255  2023-10-31 09:51:52.774197
256  2023-10-31 09:51:52.805115
257  2023-10-31 09:51:52.838028
258  2023-10-31 09:51:52.868944
259  2023-10-31 09:51:52.901856
260  2023-10-31 09:51:52.933771
261  2023-10-31 09:51:52.965802
262  2023-10-31 09:51:52.996705
263  2023-10-31 09:51:53.028618
264  2023-10-31 09:51:53.077455
265  2023-10-31 09:51:53.109370
266  2023-10-31 09:51:53.141286
267  2023-10-31 09:51:53.173201
268  2023-10-31 09:51:53.205114
269  2023-10-31 09:51:53.237083
270  2023-10-31 09:51:53.269947
271  2023-10-31 09:51:53.300906
272  2023-10-31 09:51:53.332804
273  2023-10-31 09:51:53.364688
274  2023-10-31 09:51:53.397673
275  2023-10-31 09:51:53.429515
276  2023-10-31 09:51:53.477387
277  2023-10-31 09:51:53.509302
278  2023-10-31 09:51:53.541216
279  2023-10-31 09:51:53.573131
280  2023-10-31 09:51:53.605046
281  2023-10-31 09:51:53.636962
282  2023-10-31 09:51:53.669874
283  2023-10-31 09:51:53.700825
284  2023-10-31 09:51:53.733743
285  2023-10-31 09:51:53.764707
286  2023-10-31 09:51:53.797582
287  2023-10-31 09:51:53.829488
288  2023-10-31 09:51:53.878369
289  2023-10-31 09:51:53.910284
290  2023-10-31 09:51:53.941248
291  2023-10-31 09:51:53.973163
292  2023-10-31 09:51:54.005092
293  2023-10-31 09:51:54.037991
294  2023-10-31 09:51:54.068907
295  2023-10-31 09:51:54.101819
296  2023-10-31 09:51:54.133734
297  2023-10-31 09:51:54.165648
298  2023-10-31 09:51:54.197563
299  2023-10-31 09:51:54.229518
300  2023-10-31 09:51:54.277464
301  2023-10-31 09:51:54.309353
302  2023-10-31 09:51:54.341265
303  2023-10-31 09:51:54.373184
304  2023-10-31 09:51:54.405095
305  2023-10-31 09:51:54.437009
306  2023-10-31 09:51:54.468931
307  2023-10-31 09:51:54.500839
308  2023-10-31 09:51:54.533753
309  2023-10-31 09:51:54.565666
310  2023-10-31 09:51:54.597580
311  2023-10-31 09:51:54.629496
312  2023-10-31 09:51:54.677367
313  2023-10-31 09:51:54.709282
314  2023-10-31 09:51:54.742202
315  2023-10-31 09:51:54.773111
316  2023-10-31 09:51:54.806025
317  2023-10-31 09:51:54.836941
318  2023-10-31 09:51:54.869853
319  2023-10-31 09:51:54.901767
320  2023-10-31 09:51:54.933682
321  2023-10-31 09:51:54.965638
322  2023-10-31 09:51:54.997625
323  2023-10-31 09:51:55.045513
324  2023-10-31 09:51:55.077411
325  2023-10-31 09:51:55.109327
326  2023-10-31 09:51:55.141241
327  2023-10-31 09:51:55.173156
328  2023-10-31 09:51:55.205070
329  2023-10-31 09:51:55.236985
330  2023-10-31 09:51:55.269379
331  2023-10-31 09:51:55.301293
332  2023-10-31 09:51:55.333208
333  2023-10-31 09:51:55.365123
334  2023-10-31 09:51:55.397037
335  2023-10-31 09:51:55.444911
336  2023-10-31 09:51:55.477822
337  2023-10-31 09:51:55.508740
338  2023-10-31 09:51:55.541769
339  2023-10-31 09:51:55.573660
340  2023-10-31 09:51:55.605610
341  2023-10-31 09:51:55.637503
342  2023-10-31 09:51:55.669392
343  2023-10-31 09:51:55.701313
344  2023-10-31 09:51:55.733223
345  2023-10-31 09:51:55.765161
346  2023-10-31 09:51:55.797193
347  2023-10-31 09:51:55.845142
348  2023-10-31 09:51:55.876980
349  2023-10-31 09:51:55.908929
350  2023-10-31 09:51:55.941808
351  2023-10-31 09:51:55.972762
352  2023-10-31 09:51:56.004641
353  2023-10-31 09:51:56.037551
354  2023-10-31 09:51:56.069606
355  2023-10-31 09:51:56.101669
356  2023-10-31 09:51:56.133518
357  2023-10-31 09:51:56.165529
358  2023-10-31 09:51:56.197501
359  2023-10-31 09:51:56.245452
360  2023-10-31 09:51:56.277334
361  2023-10-31 09:51:56.309249
362  2023-10-31 09:51:56.341215
363  2023-10-31 09:51:56.373114
364  2023-10-31 09:51:56.405033
365  2023-10-31 09:51:56.438001
366  2023-10-31 09:51:56.468869
367  2023-10-31 09:51:56.501781
368  2023-10-31 09:51:56.533724
369  2023-10-31 09:51:56.565643
370  2023-10-31 09:51:56.597557
371  2023-10-31 09:51:56.645437
372  2023-10-31 09:51:56.677312
373  2023-10-31 09:51:56.709332
374  2023-10-31 09:51:56.741183
375  2023-10-31 09:51:56.773076
376  2023-10-31 09:51:56.805979
377  2023-10-31 09:51:56.836895
378  2023-10-31 09:51:56.868837
379  2023-10-31 09:51:56.900715
380  2023-10-31 09:51:56.933668
381  2023-10-31 09:51:56.965587
382  2023-10-31 09:51:56.997482
383  2023-10-31 09:51:57.045329
384  2023-10-31 09:51:57.077284
385  2023-10-31 09:51:57.109158
386  2023-10-31 09:51:57.141129
387  2023-10-31 09:51:57.173034
388  2023-10-31 09:51:57.204980
389  2023-10-31 09:51:57.236960
390  2023-10-31 09:51:57.268864
391  2023-10-31 09:51:57.300745
392  2023-10-31 09:51:57.333727
393  2023-10-31 09:51:57.365639
394  2023-10-31 09:51:57.397519
395  2023-10-31 09:51:57.445390
396  2023-10-31 09:51:57.477300
397  2023-10-31 09:51:57.509229
398  2023-10-31 09:51:57.541224
399  2023-10-31 09:51:57.573144
400  2023-10-31 09:51:57.605127
401  2023-10-31 09:51:57.637002
402  2023-10-31 09:51:57.668855
403  2023-10-31 09:51:57.700770
404  2023-10-31 09:51:57.732711
405  2023-10-31 09:51:57.765632
406  2023-10-31 09:51:57.797570
407  2023-10-31 09:51:57.845410
408  2023-10-31 09:51:57.877333
409  2023-10-31 09:51:57.909250
410  2023-10-31 09:51:57.941178
411  2023-10-31 09:51:57.973091
412  2023-10-31 09:51:58.004993
413  2023-10-31 09:51:58.037922
414  2023-10-31 09:51:58.069785
415  2023-10-31 09:51:58.100750
416  2023-10-31 09:51:58.133687
417  2023-10-31 09:51:58.164665
418  2023-10-31 09:51:58.197579
419  2023-10-31 09:51:58.245463
420  2023-10-31 09:51:58.277357
421  2023-10-31 09:51:58.309272
422  2023-10-31 09:51:58.341160
423  2023-10-31 09:51:58.373114
424  2023-10-31 09:51:58.405045
425  2023-10-31 09:51:58.436937
426  2023-10-31 09:51:58.469817
427  2023-10-31 09:51:58.500734
428  2023-10-31 09:51:58.533732
429  2023-10-31 09:51:58.565637
430  2023-10-31 09:51:58.613484
431  2023-10-31 09:51:58.645383
432  2023-10-31 09:51:58.677299
433  2023-10-31 09:51:58.709177
434  2023-10-31 09:51:58.741092
435  2023-10-31 09:51:58.774059
436  2023-10-31 09:51:58.805920
437  2023-10-31 09:51:58.837835
438  2023-10-31 09:51:58.869785
439  2023-10-31 09:51:58.901664
440  2023-10-31 09:51:58.933611
441  2023-10-31 09:51:58.965526
442  2023-10-31 09:51:59.013367
443  2023-10-31 09:51:59.045414
444  2023-10-31 09:51:59.077302
445  2023-10-31 09:51:59.109268
446  2023-10-31 09:51:59.141133
447  2023-10-31 09:51:59.173049
448  2023-10-31 09:51:59.205024
449  2023-10-31 09:51:59.236909
450  2023-10-31 09:51:59.268963
451  2023-10-31 09:51:59.300845
452  2023-10-31 09:51:59.332816
453  2023-10-31 09:51:59.364718
454  2023-10-31 09:51:59.413540
455  2023-10-31 09:51:59.445489
456  2023-10-31 09:51:59.477439
457  2023-10-31 09:51:59.509313
458  2023-10-31 09:51:59.541231
459  2023-10-31 09:51:59.573116
460  2023-10-31 09:51:59.605080
461  2023-10-31 09:51:59.636986
462  2023-10-31 09:51:59.669883
463  2023-10-31 09:51:59.700772
464  2023-10-31 09:51:59.733716
465  2023-10-31 09:51:59.765673
466  2023-10-31 09:51:59.813504
467  2023-10-31 09:51:59.845418
468  2023-10-31 09:51:59.877330
469  2023-10-31 09:51:59.909268
470  2023-10-31 09:51:59.941156
471  2023-10-31 09:51:59.973082
472  2023-10-31 09:52:00.004987
473  2023-10-31 09:52:00.036921
474  2023-10-31 09:52:00.068838
475  2023-10-31 09:52:00.100736
476  2023-10-31 09:52:00.133616
477  2023-10-31 09:52:00.165572
478  2023-10-31 09:52:00.213402
479  2023-10-31 09:52:00.245343
480  2023-10-31 09:52:00.277264
481  2023-10-31 09:52:00.309173
482  2023-10-31 09:52:00.341112
483  2023-10-31 09:52:00.372976
484  2023-10-31 09:52:00.404927
485  2023-10-31 09:52:00.436854
486  2023-10-31 09:52:00.468753
487  2023-10-31 09:52:00.501632
488  2023-10-31 09:52:00.533579
489  2023-10-31 09:52:00.565494
490  2023-10-31 09:52:00.613376
491  2023-10-31 09:52:00.645292
492  2023-10-31 09:52:00.677206
493  2023-10-31 09:52:00.709121
494  2023-10-31 09:52:00.741035
495  2023-10-31 09:52:00.772951
496  2023-10-31 09:52:00.804948
497  2023-10-31 09:52:00.837859
498  2023-10-31 09:52:00.868779
499  2023-10-31 09:52:00.901738
500  2023-10-31 09:52:00.933601
501  2023-10-31 09:52:00.965522
502  2023-10-31 09:52:01.013359
503  2023-10-31 09:52:01.045324
504  2023-10-31 09:52:01.077239
505  2023-10-31 09:52:01.109137
506  2023-10-31 09:52:01.141084
507  2023-10-31 09:52:01.173930
508  2023-10-31 09:52:01.205874
509  2023-10-31 09:52:01.236796
510  2023-10-31 09:52:01.269717
511  2023-10-31 09:52:01.301589
512  2023-10-31 09:52:01.333504
513  2023-10-31 09:52:01.365419
514  2023-10-31 09:52:01.413318
515  2023-10-31 09:52:01.445231
516  2023-10-31 09:52:01.477156
517  2023-10-31 09:52:01.509081
518  2023-10-31 09:52:01.540977
519  2023-10-31 09:52:01.572915
520  2023-10-31 09:52:01.605947
521  2023-10-31 09:52:01.637862
522  2023-10-31 09:52:01.669778
523  2023-10-31 09:52:01.700743
524  2023-10-31 09:52:01.733649
525  2023-10-31 09:52:01.765557
526  2023-10-31 09:52:01.813392
527  2023-10-31 09:52:01.845336
528  2023-10-31 09:52:01.877273
529  2023-10-31 09:52:01.909172
530  2023-10-31 09:52:01.941117
531  2023-10-31 09:52:01.973963
532  2023-10-31 09:52:02.004918
533  2023-10-31 09:52:02.037793
534  2023-10-31 09:52:02.069742
535  2023-10-31 09:52:02.101669
536  2023-10-31 09:52:02.133568
537  2023-10-31 09:52:02.181441
538  2023-10-31 09:52:02.213323
539  2023-10-31 09:52:02.245238
540  2023-10-31 09:52:02.277202
541  2023-10-31 09:52:02.309102
542  2023-10-31 09:52:02.341035
543  2023-10-31 09:52:02.372897
544  2023-10-31 09:52:02.405809
545  2023-10-31 09:52:02.437725
546  2023-10-31 09:52:02.469687
547  2023-10-31 09:52:02.501587
548  2023-10-31 09:52:02.533468
549  2023-10-31 09:52:02.581348
550  2023-10-31 09:52:02.613255
551  2023-10-31 09:52:02.645201
552  2023-10-31 09:52:02.677138
553  2023-10-31 09:52:02.709027
554  2023-10-31 09:52:02.740944
555  2023-10-31 09:52:02.772861
556  2023-10-31 09:52:02.805740
557  2023-10-31 09:52:02.837704
558  2023-10-31 09:52:02.869627
559  2023-10-31 09:52:02.901522
560  2023-10-31 09:52:02.933433
561  2023-10-31 09:52:02.981324
562  2023-10-31 09:52:03.013293
563  2023-10-31 09:52:03.045241
564  2023-10-31 09:52:03.077208
565  2023-10-31 09:52:03.109117
566  2023-10-31 09:52:03.142035
567  2023-10-31 09:52:03.173898
568  2023-10-31 09:52:03.205813
569  2023-10-31 09:52:03.237727
570  2023-10-31 09:52:03.269641
571  2023-10-31 09:52:03.301556
572  2023-10-31 09:52:03.333470
573  2023-10-31 09:52:03.381343
574  2023-10-31 09:52:03.413257
575  2023-10-31 09:52:03.445172
576  2023-10-31 09:52:03.477164
577  2023-10-31 09:52:03.510026
578  2023-10-31 09:52:03.540941
579  2023-10-31 09:52:03.573828
580  2023-10-31 09:52:03.605743
581  2023-10-31 09:52:03.637658
582  2023-10-31 09:52:03.669572
583  2023-10-31 09:52:03.701487
584  2023-10-31 09:52:03.733402
585  2023-10-31 09:52:03.781274
586  2023-10-31 09:52:03.813188
587  2023-10-31 09:52:03.845103
588  2023-10-31 09:52:03.878015
589  2023-10-31 09:52:03.908932
590  2023-10-31 09:52:03.941870
591  2023-10-31 09:52:03.973858
592  2023-10-31 09:52:04.005768
593  2023-10-31 09:52:04.037672
594  2023-10-31 09:52:04.069586
595  2023-10-31 09:52:04.101501
596  2023-10-31 09:52:04.133446
597  2023-10-31 09:52:04.181290
598  2023-10-31 09:52:04.214267
599  2023-10-31 09:52:04.245117
600  2023-10-31 09:52:04.277032
601  2023-10-31 09:52:04.308976
602  2023-10-31 09:52:04.340985
603  2023-10-31 09:52:04.373897
604  2023-10-31 09:52:04.405813
605  2023-10-31 09:52:04.437728
606  2023-10-31 09:52:04.469691
607  2023-10-31 09:52:04.501556
608  2023-10-31 09:52:04.533471
609  2023-10-31 09:52:04.581343
610  2023-10-31 09:52:04.613257
611  2023-10-31 09:52:04.645203
612  2023-10-31 09:52:04.677087
613  2023-10-31 09:52:04.709001
614  2023-10-31 09:52:04.740916
615  2023-10-31 09:52:04.772831
616  2023-10-31 09:52:04.805744
617  2023-10-31 09:52:04.837658
618  2023-10-31 09:52:04.869578
619  2023-10-31 09:52:04.901487
620  2023-10-31 09:52:04.933435
621  2023-10-31 09:52:04.981303
622  2023-10-31 09:52:05.013230
623  2023-10-31 09:52:05.045103
624  2023-10-31 09:52:05.077018
625  2023-10-31 09:52:05.109931
626  2023-10-31 09:52:05.141849
627  2023-10-31 09:52:05.172762
628  2023-10-31 09:52:05.205674
629  2023-10-31 09:52:05.237589
630  2023-10-31 09:52:05.269504
631  2023-10-31 09:52:05.301418
632  2023-10-31 09:52:05.333333
633  2023-10-31 09:52:05.381205
634  2023-10-31 09:52:05.413120
635  2023-10-31 09:52:05.445035
636  2023-10-31 09:52:05.476949
637  2023-10-31 09:52:05.508864
638  2023-10-31 09:52:05.540779
639  2023-10-31 09:52:05.573691
640  2023-10-31 09:52:05.605605
641  2023-10-31 09:52:05.637520
642  2023-10-31 09:52:05.669435
643  2023-10-31 09:52:05.701350
644  2023-10-31 09:52:05.733264
645  2023-10-31 09:52:05.781136
646  2023-10-31 09:52:05.813051
647  2023-10-31 09:52:05.845963
648  2023-10-31 09:52:05.877880
649  2023-10-31 09:52:05.909793
650  2023-10-31 09:52:05.941708
651  2023-10-31 09:52:05.973622
652  2023-10-31 09:52:06.005544
653  2023-10-31 09:52:06.037451
654  2023-10-31 09:52:06.069366
655  2023-10-31 09:52:06.101281
656  2023-10-31 09:52:06.149153
657  2023-10-31 09:52:06.181121
658  2023-10-31 09:52:06.213123
659  2023-10-31 09:52:06.245003
660  2023-10-31 09:52:06.276918
661  2023-10-31 09:52:06.309856
662  2023-10-31 09:52:06.341746
663  2023-10-31 09:52:06.373659
664  2023-10-31 09:52:06.405574
665  2023-10-31 09:52:06.437534
666  2023-10-31 09:52:06.469439
667  2023-10-31 09:52:06.501318
668  2023-10-31 09:52:06.549216
669  2023-10-31 09:52:06.581139
670  2023-10-31 09:52:06.613019
671  2023-10-31 09:52:06.646002
672  2023-10-31 09:52:06.676876
673  2023-10-31 09:52:06.709761
674  2023-10-31 09:52:06.741676
675  2023-10-31 09:52:06.773631
676  2023-10-31 09:52:06.805538
677  2023-10-31 09:52:06.837420
678  2023-10-31 09:52:06.869334
679  2023-10-31 09:52:06.901249
680  2023-10-31 09:52:06.949121
681  2023-10-31 09:52:06.981095
682  2023-10-31 09:52:07.013948
683  2023-10-31 09:52:07.045863
684  2023-10-31 09:52:07.077777
685  2023-10-31 09:52:07.109692
686  2023-10-31 09:52:07.141610
687  2023-10-31 09:52:07.173521
688  2023-10-31 09:52:07.205436
689  2023-10-31 09:52:07.237351
690  2023-10-31 09:52:07.269266
691  2023-10-31 09:52:07.301180
692  2023-10-31 09:52:07.349052
693  2023-10-31 09:52:07.381206
694  2023-10-31 09:52:07.413121
695  2023-10-31 09:52:07.445045
696  2023-10-31 09:52:07.476950
697  2023-10-31 09:52:07.509864
698  2023-10-31 09:52:07.540780
699  2023-10-31 09:52:07.573692
700  2023-10-31 09:52:07.605611
701  2023-10-31 09:52:07.637521
702  2023-10-31 09:52:07.669436
703  2023-10-31 09:52:07.701351
704  2023-10-31 09:52:07.749223
705  2023-10-31 09:52:07.781109
706  2023-10-31 09:52:07.813024
707  2023-10-31 09:52:07.844949
708  2023-10-31 09:52:07.876943
709  2023-10-31 09:52:07.909821
710  2023-10-31 09:52:07.940774
711  2023-10-31 09:52:07.973651
712  2023-10-31 09:52:08.005613
713  2023-10-31 09:52:08.037518
714  2023-10-31 09:52:08.069474
715  2023-10-31 09:52:08.101388
716  2023-10-31 09:52:08.149261
717  2023-10-31 09:52:08.181214
718  2023-10-31 09:52:08.213090
719  2023-10-31 09:52:08.245005
720  2023-10-31 09:52:08.276919
721  2023-10-31 09:52:08.308885
722  2023-10-31 09:52:08.341781
723  2023-10-31 09:52:08.373750
724  2023-10-31 09:52:08.405665
725  2023-10-31 09:52:08.437612
726  2023-10-31 09:52:08.469522
727  2023-10-31 09:52:08.501409
728  2023-10-31 09:52:08.549499
729  2023-10-31 09:52:08.581414
730  2023-10-31 09:52:08.613328
731  2023-10-31 09:52:08.645275
732  2023-10-31 09:52:08.677201
733  2023-10-31 09:52:08.709163
734  2023-10-31 09:52:08.741077
735  2023-10-31 09:52:08.773024
736  2023-10-31 09:52:08.804954
737  2023-10-31 09:52:08.837819
738  2023-10-31 09:52:08.869744
739  2023-10-31 09:52:08.901651
740  2023-10-31 09:52:08.949520
741  2023-10-31 09:52:08.981435
742  2023-10-31 09:52:09.013350
743  2023-10-31 09:52:09.045264
744  2023-10-31 09:52:09.077179
745  2023-10-31 09:52:09.109099
746  2023-10-31 09:52:09.142016
747  2023-10-31 09:52:09.172923
748  2023-10-31 09:52:09.204839
749  2023-10-31 09:52:09.237751
750  2023-10-31 09:52:09.269667
751  2023-10-31 09:52:09.301581
752  2023-10-31 09:52:09.349453
753  2023-10-31 09:52:09.381367
754  2023-10-31 09:52:09.413282
755  2023-10-31 09:52:09.445197
756  2023-10-31 09:52:09.477112
757  2023-10-31 09:52:09.509026
758  2023-10-31 09:52:09.540941
759  2023-10-31 09:52:09.573853
760  2023-10-31 09:52:09.605769
761  2023-10-31 09:52:09.637683
762  2023-10-31 09:52:09.669597
763  2023-10-31 09:52:09.717469
764  2023-10-31 09:52:09.749385
765  2023-10-31 09:52:09.781300
766  2023-10-31 09:52:09.813214
767  2023-10-31 09:52:09.845187
768  2023-10-31 09:52:09.877102
769  2023-10-31 09:52:09.909043
770  2023-10-31 09:52:09.940988
771  2023-10-31 09:52:09.973844
772  2023-10-31 09:52:10.005760
773  2023-10-31 09:52:10.037672
774  2023-10-31 09:52:10.069679
775  2023-10-31 09:52:10.117570
776  2023-10-31 09:52:10.149455
777  2023-10-31 09:52:10.181403
778  2023-10-31 09:52:10.213324
779  2023-10-31 09:52:10.245199
780  2023-10-31 09:52:10.277114
781  2023-10-31 09:52:10.309120
782  2023-10-31 09:52:10.341004
783  2023-10-31 09:52:10.372918
784  2023-10-31 09:52:10.405969
785  2023-10-31 09:52:10.437853
786  2023-10-31 09:52:10.469800
787  2023-10-31 09:52:10.517639
788  2023-10-31 09:52:10.549602
789  2023-10-31 09:52:10.581516
790  2023-10-31 09:52:10.613431
791  2023-10-31 09:52:10.645377
792  2023-10-31 09:52:10.677312
793  2023-10-31 09:52:10.709175
794  2023-10-31 09:52:10.741090
795  2023-10-31 09:52:10.773035
796  2023-10-31 09:52:10.804958
797  2023-10-31 09:52:10.836834
798  2023-10-31 09:52:10.869746
799  2023-10-31 09:52:10.917618
800  2023-10-31 09:52:10.949533
801  2023-10-31 09:52:10.981447
802  2023-10-31 09:52:11.013362
803  2023-10-31 09:52:11.045277
804  2023-10-31 09:52:11.077191
805  2023-10-31 09:52:11.109106
806  2023-10-31 09:52:11.142019
807  2023-10-31 09:52:11.173933
808  2023-10-31 09:52:11.204850
809  2023-10-31 09:52:11.237762
810  2023-10-31 09:52:11.269684
811  2023-10-31 09:52:11.317549
812  2023-10-31 09:52:11.349505
813  2023-10-31 09:52:11.381450
814  2023-10-31 09:52:11.413334
815  2023-10-31 09:52:11.445314
816  2023-10-31 09:52:11.477229
817  2023-10-31 09:52:11.509144
818  2023-10-31 09:52:11.541058
819  2023-10-31 09:52:11.572974
820  2023-10-31 09:52:11.604888
821  2023-10-31 09:52:11.636802
822  2023-10-31 09:52:11.669715
823  2023-10-31 09:52:11.717587
824  2023-10-31 09:52:11.749502
825  2023-10-31 09:52:11.781417
826  2023-10-31 09:52:11.813331
827  2023-10-31 09:52:11.845246
828  2023-10-31 09:52:11.877160
829  2023-10-31 09:52:11.909075
830  2023-10-31 09:52:11.940990
831  2023-10-31 09:52:11.973911
832  2023-10-31 09:52:12.005817
833  2023-10-31 09:52:12.037733
834  2023-10-31 09:52:12.069646
835  2023-10-31 09:52:12.117518
836  2023-10-31 09:52:12.149433
837  2023-10-31 09:52:12.181394
838  2023-10-31 09:52:12.213265
839  2023-10-31 09:52:12.245177
840  2023-10-31 09:52:12.277092
841  2023-10-31 09:52:12.309011
842  2023-10-31 09:52:12.340922
843  2023-10-31 09:52:12.373833
844  2023-10-31 09:52:12.404750
845  2023-10-31 09:52:12.437663
846  2023-10-31 09:52:12.469677
847  2023-10-31 09:52:12.517548
848  2023-10-31 09:52:12.549580
849  2023-10-31 09:52:12.581458
850  2023-10-31 09:52:12.613373
851  2023-10-31 09:52:12.645319
852  2023-10-31 09:52:12.677233
853  2023-10-31 09:52:12.709117
854  2023-10-31 09:52:12.742031
855  2023-10-31 09:52:12.772946
856  2023-10-31 09:52:12.805904
857  2023-10-31 09:52:12.837773
858  2023-10-31 09:52:12.869690
859  2023-10-31 09:52:12.917560
860  2023-10-31 09:52:12.949475
861  2023-10-31 09:52:12.981389
862  2023-10-31 09:52:13.013304
863  2023-10-31 09:52:13.045221
864  2023-10-31 09:52:13.077134
865  2023-10-31 09:52:13.109048
866  2023-10-31 09:52:13.140963
867  2023-10-31 09:52:13.172878
868  2023-10-31 09:52:13.204792
869  2023-10-31 09:52:13.236707
870  2023-10-31 09:52:13.270618
871  2023-10-31 09:52:13.317491
872  2023-10-31 09:52:13.349408
873  2023-10-31 09:52:13.382318
874  2023-10-31 09:52:13.414235
875  2023-10-31 09:52:13.446172
876  2023-10-31 09:52:13.477102
877  2023-10-31 09:52:13.509980
878  2023-10-31 09:52:13.541923
879  2023-10-31 09:52:13.573808
880  2023-10-31 09:52:13.605721
881  2023-10-31 09:52:13.637646
882  2023-10-31 09:52:13.685508
883  2023-10-31 09:52:13.717424
884  2023-10-31 09:52:13.749337
885  2023-10-31 09:52:13.781252
886  2023-10-31 09:52:13.813167
887  2023-10-31 09:52:13.846081
888  2023-10-31 09:52:13.877996
889  2023-10-31 09:52:13.909908
890  2023-10-31 09:52:13.942000
891  2023-10-31 09:52:13.973882
892  2023-10-31 09:52:14.005796
893  2023-10-31 09:52:14.037719
894  2023-10-31 09:52:14.085624
895  2023-10-31 09:52:14.117683
896  2023-10-31 09:52:14.149656
897  2023-10-31 09:52:14.181558
898  2023-10-31 09:52:14.213455
899  2023-10-31 09:52:14.245336
900  2023-10-31 09:52:14.277250
901  2023-10-31 09:52:14.309171
902  2023-10-31 09:52:14.342080
903  2023-10-31 09:52:14.373036
904  2023-10-31 09:52:14.405909
905  2023-10-31 09:52:14.436855
906  2023-10-31 09:52:14.485830
907  2023-10-31 09:52:14.517692
908  2023-10-31 09:52:14.549601
909  2023-10-31 09:52:14.581627
910  2023-10-31 09:52:14.614432
911  2023-10-31 09:52:14.646345
912  2023-10-31 09:52:14.677260
913  2023-10-31 09:52:14.709186
914  2023-10-31 09:52:14.742093
915  2023-10-31 09:52:14.774049
916  2023-10-31 09:52:14.805917
917  2023-10-31 09:52:14.837005
918  2023-10-31 09:52:14.885845
919  2023-10-31 09:52:14.917759
920  2023-10-31 09:52:14.949674
921  2023-10-31 09:52:14.981590
922  2023-10-31 09:52:15.013505
923  2023-10-31 09:52:15.046425
924  2023-10-31 09:52:15.077333
925  2023-10-31 09:52:15.109248
926  2023-10-31 09:52:15.141181
927  2023-10-31 09:52:15.173077
928  2023-10-31 09:52:15.204992
929  2023-10-31 09:52:15.236965
930  2023-10-31 09:52:15.285815
931  2023-10-31 09:52:15.317694
932  2023-10-31 09:52:15.349637
933  2023-10-31 09:52:15.381579
934  2023-10-31 09:52:15.413436
935  2023-10-31 09:52:15.445350
936  2023-10-31 09:52:15.477298
937  2023-10-31 09:52:15.509205
938  2023-10-31 09:52:15.541093
939  2023-10-31 09:52:15.573008
940  2023-10-31 09:52:15.605930
941  2023-10-31 09:52:15.636839
942  2023-10-31 09:52:15.685732
943  2023-10-31 09:52:15.717630
944  2023-10-31 09:52:15.749536
945  2023-10-31 09:52:15.781453
946  2023-10-31 09:52:15.813428
947  2023-10-31 09:52:15.845317
948  2023-10-31 09:52:15.877195
949  2023-10-31 09:52:15.909118
950  2023-10-31 09:52:15.941207
951  2023-10-31 09:52:15.973106
952  2023-10-31 09:52:16.005027
953  2023-10-31 09:52:16.037948
954  2023-10-31 09:52:16.084813
955  2023-10-31 09:52:16.117690
956  2023-10-31 09:52:16.149598
957  2023-10-31 09:52:16.181542
958  2023-10-31 09:52:16.213477
959  2023-10-31 09:52:16.245370
960  2023-10-31 09:52:16.277285
961  2023-10-31 09:52:16.309203
962  2023-10-31 09:52:16.341086
963  2023-10-31 09:52:16.373030
964  2023-10-31 09:52:16.404989
965  2023-10-31 09:52:16.436903
966  2023-10-31 09:52:16.485753
967  2023-10-31 09:52:16.516664
968  2023-10-31 09:52:16.549529
969  2023-10-31 09:52:16.581444
970  2023-10-31 09:52:16.613390
971  2023-10-31 09:52:16.645314
972  2023-10-31 09:52:16.677188
973  2023-10-31 09:52:16.709103
974  2023-10-31 09:52:16.741017
975  2023-10-31 09:52:16.774005
976  2023-10-31 09:52:16.804919
977  2023-10-31 09:52:16.836813
978  2023-10-31 09:52:16.884685
979  2023-10-31 09:52:16.917600
980  2023-10-31 09:52:16.949460
981  2023-10-31 09:52:16.981375
982  2023-10-31 09:52:17.013324
983  2023-10-31 09:52:17.045233
984  2023-10-31 09:52:17.077167
985  2023-10-31 09:52:17.109034
986  2023-10-31 09:52:17.141012
987  2023-10-31 09:52:17.173862
988  2023-10-31 09:52:17.205856
989  2023-10-31 09:52:17.252863
990  2023-10-31 09:52:17.284777
991  2023-10-31 09:52:17.317676
992  2023-10-31 09:52:17.349551
993  2023-10-31 09:52:17.381466
994  2023-10-31 09:52:17.413406
995  2023-10-31 09:52:17.445348
996  2023-10-31 09:52:17.477234
997  2023-10-31 09:52:17.510172
998  2023-10-31 09:52:17.541146
999  2023-10-31 09:52:17.573119
1000  2023-10-31 09:52:17.606028
1001  2023-10-31 09:52:17.652881
1002  2023-10-31 09:52:17.684794
1003  2023-10-31 09:52:17.717738
1004  2023-10-31 09:52:17.749645
1005  2023-10-31 09:52:17.781504
1006  2023-10-31 09:52:17.813452
1007  2023-10-31 09:52:17.845366
1008  2023-10-31 09:52:17.877282
1009  2023-10-31 09:52:17.909162
1010  2023-10-31 09:52:17.941123
1011  2023-10-31 09:52:17.973031
1012  2023-10-31 09:52:18.005944
1013  2023-10-31 09:52:18.052827
1014  2023-10-31 09:52:18.084735
1015  2023-10-31 09:52:18.117677
1016  2023-10-31 09:52:18.149549
1017  2023-10-31 09:52:18.181471
1018  2023-10-31 09:52:18.213382
1019  2023-10-31 09:52:18.245293
1020  2023-10-31 09:52:18.277226
1021  2023-10-31 09:52:18.309165
1022  2023-10-31 09:52:18.341008
1023  2023-10-31 09:52:18.373920
1024  2023-10-31 09:52:18.404887
1025  2023-10-31 09:52:18.453760
1026  2023-10-31 09:52:18.484660
1027  2023-10-31 09:52:18.517568
1028  2023-10-31 09:52:18.549451
1029  2023-10-31 09:52:18.581366
1030  2023-10-31 09:52:18.613281
1031  2023-10-31 09:52:18.645228
1032  2023-10-31 09:52:18.677141
1033  2023-10-31 09:52:18.709062
1034  2023-10-31 09:52:18.740940
1035  2023-10-31 09:52:18.773879
1036  2023-10-31 09:52:18.805818
1037  2023-10-31 09:52:18.853664
1038  2023-10-31 09:52:18.885590
1039  2023-10-31 09:52:18.917494
1040  2023-10-31 09:52:18.949414
1041  2023-10-31 09:52:18.981297
1042  2023-10-31 09:52:19.013294
1043  2023-10-31 09:52:19.045163
1044  2023-10-31 09:52:19.077089
1045  2023-10-31 09:52:19.108993
1046  2023-10-31 09:52:19.141868
1047  2023-10-31 09:52:19.173841
1048  2023-10-31 09:52:19.205729
1049  2023-10-31 09:52:19.253570
1050  2023-10-31 09:52:19.285516
1051  2023-10-31 09:52:19.317433
1052  2023-10-31 09:52:19.349347
1053  2023-10-31 09:52:19.381228
1054  2023-10-31 09:52:19.413175
1055  2023-10-31 09:52:19.445124
1056  2023-10-31 09:52:19.478007
1057  2023-10-31 09:52:19.508943
1058  2023-10-31 09:52:19.541801
1059  2023-10-31 09:52:19.573764
1060  2023-10-31 09:52:19.605820
1061  2023-10-31 09:52:19.653679
1062  2023-10-31 09:52:19.685578
1063  2023-10-31 09:52:19.717601
1064  2023-10-31 09:52:19.749475
1065  2023-10-31 09:52:19.781395
1066  2023-10-31 09:52:19.813310
1067  2023-10-31 09:52:19.845220
1068  2023-10-31 09:52:19.877144
1069  2023-10-31 09:52:19.909054
1070  2023-10-31 09:52:19.940966
1071  2023-10-31 09:52:19.972896
1072  2023-10-31 09:52:20.005813
1073  2023-10-31 09:52:20.052686
1074  2023-10-31 09:52:20.085606
1075  2023-10-31 09:52:20.117490
1076  2023-10-31 09:52:20.149414
1077  2023-10-31 09:52:20.181337
1078  2023-10-31 09:52:20.213242
1079  2023-10-31 09:52:20.245183
1080  2023-10-31 09:52:20.277037
1081  2023-10-31 09:52:20.308986
1082  2023-10-31 09:52:20.340867
1083  2023-10-31 09:52:20.373780
1084  2023-10-31 09:52:20.405753
1085  2023-10-31 09:52:20.453631
1086  2023-10-31 09:52:20.485546
1087  2023-10-31 09:52:20.517428
1088  2023-10-31 09:52:20.549377
1089  2023-10-31 09:52:20.581225
1090  2023-10-31 09:52:20.613170
1091  2023-10-31 09:52:20.645094
1092  2023-10-31 09:52:20.677052
1093  2023-10-31 09:52:20.708946
1094  2023-10-31 09:52:20.741823
1095  2023-10-31 09:52:20.772748
1096  2023-10-31 09:52:20.821628
1097  2023-10-31 09:52:20.853522
1098  2023-10-31 09:52:20.885442
1099  2023-10-31 09:52:20.917358
1100  2023-10-31 09:52:20.949267
1101  2023-10-31 09:52:20.981186
1102  2023-10-31 09:52:21.013114
1103  2023-10-31 09:52:21.045992
1104  2023-10-31 09:52:21.077949
1105  2023-10-31 09:52:21.108846
1106  2023-10-31 09:52:21.141781
1107  2023-10-31 09:52:21.173671
1108  2023-10-31 09:52:21.221539
1109  2023-10-31 09:52:21.253479
1110  2023-10-31 09:52:21.285374
1111  2023-10-31 09:52:21.317288
1112  2023-10-31 09:52:21.349172
1113  2023-10-31 09:52:21.381087
1114  2023-10-31 09:52:21.413003
1115  2023-10-31 09:52:21.444948
1116  2023-10-31 09:52:21.477880
1117  2023-10-31 09:52:21.509799
1118  2023-10-31 09:52:21.540709
1119  2023-10-31 09:52:21.573574
1120  2023-10-31 09:52:21.621470
1121  2023-10-31 09:52:21.653384
1122  2023-10-31 09:52:21.685312
1123  2023-10-31 09:52:21.717241
1124  2023-10-31 09:52:21.750102
1125  2023-10-31 09:52:21.781056
1126  2023-10-31 09:52:21.812934
1127  2023-10-31 09:52:21.844849
1128  2023-10-31 09:52:21.877815
1129  2023-10-31 09:52:21.909743
1130  2023-10-31 09:52:21.941664
1131  2023-10-31 09:52:21.973544
1132  2023-10-31 09:52:22.021403
1133  2023-10-31 09:52:22.053322
1134  2023-10-31 09:52:22.085271
1135  2023-10-31 09:52:22.117183
1136  2023-10-31 09:52:22.149107
1137  2023-10-31 09:52:22.180977
1138  2023-10-31 09:52:22.212865
1139  2023-10-31 09:52:22.245777
1140  2023-10-31 09:52:22.277729
1141  2023-10-31 09:52:22.309643
1142  2023-10-31 09:52:22.341553
1143  2023-10-31 09:52:22.373527
1144  2023-10-31 09:52:22.421445
1145  2023-10-31 09:52:22.453312
1146  2023-10-31 09:52:22.485227
1147  2023-10-31 09:52:22.517226
1148  2023-10-31 09:52:22.549108
1149  2023-10-31 09:52:22.581055
1150  2023-10-31 09:52:22.613883
1151  2023-10-31 09:52:22.645798
1152  2023-10-31 09:52:22.677739
1153  2023-10-31 09:52:22.709682
1154  2023-10-31 09:52:22.741593
1155  2023-10-31 09:52:22.773456
1156  2023-10-31 09:52:22.821371
1157  2023-10-31 09:52:22.853243
1158  2023-10-31 09:52:22.885160
1159  2023-10-31 09:52:22.917130
1160  2023-10-31 09:52:22.949985
1161  2023-10-31 09:52:22.980944
1162  2023-10-31 09:52:23.013814
1163  2023-10-31 09:52:23.045729
1164  2023-10-31 09:52:23.077681
1165  2023-10-31 09:52:23.109622
1166  2023-10-31 09:52:23.141537
1167  2023-10-31 09:52:23.173452
1168  2023-10-31 09:52:23.221324
1169  2023-10-31 09:52:23.253238
1170  2023-10-31 09:52:23.285154
1171  2023-10-31 09:52:23.317115
1172  2023-10-31 09:52:23.350028
1173  2023-10-31 09:52:23.380976
1174  2023-10-31 09:52:23.413856
1175  2023-10-31 09:52:23.445771
1176  2023-10-31 09:52:23.477686
1177  2023-10-31 09:52:23.509600
1178  2023-10-31 09:52:23.541522
1179  2023-10-31 09:52:23.573430
1180  2023-10-31 09:52:23.621302
1181  2023-10-31 09:52:23.653250
1182  2023-10-31 09:52:23.685131
1183  2023-10-31 09:52:23.717046
1184  2023-10-31 09:52:23.749007
1185  2023-10-31 09:52:23.781873
1186  2023-10-31 09:52:23.812824
1187  2023-10-31 09:52:23.845717
1188  2023-10-31 09:52:23.877617
1189  2023-10-31 09:52:23.909704
1190  2023-10-31 09:52:23.941618
1191  2023-10-31 09:52:23.973570
1192  2023-10-31 09:52:24.021405
1193  2023-10-31 09:52:24.053352
1194  2023-10-31 09:52:24.085234
1195  2023-10-31 09:52:24.117151
1196  2023-10-31 09:52:24.149064
1197  2023-10-31 09:52:24.181009
1198  2023-10-31 09:52:24.213890
1199  2023-10-31 09:52:24.245805
1200  2023-10-31 09:52:24.277720
1201  2023-10-31 09:52:24.309666
1202  2023-10-31 09:52:24.341608
1203  2023-10-31 09:52:24.373464
1204  2023-10-31 09:52:24.421336
1205  2023-10-31 09:52:24.453253
1206  2023-10-31 09:52:24.485165
1207  2023-10-31 09:52:24.517124
1208  2023-10-31 09:52:24.548995
1209  2023-10-31 09:52:24.581907
1210  2023-10-31 09:52:24.612824
1211  2023-10-31 09:52:24.645763
1212  2023-10-31 09:52:24.677651
1213  2023-10-31 09:52:24.709566
1214  2023-10-31 09:52:24.741485
1215  2023-10-31 09:52:24.789352
1216  2023-10-31 09:52:24.821267
1217  2023-10-31 09:52:24.853182
1218  2023-10-31 09:52:24.885097
1219  2023-10-31 09:52:24.917011
1220  2023-10-31 09:52:24.948926
1221  2023-10-31 09:52:24.980843
1222  2023-10-31 09:52:25.013753
1223  2023-10-31 09:52:25.045672
1224  2023-10-31 09:52:25.077582
1225  2023-10-31 09:52:25.109607
1226  2023-10-31 09:52:25.141521
1227  2023-10-31 09:52:25.189393
1228  2023-10-31 09:52:25.221308
1229  2023-10-31 09:52:25.253223
1230  2023-10-31 09:52:25.285138
1231  2023-10-31 09:52:25.317052
1232  2023-10-31 09:52:25.349965
1233  2023-10-31 09:52:25.380882
1234  2023-10-31 09:52:25.413794
1235  2023-10-31 09:52:25.445708
1236  2023-10-31 09:52:25.477631
1237  2023-10-31 09:52:25.509538
1238  2023-10-31 09:52:25.541453
1239  2023-10-31 09:52:25.589325
1240  2023-10-31 09:52:25.621239
1241  2023-10-31 09:52:25.653154
1242  2023-10-31 09:52:25.685069
1243  2023-10-31 09:52:25.716984
1244  2023-10-31 09:52:25.748905
1245  2023-10-31 09:52:25.781810
1246  2023-10-31 09:52:25.813725
1247  2023-10-31 09:52:25.845640
1248  2023-10-31 09:52:25.877554
1249  2023-10-31 09:52:25.909469
1250  2023-10-31 09:52:25.941384
1251  2023-10-31 09:52:25.989256
1252  2023-10-31 09:52:26.021197
1253  2023-10-31 09:52:26.053129
1254  2023-10-31 09:52:26.085000
1255  2023-10-31 09:52:26.116915
1256  2023-10-31 09:52:26.148829
1257  2023-10-31 09:52:26.181784
1258  2023-10-31 09:52:26.213656
1259  2023-10-31 09:52:26.245571
1260  2023-10-31 09:52:26.277486
1261  2023-10-31 09:52:26.309431
1262  2023-10-31 09:52:26.341315
1263  2023-10-31 09:52:26.389218
1264  2023-10-31 09:52:26.421102
1265  2023-10-31 09:52:26.453017
1266  2023-10-31 09:52:26.484931
1267  2023-10-31 09:52:26.517845
1268  2023-10-31 09:52:26.549824
1269  2023-10-31 09:52:26.581802
1270  2023-10-31 09:52:26.613833
1271  2023-10-31 09:52:26.645746
1272  2023-10-31 09:52:26.677661
1273  2023-10-31 09:52:26.709575
1274  2023-10-31 09:52:26.741490
1275  2023-10-31 09:52:26.789362
1276  2023-10-31 09:52:26.821276
1277  2023-10-31 09:52:26.853191
1278  2023-10-31 09:52:26.885106
1279  2023-10-31 09:52:26.917021
1280  2023-10-31 09:52:26.948935
1281  2023-10-31 09:52:26.981847
1282  2023-10-31 09:52:27.013763
1283  2023-10-31 09:52:27.045679
1284  2023-10-31 09:52:27.077592
1285  2023-10-31 09:52:27.109509
1286  2023-10-31 09:52:27.141421
1287  2023-10-31 09:52:27.189293
1288  2023-10-31 09:52:27.221208
1289  2023-10-31 09:52:27.253122
1290  2023-10-31 09:52:27.285037
1291  2023-10-31 09:52:27.316952
1292  2023-10-31 09:52:27.348866
1293  2023-10-31 09:52:27.381779
1294  2023-10-31 09:52:27.413693
1295  2023-10-31 09:52:27.445618
1296  2023-10-31 09:52:27.477523
1297  2023-10-31 09:52:27.509437
1298  2023-10-31 09:52:27.541352
1299  2023-10-31 09:52:27.589241
1300  2023-10-31 09:52:27.621169
1301  2023-10-31 09:52:27.653117
1302  2023-10-31 09:52:27.685115
1303  2023-10-31 09:52:27.717095
1304  2023-10-31 09:52:27.750009
1305  2023-10-31 09:52:27.780925
1306  2023-10-31 09:52:27.813837
1307  2023-10-31 09:52:27.845764
1308  2023-10-31 09:52:27.877669
1309  2023-10-31 09:52:27.909581
1310  2023-10-31 09:52:27.941496
1311  2023-10-31 09:52:27.989368
1312  2023-10-31 09:52:28.021318
1313  2023-10-31 09:52:28.053231
1314  2023-10-31 09:52:28.085112
1315  2023-10-31 09:52:28.117027
1316  2023-10-31 09:52:28.148941
1317  2023-10-31 09:52:28.181855
1318  2023-10-31 09:52:28.212771
1319  2023-10-31 09:52:28.245683
1320  2023-10-31 09:52:28.277598
1321  2023-10-31 09:52:28.309564
1322  2023-10-31 09:52:28.357384
1323  2023-10-31 09:52:28.389330
1324  2023-10-31 09:52:28.421413
1325  2023-10-31 09:52:28.453328
1326  2023-10-31 09:52:28.485242
1327  2023-10-31 09:52:28.517190
1328  2023-10-31 09:52:28.549157
1329  2023-10-31 09:52:28.581071
1330  2023-10-31 09:52:28.613016
1331  2023-10-31 09:52:28.645898
1332  2023-10-31 09:52:28.676942
1333  2023-10-31 09:52:28.708873
1334  2023-10-31 09:52:28.756745
1335  2023-10-31 09:52:28.789657
1336  2023-10-31 09:52:28.821731
1337  2023-10-31 09:52:28.853645
1338  2023-10-31 09:52:28.885560
1339  2023-10-31 09:52:28.917475
1340  2023-10-31 09:52:28.949389
1341  2023-10-31 09:52:28.981304
1342  2023-10-31 09:52:29.013370
1343  2023-10-31 09:52:29.045284
1344  2023-10-31 09:52:29.077199
1345  2023-10-31 09:52:29.109120
1346  2023-10-31 09:52:29.156986
1347  2023-10-31 09:52:29.188900
1348  2023-10-31 09:52:29.221812
1349  2023-10-31 09:52:29.253727
1350  2023-10-31 09:52:29.285642
1351  2023-10-31 09:52:29.317557
1352  2023-10-31 09:52:29.349472
1353  2023-10-31 09:52:29.381386
1354  2023-10-31 09:52:29.413301
1355  2023-10-31 09:52:29.445216
1356  2023-10-31 09:52:29.477130
1357  2023-10-31 09:52:29.510098
1358  2023-10-31 09:52:29.557055
1359  2023-10-31 09:52:29.588970
1360  2023-10-31 09:52:29.620884
1361  2023-10-31 09:52:29.652799
1362  2023-10-31 09:52:29.684714
1363  2023-10-31 09:52:29.717626
1364  2023-10-31 09:52:29.749540
1365  2023-10-31 09:52:29.781455
1366  2023-10-31 09:52:29.813370
1367  2023-10-31 09:52:29.845331
1368  2023-10-31 09:52:29.877276
1369  2023-10-31 09:52:29.909143
1370  2023-10-31 09:52:29.957072
1371  2023-10-31 09:52:29.988987
1372  2023-10-31 09:52:30.021899
1373  2023-10-31 09:52:30.052842
1374  2023-10-31 09:52:30.084731
1375  2023-10-31 09:52:30.117649
1376  2023-10-31 09:52:30.149574
1377  2023-10-31 09:52:30.181503
1378  2023-10-31 09:52:30.213387
1379  2023-10-31 09:52:30.245302
1380  2023-10-31 09:52:30.277217
1381  2023-10-31 09:52:30.310156
1382  2023-10-31 09:52:30.357003
1383  2023-10-31 09:52:30.388949
1384  2023-10-31 09:52:30.420833
1385  2023-10-31 09:52:30.452748
1386  2023-10-31 09:52:30.485660
1387  2023-10-31 09:52:30.517611
1388  2023-10-31 09:52:30.549516
1389  2023-10-31 09:52:30.581405
1390  2023-10-31 09:52:30.613320
1391  2023-10-31 09:52:30.645268
1392  2023-10-31 09:52:30.677204
1393  2023-10-31 09:52:30.709064
1394  2023-10-31 09:52:30.756936
1395  2023-10-31 09:52:30.788879
1396  2023-10-31 09:52:30.821777
1397  2023-10-31 09:52:30.853678
1398  2023-10-31 09:52:30.885592
1399  2023-10-31 09:52:30.917507
1400  2023-10-31 09:52:30.949422
1401  2023-10-31 09:52:30.981336
1402  2023-10-31 09:52:31.013251
1403  2023-10-31 09:52:31.045349
1404  2023-10-31 09:52:31.077263
1405  2023-10-31 09:52:31.109178
1406  2023-10-31 09:52:31.157050
1407  2023-10-31 09:52:31.188965
1408  2023-10-31 09:52:31.220880
1409  2023-10-31 09:52:31.252794
1410  2023-10-31 09:52:31.284709
1411  2023-10-31 09:52:31.317623
1412  2023-10-31 09:52:31.349536
1413  2023-10-31 09:52:31.381451
1414  2023-10-31 09:52:31.413368
1415  2023-10-31 09:52:31.445280
1416  2023-10-31 09:52:31.477195
1417  2023-10-31 09:52:31.509109
1418  2023-10-31 09:52:31.556981
1419  2023-10-31 09:52:31.588896
1420  2023-10-31 09:52:31.621808
1421  2023-10-31 09:52:31.652725
1422  2023-10-31 09:52:31.685638
1423  2023-10-31 09:52:31.717552
1424  2023-10-31 09:52:31.749467
1425  2023-10-31 09:52:31.781382
1426  2023-10-31 09:52:31.813296
1427  2023-10-31 09:52:31.846209
1428  2023-10-31 09:52:31.878132
1429  2023-10-31 09:52:31.910039
1430  2023-10-31 09:52:31.957953
1431  2023-10-31 09:52:31.988827
1432  2023-10-31 09:52:32.021740
1433  2023-10-31 09:52:32.053714
1434  2023-10-31 09:52:32.085569
1435  2023-10-31 09:52:32.117484
1436  2023-10-31 09:52:32.149398
1437  2023-10-31 09:52:32.181344
1438  2023-10-31 09:52:32.213259
1439  2023-10-31 09:52:32.245142
1440  2023-10-31 09:52:32.278056
1441  2023-10-31 09:52:32.324929
1442  2023-10-31 09:52:32.356957
1443  2023-10-31 09:52:32.388926
1444  2023-10-31 09:52:32.421786
1445  2023-10-31 09:52:32.452703
1446  2023-10-31 09:52:32.485624
1447  2023-10-31 09:52:32.517556
1448  2023-10-31 09:52:32.549476
1449  2023-10-31 09:52:32.581359
1450  2023-10-31 09:52:32.613276
1451  2023-10-31 09:52:32.645259
1452  2023-10-31 09:52:32.677270
1453  2023-10-31 09:52:32.725158
1454  2023-10-31 09:52:32.757026
1455  2023-10-31 09:52:32.788942
1456  2023-10-31 09:52:32.820855
1457  2023-10-31 09:52:32.852803
1458  2023-10-31 09:52:32.885682
1459  2023-10-31 09:52:32.917597
1460  2023-10-31 09:52:32.950539
1461  2023-10-31 09:52:32.981426
1462  2023-10-31 09:52:33.014395
1463  2023-10-31 09:52:33.045256
1464  2023-10-31 09:52:33.077170
1465  2023-10-31 09:52:33.126041
1466  2023-10-31 09:52:33.156957
1467  2023-10-31 09:52:33.188872
1468  2023-10-31 09:52:33.221796
1469  2023-10-31 09:52:33.252701
1470  2023-10-31 09:52:33.285613
1471  2023-10-31 09:52:33.318525
1472  2023-10-31 09:52:33.349443
1473  2023-10-31 09:52:33.381357
1474  2023-10-31 09:52:33.414310
1475  2023-10-31 09:52:33.446228
1476  2023-10-31 09:52:33.478353
1477  2023-10-31 09:52:33.526224
1478  2023-10-31 09:52:33.558141
1479  2023-10-31 09:52:33.590066
1480  2023-10-31 09:52:33.621992
1481  2023-10-31 09:52:33.653895
1482  2023-10-31 09:52:33.685769
1483  2023-10-31 09:52:33.717734
1484  2023-10-31 09:52:33.749598
1485  2023-10-31 09:52:33.782512
1486  2023-10-31 09:52:33.813428
1487  2023-10-31 09:52:33.846341
1488  2023-10-31 09:52:33.877265
1489  2023-10-31 09:52:33.925128
1490  2023-10-31 09:52:33.958041
1491  2023-10-31 09:52:33.989993
1492  2023-10-31 09:52:34.021899
1493  2023-10-31 09:52:34.053850
1494  2023-10-31 09:52:34.085747
1495  2023-10-31 09:52:34.117708
1496  2023-10-31 09:52:34.149623
1497  2023-10-31 09:52:34.181622
1498  2023-10-31 09:52:34.213536
1499  2023-10-31 09:52:34.245451
1500  2023-10-31 09:52:34.277377
1501  2023-10-31 09:52:34.325238
1502  2023-10-31 09:52:34.357123
1503  2023-10-31 09:52:34.389027
1504  2023-10-31 09:52:34.421031
1505  2023-10-31 09:52:34.452919
1506  2023-10-31 09:52:34.485827
1507  2023-10-31 09:52:34.517849
1508  2023-10-31 09:52:34.549827
1509  2023-10-31 09:52:34.581742
1510  2023-10-31 09:52:34.613658
1511  2023-10-31 09:52:34.645573
1512  2023-10-31 09:52:34.677494
1513  2023-10-31 09:52:34.725457
1514  2023-10-31 09:52:34.757402
1515  2023-10-31 09:52:34.789333
1516  2023-10-31 09:52:34.821248
1517  2023-10-31 09:52:34.853169
1518  2023-10-31 09:52:34.885092
1519  2023-10-31 09:52:34.917007
1520  2023-10-31 09:52:34.949874
1521  2023-10-31 09:52:34.981790
1522  2023-10-31 09:52:35.013735
1523  2023-10-31 09:52:35.045619
1524  2023-10-31 09:52:35.077580
1525  2023-10-31 09:52:35.125405
1526  2023-10-31 09:52:35.157321
1527  2023-10-31 09:52:35.189464
1528  2023-10-31 09:52:35.222384
1529  2023-10-31 09:52:35.254244
1530  2023-10-31 09:52:35.286186
1531  2023-10-31 09:52:35.317228
1532  2023-10-31 09:52:35.349142
1533  2023-10-31 09:52:35.382097
1534  2023-10-31 09:52:35.413969
1535  2023-10-31 09:52:35.445883
1536  2023-10-31 09:52:35.477796
1537  2023-10-31 09:52:35.525715
1538  2023-10-31 09:52:35.557622
1539  2023-10-31 09:52:35.589499
1540  2023-10-31 09:52:35.621414
1541  2023-10-31 09:52:35.653388
1542  2023-10-31 09:52:35.685242
1543  2023-10-31 09:52:35.717232
1544  2023-10-31 09:52:35.749072
1545  2023-10-31 09:52:35.781984
1546  2023-10-31 09:52:35.812901
1547  2023-10-31 09:52:35.845816
1548  2023-10-31 09:52:35.893685
1549  2023-10-31 09:52:35.925664
1550  2023-10-31 09:52:35.957555
1551  2023-10-31 09:52:35.989545
1552  2023-10-31 09:52:36.021460
1553  2023-10-31 09:52:36.053380
1554  2023-10-31 09:52:36.085284
1555  2023-10-31 09:52:36.117198
1556  2023-10-31 09:52:36.149086
1557  2023-10-31 09:52:36.181999
1558  2023-10-31 09:52:36.213963
1559  2023-10-31 09:52:36.245828
1560  2023-10-31 09:52:36.292703
1561  2023-10-31 09:52:36.325616
1562  2023-10-31 09:52:36.357530
1563  2023-10-31 09:52:36.389596
1564  2023-10-31 09:52:36.421621
1565  2023-10-31 09:52:36.453658
1566  2023-10-31 09:52:36.485650
1567  2023-10-31 09:52:36.517532
1568  2023-10-31 09:52:36.549483
1569  2023-10-31 09:52:36.581361
1570  2023-10-31 09:52:36.613277
1571  2023-10-31 09:52:36.645194
1572  2023-10-31 09:52:36.693114
1573  2023-10-31 09:52:36.725032
1574  2023-10-31 09:52:36.756942
1575  2023-10-31 09:52:36.788930
1576  2023-10-31 09:52:36.820983
1577  2023-10-31 09:52:36.852901
1578  2023-10-31 09:52:36.885789
1579  2023-10-31 09:52:36.917707
1580  2023-10-31 09:52:36.949497
1581  2023-10-31 09:52:36.981411
1582  2023-10-31 09:52:37.013438
1583  2023-10-31 09:52:37.045307
1584  2023-10-31 09:52:37.093212
1585  2023-10-31 09:52:37.125151
1586  2023-10-31 09:52:37.157038
1587  2023-10-31 09:52:37.188971
1588  2023-10-31 09:52:37.220891
1589  2023-10-31 09:52:37.252805
1590  2023-10-31 09:52:37.284668
1591  2023-10-31 09:52:37.317644
1592  2023-10-31 09:52:37.349565
1593  2023-10-31 09:52:37.381442
1594  2023-10-31 09:52:37.413374
1595  2023-10-31 09:52:37.445270
1596  2023-10-31 09:52:37.493154
1597  2023-10-31 09:52:37.525057
1598  2023-10-31 09:52:37.556975
1599  2023-10-31 09:52:37.588854
1600  2023-10-31 09:52:37.620808
1601  2023-10-31 09:52:37.652721
1602  2023-10-31 09:52:37.685625
1603  2023-10-31 09:52:37.717510
1604  2023-10-31 09:52:37.749425
1605  2023-10-31 09:52:37.781340
1606  2023-10-31 09:52:37.813280
1607  2023-10-31 09:52:37.845234
1608  2023-10-31 09:52:37.893082
1609  2023-10-31 09:52:37.924990
1610  2023-10-31 09:52:37.956902
1611  2023-10-31 09:52:37.988819
1612  2023-10-31 09:52:38.021731
1613  2023-10-31 09:52:38.053612
1614  2023-10-31 09:52:38.085557
1615  2023-10-31 09:52:38.117475
1616  2023-10-31 09:52:38.149387
1617  2023-10-31 09:52:38.181313
1618  2023-10-31 09:52:38.213186
1619  2023-10-31 09:52:38.245157
1620  2023-10-31 09:52:38.293004
1621  2023-10-31 09:52:38.324919
1622  2023-10-31 09:52:38.356851
1623  2023-10-31 09:52:38.388752
1624  2023-10-31 09:52:38.421628
1625  2023-10-31 09:52:38.453576
1626  2023-10-31 09:52:38.485490
1627  2023-10-31 09:52:38.517406
1628  2023-10-31 09:52:38.549321
1629  2023-10-31 09:52:38.581248
1630  2023-10-31 09:52:38.613177
1631  2023-10-31 09:52:38.645081
1632  2023-10-31 09:52:38.692904
1633  2023-10-31 09:52:38.725817
1634  2023-10-31 09:52:38.757802
1635  2023-10-31 09:52:38.789706
1636  2023-10-31 09:52:38.821594
1637  2023-10-31 09:52:38.853500
1638  2023-10-31 09:52:38.885390
1639  2023-10-31 09:52:38.917330
1640  2023-10-31 09:52:38.949279
1641  2023-10-31 09:52:38.981133
1642  2023-10-31 09:52:39.013086
1643  2023-10-31 09:52:39.044964
1644  2023-10-31 09:52:39.092866
1645  2023-10-31 09:52:39.124783
1646  2023-10-31 09:52:39.157703
1647  2023-10-31 09:52:39.189650
1648  2023-10-31 09:52:39.221494
1649  2023-10-31 09:52:39.253433
1650  2023-10-31 09:52:39.285352
1651  2023-10-31 09:52:39.317267
1652  2023-10-31 09:52:39.349153
1653  2023-10-31 09:52:39.381118
1654  2023-10-31 09:52:39.414084
1655  2023-10-31 09:52:39.460905
1656  2023-10-31 09:52:39.492820
1657  2023-10-31 09:52:39.524848
1658  2023-10-31 09:52:39.557774
1659  2023-10-31 09:52:39.588727
1660  2023-10-31 09:52:39.621689
1661  2023-10-31 09:52:39.653641
1662  2023-10-31 09:52:39.685524
1663  2023-10-31 09:52:39.717436
1664  2023-10-31 09:52:39.749352
1665  2023-10-31 09:52:39.781231
1666  2023-10-31 09:52:39.813216
1667  2023-10-31 09:52:39.861049
1668  2023-10-31 09:52:39.892982
1669  2023-10-31 09:52:39.924920
1670  2023-10-31 09:52:39.956798
1671  2023-10-31 09:52:39.989709
1672  2023-10-31 09:52:40.021621
1673  2023-10-31 09:52:40.053532
1674  2023-10-31 09:52:40.085449
1675  2023-10-31 09:52:40.117367
1676  2023-10-31 09:52:40.149279
1677  2023-10-31 09:52:40.181216
1678  2023-10-31 09:52:40.213083
1679  2023-10-31 09:52:40.260984
1680  2023-10-31 09:52:40.292897
1681  2023-10-31 09:52:40.324810
1682  2023-10-31 09:52:40.356726
1683  2023-10-31 09:52:40.389682
1684  2023-10-31 09:52:40.421552
1685  2023-10-31 09:52:40.453466
1686  2023-10-31 09:52:40.485375
1687  2023-10-31 09:52:40.517290
1688  2023-10-31 09:52:40.549211
1689  2023-10-31 09:52:40.581148
1690  2023-10-31 09:52:40.613059
1691  2023-10-31 09:52:40.661912
1692  2023-10-31 09:52:40.692830
1693  2023-10-31 09:52:40.724744
1694  2023-10-31 09:52:40.757622
1695  2023-10-31 09:52:40.789569
1696  2023-10-31 09:52:40.821483
1697  2023-10-31 09:52:40.853390
1698  2023-10-31 09:52:40.885283
1699  2023-10-31 09:52:40.917245
1700  2023-10-31 09:52:40.949137
1701  2023-10-31 09:52:40.982074
1702  2023-10-31 09:52:41.012971
1703  2023-10-31 09:52:41.061858
1704  2023-10-31 09:52:41.092762
1705  2023-10-31 09:52:41.125670
1706  2023-10-31 09:52:41.157622
1707  2023-10-31 09:52:41.189516
1708  2023-10-31 09:52:41.221428
1709  2023-10-31 09:52:41.253382
1710  2023-10-31 09:52:41.285270
1711  2023-10-31 09:52:41.317247
1712  2023-10-31 09:52:41.349184
1713  2023-10-31 09:52:41.381116
1714  2023-10-31 09:52:41.412965
1715  2023-10-31 09:52:41.460870
1716  2023-10-31 09:52:41.492782
1717  2023-10-31 09:52:41.525698
1718  2023-10-31 09:52:41.557611
1719  2023-10-31 09:52:41.589524
1720  2023-10-31 09:52:41.621442
1721  2023-10-31 09:52:41.653348
1722  2023-10-31 09:52:41.685263
1723  2023-10-31 09:52:41.717183
1724  2023-10-31 09:52:41.749126
1725  2023-10-31 09:52:41.782017
1726  2023-10-31 09:52:41.813895
1727  2023-10-31 09:52:41.860802
1728  2023-10-31 09:52:41.892707
1729  2023-10-31 09:52:41.925596
1730  2023-10-31 09:52:41.957538
1731  2023-10-31 09:52:41.989457
1732  2023-10-31 09:52:42.021374
1733  2023-10-31 09:52:42.053291
1734  2023-10-31 09:52:42.085199
1735  2023-10-31 09:52:42.118082
1736  2023-10-31 09:52:42.149035
1737  2023-10-31 09:52:42.181912
1738  2023-10-31 09:52:42.213828
1739  2023-10-31 09:52:42.261749
1740  2023-10-31 09:52:42.293623
1741  2023-10-31 09:52:42.325528
1742  2023-10-31 09:52:42.357442
1743  2023-10-31 09:52:42.389357
1744  2023-10-31 09:52:42.421283
1745  2023-10-31 09:52:42.453187
1746  2023-10-31 09:52:42.485101
1747  2023-10-31 09:52:42.517016
1748  2023-10-31 09:52:42.549976
1749  2023-10-31 09:52:42.581842
1750  2023-10-31 09:52:42.612792
1751  2023-10-31 09:52:42.661667
1752  2023-10-31 09:52:42.693591
1753  2023-10-31 09:52:42.725483
1754  2023-10-31 09:52:42.757400
1755  2023-10-31 09:52:42.789328
1756  2023-10-31 09:52:42.821226
1757  2023-10-31 09:52:42.853118
1758  2023-10-31 09:52:42.885056
1759  2023-10-31 09:52:42.916947
1760  2023-10-31 09:52:42.949860
1761  2023-10-31 09:52:42.981816
1762  2023-10-31 09:52:43.013727
1763  2023-10-31 09:52:43.061594
1764  2023-10-31 09:52:43.093527
1765  2023-10-31 09:52:43.125390
1766  2023-10-31 09:52:43.157305
1767  2023-10-31 09:52:43.189250
1768  2023-10-31 09:52:43.221160
1769  2023-10-31 09:52:43.253083
1770  2023-10-31 09:52:43.284964
1771  2023-10-31 09:52:43.317876
1772  2023-10-31 09:52:43.349806
1773  2023-10-31 09:52:43.380735
1774  2023-10-31 09:52:43.429607
1775  2023-10-31 09:52:43.461498
1776  2023-10-31 09:52:43.493407
1777  2023-10-31 09:52:43.525321
1778  2023-10-31 09:52:43.557236
1779  2023-10-31 09:52:43.589175
1780  2023-10-31 09:52:43.621097
1781  2023-10-31 09:52:43.653025
1782  2023-10-31 09:52:43.684895
1783  2023-10-31 09:52:43.716817
1784  2023-10-31 09:52:43.749722
1785  2023-10-31 09:52:43.781636
1786  2023-10-31 09:52:43.829508
1787  2023-10-31 09:52:43.861423
1788  2023-10-31 09:52:43.893338
1789  2023-10-31 09:52:43.925252
1790  2023-10-31 09:52:43.957167
1791  2023-10-31 09:52:43.989082
1792  2023-10-31 09:52:44.021043
1793  2023-10-31 09:52:44.053942
1794  2023-10-31 09:52:44.085824
1795  2023-10-31 09:52:44.117738
1796  2023-10-31 09:52:44.149662
1797  2023-10-31 09:52:44.181568
1798  2023-10-31 09:52:44.229440
1799  2023-10-31 09:52:44.261385
1800  2023-10-31 09:52:44.293269
1801  2023-10-31 09:52:44.325184
1802  2023-10-31 09:52:44.357098
1803  2023-10-31 09:52:44.389044
1804  2023-10-31 09:52:44.420979
1805  2023-10-31 09:52:44.452843
1806  2023-10-31 09:52:44.484757
1807  2023-10-31 09:52:44.517719
1808  2023-10-31 09:52:44.549628
1809  2023-10-31 09:52:44.582522
1810  2023-10-31 09:52:44.629371
1811  2023-10-31 09:52:44.661286
1812  2023-10-31 09:52:44.693200
1813  2023-10-31 09:52:44.725159
1814  2023-10-31 09:52:44.757062
1815  2023-10-31 09:52:44.788945
1816  2023-10-31 09:52:44.820859
1817  2023-10-31 09:52:44.852808
1818  2023-10-31 09:52:44.884717
1819  2023-10-31 09:52:44.917602
1820  2023-10-31 09:52:44.949515
1821  2023-10-31 09:52:44.981460
1822  2023-10-31 09:52:45.029379
1823  2023-10-31 09:52:45.061329
1824  2023-10-31 09:52:45.093246
1825  2023-10-31 09:52:45.125123
1826  2023-10-31 09:52:45.157038
1827  2023-10-31 09:52:45.188988
1828  2023-10-31 09:52:45.220903
1829  2023-10-31 09:52:45.252782
1830  2023-10-31 09:52:45.284697
1831  2023-10-31 09:52:45.317609
1832  2023-10-31 09:52:45.349524
1833  2023-10-31 09:52:45.381438
1834  2023-10-31 09:52:45.429310
1835  2023-10-31 09:52:45.461225
1836  2023-10-31 09:52:45.493143
1837  2023-10-31 09:52:45.525060
1838  2023-10-31 09:52:45.556969
1839  2023-10-31 09:52:45.588884
1840  2023-10-31 09:52:45.620799
1841  2023-10-31 09:52:45.653711
1842  2023-10-31 09:52:45.685625
1843  2023-10-31 09:52:45.717540
1844  2023-10-31 09:52:45.749455
1845  2023-10-31 09:52:45.781370
1846  2023-10-31 09:52:45.829242
1847  2023-10-31 09:52:45.861267
1848  2023-10-31 09:52:45.893168
1849  2023-10-31 09:52:45.925170
1850  2023-10-31 09:52:45.957028
1851  2023-10-31 09:52:45.988982
1852  2023-10-31 09:52:46.020857
1853  2023-10-31 09:52:46.052780
1854  2023-10-31 09:52:46.084687
1855  2023-10-31 09:52:46.117599
1856  2023-10-31 09:52:46.149513
1857  2023-10-31 09:52:46.181644
1858  2023-10-31 09:52:46.229563
1859  2023-10-31 09:52:46.261609
1860  2023-10-31 09:52:46.293495
1861  2023-10-31 09:52:46.325410
1862  2023-10-31 09:52:46.357324
1863  2023-10-31 09:52:46.389241
1864  2023-10-31 09:52:46.421154
1865  2023-10-31 09:52:46.453068
1866  2023-10-31 09:52:46.484983
1867  2023-10-31 09:52:46.516943
1868  2023-10-31 09:52:46.548845
1869  2023-10-31 09:52:46.581725
1870  2023-10-31 09:52:46.629597
1871  2023-10-31 09:52:46.661511
1872  2023-10-31 09:52:46.693426
1873  2023-10-31 09:52:46.725374
1874  2023-10-31 09:52:46.757281
1875  2023-10-31 09:52:46.789170
1876  2023-10-31 09:52:46.821085
1877  2023-10-31 09:52:46.853033
1878  2023-10-31 09:52:46.884949
1879  2023-10-31 09:52:46.917839
1880  2023-10-31 09:52:46.949769
1881  2023-10-31 09:52:46.997697
1882  2023-10-31 09:52:47.029612
1883  2023-10-31 09:52:47.061527
1884  2023-10-31 09:52:47.093486
1885  2023-10-31 09:52:47.125356
1886  2023-10-31 09:52:47.157426
1887  2023-10-31 09:52:47.189341
1888  2023-10-31 09:52:47.221300
1889  2023-10-31 09:52:47.253178
1890  2023-10-31 09:52:47.285085
1891  2023-10-31 09:52:47.317998
1892  2023-10-31 09:52:47.348914
1893  2023-10-31 09:52:47.397784
1894  2023-10-31 09:52:47.428701
1895  2023-10-31 09:52:47.461613
1896  2023-10-31 09:52:47.493528
1897  2023-10-31 09:52:47.525442
1898  2023-10-31 09:52:47.557092
1899  2023-10-31 09:52:47.589106
1900  2023-10-31 09:52:47.621012
1901  2023-10-31 09:52:47.652926
1902  2023-10-31 09:52:47.684841
1903  2023-10-31 09:52:47.717753
1904  2023-10-31 09:52:47.749668
1905  2023-10-31 09:52:47.797540
1906  2023-10-31 09:52:47.829454
1907  2023-10-31 09:52:47.861369
1908  2023-10-31 09:52:47.893284
1909  2023-10-31 09:52:47.925323
1910  2023-10-31 09:52:47.957248
1911  2023-10-31 09:52:47.989188
1912  2023-10-31 09:52:48.021103
1913  2023-10-31 09:52:48.053018
1914  2023-10-31 09:52:48.085981
1915  2023-10-31 09:52:48.117845
1916  2023-10-31 09:52:48.149759
1917  2023-10-31 09:52:48.197436
1918  2023-10-31 09:52:48.229351
1919  2023-10-31 09:52:48.261266
1920  2023-10-31 09:52:48.293187
1921  2023-10-31 09:52:48.325101
1922  2023-10-31 09:52:48.357126
1923  2023-10-31 09:52:48.389081
1924  2023-10-31 09:52:48.421015
1925  2023-10-31 09:52:48.452921
1926  2023-10-31 09:52:48.484933
1927  2023-10-31 09:52:48.517847
1928  2023-10-31 09:52:48.549761
1929  2023-10-31 09:52:48.597669
1930  2023-10-31 09:52:48.629580
1931  2023-10-31 09:52:48.661461
1932  2023-10-31 09:52:48.693376
1933  2023-10-31 09:52:48.725575
1934  2023-10-31 09:52:48.757488
1935  2023-10-31 09:52:48.789437
1936  2023-10-31 09:52:48.821352
1937  2023-10-31 09:52:48.853350
1938  2023-10-31 09:52:48.885265
1939  2023-10-31 09:52:48.917228
1940  2023-10-31 09:52:48.949275
1941  2023-10-31 09:52:48.997147
1942  2023-10-31 09:52:49.029062
1943  2023-10-31 09:52:49.061007
1944  2023-10-31 09:52:49.092937
1945  2023-10-31 09:52:49.124806
1946  2023-10-31 09:52:49.157718
1947  2023-10-31 09:52:49.189659
1948  2023-10-31 09:52:49.221637
1949  2023-10-31 09:52:49.253607
1950  2023-10-31 09:52:49.285543
1951  2023-10-31 09:52:49.317581
1952  2023-10-31 09:52:49.349535
1953  2023-10-31 09:52:49.397421
1954  2023-10-31 09:52:49.429283
1955  2023-10-31 09:52:49.461197
1956  2023-10-31 09:52:49.493112
1957  2023-10-31 09:52:49.525054
1958  2023-10-31 09:52:49.556942
1959  2023-10-31 09:52:49.588856
1960  2023-10-31 09:52:49.620771
1961  2023-10-31 09:52:49.652800
1962  2023-10-31 09:52:49.684725
1963  2023-10-31 09:52:49.717637
1964  2023-10-31 09:52:49.749551
1965  2023-10-31 09:52:49.797423
1966  2023-10-31 09:52:49.829338
1967  2023-10-31 09:52:49.861253
1968  2023-10-31 09:52:49.893168
1969  2023-10-31 09:52:49.925083
1970  2023-10-31 09:52:49.957218
1971  2023-10-31 09:52:49.989127
1972  2023-10-31 09:52:50.021032
1973  2023-10-31 09:52:50.052946
1974  2023-10-31 09:52:50.084861
1975  2023-10-31 09:52:50.117775
1976  2023-10-31 09:52:50.149689
1977  2023-10-31 09:52:50.197560
1978  2023-10-31 09:52:50.229475
1979  2023-10-31 09:52:50.261525
1980  2023-10-31 09:52:50.293614
1981  2023-10-31 09:52:50.325529
1982  2023-10-31 09:52:50.357443
1983  2023-10-31 09:52:50.389358
1984  2023-10-31 09:52:50.422309
1985  2023-10-31 09:52:50.453188
1986  2023-10-31 09:52:50.485102
1987  2023-10-31 09:52:50.518053
1988  2023-10-31 09:52:50.548932
1989  2023-10-31 09:52:50.597835
1990  2023-10-31 09:52:50.629742
1991  2023-10-31 09:52:50.661631
1992  2023-10-31 09:52:50.693545
1993  2023-10-31 09:52:50.725496
1994  2023-10-31 09:52:50.757401
1995  2023-10-31 09:52:50.789289
1996  2023-10-31 09:52:50.821204
1997  2023-10-31 09:52:50.853157
1998  2023-10-31 09:52:50.885065
1999  2023-10-31 09:52:50.918011
2000  2023-10-31 09:52:50.965007
2001  2023-10-31 09:52:50.996922
2002  2023-10-31 09:52:51.028955
2003  2023-10-31 09:52:51.060986
2004  2023-10-31 09:52:51.092993
2005  2023-10-31 09:52:51.125053
2006  2023-10-31 09:52:51.156976
2007  2023-10-31 09:52:51.188959
2008  2023-10-31 09:52:51.220933
2009  2023-10-31 09:52:51.252848
2010  2023-10-31 09:52:51.285760
2011  2023-10-31 09:52:51.317677
2012  2023-10-31 09:52:51.365546
2013  2023-10-31 09:52:51.397461
2014  2023-10-31 09:52:51.429376
2015  2023-10-31 09:52:51.461291
2016  2023-10-31 09:52:51.493205
2017  2023-10-31 09:52:51.525120
2018  2023-10-31 09:52:51.557035
2019  2023-10-31 09:52:51.588965
2020  2023-10-31 09:52:51.621015
2021  2023-10-31 09:52:51.652930
2022  2023-10-31 09:52:51.684845
2023  2023-10-31 09:52:51.717757
2024  2023-10-31 09:52:51.765629
2025  2023-10-31 09:52:51.797543
2026  2023-10-31 09:52:51.829458
2027  2023-10-31 09:52:51.861373
2028  2023-10-31 09:52:51.893288
2029  2023-10-31 09:52:51.925202
2030  2023-10-31 09:52:51.957117
2031  2023-10-31 09:52:51.989032
2032  2023-10-31 09:52:52.020946
2033  2023-10-31 09:52:52.053859
2034  2023-10-31 09:52:52.085773
2035  2023-10-31 09:52:52.117688
2036  2023-10-31 09:52:52.165560
2037  2023-10-31 09:52:52.197475
2038  2023-10-31 09:52:52.229389
2039  2023-10-31 09:52:52.261312
2040  2023-10-31 09:52:52.293219
2041  2023-10-31 09:52:52.325134
2042  2023-10-31 09:52:52.357048
2043  2023-10-31 09:52:52.388965
2044  2023-10-31 09:52:52.420911
2045  2023-10-31 09:52:52.453796
2046  2023-10-31 09:52:52.484904
2047  2023-10-31 09:52:52.518854
2048  2023-10-31 09:52:52.565688
2049  2023-10-31 09:52:52.598646
2050  2023-10-31 09:52:52.629519
2051  2023-10-31 09:52:52.661443
2052  2023-10-31 09:52:52.694526
2053  2023-10-31 09:52:52.726451
2054  2023-10-31 09:52:52.758357
2055  2023-10-31 09:52:52.790277
2056  2023-10-31 09:52:52.822153
2057  2023-10-31 09:52:52.854099
2058  2023-10-31 09:52:52.886017
2059  2023-10-31 09:52:52.917929
2060  2023-10-31 09:52:52.965769
2061  2023-10-31 09:52:52.997776
2062  2023-10-31 09:52:53.029692
2063  2023-10-31 09:52:53.061718
2064  2023-10-31 09:52:53.094663
2065  2023-10-31 09:52:53.125563
2066  2023-10-31 09:52:53.158519
2067  2023-10-31 09:52:53.190422
2068  2023-10-31 09:52:53.222322
2069  2023-10-31 09:52:53.254237
2070  2023-10-31 09:52:53.286152
2071  2023-10-31 09:52:53.318067
2072  2023-10-31 09:52:53.365931
2073  2023-10-31 09:52:53.397852
2074  2023-10-31 09:52:53.429784
2075  2023-10-31 09:52:53.461727
2076  2023-10-31 09:52:53.493565
2077  2023-10-31 09:52:53.525513
2078  2023-10-31 09:52:53.557395
2079  2023-10-31 09:52:53.589451
2080  2023-10-31 09:52:53.621364
2081  2023-10-31 09:52:53.653252
2082  2023-10-31 09:52:53.686158
2083  2023-10-31 09:52:53.718079
2084  2023-10-31 09:52:53.765981
2085  2023-10-31 09:52:53.797901
2086  2023-10-31 09:52:53.829813
2087  2023-10-31 09:52:53.861727
2088  2023-10-31 09:52:53.893652
2089  2023-10-31 09:52:53.925579
2090  2023-10-31 09:52:53.957493
2091  2023-10-31 09:52:53.989385
2092  2023-10-31 09:52:54.021294
2093  2023-10-31 09:52:54.053209
2094  2023-10-31 09:52:54.086090
2095  2023-10-31 09:52:54.118051
2096  2023-10-31 09:52:54.164919
2097  2023-10-31 09:52:54.197791
2098  2023-10-31 09:52:54.229734
2099  2023-10-31 09:52:54.261661
2100  2023-10-31 09:52:54.293536
2101  2023-10-31 09:52:54.325477
2102  2023-10-31 09:52:54.357395
2103  2023-10-31 09:52:54.389311
2104  2023-10-31 09:52:54.421224
2105  2023-10-31 09:52:54.453143
2106  2023-10-31 09:52:54.485054
2107  2023-10-31 09:52:54.532944
2108  2023-10-31 09:52:54.564851
2109  2023-10-31 09:52:54.597722
2110  2023-10-31 09:52:54.629636
2111  2023-10-31 09:52:54.661553
2112  2023-10-31 09:52:54.694495
2113  2023-10-31 09:52:54.725382
2114  2023-10-31 09:52:54.757341
2115  2023-10-31 09:52:54.789210
2116  2023-10-31 09:52:54.822172
2117  2023-10-31 09:52:54.854081
2118  2023-10-31 09:52:54.885993
2119  2023-10-31 09:52:54.933907
2120  2023-10-31 09:52:54.965814
2121  2023-10-31 09:52:54.997695
2122  2023-10-31 09:52:55.029568
2123  2023-10-31 09:52:55.061514
2124  2023-10-31 09:52:55.094465
2125  2023-10-31 09:52:55.125312
2126  2023-10-31 09:52:55.158286
2127  2023-10-31 09:52:55.189186
2128  2023-10-31 09:52:55.221089
2129  2023-10-31 09:52:55.254004
2130  2023-10-31 09:52:55.285931
2131  2023-10-31 09:52:55.333790
2132  2023-10-31 09:52:55.365672
2133  2023-10-31 09:52:55.397648
2134  2023-10-31 09:52:55.429536
2135  2023-10-31 09:52:55.461445
2136  2023-10-31 09:52:55.493355
2137  2023-10-31 09:52:55.526272
2138  2023-10-31 09:52:55.558183
2139  2023-10-31 09:52:55.589139
2140  2023-10-31 09:52:55.620987
2141  2023-10-31 09:52:55.652953
2142  2023-10-31 09:52:55.684857
2143  2023-10-31 09:52:55.733751
2144  2023-10-31 09:52:55.765632
2145  2023-10-31 09:52:55.797552
2146  2023-10-31 09:52:55.829460
2147  2023-10-31 09:52:55.861377
2148  2023-10-31 09:52:55.893299
2149  2023-10-31 09:52:55.925207
2150  2023-10-31 09:52:55.957128
2151  2023-10-31 09:52:55.989004
2152  2023-10-31 09:52:56.020985
2153  2023-10-31 09:52:56.053877
2154  2023-10-31 09:52:56.085781
2155  2023-10-31 09:52:56.133628
2156  2023-10-31 09:52:56.165578
2157  2023-10-31 09:52:56.197477
2158  2023-10-31 09:52:56.229394
2159  2023-10-31 09:52:56.261299
2160  2023-10-31 09:52:56.293232
2161  2023-10-31 09:52:56.325168
2162  2023-10-31 09:52:56.357052
2163  2023-10-31 09:52:56.388937
2164  2023-10-31 09:52:56.420887
2165  2023-10-31 09:52:56.452811
2166  2023-10-31 09:52:56.485737
2167  2023-10-31 09:52:56.533591
2168  2023-10-31 09:52:56.565497
2169  2023-10-31 09:52:56.597419
2170  2023-10-31 09:52:56.629292
2171  2023-10-31 09:52:56.661211
2172  2023-10-31 09:52:56.693172
2173  2023-10-31 09:52:56.725069
2174  2023-10-31 09:52:56.757002
2175  2023-10-31 09:52:56.788866
2176  2023-10-31 09:52:56.820887
2177  2023-10-31 09:52:56.853897
2178  2023-10-31 09:52:56.885813
2179  2023-10-31 09:52:56.933684
2180  2023-10-31 09:52:56.965603
2181  2023-10-31 09:52:56.997574
2182  2023-10-31 09:52:57.029535
2183  2023-10-31 09:52:57.061385
2184  2023-10-31 09:52:57.093453
2185  2023-10-31 09:52:57.125333
2186  2023-10-31 09:52:57.157277
2187  2023-10-31 09:52:57.189218
2188  2023-10-31 09:52:57.221095
2189  2023-10-31 09:52:57.252986
2190  2023-10-31 09:52:57.284932
2191  2023-10-31 09:52:57.332812
2192  2023-10-31 09:52:57.365715
2193  2023-10-31 09:52:57.397634
2194  2023-10-31 09:52:57.429544
2195  2023-10-31 09:52:57.461463
2196  2023-10-31 09:52:57.493378
2197  2023-10-31 09:52:57.525287
2198  2023-10-31 09:52:57.557222
2199  2023-10-31 09:52:57.589127
2200  2023-10-31 09:52:57.621036
2201  2023-10-31 09:52:57.652916
2202  2023-10-31 09:52:57.684878
2203  2023-10-31 09:52:57.733773
2204  2023-10-31 09:52:57.765647
2205  2023-10-31 09:52:57.797561
2206  2023-10-31 09:52:57.829481
2207  2023-10-31 09:52:57.861395
2208  2023-10-31 09:52:57.893305
2209  2023-10-31 09:52:57.925220
2210  2023-10-31 09:52:57.957160
2211  2023-10-31 09:52:57.989054
2212  2023-10-31 09:52:58.020968
2213  2023-10-31 09:52:58.052879
2214  2023-10-31 09:52:58.101742
2215  2023-10-31 09:52:58.133664
2216  2023-10-31 09:52:58.165619
2217  2023-10-31 09:52:58.197494
2218  2023-10-31 09:52:58.229411
2219  2023-10-31 09:52:58.261325
2220  2023-10-31 09:52:58.293205
2221  2023-10-31 09:52:58.325254
2222  2023-10-31 09:52:58.357232
2223  2023-10-31 09:52:58.389216
2224  2023-10-31 09:52:58.421030
2225  2023-10-31 09:52:58.452990
2226  2023-10-31 09:52:58.501895
2227  2023-10-31 09:52:58.533810
2228  2023-10-31 09:52:58.565681
2229  2023-10-31 09:52:58.597602
2230  2023-10-31 09:52:58.629503
2231  2023-10-31 09:52:58.661417
2232  2023-10-31 09:52:58.693332
2233  2023-10-31 09:52:58.725247
2234  2023-10-31 09:52:58.757161
2235  2023-10-31 09:52:58.789075
2236  2023-10-31 09:52:58.821072
2237  2023-10-31 09:52:58.852958
2238  2023-10-31 09:52:58.901003
2239  2023-10-31 09:52:58.932886
2240  2023-10-31 09:52:58.964801
2241  2023-10-31 09:52:58.996716
2242  2023-10-31 09:52:59.029647
2243  2023-10-31 09:52:59.061540
2244  2023-10-31 09:52:59.093460
2245  2023-10-31 09:52:59.125370
2246  2023-10-31 09:52:59.157284
2247  2023-10-31 09:52:59.189244
2248  2023-10-31 09:52:59.221125
2249  2023-10-31 09:52:59.253034
2250  2023-10-31 09:52:59.300869
2251  2023-10-31 09:52:59.332819
2252  2023-10-31 09:52:59.365735
2253  2023-10-31 09:52:59.397644
2254  2023-10-31 09:52:59.429563
2255  2023-10-31 09:52:59.461473
2256  2023-10-31 09:52:59.493389
2257  2023-10-31 09:52:59.525295
2258  2023-10-31 09:52:59.557209
2259  2023-10-31 09:52:59.589150
2260  2023-10-31 09:52:59.621047
2261  2023-10-31 09:52:59.652990
2262  2023-10-31 09:52:59.700841
2263  2023-10-31 09:52:59.733775
2264  2023-10-31 09:52:59.765659
2265  2023-10-31 09:52:59.797573
2266  2023-10-31 09:52:59.829487
2267  2023-10-31 09:52:59.861445
2268  2023-10-31 09:52:59.893311
2269  2023-10-31 09:52:59.925232
2270  2023-10-31 09:52:59.957167
2271  2023-10-31 09:52:59.989082
2272  2023-10-31 09:53:00.020976
2273  2023-10-31 09:53:00.052893
2274  2023-10-31 09:53:00.101757
2275  2023-10-31 09:53:00.133678
2276  2023-10-31 09:53:00.165594
2277  2023-10-31 09:53:00.197508
2278  2023-10-31 09:53:00.229420
2279  2023-10-31 09:53:00.261344
2280  2023-10-31 09:53:00.293259
2281  2023-10-31 09:53:00.325183
2282  2023-10-31 09:53:00.357078
2283  2023-10-31 09:53:00.388964
2284  2023-10-31 09:53:00.420879
2285  2023-10-31 09:53:00.452825
2286  2023-10-31 09:53:00.501713
2287  2023-10-31 09:53:00.533621
2288  2023-10-31 09:53:00.565514
2289  2023-10-31 09:53:00.597437
2290  2023-10-31 09:53:00.629353
2291  2023-10-31 09:53:00.661303
2292  2023-10-31 09:53:00.693208
2293  2023-10-31 09:53:00.725096
2294  2023-10-31 09:53:00.757012
2295  2023-10-31 09:53:00.788976
2296  2023-10-31 09:53:00.820843
2297  2023-10-31 09:53:00.853783
2298  2023-10-31 09:53:00.901625
2299  2023-10-31 09:53:00.933538
2300  2023-10-31 09:53:00.965454
2301  2023-10-31 09:53:00.997366
2302  2023-10-31 09:53:01.029275
2303  2023-10-31 09:53:01.061206
2304  2023-10-31 09:53:01.093132
2305  2023-10-31 09:53:01.125026
2306  2023-10-31 09:53:01.156942
2307  2023-10-31 09:53:01.188860
2308  2023-10-31 09:53:01.220791
2309  2023-10-31 09:53:01.253683
2310  2023-10-31 09:53:01.301555
2311  2023-10-31 09:53:01.333469
2312  2023-10-31 09:53:01.365384
2313  2023-10-31 09:53:01.397299
2314  2023-10-31 09:53:01.429208
2315  2023-10-31 09:53:01.461133
2316  2023-10-31 09:53:01.493044
2317  2023-10-31 09:53:01.524957
2318  2023-10-31 09:53:01.556874
2319  2023-10-31 09:53:01.588789
2320  2023-10-31 09:53:01.621709
2321  2023-10-31 09:53:01.653621
2322  2023-10-31 09:53:01.701486
2323  2023-10-31 09:53:01.733400
2324  2023-10-31 09:53:01.765308
2325  2023-10-31 09:53:01.797224
2326  2023-10-31 09:53:01.829167
2327  2023-10-31 09:53:01.861062
2328  2023-10-31 09:53:01.893026
2329  2023-10-31 09:53:01.925909
2330  2023-10-31 09:53:01.956806
2331  2023-10-31 09:53:01.989772
2332  2023-10-31 09:53:02.021631
2333  2023-10-31 09:53:02.069524
2334  2023-10-31 09:53:02.101440
2335  2023-10-31 09:53:02.133302
2336  2023-10-31 09:53:02.165252
2337  2023-10-31 09:53:02.197178
2338  2023-10-31 09:53:02.229088
2339  2023-10-31 09:53:02.260961
2340  2023-10-31 09:53:02.292906
2341  2023-10-31 09:53:02.324821
2342  2023-10-31 09:53:02.357775
2343  2023-10-31 09:53:02.389617
2344  2023-10-31 09:53:02.421563
2345  2023-10-31 09:53:02.469446
2346  2023-10-31 09:53:02.501349
2347  2023-10-31 09:53:02.533263
2348  2023-10-31 09:53:02.565146
2349  2023-10-31 09:53:02.597086
2350  2023-10-31 09:53:02.629015
2351  2023-10-31 09:53:02.660891
2352  2023-10-31 09:53:02.693850
2353  2023-10-31 09:53:02.724767
2354  2023-10-31 09:53:02.757669
2355  2023-10-31 09:53:02.789573
2356  2023-10-31 09:53:02.821497
2357  2023-10-31 09:53:02.869385
2358  2023-10-31 09:53:02.901281
2359  2023-10-31 09:53:02.933195
2360  2023-10-31 09:53:02.965124
2361  2023-10-31 09:53:02.996992
2362  2023-10-31 09:53:03.028954
2363  2023-10-31 09:53:03.060861
2364  2023-10-31 09:53:03.093784
2365  2023-10-31 09:53:03.125648
2366  2023-10-31 09:53:03.157563
2367  2023-10-31 09:53:03.189523
2368  2023-10-31 09:53:03.221417
2369  2023-10-31 09:53:03.269290
2370  2023-10-31 09:53:03.301229
2371  2023-10-31 09:53:03.333157
2372  2023-10-31 09:53:03.365008
2373  2023-10-31 09:53:03.396923
2374  2023-10-31 09:53:03.428871
2375  2023-10-31 09:53:03.460789
2376  2023-10-31 09:53:03.493689
2377  2023-10-31 09:53:03.525579
2378  2023-10-31 09:53:03.557494
2379  2023-10-31 09:53:03.589435
2380  2023-10-31 09:53:03.621353
2381  2023-10-31 09:53:03.669261
2382  2023-10-31 09:53:03.701147
2383  2023-10-31 09:53:03.733071
2384  2023-10-31 09:53:03.764940
2385  2023-10-31 09:53:03.796854
2386  2023-10-31 09:53:03.828801
2387  2023-10-31 09:53:03.861681
2388  2023-10-31 09:53:03.893628
2389  2023-10-31 09:53:03.925511
2390  2023-10-31 09:53:03.957425
2391  2023-10-31 09:53:03.989371
2392  2023-10-31 09:53:04.021281
2393  2023-10-31 09:53:04.069163
2394  2023-10-31 09:53:04.101075
2395  2023-10-31 09:53:04.133987
2396  2023-10-31 09:53:04.164872
2397  2023-10-31 09:53:04.196787
2398  2023-10-31 09:53:04.228749
2399  2023-10-31 09:53:04.261654
2400  2023-10-31 09:53:04.293529
2401  2023-10-31 09:53:04.325443
2402  2023-10-31 09:53:04.357358
2403  2023-10-31 09:53:04.389327
2404  2023-10-31 09:53:04.421189
2405  2023-10-31 09:53:04.469061
2406  2023-10-31 09:53:04.501006
2407  2023-10-31 09:53:04.533886
2408  2023-10-31 09:53:04.564804
2409  2023-10-31 09:53:04.596751
2410  2023-10-31 09:53:04.629720
2411  2023-10-31 09:53:04.661675
2412  2023-10-31 09:53:04.693567
2413  2023-10-31 09:53:04.725603
2414  2023-10-31 09:53:04.757464
2415  2023-10-31 09:53:04.789352
2416  2023-10-31 09:53:04.821267
2417  2023-10-31 09:53:04.869139
2418  2023-10-31 09:53:04.901054
2419  2023-10-31 09:53:04.933005
2420  2023-10-31 09:53:04.964916
2421  2023-10-31 09:53:04.996798
2422  2023-10-31 09:53:05.029713
2423  2023-10-31 09:53:05.061703
2424  2023-10-31 09:53:05.093719
2425  2023-10-31 09:53:05.125632
2426  2023-10-31 09:53:05.157547
2427  2023-10-31 09:53:05.189462
2428  2023-10-31 09:53:05.221408
2429  2023-10-31 09:53:05.269274
2430  2023-10-31 09:53:05.301197
2431  2023-10-31 09:53:05.333078
2432  2023-10-31 09:53:05.364993
2433  2023-10-31 09:53:05.396938
2434  2023-10-31 09:53:05.428853
2435  2023-10-31 09:53:05.460737
2436  2023-10-31 09:53:05.493649
2437  2023-10-31 09:53:05.525564
2438  2023-10-31 09:53:05.557503
2439  2023-10-31 09:53:05.589393
2440  2023-10-31 09:53:05.637297
2441  2023-10-31 09:53:05.670178
2442  2023-10-31 09:53:05.701095
2443  2023-10-31 09:53:05.733068
2444  2023-10-31 09:53:05.765077
2445  2023-10-31 09:53:05.796960
2446  2023-10-31 09:53:05.828874
2447  2023-10-31 09:53:05.861786
2448  2023-10-31 09:53:05.893701
2449  2023-10-31 09:53:05.925616
2450  2023-10-31 09:53:05.957531
2451  2023-10-31 09:53:05.989564
2452  2023-10-31 09:53:06.037436
2453  2023-10-31 09:53:06.069351
2454  2023-10-31 09:53:06.101266
2455  2023-10-31 09:53:06.133180
2456  2023-10-31 09:53:06.165095
2457  2023-10-31 09:53:06.197010
2458  2023-10-31 09:53:06.228924
2459  2023-10-31 09:53:06.260839
2460  2023-10-31 09:53:06.293751
2461  2023-10-31 09:53:06.324669
2462  2023-10-31 09:53:06.357580
2463  2023-10-31 09:53:06.389495
2464  2023-10-31 09:53:06.437367
2465  2023-10-31 09:53:06.469282
2466  2023-10-31 09:53:06.501197
2467  2023-10-31 09:53:06.533111
2468  2023-10-31 09:53:06.565026
2469  2023-10-31 09:53:06.596941
2470  2023-10-31 09:53:06.628856
2471  2023-10-31 09:53:06.661768
2472  2023-10-31 09:53:06.693823
2473  2023-10-31 09:53:06.725733
2474  2023-10-31 09:53:06.757648
2475  2023-10-31 09:53:06.789562
2476  2023-10-31 09:53:06.837434
2477  2023-10-31 09:53:06.869349
2478  2023-10-31 09:53:06.901436
2479  2023-10-31 09:53:06.933378
2480  2023-10-31 09:53:06.965293
2481  2023-10-31 09:53:06.997221
2482  2023-10-31 09:53:07.029123
2483  2023-10-31 09:53:07.061037
2484  2023-10-31 09:53:07.093949
2485  2023-10-31 09:53:07.125966
2486  2023-10-31 09:53:07.157966
2487  2023-10-31 09:53:07.188884
2488  2023-10-31 09:53:07.236756
2489  2023-10-31 09:53:07.269668
2490  2023-10-31 09:53:07.301618
2491  2023-10-31 09:53:07.333497
2492  2023-10-31 09:53:07.365412
2493  2023-10-31 09:53:07.397327
2494  2023-10-31 09:53:07.429242
2495  2023-10-31 09:53:07.461214
2496  2023-10-31 09:53:07.493202
2497  2023-10-31 09:53:07.525186
2498  2023-10-31 09:53:07.557197
2499  2023-10-31 09:53:07.589159
2500  2023-10-31 09:53:07.637444
2501  2023-10-31 09:53:07.669359
2502  2023-10-31 09:53:07.701273
2503  2023-10-31 09:53:07.733187
2504  2023-10-31 09:53:07.765141
2505  2023-10-31 09:53:07.797212
2506  2023-10-31 09:53:07.829102
2507  2023-10-31 09:53:07.861015
2508  2023-10-31 09:53:07.892935
2509  2023-10-31 09:53:07.924850
2510  2023-10-31 09:53:07.957765
2511  2023-10-31 09:53:07.989672
2512  2023-10-31 09:53:08.037544
2513  2023-10-31 09:53:08.069459
2514  2023-10-31 09:53:08.101373
2515  2023-10-31 09:53:08.133386
2516  2023-10-31 09:53:08.165269
2517  2023-10-31 09:53:08.197184
2518  2023-10-31 09:53:08.229147
2519  2023-10-31 09:53:08.261046
2520  2023-10-31 09:53:08.292928
2521  2023-10-31 09:53:08.324843
2522  2023-10-31 09:53:08.357755
2523  2023-10-31 09:53:08.389670
2524  2023-10-31 09:53:08.437542
2525  2023-10-31 09:53:08.469456
2526  2023-10-31 09:53:08.501371
2527  2023-10-31 09:53:08.533286
2528  2023-10-31 09:53:08.565231
2529  2023-10-31 09:53:08.597165
2530  2023-10-31 09:53:08.629030
2531  2023-10-31 09:53:08.660945
2532  2023-10-31 09:53:08.692859
2533  2023-10-31 09:53:08.725772
2534  2023-10-31 09:53:08.757690
2535  2023-10-31 09:53:08.789601
2536  2023-10-31 09:53:08.837473
2537  2023-10-31 09:53:08.869388
2538  2023-10-31 09:53:08.901302
2539  2023-10-31 09:53:08.933217
2540  2023-10-31 09:53:08.966131
2541  2023-10-31 09:53:08.997047
2542  2023-10-31 09:53:09.028961
2543  2023-10-31 09:53:09.060876
2544  2023-10-31 09:53:09.093840
2545  2023-10-31 09:53:09.124705
2546  2023-10-31 09:53:09.157618
2547  2023-10-31 09:53:09.205490
2548  2023-10-31 09:53:09.237404
2549  2023-10-31 09:53:09.269319
2550  2023-10-31 09:53:09.302232
2551  2023-10-31 09:53:09.333151
2552  2023-10-31 09:53:09.365063
2553  2023-10-31 09:53:09.396978
2554  2023-10-31 09:53:09.428929
2555  2023-10-31 09:53:09.461805
2556  2023-10-31 09:53:09.493719
2557  2023-10-31 09:53:09.525634
2558  2023-10-31 09:53:09.557581
2559  2023-10-31 09:53:09.605421
2560  2023-10-31 09:53:09.637361
2561  2023-10-31 09:53:09.669250
2562  2023-10-31 09:53:09.701165
2563  2023-10-31 09:53:09.733080
2564  2023-10-31 09:53:09.765031
2565  2023-10-31 09:53:09.796951
2566  2023-10-31 09:53:09.828883
2567  2023-10-31 09:53:09.860797
2568  2023-10-31 09:53:09.893779
2569  2023-10-31 09:53:09.925661
2570  2023-10-31 09:53:09.957718
2571  2023-10-31 09:53:10.005590
2572  2023-10-31 09:53:10.037505
2573  2023-10-31 09:53:10.069420
2574  2023-10-31 09:53:10.101334
2575  2023-10-31 09:53:10.133249
2576  2023-10-31 09:53:10.165164
2577  2023-10-31 09:53:10.197079
2578  2023-10-31 09:53:10.228993
2579  2023-10-31 09:53:10.261028
2580  2023-10-31 09:53:10.292942
2581  2023-10-31 09:53:10.324972
2582  2023-10-31 09:53:10.356907
2583  2023-10-31 09:53:10.405777
2584  2023-10-31 09:53:10.437691
2585  2023-10-31 09:53:10.469606
2586  2023-10-31 09:53:10.501521
2587  2023-10-31 09:53:10.533618
2588  2023-10-31 09:53:10.565533
2589  2023-10-31 09:53:10.597448
2590  2023-10-31 09:53:10.629363
2591  2023-10-31 09:53:10.661277
2592  2023-10-31 09:53:10.693192
2593  2023-10-31 09:53:10.725107
2594  2023-10-31 09:53:10.757022
2595  2023-10-31 09:53:10.805891
2596  2023-10-31 09:53:10.836808
2597  2023-10-31 09:53:10.869774
2598  2023-10-31 09:53:10.901635
2599  2023-10-31 09:53:10.933550
2600  2023-10-31 09:53:10.965465
2601  2023-10-31 09:53:10.997379
2602  2023-10-31 09:53:11.029294
2603  2023-10-31 09:53:11.061209
2604  2023-10-31 09:53:11.093123
2605  2023-10-31 09:53:11.125038
2606  2023-10-31 09:53:11.156953
2607  2023-10-31 09:53:11.204825
2608  2023-10-31 09:53:11.236739
2609  2023-10-31 09:53:11.269652
2610  2023-10-31 09:53:11.301598
2611  2023-10-31 09:53:11.333481
2612  2023-10-31 09:53:11.365396
2613  2023-10-31 09:53:11.397310
2614  2023-10-31 09:53:11.429252
2615  2023-10-31 09:53:11.461189
2616  2023-10-31 09:53:11.493055
2617  2023-10-31 09:53:11.524969
2618  2023-10-31 09:53:11.556917
2619  2023-10-31 09:53:11.605754
2620  2023-10-31 09:53:11.637700
2621  2023-10-31 09:53:11.669692
2622  2023-10-31 09:53:11.701606
2623  2023-10-31 09:53:11.733521
2624  2023-10-31 09:53:11.765469
2625  2023-10-31 09:53:11.797397
2626  2023-10-31 09:53:11.829265
2627  2023-10-31 09:53:11.861180
2628  2023-10-31 09:53:11.893135
2629  2023-10-31 09:53:11.925040
2630  2023-10-31 09:53:11.956924
2631  2023-10-31 09:53:12.004796
2632  2023-10-31 09:53:12.037708
2633  2023-10-31 09:53:12.069633
2634  2023-10-31 09:53:12.101571
2635  2023-10-31 09:53:12.133452
2636  2023-10-31 09:53:12.165367
2637  2023-10-31 09:53:12.197282
2638  2023-10-31 09:53:12.229197
2639  2023-10-31 09:53:12.261111
2640  2023-10-31 09:53:12.293026
2641  2023-10-31 09:53:12.324941
2642  2023-10-31 09:53:12.357853
2643  2023-10-31 09:53:12.404845
2644  2023-10-31 09:53:12.437757
2645  2023-10-31 09:53:12.469672
2646  2023-10-31 09:53:12.502617
2647  2023-10-31 09:53:12.534546
2648  2023-10-31 09:53:12.566447
2649  2023-10-31 09:53:12.598360
2650  2023-10-31 09:53:12.630273
2651  2023-10-31 09:53:12.662208
2652  2023-10-31 09:53:12.694102
2653  2023-10-31 09:53:12.727017
2654  2023-10-31 09:53:12.758972
2655  2023-10-31 09:53:12.806805
2656  2023-10-31 09:53:12.838728
2657  2023-10-31 09:53:12.870634
2658  2023-10-31 09:53:12.902568
2659  2023-10-31 09:53:12.934461
2660  2023-10-31 09:53:12.966382
2661  2023-10-31 09:53:12.998302
2662  2023-10-31 09:53:13.031195
2663  2023-10-31 09:53:13.062157
2664  2023-10-31 09:53:13.095003
2665  2023-10-31 09:53:13.125920
2666  2023-10-31 09:53:13.173799
2667  2023-10-31 09:53:13.205706
2668  2023-10-31 09:53:13.238617
2669  2023-10-31 09:53:13.270584
2670  2023-10-31 09:53:13.302515
2671  2023-10-31 09:53:13.333634
2672  2023-10-31 09:53:13.366514
2673  2023-10-31 09:53:13.398458
2674  2023-10-31 09:53:13.430371
2675  2023-10-31 09:53:13.462310
2676  2023-10-31 09:53:13.494171
2677  2023-10-31 09:53:13.526086
2678  2023-10-31 09:53:13.573958
2679  2023-10-31 09:53:13.605873
2680  2023-10-31 09:53:13.638785
2681  2023-10-31 09:53:13.669708
2682  2023-10-31 09:53:13.701714
2683  2023-10-31 09:53:13.733603
2684  2023-10-31 09:53:13.765548
2685  2023-10-31 09:53:13.797432
2686  2023-10-31 09:53:13.830387
2687  2023-10-31 09:53:13.861260
2688  2023-10-31 09:53:13.893310
2689  2023-10-31 09:53:13.925243
2690  2023-10-31 09:53:13.974101
2691  2023-10-31 09:53:14.006014
2692  2023-10-31 09:53:14.037995
2693  2023-10-31 09:53:14.069845
2694  2023-10-31 09:53:14.101810
2695  2023-10-31 09:53:14.133676
2696  2023-10-31 09:53:14.165624
2697  2023-10-31 09:53:14.197532
2698  2023-10-31 09:53:14.229458
2699  2023-10-31 09:53:14.261367
2700  2023-10-31 09:53:14.293272
2701  2023-10-31 09:53:14.325220
2702  2023-10-31 09:53:14.375072
2703  2023-10-31 09:53:14.405948
2704  2023-10-31 09:53:14.437860
2705  2023-10-31 09:53:14.469775
2706  2023-10-31 09:53:14.501690
2707  2023-10-31 09:53:14.534636
2708  2023-10-31 09:53:14.565585
2709  2023-10-31 09:53:14.598457
2710  2023-10-31 09:53:14.629379
2711  2023-10-31 09:53:14.661273
2712  2023-10-31 09:53:14.693218
2713  2023-10-31 09:53:14.727136
2714  2023-10-31 09:53:14.773008
2715  2023-10-31 09:53:14.806911
2716  2023-10-31 09:53:14.838837
2717  2023-10-31 09:53:14.869706
2718  2023-10-31 09:53:14.901621
2719  2023-10-31 09:53:14.934591
2720  2023-10-31 09:53:14.965602
2721  2023-10-31 09:53:14.997516
2722  2023-10-31 09:53:15.029432
2723  2023-10-31 09:53:15.061390
2724  2023-10-31 09:53:15.094434
2725  2023-10-31 09:53:15.126360
2726  2023-10-31 09:53:15.173194
2727  2023-10-31 09:53:15.206135
2728  2023-10-31 09:53:15.239063
2729  2023-10-31 09:53:15.268937
2730  2023-10-31 09:53:15.301880
2731  2023-10-31 09:53:15.333763
2732  2023-10-31 09:53:15.365677
2733  2023-10-31 09:53:15.397591
2734  2023-10-31 09:53:15.429565
2735  2023-10-31 09:53:15.461420
2736  2023-10-31 09:53:15.493382
2737  2023-10-31 09:53:15.526280
2738  2023-10-31 09:53:15.574272
2739  2023-10-31 09:53:15.606174
2740  2023-10-31 09:53:15.639102
2741  2023-10-31 09:53:15.668969
2742  2023-10-31 09:53:15.701883
2743  2023-10-31 09:53:15.733864
2744  2023-10-31 09:53:15.765789
2745  2023-10-31 09:53:15.797690
2746  2023-10-31 09:53:15.829573
2747  2023-10-31 09:53:15.861456
2748  2023-10-31 09:53:15.893441
2749  2023-10-31 09:53:15.925337
2750  2023-10-31 09:53:15.973221
2751  2023-10-31 09:53:16.006119
2752  2023-10-31 09:53:16.038031
2753  2023-10-31 09:53:16.069912
2754  2023-10-31 09:53:16.100850
2755  2023-10-31 09:53:16.133759
2756  2023-10-31 09:53:16.165644
2757  2023-10-31 09:53:16.197588
2758  2023-10-31 09:53:16.229504
2759  2023-10-31 09:53:16.261388
2760  2023-10-31 09:53:16.293337
2761  2023-10-31 09:53:16.325247
2762  2023-10-31 09:53:16.373119
2763  2023-10-31 09:53:16.405032
2764  2023-10-31 09:53:16.437942
2765  2023-10-31 09:53:16.468872
2766  2023-10-31 09:53:16.500748
2767  2023-10-31 09:53:16.533683
2768  2023-10-31 09:53:16.565605
2769  2023-10-31 09:53:16.597520
2770  2023-10-31 09:53:16.630427
2771  2023-10-31 09:53:16.661349
2772  2023-10-31 09:53:16.693269
2773  2023-10-31 09:53:16.741146
2774  2023-10-31 09:53:16.774017
2775  2023-10-31 09:53:16.805968
2776  2023-10-31 09:53:16.837861
2777  2023-10-31 09:53:16.869762
2778  2023-10-31 09:53:16.901724
2779  2023-10-31 09:53:16.933623
2780  2023-10-31 09:53:16.965573
2781  2023-10-31 09:53:16.997464
2782  2023-10-31 09:53:17.029369
2783  2023-10-31 09:53:17.061312
2784  2023-10-31 09:53:17.093235
2785  2023-10-31 09:53:17.141243
2786  2023-10-31 09:53:17.173214
2787  2023-10-31 09:53:17.205110
2788  2023-10-31 09:53:17.237998
2789  2023-10-31 09:53:17.269868
2790  2023-10-31 09:53:17.300829
2791  2023-10-31 09:53:17.333721
2792  2023-10-31 09:53:17.365609
2793  2023-10-31 09:53:17.397552
2794  2023-10-31 09:53:17.429492
2795  2023-10-31 09:53:17.461351
2796  2023-10-31 09:53:17.493299
2797  2023-10-31 09:53:17.541138
2798  2023-10-31 09:53:17.573052
2799  2023-10-31 09:53:17.605966
2800  2023-10-31 09:53:17.636911
2801  2023-10-31 09:53:17.669825
2802  2023-10-31 09:53:17.701783
2803  2023-10-31 09:53:17.733678
2804  2023-10-31 09:53:17.765569
2805  2023-10-31 09:53:17.797485
2806  2023-10-31 09:53:17.829400
2807  2023-10-31 09:53:17.861314
2808  2023-10-31 09:53:17.893253
2809  2023-10-31 09:53:17.941113
2810  2023-10-31 09:53:17.973026
2811  2023-10-31 09:53:18.005922
2812  2023-10-31 09:53:18.036846
2813  2023-10-31 09:53:18.069783
2814  2023-10-31 09:53:18.101672
2815  2023-10-31 09:53:18.133590
2816  2023-10-31 09:53:18.165502
2817  2023-10-31 09:53:18.197416
2818  2023-10-31 09:53:18.229331
2819  2023-10-31 09:53:18.261241
2820  2023-10-31 09:53:18.293199
2821  2023-10-31 09:53:18.341998
2822  2023-10-31 09:53:18.373912
2823  2023-10-31 09:53:18.404877
2824  2023-10-31 09:53:18.437781
2825  2023-10-31 09:53:18.469688
2826  2023-10-31 09:53:18.501571
2827  2023-10-31 09:53:18.533518
2828  2023-10-31 09:53:18.565432
2829  2023-10-31 09:53:18.597347
2830  2023-10-31 09:53:18.630229
2831  2023-10-31 09:53:18.661189
2832  2023-10-31 09:53:18.693093
2833  2023-10-31 09:53:18.740933
2834  2023-10-31 09:53:18.772846
2835  2023-10-31 09:53:18.805761
2836  2023-10-31 09:53:18.837732
2837  2023-10-31 09:53:18.869591
2838  2023-10-31 09:53:18.901537
2839  2023-10-31 09:53:18.933421
2840  2023-10-31 09:53:18.965398
2841  2023-10-31 09:53:18.997217
2842  2023-10-31 09:53:19.029131
2843  2023-10-31 09:53:19.061117
2844  2023-10-31 09:53:19.093032
2845  2023-10-31 09:53:19.141907
2846  2023-10-31 09:53:19.173785
2847  2023-10-31 09:53:19.205740
2848  2023-10-31 09:53:19.237638
2849  2023-10-31 09:53:19.269571
2850  2023-10-31 09:53:19.301485
2851  2023-10-31 09:53:19.333382
2852  2023-10-31 09:53:19.365299
2853  2023-10-31 09:53:19.397223
2854  2023-10-31 09:53:19.429125
2855  2023-10-31 09:53:19.461045
2856  2023-10-31 09:53:19.492951
2857  2023-10-31 09:53:19.540797
2858  2023-10-31 09:53:19.573729
2859  2023-10-31 09:53:19.605654
2860  2023-10-31 09:53:19.637564
2861  2023-10-31 09:53:19.669478
2862  2023-10-31 09:53:19.701397
2863  2023-10-31 09:53:19.733317
2864  2023-10-31 09:53:19.765223
2865  2023-10-31 09:53:19.797184
2866  2023-10-31 09:53:19.829057
2867  2023-10-31 09:53:19.860973
2868  2023-10-31 09:53:19.892903
2869  2023-10-31 09:53:19.941726
2870  2023-10-31 09:53:19.973674
2871  2023-10-31 09:53:20.005554
2872  2023-10-31 09:53:20.037503
2873  2023-10-31 09:53:20.069432
2874  2023-10-31 09:53:20.101349
2875  2023-10-31 09:53:20.133245
2876  2023-10-31 09:53:20.165159
2877  2023-10-31 09:53:20.197074
2878  2023-10-31 09:53:20.229003
2879  2023-10-31 09:53:20.261967
2880  2023-10-31 09:53:20.293783
2881  2023-10-31 09:53:20.341656
2882  2023-10-31 09:53:20.373598
2883  2023-10-31 09:53:20.405515
2884  2023-10-31 09:53:20.437433
2885  2023-10-31 09:53:20.469363
2886  2023-10-31 09:53:20.501271
2887  2023-10-31 09:53:20.533169
2888  2023-10-31 09:53:20.565103
2889  2023-10-31 09:53:20.597004
2890  2023-10-31 09:53:20.629915
2891  2023-10-31 09:53:20.661825
2892  2023-10-31 09:53:20.709695
2893  2023-10-31 09:53:20.741622
2894  2023-10-31 09:53:20.773541
2895  2023-10-31 09:53:20.805454
2896  2023-10-31 09:53:20.837366
2897  2023-10-31 09:53:20.869301
2898  2023-10-31 09:53:20.901210
2899  2023-10-31 09:53:20.933114
2900  2023-10-31 09:53:20.964990
2901  2023-10-31 09:53:20.996949
2902  2023-10-31 09:53:21.028852
2903  2023-10-31 09:53:21.061766
2904  2023-10-31 09:53:21.109631
2905  2023-10-31 09:53:21.141552
2906  2023-10-31 09:53:21.173433
2907  2023-10-31 09:53:21.205347
2908  2023-10-31 09:53:21.237307
2909  2023-10-31 09:53:21.269204
2910  2023-10-31 09:53:21.301126
2911  2023-10-31 09:53:21.333035
2912  2023-10-31 09:53:21.364948
2913  2023-10-31 09:53:21.396885
2914  2023-10-31 09:53:21.429749
2915  2023-10-31 09:53:21.461693
2916  2023-10-31 09:53:21.509578
2917  2023-10-31 09:53:21.541486
2918  2023-10-31 09:53:21.573364
2919  2023-10-31 09:53:21.605328
2920  2023-10-31 09:53:21.637235
2921  2023-10-31 09:53:21.669235
2922  2023-10-31 09:53:21.701137
2923  2023-10-31 09:53:21.733034
2924  2023-10-31 09:53:21.764953
2925  2023-10-31 09:53:21.797863
2926  2023-10-31 09:53:21.829801
2927  2023-10-31 09:53:21.861712
2928  2023-10-31 09:53:21.909539
2929  2023-10-31 09:53:21.941454
2930  2023-10-31 09:53:21.973401
2931  2023-10-31 09:53:22.005282
2932  2023-10-31 09:53:22.037197
2933  2023-10-31 09:53:22.069144
2934  2023-10-31 09:53:22.101058
2935  2023-10-31 09:53:22.132943
2936  2023-10-31 09:53:22.165853
2937  2023-10-31 09:53:22.196802
2938  2023-10-31 09:53:22.229712
2939  2023-10-31 09:53:22.261626
2940  2023-10-31 09:53:22.309471
2941  2023-10-31 09:53:22.341436
2942  2023-10-31 09:53:22.373334
2943  2023-10-31 09:53:22.405213
2944  2023-10-31 09:53:22.437171
2945  2023-10-31 09:53:22.470068
2946  2023-10-31 09:53:22.501023
2947  2023-10-31 09:53:22.532908
2948  2023-10-31 09:53:22.565784
2949  2023-10-31 09:53:22.596742
2950  2023-10-31 09:53:22.629654
2951  2023-10-31 09:53:22.661572
2952  2023-10-31 09:53:22.709428
2953  2023-10-31 09:53:22.741347
2954  2023-10-31 09:53:22.773272
2955  2023-10-31 09:53:22.806201
2956  2023-10-31 09:53:22.837060
2957  2023-10-31 09:53:22.870003
2958  2023-10-31 09:53:22.900921
2959  2023-10-31 09:53:22.932838
2960  2023-10-31 09:53:22.965715
2961  2023-10-31 09:53:22.997630
2962  2023-10-31 09:53:23.029547
2963  2023-10-31 09:53:23.061462
2964  2023-10-31 09:53:23.109365
2965  2023-10-31 09:53:23.141292
2966  2023-10-31 09:53:23.173213
2967  2023-10-31 09:53:23.205076
2968  2023-10-31 09:53:23.237988
2969  2023-10-31 09:53:23.268938
2970  2023-10-31 09:53:23.300867
2971  2023-10-31 09:53:23.333770
2972  2023-10-31 09:53:23.365647
2973  2023-10-31 09:53:23.397561
2974  2023-10-31 09:53:23.429510
2975  2023-10-31 09:53:23.461427
2976  2023-10-31 09:53:23.509295
2977  2023-10-31 09:53:23.541180
2978  2023-10-31 09:53:23.574092
2979  2023-10-31 09:53:23.606005
2980  2023-10-31 09:53:23.637919
2981  2023-10-31 09:53:23.669836
2982  2023-10-31 09:53:23.701828
2983  2023-10-31 09:53:23.733714
2984  2023-10-31 09:53:23.765630
2985  2023-10-31 09:53:23.797545
2986  2023-10-31 09:53:23.829458
2987  2023-10-31 09:53:23.861373
2988  2023-10-31 09:53:23.909422
2989  2023-10-31 09:53:23.941368
2990  2023-10-31 09:53:23.973301
2991  2023-10-31 09:53:24.005218
2992  2023-10-31 09:53:24.037079
2993  2023-10-31 09:53:24.069032
2994  2023-10-31 09:53:24.100942
2995  2023-10-31 09:53:24.132866
2996  2023-10-31 09:53:24.164787
2997  2023-10-31 09:53:24.197724
2998  2023-10-31 09:53:24.229634
2999  2023-10-31 09:53:24.277506
3000  2023-10-31 09:53:24.309674
3001  2023-10-31 09:53:24.341589
3002  2023-10-31 09:53:24.373504
3003  2023-10-31 09:53:24.405450
3004  2023-10-31 09:53:24.437334
3005  2023-10-31 09:53:24.469248
3006  2023-10-31 09:53:24.501282
3007  2023-10-31 09:53:24.533190
3008  2023-10-31 09:53:24.565103
3009  2023-10-31 09:53:24.597012
3010  2023-10-31 09:53:24.628898
3011  2023-10-31 09:53:24.676802
3012  2023-10-31 09:53:24.709680
3013  2023-10-31 09:53:24.741595
3014  2023-10-31 09:53:24.773544
3015  2023-10-31 09:53:24.805456
3016  2023-10-31 09:53:24.837373
3017  2023-10-31 09:53:24.869254
3018  2023-10-31 09:53:24.901211
3019  2023-10-31 09:53:24.933196
3020  2023-10-31 09:53:24.965179
3021  2023-10-31 09:53:24.997106
3022  2023-10-31 09:53:25.029057
3023  2023-10-31 09:53:25.076929
3024  2023-10-31 09:53:25.108844
3025  2023-10-31 09:53:25.140791
3026  2023-10-31 09:53:25.173671
3027  2023-10-31 09:53:25.205586
3028  2023-10-31 09:53:25.237500
3029  2023-10-31 09:53:25.269415
3030  2023-10-31 09:53:25.302397
3031  2023-10-31 09:53:25.333244
3032  2023-10-31 09:53:25.365159
3033  2023-10-31 09:53:25.397074
3034  2023-10-31 09:53:25.429989
3035  2023-10-31 09:53:25.476861
3036  2023-10-31 09:53:25.509775
3037  2023-10-31 09:53:25.541691
3038  2023-10-31 09:53:25.573602
3039  2023-10-31 09:53:25.605525
3040  2023-10-31 09:53:25.637432
3041  2023-10-31 09:53:25.670380
3042  2023-10-31 09:53:25.701261
3043  2023-10-31 09:53:25.733182
3044  2023-10-31 09:53:25.765093
3045  2023-10-31 09:53:25.798005
3046  2023-10-31 09:53:25.828920
3047  2023-10-31 09:53:25.876792
3048  2023-10-31 09:53:25.909704
3049  2023-10-31 09:53:25.941619
3050  2023-10-31 09:53:25.973536
3051  2023-10-31 09:53:26.005451
3052  2023-10-31 09:53:26.037363
3053  2023-10-31 09:53:26.069277
3054  2023-10-31 09:53:26.101203
3055  2023-10-31 09:53:26.133116
3056  2023-10-31 09:53:26.165022
3057  2023-10-31 09:53:26.196936
3058  2023-10-31 09:53:26.228853
3059  2023-10-31 09:53:26.276723
3060  2023-10-31 09:53:26.309808
3061  2023-10-31 09:53:26.341749
3062  2023-10-31 09:53:26.373598
3063  2023-10-31 09:53:26.405656
3064  2023-10-31 09:53:26.437595
3065  2023-10-31 09:53:26.469533
3066  2023-10-31 09:53:26.501397
3067  2023-10-31 09:53:26.533312
3068  2023-10-31 09:53:26.565226
3069  2023-10-31 09:53:26.597199
3070  2023-10-31 09:53:26.629056
3071  2023-10-31 09:53:26.677960
3072  2023-10-31 09:53:26.708842
3073  2023-10-31 09:53:26.741755
3074  2023-10-31 09:53:26.773704
3075  2023-10-31 09:53:26.805626
3076  2023-10-31 09:53:26.837499
3077  2023-10-31 09:53:26.869413
3078  2023-10-31 09:53:26.901328
3079  2023-10-31 09:53:26.933277
3080  2023-10-31 09:53:26.965158
3081  2023-10-31 09:53:26.997072
3082  2023-10-31 09:53:27.028987
3083  2023-10-31 09:53:27.076859
3084  2023-10-31 09:53:27.109771
3085  2023-10-31 09:53:27.141686
3086  2023-10-31 09:53:27.173600
3087  2023-10-31 09:53:27.205637
3088  2023-10-31 09:53:27.237552
3089  2023-10-31 09:53:27.269467
3090  2023-10-31 09:53:27.301414
3091  2023-10-31 09:53:27.333390
3092  2023-10-31 09:53:27.365319
3093  2023-10-31 09:53:27.397336
3094  2023-10-31 09:53:27.429298
3095  2023-10-31 09:53:27.477170
3096  2023-10-31 09:53:27.509085
3097  2023-10-31 09:53:27.541998
3098  2023-10-31 09:53:27.572916
3099  2023-10-31 09:53:27.604831
3100  2023-10-31 09:53:27.636745
3101  2023-10-31 09:53:27.669657
3102  2023-10-31 09:53:27.701572
3103  2023-10-31 09:53:27.733487
3104  2023-10-31 09:53:27.766426
3105  2023-10-31 09:53:27.797319
3106  2023-10-31 09:53:27.845192
3107  2023-10-31 09:53:27.877137
3108  2023-10-31 09:53:27.909021
3109  2023-10-31 09:53:27.940933
3110  2023-10-31 09:53:27.973845
3111  2023-10-31 09:53:28.005760
3112  2023-10-31 09:53:28.037674
3113  2023-10-31 09:53:28.072580
3114  2023-10-31 09:53:28.101549
3115  2023-10-31 09:53:28.133469
3116  2023-10-31 09:53:28.165333
3117  2023-10-31 09:53:28.197248
3118  2023-10-31 09:53:28.245120
3119  2023-10-31 09:53:28.277034
3120  2023-10-31 09:53:28.308884
3121  2023-10-31 09:53:28.340802
3122  2023-10-31 09:53:28.372794
3123  2023-10-31 09:53:28.405706
3124  2023-10-31 09:53:28.437653
3125  2023-10-31 09:53:28.469573
3126  2023-10-31 09:53:28.501452
3127  2023-10-31 09:53:28.533365
3128  2023-10-31 09:53:28.565317
3129  2023-10-31 09:53:28.597227
3130  2023-10-31 09:53:28.645102
3131  2023-10-31 09:53:28.677012
3132  2023-10-31 09:53:28.709893
3133  2023-10-31 09:53:28.741808
3134  2023-10-31 09:53:28.773845
3135  2023-10-31 09:53:28.805760
3136  2023-10-31 09:53:28.837674
3137  2023-10-31 09:53:28.869589
3138  2023-10-31 09:53:28.901504
3139  2023-10-31 09:53:28.933455
3140  2023-10-31 09:53:28.965333
3141  2023-10-31 09:53:28.997307
3142  2023-10-31 09:53:29.045179
3143  2023-10-31 09:53:29.077094
3144  2023-10-31 09:53:29.109084
3145  2023-10-31 09:53:29.141023
3146  2023-10-31 09:53:29.173955
3147  2023-10-31 09:53:29.205870
3148  2023-10-31 09:53:29.237785
3149  2023-10-31 09:53:29.269699
3150  2023-10-31 09:53:29.301614
3151  2023-10-31 09:53:29.333529
3152  2023-10-31 09:53:29.365443
3153  2023-10-31 09:53:29.397358
3154  2023-10-31 09:53:29.445353
3155  2023-10-31 09:53:29.477268
3156  2023-10-31 09:53:29.509188
3157  2023-10-31 09:53:29.541097
3158  2023-10-31 09:53:29.573012
3159  2023-10-31 09:53:29.605924
3160  2023-10-31 09:53:29.636841
3161  2023-10-31 09:53:29.669754
3162  2023-10-31 09:53:29.701668
3163  2023-10-31 09:53:29.733583
3164  2023-10-31 09:53:29.766496
3165  2023-10-31 09:53:29.798452
3166  2023-10-31 09:53:29.846282
3167  2023-10-31 09:53:29.878197
3168  2023-10-31 09:53:29.909114
3169  2023-10-31 09:53:29.942026
3170  2023-10-31 09:53:29.973955
3171  2023-10-31 09:53:30.005856
3172  2023-10-31 09:53:30.036772
3173  2023-10-31 09:53:30.069691
3174  2023-10-31 09:53:30.101628
3175  2023-10-31 09:53:30.133552
3176  2023-10-31 09:53:30.165436
3177  2023-10-31 09:53:30.197343
3178  2023-10-31 09:53:30.245216
3179  2023-10-31 09:53:30.277135
3180  2023-10-31 09:53:30.309088
3181  2023-10-31 09:53:30.341995
3182  2023-10-31 09:53:30.372874
3183  2023-10-31 09:53:30.405788
3184  2023-10-31 09:53:30.437760
3185  2023-10-31 09:53:30.469652
3186  2023-10-31 09:53:30.501531
3187  2023-10-31 09:53:30.533445
3188  2023-10-31 09:53:30.565398
3189  2023-10-31 09:53:30.597275
3190  2023-10-31 09:53:30.645147
3191  2023-10-31 09:53:30.677061
3192  2023-10-31 09:53:30.709975
3193  2023-10-31 09:53:30.740891
3194  2023-10-31 09:53:30.772806
3195  2023-10-31 09:53:30.805718
3196  2023-10-31 09:53:30.837632
3197  2023-10-31 09:53:30.869547
3198  2023-10-31 09:53:30.901462
3199  2023-10-31 09:53:30.933376
3200  2023-10-31 09:53:30.965291
3201  2023-10-31 09:53:30.997206
3202  2023-10-31 09:53:31.046107
3203  2023-10-31 09:53:31.076993
3204  2023-10-31 09:53:31.109905
3205  2023-10-31 09:53:31.141821
3206  2023-10-31 09:53:31.173813
3207  2023-10-31 09:53:31.205252
3208  2023-10-31 09:53:31.238167
3209  2023-10-31 09:53:31.269081
3210  2023-10-31 09:53:31.301994
3211  2023-10-31 09:53:31.332910
3212  2023-10-31 09:53:31.365822
3213  2023-10-31 09:53:31.397737
3214  2023-10-31 09:53:31.445635
3215  2023-10-31 09:53:31.477551
3216  2023-10-31 09:53:31.509477
3217  2023-10-31 09:53:31.541354
3218  2023-10-31 09:53:31.573269
3219  2023-10-31 09:53:31.605215
3220  2023-10-31 09:53:31.638130
3221  2023-10-31 09:53:31.670010
3222  2023-10-31 09:53:31.701924
3223  2023-10-31 09:53:31.733839
3224  2023-10-31 09:53:31.765754
3225  2023-10-31 09:53:31.813666
3226  2023-10-31 09:53:31.845576
3227  2023-10-31 09:53:31.877455
3228  2023-10-31 09:53:31.911365
3229  2023-10-31 09:53:31.943312
3230  2023-10-31 09:53:31.973249
3231  2023-10-31 09:53:32.007142
3232  2023-10-31 09:53:32.038027
3233  2023-10-31 09:53:32.070991
3234  2023-10-31 09:53:32.102886
3235  2023-10-31 09:53:32.134817
3236  2023-10-31 09:53:32.166723
3237  2023-10-31 09:53:32.214589
3238  2023-10-31 09:53:32.246520
3239  2023-10-31 09:53:32.278426
3240  2023-10-31 09:53:32.310338
3241  2023-10-31 09:53:32.342252
3242  2023-10-31 09:53:32.375141
3243  2023-10-31 09:53:32.407076
3244  2023-10-31 09:53:32.439020
3245  2023-10-31 09:53:32.470988
3246  2023-10-31 09:53:32.501899
3247  2023-10-31 09:53:32.534807
3248  2023-10-31 09:53:32.566743
3249  2023-10-31 09:53:32.614598
3250  2023-10-31 09:53:32.646536
3251  2023-10-31 09:53:32.678423
3252  2023-10-31 09:53:32.710352
3253  2023-10-31 09:53:32.742258
3254  2023-10-31 09:53:32.774185
3255  2023-10-31 09:53:32.807048
3256  2023-10-31 09:53:32.838992
3257  2023-10-31 09:53:32.869958
3258  2023-10-31 09:53:32.901921
3259  2023-10-31 09:53:32.934825
3260  2023-10-31 09:53:32.966880
3261  2023-10-31 09:53:33.014760
3262  2023-10-31 09:53:33.045790
3263  2023-10-31 09:53:33.077699
3264  2023-10-31 09:53:33.110635
3265  2023-10-31 09:53:33.141515
3266  2023-10-31 09:53:33.174472
3267  2023-10-31 09:53:33.206385
3268  2023-10-31 09:53:33.238277
3269  2023-10-31 09:53:33.270181
3270  2023-10-31 09:53:33.302090
3271  2023-10-31 09:53:33.334002
3272  2023-10-31 09:53:33.365917
3273  2023-10-31 09:53:33.413758
3274  2023-10-31 09:53:33.445738
3275  2023-10-31 09:53:33.477625
3276  2023-10-31 09:53:33.509566
3277  2023-10-31 09:53:33.541535
3278  2023-10-31 09:53:33.573432
3279  2023-10-31 09:53:33.605307
3280  2023-10-31 09:53:33.638226
3281  2023-10-31 09:53:33.669175
3282  2023-10-31 09:53:33.701115
3283  2023-10-31 09:53:33.733077
3284  2023-10-31 09:53:33.765099
3285  2023-10-31 09:53:33.812956
3286  2023-10-31 09:53:33.845962
3287  2023-10-31 09:53:33.877853
3288  2023-10-31 09:53:33.909799
3289  2023-10-31 09:53:33.941701
3290  2023-10-31 09:53:33.973589
3291  2023-10-31 09:53:34.005508
3292  2023-10-31 09:53:34.037423
3293  2023-10-31 09:53:34.069346
3294  2023-10-31 09:53:34.101274
3295  2023-10-31 09:53:34.133178
3296  2023-10-31 09:53:34.165096
3297  2023-10-31 09:53:34.214950
3298  2023-10-31 09:53:34.245837
3299  2023-10-31 09:53:34.278781
3300  2023-10-31 09:53:34.309666
3301  2023-10-31 09:53:34.341579
3302  2023-10-31 09:53:34.374524
3303  2023-10-31 09:53:34.405408
3304  2023-10-31 09:53:34.438346
3305  2023-10-31 09:53:34.469238
3306  2023-10-31 09:53:34.502153
3307  2023-10-31 09:53:34.534106
3308  2023-10-31 09:53:34.567018
3309  2023-10-31 09:53:34.614885
3310  2023-10-31 09:53:34.646798
3311  2023-10-31 09:53:34.678710
3312  2023-10-31 09:53:34.709595
3313  2023-10-31 09:53:34.741510
3314  2023-10-31 09:53:34.774467
3315  2023-10-31 09:53:34.806362
3316  2023-10-31 09:53:34.838282
3317  2023-10-31 09:53:34.869169
3318  2023-10-31 09:53:34.902138
3319  2023-10-31 09:53:34.934031
3320  2023-10-31 09:53:34.966947
3321  2023-10-31 09:53:35.014820
3322  2023-10-31 09:53:35.046728
3323  2023-10-31 09:53:35.078642
3324  2023-10-31 09:53:35.109552
3325  2023-10-31 09:53:35.141477
3326  2023-10-31 09:53:35.174385
3327  2023-10-31 09:53:35.206307
3328  2023-10-31 09:53:35.238232
3329  2023-10-31 09:53:35.270147
3330  2023-10-31 09:53:35.301015
3331  2023-10-31 09:53:35.333958
3332  2023-10-31 09:53:35.381812
3333  2023-10-31 09:53:35.413715
3334  2023-10-31 09:53:35.446652
3335  2023-10-31 09:53:35.477566
3336  2023-10-31 09:53:35.509460
3337  2023-10-31 09:53:35.541384
3338  2023-10-31 09:53:35.574330
3339  2023-10-31 09:53:35.606250
3340  2023-10-31 09:53:35.638146
3341  2023-10-31 09:53:35.670030
3342  2023-10-31 09:53:35.700946
3343  2023-10-31 09:53:35.733905
3344  2023-10-31 09:53:35.781730
3345  2023-10-31 09:53:35.813679
3346  2023-10-31 09:53:35.846602
3347  2023-10-31 09:53:35.878473
3348  2023-10-31 09:53:35.909416
3349  2023-10-31 09:53:35.941304
3350  2023-10-31 09:53:35.974258
3351  2023-10-31 09:53:36.006185
3352  2023-10-31 09:53:36.038090
3353  2023-10-31 09:53:36.069007
3354  2023-10-31 09:53:36.100924
3355  2023-10-31 09:53:36.133819
3356  2023-10-31 09:53:36.181705
3357  2023-10-31 09:53:36.213607
3358  2023-10-31 09:53:36.245517
3359  2023-10-31 09:53:36.277441
3360  2023-10-31 09:53:36.309346
3361  2023-10-31 09:53:36.341260
3362  2023-10-31 09:53:36.373185
3363  2023-10-31 09:53:36.406063
3364  2023-10-31 09:53:36.438012
3365  2023-10-31 09:53:36.469893
3366  2023-10-31 09:53:36.501841
3367  2023-10-31 09:53:36.533754
3368  2023-10-31 09:53:36.581635
3369  2023-10-31 09:53:36.613534
3370  2023-10-31 09:53:36.645470
3371  2023-10-31 09:53:36.677362
3372  2023-10-31 09:53:36.709295
3373  2023-10-31 09:53:36.742193
3374  2023-10-31 09:53:36.773127
3375  2023-10-31 09:53:36.806020
3376  2023-10-31 09:53:36.836947
3377  2023-10-31 09:53:36.869824
3378  2023-10-31 09:53:36.900774
3379  2023-10-31 09:53:36.933701
3380  2023-10-31 09:53:36.981555
3381  2023-10-31 09:53:37.013584
3382  2023-10-31 09:53:37.046573
3383  2023-10-31 09:53:37.077560
3384  2023-10-31 09:53:37.109473
3385  2023-10-31 09:53:37.142385
3386  2023-10-31 09:53:37.173302
3387  2023-10-31 09:53:37.205228
3388  2023-10-31 09:53:37.237194
3389  2023-10-31 09:53:37.269088
3390  2023-10-31 09:53:37.301962
3391  2023-10-31 09:53:37.332949
3392  2023-10-31 09:53:37.381939
3393  2023-10-31 09:53:37.413847
3394  2023-10-31 09:53:37.445828
3395  2023-10-31 09:53:37.477726
3396  2023-10-31 09:53:37.509623
3397  2023-10-31 09:53:37.541504
3398  2023-10-31 09:53:37.573418
3399  2023-10-31 09:53:37.605333
3400  2023-10-31 09:53:37.637248
3401  2023-10-31 09:53:37.670160
3402  2023-10-31 09:53:37.702074
3403  2023-10-31 09:53:37.732992
3404  2023-10-31 09:53:37.781913
3405  2023-10-31 09:53:37.813777
3406  2023-10-31 09:53:37.845730
3407  2023-10-31 09:53:37.877657
3408  2023-10-31 09:53:37.909553
3409  2023-10-31 09:53:37.941487
3410  2023-10-31 09:53:37.973402
3411  2023-10-31 09:53:38.005293
3412  2023-10-31 09:53:38.037211
3413  2023-10-31 09:53:38.070116
3414  2023-10-31 09:53:38.101055
3415  2023-10-31 09:53:38.132955
3416  2023-10-31 09:53:38.181810
3417  2023-10-31 09:53:38.213708
3418  2023-10-31 09:53:38.245665
3419  2023-10-31 09:53:38.277571
3420  2023-10-31 09:53:38.309482
3421  2023-10-31 09:53:38.341398
3422  2023-10-31 09:53:38.373281
3423  2023-10-31 09:53:38.405237
3424  2023-10-31 09:53:38.437142
3425  2023-10-31 09:53:38.469071
3426  2023-10-31 09:53:38.500939
3427  2023-10-31 09:53:38.533883
3428  2023-10-31 09:53:38.581724
3429  2023-10-31 09:53:38.613672
3430  2023-10-31 09:53:38.645578
3431  2023-10-31 09:53:38.677675
3432  2023-10-31 09:53:38.709414
3433  2023-10-31 09:53:38.741323
3434  2023-10-31 09:53:38.773249
3435  2023-10-31 09:53:38.805210
3436  2023-10-31 09:53:38.837074
3437  2023-10-31 09:53:38.869997
3438  2023-10-31 09:53:38.900926
3439  2023-10-31 09:53:38.933816
3440  2023-10-31 09:53:38.981680
3441  2023-10-31 09:53:39.013571
3442  2023-10-31 09:53:39.045485
3443  2023-10-31 09:53:39.077443
3444  2023-10-31 09:53:39.109350
3445  2023-10-31 09:53:39.141245
3446  2023-10-31 09:53:39.174141
3447  2023-10-31 09:53:39.205058
3448  2023-10-31 09:53:39.237006
3449  2023-10-31 09:53:39.269890
3450  2023-10-31 09:53:39.301801
3451  2023-10-31 09:53:39.349673
3452  2023-10-31 09:53:39.381617
3453  2023-10-31 09:53:39.413501
3454  2023-10-31 09:53:39.445415
3455  2023-10-31 09:53:39.477360
3456  2023-10-31 09:53:39.509277
3457  2023-10-31 09:53:39.542194
3458  2023-10-31 09:53:39.573124
3459  2023-10-31 09:53:39.605035
3460  2023-10-31 09:53:39.637902
3461  2023-10-31 09:53:39.669858
3462  2023-10-31 09:53:39.701789
3463  2023-10-31 09:53:39.749635
3464  2023-10-31 09:53:39.781699
3465  2023-10-31 09:53:39.813609
3466  2023-10-31 09:53:39.845540
3467  2023-10-31 09:53:39.877460
3468  2023-10-31 09:53:39.909373
3469  2023-10-31 09:53:39.941269
3470  2023-10-31 09:53:39.973207
3471  2023-10-31 09:53:40.005104
3472  2023-10-31 09:53:40.038013
3473  2023-10-31 09:53:40.069935
3474  2023-10-31 09:53:40.101858
3475  2023-10-31 09:53:40.149723
3476  2023-10-31 09:53:40.181665
3477  2023-10-31 09:53:40.213549
3478  2023-10-31 09:53:40.245427
3479  2023-10-31 09:53:40.277373
3480  2023-10-31 09:53:40.309289
3481  2023-10-31 09:53:40.341208
3482  2023-10-31 09:53:40.373086
3483  2023-10-31 09:53:40.405998
3484  2023-10-31 09:53:40.436947
3485  2023-10-31 09:53:40.469879
3486  2023-10-31 09:53:40.501776
3487  2023-10-31 09:53:40.549614
3488  2023-10-31 09:53:40.581528
3489  2023-10-31 09:53:40.613473
3490  2023-10-31 09:53:40.645390
3491  2023-10-31 09:53:40.677272
3492  2023-10-31 09:53:40.710221
3493  2023-10-31 09:53:40.741148
3494  2023-10-31 09:53:40.774015
3495  2023-10-31 09:53:40.804980
3496  2023-10-31 09:53:40.836878
3497  2023-10-31 09:53:40.869767
3498  2023-10-31 09:53:40.901704
3499  2023-10-31 09:53:40.949577
3500  2023-10-31 09:53:40.981508
3501  2023-10-31 09:53:41.013433
3502  2023-10-31 09:53:41.045289
3503  2023-10-31 09:53:41.077258
3504  2023-10-31 09:53:41.109177
3505  2023-10-31 09:53:41.142074
3506  2023-10-31 09:53:41.172949
3507  2023-10-31 09:53:41.205861
3508  2023-10-31 09:53:41.237827
3509  2023-10-31 09:53:41.269734
3510  2023-10-31 09:53:41.301604
3511  2023-10-31 09:53:41.349509
3512  2023-10-31 09:53:41.382438
3513  2023-10-31 09:53:41.413306
3514  2023-10-31 09:53:41.445221
3515  2023-10-31 09:53:41.477194
3516  2023-10-31 09:53:41.509080
3517  2023-10-31 09:53:41.541039
3518  2023-10-31 09:53:41.573877
3519  2023-10-31 09:53:41.605792
3520  2023-10-31 09:53:41.637752
3521  2023-10-31 09:53:41.669791
3522  2023-10-31 09:53:41.701677
3523  2023-10-31 09:53:41.749545
3524  2023-10-31 09:53:41.781496
3525  2023-10-31 09:53:41.813392
3526  2023-10-31 09:53:41.845262
3527  2023-10-31 09:53:41.877177
3528  2023-10-31 09:53:41.909125
3529  2023-10-31 09:53:41.941041
3530  2023-10-31 09:53:41.973979
3531  2023-10-31 09:53:42.005833
3532  2023-10-31 09:53:42.037886
3533  2023-10-31 09:53:42.069802
3534  2023-10-31 09:53:42.101748
3535  2023-10-31 09:53:42.149621
3536  2023-10-31 09:53:42.181503
3537  2023-10-31 09:53:42.213449
3538  2023-10-31 09:53:42.245331
3539  2023-10-31 09:53:42.277246
3540  2023-10-31 09:53:42.309216
3541  2023-10-31 09:53:42.342075
3542  2023-10-31 09:53:42.374042
3543  2023-10-31 09:53:42.405902
3544  2023-10-31 09:53:42.436859
3545  2023-10-31 09:53:42.469792
3546  2023-10-31 09:53:42.501679
3547  2023-10-31 09:53:42.549570
3548  2023-10-31 09:53:42.581465
3549  2023-10-31 09:53:42.613380
3550  2023-10-31 09:53:42.645263
3551  2023-10-31 09:53:42.678201
3552  2023-10-31 09:53:42.709125
3553  2023-10-31 09:53:42.742005
3554  2023-10-31 09:53:42.773969
3555  2023-10-31 09:53:42.805891
3556  2023-10-31 09:53:42.837781
3557  2023-10-31 09:53:42.869711
3558  2023-10-31 09:53:42.917535
3559  2023-10-31 09:53:42.949476
3560  2023-10-31 09:53:42.981400
3561  2023-10-31 09:53:43.013317
