
1  2023-11-20 14:39:56.378291
2  2023-11-20 14:39:56.410289
3  2023-11-20 14:39:56.442241
4  2023-11-20 14:39:56.475119
5  2023-11-20 14:39:56.507032
6  2023-11-20 14:39:56.538947
7  2023-11-20 14:39:56.570894
8  2023-11-20 14:39:56.618772
9  2023-11-20 14:39:56.650685
10  2023-11-20 14:39:56.682581
11  2023-11-20 14:39:56.714512
12  2023-11-20 14:39:56.746425
13  2023-11-20 14:39:56.778354
14  2023-11-20 14:39:56.810221
15  2023-11-20 14:39:56.843133
16  2023-11-20 14:39:56.874050
17  2023-11-20 14:39:56.906963
18  2023-11-20 14:39:56.938127
19  2023-11-20 14:39:56.970156
20  2023-11-20 14:39:57.018015
21  2023-11-20 14:39:57.050892
22  2023-11-20 14:39:57.082854
23  2023-11-20 14:39:57.114752
24  2023-11-20 14:39:57.146676
25  2023-11-20 14:39:57.178594
26  2023-11-20 14:39:57.210517
27  2023-11-20 14:39:57.242391
28  2023-11-20 14:39:57.274348
29  2023-11-20 14:39:57.306251
30  2023-11-20 14:39:57.338135
31  2023-11-20 14:39:57.386007
32  2023-11-20 14:39:57.418954
33  2023-11-20 14:39:57.450833
34  2023-11-20 14:39:57.482761
35  2023-11-20 14:39:57.514690
36  2023-11-20 14:39:57.546578
37  2023-11-20 14:39:57.578494
38  2023-11-20 14:39:57.610436
39  2023-11-20 14:39:57.642186
40  2023-11-20 14:39:57.674101
41  2023-11-20 14:39:57.706016
42  2023-11-20 14:39:57.738928
43  2023-11-20 14:39:57.786800
44  2023-11-20 14:39:57.818714
45  2023-11-20 14:39:57.850629
46  2023-11-20 14:39:57.882555
47  2023-11-20 14:39:57.914492
48  2023-11-20 14:39:57.946406
49  2023-11-20 14:39:57.978288
50  2023-11-20 14:39:58.010203
51  2023-11-20 14:39:58.042117
52  2023-11-20 14:39:58.075029
53  2023-11-20 14:39:58.106949
54  2023-11-20 14:39:58.138871
55  2023-11-20 14:39:58.186734
56  2023-11-20 14:39:58.218699
57  2023-11-20 14:39:58.250448
58  2023-11-20 14:39:58.282483
59  2023-11-20 14:39:58.314500
60  2023-11-20 14:39:58.346415
61  2023-11-20 14:39:58.378328
62  2023-11-20 14:39:58.410242
63  2023-11-20 14:39:58.442157
64  2023-11-20 14:39:58.474116
65  2023-11-20 14:39:58.506984
66  2023-11-20 14:39:58.538934
67  2023-11-20 14:39:58.586804
68  2023-11-20 14:39:58.618719
69  2023-11-20 14:39:58.650633
70  2023-11-20 14:39:58.682547
71  2023-11-20 14:39:58.714468
72  2023-11-20 14:39:58.746344
73  2023-11-20 14:39:58.778259
74  2023-11-20 14:39:58.810207
75  2023-11-20 14:39:58.843085
76  2023-11-20 14:39:58.875000
77  2023-11-20 14:39:58.906915
78  2023-11-20 14:39:58.938829
79  2023-11-20 14:39:58.986732
80  2023-11-20 14:39:59.018738
81  2023-11-20 14:39:59.050653
82  2023-11-20 14:39:59.082598
83  2023-11-20 14:39:59.114525
84  2023-11-20 14:39:59.146397
85  2023-11-20 14:39:59.178312
86  2023-11-20 14:39:59.210226
87  2023-11-20 14:39:59.242141
88  2023-11-20 14:39:59.274056
89  2023-11-20 14:39:59.305971
90  2023-11-20 14:39:59.338883
91  2023-11-20 14:39:59.386755
92  2023-11-20 14:39:59.418669
93  2023-11-20 14:39:59.450618
94  2023-11-20 14:39:59.482529
95  2023-11-20 14:39:59.514419
96  2023-11-20 14:39:59.546328
97  2023-11-20 14:39:59.578243
98  2023-11-20 14:39:59.610158
99  2023-11-20 14:39:59.642108
100  2023-11-20 14:39:59.673987
101  2023-11-20 14:39:59.706899
102  2023-11-20 14:39:59.738847
103  2023-11-20 14:39:59.786717
104  2023-11-20 14:39:59.818630
105  2023-11-20 14:39:59.850547
106  2023-11-20 14:39:59.882477
107  2023-11-20 14:39:59.914344
108  2023-11-20 14:39:59.946309
109  2023-11-20 14:39:59.978208
110  2023-11-20 14:40:00.010088
111  2023-11-20 14:40:00.042003
112  2023-11-20 14:40:00.074915
113  2023-11-20 14:40:00.106831
114  2023-11-20 14:40:00.138775
115  2023-11-20 14:40:00.186652
116  2023-11-20 14:40:00.218564
117  2023-11-20 14:40:00.250522
118  2023-11-20 14:40:00.282442
119  2023-11-20 14:40:00.314367
120  2023-11-20 14:40:00.346329
121  2023-11-20 14:40:00.378244
122  2023-11-20 14:40:00.410159
123  2023-11-20 14:40:00.442073
124  2023-11-20 14:40:00.474068
125  2023-11-20 14:40:00.506952
126  2023-11-20 14:40:00.538868
127  2023-11-20 14:40:00.586738
128  2023-11-20 14:40:00.618683
129  2023-11-20 14:40:00.650568
130  2023-11-20 14:40:00.682482
131  2023-11-20 14:40:00.714406
132  2023-11-20 14:40:00.746340
133  2023-11-20 14:40:00.778225
134  2023-11-20 14:40:00.810185
135  2023-11-20 14:40:00.842099
136  2023-11-20 14:40:00.874014
137  2023-11-20 14:40:00.906926
138  2023-11-20 14:40:00.954829
139  2023-11-20 14:40:00.986741
140  2023-11-20 14:40:01.018659
141  2023-11-20 14:40:01.050542
142  2023-11-20 14:40:01.082486
143  2023-11-20 14:40:01.114371
144  2023-11-20 14:40:01.146286
145  2023-11-20 14:40:01.178203
146  2023-11-20 14:40:01.210116
147  2023-11-20 14:40:01.243028
148  2023-11-20 14:40:01.274975
149  2023-11-20 14:40:01.306892
150  2023-11-20 14:40:01.354761
151  2023-11-20 14:40:01.386677
152  2023-11-20 14:40:01.418746
153  2023-11-20 14:40:01.450661
154  2023-11-20 14:40:01.482577
155  2023-11-20 14:40:01.514490
156  2023-11-20 14:40:01.546373
157  2023-11-20 14:40:01.578302
158  2023-11-20 14:40:01.610361
159  2023-11-20 14:40:01.642271
160  2023-11-20 14:40:01.674152
161  2023-11-20 14:40:01.706067
162  2023-11-20 14:40:01.753972
163  2023-11-20 14:40:01.786885
164  2023-11-20 14:40:01.818803
165  2023-11-20 14:40:01.850683
166  2023-11-20 14:40:01.882597
167  2023-11-20 14:40:01.914511
168  2023-11-20 14:40:01.946426
169  2023-11-20 14:40:01.978340
170  2023-11-20 14:40:02.010254
171  2023-11-20 14:40:02.042169
172  2023-11-20 14:40:02.074084
173  2023-11-20 14:40:02.106996
174  2023-11-20 14:40:02.154868
175  2023-11-20 14:40:02.186782
176  2023-11-20 14:40:02.218732
177  2023-11-20 14:40:02.250645
178  2023-11-20 14:40:02.282551
179  2023-11-20 14:40:02.314484
180  2023-11-20 14:40:02.346357
181  2023-11-20 14:40:02.378273
182  2023-11-20 14:40:02.410186
183  2023-11-20 14:40:02.442100
184  2023-11-20 14:40:02.475014
185  2023-11-20 14:40:02.506928
186  2023-11-20 14:40:02.554830
187  2023-11-20 14:40:02.586714
188  2023-11-20 14:40:02.618662
189  2023-11-20 14:40:02.650575
190  2023-11-20 14:40:02.682457
191  2023-11-20 14:40:02.714373
192  2023-11-20 14:40:02.747283
193  2023-11-20 14:40:02.778201
194  2023-11-20 14:40:02.811115
195  2023-11-20 14:40:02.843030
196  2023-11-20 14:40:02.874943
197  2023-11-20 14:40:02.906990
198  2023-11-20 14:40:02.954896
199  2023-11-20 14:40:02.986777
200  2023-11-20 14:40:03.018725
201  2023-11-20 14:40:03.050831
202  2023-11-20 14:40:03.082810
203  2023-11-20 14:40:03.114722
204  2023-11-20 14:40:03.146606
205  2023-11-20 14:40:03.178520
206  2023-11-20 14:40:03.210435
207  2023-11-20 14:40:03.242349
208  2023-11-20 14:40:03.274264
209  2023-11-20 14:40:03.306179
210  2023-11-20 14:40:03.354810
211  2023-11-20 14:40:03.386806
212  2023-11-20 14:40:03.418719
213  2023-11-20 14:40:03.450601
214  2023-11-20 14:40:03.482549
215  2023-11-20 14:40:03.514430
216  2023-11-20 14:40:03.546344
217  2023-11-20 14:40:03.578404
218  2023-11-20 14:40:03.610305
219  2023-11-20 14:40:03.642220
220  2023-11-20 14:40:03.674135
221  2023-11-20 14:40:03.706049
222  2023-11-20 14:40:03.754919
223  2023-11-20 14:40:03.786872
224  2023-11-20 14:40:03.818782
225  2023-11-20 14:40:03.850707
226  2023-11-20 14:40:03.882612
227  2023-11-20 14:40:03.914492
228  2023-11-20 14:40:03.946408
229  2023-11-20 14:40:03.979296
230  2023-11-20 14:40:04.011212
231  2023-11-20 14:40:04.042230
232  2023-11-20 14:40:04.074144
233  2023-11-20 14:40:04.106059
234  2023-11-20 14:40:04.154971
235  2023-11-20 14:40:04.186874
236  2023-11-20 14:40:04.218794
237  2023-11-20 14:40:04.250708
238  2023-11-20 14:40:04.282589
239  2023-11-20 14:40:04.314621
240  2023-11-20 14:40:04.346505
241  2023-11-20 14:40:04.378419
242  2023-11-20 14:40:04.410334
243  2023-11-20 14:40:04.442249
244  2023-11-20 14:40:04.474194
245  2023-11-20 14:40:04.507076
246  2023-11-20 14:40:04.553995
247  2023-11-20 14:40:04.586862
248  2023-11-20 14:40:04.618777
249  2023-11-20 14:40:04.650583
250  2023-11-20 14:40:04.682519
251  2023-11-20 14:40:04.714513
252  2023-11-20 14:40:04.746398
253  2023-11-20 14:40:04.778346
254  2023-11-20 14:40:04.810228
255  2023-11-20 14:40:04.842138
256  2023-11-20 14:40:04.874053
257  2023-11-20 14:40:04.922053
258  2023-11-20 14:40:04.953967
259  2023-11-20 14:40:04.986926
260  2023-11-20 14:40:05.018828
261  2023-11-20 14:40:05.050740
262  2023-11-20 14:40:05.082623
263  2023-11-20 14:40:05.114570
264  2023-11-20 14:40:05.146460
265  2023-11-20 14:40:05.178368
266  2023-11-20 14:40:05.210282
267  2023-11-20 14:40:05.242197
268  2023-11-20 14:40:05.274111
269  2023-11-20 14:40:05.322014
270  2023-11-20 14:40:05.354952
271  2023-11-20 14:40:05.386810
272  2023-11-20 14:40:05.418849
273  2023-11-20 14:40:05.450955
274  2023-11-20 14:40:05.482858
275  2023-11-20 14:40:05.514779
276  2023-11-20 14:40:05.546657
277  2023-11-20 14:40:05.578571
278  2023-11-20 14:40:05.610486
279  2023-11-20 14:40:05.642400
280  2023-11-20 14:40:05.675350
281  2023-11-20 14:40:05.722243
282  2023-11-20 14:40:05.754158
283  2023-11-20 14:40:05.786430
284  2023-11-20 14:40:05.818337
285  2023-11-20 14:40:05.850217
286  2023-11-20 14:40:05.882130
287  2023-11-20 14:40:05.914080
288  2023-11-20 14:40:05.946063
289  2023-11-20 14:40:05.979009
290  2023-11-20 14:40:06.010897
291  2023-11-20 14:40:06.042804
292  2023-11-20 14:40:06.074719
293  2023-11-20 14:40:06.122554
294  2023-11-20 14:40:06.154501
295  2023-11-20 14:40:06.186419
296  2023-11-20 14:40:06.218298
297  2023-11-20 14:40:06.250251
298  2023-11-20 14:40:06.282175
299  2023-11-20 14:40:06.314082
300  2023-11-20 14:40:06.346954
301  2023-11-20 14:40:06.378869
302  2023-11-20 14:40:06.410784
303  2023-11-20 14:40:06.442699
304  2023-11-20 14:40:06.474613
305  2023-11-20 14:40:06.522517
306  2023-11-20 14:40:06.554448
307  2023-11-20 14:40:06.586357
308  2023-11-20 14:40:06.618229
309  2023-11-20 14:40:06.650178
310  2023-11-20 14:40:06.682186
311  2023-11-20 14:40:06.715094
312  2023-11-20 14:40:06.746020
313  2023-11-20 14:40:06.778932
314  2023-11-20 14:40:06.810987
315  2023-11-20 14:40:06.842887
316  2023-11-20 14:40:06.874801
317  2023-11-20 14:40:06.922674
318  2023-11-20 14:40:06.954588
319  2023-11-20 14:40:06.986503
320  2023-11-20 14:40:07.018469
321  2023-11-20 14:40:07.050338
322  2023-11-20 14:40:07.082277
323  2023-11-20 14:40:07.114225
324  2023-11-20 14:40:07.146182
325  2023-11-20 14:40:07.178097
326  2023-11-20 14:40:07.211010
327  2023-11-20 14:40:07.242924
328  2023-11-20 14:40:07.274838
329  2023-11-20 14:40:07.322746
330  2023-11-20 14:40:07.354661
331  2023-11-20 14:40:07.386581
332  2023-11-20 14:40:07.418475
333  2023-11-20 14:40:07.450402
334  2023-11-20 14:40:07.482304
335  2023-11-20 14:40:07.514219
336  2023-11-20 14:40:07.546133
337  2023-11-20 14:40:07.578049
338  2023-11-20 14:40:07.609963
339  2023-11-20 14:40:07.642875
340  2023-11-20 14:40:07.674790
341  2023-11-20 14:40:07.722662
342  2023-11-20 14:40:07.754576
343  2023-11-20 14:40:07.786491
344  2023-11-20 14:40:07.818406
345  2023-11-20 14:40:07.850320
346  2023-11-20 14:40:07.882235
347  2023-11-20 14:40:07.914150
348  2023-11-20 14:40:07.946065
349  2023-11-20 14:40:07.978976
350  2023-11-20 14:40:08.010891
351  2023-11-20 14:40:08.042806
352  2023-11-20 14:40:08.074721
353  2023-11-20 14:40:08.122592
354  2023-11-20 14:40:08.154508
355  2023-11-20 14:40:08.186422
356  2023-11-20 14:40:08.218447
357  2023-11-20 14:40:08.250355
358  2023-11-20 14:40:08.282264
359  2023-11-20 14:40:08.314139
360  2023-11-20 14:40:08.346054
361  2023-11-20 14:40:08.378001
362  2023-11-20 14:40:08.410938
363  2023-11-20 14:40:08.442289
364  2023-11-20 14:40:08.474229
365  2023-11-20 14:40:08.522076
366  2023-11-20 14:40:08.554020
367  2023-11-20 14:40:08.586943
368  2023-11-20 14:40:08.618816
369  2023-11-20 14:40:08.650760
370  2023-11-20 14:40:08.682641
371  2023-11-20 14:40:08.714556
372  2023-11-20 14:40:08.746471
373  2023-11-20 14:40:08.778415
374  2023-11-20 14:40:08.810338
375  2023-11-20 14:40:08.842251
376  2023-11-20 14:40:08.890120
377  2023-11-20 14:40:08.922034
378  2023-11-20 14:40:08.953918
379  2023-11-20 14:40:08.986867
380  2023-11-20 14:40:09.018773
381  2023-11-20 14:40:09.050695
382  2023-11-20 14:40:09.082573
383  2023-11-20 14:40:09.114487
384  2023-11-20 14:40:09.146415
385  2023-11-20 14:40:09.178367
386  2023-11-20 14:40:09.210235
387  2023-11-20 14:40:09.243143
388  2023-11-20 14:40:09.290047
389  2023-11-20 14:40:09.322930
390  2023-11-20 14:40:09.354845
391  2023-11-20 14:40:09.386795
392  2023-11-20 14:40:09.418592
393  2023-11-20 14:40:09.450476
394  2023-11-20 14:40:09.482425
395  2023-11-20 14:40:09.514304
396  2023-11-20 14:40:09.546343
397  2023-11-20 14:40:09.578133
398  2023-11-20 14:40:09.610048
399  2023-11-20 14:40:09.642961
400  2023-11-20 14:40:09.690832
401  2023-11-20 14:40:09.722747
402  2023-11-20 14:40:09.754662
403  2023-11-20 14:40:09.786576
404  2023-11-20 14:40:09.818491
405  2023-11-20 14:40:09.850405
406  2023-11-20 14:40:09.882322
407  2023-11-20 14:40:09.914235
408  2023-11-20 14:40:09.946149
409  2023-11-20 14:40:09.979064
410  2023-11-20 14:40:10.010976
411  2023-11-20 14:40:10.042891
412  2023-11-20 14:40:10.090763
413  2023-11-20 14:40:10.122678
414  2023-11-20 14:40:10.154960
415  2023-11-20 14:40:10.186876
416  2023-11-20 14:40:10.218791
417  2023-11-20 14:40:10.250738
418  2023-11-20 14:40:10.282621
419  2023-11-20 14:40:10.314609
420  2023-11-20 14:40:10.346524
421  2023-11-20 14:40:10.378417
422  2023-11-20 14:40:10.410349
423  2023-11-20 14:40:10.442235
424  2023-11-20 14:40:10.490107
425  2023-11-20 14:40:10.522022
426  2023-11-20 14:40:10.554948
427  2023-11-20 14:40:10.586254
428  2023-11-20 14:40:10.618166
429  2023-11-20 14:40:10.650083
430  2023-11-20 14:40:10.682996
431  2023-11-20 14:40:10.714901
432  2023-11-20 14:40:10.746823
433  2023-11-20 14:40:10.778705
434  2023-11-20 14:40:10.810646
435  2023-11-20 14:40:10.842566
436  2023-11-20 14:40:10.890445
437  2023-11-20 14:40:10.922354
438  2023-11-20 14:40:10.954271
439  2023-11-20 14:40:10.987147
440  2023-11-20 14:40:11.018098
441  2023-11-20 14:40:11.050687
442  2023-11-20 14:40:11.082723
443  2023-11-20 14:40:11.114638
444  2023-11-20 14:40:11.146587
445  2023-11-20 14:40:11.178467
446  2023-11-20 14:40:11.210382
447  2023-11-20 14:40:11.242297
448  2023-11-20 14:40:11.290169
449  2023-11-20 14:40:11.322083
450  2023-11-20 14:40:11.354996
451  2023-11-20 14:40:11.386910
452  2023-11-20 14:40:11.418885
453  2023-11-20 14:40:11.450799
454  2023-11-20 14:40:11.482714
455  2023-11-20 14:40:11.514629
456  2023-11-20 14:40:11.546542
457  2023-11-20 14:40:11.578465
458  2023-11-20 14:40:11.610405
459  2023-11-20 14:40:11.642336
460  2023-11-20 14:40:11.690188
461  2023-11-20 14:40:11.722103
462  2023-11-20 14:40:11.754990
463  2023-11-20 14:40:11.786899
464  2023-11-20 14:40:11.818815
465  2023-11-20 14:40:11.850732
466  2023-11-20 14:40:11.882642
467  2023-11-20 14:40:11.914559
468  2023-11-20 14:40:11.946472
469  2023-11-20 14:40:11.978386
470  2023-11-20 14:40:12.010306
471  2023-11-20 14:40:12.043248
472  2023-11-20 14:40:12.090121
473  2023-11-20 14:40:12.123001
474  2023-11-20 14:40:12.154918
475  2023-11-20 14:40:12.186831
476  2023-11-20 14:40:12.218746
477  2023-11-20 14:40:12.250661
478  2023-11-20 14:40:12.282575
479  2023-11-20 14:40:12.314490
480  2023-11-20 14:40:12.346403
481  2023-11-20 14:40:12.378362
482  2023-11-20 14:40:12.410265
483  2023-11-20 14:40:12.458135
484  2023-11-20 14:40:12.490058
485  2023-11-20 14:40:12.522932
486  2023-11-20 14:40:12.554849
487  2023-11-20 14:40:12.586762
488  2023-11-20 14:40:12.618677
489  2023-11-20 14:40:12.650592
490  2023-11-20 14:40:12.682506
491  2023-11-20 14:40:12.714453
492  2023-11-20 14:40:12.746372
493  2023-11-20 14:40:12.778283
494  2023-11-20 14:40:12.810193
495  2023-11-20 14:40:12.858070
496  2023-11-20 14:40:12.890948
497  2023-11-20 14:40:12.922865
498  2023-11-20 14:40:12.954778
499  2023-11-20 14:40:12.986693
500  2023-11-20 14:40:13.018607
501  2023-11-20 14:40:13.050522
502  2023-11-20 14:40:13.082438
503  2023-11-20 14:40:13.114384
504  2023-11-20 14:40:13.146301
505  2023-11-20 14:40:13.178211
506  2023-11-20 14:40:13.210126
507  2023-11-20 14:40:13.258965
508  2023-11-20 14:40:13.290881
509  2023-11-20 14:40:13.322794
510  2023-11-20 14:40:13.354709
511  2023-11-20 14:40:13.386624
512  2023-11-20 14:40:13.418539
513  2023-11-20 14:40:13.450452
514  2023-11-20 14:40:13.482411
515  2023-11-20 14:40:13.515279
516  2023-11-20 14:40:13.546195
517  2023-11-20 14:40:13.579109
518  2023-11-20 14:40:13.611022
519  2023-11-20 14:40:13.658896
520  2023-11-20 14:40:13.690811
521  2023-11-20 14:40:13.722725
522  2023-11-20 14:40:13.754640
523  2023-11-20 14:40:13.786592
524  2023-11-20 14:40:13.818480
525  2023-11-20 14:40:13.850417
526  2023-11-20 14:40:13.882330
527  2023-11-20 14:40:13.914243
528  2023-11-20 14:40:13.946167
529  2023-11-20 14:40:13.978084
530  2023-11-20 14:40:14.010954
531  2023-11-20 14:40:14.058827
532  2023-11-20 14:40:14.090741
533  2023-11-20 14:40:14.122656
534  2023-11-20 14:40:14.154571
535  2023-11-20 14:40:14.186485
536  2023-11-20 14:40:14.218434
537  2023-11-20 14:40:14.250349
538  2023-11-20 14:40:14.282260
539  2023-11-20 14:40:14.314174
540  2023-11-20 14:40:14.347055
541  2023-11-20 14:40:14.378970
542  2023-11-20 14:40:14.410885
543  2023-11-20 14:40:14.458757
544  2023-11-20 14:40:14.490672
545  2023-11-20 14:40:14.522587
546  2023-11-20 14:40:14.554533
547  2023-11-20 14:40:14.586443
548  2023-11-20 14:40:14.618363
549  2023-11-20 14:40:14.650278
550  2023-11-20 14:40:14.682190
551  2023-11-20 14:40:14.715071
552  2023-11-20 14:40:14.746986
553  2023-11-20 14:40:14.778903
554  2023-11-20 14:40:14.810846
555  2023-11-20 14:40:14.858719
556  2023-11-20 14:40:14.890602
557  2023-11-20 14:40:14.922517
558  2023-11-20 14:40:14.954444
559  2023-11-20 14:40:14.986379
560  2023-11-20 14:40:15.019257
561  2023-11-20 14:40:15.051173
562  2023-11-20 14:40:15.083088
563  2023-11-20 14:40:15.115003
564  2023-11-20 14:40:15.146916
565  2023-11-20 14:40:15.178832
566  2023-11-20 14:40:15.210747
567  2023-11-20 14:40:15.258619
568  2023-11-20 14:40:15.290534
569  2023-11-20 14:40:15.322458
570  2023-11-20 14:40:15.354394
571  2023-11-20 14:40:15.386306
572  2023-11-20 14:40:15.418222
573  2023-11-20 14:40:15.450135
574  2023-11-20 14:40:15.483020
575  2023-11-20 14:40:15.514936
576  2023-11-20 14:40:15.546848
577  2023-11-20 14:40:15.578763
578  2023-11-20 14:40:15.610678
579  2023-11-20 14:40:15.658550
580  2023-11-20 14:40:15.690469
581  2023-11-20 14:40:15.722412
582  2023-11-20 14:40:15.754353
583  2023-11-20 14:40:15.786268
584  2023-11-20 14:40:15.819180
585  2023-11-20 14:40:15.851095
586  2023-11-20 14:40:15.883010
587  2023-11-20 14:40:15.914925
588  2023-11-20 14:40:15.946839
589  2023-11-20 14:40:15.978753
590  2023-11-20 14:40:16.010668
591  2023-11-20 14:40:16.058539
592  2023-11-20 14:40:16.090487
593  2023-11-20 14:40:16.122369
594  2023-11-20 14:40:16.155297
595  2023-11-20 14:40:16.187196
596  2023-11-20 14:40:16.219111
597  2023-11-20 14:40:16.251025
598  2023-11-20 14:40:16.282940
599  2023-11-20 14:40:16.314855
600  2023-11-20 14:40:16.347767
601  2023-11-20 14:40:16.378685
602  2023-11-20 14:40:16.426555
603  2023-11-20 14:40:16.458471
604  2023-11-20 14:40:16.490385
605  2023-11-20 14:40:16.522301
606  2023-11-20 14:40:16.555213
607  2023-11-20 14:40:16.586129
608  2023-11-20 14:40:16.619068
609  2023-11-20 14:40:16.650956
610  2023-11-20 14:40:16.682871
611  2023-11-20 14:40:16.714784
612  2023-11-20 14:40:16.746700
613  2023-11-20 14:40:16.778615
614  2023-11-20 14:40:16.826487
615  2023-11-20 14:40:16.858402
616  2023-11-20 14:40:16.890316
617  2023-11-20 14:40:16.922240
618  2023-11-20 14:40:16.954145
619  2023-11-20 14:40:16.987058
620  2023-11-20 14:40:17.019029
621  2023-11-20 14:40:17.050944
622  2023-11-20 14:40:17.082857
623  2023-11-20 14:40:17.114772
624  2023-11-20 14:40:17.146686
625  2023-11-20 14:40:17.178601
626  2023-11-20 14:40:17.226526
627  2023-11-20 14:40:17.258440
628  2023-11-20 14:40:17.291352
629  2023-11-20 14:40:17.322269
630  2023-11-20 14:40:17.355182
631  2023-11-20 14:40:17.386098
632  2023-11-20 14:40:17.419011
633  2023-11-20 14:40:17.450926
634  2023-11-20 14:40:17.482841
635  2023-11-20 14:40:17.514755
636  2023-11-20 14:40:17.546645
637  2023-11-20 14:40:17.578559
638  2023-11-20 14:40:17.626465
639  2023-11-20 14:40:17.658402
640  2023-11-20 14:40:17.691258
641  2023-11-20 14:40:17.723173
642  2023-11-20 14:40:17.755087
643  2023-11-20 14:40:17.787015
644  2023-11-20 14:40:17.818950
645  2023-11-20 14:40:17.850830
646  2023-11-20 14:40:17.882801
647  2023-11-20 14:40:17.914661
648  2023-11-20 14:40:17.946576
649  2023-11-20 14:40:17.978489
650  2023-11-20 14:40:18.026362
651  2023-11-20 14:40:18.058332
652  2023-11-20 14:40:18.090195
653  2023-11-20 14:40:18.123109
654  2023-11-20 14:40:18.155017
655  2023-11-20 14:40:18.186940
656  2023-11-20 14:40:18.218847
657  2023-11-20 14:40:18.250762
658  2023-11-20 14:40:18.282676
659  2023-11-20 14:40:18.314591
660  2023-11-20 14:40:18.346506
661  2023-11-20 14:40:18.378419
662  2023-11-20 14:40:18.426293
663  2023-11-20 14:40:18.458206
664  2023-11-20 14:40:18.490160
665  2023-11-20 14:40:18.523033
666  2023-11-20 14:40:18.554948
667  2023-11-20 14:40:18.586862
668  2023-11-20 14:40:18.618809
669  2023-11-20 14:40:18.650733
670  2023-11-20 14:40:18.682607
671  2023-11-20 14:40:18.714558
672  2023-11-20 14:40:18.746472
673  2023-11-20 14:40:18.778352
674  2023-11-20 14:40:18.826223
675  2023-11-20 14:40:18.858142
676  2023-11-20 14:40:18.891049
677  2023-11-20 14:40:18.922980
678  2023-11-20 14:40:18.954878
679  2023-11-20 14:40:18.986837
680  2023-11-20 14:40:19.018709
681  2023-11-20 14:40:19.050623
682  2023-11-20 14:40:19.082538
683  2023-11-20 14:40:19.114395
684  2023-11-20 14:40:19.146341
685  2023-11-20 14:40:19.178256
686  2023-11-20 14:40:19.226097
687  2023-11-20 14:40:19.259008
688  2023-11-20 14:40:19.290977
689  2023-11-20 14:40:19.322870
690  2023-11-20 14:40:19.354753
691  2023-11-20 14:40:19.386667
692  2023-11-20 14:40:19.418582
693  2023-11-20 14:40:19.450496
694  2023-11-20 14:40:19.482411
695  2023-11-20 14:40:19.514328
696  2023-11-20 14:40:19.546271
697  2023-11-20 14:40:19.578195
698  2023-11-20 14:40:19.626062
699  2023-11-20 14:40:19.658940
700  2023-11-20 14:40:19.690855
701  2023-11-20 14:40:19.722815
702  2023-11-20 14:40:19.754685
703  2023-11-20 14:40:19.786634
704  2023-11-20 14:40:19.818512
705  2023-11-20 14:40:19.850443
706  2023-11-20 14:40:19.882342
707  2023-11-20 14:40:19.914257
708  2023-11-20 14:40:19.946203
709  2023-11-20 14:40:19.994044
710  2023-11-20 14:40:20.026955
711  2023-11-20 14:40:20.058870
712  2023-11-20 14:40:20.090786
713  2023-11-20 14:40:20.122700
714  2023-11-20 14:40:20.154614
715  2023-11-20 14:40:20.186529
716  2023-11-20 14:40:20.218444
717  2023-11-20 14:40:20.250413
718  2023-11-20 14:40:20.282273
719  2023-11-20 14:40:20.314189
720  2023-11-20 14:40:20.346107
721  2023-11-20 14:40:20.394016
722  2023-11-20 14:40:20.426886
723  2023-11-20 14:40:20.458832
724  2023-11-20 14:40:20.490716
725  2023-11-20 14:40:20.522663
726  2023-11-20 14:40:20.554547
727  2023-11-20 14:40:20.586471
728  2023-11-20 14:40:20.618374
729  2023-11-20 14:40:20.650289
730  2023-11-20 14:40:20.682203
731  2023-11-20 14:40:20.714118
732  2023-11-20 14:40:20.746062
733  2023-11-20 14:40:20.794902
734  2023-11-20 14:40:20.826817
735  2023-11-20 14:40:20.858733
736  2023-11-20 14:40:20.890648
737  2023-11-20 14:40:20.922561
738  2023-11-20 14:40:20.954480
739  2023-11-20 14:40:20.986390
740  2023-11-20 14:40:21.018305
741  2023-11-20 14:40:21.050251
742  2023-11-20 14:40:21.082135
743  2023-11-20 14:40:21.114050
744  2023-11-20 14:40:21.146965
745  2023-11-20 14:40:21.194833
746  2023-11-20 14:40:21.226747
747  2023-11-20 14:40:21.258698
748  2023-11-20 14:40:21.290610
749  2023-11-20 14:40:21.322492
750  2023-11-20 14:40:21.354407
751  2023-11-20 14:40:21.386323
752  2023-11-20 14:40:21.418265
753  2023-11-20 14:40:21.450180
754  2023-11-20 14:40:21.482065
755  2023-11-20 14:40:21.514985
756  2023-11-20 14:40:21.546891
757  2023-11-20 14:40:21.594795
758  2023-11-20 14:40:21.626680
759  2023-11-20 14:40:21.658595
760  2023-11-20 14:40:21.690510
761  2023-11-20 14:40:21.722424
762  2023-11-20 14:40:21.754337
763  2023-11-20 14:40:21.786254
764  2023-11-20 14:40:21.818196
765  2023-11-20 14:40:21.850082
766  2023-11-20 14:40:21.882994
767  2023-11-20 14:40:21.914909
768  2023-11-20 14:40:21.946822
769  2023-11-20 14:40:21.994727
770  2023-11-20 14:40:22.026611
771  2023-11-20 14:40:22.058524
772  2023-11-20 14:40:22.090464
773  2023-11-20 14:40:22.122353
774  2023-11-20 14:40:22.154272
775  2023-11-20 14:40:22.186189
776  2023-11-20 14:40:22.218101
777  2023-11-20 14:40:22.250049
778  2023-11-20 14:40:22.282967
779  2023-11-20 14:40:22.314877
780  2023-11-20 14:40:22.346755
781  2023-11-20 14:40:22.394658
782  2023-11-20 14:40:22.426585
783  2023-11-20 14:40:22.458456
784  2023-11-20 14:40:22.490403
785  2023-11-20 14:40:22.522285
786  2023-11-20 14:40:22.554244
787  2023-11-20 14:40:22.587145
788  2023-11-20 14:40:22.618057
789  2023-11-20 14:40:22.650948
790  2023-11-20 14:40:22.682900
791  2023-11-20 14:40:22.714771
792  2023-11-20 14:40:22.746685
793  2023-11-20 14:40:22.794558
794  2023-11-20 14:40:22.826512
795  2023-11-20 14:40:22.858386
796  2023-11-20 14:40:22.890300
797  2023-11-20 14:40:22.922255
798  2023-11-20 14:40:22.954164
799  2023-11-20 14:40:22.986046
800  2023-11-20 14:40:23.018958
801  2023-11-20 14:40:23.050875
802  2023-11-20 14:40:23.082787
803  2023-11-20 14:40:23.114741
804  2023-11-20 14:40:23.146627
805  2023-11-20 14:40:23.194520
806  2023-11-20 14:40:23.226440
807  2023-11-20 14:40:23.258360
808  2023-11-20 14:40:23.290261
809  2023-11-20 14:40:23.322147
810  2023-11-20 14:40:23.354091
811  2023-11-20 14:40:23.386974
812  2023-11-20 14:40:23.418889
813  2023-11-20 14:40:23.450803
814  2023-11-20 14:40:23.482718
815  2023-11-20 14:40:23.514633
816  2023-11-20 14:40:23.546547
817  2023-11-20 14:40:23.594441
818  2023-11-20 14:40:23.626335
819  2023-11-20 14:40:23.658248
820  2023-11-20 14:40:23.690192
821  2023-11-20 14:40:23.722127
822  2023-11-20 14:40:23.754989
823  2023-11-20 14:40:23.786904
824  2023-11-20 14:40:23.818819
825  2023-11-20 14:40:23.850734
826  2023-11-20 14:40:23.882650
827  2023-11-20 14:40:23.914564
828  2023-11-20 14:40:23.962464
829  2023-11-20 14:40:23.994390
830  2023-11-20 14:40:24.026265
831  2023-11-20 14:40:24.058179
832  2023-11-20 14:40:24.090123
833  2023-11-20 14:40:24.122049
834  2023-11-20 14:40:24.154955
835  2023-11-20 14:40:24.186835
836  2023-11-20 14:40:24.218750
837  2023-11-20 14:40:24.250665
838  2023-11-20 14:40:24.282579
839  2023-11-20 14:40:24.314536
840  2023-11-20 14:40:24.362416
841  2023-11-20 14:40:24.394312
842  2023-11-20 14:40:24.426228
843  2023-11-20 14:40:24.458149
844  2023-11-20 14:40:24.490053
845  2023-11-20 14:40:24.522946
846  2023-11-20 14:40:24.554852
847  2023-11-20 14:40:24.586767
848  2023-11-20 14:40:24.618681
849  2023-11-20 14:40:24.650596
850  2023-11-20 14:40:24.682541
851  2023-11-20 14:40:24.714425
852  2023-11-20 14:40:24.762297
853  2023-11-20 14:40:24.794242
854  2023-11-20 14:40:24.826131
855  2023-11-20 14:40:24.858280
856  2023-11-20 14:40:24.891227
857  2023-11-20 14:40:24.923108
858  2023-11-20 14:40:24.954053
859  2023-11-20 14:40:24.986975
860  2023-11-20 14:40:25.018886
861  2023-11-20 14:40:25.050801
862  2023-11-20 14:40:25.082724
863  2023-11-20 14:40:25.114628
864  2023-11-20 14:40:25.162499
865  2023-11-20 14:40:25.194410
866  2023-11-20 14:40:25.226336
867  2023-11-20 14:40:25.258227
868  2023-11-20 14:40:25.290170
869  2023-11-20 14:40:25.322084
870  2023-11-20 14:40:25.354953
871  2023-11-20 14:40:25.386867
872  2023-11-20 14:40:25.418812
873  2023-11-20 14:40:25.450727
874  2023-11-20 14:40:25.482645
875  2023-11-20 14:40:25.514525
876  2023-11-20 14:40:25.562397
877  2023-11-20 14:40:25.594368
878  2023-11-20 14:40:25.626315
879  2023-11-20 14:40:25.658229
880  2023-11-20 14:40:25.690118
881  2023-11-20 14:40:25.722059
882  2023-11-20 14:40:25.754945
883  2023-11-20 14:40:25.786856
884  2023-11-20 14:40:25.818771
885  2023-11-20 14:40:25.850685
886  2023-11-20 14:40:25.882599
887  2023-11-20 14:40:25.914514
888  2023-11-20 14:40:25.962386
889  2023-11-20 14:40:25.994331
890  2023-11-20 14:40:26.026255
891  2023-11-20 14:40:26.058165
892  2023-11-20 14:40:26.090079
893  2023-11-20 14:40:26.122992
894  2023-11-20 14:40:26.154908
895  2023-11-20 14:40:26.186822
896  2023-11-20 14:40:26.218731
897  2023-11-20 14:40:26.250616
898  2023-11-20 14:40:26.282530
899  2023-11-20 14:40:26.314445
900  2023-11-20 14:40:26.362348
901  2023-11-20 14:40:26.395261
902  2023-11-20 14:40:26.427143
903  2023-11-20 14:40:26.458093
904  2023-11-20 14:40:26.490181
905  2023-11-20 14:40:26.522918
906  2023-11-20 14:40:26.554859
907  2023-11-20 14:40:26.586762
908  2023-11-20 14:40:26.618632
909  2023-11-20 14:40:26.650546
910  2023-11-20 14:40:26.682470
911  2023-11-20 14:40:26.714375
912  2023-11-20 14:40:26.762248
913  2023-11-20 14:40:26.794192
914  2023-11-20 14:40:26.827074
915  2023-11-20 14:40:26.857997
916  2023-11-20 14:40:26.890909
917  2023-11-20 14:40:26.922819
918  2023-11-20 14:40:26.954763
919  2023-11-20 14:40:26.986648
920  2023-11-20 14:40:27.018563
921  2023-11-20 14:40:27.050477
922  2023-11-20 14:40:27.082391
923  2023-11-20 14:40:27.114381
924  2023-11-20 14:40:27.162254
925  2023-11-20 14:40:27.194136
926  2023-11-20 14:40:27.226054
927  2023-11-20 14:40:27.258962
928  2023-11-20 14:40:27.290879
929  2023-11-20 14:40:27.322792
930  2023-11-20 14:40:27.354707
931  2023-11-20 14:40:27.386622
932  2023-11-20 14:40:27.418536
933  2023-11-20 14:40:27.450478
934  2023-11-20 14:40:27.482365
935  2023-11-20 14:40:27.530268
936  2023-11-20 14:40:27.562181
937  2023-11-20 14:40:27.594067
938  2023-11-20 14:40:27.626978
939  2023-11-20 14:40:27.658894
940  2023-11-20 14:40:27.690808
941  2023-11-20 14:40:27.722723
942  2023-11-20 14:40:27.754638
943  2023-11-20 14:40:27.786590
944  2023-11-20 14:40:27.818477
945  2023-11-20 14:40:27.850411
946  2023-11-20 14:40:27.882327
947  2023-11-20 14:40:27.931168
948  2023-11-20 14:40:27.962111
949  2023-11-20 14:40:27.995027
950  2023-11-20 14:40:28.026909
951  2023-11-20 14:40:28.058824
952  2023-11-20 14:40:28.090769
953  2023-11-20 14:40:28.122653
954  2023-11-20 14:40:28.154568
955  2023-11-20 14:40:28.186484
956  2023-11-20 14:40:28.218396
957  2023-11-20 14:40:28.250363
958  2023-11-20 14:40:28.282259
959  2023-11-20 14:40:28.330139
960  2023-11-20 14:40:28.362046
961  2023-11-20 14:40:28.394924
962  2023-11-20 14:40:28.426841
963  2023-11-20 14:40:28.458755
964  2023-11-20 14:40:28.490704
965  2023-11-20 14:40:28.522617
966  2023-11-20 14:40:28.554499
967  2023-11-20 14:40:28.586450
968  2023-11-20 14:40:28.618368
969  2023-11-20 14:40:28.650272
970  2023-11-20 14:40:28.682185
971  2023-11-20 14:40:28.730032
972  2023-11-20 14:40:28.761978
973  2023-11-20 14:40:28.794857
974  2023-11-20 14:40:28.826800
975  2023-11-20 14:40:28.858686
976  2023-11-20 14:40:28.890603
977  2023-11-20 14:40:28.922559
978  2023-11-20 14:40:28.954462
979  2023-11-20 14:40:28.986378
980  2023-11-20 14:40:29.018292
981  2023-11-20 14:40:29.050202
982  2023-11-20 14:40:29.082120
983  2023-11-20 14:40:29.130959
984  2023-11-20 14:40:29.162874
985  2023-11-20 14:40:29.194787
986  2023-11-20 14:40:29.226701
987  2023-11-20 14:40:29.258615
988  2023-11-20 14:40:29.290530
989  2023-11-20 14:40:29.322448
990  2023-11-20 14:40:29.354394
991  2023-11-20 14:40:29.387271
992  2023-11-20 14:40:29.418219
993  2023-11-20 14:40:29.450141
994  2023-11-20 14:40:29.483016
995  2023-11-20 14:40:29.530890
996  2023-11-20 14:40:29.562836
997  2023-11-20 14:40:29.594749
998  2023-11-20 14:40:29.626633
999  2023-11-20 14:40:29.658548
1000  2023-11-20 14:40:29.690494
1001  2023-11-20 14:40:29.722375
1002  2023-11-20 14:40:29.754325
1003  2023-11-20 14:40:29.786236
1004  2023-11-20 14:40:29.818160
1005  2023-11-20 14:40:29.850065
1006  2023-11-20 14:40:29.882949
1007  2023-11-20 14:40:29.930820
1008  2023-11-20 14:40:29.962734
1009  2023-11-20 14:40:29.994649
1010  2023-11-20 14:40:30.026594
1011  2023-11-20 14:40:30.058482
1012  2023-11-20 14:40:30.090432
1013  2023-11-20 14:40:30.122341
1014  2023-11-20 14:40:30.154220
1015  2023-11-20 14:40:30.186139
1016  2023-11-20 14:40:30.218081
1017  2023-11-20 14:40:30.250963
1018  2023-11-20 14:40:30.282878
1019  2023-11-20 14:40:30.330780
1020  2023-11-20 14:40:30.362669
1021  2023-11-20 14:40:30.394580
1022  2023-11-20 14:40:30.426525
1023  2023-11-20 14:40:30.458443
1024  2023-11-20 14:40:30.490365
1025  2023-11-20 14:40:30.522246
1026  2023-11-20 14:40:30.554181
1027  2023-11-20 14:40:30.586103
1028  2023-11-20 14:40:30.618979
1029  2023-11-20 14:40:30.650896
1030  2023-11-20 14:40:30.682809
1031  2023-11-20 14:40:30.730681
1032  2023-11-20 14:40:30.762595
1033  2023-11-20 14:40:30.794510
1034  2023-11-20 14:40:30.826458
1035  2023-11-20 14:40:30.858371
1036  2023-11-20 14:40:30.890291
1037  2023-11-20 14:40:30.922200
1038  2023-11-20 14:40:30.954113
1039  2023-11-20 14:40:30.986994
1040  2023-11-20 14:40:31.018909
1041  2023-11-20 14:40:31.050824
1042  2023-11-20 14:40:31.082739
1043  2023-11-20 14:40:31.130612
1044  2023-11-20 14:40:31.162567
1045  2023-11-20 14:40:31.194469
1046  2023-11-20 14:40:31.226385
1047  2023-11-20 14:40:31.258273
1048  2023-11-20 14:40:31.290221
1049  2023-11-20 14:40:31.322099
1050  2023-11-20 14:40:31.354017
1051  2023-11-20 14:40:31.386933
1052  2023-11-20 14:40:31.418873
1053  2023-11-20 14:40:31.450756
1054  2023-11-20 14:40:31.498628
1055  2023-11-20 14:40:31.530572
1056  2023-11-20 14:40:31.562492
1057  2023-11-20 14:40:31.594412
1058  2023-11-20 14:40:31.626315
1059  2023-11-20 14:40:31.658229
1060  2023-11-20 14:40:31.690144
1061  2023-11-20 14:40:31.722070
1062  2023-11-20 14:40:31.754945
1063  2023-11-20 14:40:31.786890
1064  2023-11-20 14:40:31.818802
1065  2023-11-20 14:40:31.850722
1066  2023-11-20 14:40:31.898559
1067  2023-11-20 14:40:31.930475
1068  2023-11-20 14:40:31.962419
1069  2023-11-20 14:40:31.994353
1070  2023-11-20 14:40:32.026247
1071  2023-11-20 14:40:32.058169
1072  2023-11-20 14:40:32.090075
1073  2023-11-20 14:40:32.122958
1074  2023-11-20 14:40:32.154874
1075  2023-11-20 14:40:32.186786
1076  2023-11-20 14:40:32.218701
1077  2023-11-20 14:40:32.250617
1078  2023-11-20 14:40:32.299486
1079  2023-11-20 14:40:32.330582
1080  2023-11-20 14:40:32.362348
1081  2023-11-20 14:40:32.395235
1082  2023-11-20 14:40:32.427145
1083  2023-11-20 14:40:32.459090
1084  2023-11-20 14:40:32.491014
1085  2023-11-20 14:40:32.522889
1086  2023-11-20 14:40:32.554804
1087  2023-11-20 14:40:32.586719
1088  2023-11-20 14:40:32.618633
1089  2023-11-20 14:40:32.650578
1090  2023-11-20 14:40:32.698449
1091  2023-11-20 14:40:32.730376
1092  2023-11-20 14:40:32.763249
1093  2023-11-20 14:40:32.794168
1094  2023-11-20 14:40:32.826107
1095  2023-11-20 14:40:32.858990
1096  2023-11-20 14:40:32.890940
1097  2023-11-20 14:40:32.922832
1098  2023-11-20 14:40:32.954738
1099  2023-11-20 14:40:32.986681
1100  2023-11-20 14:40:33.018565
1101  2023-11-20 14:40:33.050482
1102  2023-11-20 14:40:33.098383
1103  2023-11-20 14:40:33.130301
1104  2023-11-20 14:40:33.162222
1105  2023-11-20 14:40:33.194130
1106  2023-11-20 14:40:33.227006
1107  2023-11-20 14:40:33.258921
1108  2023-11-20 14:40:33.290836
1109  2023-11-20 14:40:33.322751
1110  2023-11-20 14:40:33.354666
1111  2023-11-20 14:40:33.386613
1112  2023-11-20 14:40:33.418507
1113  2023-11-20 14:40:33.450461
1114  2023-11-20 14:40:33.498311
1115  2023-11-20 14:40:33.530232
1116  2023-11-20 14:40:33.562141
1117  2023-11-20 14:40:33.594054
1118  2023-11-20 14:40:33.626973
1119  2023-11-20 14:40:33.658853
1120  2023-11-20 14:40:33.690767
1121  2023-11-20 14:40:33.722682
1122  2023-11-20 14:40:33.754626
1123  2023-11-20 14:40:33.786509
1124  2023-11-20 14:40:33.818459
1125  2023-11-20 14:40:33.850370
1126  2023-11-20 14:40:33.898253
1127  2023-11-20 14:40:33.930155
1128  2023-11-20 14:40:33.962074
1129  2023-11-20 14:40:33.993986
1130  2023-11-20 14:40:34.026869
1131  2023-11-20 14:40:34.058784
1132  2023-11-20 14:40:34.090698
1133  2023-11-20 14:40:34.122613
1134  2023-11-20 14:40:34.154556
1135  2023-11-20 14:40:34.186503
1136  2023-11-20 14:40:34.218389
1137  2023-11-20 14:40:34.250299
1138  2023-11-20 14:40:34.299140
1139  2023-11-20 14:40:34.330094
1140  2023-11-20 14:40:34.362969
1141  2023-11-20 14:40:34.394884
1142  2023-11-20 14:40:34.426833
1143  2023-11-20 14:40:34.458714
1144  2023-11-20 14:40:34.490629
1145  2023-11-20 14:40:34.522542
1146  2023-11-20 14:40:34.554457
1147  2023-11-20 14:40:34.586402
1148  2023-11-20 14:40:34.618316
1149  2023-11-20 14:40:34.650233
1150  2023-11-20 14:40:34.698104
1151  2023-11-20 14:40:34.730986
1152  2023-11-20 14:40:34.762900
1153  2023-11-20 14:40:34.794816
1154  2023-11-20 14:40:34.826730
1155  2023-11-20 14:40:34.858677
1156  2023-11-20 14:40:34.890590
1157  2023-11-20 14:40:34.922507
1158  2023-11-20 14:40:34.954426
1159  2023-11-20 14:40:34.986332
1160  2023-11-20 14:40:35.018246
1161  2023-11-20 14:40:35.066129
1162  2023-11-20 14:40:35.099002
1163  2023-11-20 14:40:35.130932
1164  2023-11-20 14:40:35.162832
1165  2023-11-20 14:40:35.194747
1166  2023-11-20 14:40:35.226661
1167  2023-11-20 14:40:35.258604
1168  2023-11-20 14:40:35.290513
1169  2023-11-20 14:40:35.322437
1170  2023-11-20 14:40:35.354394
1171  2023-11-20 14:40:35.386310
1172  2023-11-20 14:40:35.418188
1173  2023-11-20 14:40:35.466096
1174  2023-11-20 14:40:35.498973
1175  2023-11-20 14:40:35.530921
1176  2023-11-20 14:40:35.562802
1177  2023-11-20 14:40:35.594755
1178  2023-11-20 14:40:35.626631
1179  2023-11-20 14:40:35.658545
1180  2023-11-20 14:40:35.690517
1181  2023-11-20 14:40:35.722432
1182  2023-11-20 14:40:35.754346
1183  2023-11-20 14:40:35.786358
1184  2023-11-20 14:40:35.818243
1185  2023-11-20 14:40:35.866425
1186  2023-11-20 14:40:35.898339
1187  2023-11-20 14:40:35.930259
1188  2023-11-20 14:40:35.962169
1189  2023-11-20 14:40:35.994112
1190  2023-11-20 14:40:36.027037
1191  2023-11-20 14:40:36.058944
1192  2023-11-20 14:40:36.090826
1193  2023-11-20 14:40:36.122744
1194  2023-11-20 14:40:36.154693
1195  2023-11-20 14:40:36.186569
1196  2023-11-20 14:40:36.218483
1197  2023-11-20 14:40:36.266355
1198  2023-11-20 14:40:36.298271
1199  2023-11-20 14:40:36.330188
1200  2023-11-20 14:40:36.362189
1201  2023-11-20 14:40:36.394106
1202  2023-11-20 14:40:36.426985
1203  2023-11-20 14:40:36.458901
1204  2023-11-20 14:40:36.490815
1205  2023-11-20 14:40:36.522730
1206  2023-11-20 14:40:36.554645
1207  2023-11-20 14:40:36.586589
1208  2023-11-20 14:40:36.618474
1209  2023-11-20 14:40:36.666380
1210  2023-11-20 14:40:36.698297
1211  2023-11-20 14:40:36.730205
1212  2023-11-20 14:40:36.762125
1213  2023-11-20 14:40:36.794040
1214  2023-11-20 14:40:36.826929
1215  2023-11-20 14:40:36.858831
1216  2023-11-20 14:40:36.890745
1217  2023-11-20 14:40:36.922661
1218  2023-11-20 14:40:36.954605
1219  2023-11-20 14:40:36.986501
1220  2023-11-20 14:40:37.018434
1221  2023-11-20 14:40:37.066276
1222  2023-11-20 14:40:37.098189
1223  2023-11-20 14:40:37.130108
1224  2023-11-20 14:40:37.162023
1225  2023-11-20 14:40:37.194938
1226  2023-11-20 14:40:37.226887
1227  2023-11-20 14:40:37.258762
1228  2023-11-20 14:40:37.290677
1229  2023-11-20 14:40:37.322623
1230  2023-11-20 14:40:37.354504
1231  2023-11-20 14:40:37.386455
1232  2023-11-20 14:40:37.418335
1233  2023-11-20 14:40:37.466206
1234  2023-11-20 14:40:37.498121
1235  2023-11-20 14:40:37.530073
1236  2023-11-20 14:40:37.562959
1237  2023-11-20 14:40:37.594892
1238  2023-11-20 14:40:37.626807
1239  2023-11-20 14:40:37.658724
1240  2023-11-20 14:40:37.690608
1241  2023-11-20 14:40:37.722522
1242  2023-11-20 14:40:37.754487
1243  2023-11-20 14:40:37.786404
1244  2023-11-20 14:40:37.818266
1245  2023-11-20 14:40:37.866170
1246  2023-11-20 14:40:37.898083
1247  2023-11-20 14:40:37.930007
1248  2023-11-20 14:40:37.962881
1249  2023-11-20 14:40:37.994794
1250  2023-11-20 14:40:38.026709
1251  2023-11-20 14:40:38.058623
1252  2023-11-20 14:40:38.090538
1253  2023-11-20 14:40:38.122473
1254  2023-11-20 14:40:38.154399
1255  2023-11-20 14:40:38.186310
1256  2023-11-20 14:40:38.218231
1257  2023-11-20 14:40:38.266097
1258  2023-11-20 14:40:38.298979
1259  2023-11-20 14:40:38.330897
1260  2023-11-20 14:40:38.362839
1261  2023-11-20 14:40:38.394725
1262  2023-11-20 14:40:38.426640
1263  2023-11-20 14:40:38.458554
1264  2023-11-20 14:40:38.490520
1265  2023-11-20 14:40:38.522415
1266  2023-11-20 14:40:38.554328
1267  2023-11-20 14:40:38.586243
1268  2023-11-20 14:40:38.618159
1269  2023-11-20 14:40:38.666996
1270  2023-11-20 14:40:38.698911
1271  2023-11-20 14:40:38.730827
1272  2023-11-20 14:40:38.762776
1273  2023-11-20 14:40:38.794656
1274  2023-11-20 14:40:38.826960
1275  2023-11-20 14:40:38.858842
1276  2023-11-20 14:40:38.890761
1277  2023-11-20 14:40:38.922713
1278  2023-11-20 14:40:38.954586
1279  2023-11-20 14:40:38.986501
1280  2023-11-20 14:40:39.034404
1281  2023-11-20 14:40:39.066320
1282  2023-11-20 14:40:39.098240
1283  2023-11-20 14:40:39.130146
1284  2023-11-20 14:40:39.162067
1285  2023-11-20 14:40:39.194944
1286  2023-11-20 14:40:39.226857
1287  2023-11-20 14:40:39.258772
1288  2023-11-20 14:40:39.290728
1289  2023-11-20 14:40:39.322602
1290  2023-11-20 14:40:39.354518
1291  2023-11-20 14:40:39.386431
1292  2023-11-20 14:40:39.434356
1293  2023-11-20 14:40:39.466260
1294  2023-11-20 14:40:39.498170
1295  2023-11-20 14:40:39.530084
1296  2023-11-20 14:40:39.562959
1297  2023-11-20 14:40:39.594906
1298  2023-11-20 14:40:39.626824
1299  2023-11-20 14:40:39.658716
1300  2023-11-20 14:40:39.690618
1301  2023-11-20 14:40:39.722533
1302  2023-11-20 14:40:39.754448
1303  2023-11-20 14:40:39.786368
1304  2023-11-20 14:40:39.834274
1305  2023-11-20 14:40:39.866153
1306  2023-11-20 14:40:39.898104
1307  2023-11-20 14:40:39.930977
1308  2023-11-20 14:40:39.962895
1309  2023-11-20 14:40:39.994844
1310  2023-11-20 14:40:40.026759
1311  2023-11-20 14:40:40.058675
1312  2023-11-20 14:40:40.090549
1313  2023-11-20 14:40:40.122464
1314  2023-11-20 14:40:40.154412
1315  2023-11-20 14:40:40.186330
1316  2023-11-20 14:40:40.234197
1317  2023-11-20 14:40:40.266110
1318  2023-11-20 14:40:40.298027
1319  2023-11-20 14:40:40.330939
1320  2023-11-20 14:40:40.362862
1321  2023-11-20 14:40:40.394740
1322  2023-11-20 14:40:40.426688
1323  2023-11-20 14:40:40.458574
1324  2023-11-20 14:40:40.490480
1325  2023-11-20 14:40:40.522394
1326  2023-11-20 14:40:40.554351
1327  2023-11-20 14:40:40.586261
1328  2023-11-20 14:40:40.635093
1329  2023-11-20 14:40:40.667009
1330  2023-11-20 14:40:40.698953
1331  2023-11-20 14:40:40.730877
1332  2023-11-20 14:40:40.762752
1333  2023-11-20 14:40:40.794698
1334  2023-11-20 14:40:40.826581
1335  2023-11-20 14:40:40.858496
1336  2023-11-20 14:40:40.890416
1337  2023-11-20 14:40:40.922381
1338  2023-11-20 14:40:40.954272
1339  2023-11-20 14:40:40.986187
1340  2023-11-20 14:40:41.035025
1341  2023-11-20 14:40:41.066940
1342  2023-11-20 14:40:41.098853
1343  2023-11-20 14:40:41.130772
1344  2023-11-20 14:40:41.162721
1345  2023-11-20 14:40:41.194598
1346  2023-11-20 14:40:41.226512
1347  2023-11-20 14:40:41.258442
1348  2023-11-20 14:40:41.290380
1349  2023-11-20 14:40:41.322293
1350  2023-11-20 14:40:41.354199
1351  2023-11-20 14:40:41.386089
1352  2023-11-20 14:40:41.434991
1353  2023-11-20 14:40:41.466870
1354  2023-11-20 14:40:41.498816
1355  2023-11-20 14:40:41.530729
1356  2023-11-20 14:40:41.562614
1357  2023-11-20 14:40:41.594528
1358  2023-11-20 14:40:41.626444
1359  2023-11-20 14:40:41.658405
1360  2023-11-20 14:40:41.690312
1361  2023-11-20 14:40:41.722225
1362  2023-11-20 14:40:41.755099
1363  2023-11-20 14:40:41.786052
1364  2023-11-20 14:40:41.834916
1365  2023-11-20 14:40:41.866831
1366  2023-11-20 14:40:41.898715
1367  2023-11-20 14:40:41.930672
1368  2023-11-20 14:40:41.962543
1369  2023-11-20 14:40:41.994458
1370  2023-11-20 14:40:42.026406
1371  2023-11-20 14:40:42.058289
1372  2023-11-20 14:40:42.091200
1373  2023-11-20 14:40:42.122157
1374  2023-11-20 14:40:42.154032
1375  2023-11-20 14:40:42.186955
1376  2023-11-20 14:40:42.234855
1377  2023-11-20 14:40:42.266308
1378  2023-11-20 14:40:42.298223
1379  2023-11-20 14:40:42.330137
1380  2023-11-20 14:40:42.362052
1381  2023-11-20 14:40:42.394968
1382  2023-11-20 14:40:42.426879
1383  2023-11-20 14:40:42.457965
1384  2023-11-20 14:40:42.490923
1385  2023-11-20 14:40:42.522822
1386  2023-11-20 14:40:42.554738
1387  2023-11-20 14:40:42.602579
1388  2023-11-20 14:40:42.634493
1389  2023-11-20 14:40:42.666408
1390  2023-11-20 14:40:42.698354
1391  2023-11-20 14:40:42.730268
1392  2023-11-20 14:40:42.762182
1393  2023-11-20 14:40:42.795099
1394  2023-11-20 14:40:42.827006
1395  2023-11-20 14:40:42.858923
1396  2023-11-20 14:40:42.890849
1397  2023-11-20 14:40:42.922754
1398  2023-11-20 14:40:42.954672
1399  2023-11-20 14:40:43.002509
1400  2023-11-20 14:40:43.034423
1401  2023-11-20 14:40:43.066338
1402  2023-11-20 14:40:43.098285
1403  2023-11-20 14:40:43.130220
1404  2023-11-20 14:40:43.162901
1405  2023-11-20 14:40:43.194799
1406  2023-11-20 14:40:43.226714
1407  2023-11-20 14:40:43.258598
1408  2023-11-20 14:40:43.290512
1409  2023-11-20 14:40:43.322435
1410  2023-11-20 14:40:43.354344
1411  2023-11-20 14:40:43.402214
1412  2023-11-20 14:40:43.435130
1413  2023-11-20 14:40:43.467041
1414  2023-11-20 14:40:43.498987
1415  2023-11-20 14:40:43.530900
1416  2023-11-20 14:40:43.562785
1417  2023-11-20 14:40:43.594699
1418  2023-11-20 14:40:43.626614
1419  2023-11-20 14:40:43.658528
1420  2023-11-20 14:40:43.690443
1421  2023-11-20 14:40:43.722357
1422  2023-11-20 14:40:43.754306
1423  2023-11-20 14:40:43.802174
1424  2023-11-20 14:40:43.834089
1425  2023-11-20 14:40:43.867003
1426  2023-11-20 14:40:43.898916
1427  2023-11-20 14:40:43.930806
1428  2023-11-20 14:40:43.962751
1429  2023-11-20 14:40:43.994630
1430  2023-11-20 14:40:44.026544
1431  2023-11-20 14:40:44.058459
1432  2023-11-20 14:40:44.090373
1433  2023-11-20 14:40:44.122332
1434  2023-11-20 14:40:44.154246
1435  2023-11-20 14:40:44.202152
1436  2023-11-20 14:40:44.235030
1437  2023-11-20 14:40:44.266945
1438  2023-11-20 14:40:44.298891
1439  2023-11-20 14:40:44.330805
1440  2023-11-20 14:40:44.362727
1441  2023-11-20 14:40:44.394644
1442  2023-11-20 14:40:44.426522
1443  2023-11-20 14:40:44.458469
1444  2023-11-20 14:40:44.490348
1445  2023-11-20 14:40:44.522292
1446  2023-11-20 14:40:44.555175
1447  2023-11-20 14:40:44.603048
1448  2023-11-20 14:40:44.634962
1449  2023-11-20 14:40:44.666917
1450  2023-11-20 14:40:44.698820
1451  2023-11-20 14:40:44.730747
1452  2023-11-20 14:40:44.762620
1453  2023-11-20 14:40:44.794535
1454  2023-11-20 14:40:44.826449
1455  2023-11-20 14:40:44.858397
1456  2023-11-20 14:40:44.891276
1457  2023-11-20 14:40:44.923190
1458  2023-11-20 14:40:44.954125
1459  2023-11-20 14:40:45.002977
1460  2023-11-20 14:40:45.034932
1461  2023-11-20 14:40:45.066837
1462  2023-11-20 14:40:45.098754
1463  2023-11-20 14:40:45.130636
1464  2023-11-20 14:40:45.162583
1465  2023-11-20 14:40:45.194493
1466  2023-11-20 14:40:45.226380
1467  2023-11-20 14:40:45.258333
1468  2023-11-20 14:40:45.290244
1469  2023-11-20 14:40:45.323120
1470  2023-11-20 14:40:45.355035
1471  2023-11-20 14:40:45.402936
1472  2023-11-20 14:40:45.434823
1473  2023-11-20 14:40:45.466778
1474  2023-11-20 14:40:45.498687
1475  2023-11-20 14:40:45.530567
1476  2023-11-20 14:40:45.562481
1477  2023-11-20 14:40:45.594396
1478  2023-11-20 14:40:45.626350
1479  2023-11-20 14:40:45.658262
1480  2023-11-20 14:40:45.690179
1481  2023-11-20 14:40:45.723051
1482  2023-11-20 14:40:45.755005
1483  2023-11-20 14:40:45.802877
1484  2023-11-20 14:40:45.834754
1485  2023-11-20 14:40:45.866700
1486  2023-11-20 14:40:45.898615
1487  2023-11-20 14:40:45.930530
1488  2023-11-20 14:40:45.962447
1489  2023-11-20 14:40:45.994370
1490  2023-11-20 14:40:46.026279
1491  2023-11-20 14:40:46.058156
1492  2023-11-20 14:40:46.091067
1493  2023-11-20 14:40:46.122991
1494  2023-11-20 14:40:46.154934
1495  2023-11-20 14:40:46.202807
1496  2023-11-20 14:40:46.234685
1497  2023-11-20 14:40:46.266640
1498  2023-11-20 14:40:46.298551
1499  2023-11-20 14:40:46.330465
1500  2023-11-20 14:40:46.362382
1501  2023-11-20 14:40:46.395263
1502  2023-11-20 14:40:46.427170
1503  2023-11-20 14:40:46.458087
1504  2023-11-20 14:40:46.490998
1505  2023-11-20 14:40:46.522915
1506  2023-11-20 14:40:46.570787
1507  2023-11-20 14:40:46.602746
1508  2023-11-20 14:40:46.634645
1509  2023-11-20 14:40:46.667526
1510  2023-11-20 14:40:46.698489
1511  2023-11-20 14:40:46.731388
1512  2023-11-20 14:40:46.763270
1513  2023-11-20 14:40:46.794222
1514  2023-11-20 14:40:46.827100
1515  2023-11-20 14:40:46.859014
1516  2023-11-20 14:40:46.890961
1517  2023-11-20 14:40:46.923841
1518  2023-11-20 14:40:46.970717
1519  2023-11-20 14:40:47.003631
1520  2023-11-20 14:40:47.035542
1521  2023-11-20 14:40:47.067457
1522  2023-11-20 14:40:47.099405
1523  2023-11-20 14:40:47.131317
1524  2023-11-20 14:40:47.163241
1525  2023-11-20 14:40:47.195119
1526  2023-11-20 14:40:47.227085
1527  2023-11-20 14:40:47.259044
1528  2023-11-20 14:40:47.290915
1529  2023-11-20 14:40:47.322873
1530  2023-11-20 14:40:47.371751
1531  2023-11-20 14:40:47.403666
1532  2023-11-20 14:40:47.434582
1533  2023-11-20 14:40:47.467496
1534  2023-11-20 14:40:47.498412
1535  2023-11-20 14:40:47.531324
1536  2023-11-20 14:40:47.563239
1537  2023-11-20 14:40:47.595153
1538  2023-11-20 14:40:47.627068
1539  2023-11-20 14:40:47.658983
1540  2023-11-20 14:40:47.690897
1541  2023-11-20 14:40:47.722811
1542  2023-11-20 14:40:47.770691
1543  2023-11-20 14:40:47.802599
1544  2023-11-20 14:40:47.834513
1545  2023-11-20 14:40:47.866428
1546  2023-11-20 14:40:47.899340
1547  2023-11-20 14:40:47.930258
1548  2023-11-20 14:40:47.963170
1549  2023-11-20 14:40:47.995084
1550  2023-11-20 14:40:48.026999
1551  2023-11-20 14:40:48.058913
1552  2023-11-20 14:40:48.090828
1553  2023-11-20 14:40:48.122743
1554  2023-11-20 14:40:48.170615
1555  2023-11-20 14:40:48.202530
1556  2023-11-20 14:40:48.234443
1557  2023-11-20 14:40:48.266359
1558  2023-11-20 14:40:48.298273
1559  2023-11-20 14:40:48.330188
1560  2023-11-20 14:40:48.363101
1561  2023-11-20 14:40:48.395015
1562  2023-11-20 14:40:48.426932
1563  2023-11-20 14:40:48.458845
1564  2023-11-20 14:40:48.490758
1565  2023-11-20 14:40:48.522674
1566  2023-11-20 14:40:48.570545
1567  2023-11-20 14:40:48.602461
1568  2023-11-20 14:40:48.634375
1569  2023-11-20 14:40:48.666289
1570  2023-11-20 14:40:48.698204
1571  2023-11-20 14:40:48.730118
1572  2023-11-20 14:40:48.763032
1573  2023-11-20 14:40:48.794950
1574  2023-11-20 14:40:48.826862
1575  2023-11-20 14:40:48.858776
1576  2023-11-20 14:40:48.890689
1577  2023-11-20 14:40:48.922605
1578  2023-11-20 14:40:48.970479
1579  2023-11-20 14:40:49.002390
1580  2023-11-20 14:40:49.034306
1581  2023-11-20 14:40:49.066220
1582  2023-11-20 14:40:49.098135
1583  2023-11-20 14:40:49.131048
1584  2023-11-20 14:40:49.162965
1585  2023-11-20 14:40:49.194875
1586  2023-11-20 14:40:49.226806
1587  2023-11-20 14:40:49.258583
1588  2023-11-20 14:40:49.291526
1589  2023-11-20 14:40:49.323446
1590  2023-11-20 14:40:49.371282
1591  2023-11-20 14:40:49.403196
1592  2023-11-20 14:40:49.435111
1593  2023-11-20 14:40:49.467054
1594  2023-11-20 14:40:49.498944
1595  2023-11-20 14:40:49.530887
1596  2023-11-20 14:40:49.562771
1597  2023-11-20 14:40:49.594720
1598  2023-11-20 14:40:49.626634
1599  2023-11-20 14:40:49.658514
1600  2023-11-20 14:40:49.691459
1601  2023-11-20 14:40:49.723380
1602  2023-11-20 14:40:49.770257
1603  2023-11-20 14:40:49.803140
1604  2023-11-20 14:40:49.835043
1605  2023-11-20 14:40:49.865988
1606  2023-11-20 14:40:49.898872
1607  2023-11-20 14:40:49.930786
1608  2023-11-20 14:40:49.962700
1609  2023-11-20 14:40:49.994646
1610  2023-11-20 14:40:50.026539
1611  2023-11-20 14:40:50.058461
1612  2023-11-20 14:40:50.091405
1613  2023-11-20 14:40:50.138232
1614  2023-11-20 14:40:50.171143
1615  2023-11-20 14:40:50.203058
1616  2023-11-20 14:40:50.235005
1617  2023-11-20 14:40:50.266888
1618  2023-11-20 14:40:50.298846
1619  2023-11-20 14:40:50.330718
1620  2023-11-20 14:40:50.362670
1621  2023-11-20 14:40:50.395595
1622  2023-11-20 14:40:50.426461
1623  2023-11-20 14:40:50.458374
1624  2023-11-20 14:40:50.491334
1625  2023-11-20 14:40:50.538161
1626  2023-11-20 14:40:50.571075
1627  2023-11-20 14:40:50.603019
1628  2023-11-20 14:40:50.634919
1629  2023-11-20 14:40:50.666849
1630  2023-11-20 14:40:50.698764
1631  2023-11-20 14:40:50.730648
1632  2023-11-20 14:40:50.762562
1633  2023-11-20 14:40:50.794476
1634  2023-11-20 14:40:50.826391
1635  2023-11-20 14:40:50.858349
1636  2023-11-20 14:40:50.890221
1637  2023-11-20 14:40:50.938093
1638  2023-11-20 14:40:50.971013
1639  2023-11-20 14:40:51.002979
1640  2023-11-20 14:40:51.034890
1641  2023-11-20 14:40:51.066830
1642  2023-11-20 14:40:51.098709
1643  2023-11-20 14:40:51.130623
1644  2023-11-20 14:40:51.162538
1645  2023-11-20 14:40:51.194451
1646  2023-11-20 14:40:51.226398
1647  2023-11-20 14:40:51.258325
1648  2023-11-20 14:40:51.290195
1649  2023-11-20 14:40:51.338100
1650  2023-11-20 14:40:51.371019
1651  2023-11-20 14:40:51.402894
1652  2023-11-20 14:40:51.434808
1653  2023-11-20 14:40:51.466757
1654  2023-11-20 14:40:51.498639
1655  2023-11-20 14:40:51.530554
1656  2023-11-20 14:40:51.562468
1657  2023-11-20 14:40:51.595421
1658  2023-11-20 14:40:51.626328
1659  2023-11-20 14:40:51.658212
1660  2023-11-20 14:40:51.691155
1661  2023-11-20 14:40:51.738996
1662  2023-11-20 14:40:51.770950
1663  2023-11-20 14:40:51.802857
1664  2023-11-20 14:40:51.834758
1665  2023-11-20 14:40:51.866656
1666  2023-11-20 14:40:51.898570
1667  2023-11-20 14:40:51.930484
1668  2023-11-20 14:40:51.962398
1669  2023-11-20 14:40:51.994313
1670  2023-11-20 14:40:52.026227
1671  2023-11-20 14:40:52.058183
1672  2023-11-20 14:40:52.090069
1673  2023-11-20 14:40:52.138939
1674  2023-11-20 14:40:52.170874
1675  2023-11-20 14:40:52.202757
1676  2023-11-20 14:40:52.234671
1677  2023-11-20 14:40:52.266586
1678  2023-11-20 14:40:52.298501
1679  2023-11-20 14:40:52.330414
1680  2023-11-20 14:40:52.362380
1681  2023-11-20 14:40:52.394244
1682  2023-11-20 14:40:52.426160
1683  2023-11-20 14:40:52.458078
1684  2023-11-20 14:40:52.491010
1685  2023-11-20 14:40:52.538862
1686  2023-11-20 14:40:52.570808
1687  2023-11-20 14:40:52.602718
1688  2023-11-20 14:40:52.634601
1689  2023-11-20 14:40:52.666517
1690  2023-11-20 14:40:52.698430
1691  2023-11-20 14:40:52.730376
1692  2023-11-20 14:40:52.762261
1693  2023-11-20 14:40:52.794180
1694  2023-11-20 14:40:52.826123
1695  2023-11-20 14:40:52.859003
1696  2023-11-20 14:40:52.890948
1697  2023-11-20 14:40:52.938789
1698  2023-11-20 14:40:52.970704
1699  2023-11-20 14:40:53.002617
1700  2023-11-20 14:40:53.034533
1701  2023-11-20 14:40:53.066447
1702  2023-11-20 14:40:53.098361
1703  2023-11-20 14:40:53.130276
1704  2023-11-20 14:40:53.162191
1705  2023-11-20 14:40:53.194144
1706  2023-11-20 14:40:53.226059
1707  2023-11-20 14:40:53.258971
1708  2023-11-20 14:40:53.290886
1709  2023-11-20 14:40:53.338570
1710  2023-11-20 14:40:53.370484
1711  2023-11-20 14:40:53.402399
1712  2023-11-20 14:40:53.434318
1713  2023-11-20 14:40:53.466230
1714  2023-11-20 14:40:53.498182
1715  2023-11-20 14:40:53.530100
1716  2023-11-20 14:40:53.563034
1717  2023-11-20 14:40:53.594915
1718  2023-11-20 14:40:53.626862
1719  2023-11-20 14:40:53.658743
1720  2023-11-20 14:40:53.690658
1721  2023-11-20 14:40:53.738530
1722  2023-11-20 14:40:53.770466
1723  2023-11-20 14:40:53.802291
1724  2023-11-20 14:40:53.834205
1725  2023-11-20 14:40:53.866155
1726  2023-11-20 14:40:53.899033
1727  2023-11-20 14:40:53.930949
1728  2023-11-20 14:40:53.962893
1729  2023-11-20 14:40:53.994806
1730  2023-11-20 14:40:54.026691
1731  2023-11-20 14:40:54.058605
1732  2023-11-20 14:40:54.106479
1733  2023-11-20 14:40:54.138391
1734  2023-11-20 14:40:54.170307
1735  2023-11-20 14:40:54.203218
1736  2023-11-20 14:40:54.234177
1737  2023-11-20 14:40:54.266051
1738  2023-11-20 14:40:54.298962
1739  2023-11-20 14:40:54.330882
1740  2023-11-20 14:40:54.362835
1741  2023-11-20 14:40:54.394750
1742  2023-11-20 14:40:54.426622
1743  2023-11-20 14:40:54.458537
1744  2023-11-20 14:40:54.506414
1745  2023-11-20 14:40:54.538939
1746  2023-11-20 14:40:54.570855
1747  2023-11-20 14:40:54.602800
1748  2023-11-20 14:40:54.634715
1749  2023-11-20 14:40:54.666629
1750  2023-11-20 14:40:54.698544
1751  2023-11-20 14:40:54.730352
1752  2023-11-20 14:40:54.762264
1753  2023-11-20 14:40:54.794182
1754  2023-11-20 14:40:54.826055
1755  2023-11-20 14:40:54.858971
1756  2023-11-20 14:40:54.906882
1757  2023-11-20 14:40:54.938783
1758  2023-11-20 14:40:54.970713
1759  2023-11-20 14:40:55.002590
1760  2023-11-20 14:40:55.034498
1761  2023-11-20 14:40:55.066411
1762  2023-11-20 14:40:55.098357
1763  2023-11-20 14:40:55.130273
1764  2023-11-20 14:40:55.162186
1765  2023-11-20 14:40:55.194119
1766  2023-11-20 14:40:55.226994
1767  2023-11-20 14:40:55.258898
1768  2023-11-20 14:40:55.306770
1769  2023-11-20 14:40:55.338684
1770  2023-11-20 14:40:55.370599
1771  2023-11-20 14:40:55.402514
1772  2023-11-20 14:40:55.434495
1773  2023-11-20 14:40:55.466411
1774  2023-11-20 14:40:55.498325
1775  2023-11-20 14:40:55.530240
1776  2023-11-20 14:40:55.562155
1777  2023-11-20 14:40:55.594069
1778  2023-11-20 14:40:55.626981
1779  2023-11-20 14:40:55.658314
1780  2023-11-20 14:40:55.706177
1781  2023-11-20 14:40:55.738093
1782  2023-11-20 14:40:55.770017
1783  2023-11-20 14:40:55.802889
1784  2023-11-20 14:40:55.834847
1785  2023-11-20 14:40:55.866760
1786  2023-11-20 14:40:55.898675
1787  2023-11-20 14:40:55.930589
1788  2023-11-20 14:40:55.962504
1789  2023-11-20 14:40:55.994459
1790  2023-11-20 14:40:56.026379
1791  2023-11-20 14:40:56.058283
1792  2023-11-20 14:40:56.106149
1793  2023-11-20 14:40:56.138033
1794  2023-11-20 14:40:56.170946
1795  2023-11-20 14:40:56.202908
1796  2023-11-20 14:40:56.234776
1797  2023-11-20 14:40:56.266720
1798  2023-11-20 14:40:56.298606
1799  2023-11-20 14:40:56.330519
1800  2023-11-20 14:40:56.362469
1801  2023-11-20 14:40:56.395346
1802  2023-11-20 14:40:56.426296
1803  2023-11-20 14:40:56.458177
1804  2023-11-20 14:40:56.507056
1805  2023-11-20 14:40:56.538962
1806  2023-11-20 14:40:56.570877
1807  2023-11-20 14:40:56.602791
1808  2023-11-20 14:40:56.634739
1809  2023-11-20 14:40:56.666621
1810  2023-11-20 14:40:56.698535
1811  2023-11-20 14:40:56.730451
1812  2023-11-20 14:40:56.762400
1813  2023-11-20 14:40:56.794311
1814  2023-11-20 14:40:56.826235
1815  2023-11-20 14:40:56.859138
1816  2023-11-20 14:40:56.906978
1817  2023-11-20 14:40:56.938893
1818  2023-11-20 14:40:56.970847
1819  2023-11-20 14:40:57.002723
1820  2023-11-20 14:40:57.034638
1821  2023-11-20 14:40:57.066552
1822  2023-11-20 14:40:57.098471
1823  2023-11-20 14:40:57.130418
1824  2023-11-20 14:40:57.162325
1825  2023-11-20 14:40:57.194210
1826  2023-11-20 14:40:57.226125
1827  2023-11-20 14:40:57.259037
1828  2023-11-20 14:40:57.306909
1829  2023-11-20 14:40:57.338857
1830  2023-11-20 14:40:57.370739
1831  2023-11-20 14:40:57.402686
1832  2023-11-20 14:40:57.434569
1833  2023-11-20 14:40:57.466483
1834  2023-11-20 14:40:57.498446
1835  2023-11-20 14:40:57.530366
1836  2023-11-20 14:40:57.562256
1837  2023-11-20 14:40:57.594140
1838  2023-11-20 14:40:57.626863
1839  2023-11-20 14:40:57.674793
1840  2023-11-20 14:40:57.706679
1841  2023-11-20 14:40:57.738597
1842  2023-11-20 14:40:57.770478
1843  2023-11-20 14:40:57.802430
1844  2023-11-20 14:40:57.834337
1845  2023-11-20 14:40:57.866260
1846  2023-11-20 14:40:57.898174
1847  2023-11-20 14:40:57.931051
1848  2023-11-20 14:40:57.963008
1849  2023-11-20 14:40:57.994912
1850  2023-11-20 14:40:58.026831
1851  2023-11-20 14:40:58.074698
1852  2023-11-20 14:40:58.106580
1853  2023-11-20 14:40:58.138495
1854  2023-11-20 14:40:58.170464
1855  2023-11-20 14:40:58.202377
1856  2023-11-20 14:40:58.234275
1857  2023-11-20 14:40:58.267152
1858  2023-11-20 14:40:58.298070
1859  2023-11-20 14:40:58.331017
1860  2023-11-20 14:40:58.362934
1861  2023-11-20 14:40:58.394840
1862  2023-11-20 14:40:58.426724
1863  2023-11-20 14:40:58.474596
1864  2023-11-20 14:40:58.506549
1865  2023-11-20 14:40:58.538426
1866  2023-11-20 14:40:58.570373
1867  2023-11-20 14:40:58.602256
1868  2023-11-20 14:40:58.634172
1869  2023-11-20 14:40:58.666088
1870  2023-11-20 14:40:58.698036
1871  2023-11-20 14:40:58.730961
1872  2023-11-20 14:40:58.762858
1873  2023-11-20 14:40:58.794782
1874  2023-11-20 14:40:58.826659
1875  2023-11-20 14:40:58.874527
1876  2023-11-20 14:40:58.906474
1877  2023-11-20 14:40:58.938357
1878  2023-11-20 14:40:58.970303
1879  2023-11-20 14:40:59.002217
1880  2023-11-20 14:40:59.034132
1881  2023-11-20 14:40:59.067050
1882  2023-11-20 14:40:59.098970
1883  2023-11-20 14:40:59.130846
1884  2023-11-20 14:40:59.162789
1885  2023-11-20 14:40:59.194702
1886  2023-11-20 14:40:59.226618
1887  2023-11-20 14:40:59.274499
1888  2023-11-20 14:40:59.306409
1889  2023-11-20 14:40:59.338319
1890  2023-11-20 14:40:59.370206
1891  2023-11-20 14:40:59.402146
1892  2023-11-20 14:40:59.434060
1893  2023-11-20 14:40:59.466944
1894  2023-11-20 14:40:59.498897
1895  2023-11-20 14:40:59.530806
1896  2023-11-20 14:40:59.562718
1897  2023-11-20 14:40:59.594640
1898  2023-11-20 14:40:59.626519
1899  2023-11-20 14:40:59.674430
1900  2023-11-20 14:40:59.706337
1901  2023-11-20 14:40:59.738270
1902  2023-11-20 14:40:59.771130
1903  2023-11-20 14:40:59.803044
1904  2023-11-20 14:40:59.834959
1905  2023-11-20 14:40:59.866883
1906  2023-11-20 14:40:59.898823
1907  2023-11-20 14:40:59.930705
1908  2023-11-20 14:40:59.962670
1909  2023-11-20 14:40:59.994585
1910  2023-11-20 14:41:00.026515
1911  2023-11-20 14:41:00.074371
1912  2023-11-20 14:41:00.106286
1913  2023-11-20 14:41:00.139197
1914  2023-11-20 14:41:00.170115
1915  2023-11-20 14:41:00.202116
1916  2023-11-20 14:41:00.235003
1917  2023-11-20 14:41:00.266913
1918  2023-11-20 14:41:00.298828
1919  2023-11-20 14:41:00.330789
1920  2023-11-20 14:41:00.362697
1921  2023-11-20 14:41:00.394572
1922  2023-11-20 14:41:00.426487
1923  2023-11-20 14:41:00.474369
1924  2023-11-20 14:41:00.506273
1925  2023-11-20 14:41:00.538188
1926  2023-11-20 14:41:00.570103
1927  2023-11-20 14:41:00.603048
1928  2023-11-20 14:41:00.634933
1929  2023-11-20 14:41:00.710726
1930  2023-11-20 14:41:00.730672
1931  2023-11-20 14:41:00.762587
1932  2023-11-20 14:41:00.794503
1933  2023-11-20 14:41:00.826417
1934  2023-11-20 14:41:00.874318
1935  2023-11-20 14:41:00.906204
1936  2023-11-20 14:41:00.938118
1937  2023-11-20 14:41:00.970064
1938  2023-11-20 14:41:01.002945
1939  2023-11-20 14:41:01.034904
1940  2023-11-20 14:41:01.066804
1941  2023-11-20 14:41:01.098713
1942  2023-11-20 14:41:01.130604
1943  2023-11-20 14:41:01.162519
1944  2023-11-20 14:41:01.194450
1945  2023-11-20 14:41:01.226358
1946  2023-11-20 14:41:01.274223
1947  2023-11-20 14:41:01.306176
1948  2023-11-20 14:41:01.339048
1949  2023-11-20 14:41:01.370961
1950  2023-11-20 14:41:01.402877
1951  2023-11-20 14:41:01.434823
1952  2023-11-20 14:41:01.466750
1953  2023-11-20 14:41:01.498620
1954  2023-11-20 14:41:01.530535
1955  2023-11-20 14:41:01.562450
1956  2023-11-20 14:41:01.594374
1957  2023-11-20 14:41:01.642240
1958  2023-11-20 14:41:01.674157
1959  2023-11-20 14:41:01.706064
1960  2023-11-20 14:41:01.737985
1961  2023-11-20 14:41:01.770893
1962  2023-11-20 14:41:01.802806
1963  2023-11-20 14:41:01.834721
1964  2023-11-20 14:41:01.866681
1965  2023-11-20 14:41:01.898551
1966  2023-11-20 14:41:01.930465
1967  2023-11-20 14:41:01.962394
1968  2023-11-20 14:41:01.994336
1969  2023-11-20 14:41:02.042197
1970  2023-11-20 14:41:02.074346
1971  2023-11-20 14:41:02.106260
1972  2023-11-20 14:41:02.138212
1973  2023-11-20 14:41:02.170174
1974  2023-11-20 14:41:02.202054
1975  2023-11-20 14:41:02.234972
1976  2023-11-20 14:41:02.266880
1977  2023-11-20 14:41:02.298796
1978  2023-11-20 14:41:02.330710
1979  2023-11-20 14:41:02.362625
1980  2023-11-20 14:41:02.394539
1981  2023-11-20 14:41:02.442412
1982  2023-11-20 14:41:02.474327
1983  2023-11-20 14:41:02.506241
1984  2023-11-20 14:41:02.538156
1985  2023-11-20 14:41:02.570070
1986  2023-11-20 14:41:02.602982
1987  2023-11-20 14:41:02.634897
1988  2023-11-20 14:41:02.666812
1989  2023-11-20 14:41:02.698769
1990  2023-11-20 14:41:02.730683
1991  2023-11-20 14:41:02.762598
1992  2023-11-20 14:41:02.794512
1993  2023-11-20 14:41:02.842429
1994  2023-11-20 14:41:02.874329
1995  2023-11-20 14:41:02.906243
1996  2023-11-20 14:41:02.938160
1997  2023-11-20 14:41:02.970085
1998  2023-11-20 14:41:03.002967
1999  2023-11-20 14:41:03.034870
2000  2023-11-20 14:41:03.066785
2001  2023-11-20 14:41:03.098699
2002  2023-11-20 14:41:03.130614
2003  2023-11-20 14:41:03.162529
2004  2023-11-20 14:41:03.194445
2005  2023-11-20 14:41:03.242362
2006  2023-11-20 14:41:03.274262
2007  2023-11-20 14:41:03.307189
2008  2023-11-20 14:41:03.338110
2009  2023-11-20 14:41:03.370063
2010  2023-11-20 14:41:03.402984
2011  2023-11-20 14:41:03.434905
2012  2023-11-20 14:41:03.466798
2013  2023-11-20 14:41:03.498717
2014  2023-11-20 14:41:03.530627
2015  2023-11-20 14:41:03.562538
2016  2023-11-20 14:41:03.594423
2017  2023-11-20 14:41:03.642296
2018  2023-11-20 14:41:03.674214
2019  2023-11-20 14:41:03.706156
2020  2023-11-20 14:41:03.738080
2021  2023-11-20 14:41:03.771001
2022  2023-11-20 14:41:03.802899
2023  2023-11-20 14:41:03.834814
2024  2023-11-20 14:41:03.866736
2025  2023-11-20 14:41:03.898641
2026  2023-11-20 14:41:03.930557
2027  2023-11-20 14:41:03.962477
2028  2023-11-20 14:41:03.994388
2029  2023-11-20 14:41:04.042271
2030  2023-11-20 14:41:04.074173
2031  2023-11-20 14:41:04.106084
2032  2023-11-20 14:41:04.139018
2033  2023-11-20 14:41:04.170915
2034  2023-11-20 14:41:04.202796
2035  2023-11-20 14:41:04.234713
2036  2023-11-20 14:41:04.266673
2037  2023-11-20 14:41:04.298579
2038  2023-11-20 14:41:04.330485
2039  2023-11-20 14:41:04.362400
2040  2023-11-20 14:41:04.394315
2041  2023-11-20 14:41:04.442189
2042  2023-11-20 14:41:04.475070
2043  2023-11-20 14:41:04.506997
2044  2023-11-20 14:41:04.538930
2045  2023-11-20 14:41:04.570842
2046  2023-11-20 14:41:04.602728
2047  2023-11-20 14:41:04.634642
2048  2023-11-20 14:41:04.666933
2049  2023-11-20 14:41:04.698808
2050  2023-11-20 14:41:04.730763
2051  2023-11-20 14:41:04.762638
2052  2023-11-20 14:41:04.794582
2053  2023-11-20 14:41:04.842424
2054  2023-11-20 14:41:04.874370
2055  2023-11-20 14:41:04.906253
2056  2023-11-20 14:41:04.938167
2057  2023-11-20 14:41:04.970085
2058  2023-11-20 14:41:05.002032
2059  2023-11-20 14:41:05.034939
2060  2023-11-20 14:41:05.066860
2061  2023-11-20 14:41:05.098742
2062  2023-11-20 14:41:05.130653
2063  2023-11-20 14:41:05.162617
2064  2023-11-20 14:41:05.210443
2065  2023-11-20 14:41:05.242358
2066  2023-11-20 14:41:05.274268
2067  2023-11-20 14:41:05.306187
2068  2023-11-20 14:41:05.338138
2069  2023-11-20 14:41:05.371010
2070  2023-11-20 14:41:05.402956
2071  2023-11-20 14:41:05.434873
2072  2023-11-20 14:41:05.466797
2073  2023-11-20 14:41:05.498708
2074  2023-11-20 14:41:05.530622
2075  2023-11-20 14:41:05.562545
2076  2023-11-20 14:41:05.610401
2077  2023-11-20 14:41:05.642288
2078  2023-11-20 14:41:05.674238
2079  2023-11-20 14:41:05.706115
2080  2023-11-20 14:41:05.739026
2081  2023-11-20 14:41:05.770952
2082  2023-11-20 14:41:05.802856
2083  2023-11-20 14:41:05.834810
2084  2023-11-20 14:41:05.866723
2085  2023-11-20 14:41:05.898630
2086  2023-11-20 14:41:05.930546
2087  2023-11-20 14:41:05.962483
2088  2023-11-20 14:41:06.010354
2089  2023-11-20 14:41:06.042221
2090  2023-11-20 14:41:06.074167
2091  2023-11-20 14:41:06.106081
2092  2023-11-20 14:41:06.138958
2093  2023-11-20 14:41:06.170885
2094  2023-11-20 14:41:06.202817
2095  2023-11-20 14:41:06.234738
2096  2023-11-20 14:41:06.266617
2097  2023-11-20 14:41:06.298531
2098  2023-11-20 14:41:06.330445
2099  2023-11-20 14:41:06.362360
2100  2023-11-20 14:41:06.410262
2101  2023-11-20 14:41:06.442229
2102  2023-11-20 14:41:06.475097
2103  2023-11-20 14:41:06.507012
2104  2023-11-20 14:41:06.538927
2105  2023-11-20 14:41:06.570841
2106  2023-11-20 14:41:06.602756
2107  2023-11-20 14:41:06.634670
2108  2023-11-20 14:41:06.666585
2109  2023-11-20 14:41:06.698519
2110  2023-11-20 14:41:06.730418
2111  2023-11-20 14:41:06.762383
2112  2023-11-20 14:41:06.810232
2113  2023-11-20 14:41:06.842115
2114  2023-11-20 14:41:06.874075
2115  2023-11-20 14:41:06.906952
2116  2023-11-20 14:41:06.938857
2117  2023-11-20 14:41:06.970810
2118  2023-11-20 14:41:07.002686
2119  2023-11-20 14:41:07.034601
2120  2023-11-20 14:41:07.066516
2121  2023-11-20 14:41:07.098466
2122  2023-11-20 14:41:07.130388
2123  2023-11-20 14:41:07.162296
2124  2023-11-20 14:41:07.210161
2125  2023-11-20 14:41:07.242046
2126  2023-11-20 14:41:07.274959
2127  2023-11-20 14:41:07.306873
2128  2023-11-20 14:41:07.338790
2129  2023-11-20 14:41:07.370712
2130  2023-11-20 14:41:07.402617
2131  2023-11-20 14:41:07.434532
2132  2023-11-20 14:41:07.466463
2133  2023-11-20 14:41:07.498393
2134  2023-11-20 14:41:07.530313
2135  2023-11-20 14:41:07.563189
2136  2023-11-20 14:41:07.610097
2137  2023-11-20 14:41:07.642992
2138  2023-11-20 14:41:07.674890
2139  2023-11-20 14:41:07.706837
2140  2023-11-20 14:41:07.738719
2141  2023-11-20 14:41:07.770634
2142  2023-11-20 14:41:07.802578
2143  2023-11-20 14:41:07.834496
2144  2023-11-20 14:41:07.866411
2145  2023-11-20 14:41:07.898334
2146  2023-11-20 14:41:07.930238
2147  2023-11-20 14:41:07.962170
2148  2023-11-20 14:41:08.010992
2149  2023-11-20 14:41:08.042941
2150  2023-11-20 14:41:08.074820
2151  2023-11-20 14:41:08.106735
2152  2023-11-20 14:41:08.138649
2153  2023-11-20 14:41:08.170564
2154  2023-11-20 14:41:08.202527
2155  2023-11-20 14:41:08.234424
2156  2023-11-20 14:41:08.266343
2157  2023-11-20 14:41:08.298254
2158  2023-11-20 14:41:08.330169
2159  2023-11-20 14:41:08.363050
2160  2023-11-20 14:41:08.410934
2161  2023-11-20 14:41:08.442868
2162  2023-11-20 14:41:08.474751
2163  2023-11-20 14:41:08.506696
2164  2023-11-20 14:41:08.538580
2165  2023-11-20 14:41:08.570501
2166  2023-11-20 14:41:08.602453
2167  2023-11-20 14:41:08.634353
2168  2023-11-20 14:41:08.666268
2169  2023-11-20 14:41:08.698186
2170  2023-11-20 14:41:08.730098
2171  2023-11-20 14:41:08.762981
2172  2023-11-20 14:41:08.810886
2173  2023-11-20 14:41:08.842767
2174  2023-11-20 14:41:08.874716
2175  2023-11-20 14:41:08.906596
2176  2023-11-20 14:41:08.938511
2177  2023-11-20 14:41:08.970463
2178  2023-11-20 14:41:09.002385
2179  2023-11-20 14:41:09.034292
2180  2023-11-20 14:41:09.066199
2181  2023-11-20 14:41:09.098115
2182  2023-11-20 14:41:09.130997
2183  2023-11-20 14:41:09.178868
2184  2023-11-20 14:41:09.210783
2185  2023-11-20 14:41:09.242698
2186  2023-11-20 14:41:09.274612
2187  2023-11-20 14:41:09.306527
2188  2023-11-20 14:41:09.338482
2189  2023-11-20 14:41:09.370394
2190  2023-11-20 14:41:09.402301
2191  2023-11-20 14:41:09.434187
2192  2023-11-20 14:41:09.466103
2193  2023-11-20 14:41:09.499013
2194  2023-11-20 14:41:09.530927
2195  2023-11-20 14:41:09.578799
2196  2023-11-20 14:41:09.610714
2197  2023-11-20 14:41:09.642659
2198  2023-11-20 14:41:09.674575
2199  2023-11-20 14:41:09.706471
2200  2023-11-20 14:41:09.738405
2201  2023-11-20 14:41:09.770287
2202  2023-11-20 14:41:09.802233
2203  2023-11-20 14:41:09.834148
2204  2023-11-20 14:41:09.866063
2205  2023-11-20 14:41:09.898944
2206  2023-11-20 14:41:09.930858
2207  2023-11-20 14:41:09.978730
2208  2023-11-20 14:41:10.010645
2209  2023-11-20 14:41:10.042591
2210  2023-11-20 14:41:10.074474
2211  2023-11-20 14:41:10.106427
2212  2023-11-20 14:41:10.138334
2213  2023-11-20 14:41:10.170249
2214  2023-11-20 14:41:10.202134
2215  2023-11-20 14:41:10.234052
2216  2023-11-20 14:41:10.266959
2217  2023-11-20 14:41:10.298875
2218  2023-11-20 14:41:10.330789
2219  2023-11-20 14:41:10.378661
2220  2023-11-20 14:41:10.410575
2221  2023-11-20 14:41:10.442490
2222  2023-11-20 14:41:10.474406
2223  2023-11-20 14:41:10.506368
2224  2023-11-20 14:41:10.538272
2225  2023-11-20 14:41:10.570187
2226  2023-11-20 14:41:10.603062
2227  2023-11-20 14:41:10.634977
2228  2023-11-20 14:41:10.666890
2229  2023-11-20 14:41:10.698805
2230  2023-11-20 14:41:10.730719
2231  2023-11-20 14:41:10.778591
2232  2023-11-20 14:41:10.810506
2233  2023-11-20 14:41:10.842422
2234  2023-11-20 14:41:10.874384
2235  2023-11-20 14:41:10.906281
2236  2023-11-20 14:41:10.938204
2237  2023-11-20 14:41:10.970110
2238  2023-11-20 14:41:11.002993
2239  2023-11-20 14:41:11.034906
2240  2023-11-20 14:41:11.066821
2241  2023-11-20 14:41:11.098736
2242  2023-11-20 14:41:11.130693
2243  2023-11-20 14:41:11.178522
2244  2023-11-20 14:41:11.210463
2245  2023-11-20 14:41:11.242383
2246  2023-11-20 14:41:11.274267
2247  2023-11-20 14:41:11.306182
2248  2023-11-20 14:41:11.338162
2249  2023-11-20 14:41:11.371009
2250  2023-11-20 14:41:11.402922
2251  2023-11-20 14:41:11.434837
2252  2023-11-20 14:41:11.466752
2253  2023-11-20 14:41:11.498699
2254  2023-11-20 14:41:11.530581
2255  2023-11-20 14:41:11.578464
2256  2023-11-20 14:41:11.610398
2257  2023-11-20 14:41:11.642315
2258  2023-11-20 14:41:11.674228
2259  2023-11-20 14:41:11.706149
2260  2023-11-20 14:41:11.738027
2261  2023-11-20 14:41:11.770938
2262  2023-11-20 14:41:11.802853
2263  2023-11-20 14:41:11.834769
2264  2023-11-20 14:41:11.866683
2265  2023-11-20 14:41:11.898597
2266  2023-11-20 14:41:11.930513
2267  2023-11-20 14:41:11.979381
2268  2023-11-20 14:41:12.010339
2269  2023-11-20 14:41:12.042214
2270  2023-11-20 14:41:12.074170
2271  2023-11-20 14:41:12.106043
2272  2023-11-20 14:41:12.138957
2273  2023-11-20 14:41:12.170869
2274  2023-11-20 14:41:12.202817
2275  2023-11-20 14:41:12.234730
2276  2023-11-20 14:41:12.266613
2277  2023-11-20 14:41:12.298528
2278  2023-11-20 14:41:12.330478
2279  2023-11-20 14:41:12.378360
2280  2023-11-20 14:41:12.410269
2281  2023-11-20 14:41:12.442184
2282  2023-11-20 14:41:12.474059
2283  2023-11-20 14:41:12.506086
2284  2023-11-20 14:41:12.538963
2285  2023-11-20 14:41:12.570921
2286  2023-11-20 14:41:12.602826
2287  2023-11-20 14:41:12.634755
2288  2023-11-20 14:41:12.666662
2289  2023-11-20 14:41:12.698535
2290  2023-11-20 14:41:12.746442
2291  2023-11-20 14:41:12.778353
2292  2023-11-20 14:41:12.810240
2293  2023-11-20 14:41:12.842188
2294  2023-11-20 14:41:12.874098
2295  2023-11-20 14:41:12.906982
2296  2023-11-20 14:41:12.938925
2297  2023-11-20 14:41:12.970841
2298  2023-11-20 14:41:13.002762
2299  2023-11-20 14:41:13.034670
2300  2023-11-20 14:41:13.066586
2301  2023-11-20 14:41:13.098497
2302  2023-11-20 14:41:13.146342
2303  2023-11-20 14:41:13.178252
2304  2023-11-20 14:41:13.211166
2305  2023-11-20 14:41:13.243081
2306  2023-11-20 14:41:13.274002
2307  2023-11-20 14:41:13.306943
2308  2023-11-20 14:41:13.338856
2309  2023-11-20 14:41:13.370772
2310  2023-11-20 14:41:13.402695
2311  2023-11-20 14:41:13.434607
2312  2023-11-20 14:41:13.466544
2313  2023-11-20 14:41:13.498397
2314  2023-11-20 14:41:13.546299
2315  2023-11-20 14:41:13.578223
2316  2023-11-20 14:41:13.611096
2317  2023-11-20 14:41:13.643011
2318  2023-11-20 14:41:13.674958
2319  2023-11-20 14:41:13.706840
2320  2023-11-20 14:41:13.738785
2321  2023-11-20 14:41:13.770671
2322  2023-11-20 14:41:13.802583
2323  2023-11-20 14:41:13.834504
2324  2023-11-20 14:41:13.866453
2325  2023-11-20 14:41:13.899326
2326  2023-11-20 14:41:13.946204
2327  2023-11-20 14:41:13.978153
2328  2023-11-20 14:41:14.011028
2329  2023-11-20 14:41:14.042943
2330  2023-11-20 14:41:14.074898
2331  2023-11-20 14:41:14.106774
2332  2023-11-20 14:41:14.138686
2333  2023-11-20 14:41:14.170640
2334  2023-11-20 14:41:14.202554
2335  2023-11-20 14:41:14.234469
2336  2023-11-20 14:41:14.266391
2337  2023-11-20 14:41:14.299256
2338  2023-11-20 14:41:14.347129
2339  2023-11-20 14:41:14.378088
2340  2023-11-20 14:41:14.410958
2341  2023-11-20 14:41:14.442906
2342  2023-11-20 14:41:14.474817
2343  2023-11-20 14:41:14.506745
2344  2023-11-20 14:41:14.538671
2345  2023-11-20 14:41:14.570586
2346  2023-11-20 14:41:14.602500
2347  2023-11-20 14:41:14.634415
2348  2023-11-20 14:41:14.666330
2349  2023-11-20 14:41:14.698244
2350  2023-11-20 14:41:14.746116
2351  2023-11-20 14:41:14.778031
2352  2023-11-20 14:41:14.810944
2353  2023-11-20 14:41:14.842858
2354  2023-11-20 14:41:14.874772
2355  2023-11-20 14:41:14.906687
2356  2023-11-20 14:41:14.938602
2357  2023-11-20 14:41:14.970517
2358  2023-11-20 14:41:15.002431
2359  2023-11-20 14:41:15.034346
2360  2023-11-20 14:41:15.066260
2361  2023-11-20 14:41:15.098175
2362  2023-11-20 14:41:15.147045
2363  2023-11-20 14:41:15.178960
2364  2023-11-20 14:41:15.210874
2365  2023-11-20 14:41:15.242789
2366  2023-11-20 14:41:15.274703
2367  2023-11-20 14:41:15.306618
2368  2023-11-20 14:41:15.338544
2369  2023-11-20 14:41:15.370447
2370  2023-11-20 14:41:15.402362
2371  2023-11-20 14:41:15.434277
2372  2023-11-20 14:41:15.466191
2373  2023-11-20 14:41:15.498106
2374  2023-11-20 14:41:15.546975
2375  2023-11-20 14:41:15.578890
2376  2023-11-20 14:41:15.610805
2377  2023-11-20 14:41:15.642719
2378  2023-11-20 14:41:15.674634
2379  2023-11-20 14:41:15.706549
2380  2023-11-20 14:41:15.738463
2381  2023-11-20 14:41:15.770378
2382  2023-11-20 14:41:15.802293
2383  2023-11-20 14:41:15.834207
2384  2023-11-20 14:41:15.866122
2385  2023-11-20 14:41:15.899034
2386  2023-11-20 14:41:15.946906
2387  2023-11-20 14:41:15.978821
2388  2023-11-20 14:41:16.010735
2389  2023-11-20 14:41:16.042650
2390  2023-11-20 14:41:16.074565
2391  2023-11-20 14:41:16.106480
2392  2023-11-20 14:41:16.138394
2393  2023-11-20 14:41:16.170309
2394  2023-11-20 14:41:16.202223
2395  2023-11-20 14:41:16.234138
2396  2023-11-20 14:41:16.266053
2397  2023-11-20 14:41:16.298965
2398  2023-11-20 14:41:16.346837
2399  2023-11-20 14:41:16.378752
2400  2023-11-20 14:41:16.410666
2401  2023-11-20 14:41:16.442681
2402  2023-11-20 14:41:16.474565
2403  2023-11-20 14:41:16.506479
2404  2023-11-20 14:41:16.538395
2405  2023-11-20 14:41:16.570313
2406  2023-11-20 14:41:16.602253
2407  2023-11-20 14:41:16.634167
2408  2023-11-20 14:41:16.666056
2409  2023-11-20 14:41:16.714927
2410  2023-11-20 14:41:16.746879
2411  2023-11-20 14:41:16.778785
2412  2023-11-20 14:41:16.810699
2413  2023-11-20 14:41:16.842581
2414  2023-11-20 14:41:16.874496
2415  2023-11-20 14:41:16.906537
2416  2023-11-20 14:41:16.938374
2417  2023-11-20 14:41:16.971241
2418  2023-11-20 14:41:17.002155
2419  2023-11-20 14:41:17.034102
2420  2023-11-20 14:41:17.067025
2421  2023-11-20 14:41:17.114897
2422  2023-11-20 14:41:17.146799
2423  2023-11-20 14:41:17.178708
2424  2023-11-20 14:41:17.210629
2425  2023-11-20 14:41:17.242512
2426  2023-11-20 14:41:17.274429
2427  2023-11-20 14:41:17.306341
2428  2023-11-20 14:41:17.338262
2429  2023-11-20 14:41:17.371168
2430  2023-11-20 14:41:17.402811
2431  2023-11-20 14:41:17.434727
2432  2023-11-20 14:41:17.466641
2433  2023-11-20 14:41:17.514480
2434  2023-11-20 14:41:17.546394
2435  2023-11-20 14:41:17.578340
2436  2023-11-20 14:41:17.610253
2437  2023-11-20 14:41:17.642167
2438  2023-11-20 14:41:17.674054
2439  2023-11-20 14:41:17.706965
2440  2023-11-20 14:41:17.738880
2441  2023-11-20 14:41:17.770824
2442  2023-11-20 14:41:17.802743
2443  2023-11-20 14:41:17.834655
2444  2023-11-20 14:41:17.866540
2445  2023-11-20 14:41:17.914412
2446  2023-11-20 14:41:17.946359
2447  2023-11-20 14:41:17.978271
2448  2023-11-20 14:41:18.010187
2449  2023-11-20 14:41:18.043097
2450  2023-11-20 14:41:18.075012
2451  2023-11-20 14:41:18.106940
2452  2023-11-20 14:41:18.138857
2453  2023-11-20 14:41:18.170725
2454  2023-11-20 14:41:18.202680
2455  2023-11-20 14:41:18.234594
2456  2023-11-20 14:41:18.266509
2457  2023-11-20 14:41:18.314422
2458  2023-11-20 14:41:18.346333
2459  2023-11-20 14:41:18.379256
2460  2023-11-20 14:41:18.410155
2461  2023-11-20 14:41:18.442069
2462  2023-11-20 14:41:18.475003
2463  2023-11-20 14:41:18.506901
2464  2023-11-20 14:41:18.538781
2465  2023-11-20 14:41:18.570696
2466  2023-11-20 14:41:18.602612
2467  2023-11-20 14:41:18.634525
2468  2023-11-20 14:41:18.666467
2469  2023-11-20 14:41:18.714311
2470  2023-11-20 14:41:18.747260
2471  2023-11-20 14:41:18.779177
2472  2023-11-20 14:41:18.811064
2473  2023-11-20 14:41:18.843997
2474  2023-11-20 14:41:18.874923
2475  2023-11-20 14:41:18.906837
2476  2023-11-20 14:41:18.938757
2477  2023-11-20 14:41:18.971103
2478  2023-11-20 14:41:19.003007
2479  2023-11-20 14:41:19.034920
2480  2023-11-20 14:41:19.066835
2481  2023-11-20 14:41:19.114778
2482  2023-11-20 14:41:19.146663
2483  2023-11-20 14:41:19.178574
2484  2023-11-20 14:41:19.211488
2485  2023-11-20 14:41:19.242441
2486  2023-11-20 14:41:19.275316
2487  2023-11-20 14:41:19.306263
2488  2023-11-20 14:41:19.339146
2489  2023-11-20 14:41:19.372087
2490  2023-11-20 14:41:19.402975
2491  2023-11-20 14:41:19.435887
2492  2023-11-20 14:41:19.467802
2493  2023-11-20 14:41:19.515674
2494  2023-11-20 14:41:19.547592
2495  2023-11-20 14:41:19.579535
2496  2023-11-20 14:41:19.611418
2497  2023-11-20 14:41:19.643333
2498  2023-11-20 14:41:19.675287
2499  2023-11-20 14:41:19.707175
2500  2023-11-20 14:41:19.740074
2501  2023-11-20 14:41:19.772022
2502  2023-11-20 14:41:19.803903
2503  2023-11-20 14:41:19.835852
2504  2023-11-20 14:41:19.867764
2505  2023-11-20 14:41:19.915609
2506  2023-11-20 14:41:19.947520
2507  2023-11-20 14:41:19.980430
2508  2023-11-20 14:41:20.011392
2509  2023-11-20 14:41:20.043301
2510  2023-11-20 14:41:20.075177
2511  2023-11-20 14:41:20.107091
2512  2023-11-20 14:41:20.140005
2513  2023-11-20 14:41:20.170939
2514  2023-11-20 14:41:20.203834
2515  2023-11-20 14:41:20.235780
2516  2023-11-20 14:41:20.267663
2517  2023-11-20 14:41:20.315540
2518  2023-11-20 14:41:20.347454
2519  2023-11-20 14:41:20.379395
2520  2023-11-20 14:41:20.411279
2521  2023-11-20 14:41:20.443225
2522  2023-11-20 14:41:20.475108
2523  2023-11-20 14:41:20.508019
2524  2023-11-20 14:41:20.539934
2525  2023-11-20 14:41:20.570853
2526  2023-11-20 14:41:20.602767
2527  2023-11-20 14:41:20.635683
2528  2023-11-20 14:41:20.682553
2529  2023-11-20 14:41:20.715466
2530  2023-11-20 14:41:20.747423
2531  2023-11-20 14:41:20.779296
2532  2023-11-20 14:41:20.811209
2533  2023-11-20 14:41:20.843155
2534  2023-11-20 14:41:20.875038
2535  2023-11-20 14:41:20.906953
2536  2023-11-20 14:41:20.938869
2537  2023-11-20 14:41:20.970784
2538  2023-11-20 14:41:21.002740
2539  2023-11-20 14:41:21.034663
2540  2023-11-20 14:41:21.082520
2541  2023-11-20 14:41:21.115402
2542  2023-11-20 14:41:21.147317
2543  2023-11-20 14:41:21.179226
2544  2023-11-20 14:41:21.211140
2545  2023-11-20 14:41:21.244054
2546  2023-11-20 14:41:21.274970
2547  2023-11-20 14:41:21.306915
2548  2023-11-20 14:41:21.338859
2549  2023-11-20 14:41:21.370774
2550  2023-11-20 14:41:21.402726
2551  2023-11-20 14:41:21.435603
2552  2023-11-20 14:41:21.482515
2553  2023-11-20 14:41:21.515388
2554  2023-11-20 14:41:21.546343
2555  2023-11-20 14:41:21.578243
2556  2023-11-20 14:41:21.610134
2557  2023-11-20 14:41:21.643079
2558  2023-11-20 14:41:21.674960
2559  2023-11-20 14:41:21.706908
2560  2023-11-20 14:41:21.738821
2561  2023-11-20 14:41:21.770719
2562  2023-11-20 14:41:21.802619
2563  2023-11-20 14:41:21.834534
2564  2023-11-20 14:41:21.882445
2565  2023-11-20 14:41:21.914306
2566  2023-11-20 14:41:21.946185
2567  2023-11-20 14:41:21.978104
2568  2023-11-20 14:41:22.010010
2569  2023-11-20 14:41:22.042960
2570  2023-11-20 14:41:22.074836
2571  2023-11-20 14:41:22.106763
2572  2023-11-20 14:41:22.138665
2573  2023-11-20 14:41:22.170580
2574  2023-11-20 14:41:22.202500
2575  2023-11-20 14:41:22.234445
2576  2023-11-20 14:41:22.282282
2577  2023-11-20 14:41:22.314196
2578  2023-11-20 14:41:22.346142
2579  2023-11-20 14:41:22.379022
2580  2023-11-20 14:41:22.410937
2581  2023-11-20 14:41:22.442852
2582  2023-11-20 14:41:22.474767
2583  2023-11-20 14:41:22.506721
2584  2023-11-20 14:41:22.538596
2585  2023-11-20 14:41:22.570519
2586  2023-11-20 14:41:22.602458
2587  2023-11-20 14:41:22.634340
2588  2023-11-20 14:41:22.683210
2589  2023-11-20 14:41:22.714154
2590  2023-11-20 14:41:22.747039
2591  2023-11-20 14:41:22.778953
2592  2023-11-20 14:41:22.810867
2593  2023-11-20 14:41:22.842811
2594  2023-11-20 14:41:22.875699
2595  2023-11-20 14:41:22.906620
2596  2023-11-20 14:41:22.938527
2597  2023-11-20 14:41:22.970440
2598  2023-11-20 14:41:23.003354
2599  2023-11-20 14:41:23.035313
2600  2023-11-20 14:41:23.082181
2601  2023-11-20 14:41:23.114095
2602  2023-11-20 14:41:23.147007
2603  2023-11-20 14:41:23.178989
2604  2023-11-20 14:41:23.211901
2605  2023-11-20 14:41:23.243827
2606  2023-11-20 14:41:23.275731
2607  2023-11-20 14:41:23.306617
2608  2023-11-20 14:41:23.338534
2609  2023-11-20 14:41:23.371445
2610  2023-11-20 14:41:23.403400
2611  2023-11-20 14:41:23.435309
2612  2023-11-20 14:41:23.483147
2613  2023-11-20 14:41:23.516090
2614  2023-11-20 14:41:23.547017
2615  2023-11-20 14:41:23.578920
2616  2023-11-20 14:41:23.611831
2617  2023-11-20 14:41:23.643748
2618  2023-11-20 14:41:23.675665
2619  2023-11-20 14:41:23.706549
2620  2023-11-20 14:41:23.738463
2621  2023-11-20 14:41:23.771425
2622  2023-11-20 14:41:23.803325
2623  2023-11-20 14:41:23.835242
2624  2023-11-20 14:41:23.883077
2625  2023-11-20 14:41:23.914995
2626  2023-11-20 14:41:23.946945
2627  2023-11-20 14:41:23.978850
2628  2023-11-20 14:41:24.011762
2629  2023-11-20 14:41:24.043692
2630  2023-11-20 14:41:24.074602
2631  2023-11-20 14:41:24.106481
2632  2023-11-20 14:41:24.138393
2633  2023-11-20 14:41:24.171307
2634  2023-11-20 14:41:24.203222
2635  2023-11-20 14:41:24.251093
2636  2023-11-20 14:41:24.284042
2637  2023-11-20 14:41:24.315960
2638  2023-11-20 14:41:24.346838
2639  2023-11-20 14:41:24.378435
2640  2023-11-20 14:41:24.411377
2641  2023-11-20 14:41:24.443308
2642  2023-11-20 14:41:24.475172
2643  2023-11-20 14:41:24.506142
2644  2023-11-20 14:41:24.538375
2645  2023-11-20 14:41:24.571314
2646  2023-11-20 14:41:24.603203
2647  2023-11-20 14:41:24.651069
2648  2023-11-20 14:41:24.682984
2649  2023-11-20 14:41:24.714900
2650  2023-11-20 14:41:24.746814
2651  2023-11-20 14:41:24.778729
2652  2023-11-20 14:41:24.810681
2653  2023-11-20 14:41:24.842557
2654  2023-11-20 14:41:24.875517
2655  2023-11-20 14:41:24.906419
2656  2023-11-20 14:41:24.938331
2657  2023-11-20 14:41:24.971212
2658  2023-11-20 14:41:25.003168
2659  2023-11-20 14:41:25.051041
2660  2023-11-20 14:41:25.082778
2661  2023-11-20 14:41:25.114693
2662  2023-11-20 14:41:25.146607
2663  2023-11-20 14:41:25.178522
2664  2023-11-20 14:41:25.210438
2665  2023-11-20 14:41:25.242351
2666  2023-11-20 14:41:25.274266
2667  2023-11-20 14:41:25.306181
2668  2023-11-20 14:41:25.338095
2669  2023-11-20 14:41:25.371007
2670  2023-11-20 14:41:25.402927
2671  2023-11-20 14:41:25.450795
2672  2023-11-20 14:41:25.483706
2673  2023-11-20 14:41:25.515621
2674  2023-11-20 14:41:25.546846
2675  2023-11-20 14:41:25.578729
2676  2023-11-20 14:41:25.610646
2677  2023-11-20 14:41:25.643591
2678  2023-11-20 14:41:25.674475
2679  2023-11-20 14:41:25.706426
2680  2023-11-20 14:41:25.738334
2681  2023-11-20 14:41:25.770220
2682  2023-11-20 14:41:25.803131
2683  2023-11-20 14:41:25.851003
2684  2023-11-20 14:41:25.882947
2685  2023-11-20 14:41:25.914862
2686  2023-11-20 14:41:25.946777
2687  2023-11-20 14:41:25.978666
2688  2023-11-20 14:41:26.010610
2689  2023-11-20 14:41:26.042531
2690  2023-11-20 14:41:26.074406
2691  2023-11-20 14:41:26.106359
2692  2023-11-20 14:41:26.138233
2693  2023-11-20 14:41:26.170154
2694  2023-11-20 14:41:26.202093
2695  2023-11-20 14:41:26.250935
2696  2023-11-20 14:41:26.282849
2697  2023-11-20 14:41:26.314766
2698  2023-11-20 14:41:26.346709
2699  2023-11-20 14:41:26.378625
2700  2023-11-20 14:41:26.410506
2701  2023-11-20 14:41:26.442427
2702  2023-11-20 14:41:26.475334
2703  2023-11-20 14:41:26.506285
2704  2023-11-20 14:41:26.538164
2705  2023-11-20 14:41:26.571077
2706  2023-11-20 14:41:26.603029
2707  2023-11-20 14:41:26.650865
2708  2023-11-20 14:41:26.682790
2709  2023-11-20 14:41:26.714695
2710  2023-11-20 14:41:26.746609
2711  2023-11-20 14:41:26.778541
2712  2023-11-20 14:41:26.810438
2713  2023-11-20 14:41:26.843370
2714  2023-11-20 14:41:26.874309
2715  2023-11-20 14:41:26.906182
2716  2023-11-20 14:41:26.939094
2717  2023-11-20 14:41:26.971009
2718  2023-11-20 14:41:27.002964
2719  2023-11-20 14:41:27.050796
2720  2023-11-20 14:41:27.082748
2721  2023-11-20 14:41:27.114671
2722  2023-11-20 14:41:27.146581
2723  2023-11-20 14:41:27.178454
2724  2023-11-20 14:41:27.210402
2725  2023-11-20 14:41:27.242316
2726  2023-11-20 14:41:27.274396
2727  2023-11-20 14:41:27.306238
2728  2023-11-20 14:41:27.338151
2729  2023-11-20 14:41:27.371064
2730  2023-11-20 14:41:27.402978
2731  2023-11-20 14:41:27.450851
2732  2023-11-20 14:41:27.482766
2733  2023-11-20 14:41:27.514681
2734  2023-11-20 14:41:27.546595
2735  2023-11-20 14:41:27.578509
2736  2023-11-20 14:41:27.610424
2737  2023-11-20 14:41:27.642338
2738  2023-11-20 14:41:27.674253
2739  2023-11-20 14:41:27.706168
2740  2023-11-20 14:41:27.738083
2741  2023-11-20 14:41:27.770995
2742  2023-11-20 14:41:27.802909
2743  2023-11-20 14:41:27.850781
2744  2023-11-20 14:41:27.882697
2745  2023-11-20 14:41:27.914611
2746  2023-11-20 14:41:27.946526
2747  2023-11-20 14:41:27.978440
2748  2023-11-20 14:41:28.010355
2749  2023-11-20 14:41:28.042271
2750  2023-11-20 14:41:28.075182
2751  2023-11-20 14:41:28.106099
2752  2023-11-20 14:41:28.139011
2753  2023-11-20 14:41:28.170926
2754  2023-11-20 14:41:28.218798
2755  2023-11-20 14:41:28.250714
2756  2023-11-20 14:41:28.282627
2757  2023-11-20 14:41:28.315573
2758  2023-11-20 14:41:28.346472
2759  2023-11-20 14:41:28.378294
2760  2023-11-20 14:41:28.411166
2761  2023-11-20 14:41:28.442118
2762  2023-11-20 14:41:28.474995
2763  2023-11-20 14:41:28.506909
2764  2023-11-20 14:41:28.538855
2765  2023-11-20 14:41:28.570805
2766  2023-11-20 14:41:28.618692
2767  2023-11-20 14:41:28.650593
2768  2023-11-20 14:41:28.682565
2769  2023-11-20 14:41:28.714477
2770  2023-11-20 14:41:28.746379
2771  2023-11-20 14:41:28.778342
2772  2023-11-20 14:41:28.811238
2773  2023-11-20 14:41:28.842125
2774  2023-11-20 14:41:28.874068
2775  2023-11-20 14:41:28.906979
2776  2023-11-20 14:41:28.938870
2777  2023-11-20 14:41:28.970795
2778  2023-11-20 14:41:29.018656
2779  2023-11-20 14:41:29.050578
2780  2023-11-20 14:41:29.082511
2781  2023-11-20 14:41:29.114396
2782  2023-11-20 14:41:29.146310
2783  2023-11-20 14:41:29.178263
2784  2023-11-20 14:41:29.211137
2785  2023-11-20 14:41:29.243052
2786  2023-11-20 14:41:29.275072
2787  2023-11-20 14:41:29.306995
2788  2023-11-20 14:41:29.338864
2789  2023-11-20 14:41:29.370814
2790  2023-11-20 14:41:29.418651
2791  2023-11-20 14:41:29.450567
2792  2023-11-20 14:41:29.482481
2793  2023-11-20 14:41:29.515393
2794  2023-11-20 14:41:29.546356
2795  2023-11-20 14:41:29.578264
2796  2023-11-20 14:41:29.610169
2797  2023-11-20 14:41:29.643050
2798  2023-11-20 14:41:29.674965
2799  2023-11-20 14:41:29.706918
2800  2023-11-20 14:41:29.738826
2801  2023-11-20 14:41:29.770710
2802  2023-11-20 14:41:29.818583
2803  2023-11-20 14:41:29.850497
2804  2023-11-20 14:41:29.882413
2805  2023-11-20 14:41:29.914370
2806  2023-11-20 14:41:29.947238
2807  2023-11-20 14:41:29.978155
2808  2023-11-20 14:41:30.010101
2809  2023-11-20 14:41:30.042986
2810  2023-11-20 14:41:30.074939
2811  2023-11-20 14:41:30.106843
2812  2023-11-20 14:41:30.138730
2813  2023-11-20 14:41:30.170671
2814  2023-11-20 14:41:30.218517
2815  2023-11-20 14:41:30.250433
2816  2023-11-20 14:41:30.282368
2817  2023-11-20 14:41:30.315255
2818  2023-11-20 14:41:30.346171
2819  2023-11-20 14:41:30.378127
2820  2023-11-20 14:41:30.410034
2821  2023-11-20 14:41:30.442959
2822  2023-11-20 14:41:30.474859
2823  2023-11-20 14:41:30.506742
2824  2023-11-20 14:41:30.538656
2825  2023-11-20 14:41:30.570571
2826  2023-11-20 14:41:30.618443
2827  2023-11-20 14:41:30.650367
2828  2023-11-20 14:41:30.682313
2829  2023-11-20 14:41:30.715223
2830  2023-11-20 14:41:30.746141
2831  2023-11-20 14:41:30.778055
2832  2023-11-20 14:41:30.810967
2833  2023-11-20 14:41:30.842882
2834  2023-11-20 14:41:30.874797
2835  2023-11-20 14:41:30.906712
2836  2023-11-20 14:41:30.938626
2837  2023-11-20 14:41:30.970611
2838  2023-11-20 14:41:31.019483
2839  2023-11-20 14:41:31.050415
2840  2023-11-20 14:41:31.082842
2841  2023-11-20 14:41:31.114815
2842  2023-11-20 14:41:31.146762
2843  2023-11-20 14:41:31.178679
2844  2023-11-20 14:41:31.210559
2845  2023-11-20 14:41:31.242506
2846  2023-11-20 14:41:31.274422
2847  2023-11-20 14:41:31.306337
2848  2023-11-20 14:41:31.338265
2849  2023-11-20 14:41:31.371130
2850  2023-11-20 14:41:31.419045
2851  2023-11-20 14:41:31.450975
2852  2023-11-20 14:41:31.482832
2853  2023-11-20 14:41:31.514749
2854  2023-11-20 14:41:31.546661
2855  2023-11-20 14:41:31.578576
2856  2023-11-20 14:41:31.611489
2857  2023-11-20 14:41:31.642405
2858  2023-11-20 14:41:31.674320
2859  2023-11-20 14:41:31.707233
2860  2023-11-20 14:41:31.738151
2861  2023-11-20 14:41:31.787031
2862  2023-11-20 14:41:31.818935
2863  2023-11-20 14:41:31.850880
2864  2023-11-20 14:41:31.882796
2865  2023-11-20 14:41:31.914722
2866  2023-11-20 14:41:31.946593
2867  2023-11-20 14:41:31.978542
2868  2023-11-20 14:41:32.010427
2869  2023-11-20 14:41:32.042365
2870  2023-11-20 14:41:32.074283
2871  2023-11-20 14:41:32.106213
2872  2023-11-20 14:41:32.139113
2873  2023-11-20 14:41:32.186949
2874  2023-11-20 14:41:32.218864
2875  2023-11-20 14:41:32.250810
2876  2023-11-20 14:41:32.282724
2877  2023-11-20 14:41:32.314609
2878  2023-11-20 14:41:32.346523
2879  2023-11-20 14:41:32.378487
2880  2023-11-20 14:41:32.410383
2881  2023-11-20 14:41:32.442313
2882  2023-11-20 14:41:32.474211
2883  2023-11-20 14:41:32.507127
2884  2023-11-20 14:41:32.539050
2885  2023-11-20 14:41:32.586881
2886  2023-11-20 14:41:32.618839
2887  2023-11-20 14:41:32.650710
2888  2023-11-20 14:41:32.682628
2889  2023-11-20 14:41:32.714577
2890  2023-11-20 14:41:32.746505
2891  2023-11-20 14:41:32.778403
2892  2023-11-20 14:41:32.810314
2893  2023-11-20 14:41:32.842232
2894  2023-11-20 14:41:32.875141
2895  2023-11-20 14:41:32.907058
2896  2023-11-20 14:41:32.938971
2897  2023-11-20 14:41:32.986824
2898  2023-11-20 14:41:33.018765
2899  2023-11-20 14:41:33.050798
2900  2023-11-20 14:41:33.082712
2901  2023-11-20 14:41:33.114631
2902  2023-11-20 14:41:33.146511
2903  2023-11-20 14:41:33.178557
2904  2023-11-20 14:41:33.210436
2905  2023-11-20 14:41:33.242382
2906  2023-11-20 14:41:33.274478
2907  2023-11-20 14:41:33.306376
2908  2023-11-20 14:41:33.339269
2909  2023-11-20 14:41:33.386231
2910  2023-11-20 14:41:33.418144
2911  2023-11-20 14:41:33.450111
2912  2023-11-20 14:41:33.482489
2913  2023-11-20 14:41:33.514448
2914  2023-11-20 14:41:33.546405
2915  2023-11-20 14:41:33.578363
2916  2023-11-20 14:41:33.610918
2917  2023-11-20 14:41:33.642846
2918  2023-11-20 14:41:33.674795
2919  2023-11-20 14:41:33.706710
2920  2023-11-20 14:41:33.738630
2921  2023-11-20 14:41:33.786506
2922  2023-11-20 14:41:33.819384
2923  2023-11-20 14:41:33.850294
2924  2023-11-20 14:41:33.882246
2925  2023-11-20 14:41:33.915170
2926  2023-11-20 14:41:33.947035
2927  2023-11-20 14:41:33.978949
2928  2023-11-20 14:41:34.010871
2929  2023-11-20 14:41:34.042777
2930  2023-11-20 14:41:34.074723
2931  2023-11-20 14:41:34.106650
2932  2023-11-20 14:41:34.138523
2933  2023-11-20 14:41:34.186520
2934  2023-11-20 14:41:34.218539
2935  2023-11-20 14:41:34.250465
2936  2023-11-20 14:41:34.282383
2937  2023-11-20 14:41:34.314258
2938  2023-11-20 14:41:34.347170
2939  2023-11-20 14:41:34.378135
2940  2023-11-20 14:41:34.411031
2941  2023-11-20 14:41:34.442952
2942  2023-11-20 14:41:34.474869
2943  2023-11-20 14:41:34.506776
2944  2023-11-20 14:41:34.538689
2945  2023-11-20 14:41:34.586583
2946  2023-11-20 14:41:34.618444
2947  2023-11-20 14:41:34.650394
2948  2023-11-20 14:41:34.682303
2949  2023-11-20 14:41:34.714228
2950  2023-11-20 14:41:34.747132
2951  2023-11-20 14:41:34.778049
2952  2023-11-20 14:41:34.810978
2953  2023-11-20 14:41:34.842844
2954  2023-11-20 14:41:34.874797
2955  2023-11-20 14:41:34.906710
2956  2023-11-20 14:41:34.938621
2957  2023-11-20 14:41:34.986460
2958  2023-11-20 14:41:35.019423
2959  2023-11-20 14:41:35.050318
2960  2023-11-20 14:41:35.082245
2961  2023-11-20 14:41:35.115154
2962  2023-11-20 14:41:35.147045
2963  2023-11-20 14:41:35.178946
2964  2023-11-20 14:41:35.210899
2965  2023-11-20 14:41:35.242806
2966  2023-11-20 14:41:35.274726
2967  2023-11-20 14:41:35.306639
2968  2023-11-20 14:41:35.338550
2969  2023-11-20 14:41:35.387389
2970  2023-11-20 14:41:35.418336
2971  2023-11-20 14:41:35.450220
2972  2023-11-20 14:41:35.482168
2973  2023-11-20 14:41:35.515084
2974  2023-11-20 14:41:35.546999
2975  2023-11-20 14:41:35.578933
2976  2023-11-20 14:41:35.610822
2977  2023-11-20 14:41:35.642741
2978  2023-11-20 14:41:35.674652
2979  2023-11-20 14:41:35.706566
2980  2023-11-20 14:41:35.754447
2981  2023-11-20 14:41:35.786365
2982  2023-11-20 14:41:35.819267
2983  2023-11-20 14:41:35.851180
2984  2023-11-20 14:41:35.882106
2985  2023-11-20 14:41:35.914978
2986  2023-11-20 14:41:35.946936
2987  2023-11-20 14:41:35.978844
2988  2023-11-20 14:41:36.010754
2989  2023-11-20 14:41:36.042647
2990  2023-11-20 14:41:36.074561
2991  2023-11-20 14:41:36.106529
2992  2023-11-20 14:41:36.154393
2993  2023-11-20 14:41:36.186296
2994  2023-11-20 14:41:36.218207
2995  2023-11-20 14:41:36.251121
2996  2023-11-20 14:41:36.282041
2997  2023-11-20 14:41:36.314969
2998  2023-11-20 14:41:36.346872
2999  2023-11-20 14:41:36.378782
3000  2023-11-20 14:41:36.410696
3001  2023-11-20 14:41:36.442579
3002  2023-11-20 14:41:36.475490
3003  2023-11-20 14:41:36.506414
3004  2023-11-20 14:41:36.555329
3005  2023-11-20 14:41:36.586234
3006  2023-11-20 14:41:36.618142
3007  2023-11-20 14:41:36.650055
3008  2023-11-20 14:41:36.682975
3009  2023-11-20 14:41:36.714882
3010  2023-11-20 14:41:36.746795
3011  2023-11-20 14:41:36.778806
3012  2023-11-20 14:41:36.810682
3013  2023-11-20 14:41:36.842602
3014  2023-11-20 14:41:36.874510
3015  2023-11-20 14:41:36.906472
3016  2023-11-20 14:41:36.954471
3017  2023-11-20 14:41:36.986394
3018  2023-11-20 14:41:37.018307
3019  2023-11-20 14:41:37.050305
3020  2023-11-20 14:41:37.082221
3021  2023-11-20 14:41:37.114139
3022  2023-11-20 14:41:37.147018
3023  2023-11-20 14:41:37.178988
3024  2023-11-20 14:41:37.210881
3025  2023-11-20 14:41:37.242759
3026  2023-11-20 14:41:37.274706
3027  2023-11-20 14:41:37.306749
3028  2023-11-20 14:41:37.354874
3029  2023-11-20 14:41:37.386788
3030  2023-11-20 14:41:37.418799
3031  2023-11-20 14:41:37.450729
3032  2023-11-20 14:41:37.482637
3033  2023-11-20 14:41:37.514629
3034  2023-11-20 14:41:37.546546
3035  2023-11-20 14:41:37.578433
3036  2023-11-20 14:41:37.610344
3037  2023-11-20 14:41:37.642254
3038  2023-11-20 14:41:37.674169
3039  2023-11-20 14:41:37.706083
3040  2023-11-20 14:41:37.754985
3041  2023-11-20 14:41:37.786904
3042  2023-11-20 14:41:37.818895
3043  2023-11-20 14:41:37.850774
3044  2023-11-20 14:41:37.882692
3045  2023-11-20 14:41:37.914633
3046  2023-11-20 14:41:37.946552
3047  2023-11-20 14:41:37.978476
3048  2023-11-20 14:41:38.010347
3049  2023-11-20 14:41:38.042262
3050  2023-11-20 14:41:38.074177
3051  2023-11-20 14:41:38.106796
3052  2023-11-20 14:41:38.154743
3053  2023-11-20 14:41:38.186660
3054  2023-11-20 14:41:38.218543
3055  2023-11-20 14:41:38.250503
3056  2023-11-20 14:41:38.282404
3057  2023-11-20 14:41:38.314287
3058  2023-11-20 14:41:38.347198
3059  2023-11-20 14:41:38.378150
3060  2023-11-20 14:41:38.411059
3061  2023-11-20 14:41:38.443006
3062  2023-11-20 14:41:38.474887
3063  2023-11-20 14:41:38.506771
3064  2023-11-20 14:41:38.555641
3065  2023-11-20 14:41:38.586591
3066  2023-11-20 14:41:38.618485
3067  2023-11-20 14:41:38.650418
3068  2023-11-20 14:41:38.682332
3069  2023-11-20 14:41:38.714249
3070  2023-11-20 14:41:38.747160
3071  2023-11-20 14:41:38.779072
3072  2023-11-20 14:41:38.811008
3073  2023-11-20 14:41:38.842908
3074  2023-11-20 14:41:38.874787
3075  2023-11-20 14:41:38.906701
3076  2023-11-20 14:41:38.954606
3077  2023-11-20 14:41:38.986527
3078  2023-11-20 14:41:39.018436
3079  2023-11-20 14:41:39.050351
3080  2023-11-20 14:41:39.082265
3081  2023-11-20 14:41:39.114187
3082  2023-11-20 14:41:39.147091
3083  2023-11-20 14:41:39.178974
3084  2023-11-20 14:41:39.210929
3085  2023-11-20 14:41:39.242803
3086  2023-11-20 14:41:39.274718
3087  2023-11-20 14:41:39.322626
3088  2023-11-20 14:41:39.354538
3089  2023-11-20 14:41:39.386453
3090  2023-11-20 14:41:39.418375
3091  2023-11-20 14:41:39.451247
3092  2023-11-20 14:41:39.483194
3093  2023-11-20 14:41:39.515112
3094  2023-11-20 14:41:39.547030
3095  2023-11-20 14:41:39.578905
3096  2023-11-20 14:41:39.610849
3097  2023-11-20 14:41:39.642735
3098  2023-11-20 14:41:39.674650
3099  2023-11-20 14:41:39.722568
3100  2023-11-20 14:41:39.754473
3101  2023-11-20 14:41:39.786401
3102  2023-11-20 14:41:39.818311
3103  2023-11-20 14:41:39.850230
3104  2023-11-20 14:41:39.882124
3105  2023-11-20 14:41:39.914038
3106  2023-11-20 14:41:39.946963
3107  2023-11-20 14:41:39.978835
3108  2023-11-20 14:41:40.010755
3109  2023-11-20 14:41:40.042664
3110  2023-11-20 14:41:40.074579
3111  2023-11-20 14:41:40.122491
3112  2023-11-20 14:41:40.154402
3113  2023-11-20 14:41:40.186320
3114  2023-11-20 14:41:40.218197
3115  2023-11-20 14:41:40.250143
3116  2023-11-20 14:41:40.283057
3117  2023-11-20 14:41:40.314973
3118  2023-11-20 14:41:40.346890
3119  2023-11-20 14:41:40.378769
3120  2023-11-20 14:41:40.410682
3121  2023-11-20 14:41:40.442627
3122  2023-11-20 14:41:40.474511
3123  2023-11-20 14:41:40.522440
3124  2023-11-20 14:41:40.554336
3125  2023-11-20 14:41:40.586300
3126  2023-11-20 14:41:40.619184
3127  2023-11-20 14:41:40.650156
3128  2023-11-20 14:41:40.683141
3129  2023-11-20 14:41:40.715141
3130  2023-11-20 14:41:40.746067
3131  2023-11-20 14:41:40.778945
3132  2023-11-20 14:41:40.810894
3133  2023-11-20 14:41:40.842786
3134  2023-11-20 14:41:40.874840
3135  2023-11-20 14:41:40.922741
3136  2023-11-20 14:41:40.954668
3137  2023-11-20 14:41:40.986581
3138  2023-11-20 14:41:41.018494
3139  2023-11-20 14:41:41.050409
3140  2023-11-20 14:41:41.082321
3141  2023-11-20 14:41:41.114232
3142  2023-11-20 14:41:41.146153
3143  2023-11-20 14:41:41.179072
3144  2023-11-20 14:41:41.210941
3145  2023-11-20 14:41:41.242927
3146  2023-11-20 14:41:41.274972
3147  2023-11-20 14:41:41.322883
3148  2023-11-20 14:41:41.354925
3149  2023-11-20 14:41:41.386835
3150  2023-11-20 14:41:41.418749
3151  2023-11-20 14:41:41.450664
3152  2023-11-20 14:41:41.482545
3153  2023-11-20 14:41:41.514460
3154  2023-11-20 14:41:41.546405
3155  2023-11-20 14:41:41.578288
3156  2023-11-20 14:41:41.610236
3157  2023-11-20 14:41:41.642280
3158  2023-11-20 14:41:41.674291
3159  2023-11-20 14:41:41.722197
3160  2023-11-20 14:41:41.754114
3161  2023-11-20 14:41:41.786085
3162  2023-11-20 14:41:41.818997
3163  2023-11-20 14:41:41.850911
3164  2023-11-20 14:41:41.882933
3165  2023-11-20 14:41:41.914845
3166  2023-11-20 14:41:41.946763
3167  2023-11-20 14:41:41.978642
3168  2023-11-20 14:41:42.010557
3169  2023-11-20 14:41:42.042472
3170  2023-11-20 14:41:42.074386
3171  2023-11-20 14:41:42.122288
3172  2023-11-20 14:41:42.154175
3173  2023-11-20 14:41:42.186123
3174  2023-11-20 14:41:42.218133
3175  2023-11-20 14:41:42.250340
3176  2023-11-20 14:41:42.282331
3177  2023-11-20 14:41:42.314250
3178  2023-11-20 14:41:42.346162
3179  2023-11-20 14:41:42.379041
3180  2023-11-20 14:41:42.410956
3181  2023-11-20 14:41:42.442871
3182  2023-11-20 14:41:42.474382
3183  2023-11-20 14:41:42.522329
3184  2023-11-20 14:41:42.554244
3185  2023-11-20 14:41:42.587200
3186  2023-11-20 14:41:42.618312
3187  2023-11-20 14:41:42.650238
3188  2023-11-20 14:41:42.683195
3189  2023-11-20 14:41:42.715109
3190  2023-11-20 14:41:42.746082
3191  2023-11-20 14:41:42.778937
3192  2023-11-20 14:41:42.810885
3193  2023-11-20 14:41:42.842813
3194  2023-11-20 14:41:42.874681
3195  2023-11-20 14:41:42.922554
3196  2023-11-20 14:41:42.954535
3197  2023-11-20 14:41:42.986423
3198  2023-11-20 14:41:43.019330
3199  2023-11-20 14:41:43.051212
3200  2023-11-20 14:41:43.083159
3201  2023-11-20 14:41:43.115094
3202  2023-11-20 14:41:43.147095
3203  2023-11-20 14:41:43.179019
3204  2023-11-20 14:41:43.210884
3205  2023-11-20 14:41:43.242798
3206  2023-11-20 14:41:43.290703
3207  2023-11-20 14:41:43.322684
3208  2023-11-20 14:41:43.354598
3209  2023-11-20 14:41:43.386516
3210  2023-11-20 14:41:43.418469
3211  2023-11-20 14:41:43.450348
3212  2023-11-20 14:41:43.482262
3213  2023-11-20 14:41:43.514308
3214  2023-11-20 14:41:43.546336
3215  2023-11-20 14:41:43.578218
3216  2023-11-20 14:41:43.610215
3217  2023-11-20 14:41:43.642166
3218  2023-11-20 14:41:43.690115
3219  2023-11-20 14:41:43.722066
3220  2023-11-20 14:41:43.755060
3221  2023-11-20 14:41:43.786981
3222  2023-11-20 14:41:43.818883
3223  2023-11-20 14:41:43.850808
3224  2023-11-20 14:41:43.882715
3225  2023-11-20 14:41:43.914746
3226  2023-11-20 14:41:43.946667
3227  2023-11-20 14:41:43.978541
3228  2023-11-20 14:41:44.010455
3229  2023-11-20 14:41:44.042371
3230  2023-11-20 14:41:44.090284
3231  2023-11-20 14:41:44.123195
3232  2023-11-20 14:41:44.154114
3233  2023-11-20 14:41:44.186103
3234  2023-11-20 14:41:44.219025
3235  2023-11-20 14:41:44.250932
3236  2023-11-20 14:41:44.282844
3237  2023-11-20 14:41:44.314760
3238  2023-11-20 14:41:44.346640
3239  2023-11-20 14:41:44.378554
3240  2023-11-20 14:41:44.410553
3241  2023-11-20 14:41:44.442467
3242  2023-11-20 14:41:44.490376
3243  2023-11-20 14:41:44.522291
3244  2023-11-20 14:41:44.554240
3245  2023-11-20 14:41:44.586151
3246  2023-11-20 14:41:44.619034
3247  2023-11-20 14:41:44.650951
3248  2023-11-20 14:41:44.682893
3249  2023-11-20 14:41:44.714810
3250  2023-11-20 14:41:44.746728
3251  2023-11-20 14:41:44.778607
3252  2023-11-20 14:41:44.810521
3253  2023-11-20 14:41:44.842435
3254  2023-11-20 14:41:44.890338
3255  2023-11-20 14:41:44.922299
3256  2023-11-20 14:41:44.954215
3257  2023-11-20 14:41:44.986126
3258  2023-11-20 14:41:45.019046
3259  2023-11-20 14:41:45.050920
3260  2023-11-20 14:41:45.082872
3261  2023-11-20 14:41:45.114781
3262  2023-11-20 14:41:45.146711
3263  2023-11-20 14:41:45.178725
3264  2023-11-20 14:41:45.210705
3265  2023-11-20 14:41:45.242620
3266  2023-11-20 14:41:45.290525
3267  2023-11-20 14:41:45.322453
3268  2023-11-20 14:41:45.355356
3269  2023-11-20 14:41:45.386269
3270  2023-11-20 14:41:45.418197
3271  2023-11-20 14:41:45.451065
3272  2023-11-20 14:41:45.482978
3273  2023-11-20 14:41:45.514947
3274  2023-11-20 14:41:45.546846
3275  2023-11-20 14:41:45.578722
3276  2023-11-20 14:41:45.610636
3277  2023-11-20 14:41:45.642588
3278  2023-11-20 14:41:45.690471
3279  2023-11-20 14:41:45.722433
3280  2023-11-20 14:41:45.754388
3281  2023-11-20 14:41:45.786307
3282  2023-11-20 14:41:45.818220
3283  2023-11-20 14:41:45.850134
3284  2023-11-20 14:41:45.883048
3285  2023-11-20 14:41:45.914979
3286  2023-11-20 14:41:45.946986
3287  2023-11-20 14:41:45.978879
3288  2023-11-20 14:41:46.010763
3289  2023-11-20 14:41:46.042678
3290  2023-11-20 14:41:46.090661
3291  2023-11-20 14:41:46.122545
3292  2023-11-20 14:41:46.154487
3293  2023-11-20 14:41:46.186446
3294  2023-11-20 14:41:46.218349
3295  2023-11-20 14:41:46.250262
3296  2023-11-20 14:41:46.282253
3297  2023-11-20 14:41:46.314169
3298  2023-11-20 14:41:46.347096
3299  2023-11-20 14:41:46.378962
3300  2023-11-20 14:41:46.410877
3301  2023-11-20 14:41:46.442948
3302  2023-11-20 14:41:46.490852
3303  2023-11-20 14:41:46.522777
3304  2023-11-20 14:41:46.554681
3305  2023-11-20 14:41:46.586599
3306  2023-11-20 14:41:46.618506
3307  2023-11-20 14:41:46.650433
3308  2023-11-20 14:41:46.682310
3309  2023-11-20 14:41:46.714259
3310  2023-11-20 14:41:46.747167
3311  2023-11-20 14:41:46.779050
3312  2023-11-20 14:41:46.811306
3313  2023-11-20 14:41:46.858335
3314  2023-11-20 14:41:46.890265
3315  2023-11-20 14:41:46.923164
3316  2023-11-20 14:41:46.954079
3317  2023-11-20 14:41:46.986996
3318  2023-11-20 14:41:47.018875
3319  2023-11-20 14:41:47.050819
3320  2023-11-20 14:41:47.082740
3321  2023-11-20 14:41:47.114649
3322  2023-11-20 14:41:47.146315
3323  2023-11-20 14:41:47.178318
3324  2023-11-20 14:41:47.210186
3325  2023-11-20 14:41:47.258090
3326  2023-11-20 14:41:47.291020
3327  2023-11-20 14:41:47.322917
3328  2023-11-20 14:41:47.354838
3329  2023-11-20 14:41:47.386747
3330  2023-11-20 14:41:47.418662
3331  2023-11-20 14:41:47.450578
3332  2023-11-20 14:41:47.482528
3333  2023-11-20 14:41:47.514443
3334  2023-11-20 14:41:47.546357
3335  2023-11-20 14:41:47.578317
3336  2023-11-20 14:41:47.610231
3337  2023-11-20 14:41:47.658135
3338  2023-11-20 14:41:47.690044
3339  2023-11-20 14:41:47.722968
3340  2023-11-20 14:41:47.754876
3341  2023-11-20 14:41:47.786789
3342  2023-11-20 14:41:47.818671
3343  2023-11-20 14:41:47.850300
3344  2023-11-20 14:41:47.882202
3345  2023-11-20 14:41:47.914119
3346  2023-11-20 14:41:47.946101
3347  2023-11-20 14:41:47.978096
3348  2023-11-20 14:41:48.011009
3349  2023-11-20 14:41:48.058912
3350  2023-11-20 14:41:48.090906
3351  2023-11-20 14:41:48.122821
3352  2023-11-20 14:41:48.154771
3353  2023-11-20 14:41:48.186803
3354  2023-11-20 14:41:48.218732
3355  2023-11-20 14:41:48.250633
3356  2023-11-20 14:41:48.282547
3357  2023-11-20 14:41:48.314465
3358  2023-11-20 14:41:48.346386
3359  2023-11-20 14:41:48.378260
3360  2023-11-20 14:41:48.410175
3361  2023-11-20 14:41:48.459075
3362  2023-11-20 14:41:48.490991
3363  2023-11-20 14:41:48.522905
3364  2023-11-20 14:41:48.554819
3365  2023-11-20 14:41:48.586738
3366  2023-11-20 14:41:48.618667
3367  2023-11-20 14:41:48.650565
3368  2023-11-20 14:41:48.682486
3369  2023-11-20 14:41:48.714393
3370  2023-11-20 14:41:48.746309
3371  2023-11-20 14:41:48.779188
3372  2023-11-20 14:41:48.810106
3373  2023-11-20 14:41:48.858148
3374  2023-11-20 14:41:48.891026
3375  2023-11-20 14:41:48.922940
3376  2023-11-20 14:41:48.954884
3377  2023-11-20 14:41:48.986799
3378  2023-11-20 14:41:49.019724
3379  2023-11-20 14:41:49.050600
3380  2023-11-20 14:41:49.082547
3381  2023-11-20 14:41:49.114410
3382  2023-11-20 14:41:49.146439
3383  2023-11-20 14:41:49.179318
3384  2023-11-20 14:41:49.210234
3385  2023-11-20 14:41:49.259106
3386  2023-11-20 14:41:49.291062
3387  2023-11-20 14:41:49.322989
3388  2023-11-20 14:41:49.354888
3389  2023-11-20 14:41:49.386795
3390  2023-11-20 14:41:49.418710
3391  2023-11-20 14:41:49.450625
3392  2023-11-20 14:41:49.482544
3393  2023-11-20 14:41:49.514460
3394  2023-11-20 14:41:49.546368
3395  2023-11-20 14:41:49.578250
3396  2023-11-20 14:41:49.610211
3397  2023-11-20 14:41:49.659069
3398  2023-11-20 14:41:49.690984
3399  2023-11-20 14:41:49.722895
3400  2023-11-20 14:41:49.754809
3401  2023-11-20 14:41:49.786712
3402  2023-11-20 14:41:49.818699
3403  2023-11-20 14:41:49.850613
3404  2023-11-20 14:41:49.882528
3405  2023-11-20 14:41:49.914440
3406  2023-11-20 14:41:49.946481
3407  2023-11-20 14:41:49.978442
3408  2023-11-20 14:41:50.010372
3409  2023-11-20 14:41:50.058276
3410  2023-11-20 14:41:50.090196
3411  2023-11-20 14:41:50.123103
3412  2023-11-20 14:41:50.154025
3413  2023-11-20 14:41:50.186936
3414  2023-11-20 14:41:50.218845
3415  2023-11-20 14:41:50.250760
3416  2023-11-20 14:41:50.282674
3417  2023-11-20 14:41:50.314597
3418  2023-11-20 14:41:50.346515
3419  2023-11-20 14:41:50.378388
3420  2023-11-20 14:41:50.410303
3421  2023-11-20 14:41:50.458207
3422  2023-11-20 14:41:50.490120
3423  2023-11-20 14:41:50.523034
3424  2023-11-20 14:41:50.554952
3425  2023-11-20 14:41:50.586861
3426  2023-11-20 14:41:50.618984
3427  2023-11-20 14:41:50.650886
3428  2023-11-20 14:41:50.682806
3429  2023-11-20 14:41:50.714734
3430  2023-11-20 14:41:50.746624
3431  2023-11-20 14:41:50.778505
3432  2023-11-20 14:41:50.826416
3433  2023-11-20 14:41:50.858324
3434  2023-11-20 14:41:50.890243
3435  2023-11-20 14:41:50.923150
3436  2023-11-20 14:41:50.955082
3437  2023-11-20 14:41:50.987004
3438  2023-11-20 14:41:51.018907
3439  2023-11-20 14:41:51.050809
3440  2023-11-20 14:41:51.082999
3441  2023-11-20 14:41:51.114908
3442  2023-11-20 14:41:51.146932
3443  2023-11-20 14:41:51.178808
3444  2023-11-20 14:41:51.226710
3445  2023-11-20 14:41:51.258630
3446  2023-11-20 14:41:51.290545
3447  2023-11-20 14:41:51.322459
3448  2023-11-20 14:41:51.354546
3449  2023-11-20 14:41:51.386461
3450  2023-11-20 14:41:51.418389
3451  2023-11-20 14:41:51.452290
3452  2023-11-20 14:41:51.483203
3453  2023-11-20 14:41:51.514124
3454  2023-11-20 14:41:51.548030
3455  2023-11-20 14:41:51.579946
3456  2023-11-20 14:41:51.628820
3457  2023-11-20 14:41:51.658743
3458  2023-11-20 14:41:51.690649
3459  2023-11-20 14:41:51.724575
3460  2023-11-20 14:41:51.756406
3461  2023-11-20 14:41:51.788316
3462  2023-11-20 14:41:51.820337
3463  2023-11-20 14:41:51.851263
3464  2023-11-20 14:41:51.883139
3465  2023-11-20 14:41:51.916087
3466  2023-11-20 14:41:51.947997
3467  2023-11-20 14:41:51.979911
3468  2023-11-20 14:41:52.027795
3469  2023-11-20 14:41:52.058704
3470  2023-11-20 14:41:52.092618
3471  2023-11-20 14:41:52.124493
3472  2023-11-20 14:41:52.156443
3473  2023-11-20 14:41:52.188355
3474  2023-11-20 14:41:52.220267
3475  2023-11-20 14:41:52.252182
3476  2023-11-20 14:41:52.284100
3477  2023-11-20 14:41:52.316015
3478  2023-11-20 14:41:52.347926
3479  2023-11-20 14:41:52.379844
3480  2023-11-20 14:41:52.427728
3481  2023-11-20 14:41:52.459633
3482  2023-11-20 14:41:52.491542
3483  2023-11-20 14:41:52.523470
3484  2023-11-20 14:41:52.556375
3485  2023-11-20 14:41:52.588306
3486  2023-11-20 14:41:52.620200
3487  2023-11-20 14:41:52.652115
3488  2023-11-20 14:41:52.684030
3489  2023-11-20 14:41:52.715946
3490  2023-11-20 14:41:52.747868
3491  2023-11-20 14:41:52.779769
3492  2023-11-20 14:41:52.827644
3493  2023-11-20 14:41:52.859552
3494  2023-11-20 14:41:52.891473
3495  2023-11-20 14:41:52.923388
3496  2023-11-20 14:41:52.955276
3497  2023-11-20 14:41:52.987224
3498  2023-11-20 14:41:53.020138
3499  2023-11-20 14:41:53.051057
3500  2023-11-20 14:41:53.082980
3501  2023-11-20 14:41:53.115884
3502  2023-11-20 14:41:53.147796
3503  2023-11-20 14:41:53.179708
3504  2023-11-20 14:41:53.227610
3505  2023-11-20 14:41:53.259626
3506  2023-11-20 14:41:53.291527
3507  2023-11-20 14:41:53.323437
3508  2023-11-20 14:41:53.356380
3509  2023-11-20 14:41:53.388234
3510  2023-11-20 14:41:53.419152
3511  2023-11-20 14:41:53.451067
3512  2023-11-20 14:41:53.483978
3513  2023-11-20 14:41:53.515893
3514  2023-11-20 14:41:53.547838
3515  2023-11-20 14:41:53.579764
3516  2023-11-20 14:41:53.627625
3517  2023-11-20 14:41:53.659539
3518  2023-11-20 14:41:53.691572
3519  2023-11-20 14:41:53.723493
3520  2023-11-20 14:41:53.755404
3521  2023-11-20 14:41:53.787318
3522  2023-11-20 14:41:53.819237
3523  2023-11-20 14:41:53.851149
3524  2023-11-20 14:41:53.883169
3525  2023-11-20 14:41:53.915064
3526  2023-11-20 14:41:53.946985
3527  2023-11-20 14:41:53.978894
3528  2023-11-20 14:41:54.026769
3529  2023-11-20 14:41:54.058678
3530  2023-11-20 14:41:54.090594
3531  2023-11-20 14:41:54.122525
3532  2023-11-20 14:41:54.155421
3533  2023-11-20 14:41:54.187335
3534  2023-11-20 14:41:54.219256
3535  2023-11-20 14:41:54.251177
3536  2023-11-20 14:41:54.283449
3537  2023-11-20 14:41:54.315363
3538  2023-11-20 14:41:54.347250
3539  2023-11-20 14:41:54.395142
3540  2023-11-20 14:41:54.427068
3541  2023-11-20 14:41:54.458999
3542  2023-11-20 14:41:54.490893
3543  2023-11-20 14:41:54.522807
3544  2023-11-20 14:41:54.555722
3545  2023-11-20 14:41:54.586637
3546  2023-11-20 14:41:54.619518
3547  2023-11-20 14:41:54.651437
3548  2023-11-20 14:41:54.683394
3549  2023-11-20 14:41:54.715293
3550  2023-11-20 14:41:54.747211
3551  2023-11-20 14:41:54.795084
3552  2023-11-20 14:41:54.826998
3553  2023-11-20 14:41:54.858963
3554  2023-11-20 14:41:54.890923
3555  2023-11-20 14:41:54.922835
3556  2023-11-20 14:41:54.954739
3557  2023-11-20 14:41:54.987677
3558  2023-11-20 14:41:55.018570
3559  2023-11-20 14:41:55.050501
3560  2023-11-20 14:41:55.082398
3561  2023-11-20 14:41:55.115330
