
1  2023-11-29 12:32:39.048798
2  2023-11-29 12:32:39.080754
3  2023-11-29 12:32:39.112664
4  2023-11-29 12:32:39.144312
5  2023-11-29 12:32:39.177224
6  2023-11-29 12:32:39.209138
7  2023-11-29 12:32:39.241054
8  2023-11-29 12:32:39.272972
9  2023-11-29 12:32:39.320840
10  2023-11-29 12:32:39.352756
11  2023-11-29 12:32:39.384711
12  2023-11-29 12:32:39.416657
13  2023-11-29 12:32:39.448592
14  2023-11-29 12:32:39.480523
15  2023-11-29 12:32:39.512405
16  2023-11-29 12:32:39.544319
17  2023-11-29 12:32:39.576234
18  2023-11-29 12:32:39.609146
19  2023-11-29 12:32:39.641091
20  2023-11-29 12:32:39.672866
21  2023-11-29 12:32:39.720738
22  2023-11-29 12:32:39.752653
23  2023-11-29 12:32:39.784574
24  2023-11-29 12:32:39.816514
25  2023-11-29 12:32:39.848437
26  2023-11-29 12:32:39.880345
27  2023-11-29 12:32:39.912227
28  2023-11-29 12:32:39.945164
29  2023-11-29 12:32:39.977066
30  2023-11-29 12:32:40.008986
31  2023-11-29 12:32:40.040973
32  2023-11-29 12:32:40.072888
33  2023-11-29 12:32:40.120758
34  2023-11-29 12:32:40.152639
35  2023-11-29 12:32:40.184560
36  2023-11-29 12:32:40.216468
37  2023-11-29 12:32:40.248383
38  2023-11-29 12:32:40.280297
39  2023-11-29 12:32:40.312212
40  2023-11-29 12:32:40.344167
41  2023-11-29 12:32:40.377106
42  2023-11-29 12:32:40.409109
43  2023-11-29 12:32:40.440992
44  2023-11-29 12:32:40.472486
45  2023-11-29 12:32:40.520452
46  2023-11-29 12:32:40.552322
47  2023-11-29 12:32:40.584237
48  2023-11-29 12:32:40.616981
49  2023-11-29 12:32:40.648419
50  2023-11-29 12:32:40.680426
51  2023-11-29 12:32:40.713054
52  2023-11-29 12:32:40.745018
53  2023-11-29 12:32:40.776894
54  2023-11-29 12:32:40.808932
55  2023-11-29 12:32:40.840812
56  2023-11-29 12:32:40.872727
57  2023-11-29 12:32:40.920599
58  2023-11-29 12:32:40.952513
59  2023-11-29 12:32:40.984464
60  2023-11-29 12:32:41.016314
61  2023-11-29 12:32:41.048312
62  2023-11-29 12:32:41.080217
63  2023-11-29 12:32:41.112751
64  2023-11-29 12:32:41.144665
65  2023-11-29 12:32:41.176518
66  2023-11-29 12:32:41.208904
67  2023-11-29 12:32:41.240791
68  2023-11-29 12:32:41.272705
69  2023-11-29 12:32:41.320578
70  2023-11-29 12:32:41.352492
71  2023-11-29 12:32:41.384406
72  2023-11-29 12:32:41.416364
73  2023-11-29 12:32:41.448306
74  2023-11-29 12:32:41.480263
75  2023-11-29 12:32:41.512487
76  2023-11-29 12:32:41.544390
77  2023-11-29 12:32:41.576305
78  2023-11-29 12:32:41.608222
79  2023-11-29 12:32:41.640927
80  2023-11-29 12:32:41.672925
81  2023-11-29 12:32:41.720795
82  2023-11-29 12:32:41.752708
83  2023-11-29 12:32:41.784591
84  2023-11-29 12:32:41.816506
85  2023-11-29 12:32:41.848421
86  2023-11-29 12:32:41.880335
87  2023-11-29 12:32:41.912250
88  2023-11-29 12:32:41.944165
89  2023-11-29 12:32:41.976193
90  2023-11-29 12:32:42.009105
91  2023-11-29 12:32:42.040198
92  2023-11-29 12:32:42.073116
93  2023-11-29 12:32:42.120982
94  2023-11-29 12:32:42.152864
95  2023-11-29 12:32:42.184822
96  2023-11-29 12:32:42.216740
97  2023-11-29 12:32:42.248615
98  2023-11-29 12:32:42.280552
99  2023-11-29 12:32:42.312742
100  2023-11-29 12:32:42.344657
101  2023-11-29 12:32:42.376570
102  2023-11-29 12:32:42.408484
103  2023-11-29 12:32:42.440570
104  2023-11-29 12:32:42.472442
105  2023-11-29 12:32:42.520370
106  2023-11-29 12:32:42.552275
107  2023-11-29 12:32:42.584199
108  2023-11-29 12:32:42.617110
109  2023-11-29 12:32:42.649021
110  2023-11-29 12:32:42.680924
111  2023-11-29 12:32:42.712240
112  2023-11-29 12:32:42.744209
113  2023-11-29 12:32:42.777103
114  2023-11-29 12:32:42.808981
115  2023-11-29 12:32:42.840926
116  2023-11-29 12:32:42.872810
117  2023-11-29 12:32:42.920722
118  2023-11-29 12:32:42.952633
119  2023-11-29 12:32:42.984512
120  2023-11-29 12:32:43.016487
121  2023-11-29 12:32:43.048381
122  2023-11-29 12:32:43.081288
123  2023-11-29 12:32:43.113168
124  2023-11-29 12:32:43.145083
125  2023-11-29 12:32:43.177036
126  2023-11-29 12:32:43.208912
127  2023-11-29 12:32:43.240782
128  2023-11-29 12:32:43.272670
129  2023-11-29 12:32:43.320633
130  2023-11-29 12:32:43.352555
131  2023-11-29 12:32:43.384472
132  2023-11-29 12:32:43.416367
133  2023-11-29 12:32:43.449355
134  2023-11-29 12:32:43.480313
135  2023-11-29 12:32:43.512230
136  2023-11-29 12:32:43.544265
137  2023-11-29 12:32:43.576183
138  2023-11-29 12:32:43.608180
139  2023-11-29 12:32:43.640142
140  2023-11-29 12:32:43.673085
141  2023-11-29 12:32:43.721017
142  2023-11-29 12:32:43.752831
143  2023-11-29 12:32:43.784884
144  2023-11-29 12:32:43.816773
145  2023-11-29 12:32:43.848688
146  2023-11-29 12:32:43.880635
147  2023-11-29 12:32:43.912565
148  2023-11-29 12:32:43.944432
149  2023-11-29 12:32:43.976346
150  2023-11-29 12:32:44.008302
151  2023-11-29 12:32:44.040216
152  2023-11-29 12:32:44.073123
153  2023-11-29 12:32:44.121000
154  2023-11-29 12:32:44.152995
155  2023-11-29 12:32:44.184949
156  2023-11-29 12:32:44.216895
157  2023-11-29 12:32:44.248809
158  2023-11-29 12:32:44.280724
159  2023-11-29 12:32:44.312678
160  2023-11-29 12:32:44.344592
161  2023-11-29 12:32:44.376544
162  2023-11-29 12:32:44.408458
163  2023-11-29 12:32:44.440420
164  2023-11-29 12:32:44.472335
165  2023-11-29 12:32:44.521188
166  2023-11-29 12:32:44.553104
167  2023-11-29 12:32:44.585031
168  2023-11-29 12:32:44.616692
169  2023-11-29 12:32:44.648713
170  2023-11-29 12:32:44.680639
171  2023-11-29 12:32:44.712575
172  2023-11-29 12:32:44.744886
173  2023-11-29 12:32:44.776883
174  2023-11-29 12:32:44.808796
175  2023-11-29 12:32:44.840746
176  2023-11-29 12:32:44.872632
177  2023-11-29 12:32:44.920497
178  2023-11-29 12:32:44.952475
179  2023-11-29 12:32:44.984418
180  2023-11-29 12:32:45.016438
181  2023-11-29 12:32:45.048420
182  2023-11-29 12:32:45.081352
183  2023-11-29 12:32:45.113227
184  2023-11-29 12:32:45.144819
185  2023-11-29 12:32:45.176954
186  2023-11-29 12:32:45.208924
187  2023-11-29 12:32:45.240783
188  2023-11-29 12:32:45.272698
189  2023-11-29 12:32:45.320660
190  2023-11-29 12:32:45.352770
191  2023-11-29 12:32:45.384699
192  2023-11-29 12:32:45.416623
193  2023-11-29 12:32:45.448528
194  2023-11-29 12:32:45.480518
195  2023-11-29 12:32:45.512433
196  2023-11-29 12:32:45.544349
197  2023-11-29 12:32:45.576273
198  2023-11-29 12:32:45.608178
199  2023-11-29 12:32:45.640820
200  2023-11-29 12:32:45.672820
201  2023-11-29 12:32:45.720689
202  2023-11-29 12:32:45.752626
203  2023-11-29 12:32:45.784519
204  2023-11-29 12:32:45.816451
205  2023-11-29 12:32:45.848362
206  2023-11-29 12:32:45.880262
207  2023-11-29 12:32:45.912187
208  2023-11-29 12:32:45.945059
209  2023-11-29 12:32:45.977004
210  2023-11-29 12:32:46.008888
211  2023-11-29 12:32:46.040914
212  2023-11-29 12:32:46.072862
213  2023-11-29 12:32:46.120797
214  2023-11-29 12:32:46.153130
215  2023-11-29 12:32:46.185127
216  2023-11-29 12:32:46.217009
217  2023-11-29 12:32:46.248955
218  2023-11-29 12:32:46.281062
219  2023-11-29 12:32:46.313084
220  2023-11-29 12:32:46.345067
221  2023-11-29 12:32:46.376977
222  2023-11-29 12:32:46.408859
223  2023-11-29 12:32:46.440806
224  2023-11-29 12:32:46.472688
225  2023-11-29 12:32:46.520604
226  2023-11-29 12:32:46.552506
227  2023-11-29 12:32:46.584432
228  2023-11-29 12:32:46.616305
229  2023-11-29 12:32:46.648219
230  2023-11-29 12:32:46.680174
231  2023-11-29 12:32:46.713087
232  2023-11-29 12:32:46.744936
233  2023-11-29 12:32:46.776932
234  2023-11-29 12:32:46.808217
235  2023-11-29 12:32:46.841129
236  2023-11-29 12:32:46.873044
237  2023-11-29 12:32:46.920946
238  2023-11-29 12:32:46.952830
239  2023-11-29 12:32:46.984762
240  2023-11-29 12:32:47.016739
241  2023-11-29 12:32:47.048661
242  2023-11-29 12:32:47.080600
243  2023-11-29 12:32:47.112544
244  2023-11-29 12:32:47.144425
245  2023-11-29 12:32:47.176453
246  2023-11-29 12:32:47.208868
247  2023-11-29 12:32:47.240601
248  2023-11-29 12:32:47.272549
249  2023-11-29 12:32:47.320548
250  2023-11-29 12:32:47.352463
251  2023-11-29 12:32:47.384411
252  2023-11-29 12:32:47.416295
253  2023-11-29 12:32:47.449218
254  2023-11-29 12:32:47.480313
255  2023-11-29 12:32:47.513093
256  2023-11-29 12:32:47.544309
257  2023-11-29 12:32:47.576261
258  2023-11-29 12:32:47.609167
259  2023-11-29 12:32:47.640171
260  2023-11-29 12:32:47.672118
261  2023-11-29 12:32:47.720955
262  2023-11-29 12:32:47.752910
263  2023-11-29 12:32:47.784820
264  2023-11-29 12:32:47.816699
265  2023-11-29 12:32:47.848614
266  2023-11-29 12:32:47.880570
267  2023-11-29 12:32:47.912581
268  2023-11-29 12:32:47.944548
269  2023-11-29 12:32:47.976463
270  2023-11-29 12:32:48.008377
271  2023-11-29 12:32:48.041079
272  2023-11-29 12:32:48.072952
273  2023-11-29 12:32:48.120856
274  2023-11-29 12:32:48.152739
275  2023-11-29 12:32:48.184654
276  2023-11-29 12:32:48.216622
277  2023-11-29 12:32:48.248483
278  2023-11-29 12:32:48.280398
279  2023-11-29 12:32:48.312312
280  2023-11-29 12:32:48.344227
281  2023-11-29 12:32:48.376142
282  2023-11-29 12:32:48.409054
283  2023-11-29 12:32:48.440968
284  2023-11-29 12:32:48.472883
285  2023-11-29 12:32:48.520755
286  2023-11-29 12:32:48.552805
287  2023-11-29 12:32:48.584584
288  2023-11-29 12:32:48.616476
289  2023-11-29 12:32:48.648411
290  2023-11-29 12:32:48.680339
291  2023-11-29 12:32:48.712289
292  2023-11-29 12:32:48.744811
293  2023-11-29 12:32:48.776800
294  2023-11-29 12:32:48.808714
295  2023-11-29 12:32:48.840637
296  2023-11-29 12:32:48.872581
297  2023-11-29 12:32:48.920416
298  2023-11-29 12:32:48.952224
299  2023-11-29 12:32:48.984203
300  2023-11-29 12:32:49.017114
301  2023-11-29 12:32:49.049029
302  2023-11-29 12:32:49.080944
303  2023-11-29 12:32:49.112599
304  2023-11-29 12:32:49.144504
305  2023-11-29 12:32:49.176598
306  2023-11-29 12:32:49.208511
307  2023-11-29 12:32:49.240483
308  2023-11-29 12:32:49.272398
309  2023-11-29 12:32:49.320270
310  2023-11-29 12:32:49.352185
311  2023-11-29 12:32:49.385097
312  2023-11-29 12:32:49.417011
313  2023-11-29 12:32:49.449071
314  2023-11-29 12:32:49.480980
315  2023-11-29 12:32:49.513000
316  2023-11-29 12:32:49.544914
317  2023-11-29 12:32:49.576829
318  2023-11-29 12:32:49.608744
319  2023-11-29 12:32:49.640658
320  2023-11-29 12:32:49.672573
321  2023-11-29 12:32:49.720445
322  2023-11-29 12:32:49.752360
323  2023-11-29 12:32:49.784275
324  2023-11-29 12:32:49.816264
325  2023-11-29 12:32:49.848177
326  2023-11-29 12:32:49.881116
327  2023-11-29 12:32:49.913004
328  2023-11-29 12:32:49.944920
329  2023-11-29 12:32:49.976842
330  2023-11-29 12:32:50.008755
331  2023-11-29 12:32:50.040675
332  2023-11-29 12:32:50.072599
333  2023-11-29 12:32:50.120463
334  2023-11-29 12:32:50.152405
335  2023-11-29 12:32:50.185299
336  2023-11-29 12:32:50.216209
337  2023-11-29 12:32:50.249129
338  2023-11-29 12:32:50.281033
339  2023-11-29 12:32:50.312946
340  2023-11-29 12:32:50.344906
341  2023-11-29 12:32:50.376881
342  2023-11-29 12:32:50.408810
343  2023-11-29 12:32:50.440777
344  2023-11-29 12:32:50.473071
345  2023-11-29 12:32:50.520991
346  2023-11-29 12:32:50.552906
347  2023-11-29 12:32:50.584935
348  2023-11-29 12:32:50.616892
349  2023-11-29 12:32:50.648770
350  2023-11-29 12:32:50.680684
351  2023-11-29 12:32:50.712289
352  2023-11-29 12:32:50.744949
353  2023-11-29 12:32:50.776864
354  2023-11-29 12:32:50.808911
355  2023-11-29 12:32:50.840864
356  2023-11-29 12:32:50.872825
357  2023-11-29 12:32:50.920768
358  2023-11-29 12:32:50.952682
359  2023-11-29 12:32:50.984678
360  2023-11-29 12:32:51.016605
361  2023-11-29 12:32:51.048621
362  2023-11-29 12:32:51.080543
363  2023-11-29 12:32:51.112359
364  2023-11-29 12:32:51.144273
365  2023-11-29 12:32:51.176188
366  2023-11-29 12:32:51.209100
367  2023-11-29 12:32:51.241116
368  2023-11-29 12:32:51.273030
369  2023-11-29 12:32:51.320274
370  2023-11-29 12:32:51.352199
371  2023-11-29 12:32:51.384183
372  2023-11-29 12:32:51.417097
373  2023-11-29 12:32:51.449011
374  2023-11-29 12:32:51.480926
375  2023-11-29 12:32:51.512841
376  2023-11-29 12:32:51.544755
377  2023-11-29 12:32:51.576670
378  2023-11-29 12:32:51.608594
379  2023-11-29 12:32:51.640638
380  2023-11-29 12:32:51.672414
381  2023-11-29 12:32:51.720286
382  2023-11-29 12:32:51.752201
383  2023-11-29 12:32:51.785114
384  2023-11-29 12:32:51.817028
385  2023-11-29 12:32:51.848942
386  2023-11-29 12:32:51.880857
387  2023-11-29 12:32:51.912809
388  2023-11-29 12:32:51.944686
389  2023-11-29 12:32:51.976601
390  2023-11-29 12:32:52.008515
391  2023-11-29 12:32:52.040430
392  2023-11-29 12:32:52.072346
393  2023-11-29 12:32:52.120408
394  2023-11-29 12:32:52.152416
395  2023-11-29 12:32:52.184331
396  2023-11-29 12:32:52.216246
397  2023-11-29 12:32:52.248210
398  2023-11-29 12:32:52.281073
399  2023-11-29 12:32:52.312987
400  2023-11-29 12:32:52.344902
401  2023-11-29 12:32:52.376844
402  2023-11-29 12:32:52.408731
403  2023-11-29 12:32:52.440644
404  2023-11-29 12:32:52.472597
405  2023-11-29 12:32:52.520469
406  2023-11-29 12:32:52.552384
407  2023-11-29 12:32:52.584299
408  2023-11-29 12:32:52.616214
409  2023-11-29 12:32:52.649126
410  2023-11-29 12:32:52.681040
411  2023-11-29 12:32:52.712955
412  2023-11-29 12:32:52.744871
413  2023-11-29 12:32:52.776785
414  2023-11-29 12:32:52.808700
415  2023-11-29 12:32:52.840615
416  2023-11-29 12:32:52.872530
417  2023-11-29 12:32:52.920436
418  2023-11-29 12:32:52.952317
419  2023-11-29 12:32:52.985229
420  2023-11-29 12:32:53.016145
421  2023-11-29 12:32:53.049058
422  2023-11-29 12:32:53.080972
423  2023-11-29 12:32:53.112887
424  2023-11-29 12:32:53.144802
425  2023-11-29 12:32:53.176716
426  2023-11-29 12:32:53.208631
427  2023-11-29 12:32:53.240546
428  2023-11-29 12:32:53.272460
429  2023-11-29 12:32:53.320332
430  2023-11-29 12:32:53.352247
431  2023-11-29 12:32:53.384162
432  2023-11-29 12:32:53.417120
433  2023-11-29 12:32:53.449024
434  2023-11-29 12:32:53.480903
435  2023-11-29 12:32:53.512945
436  2023-11-29 12:32:53.544905
437  2023-11-29 12:32:53.576911
438  2023-11-29 12:32:53.608776
439  2023-11-29 12:32:53.640690
440  2023-11-29 12:32:53.672605
441  2023-11-29 12:32:53.720477
442  2023-11-29 12:32:53.752425
443  2023-11-29 12:32:53.784417
444  2023-11-29 12:32:53.816433
445  2023-11-29 12:32:53.848347
446  2023-11-29 12:32:53.880313
447  2023-11-29 12:32:53.912221
448  2023-11-29 12:32:53.945089
449  2023-11-29 12:32:53.977109
450  2023-11-29 12:32:54.009023
451  2023-11-29 12:32:54.040972
452  2023-11-29 12:32:54.072855
453  2023-11-29 12:32:54.120766
454  2023-11-29 12:32:54.152640
455  2023-11-29 12:32:54.184554
456  2023-11-29 12:32:54.216509
457  2023-11-29 12:32:54.248421
458  2023-11-29 12:32:54.280298
459  2023-11-29 12:32:54.313210
460  2023-11-29 12:32:54.345091
461  2023-11-29 12:32:54.377006
462  2023-11-29 12:32:54.408920
463  2023-11-29 12:32:54.440835
464  2023-11-29 12:32:54.472750
465  2023-11-29 12:32:54.520742
466  2023-11-29 12:32:54.552656
467  2023-11-29 12:32:54.584571
468  2023-11-29 12:32:54.616486
469  2023-11-29 12:32:54.648400
470  2023-11-29 12:32:54.680315
471  2023-11-29 12:32:54.712230
472  2023-11-29 12:32:54.745142
473  2023-11-29 12:32:54.777056
474  2023-11-29 12:32:54.808971
475  2023-11-29 12:32:54.840886
476  2023-11-29 12:32:54.872800
477  2023-11-29 12:32:54.920672
478  2023-11-29 12:32:54.952590
479  2023-11-29 12:32:54.984502
480  2023-11-29 12:32:55.016502
481  2023-11-29 12:32:55.048557
482  2023-11-29 12:32:55.080504
483  2023-11-29 12:32:55.112381
484  2023-11-29 12:32:55.144297
485  2023-11-29 12:32:55.177213
486  2023-11-29 12:32:55.209123
487  2023-11-29 12:32:55.240950
488  2023-11-29 12:32:55.272990
489  2023-11-29 12:32:55.320831
490  2023-11-29 12:32:55.352822
491  2023-11-29 12:32:55.384789
492  2023-11-29 12:32:55.416739
493  2023-11-29 12:32:55.448618
494  2023-11-29 12:32:55.480533
495  2023-11-29 12:32:55.512448
496  2023-11-29 12:32:55.544396
497  2023-11-29 12:32:55.576390
498  2023-11-29 12:32:55.608813
499  2023-11-29 12:32:55.640324
500  2023-11-29 12:32:55.672272
501  2023-11-29 12:32:55.721108
502  2023-11-29 12:32:55.753065
503  2023-11-29 12:32:55.784937
504  2023-11-29 12:32:55.816852
505  2023-11-29 12:32:55.848766
506  2023-11-29 12:32:55.880716
507  2023-11-29 12:32:55.912634
508  2023-11-29 12:32:55.944510
509  2023-11-29 12:32:55.976425
510  2023-11-29 12:32:56.008340
511  2023-11-29 12:32:56.040254
512  2023-11-29 12:32:56.072169
513  2023-11-29 12:32:56.121039
514  2023-11-29 12:32:56.152953
515  2023-11-29 12:32:56.184868
516  2023-11-29 12:32:56.216783
517  2023-11-29 12:32:56.248697
518  2023-11-29 12:32:56.280617
519  2023-11-29 12:32:56.312541
520  2023-11-29 12:32:56.344441
521  2023-11-29 12:32:56.376356
522  2023-11-29 12:32:56.408271
523  2023-11-29 12:32:56.441183
524  2023-11-29 12:32:56.473098
525  2023-11-29 12:32:56.520969
526  2023-11-29 12:32:56.553041
527  2023-11-29 12:32:56.584953
528  2023-11-29 12:32:56.616948
529  2023-11-29 12:32:56.648890
530  2023-11-29 12:32:56.680805
531  2023-11-29 12:32:56.712720
532  2023-11-29 12:32:56.744666
533  2023-11-29 12:32:56.776550
534  2023-11-29 12:32:56.808464
535  2023-11-29 12:32:56.840378
536  2023-11-29 12:32:56.872293
537  2023-11-29 12:32:56.920165
538  2023-11-29 12:32:56.952329
539  2023-11-29 12:32:56.984285
540  2023-11-29 12:32:57.016703
541  2023-11-29 12:32:57.048656
542  2023-11-29 12:32:57.080569
543  2023-11-29 12:32:57.112447
544  2023-11-29 12:32:57.144227
545  2023-11-29 12:32:57.176190
546  2023-11-29 12:32:57.208179
547  2023-11-29 12:32:57.241042
548  2023-11-29 12:32:57.272957
549  2023-11-29 12:32:57.320830
550  2023-11-29 12:32:57.352744
551  2023-11-29 12:32:57.384658
552  2023-11-29 12:32:57.416606
553  2023-11-29 12:32:57.448488
554  2023-11-29 12:32:57.480402
555  2023-11-29 12:32:57.512317
556  2023-11-29 12:32:57.544266
557  2023-11-29 12:32:57.576146
558  2023-11-29 12:32:57.609059
559  2023-11-29 12:32:57.640973
560  2023-11-29 12:32:57.672888
561  2023-11-29 12:32:57.720763
562  2023-11-29 12:32:57.752675
563  2023-11-29 12:32:57.784589
564  2023-11-29 12:32:57.816504
565  2023-11-29 12:32:57.848419
566  2023-11-29 12:32:57.880420
567  2023-11-29 12:32:57.913333
568  2023-11-29 12:32:57.945249
569  2023-11-29 12:32:57.976164
570  2023-11-29 12:32:58.009076
571  2023-11-29 12:32:58.041024
572  2023-11-29 12:32:58.072905
573  2023-11-29 12:32:58.120812
574  2023-11-29 12:32:58.152692
575  2023-11-29 12:32:58.184607
576  2023-11-29 12:32:58.216521
577  2023-11-29 12:32:58.248491
578  2023-11-29 12:32:58.280351
579  2023-11-29 12:32:58.312266
580  2023-11-29 12:32:58.344180
581  2023-11-29 12:32:58.377093
582  2023-11-29 12:32:58.409008
583  2023-11-29 12:32:58.440922
584  2023-11-29 12:32:58.472930
585  2023-11-29 12:32:58.520802
586  2023-11-29 12:32:58.552716
587  2023-11-29 12:32:58.584674
588  2023-11-29 12:32:58.616672
589  2023-11-29 12:32:58.649639
590  2023-11-29 12:32:58.680501
591  2023-11-29 12:32:58.712459
592  2023-11-29 12:32:58.744435
593  2023-11-29 12:32:58.776532
594  2023-11-29 12:32:58.809460
595  2023-11-29 12:32:58.841360
596  2023-11-29 12:32:58.873303
597  2023-11-29 12:32:58.921176
598  2023-11-29 12:32:58.953090
599  2023-11-29 12:32:58.984804
600  2023-11-29 12:32:59.016731
601  2023-11-29 12:32:59.048666
602  2023-11-29 12:32:59.080548
603  2023-11-29 12:32:59.112463
604  2023-11-29 12:32:59.144377
605  2023-11-29 12:32:59.176293
606  2023-11-29 12:32:59.209204
607  2023-11-29 12:32:59.241121
608  2023-11-29 12:32:59.273037
609  2023-11-29 12:32:59.320907
610  2023-11-29 12:32:59.352821
611  2023-11-29 12:32:59.384737
612  2023-11-29 12:32:59.416766
613  2023-11-29 12:32:59.448711
614  2023-11-29 12:32:59.480596
615  2023-11-29 12:32:59.512509
616  2023-11-29 12:32:59.544548
617  2023-11-29 12:32:59.577462
618  2023-11-29 12:32:59.609484
619  2023-11-29 12:32:59.640533
620  2023-11-29 12:32:59.672471
621  2023-11-29 12:32:59.720510
622  2023-11-29 12:32:59.752495
623  2023-11-29 12:32:59.785391
624  2023-11-29 12:32:59.817277
625  2023-11-29 12:32:59.848391
626  2023-11-29 12:32:59.880297
627  2023-11-29 12:32:59.912211
628  2023-11-29 12:32:59.945249
629  2023-11-29 12:32:59.977159
630  2023-11-29 12:33:00.009073
631  2023-11-29 12:33:00.041020
632  2023-11-29 12:33:00.072885
633  2023-11-29 12:33:00.120852
634  2023-11-29 12:33:00.152724
635  2023-11-29 12:33:00.184712
636  2023-11-29 12:33:00.216646
637  2023-11-29 12:33:00.248542
638  2023-11-29 12:33:00.280462
639  2023-11-29 12:33:00.312337
640  2023-11-29 12:33:00.344251
641  2023-11-29 12:33:00.376335
642  2023-11-29 12:33:00.409234
643  2023-11-29 12:33:00.441105
644  2023-11-29 12:33:00.473020
645  2023-11-29 12:33:00.520925
646  2023-11-29 12:33:00.552833
647  2023-11-29 12:33:00.584753
648  2023-11-29 12:33:00.616643
649  2023-11-29 12:33:00.648585
650  2023-11-29 12:33:00.680465
651  2023-11-29 12:33:00.712427
652  2023-11-29 12:33:00.744330
653  2023-11-29 12:33:00.777239
654  2023-11-29 12:33:00.809170
655  2023-11-29 12:33:00.841036
656  2023-11-29 12:33:00.872984
657  2023-11-29 12:33:00.920861
658  2023-11-29 12:33:00.952187
659  2023-11-29 12:33:00.984211
660  2023-11-29 12:33:01.017135
661  2023-11-29 12:33:01.049029
662  2023-11-29 12:33:01.080908
663  2023-11-29 12:33:01.112854
664  2023-11-29 12:33:01.144763
665  2023-11-29 12:33:01.176684
666  2023-11-29 12:33:01.208606
667  2023-11-29 12:33:01.240513
668  2023-11-29 12:33:01.272437
669  2023-11-29 12:33:01.320307
670  2023-11-29 12:33:01.352214
671  2023-11-29 12:33:01.385143
672  2023-11-29 12:33:01.417038
673  2023-11-29 12:33:01.448959
674  2023-11-29 12:33:01.480839
675  2023-11-29 12:33:01.512786
676  2023-11-29 12:33:01.544700
677  2023-11-29 12:33:01.576618
678  2023-11-29 12:33:01.608531
679  2023-11-29 12:33:01.640455
680  2023-11-29 12:33:01.672327
681  2023-11-29 12:33:01.720225
682  2023-11-29 12:33:01.752144
683  2023-11-29 12:33:01.785076
684  2023-11-29 12:33:01.816978
685  2023-11-29 12:33:01.848889
686  2023-11-29 12:33:01.880806
687  2023-11-29 12:33:01.912718
688  2023-11-29 12:33:01.944641
689  2023-11-29 12:33:01.976549
690  2023-11-29 12:33:02.008473
691  2023-11-29 12:33:02.040343
692  2023-11-29 12:33:02.073257
693  2023-11-29 12:33:02.121129
694  2023-11-29 12:33:02.153091
695  2023-11-29 12:33:02.184975
696  2023-11-29 12:33:02.216902
697  2023-11-29 12:33:02.248790
698  2023-11-29 12:33:02.280728
699  2023-11-29 12:33:02.312649
700  2023-11-29 12:33:02.344530
701  2023-11-29 12:33:02.376541
702  2023-11-29 12:33:02.409416
703  2023-11-29 12:33:02.440373
704  2023-11-29 12:33:02.472285
705  2023-11-29 12:33:02.520160
706  2023-11-29 12:33:02.553078
707  2023-11-29 12:33:02.584948
708  2023-11-29 12:33:02.616893
709  2023-11-29 12:33:02.648804
710  2023-11-29 12:33:02.680722
711  2023-11-29 12:33:02.712641
712  2023-11-29 12:33:02.744866
713  2023-11-29 12:33:02.776776
714  2023-11-29 12:33:02.808690
715  2023-11-29 12:33:02.840612
716  2023-11-29 12:33:02.872526
717  2023-11-29 12:33:02.920404
718  2023-11-29 12:33:02.952320
719  2023-11-29 12:33:02.984222
720  2023-11-29 12:33:03.016145
721  2023-11-29 12:33:03.049063
722  2023-11-29 12:33:03.080963
723  2023-11-29 12:33:03.112848
724  2023-11-29 12:33:03.144495
725  2023-11-29 12:33:03.176443
726  2023-11-29 12:33:03.208407
727  2023-11-29 12:33:03.241301
728  2023-11-29 12:33:03.273203
729  2023-11-29 12:33:03.321078
730  2023-11-29 12:33:03.353021
731  2023-11-29 12:33:03.384935
732  2023-11-29 12:33:03.416851
733  2023-11-29 12:33:03.448737
734  2023-11-29 12:33:03.480685
735  2023-11-29 12:33:03.512563
736  2023-11-29 12:33:03.544481
737  2023-11-29 12:33:03.576393
738  2023-11-29 12:33:03.608349
739  2023-11-29 12:33:03.640256
740  2023-11-29 12:33:03.672180
741  2023-11-29 12:33:03.721064
742  2023-11-29 12:33:03.752955
743  2023-11-29 12:33:03.784866
744  2023-11-29 12:33:03.816777
745  2023-11-29 12:33:03.848699
746  2023-11-29 12:33:03.880638
747  2023-11-29 12:33:03.912529
748  2023-11-29 12:33:03.944409
749  2023-11-29 12:33:03.976364
750  2023-11-29 12:33:04.008269
751  2023-11-29 12:33:04.040194
752  2023-11-29 12:33:04.073065
753  2023-11-29 12:33:04.120961
754  2023-11-29 12:33:04.152886
755  2023-11-29 12:33:04.184790
756  2023-11-29 12:33:04.216716
757  2023-11-29 12:33:04.248638
758  2023-11-29 12:33:04.280552
759  2023-11-29 12:33:04.312425
760  2023-11-29 12:33:04.344384
761  2023-11-29 12:33:04.376289
762  2023-11-29 12:33:04.408215
763  2023-11-29 12:33:04.441116
764  2023-11-29 12:33:04.473032
765  2023-11-29 12:33:04.520912
766  2023-11-29 12:33:04.552816
767  2023-11-29 12:33:04.584722
768  2023-11-29 12:33:04.616646
769  2023-11-29 12:33:04.648553
770  2023-11-29 12:33:04.680490
771  2023-11-29 12:33:04.712387
772  2023-11-29 12:33:04.744270
773  2023-11-29 12:33:04.776225
774  2023-11-29 12:33:04.809129
775  2023-11-29 12:33:04.841044
776  2023-11-29 12:33:04.872960
777  2023-11-29 12:33:04.920834
778  2023-11-29 12:33:04.952745
779  2023-11-29 12:33:04.984670
780  2023-11-29 12:33:05.016542
781  2023-11-29 12:33:05.048500
782  2023-11-29 12:33:05.081371
783  2023-11-29 12:33:05.112320
784  2023-11-29 12:33:05.144241
785  2023-11-29 12:33:05.177147
786  2023-11-29 12:33:05.209062
787  2023-11-29 12:33:05.240945
788  2023-11-29 12:33:05.272890
789  2023-11-29 12:33:05.320768
790  2023-11-29 12:33:05.352680
791  2023-11-29 12:33:05.384598
792  2023-11-29 12:33:05.416509
793  2023-11-29 12:33:05.448432
794  2023-11-29 12:33:05.480346
795  2023-11-29 12:33:05.512268
796  2023-11-29 12:33:05.545162
797  2023-11-29 12:33:05.577044
798  2023-11-29 12:33:05.608989
799  2023-11-29 12:33:05.640904
800  2023-11-29 12:33:05.672818
801  2023-11-29 12:33:05.720692
802  2023-11-29 12:33:05.752616
803  2023-11-29 12:33:05.784526
804  2023-11-29 12:33:05.816447
805  2023-11-29 12:33:05.848366
806  2023-11-29 12:33:05.880266
807  2023-11-29 12:33:05.912189
808  2023-11-29 12:33:05.945060
809  2023-11-29 12:33:05.976975
810  2023-11-29 12:33:06.008920
811  2023-11-29 12:33:06.040837
812  2023-11-29 12:33:06.072754
813  2023-11-29 12:33:06.120622
814  2023-11-29 12:33:06.152548
815  2023-11-29 12:33:06.185433
816  2023-11-29 12:33:06.216335
817  2023-11-29 12:33:06.249283
818  2023-11-29 12:33:06.281163
819  2023-11-29 12:33:06.313113
820  2023-11-29 12:33:06.345039
821  2023-11-29 12:33:06.376942
822  2023-11-29 12:33:06.408857
823  2023-11-29 12:33:06.440771
824  2023-11-29 12:33:06.472686
825  2023-11-29 12:33:06.520567
826  2023-11-29 12:33:06.552475
827  2023-11-29 12:33:06.584391
828  2023-11-29 12:33:06.616266
829  2023-11-29 12:33:06.648227
830  2023-11-29 12:33:06.681123
831  2023-11-29 12:33:06.713058
832  2023-11-29 12:33:06.744854
833  2023-11-29 12:33:06.776773
834  2023-11-29 12:33:06.808688
835  2023-11-29 12:33:06.840609
836  2023-11-29 12:33:06.872523
837  2023-11-29 12:33:06.920386
838  2023-11-29 12:33:06.952303
839  2023-11-29 12:33:06.984227
840  2023-11-29 12:33:07.017098
841  2023-11-29 12:33:07.049053
842  2023-11-29 12:33:07.080954
843  2023-11-29 12:33:07.112874
844  2023-11-29 12:33:07.144786
845  2023-11-29 12:33:07.176699
846  2023-11-29 12:33:07.208632
847  2023-11-29 12:33:07.240772
848  2023-11-29 12:33:07.272751
849  2023-11-29 12:33:07.320633
850  2023-11-29 12:33:07.352535
851  2023-11-29 12:33:07.384467
852  2023-11-29 12:33:07.416384
853  2023-11-29 12:33:07.449245
854  2023-11-29 12:33:07.480205
855  2023-11-29 12:33:07.513113
856  2023-11-29 12:33:07.545168
857  2023-11-29 12:33:07.577029
858  2023-11-29 12:33:07.608975
859  2023-11-29 12:33:07.640892
860  2023-11-29 12:33:07.672797
861  2023-11-29 12:33:07.720675
862  2023-11-29 12:33:07.752594
863  2023-11-29 12:33:07.784509
864  2023-11-29 12:33:07.816387
865  2023-11-29 12:33:07.848348
866  2023-11-29 12:33:07.880261
867  2023-11-29 12:33:07.913130
868  2023-11-29 12:33:07.945087
869  2023-11-29 12:33:07.976958
870  2023-11-29 12:33:08.008873
871  2023-11-29 12:33:08.040826
872  2023-11-29 12:33:08.072736
873  2023-11-29 12:33:08.120691
874  2023-11-29 12:33:08.152674
875  2023-11-29 12:33:08.184656
876  2023-11-29 12:33:08.216582
877  2023-11-29 12:33:08.248245
878  2023-11-29 12:33:08.280162
879  2023-11-29 12:33:08.313081
880  2023-11-29 12:33:08.344979
881  2023-11-29 12:33:08.376899
882  2023-11-29 12:33:08.408775
883  2023-11-29 12:33:08.440725
884  2023-11-29 12:33:08.472732
885  2023-11-29 12:33:08.520858
886  2023-11-29 12:33:08.552776
887  2023-11-29 12:33:08.584648
888  2023-11-29 12:33:08.616564
889  2023-11-29 12:33:08.648479
890  2023-11-29 12:33:08.680439
891  2023-11-29 12:33:08.712339
892  2023-11-29 12:33:08.745247
893  2023-11-29 12:33:08.777133
894  2023-11-29 12:33:08.809048
895  2023-11-29 12:33:08.840987
896  2023-11-29 12:33:08.872877
897  2023-11-29 12:33:08.920777
898  2023-11-29 12:33:08.952728
899  2023-11-29 12:33:08.984614
900  2023-11-29 12:33:09.016493
901  2023-11-29 12:33:09.048408
902  2023-11-29 12:33:09.081322
903  2023-11-29 12:33:09.113241
904  2023-11-29 12:33:09.144193
905  2023-11-29 12:33:09.177064
906  2023-11-29 12:33:09.209011
907  2023-11-29 12:33:09.240924
908  2023-11-29 12:33:09.272808
909  2023-11-29 12:33:09.320680
910  2023-11-29 12:33:09.352658
911  2023-11-29 12:33:09.384555
912  2023-11-29 12:33:09.416454
913  2023-11-29 12:33:09.448339
914  2023-11-29 12:33:09.480478
915  2023-11-29 12:33:09.512383
916  2023-11-29 12:33:09.544303
917  2023-11-29 12:33:09.576213
918  2023-11-29 12:33:09.609082
919  2023-11-29 12:33:09.640997
920  2023-11-29 12:33:09.672912
921  2023-11-29 12:33:09.720809
922  2023-11-29 12:33:09.752725
923  2023-11-29 12:33:09.784613
924  2023-11-29 12:33:09.816527
925  2023-11-29 12:33:09.848442
926  2023-11-29 12:33:09.880357
927  2023-11-29 12:33:09.913301
928  2023-11-29 12:33:09.945184
929  2023-11-29 12:33:09.977098
930  2023-11-29 12:33:10.009013
931  2023-11-29 12:33:10.040928
932  2023-11-29 12:33:10.072875
933  2023-11-29 12:33:10.120748
934  2023-11-29 12:33:10.152629
935  2023-11-29 12:33:10.184544
936  2023-11-29 12:33:10.216458
937  2023-11-29 12:33:10.249419
938  2023-11-29 12:33:10.280318
939  2023-11-29 12:33:10.312203
940  2023-11-29 12:33:10.345114
941  2023-11-29 12:33:10.376060
942  2023-11-29 12:33:10.408976
943  2023-11-29 12:33:10.440858
944  2023-11-29 12:33:10.472773
945  2023-11-29 12:33:10.520645
946  2023-11-29 12:33:10.552560
947  2023-11-29 12:33:10.584500
948  2023-11-29 12:33:10.616438
949  2023-11-29 12:33:10.648303
950  2023-11-29 12:33:10.680218
951  2023-11-29 12:33:10.713156
952  2023-11-29 12:33:10.745091
953  2023-11-29 12:33:10.776960
954  2023-11-29 12:33:10.808874
955  2023-11-29 12:33:10.840821
956  2023-11-29 12:33:10.872738
957  2023-11-29 12:33:10.920911
958  2023-11-29 12:33:10.952926
959  2023-11-29 12:33:10.984841
960  2023-11-29 12:33:11.016755
961  2023-11-29 12:33:11.048670
962  2023-11-29 12:33:11.080585
963  2023-11-29 12:33:11.112499
964  2023-11-29 12:33:11.144414
965  2023-11-29 12:33:11.176329
966  2023-11-29 12:33:11.208383
967  2023-11-29 12:33:11.240281
968  2023-11-29 12:33:11.273193
969  2023-11-29 12:33:11.320446
970  2023-11-29 12:33:11.352361
971  2023-11-29 12:33:11.384275
972  2023-11-29 12:33:11.417188
973  2023-11-29 12:33:11.449105
974  2023-11-29 12:33:11.481017
975  2023-11-29 12:33:11.512362
976  2023-11-29 12:33:11.544400
977  2023-11-29 12:33:11.576356
978  2023-11-29 12:33:11.608234
979  2023-11-29 12:33:11.640534
980  2023-11-29 12:33:11.672535
981  2023-11-29 12:33:11.720629
982  2023-11-29 12:33:11.752601
983  2023-11-29 12:33:11.784458
984  2023-11-29 12:33:11.816373
985  2023-11-29 12:33:11.848288
986  2023-11-29 12:33:11.880245
987  2023-11-29 12:33:11.912171
988  2023-11-29 12:33:11.945029
989  2023-11-29 12:33:11.976944
990  2023-11-29 12:33:12.008918
991  2023-11-29 12:33:12.040853
992  2023-11-29 12:33:12.072712
993  2023-11-29 12:33:12.120622
994  2023-11-29 12:33:12.153138
995  2023-11-29 12:33:12.185042
996  2023-11-29 12:33:12.216957
997  2023-11-29 12:33:12.248872
998  2023-11-29 12:33:12.280786
999  2023-11-29 12:33:12.312701
1000  2023-11-29 12:33:12.344632
1001  2023-11-29 12:33:12.376531
1002  2023-11-29 12:33:12.408582
1003  2023-11-29 12:33:12.440497
1004  2023-11-29 12:33:12.472412
1005  2023-11-29 12:33:12.520221
1006  2023-11-29 12:33:12.552173
1007  2023-11-29 12:33:12.585085
1008  2023-11-29 12:33:12.617000
1009  2023-11-29 12:33:12.648915
1010  2023-11-29 12:33:12.680829
1011  2023-11-29 12:33:12.712870
1012  2023-11-29 12:33:12.744785
1013  2023-11-29 12:33:12.776699
1014  2023-11-29 12:33:12.808614
1015  2023-11-29 12:33:12.840529
1016  2023-11-29 12:33:12.872443
1017  2023-11-29 12:33:12.920316
1018  2023-11-29 12:33:12.953240
1019  2023-11-29 12:33:12.985154
1020  2023-11-29 12:33:13.017068
1021  2023-11-29 12:33:13.048983
1022  2023-11-29 12:33:13.080898
1023  2023-11-29 12:33:13.112813
1024  2023-11-29 12:33:13.144327
1025  2023-11-29 12:33:13.176242
1026  2023-11-29 12:33:13.209154
1027  2023-11-29 12:33:13.240850
1028  2023-11-29 12:33:13.272764
1029  2023-11-29 12:33:13.320636
1030  2023-11-29 12:33:13.352550
1031  2023-11-29 12:33:13.384465
1032  2023-11-29 12:33:13.417132
1033  2023-11-29 12:33:13.449048
1034  2023-11-29 12:33:13.481039
1035  2023-11-29 12:33:13.512364
1036  2023-11-29 12:33:13.544409
1037  2023-11-29 12:33:13.576404
1038  2023-11-29 12:33:13.609274
1039  2023-11-29 12:33:13.640191
1040  2023-11-29 12:33:13.673113
1041  2023-11-29 12:33:13.720975
1042  2023-11-29 12:33:13.753052
1043  2023-11-29 12:33:13.785074
1044  2023-11-29 12:33:13.816976
1045  2023-11-29 12:33:13.848890
1046  2023-11-29 12:33:13.880805
1047  2023-11-29 12:33:13.912614
1048  2023-11-29 12:33:13.944516
1049  2023-11-29 12:33:13.976781
1050  2023-11-29 12:33:14.008696
1051  2023-11-29 12:33:14.040610
1052  2023-11-29 12:33:14.072525
1053  2023-11-29 12:33:14.120493
1054  2023-11-29 12:33:14.152408
1055  2023-11-29 12:33:14.184326
1056  2023-11-29 12:33:14.216237
1057  2023-11-29 12:33:14.248152
1058  2023-11-29 12:33:14.281064
1059  2023-11-29 12:33:14.312979
1060  2023-11-29 12:33:14.344893
1061  2023-11-29 12:33:14.376808
1062  2023-11-29 12:33:14.408894
1063  2023-11-29 12:33:14.440808
1064  2023-11-29 12:33:14.472245
1065  2023-11-29 12:33:14.521086
1066  2023-11-29 12:33:14.553142
1067  2023-11-29 12:33:14.584331
1068  2023-11-29 12:33:14.616253
1069  2023-11-29 12:33:14.649122
1070  2023-11-29 12:33:14.681037
1071  2023-11-29 12:33:14.712982
1072  2023-11-29 12:33:14.744942
1073  2023-11-29 12:33:14.776827
1074  2023-11-29 12:33:14.809058
1075  2023-11-29 12:33:14.841004
1076  2023-11-29 12:33:14.872887
1077  2023-11-29 12:33:14.920798
1078  2023-11-29 12:33:14.952705
1079  2023-11-29 12:33:14.984776
1080  2023-11-29 12:33:15.016696
1081  2023-11-29 12:33:15.048662
1082  2023-11-29 12:33:15.080653
1083  2023-11-29 12:33:15.112688
1084  2023-11-29 12:33:15.144603
1085  2023-11-29 12:33:15.176517
1086  2023-11-29 12:33:15.208414
1087  2023-11-29 12:33:15.240294
1088  2023-11-29 12:33:15.272208
1089  2023-11-29 12:33:15.321078
1090  2023-11-29 12:33:15.352992
1091  2023-11-29 12:33:15.384907
1092  2023-11-29 12:33:15.416822
1093  2023-11-29 12:33:15.448736
1094  2023-11-29 12:33:15.480785
1095  2023-11-29 12:33:15.512699
1096  2023-11-29 12:33:15.544614
1097  2023-11-29 12:33:15.576529
1098  2023-11-29 12:33:15.608443
1099  2023-11-29 12:33:15.640358
1100  2023-11-29 12:33:15.672273
1101  2023-11-29 12:33:15.720145
1102  2023-11-29 12:33:15.753057
1103  2023-11-29 12:33:15.784971
1104  2023-11-29 12:33:15.816702
1105  2023-11-29 12:33:15.848777
1106  2023-11-29 12:33:15.880692
1107  2023-11-29 12:33:15.912610
1108  2023-11-29 12:33:15.944521
1109  2023-11-29 12:33:15.976436
1110  2023-11-29 12:33:16.008351
1111  2023-11-29 12:33:16.040306
1112  2023-11-29 12:33:16.073191
1113  2023-11-29 12:33:16.120054
1114  2023-11-29 12:33:16.152966
1115  2023-11-29 12:33:16.184879
1116  2023-11-29 12:33:16.216793
1117  2023-11-29 12:33:16.248708
1118  2023-11-29 12:33:16.280623
1119  2023-11-29 12:33:16.312541
1120  2023-11-29 12:33:16.344436
1121  2023-11-29 12:33:16.376351
1122  2023-11-29 12:33:16.408265
1123  2023-11-29 12:33:16.441177
1124  2023-11-29 12:33:16.473092
1125  2023-11-29 12:33:16.505007
1126  2023-11-29 12:33:16.552986
1127  2023-11-29 12:33:16.584873
1128  2023-11-29 12:33:16.616788
1129  2023-11-29 12:33:16.648702
1130  2023-11-29 12:33:16.680626
1131  2023-11-29 12:33:16.712682
1132  2023-11-29 12:33:16.745160
1133  2023-11-29 12:33:16.777040
1134  2023-11-29 12:33:16.808954
1135  2023-11-29 12:33:16.840869
1136  2023-11-29 12:33:16.872814
1137  2023-11-29 12:33:16.904806
1138  2023-11-29 12:33:16.952906
1139  2023-11-29 12:33:16.984821
1140  2023-11-29 12:33:17.016735
1141  2023-11-29 12:33:17.048650
1142  2023-11-29 12:33:17.080565
1143  2023-11-29 12:33:17.112479
1144  2023-11-29 12:33:17.144395
1145  2023-11-29 12:33:17.176309
1146  2023-11-29 12:33:17.208223
1147  2023-11-29 12:33:17.241135
1148  2023-11-29 12:33:17.273066
1149  2023-11-29 12:33:17.304965
1150  2023-11-29 12:33:17.352837
1151  2023-11-29 12:33:17.384866
1152  2023-11-29 12:33:17.416781
1153  2023-11-29 12:33:17.448695
1154  2023-11-29 12:33:17.480615
1155  2023-11-29 12:33:17.512525
1156  2023-11-29 12:33:17.544439
1157  2023-11-29 12:33:17.576354
1158  2023-11-29 12:33:17.608269
1159  2023-11-29 12:33:17.641181
1160  2023-11-29 12:33:17.673096
1161  2023-11-29 12:33:17.705041
1162  2023-11-29 12:33:17.752882
1163  2023-11-29 12:33:17.784797
1164  2023-11-29 12:33:17.816712
1165  2023-11-29 12:33:17.848626
1166  2023-11-29 12:33:17.880541
1167  2023-11-29 12:33:17.912456
1168  2023-11-29 12:33:17.945368
1169  2023-11-29 12:33:17.976285
1170  2023-11-29 12:33:18.008224
1171  2023-11-29 12:33:18.041287
1172  2023-11-29 12:33:18.072241
1173  2023-11-29 12:33:18.105117
1174  2023-11-29 12:33:18.152989
1175  2023-11-29 12:33:18.184904
1176  2023-11-29 12:33:18.216846
1177  2023-11-29 12:33:18.248768
1178  2023-11-29 12:33:18.280648
1179  2023-11-29 12:33:18.312562
1180  2023-11-29 12:33:18.344477
1181  2023-11-29 12:33:18.376436
1182  2023-11-29 12:33:18.408339
1183  2023-11-29 12:33:18.440221
1184  2023-11-29 12:33:18.473135
1185  2023-11-29 12:33:18.505080
1186  2023-11-29 12:33:18.552920
1187  2023-11-29 12:33:18.584943
1188  2023-11-29 12:33:18.616864
1189  2023-11-29 12:33:18.648779
1190  2023-11-29 12:33:18.680506
1191  2023-11-29 12:33:18.712451
1192  2023-11-29 12:33:18.744337
1193  2023-11-29 12:33:18.776280
1194  2023-11-29 12:33:18.808245
1195  2023-11-29 12:33:18.840270
1196  2023-11-29 12:33:18.872186
1197  2023-11-29 12:33:18.905098
1198  2023-11-29 12:33:18.953056
1199  2023-11-29 12:33:18.984970
1200  2023-11-29 12:33:19.016885
1201  2023-11-29 12:33:19.048800
1202  2023-11-29 12:33:19.080715
1203  2023-11-29 12:33:19.112629
1204  2023-11-29 12:33:19.144544
1205  2023-11-29 12:33:19.176474
1206  2023-11-29 12:33:19.208373
1207  2023-11-29 12:33:19.240288
1208  2023-11-29 12:33:19.273203
1209  2023-11-29 12:33:19.304118
1210  2023-11-29 12:33:19.352987
1211  2023-11-29 12:33:19.384901
1212  2023-11-29 12:33:19.416857
1213  2023-11-29 12:33:19.448731
1214  2023-11-29 12:33:19.480698
1215  2023-11-29 12:33:19.512669
1216  2023-11-29 12:33:19.544673
1217  2023-11-29 12:33:19.576629
1218  2023-11-29 12:33:19.608501
1219  2023-11-29 12:33:19.640490
1220  2023-11-29 12:33:19.672399
1221  2023-11-29 12:33:19.704621
1222  2023-11-29 12:33:19.752561
1223  2023-11-29 12:33:19.784840
1224  2023-11-29 12:33:19.816757
1225  2023-11-29 12:33:19.848671
1226  2023-11-29 12:33:19.880918
1227  2023-11-29 12:33:19.912935
1228  2023-11-29 12:33:19.944814
1229  2023-11-29 12:33:19.976729
1230  2023-11-29 12:33:20.008644
1231  2023-11-29 12:33:20.040598
1232  2023-11-29 12:33:20.072485
1233  2023-11-29 12:33:20.104388
1234  2023-11-29 12:33:20.152260
1235  2023-11-29 12:33:20.185172
1236  2023-11-29 12:33:20.217094
1237  2023-11-29 12:33:20.249002
1238  2023-11-29 12:33:20.280928
1239  2023-11-29 12:33:20.312831
1240  2023-11-29 12:33:20.344745
1241  2023-11-29 12:33:20.376661
1242  2023-11-29 12:33:20.408577
1243  2023-11-29 12:33:20.441514
1244  2023-11-29 12:33:20.473403
1245  2023-11-29 12:33:20.505317
1246  2023-11-29 12:33:20.553188
1247  2023-11-29 12:33:20.585117
1248  2023-11-29 12:33:20.617018
1249  2023-11-29 12:33:20.648965
1250  2023-11-29 12:33:20.680847
1251  2023-11-29 12:33:20.713566
1252  2023-11-29 12:33:20.745471
1253  2023-11-29 12:33:20.777355
1254  2023-11-29 12:33:20.809271
1255  2023-11-29 12:33:20.841220
1256  2023-11-29 12:33:20.873075
1257  2023-11-29 12:33:20.905079
1258  2023-11-29 12:33:20.952995
1259  2023-11-29 12:33:20.984874
1260  2023-11-29 12:33:21.016780
1261  2023-11-29 12:33:21.048724
1262  2023-11-29 12:33:21.080609
1263  2023-11-29 12:33:21.113196
1264  2023-11-29 12:33:21.145115
1265  2023-11-29 12:33:21.176466
1266  2023-11-29 12:33:21.208381
1267  2023-11-29 12:33:21.240296
1268  2023-11-29 12:33:21.272210
1269  2023-11-29 12:33:21.305162
1270  2023-11-29 12:33:21.353043
1271  2023-11-29 12:33:21.384944
1272  2023-11-29 12:33:21.416859
1273  2023-11-29 12:33:21.448773
1274  2023-11-29 12:33:21.480816
1275  2023-11-29 12:33:21.512613
1276  2023-11-29 12:33:21.544482
1277  2023-11-29 12:33:21.577396
1278  2023-11-29 12:33:21.608313
1279  2023-11-29 12:33:21.640403
1280  2023-11-29 12:33:21.672316
1281  2023-11-29 12:33:21.704799
1282  2023-11-29 12:33:21.752303
1283  2023-11-29 12:33:21.784312
1284  2023-11-29 12:33:21.817170
1285  2023-11-29 12:33:21.849085
1286  2023-11-29 12:33:21.881032
1287  2023-11-29 12:33:21.912964
1288  2023-11-29 12:33:21.944831
1289  2023-11-29 12:33:21.976745
1290  2023-11-29 12:33:22.009688
1291  2023-11-29 12:33:22.040618
1292  2023-11-29 12:33:22.072511
1293  2023-11-29 12:33:22.105431
1294  2023-11-29 12:33:22.152309
1295  2023-11-29 12:33:22.184189
1296  2023-11-29 12:33:22.217142
1297  2023-11-29 12:33:22.249058
1298  2023-11-29 12:33:22.280931
1299  2023-11-29 12:33:22.312845
1300  2023-11-29 12:33:22.344761
1301  2023-11-29 12:33:22.377705
1302  2023-11-29 12:33:22.408589
1303  2023-11-29 12:33:22.440504
1304  2023-11-29 12:33:22.472419
1305  2023-11-29 12:33:22.505363
1306  2023-11-29 12:33:22.553204
1307  2023-11-29 12:33:22.585150
1308  2023-11-29 12:33:22.617076
1309  2023-11-29 12:33:22.648983
1310  2023-11-29 12:33:22.680893
1311  2023-11-29 12:33:22.712921
1312  2023-11-29 12:33:22.744928
1313  2023-11-29 12:33:22.776842
1314  2023-11-29 12:33:22.808757
1315  2023-11-29 12:33:22.840789
1316  2023-11-29 12:33:22.872706
1317  2023-11-29 12:33:22.904627
1318  2023-11-29 12:33:22.952460
1319  2023-11-29 12:33:22.984375
1320  2023-11-29 12:33:23.017314
1321  2023-11-29 12:33:23.048242
1322  2023-11-29 12:33:23.080119
1323  2023-11-29 12:33:23.113078
1324  2023-11-29 12:33:23.144984
1325  2023-11-29 12:33:23.176892
1326  2023-11-29 12:33:23.208808
1327  2023-11-29 12:33:23.240689
1328  2023-11-29 12:33:23.272642
1329  2023-11-29 12:33:23.304550
1330  2023-11-29 12:33:23.352924
1331  2023-11-29 12:33:23.384847
1332  2023-11-29 12:33:23.416757
1333  2023-11-29 12:33:23.448671
1334  2023-11-29 12:33:23.480583
1335  2023-11-29 12:33:23.512466
1336  2023-11-29 12:33:23.544414
1337  2023-11-29 12:33:23.576326
1338  2023-11-29 12:33:23.608244
1339  2023-11-29 12:33:23.640169
1340  2023-11-29 12:33:23.673069
1341  2023-11-29 12:33:23.704993
1342  2023-11-29 12:33:23.752857
1343  2023-11-29 12:33:23.784771
1344  2023-11-29 12:33:23.816686
1345  2023-11-29 12:33:23.848620
1346  2023-11-29 12:33:23.880515
1347  2023-11-29 12:33:23.912401
1348  2023-11-29 12:33:23.944345
1349  2023-11-29 12:33:23.976267
1350  2023-11-29 12:33:24.009169
1351  2023-11-29 12:33:24.041087
1352  2023-11-29 12:33:24.073015
1353  2023-11-29 12:33:24.104913
1354  2023-11-29 12:33:24.152756
1355  2023-11-29 12:33:24.184699
1356  2023-11-29 12:33:24.216632
1357  2023-11-29 12:33:24.248554
1358  2023-11-29 12:33:24.280443
1359  2023-11-29 12:33:24.312329
1360  2023-11-29 12:33:24.344275
1361  2023-11-29 12:33:24.377156
1362  2023-11-29 12:33:24.409100
1363  2023-11-29 12:33:24.441014
1364  2023-11-29 12:33:24.472923
1365  2023-11-29 12:33:24.504846
1366  2023-11-29 12:33:24.552717
1367  2023-11-29 12:33:24.584636
1368  2023-11-29 12:33:24.616515
1369  2023-11-29 12:33:24.648461
1370  2023-11-29 12:33:24.680376
1371  2023-11-29 12:33:24.712338
1372  2023-11-29 12:33:24.744351
1373  2023-11-29 12:33:24.776270
1374  2023-11-29 12:33:24.808181
1375  2023-11-29 12:33:24.841090
1376  2023-11-29 12:33:24.873006
1377  2023-11-29 12:33:24.904925
1378  2023-11-29 12:33:24.952821
1379  2023-11-29 12:33:24.984717
1380  2023-11-29 12:33:25.016632
1381  2023-11-29 12:33:25.048537
1382  2023-11-29 12:33:25.080457
1383  2023-11-29 12:33:25.112335
1384  2023-11-29 12:33:25.144282
1385  2023-11-29 12:33:25.176200
1386  2023-11-29 12:33:25.209077
1387  2023-11-29 12:33:25.241025
1388  2023-11-29 12:33:25.272939
1389  2023-11-29 12:33:25.304855
1390  2023-11-29 12:33:25.352692
1391  2023-11-29 12:33:25.384607
1392  2023-11-29 12:33:25.416560
1393  2023-11-29 12:33:25.448470
1394  2023-11-29 12:33:25.480386
1395  2023-11-29 12:33:25.512266
1396  2023-11-29 12:33:25.544214
1397  2023-11-29 12:33:25.577123
1398  2023-11-29 12:33:25.609037
1399  2023-11-29 12:33:25.640952
1400  2023-11-29 12:33:25.672889
1401  2023-11-29 12:33:25.704784
1402  2023-11-29 12:33:25.752623
1403  2023-11-29 12:33:25.784538
1404  2023-11-29 12:33:25.816507
1405  2023-11-29 12:33:25.848368
1406  2023-11-29 12:33:25.880316
1407  2023-11-29 12:33:25.913197
1408  2023-11-29 12:33:25.945109
1409  2023-11-29 12:33:25.977056
1410  2023-11-29 12:33:26.008971
1411  2023-11-29 12:33:26.040883
1412  2023-11-29 12:33:26.072806
1413  2023-11-29 12:33:26.104716
1414  2023-11-29 12:33:26.152588
1415  2023-11-29 12:33:26.184469
1416  2023-11-29 12:33:26.216433
1417  2023-11-29 12:33:26.249342
1418  2023-11-29 12:33:26.281211
1419  2023-11-29 12:33:26.312127
1420  2023-11-29 12:33:26.345219
1421  2023-11-29 12:33:26.377071
1422  2023-11-29 12:33:26.409020
1423  2023-11-29 12:33:26.440931
1424  2023-11-29 12:33:26.472862
1425  2023-11-29 12:33:26.504764
1426  2023-11-29 12:33:26.552642
1427  2023-11-29 12:33:26.584557
1428  2023-11-29 12:33:26.616476
1429  2023-11-29 12:33:26.648385
1430  2023-11-29 12:33:26.680293
1431  2023-11-29 12:33:26.712208
1432  2023-11-29 12:33:26.745122
1433  2023-11-29 12:33:26.777034
1434  2023-11-29 12:33:26.808953
1435  2023-11-29 12:33:26.840866
1436  2023-11-29 12:33:26.872783
1437  2023-11-29 12:33:26.904694
1438  2023-11-29 12:33:26.952532
1439  2023-11-29 12:33:26.984447
1440  2023-11-29 12:33:27.016405
1441  2023-11-29 12:33:27.048410
1442  2023-11-29 12:33:27.080320
1443  2023-11-29 12:33:27.112232
1444  2023-11-29 12:33:27.145112
1445  2023-11-29 12:33:27.177058
1446  2023-11-29 12:33:27.208984
1447  2023-11-29 12:33:27.240891
1448  2023-11-29 12:33:27.272803
1449  2023-11-29 12:33:27.304719
1450  2023-11-29 12:33:27.352559
1451  2023-11-29 12:33:27.384475
1452  2023-11-29 12:33:27.416420
1453  2023-11-29 12:33:27.449331
1454  2023-11-29 12:33:27.480260
1455  2023-11-29 12:33:27.512317
1456  2023-11-29 12:33:27.544179
1457  2023-11-29 12:33:27.577092
1458  2023-11-29 12:33:27.609047
1459  2023-11-29 12:33:27.640955
1460  2023-11-29 12:33:27.672892
1461  2023-11-29 12:33:27.704886
1462  2023-11-29 12:33:27.752777
1463  2023-11-29 12:33:27.784673
1464  2023-11-29 12:33:27.816554
1465  2023-11-29 12:33:27.848259
1466  2023-11-29 12:33:27.880142
1467  2023-11-29 12:33:27.913144
1468  2023-11-29 12:33:27.945022
1469  2023-11-29 12:33:27.976936
1470  2023-11-29 12:33:28.008882
1471  2023-11-29 12:33:28.040766
1472  2023-11-29 12:33:28.072681
1473  2023-11-29 12:33:28.104639
1474  2023-11-29 12:33:28.152501
1475  2023-11-29 12:33:28.184382
1476  2023-11-29 12:33:28.216296
1477  2023-11-29 12:33:28.248242
1478  2023-11-29 12:33:28.280165
1479  2023-11-29 12:33:28.313072
1480  2023-11-29 12:33:28.344986
1481  2023-11-29 12:33:28.376905
1482  2023-11-29 12:33:28.408826
1483  2023-11-29 12:33:28.440800
1484  2023-11-29 12:33:28.472727
1485  2023-11-29 12:33:28.504637
1486  2023-11-29 12:33:28.552510
1487  2023-11-29 12:33:28.584418
1488  2023-11-29 12:33:28.616303
1489  2023-11-29 12:33:28.648257
1490  2023-11-29 12:33:28.680166
1491  2023-11-29 12:33:28.713096
1492  2023-11-29 12:33:28.744959
1493  2023-11-29 12:33:28.776905
1494  2023-11-29 12:33:28.808831
1495  2023-11-29 12:33:28.840736
1496  2023-11-29 12:33:28.872659
1497  2023-11-29 12:33:28.904583
1498  2023-11-29 12:33:28.952437
1499  2023-11-29 12:33:28.984353
1500  2023-11-29 12:33:29.016234
1501  2023-11-29 12:33:29.049208
1502  2023-11-29 12:33:29.081061
1503  2023-11-29 12:33:29.113009
1504  2023-11-29 12:33:29.144890
1505  2023-11-29 12:33:29.176805
1506  2023-11-29 12:33:29.208754
1507  2023-11-29 12:33:29.240754
1508  2023-11-29 12:33:29.272752
1509  2023-11-29 12:33:29.304673
1510  2023-11-29 12:33:29.352552
1511  2023-11-29 12:33:29.384480
1512  2023-11-29 12:33:29.416489
1513  2023-11-29 12:33:29.448348
1514  2023-11-29 12:33:29.480412
1515  2023-11-29 12:33:29.512326
1516  2023-11-29 12:33:29.544241
1517  2023-11-29 12:33:29.577144
1518  2023-11-29 12:33:29.609058
1519  2023-11-29 12:33:29.640967
1520  2023-11-29 12:33:29.672881
1521  2023-11-29 12:33:29.704807
1522  2023-11-29 12:33:29.752684
1523  2023-11-29 12:33:29.784597
1524  2023-11-29 12:33:29.816509
1525  2023-11-29 12:33:29.848430
1526  2023-11-29 12:33:29.880343
1527  2023-11-29 12:33:29.912263
1528  2023-11-29 12:33:29.944131
1529  2023-11-29 12:33:29.977044
1530  2023-11-29 12:33:30.008996
1531  2023-11-29 12:33:30.040909
1532  2023-11-29 12:33:30.072819
1533  2023-11-29 12:33:30.104754
1534  2023-11-29 12:33:30.152602
1535  2023-11-29 12:33:30.184521
1536  2023-11-29 12:33:30.216442
1537  2023-11-29 12:33:30.248365
1538  2023-11-29 12:33:30.280266
1539  2023-11-29 12:33:30.312183
1540  2023-11-29 12:33:30.345099
1541  2023-11-29 12:33:30.377005
1542  2023-11-29 12:33:30.408895
1543  2023-11-29 12:33:30.440833
1544  2023-11-29 12:33:30.472749
1545  2023-11-29 12:33:30.504634
1546  2023-11-29 12:33:30.552546
1547  2023-11-29 12:33:30.584458
1548  2023-11-29 12:33:30.616369
1549  2023-11-29 12:33:30.648248
1550  2023-11-29 12:33:30.680206
1551  2023-11-29 12:33:30.713119
1552  2023-11-29 12:33:30.745028
1553  2023-11-29 12:33:30.776905
1554  2023-11-29 12:33:30.808819
1555  2023-11-29 12:33:30.840766
1556  2023-11-29 12:33:30.872685
1557  2023-11-29 12:33:30.904602
1558  2023-11-29 12:33:30.952469
1559  2023-11-29 12:33:30.984385
1560  2023-11-29 12:33:31.016266
1561  2023-11-29 12:33:31.048213
1562  2023-11-29 12:33:31.081129
1563  2023-11-29 12:33:31.113039
1564  2023-11-29 12:33:31.144954
1565  2023-11-29 12:33:31.176835
1566  2023-11-29 12:33:31.208751
1567  2023-11-29 12:33:31.240712
1568  2023-11-29 12:33:31.272608
1569  2023-11-29 12:33:31.304532
1570  2023-11-29 12:33:31.352399
1571  2023-11-29 12:33:31.384316
1572  2023-11-29 12:33:31.416232
1573  2023-11-29 12:33:31.448153
1574  2023-11-29 12:33:31.481053
1575  2023-11-29 12:33:31.512178
1576  2023-11-29 12:33:31.545095
1577  2023-11-29 12:33:31.576965
1578  2023-11-29 12:33:31.608878
1579  2023-11-29 12:33:31.640825
1580  2023-11-29 12:33:31.672745
1581  2023-11-29 12:33:31.704665
1582  2023-11-29 12:33:31.752533
1583  2023-11-29 12:33:31.784451
1584  2023-11-29 12:33:31.816324
1585  2023-11-29 12:33:31.848313
1586  2023-11-29 12:33:31.880269
1587  2023-11-29 12:33:31.912185
1588  2023-11-29 12:33:31.945096
1589  2023-11-29 12:33:31.976970
1590  2023-11-29 12:33:32.008922
1591  2023-11-29 12:33:32.040835
1592  2023-11-29 12:33:32.072863
1593  2023-11-29 12:33:32.104746
1594  2023-11-29 12:33:32.152658
1595  2023-11-29 12:33:32.184570
1596  2023-11-29 12:33:32.216446
1597  2023-11-29 12:33:32.248361
1598  2023-11-29 12:33:32.280315
1599  2023-11-29 12:33:32.312238
1600  2023-11-29 12:33:32.344150
1601  2023-11-29 12:33:32.377016
1602  2023-11-29 12:33:32.408931
1603  2023-11-29 12:33:32.440880
1604  2023-11-29 12:33:32.472792
1605  2023-11-29 12:33:32.504706
1606  2023-11-29 12:33:32.552547
1607  2023-11-29 12:33:32.584515
1608  2023-11-29 12:33:32.616377
1609  2023-11-29 12:33:32.648293
1610  2023-11-29 12:33:32.680241
1611  2023-11-29 12:33:32.713118
1612  2023-11-29 12:33:32.745066
1613  2023-11-29 12:33:32.776947
1614  2023-11-29 12:33:32.808862
1615  2023-11-29 12:33:32.840777
1616  2023-11-29 12:33:32.872726
1617  2023-11-29 12:33:32.904644
1618  2023-11-29 12:33:32.952509
1619  2023-11-29 12:33:32.984393
1620  2023-11-29 12:33:33.016341
1621  2023-11-29 12:33:33.048222
1622  2023-11-29 12:33:33.081135
1623  2023-11-29 12:33:33.113050
1624  2023-11-29 12:33:33.144964
1625  2023-11-29 12:33:33.176566
1626  2023-11-29 12:33:33.208477
1627  2023-11-29 12:33:33.240392
1628  2023-11-29 12:33:33.272528
1629  2023-11-29 12:33:33.304479
1630  2023-11-29 12:33:33.352353
1631  2023-11-29 12:33:33.384267
1632  2023-11-29 12:33:33.416221
1633  2023-11-29 12:33:33.449129
1634  2023-11-29 12:33:33.481009
1635  2023-11-29 12:33:33.512923
1636  2023-11-29 12:33:33.544312
1637  2023-11-29 12:33:33.576271
1638  2023-11-29 12:33:33.609129
1639  2023-11-29 12:33:33.641044
1640  2023-11-29 12:33:33.672994
1641  2023-11-29 12:33:33.704908
1642  2023-11-29 12:33:33.752745
1643  2023-11-29 12:33:33.784660
1644  2023-11-29 12:33:33.816575
1645  2023-11-29 12:33:33.848489
1646  2023-11-29 12:33:33.880404
1647  2023-11-29 12:33:33.912319
1648  2023-11-29 12:33:33.944230
1649  2023-11-29 12:33:33.977142
1650  2023-11-29 12:33:34.009057
1651  2023-11-29 12:33:34.040971
1652  2023-11-29 12:33:34.072886
1653  2023-11-29 12:33:34.104923
1654  2023-11-29 12:33:34.152795
1655  2023-11-29 12:33:34.184710
1656  2023-11-29 12:33:34.216624
1657  2023-11-29 12:33:34.248546
1658  2023-11-29 12:33:34.281452
1659  2023-11-29 12:33:34.312368
1660  2023-11-29 12:33:34.345280
1661  2023-11-29 12:33:34.377170
1662  2023-11-29 12:33:34.409025
1663  2023-11-29 12:33:34.440981
1664  2023-11-29 12:33:34.472922
1665  2023-11-29 12:33:34.504813
1666  2023-11-29 12:33:34.552732
1667  2023-11-29 12:33:34.584637
1668  2023-11-29 12:33:34.616581
1669  2023-11-29 12:33:34.648466
1670  2023-11-29 12:33:34.680381
1671  2023-11-29 12:33:34.712296
1672  2023-11-29 12:33:34.745222
1673  2023-11-29 12:33:34.777122
1674  2023-11-29 12:33:34.809037
1675  2023-11-29 12:33:34.840952
1676  2023-11-29 12:33:34.872902
1677  2023-11-29 12:33:34.904783
1678  2023-11-29 12:33:34.952688
1679  2023-11-29 12:33:34.984569
1680  2023-11-29 12:33:35.016484
1681  2023-11-29 12:33:35.048398
1682  2023-11-29 12:33:35.080360
1683  2023-11-29 12:33:35.112228
1684  2023-11-29 12:33:35.145140
1685  2023-11-29 12:33:35.177055
1686  2023-11-29 12:33:35.209004
1687  2023-11-29 12:33:35.240884
1688  2023-11-29 12:33:35.272799
1689  2023-11-29 12:33:35.304713
1690  2023-11-29 12:33:35.352585
1691  2023-11-29 12:33:35.384536
1692  2023-11-29 12:33:35.416415
1693  2023-11-29 12:33:35.448329
1694  2023-11-29 12:33:35.480244
1695  2023-11-29 12:33:35.512323
1696  2023-11-29 12:33:35.544238
1697  2023-11-29 12:33:35.577150
1698  2023-11-29 12:33:35.609240
1699  2023-11-29 12:33:35.640158
1700  2023-11-29 12:33:35.673124
1701  2023-11-29 12:33:35.705019
1702  2023-11-29 12:33:35.752836
1703  2023-11-29 12:33:35.784948
1704  2023-11-29 12:33:35.816863
1705  2023-11-29 12:33:35.848778
1706  2023-11-29 12:33:35.880692
1707  2023-11-29 12:33:35.913606
1708  2023-11-29 12:33:35.944522
1709  2023-11-29 12:33:35.976437
1710  2023-11-29 12:33:36.008389
1711  2023-11-29 12:33:36.041307
1712  2023-11-29 12:33:36.073178
1713  2023-11-29 12:33:36.104296
1714  2023-11-29 12:33:36.153164
1715  2023-11-29 12:33:36.185079
1716  2023-11-29 12:33:36.216994
1717  2023-11-29 12:33:36.248943
1718  2023-11-29 12:33:36.280823
1719  2023-11-29 12:33:36.312738
1720  2023-11-29 12:33:36.344652
1721  2023-11-29 12:33:36.376603
1722  2023-11-29 12:33:36.408483
1723  2023-11-29 12:33:36.440397
1724  2023-11-29 12:33:36.472311
1725  2023-11-29 12:33:36.504278
1726  2023-11-29 12:33:36.552162
1727  2023-11-29 12:33:36.585035
1728  2023-11-29 12:33:36.617046
1729  2023-11-29 12:33:36.648961
1730  2023-11-29 12:33:36.680876
1731  2023-11-29 12:33:36.712791
1732  2023-11-29 12:33:36.744705
1733  2023-11-29 12:33:36.776620
1734  2023-11-29 12:33:36.809047
1735  2023-11-29 12:33:36.840962
1736  2023-11-29 12:33:36.872979
1737  2023-11-29 12:33:36.904904
1738  2023-11-29 12:33:36.952776
1739  2023-11-29 12:33:36.984690
1740  2023-11-29 12:33:37.016606
1741  2023-11-29 12:33:37.048520
1742  2023-11-29 12:33:37.080561
1743  2023-11-29 12:33:37.112461
1744  2023-11-29 12:33:37.144376
1745  2023-11-29 12:33:37.176708
1746  2023-11-29 12:33:37.208701
1747  2023-11-29 12:33:37.240681
1748  2023-11-29 12:33:37.272663
1749  2023-11-29 12:33:37.304668
1750  2023-11-29 12:33:37.352562
1751  2023-11-29 12:33:37.384944
1752  2023-11-29 12:33:37.416898
1753  2023-11-29 12:33:37.448811
1754  2023-11-29 12:33:37.480726
1755  2023-11-29 12:33:37.512640
1756  2023-11-29 12:33:37.544635
1757  2023-11-29 12:33:37.576597
1758  2023-11-29 12:33:37.608558
1759  2023-11-29 12:33:37.640472
1760  2023-11-29 12:33:37.672387
1761  2023-11-29 12:33:37.704334
1762  2023-11-29 12:33:37.752211
1763  2023-11-29 12:33:37.785118
1764  2023-11-29 12:33:37.817000
1765  2023-11-29 12:33:37.848915
1766  2023-11-29 12:33:37.880895
1767  2023-11-29 12:33:37.912877
1768  2023-11-29 12:33:37.944759
1769  2023-11-29 12:33:37.976673
1770  2023-11-29 12:33:38.008589
1771  2023-11-29 12:33:38.040509
1772  2023-11-29 12:33:38.072417
1773  2023-11-29 12:33:38.104332
1774  2023-11-29 12:33:38.152213
1775  2023-11-29 12:33:38.185116
1776  2023-11-29 12:33:38.217133
1777  2023-11-29 12:33:38.249121
1778  2023-11-29 12:33:38.280995
1779  2023-11-29 12:33:38.312466
1780  2023-11-29 12:33:38.344381
1781  2023-11-29 12:33:38.376337
1782  2023-11-29 12:33:38.409086
1783  2023-11-29 12:33:38.441000
1784  2023-11-29 12:33:38.472915
1785  2023-11-29 12:33:38.504830
1786  2023-11-29 12:33:38.552702
1787  2023-11-29 12:33:38.584621
1788  2023-11-29 12:33:38.616531
1789  2023-11-29 12:33:38.648446
1790  2023-11-29 12:33:38.680360
1791  2023-11-29 12:33:38.712431
1792  2023-11-29 12:33:38.744346
1793  2023-11-29 12:33:38.776261
1794  2023-11-29 12:33:38.808175
1795  2023-11-29 12:33:38.841087
1796  2023-11-29 12:33:38.873002
1797  2023-11-29 12:33:38.904917
1798  2023-11-29 12:33:38.952789
1799  2023-11-29 12:33:38.984825
1800  2023-11-29 12:33:39.016779
1801  2023-11-29 12:33:39.048649
1802  2023-11-29 12:33:39.080564
1803  2023-11-29 12:33:39.113476
1804  2023-11-29 12:33:39.144394
1805  2023-11-29 12:33:39.176308
1806  2023-11-29 12:33:39.208983
1807  2023-11-29 12:33:39.240897
1808  2023-11-29 12:33:39.272898
1809  2023-11-29 12:33:39.304813
1810  2023-11-29 12:33:39.352685
1811  2023-11-29 12:33:39.384762
1812  2023-11-29 12:33:39.416712
1813  2023-11-29 12:33:39.448591
1814  2023-11-29 12:33:39.480506
1815  2023-11-29 12:33:39.512420
1816  2023-11-29 12:33:39.544368
1817  2023-11-29 12:33:39.576285
1818  2023-11-29 12:33:39.608207
1819  2023-11-29 12:33:39.641077
1820  2023-11-29 12:33:39.673022
1821  2023-11-29 12:33:39.704955
1822  2023-11-29 12:33:39.752810
1823  2023-11-29 12:33:39.784693
1824  2023-11-29 12:33:39.816609
1825  2023-11-29 12:33:39.848522
1826  2023-11-29 12:33:39.880437
1827  2023-11-29 12:33:39.912351
1828  2023-11-29 12:33:39.945265
1829  2023-11-29 12:33:39.977180
1830  2023-11-29 12:33:40.009093
1831  2023-11-29 12:33:40.041045
1832  2023-11-29 12:33:40.072922
1833  2023-11-29 12:33:40.104837
1834  2023-11-29 12:33:40.152709
1835  2023-11-29 12:33:40.184624
1836  2023-11-29 12:33:40.216671
1837  2023-11-29 12:33:40.248689
1838  2023-11-29 12:33:40.280563
1839  2023-11-29 12:33:40.312477
1840  2023-11-29 12:33:40.344392
1841  2023-11-29 12:33:40.376307
1842  2023-11-29 12:33:40.408288
1843  2023-11-29 12:33:40.440244
1844  2023-11-29 12:33:40.473156
1845  2023-11-29 12:33:40.505071
1846  2023-11-29 12:33:40.552943
1847  2023-11-29 12:33:40.584859
1848  2023-11-29 12:33:40.616820
1849  2023-11-29 12:33:40.648687
1850  2023-11-29 12:33:40.680601
1851  2023-11-29 12:33:40.712547
1852  2023-11-29 12:33:40.744475
1853  2023-11-29 12:33:40.776345
1854  2023-11-29 12:33:40.808443
1855  2023-11-29 12:33:40.840357
1856  2023-11-29 12:33:40.872302
1857  2023-11-29 12:33:40.905184
1858  2023-11-29 12:33:40.952135
1859  2023-11-29 12:33:40.985057
1860  2023-11-29 12:33:41.016971
1861  2023-11-29 12:33:41.048886
1862  2023-11-29 12:33:41.080801
1863  2023-11-29 12:33:41.112716
1864  2023-11-29 12:33:41.144631
1865  2023-11-29 12:33:41.176545
1866  2023-11-29 12:33:41.208460
1867  2023-11-29 12:33:41.240470
1868  2023-11-29 12:33:41.272384
1869  2023-11-29 12:33:41.304359
1870  2023-11-29 12:33:41.352230
1871  2023-11-29 12:33:41.385142
1872  2023-11-29 12:33:41.416322
1873  2023-11-29 12:33:41.448237
1874  2023-11-29 12:33:41.481150
1875  2023-11-29 12:33:41.513068
1876  2023-11-29 12:33:41.545018
1877  2023-11-29 12:33:41.577082
1878  2023-11-29 12:33:41.608996
1879  2023-11-29 12:33:41.641031
1880  2023-11-29 12:33:41.672946
1881  2023-11-29 12:33:41.704861
1882  2023-11-29 12:33:41.752733
1883  2023-11-29 12:33:41.784648
1884  2023-11-29 12:33:41.816562
1885  2023-11-29 12:33:41.848477
1886  2023-11-29 12:33:41.880392
1887  2023-11-29 12:33:41.912422
1888  2023-11-29 12:33:41.944304
1889  2023-11-29 12:33:41.977264
1890  2023-11-29 12:33:42.009169
1891  2023-11-29 12:33:42.041137
1892  2023-11-29 12:33:42.073176
1893  2023-11-29 12:33:42.104558
1894  2023-11-29 12:33:42.152430
1895  2023-11-29 12:33:42.184345
1896  2023-11-29 12:33:42.216291
1897  2023-11-29 12:33:42.249216
1898  2023-11-29 12:33:42.282084
1899  2023-11-29 12:33:42.313015
1900  2023-11-29 12:33:42.345946
1901  2023-11-29 12:33:42.376847
1902  2023-11-29 12:33:42.408745
1903  2023-11-29 12:33:42.440660
1904  2023-11-29 12:33:42.472574
1905  2023-11-29 12:33:42.505487
1906  2023-11-29 12:33:42.553360
1907  2023-11-29 12:33:42.584276
1908  2023-11-29 12:33:42.617188
1909  2023-11-29 12:33:42.650100
1910  2023-11-29 12:33:42.681017
1911  2023-11-29 12:33:42.713960
1912  2023-11-29 12:33:42.745895
1913  2023-11-29 12:33:42.777872
1914  2023-11-29 12:33:42.809821
1915  2023-11-29 12:33:42.841734
1916  2023-11-29 12:33:42.873646
1917  2023-11-29 12:33:42.905530
1918  2023-11-29 12:33:42.953434
1919  2023-11-29 12:33:42.985364
1920  2023-11-29 12:33:43.017276
1921  2023-11-29 12:33:43.049182
1922  2023-11-29 12:33:43.081091
1923  2023-11-29 12:33:43.112815
1924  2023-11-29 12:33:43.145890
1925  2023-11-29 12:33:43.176888
1926  2023-11-29 12:33:43.209801
1927  2023-11-29 12:33:43.241733
1928  2023-11-29 12:33:43.272632
1929  2023-11-29 12:33:43.304707
1930  2023-11-29 12:33:43.352632
1931  2023-11-29 12:33:43.385560
1932  2023-11-29 12:33:43.416649
1933  2023-11-29 12:33:43.448571
1934  2023-11-29 12:33:43.480486
1935  2023-11-29 12:33:43.512386
1936  2023-11-29 12:33:43.545330
1937  2023-11-29 12:33:43.577236
1938  2023-11-29 12:33:43.609178
1939  2023-11-29 12:33:43.641085
1940  2023-11-29 12:33:43.672990
1941  2023-11-29 12:33:43.704905
1942  2023-11-29 12:33:43.752778
1943  2023-11-29 12:33:43.784722
1944  2023-11-29 12:33:43.816607
1945  2023-11-29 12:33:43.848525
1946  2023-11-29 12:33:43.880435
1947  2023-11-29 12:33:43.912356
1948  2023-11-29 12:33:43.944232
1949  2023-11-29 12:33:43.977144
1950  2023-11-29 12:33:44.009098
1951  2023-11-29 12:33:44.041069
1952  2023-11-29 12:33:44.073039
1953  2023-11-29 12:33:44.104954
1954  2023-11-29 12:33:44.152815
1955  2023-11-29 12:33:44.184735
1956  2023-11-29 12:33:44.216656
1957  2023-11-29 12:33:44.248579
1958  2023-11-29 12:33:44.280482
1959  2023-11-29 12:33:44.312404
1960  2023-11-29 12:33:44.344305
1961  2023-11-29 12:33:44.376196
1962  2023-11-29 12:33:44.409157
1963  2023-11-29 12:33:44.440445
1964  2023-11-29 12:33:44.472362
1965  2023-11-29 12:33:44.505272
1966  2023-11-29 12:33:44.553253
1967  2023-11-29 12:33:44.585224
1968  2023-11-29 12:33:44.617148
1969  2023-11-29 12:33:44.649115
1970  2023-11-29 12:33:44.680970
1971  2023-11-29 12:33:44.712953
1972  2023-11-29 12:33:44.746008
1973  2023-11-29 12:33:44.776990
1974  2023-11-29 12:33:44.808937
1975  2023-11-29 12:33:44.840820
1976  2023-11-29 12:33:44.872766
1977  2023-11-29 12:33:44.905706
1978  2023-11-29 12:33:44.952554
1979  2023-11-29 12:33:44.984436
1980  2023-11-29 12:33:45.017381
1981  2023-11-29 12:33:45.049287
1982  2023-11-29 12:33:45.080204
1983  2023-11-29 12:33:45.113130
1984  2023-11-29 12:33:45.145048
1985  2023-11-29 12:33:45.176956
1986  2023-11-29 12:33:45.208886
1987  2023-11-29 12:33:45.240784
1988  2023-11-29 12:33:45.272699
1989  2023-11-29 12:33:45.304614
1990  2023-11-29 12:33:45.352452
1991  2023-11-29 12:33:45.385396
1992  2023-11-29 12:33:45.416285
1993  2023-11-29 12:33:45.448196
1994  2023-11-29 12:33:45.480110
1995  2023-11-29 12:33:45.513053
1996  2023-11-29 12:33:45.544980
1997  2023-11-29 12:33:45.576886
1998  2023-11-29 12:33:45.608801
1999  2023-11-29 12:33:45.640715
2000  2023-11-29 12:33:45.672644
2001  2023-11-29 12:33:45.704543
2002  2023-11-29 12:33:45.752415
2003  2023-11-29 12:33:45.784328
2004  2023-11-29 12:33:45.816213
2005  2023-11-29 12:33:45.849125
2006  2023-11-29 12:33:45.881069
2007  2023-11-29 12:33:45.912984
2008  2023-11-29 12:33:45.944898
2009  2023-11-29 12:33:45.976816
2010  2023-11-29 12:33:46.008729
2011  2023-11-29 12:33:46.041181
2012  2023-11-29 12:33:46.073095
2013  2023-11-29 12:33:46.105091
2014  2023-11-29 12:33:46.152921
2015  2023-11-29 12:33:46.184872
2016  2023-11-29 12:33:46.216783
2017  2023-11-29 12:33:46.248697
2018  2023-11-29 12:33:46.280591
2019  2023-11-29 12:33:46.312525
2020  2023-11-29 12:33:46.344436
2021  2023-11-29 12:33:46.376356
2022  2023-11-29 12:33:46.409236
2023  2023-11-29 12:33:46.441181
2024  2023-11-29 12:33:46.473114
2025  2023-11-29 12:33:46.505134
2026  2023-11-29 12:33:46.552974
2027  2023-11-29 12:33:46.584945
2028  2023-11-29 12:33:46.616835
2029  2023-11-29 12:33:46.648749
2030  2023-11-29 12:33:46.680669
2031  2023-11-29 12:33:46.712580
2032  2023-11-29 12:33:46.744559
2033  2023-11-29 12:33:46.776447
2034  2023-11-29 12:33:46.808456
2035  2023-11-29 12:33:46.840379
2036  2023-11-29 12:33:46.872287
2037  2023-11-29 12:33:46.904206
2038  2023-11-29 12:33:46.953085
2039  2023-11-29 12:33:46.984953
2040  2023-11-29 12:33:47.016899
2041  2023-11-29 12:33:47.048816
2042  2023-11-29 12:33:47.080728
2043  2023-11-29 12:33:47.112658
2044  2023-11-29 12:33:47.144532
2045  2023-11-29 12:33:47.176480
2046  2023-11-29 12:33:47.208394
2047  2023-11-29 12:33:47.240311
2048  2023-11-29 12:33:47.272220
2049  2023-11-29 12:33:47.305132
2050  2023-11-29 12:33:47.353041
2051  2023-11-29 12:33:47.384986
2052  2023-11-29 12:33:47.416909
2053  2023-11-29 12:33:47.448817
2054  2023-11-29 12:33:47.480730
2055  2023-11-29 12:33:47.512640
2056  2023-11-29 12:33:47.544562
2057  2023-11-29 12:33:47.577442
2058  2023-11-29 12:33:47.608389
2059  2023-11-29 12:33:47.641311
2060  2023-11-29 12:33:47.672219
2061  2023-11-29 12:33:47.705150
2062  2023-11-29 12:33:47.753003
2063  2023-11-29 12:33:47.784886
2064  2023-11-29 12:33:47.816843
2065  2023-11-29 12:33:47.848748
2066  2023-11-29 12:33:47.880663
2067  2023-11-29 12:33:47.912587
2068  2023-11-29 12:33:47.944502
2069  2023-11-29 12:33:47.976406
2070  2023-11-29 12:33:48.009300
2071  2023-11-29 12:33:48.041202
2072  2023-11-29 12:33:48.073116
2073  2023-11-29 12:33:48.105064
2074  2023-11-29 12:33:48.152902
2075  2023-11-29 12:33:48.184194
2076  2023-11-29 12:33:48.216150
2077  2023-11-29 12:33:48.249056
2078  2023-11-29 12:33:48.280975
2079  2023-11-29 12:33:48.312885
2080  2023-11-29 12:33:48.344802
2081  2023-11-29 12:33:48.376715
2082  2023-11-29 12:33:48.408652
2083  2023-11-29 12:33:48.440550
2084  2023-11-29 12:33:48.472541
2085  2023-11-29 12:33:48.504518
2086  2023-11-29 12:33:48.552359
2087  2023-11-29 12:33:48.584309
2088  2023-11-29 12:33:48.616223
2089  2023-11-29 12:33:48.649132
2090  2023-11-29 12:33:48.681051
2091  2023-11-29 12:33:48.712963
2092  2023-11-29 12:33:48.744850
2093  2023-11-29 12:33:48.776792
2094  2023-11-29 12:33:48.808707
2095  2023-11-29 12:33:48.840596
2096  2023-11-29 12:33:48.872642
2097  2023-11-29 12:33:48.904604
2098  2023-11-29 12:33:48.952472
2099  2023-11-29 12:33:48.984387
2100  2023-11-29 12:33:49.016181
2101  2023-11-29 12:33:49.048185
2102  2023-11-29 12:33:49.081095
2103  2023-11-29 12:33:49.113010
2104  2023-11-29 12:33:49.144924
2105  2023-11-29 12:33:49.176839
2106  2023-11-29 12:33:49.208754
2107  2023-11-29 12:33:49.240666
2108  2023-11-29 12:33:49.272584
2109  2023-11-29 12:33:49.304509
2110  2023-11-29 12:33:49.352377
2111  2023-11-29 12:33:49.384282
2112  2023-11-29 12:33:49.416197
2113  2023-11-29 12:33:49.449111
2114  2023-11-29 12:33:49.481031
2115  2023-11-29 12:33:49.512949
2116  2023-11-29 12:33:49.544856
2117  2023-11-29 12:33:49.576770
2118  2023-11-29 12:33:49.608683
2119  2023-11-29 12:33:49.640601
2120  2023-11-29 12:33:49.672518
2121  2023-11-29 12:33:49.704401
2122  2023-11-29 12:33:49.753300
2123  2023-11-29 12:33:49.784165
2124  2023-11-29 12:33:49.817080
2125  2023-11-29 12:33:49.849021
2126  2023-11-29 12:33:49.881003
2127  2023-11-29 12:33:49.912914
2128  2023-11-29 12:33:49.944829
2129  2023-11-29 12:33:49.976748
2130  2023-11-29 12:33:50.008663
2131  2023-11-29 12:33:50.040580
2132  2023-11-29 12:33:50.072496
2133  2023-11-29 12:33:50.104408
2134  2023-11-29 12:33:50.152282
2135  2023-11-29 12:33:50.184159
2136  2023-11-29 12:33:50.217102
2137  2023-11-29 12:33:50.249023
2138  2023-11-29 12:33:50.280937
2139  2023-11-29 12:33:50.312847
2140  2023-11-29 12:33:50.344764
2141  2023-11-29 12:33:50.376679
2142  2023-11-29 12:33:50.408595
2143  2023-11-29 12:33:50.440518
2144  2023-11-29 12:33:50.472422
2145  2023-11-29 12:33:50.504343
2146  2023-11-29 12:33:50.553213
2147  2023-11-29 12:33:50.585134
2148  2023-11-29 12:33:50.617034
2149  2023-11-29 12:33:50.648951
2150  2023-11-29 12:33:50.680865
2151  2023-11-29 12:33:50.712780
2152  2023-11-29 12:33:50.744694
2153  2023-11-29 12:33:50.776607
2154  2023-11-29 12:33:50.808521
2155  2023-11-29 12:33:50.840436
2156  2023-11-29 12:33:50.872358
2157  2023-11-29 12:33:50.904267
2158  2023-11-29 12:33:50.952141
2159  2023-11-29 12:33:50.985018
2160  2023-11-29 12:33:51.016965
2161  2023-11-29 12:33:51.048883
2162  2023-11-29 12:33:51.080796
2163  2023-11-29 12:33:51.112709
2164  2023-11-29 12:33:51.144627
2165  2023-11-29 12:33:51.176541
2166  2023-11-29 12:33:51.208453
2167  2023-11-29 12:33:51.241336
2168  2023-11-29 12:33:51.272288
2169  2023-11-29 12:33:51.305197
2170  2023-11-29 12:33:51.353079
2171  2023-11-29 12:33:51.384957
2172  2023-11-29 12:33:51.417146
2173  2023-11-29 12:33:51.449065
2174  2023-11-29 12:33:51.481081
2175  2023-11-29 12:33:51.513014
2176  2023-11-29 12:33:51.545041
2177  2023-11-29 12:33:51.576960
2178  2023-11-29 12:33:51.608872
2179  2023-11-29 12:33:51.640789
2180  2023-11-29 12:33:51.672702
2181  2023-11-29 12:33:51.704641
2182  2023-11-29 12:33:51.752488
2183  2023-11-29 12:33:51.784403
2184  2023-11-29 12:33:51.816968
2185  2023-11-29 12:33:51.848961
2186  2023-11-29 12:33:51.880873
2187  2023-11-29 12:33:51.912790
2188  2023-11-29 12:33:51.944250
2189  2023-11-29 12:33:51.977167
2190  2023-11-29 12:33:52.009083
2191  2023-11-29 12:33:52.040994
2192  2023-11-29 12:33:52.072907
2193  2023-11-29 12:33:52.104905
2194  2023-11-29 12:33:52.152791
2195  2023-11-29 12:33:52.184660
2196  2023-11-29 12:33:52.216606
2197  2023-11-29 12:33:52.249313
2198  2023-11-29 12:33:52.281224
2199  2023-11-29 12:33:52.313132
2200  2023-11-29 12:33:52.345048
2201  2023-11-29 12:33:52.376965
2202  2023-11-29 12:33:52.408848
2203  2023-11-29 12:33:52.440793
2204  2023-11-29 12:33:52.472712
2205  2023-11-29 12:33:52.504591
2206  2023-11-29 12:33:52.552518
2207  2023-11-29 12:33:52.584409
2208  2023-11-29 12:33:52.617288
2209  2023-11-29 12:33:52.649203
2210  2023-11-29 12:33:52.681151
2211  2023-11-29 12:33:52.713064
2212  2023-11-29 12:33:52.744949
2213  2023-11-29 12:33:52.776896
2214  2023-11-29 12:33:52.808823
2215  2023-11-29 12:33:52.840725
2216  2023-11-29 12:33:52.872608
2217  2023-11-29 12:33:52.904554
2218  2023-11-29 12:33:52.952441
2219  2023-11-29 12:33:52.984345
2220  2023-11-29 12:33:53.016223
2221  2023-11-29 12:33:53.049137
2222  2023-11-29 12:33:53.081081
2223  2023-11-29 12:33:53.113002
2224  2023-11-29 12:33:53.144909
2225  2023-11-29 12:33:53.176793
2226  2023-11-29 12:33:53.208742
2227  2023-11-29 12:33:53.240662
2228  2023-11-29 12:33:53.272570
2229  2023-11-29 12:33:53.304490
2230  2023-11-29 12:33:53.352365
2231  2023-11-29 12:33:53.384277
2232  2023-11-29 12:33:53.417182
2233  2023-11-29 12:33:53.449065
2234  2023-11-29 12:33:53.481019
2235  2023-11-29 12:33:53.512929
2236  2023-11-29 12:33:53.544851
2237  2023-11-29 12:33:53.576723
2238  2023-11-29 12:33:53.608639
2239  2023-11-29 12:33:53.640594
2240  2023-11-29 12:33:53.672510
2241  2023-11-29 12:33:53.704421
2242  2023-11-29 12:33:53.752291
2243  2023-11-29 12:33:53.784203
2244  2023-11-29 12:33:53.816720
2245  2023-11-29 12:33:53.848622
2246  2023-11-29 12:33:53.880535
2247  2023-11-29 12:33:53.913448
2248  2023-11-29 12:33:53.945364
2249  2023-11-29 12:33:53.976402
2250  2023-11-29 12:33:54.009002
2251  2023-11-29 12:33:54.041026
2252  2023-11-29 12:33:54.072933
2253  2023-11-29 12:33:54.104917
2254  2023-11-29 12:33:54.152719
2255  2023-11-29 12:33:54.184635
2256  2023-11-29 12:33:54.216549
2257  2023-11-29 12:33:54.248465
2258  2023-11-29 12:33:54.281478
2259  2023-11-29 12:33:54.312389
2260  2023-11-29 12:33:54.344298
2261  2023-11-29 12:33:54.377230
2262  2023-11-29 12:33:54.409136
2263  2023-11-29 12:33:54.441044
2264  2023-11-29 12:33:54.472957
2265  2023-11-29 12:33:54.504874
2266  2023-11-29 12:33:54.552744
2267  2023-11-29 12:33:54.584626
2268  2023-11-29 12:33:54.616541
2269  2023-11-29 12:33:54.648454
2270  2023-11-29 12:33:54.680304
2271  2023-11-29 12:33:54.712221
2272  2023-11-29 12:33:54.745131
2273  2023-11-29 12:33:54.777228
2274  2023-11-29 12:33:54.809133
2275  2023-11-29 12:33:54.841080
2276  2023-11-29 12:33:54.873069
2277  2023-11-29 12:33:54.904982
2278  2023-11-29 12:33:54.952856
2279  2023-11-29 12:33:54.984776
2280  2023-11-29 12:33:55.016907
2281  2023-11-29 12:33:55.048986
2282  2023-11-29 12:33:55.080903
2283  2023-11-29 12:33:55.112816
2284  2023-11-29 12:33:55.144731
2285  2023-11-29 12:33:55.176645
2286  2023-11-29 12:33:55.208557
2287  2023-11-29 12:33:55.240441
2288  2023-11-29 12:33:55.272403
2289  2023-11-29 12:33:55.304303
2290  2023-11-29 12:33:55.352180
2291  2023-11-29 12:33:55.385054
2292  2023-11-29 12:33:55.417003
2293  2023-11-29 12:33:55.448883
2294  2023-11-29 12:33:55.480798
2295  2023-11-29 12:33:55.512744
2296  2023-11-29 12:33:55.544666
2297  2023-11-29 12:33:55.576592
2298  2023-11-29 12:33:55.608457
2299  2023-11-29 12:33:55.640372
2300  2023-11-29 12:33:55.672320
2301  2023-11-29 12:33:55.705247
2302  2023-11-29 12:33:55.753073
2303  2023-11-29 12:33:55.785019
2304  2023-11-29 12:33:55.816900
2305  2023-11-29 12:33:55.848814
2306  2023-11-29 12:33:55.880729
2307  2023-11-29 12:33:55.912702
2308  2023-11-29 12:33:55.944603
2309  2023-11-29 12:33:55.976522
2310  2023-11-29 12:33:56.008388
2311  2023-11-29 12:33:56.040336
2312  2023-11-29 12:33:56.072255
2313  2023-11-29 12:33:56.104164
2314  2023-11-29 12:33:56.153001
2315  2023-11-29 12:33:56.184916
2316  2023-11-29 12:33:56.216831
2317  2023-11-29 12:33:56.248779
2318  2023-11-29 12:33:56.280660
2319  2023-11-29 12:33:56.312576
2320  2023-11-29 12:33:56.344541
2321  2023-11-29 12:33:56.376440
2322  2023-11-29 12:33:56.408319
2323  2023-11-29 12:33:56.440233
2324  2023-11-29 12:33:56.473145
2325  2023-11-29 12:33:56.505103
2326  2023-11-29 12:33:56.552932
2327  2023-11-29 12:33:56.584847
2328  2023-11-29 12:33:56.616762
2329  2023-11-29 12:33:56.648676
2330  2023-11-29 12:33:56.680591
2331  2023-11-29 12:33:56.712506
2332  2023-11-29 12:33:56.744456
2333  2023-11-29 12:33:56.776373
2334  2023-11-29 12:33:56.809247
2335  2023-11-29 12:33:56.841163
2336  2023-11-29 12:33:56.873076
2337  2023-11-29 12:33:56.904991
2338  2023-11-29 12:33:56.952863
2339  2023-11-29 12:33:56.984778
2340  2023-11-29 12:33:57.016692
2341  2023-11-29 12:33:57.048607
2342  2023-11-29 12:33:57.080521
2343  2023-11-29 12:33:57.113435
2344  2023-11-29 12:33:57.144393
2345  2023-11-29 12:33:57.176267
2346  2023-11-29 12:33:57.209180
2347  2023-11-29 12:33:57.241094
2348  2023-11-29 12:33:57.273009
2349  2023-11-29 12:33:57.304923
2350  2023-11-29 12:33:57.352795
2351  2023-11-29 12:33:57.384710
2352  2023-11-29 12:33:57.416625
2353  2023-11-29 12:33:57.448539
2354  2023-11-29 12:33:57.480454
2355  2023-11-29 12:33:57.512369
2356  2023-11-29 12:33:57.545281
2357  2023-11-29 12:33:57.577194
2358  2023-11-29 12:33:57.608113
2359  2023-11-29 12:33:57.641024
2360  2023-11-29 12:33:57.672939
2361  2023-11-29 12:33:57.704892
2362  2023-11-29 12:33:57.752764
2363  2023-11-29 12:33:57.784674
2364  2023-11-29 12:33:57.816559
2365  2023-11-29 12:33:57.848470
2366  2023-11-29 12:33:57.880418
2367  2023-11-29 12:33:57.912330
2368  2023-11-29 12:33:57.944249
2369  2023-11-29 12:33:57.976158
2370  2023-11-29 12:33:58.009224
2371  2023-11-29 12:33:58.041174
2372  2023-11-29 12:33:58.073052
2373  2023-11-29 12:33:58.104967
2374  2023-11-29 12:33:58.152839
2375  2023-11-29 12:33:58.184754
2376  2023-11-29 12:33:58.216713
2377  2023-11-29 12:33:58.248625
2378  2023-11-29 12:33:58.280503
2379  2023-11-29 12:33:58.312413
2380  2023-11-29 12:33:58.344251
2381  2023-11-29 12:33:58.376171
2382  2023-11-29 12:33:58.409106
2383  2023-11-29 12:33:58.440516
2384  2023-11-29 12:33:58.472462
2385  2023-11-29 12:33:58.504419
2386  2023-11-29 12:33:58.552247
2387  2023-11-29 12:33:58.584197
2388  2023-11-29 12:33:58.617073
2389  2023-11-29 12:33:58.649023
2390  2023-11-29 12:33:58.680903
2391  2023-11-29 12:33:58.712849
2392  2023-11-29 12:33:58.744765
2393  2023-11-29 12:33:58.776647
2394  2023-11-29 12:33:58.808561
2395  2023-11-29 12:33:58.840516
2396  2023-11-29 12:33:58.872391
2397  2023-11-29 12:33:58.904306
2398  2023-11-29 12:33:58.952177
2399  2023-11-29 12:33:58.985090
2400  2023-11-29 12:33:59.017037
2401  2023-11-29 12:33:59.048951
2402  2023-11-29 12:33:59.080869
2403  2023-11-29 12:33:59.112748
2404  2023-11-29 12:33:59.144708
2405  2023-11-29 12:33:59.176585
2406  2023-11-29 12:33:59.208528
2407  2023-11-29 12:33:59.240515
2408  2023-11-29 12:33:59.272449
2409  2023-11-29 12:33:59.304365
2410  2023-11-29 12:33:59.352237
2411  2023-11-29 12:33:59.384185
2412  2023-11-29 12:33:59.417104
2413  2023-11-29 12:33:59.449128
2414  2023-11-29 12:33:59.480998
2415  2023-11-29 12:33:59.512223
2416  2023-11-29 12:33:59.545145
2417  2023-11-29 12:33:59.577100
2418  2023-11-29 12:33:59.609066
2419  2023-11-29 12:33:59.640988
2420  2023-11-29 12:33:59.672933
2421  2023-11-29 12:33:59.704854
2422  2023-11-29 12:33:59.752173
2423  2023-11-29 12:33:59.785107
2424  2023-11-29 12:33:59.817090
2425  2023-11-29 12:33:59.849005
2426  2023-11-29 12:33:59.880920
2427  2023-11-29 12:33:59.912834
2428  2023-11-29 12:33:59.945115
2429  2023-11-29 12:33:59.977139
2430  2023-11-29 12:34:00.008385
2431  2023-11-29 12:34:00.040354
2432  2023-11-29 12:34:00.072884
2433  2023-11-29 12:34:00.104800
2434  2023-11-29 12:34:00.152695
2435  2023-11-29 12:34:00.184640
2436  2023-11-29 12:34:00.216565
2437  2023-11-29 12:34:00.249439
2438  2023-11-29 12:34:00.280330
2439  2023-11-29 12:34:00.312307
2440  2023-11-29 12:34:00.345206
2441  2023-11-29 12:34:00.377156
2442  2023-11-29 12:34:00.409037
2443  2023-11-29 12:34:00.440950
2444  2023-11-29 12:34:00.472909
2445  2023-11-29 12:34:00.504872
2446  2023-11-29 12:34:00.552744
2447  2023-11-29 12:34:00.584659
2448  2023-11-29 12:34:00.616591
2449  2023-11-29 12:34:00.648532
2450  2023-11-29 12:34:00.680490
2451  2023-11-29 12:34:00.712405
2452  2023-11-29 12:34:00.744450
2453  2023-11-29 12:34:00.776380
2454  2023-11-29 12:34:00.808327
2455  2023-11-29 12:34:00.840242
2456  2023-11-29 12:34:00.873155
2457  2023-11-29 12:34:00.905038
2458  2023-11-29 12:34:00.952943
2459  2023-11-29 12:34:00.984825
2460  2023-11-29 12:34:01.016740
2461  2023-11-29 12:34:01.048695
2462  2023-11-29 12:34:01.080604
2463  2023-11-29 12:34:01.112483
2464  2023-11-29 12:34:01.144398
2465  2023-11-29 12:34:01.176313
2466  2023-11-29 12:34:01.208261
2467  2023-11-29 12:34:01.241140
2468  2023-11-29 12:34:01.273054
2469  2023-11-29 12:34:01.304969
2470  2023-11-29 12:34:01.352841
2471  2023-11-29 12:34:01.384756
2472  2023-11-29 12:34:01.416713
2473  2023-11-29 12:34:01.448585
2474  2023-11-29 12:34:01.480500
2475  2023-11-29 12:34:01.512414
2476  2023-11-29 12:34:01.544329
2477  2023-11-29 12:34:01.576244
2478  2023-11-29 12:34:01.608158
2479  2023-11-29 12:34:01.641071
2480  2023-11-29 12:34:01.672985
2481  2023-11-29 12:34:01.704900
2482  2023-11-29 12:34:01.752772
2483  2023-11-29 12:34:01.784686
2484  2023-11-29 12:34:01.816601
2485  2023-11-29 12:34:01.848516
2486  2023-11-29 12:34:01.880431
2487  2023-11-29 12:34:01.912345
2488  2023-11-29 12:34:01.944260
2489  2023-11-29 12:34:01.977172
2490  2023-11-29 12:34:02.008417
2491  2023-11-29 12:34:02.041306
2492  2023-11-29 12:34:02.073207
2493  2023-11-29 12:34:02.105119
2494  2023-11-29 12:34:02.152991
2495  2023-11-29 12:34:02.184596
2496  2023-11-29 12:34:02.216691
2497  2023-11-29 12:34:02.248672
2498  2023-11-29 12:34:02.280520
2499  2023-11-29 12:34:02.312367
2500  2023-11-29 12:34:02.344282
2501  2023-11-29 12:34:02.376747
2502  2023-11-29 12:34:02.408597
2503  2023-11-29 12:34:02.440549
2504  2023-11-29 12:34:02.472468
2505  2023-11-29 12:34:02.504417
2506  2023-11-29 12:34:02.552255
2507  2023-11-29 12:34:02.584201
2508  2023-11-29 12:34:02.617081
2509  2023-11-29 12:34:02.648996
2510  2023-11-29 12:34:02.680910
2511  2023-11-29 12:34:02.712825
2512  2023-11-29 12:34:02.744740
2513  2023-11-29 12:34:02.776654
2514  2023-11-29 12:34:02.808569
2515  2023-11-29 12:34:02.840484
2516  2023-11-29 12:34:02.872398
2517  2023-11-29 12:34:02.904350
2518  2023-11-29 12:34:02.953220
2519  2023-11-29 12:34:02.985136
2520  2023-11-29 12:34:03.017049
2521  2023-11-29 12:34:03.048964
2522  2023-11-29 12:34:03.081025
2523  2023-11-29 12:34:03.112793
2524  2023-11-29 12:34:03.144836
2525  2023-11-29 12:34:03.176751
2526  2023-11-29 12:34:03.208666
2527  2023-11-29 12:34:03.240625
2528  2023-11-29 12:34:03.272495
2529  2023-11-29 12:34:03.304409
2530  2023-11-29 12:34:03.353314
2531  2023-11-29 12:34:03.384196
2532  2023-11-29 12:34:03.417139
2533  2023-11-29 12:34:03.449086
2534  2023-11-29 12:34:03.480938
2535  2023-11-29 12:34:03.512857
2536  2023-11-29 12:34:03.544801
2537  2023-11-29 12:34:03.576716
2538  2023-11-29 12:34:03.608248
2539  2023-11-29 12:34:03.641201
2540  2023-11-29 12:34:03.673147
2541  2023-11-29 12:34:03.705070
2542  2023-11-29 12:34:03.752939
2543  2023-11-29 12:34:03.784849
2544  2023-11-29 12:34:03.816473
2545  2023-11-29 12:34:03.848387
2546  2023-11-29 12:34:03.880334
2547  2023-11-29 12:34:03.912254
2548  2023-11-29 12:34:03.944131
2549  2023-11-29 12:34:03.977043
2550  2023-11-29 12:34:04.008989
2551  2023-11-29 12:34:04.040904
2552  2023-11-29 12:34:04.072787
2553  2023-11-29 12:34:04.104702
2554  2023-11-29 12:34:04.152574
2555  2023-11-29 12:34:04.184489
2556  2023-11-29 12:34:04.216404
2557  2023-11-29 12:34:04.248361
2558  2023-11-29 12:34:04.280233
2559  2023-11-29 12:34:04.313145
2560  2023-11-29 12:34:04.345060
2561  2023-11-29 12:34:04.377008
2562  2023-11-29 12:34:04.408889
2563  2023-11-29 12:34:04.440804
2564  2023-11-29 12:34:04.472718
2565  2023-11-29 12:34:04.504633
2566  2023-11-29 12:34:04.552505
2567  2023-11-29 12:34:04.584420
2568  2023-11-29 12:34:04.617063
2569  2023-11-29 12:34:04.648986
2570  2023-11-29 12:34:04.680900
2571  2023-11-29 12:34:04.712920
2572  2023-11-29 12:34:04.744849
2573  2023-11-29 12:34:04.776783
2574  2023-11-29 12:34:04.808698
2575  2023-11-29 12:34:04.841150
2576  2023-11-29 12:34:04.873215
2577  2023-11-29 12:34:04.906108
2578  2023-11-29 12:34:04.953981
2579  2023-11-29 12:34:04.986026
2580  2023-11-29 12:34:05.017929
2581  2023-11-29 12:34:05.049915
2582  2023-11-29 12:34:05.081817
2583  2023-11-29 12:34:05.113826
2584  2023-11-29 12:34:05.145729
2585  2023-11-29 12:34:05.177642
2586  2023-11-29 12:34:05.209555
2587  2023-11-29 12:34:05.241471
2588  2023-11-29 12:34:05.273386
2589  2023-11-29 12:34:05.305270
2590  2023-11-29 12:34:05.353142
2591  2023-11-29 12:34:05.386088
2592  2023-11-29 12:34:05.417998
2593  2023-11-29 12:34:05.449914
2594  2023-11-29 12:34:05.481799
2595  2023-11-29 12:34:05.513746
2596  2023-11-29 12:34:05.545669
2597  2023-11-29 12:34:05.577585
2598  2023-11-29 12:34:05.609605
2599  2023-11-29 12:34:05.641518
2600  2023-11-29 12:34:05.673433
2601  2023-11-29 12:34:05.705362
2602  2023-11-29 12:34:05.753219
2603  2023-11-29 12:34:05.785145
2604  2023-11-29 12:34:05.817106
2605  2023-11-29 12:34:05.850008
2606  2023-11-29 12:34:05.881942
2607  2023-11-29 12:34:05.912842
2608  2023-11-29 12:34:05.945004
2609  2023-11-29 12:34:05.976918
2610  2023-11-29 12:34:06.009829
2611  2023-11-29 12:34:06.041252
2612  2023-11-29 12:34:06.073281
2613  2023-11-29 12:34:06.105177
2614  2023-11-29 12:34:06.154051
2615  2023-11-29 12:34:06.184963
2616  2023-11-29 12:34:06.216869
2617  2023-11-29 12:34:06.249784
2618  2023-11-29 12:34:06.280709
2619  2023-11-29 12:34:06.312633
2620  2023-11-29 12:34:06.345504
2621  2023-11-29 12:34:06.376452
2622  2023-11-29 12:34:06.408366
2623  2023-11-29 12:34:06.440280
2624  2023-11-29 12:34:06.473190
2625  2023-11-29 12:34:06.505103
2626  2023-11-29 12:34:06.552980
2627  2023-11-29 12:34:06.584901
2628  2023-11-29 12:34:06.616808
2629  2023-11-29 12:34:06.648724
2630  2023-11-29 12:34:06.680645
2631  2023-11-29 12:34:06.712554
2632  2023-11-29 12:34:06.744472
2633  2023-11-29 12:34:06.776379
2634  2023-11-29 12:34:06.808299
2635  2023-11-29 12:34:06.840320
2636  2023-11-29 12:34:06.872236
2637  2023-11-29 12:34:06.905130
2638  2023-11-29 12:34:06.953055
2639  2023-11-29 12:34:06.985057
2640  2023-11-29 12:34:07.016982
2641  2023-11-29 12:34:07.048879
2642  2023-11-29 12:34:07.080794
2643  2023-11-29 12:34:07.112708
2644  2023-11-29 12:34:07.144627
2645  2023-11-29 12:34:07.177530
2646  2023-11-29 12:34:07.208450
2647  2023-11-29 12:34:07.240364
2648  2023-11-29 12:34:07.272279
2649  2023-11-29 12:34:07.305189
2650  2023-11-29 12:34:07.353032
2651  2023-11-29 12:34:07.384946
2652  2023-11-29 12:34:07.417889
2653  2023-11-29 12:34:07.448774
2654  2023-11-29 12:34:07.480719
2655  2023-11-29 12:34:07.512643
2656  2023-11-29 12:34:07.545546
2657  2023-11-29 12:34:07.577460
2658  2023-11-29 12:34:07.609345
2659  2023-11-29 12:34:07.640293
2660  2023-11-29 12:34:07.672208
2661  2023-11-29 12:34:07.705124
2662  2023-11-29 12:34:07.752992
2663  2023-11-29 12:34:07.785904
2664  2023-11-29 12:34:07.817824
2665  2023-11-29 12:34:07.849733
2666  2023-11-29 12:34:07.880662
2667  2023-11-29 12:34:07.912536
2668  2023-11-29 12:34:07.945477
2669  2023-11-29 12:34:07.977393
2670  2023-11-29 12:34:08.009306
2671  2023-11-29 12:34:08.041191
2672  2023-11-29 12:34:08.073143
2673  2023-11-29 12:34:08.105051
2674  2023-11-29 12:34:08.152930
2675  2023-11-29 12:34:08.185853
2676  2023-11-29 12:34:08.217750
2677  2023-11-29 12:34:08.249670
2678  2023-11-29 12:34:08.280596
2679  2023-11-29 12:34:08.312500
2680  2023-11-29 12:34:08.345416
2681  2023-11-29 12:34:08.377352
2682  2023-11-29 12:34:08.409267
2683  2023-11-29 12:34:08.440185
2684  2023-11-29 12:34:08.473129
2685  2023-11-29 12:34:08.505134
2686  2023-11-29 12:34:08.553019
2687  2023-11-29 12:34:08.584918
2688  2023-11-29 12:34:08.616837
2689  2023-11-29 12:34:08.648741
2690  2023-11-29 12:34:08.680663
2691  2023-11-29 12:34:08.712593
2692  2023-11-29 12:34:08.744491
2693  2023-11-29 12:34:08.776407
2694  2023-11-29 12:34:08.808322
2695  2023-11-29 12:34:08.840235
2696  2023-11-29 12:34:08.873147
2697  2023-11-29 12:34:08.905097
2698  2023-11-29 12:34:08.952941
2699  2023-11-29 12:34:08.984870
2700  2023-11-29 12:34:09.016785
2701  2023-11-29 12:34:09.048700
2702  2023-11-29 12:34:09.080717
2703  2023-11-29 12:34:09.112636
2704  2023-11-29 12:34:09.144544
2705  2023-11-29 12:34:09.176429
2706  2023-11-29 12:34:09.209372
2707  2023-11-29 12:34:09.241267
2708  2023-11-29 12:34:09.272209
2709  2023-11-29 12:34:09.305083
2710  2023-11-29 12:34:09.353064
2711  2023-11-29 12:34:09.384993
2712  2023-11-29 12:34:09.416950
2713  2023-11-29 12:34:09.448905
2714  2023-11-29 12:34:09.480820
2715  2023-11-29 12:34:09.512803
2716  2023-11-29 12:34:09.544688
2717  2023-11-29 12:34:09.576636
2718  2023-11-29 12:34:09.608554
2719  2023-11-29 12:34:09.640462
2720  2023-11-29 12:34:09.672379
2721  2023-11-29 12:34:09.704292
2722  2023-11-29 12:34:09.752169
2723  2023-11-29 12:34:09.785075
2724  2023-11-29 12:34:09.816992
2725  2023-11-29 12:34:09.848906
2726  2023-11-29 12:34:09.880846
2727  2023-11-29 12:34:09.912734
2728  2023-11-29 12:34:09.944663
2729  2023-11-29 12:34:09.976562
2730  2023-11-29 12:34:10.008479
2731  2023-11-29 12:34:10.040395
2732  2023-11-29 12:34:10.072277
2733  2023-11-29 12:34:10.104191
2734  2023-11-29 12:34:10.153094
2735  2023-11-29 12:34:10.185009
2736  2023-11-29 12:34:10.216890
2737  2023-11-29 12:34:10.248838
2738  2023-11-29 12:34:10.280751
2739  2023-11-29 12:34:10.312671
2740  2023-11-29 12:34:10.344555
2741  2023-11-29 12:34:10.376495
2742  2023-11-29 12:34:10.408442
2743  2023-11-29 12:34:10.440339
2744  2023-11-29 12:34:10.472207
2745  2023-11-29 12:34:10.505155
2746  2023-11-29 12:34:10.552154
2747  2023-11-29 12:34:10.585061
2748  2023-11-29 12:34:10.616974
2749  2023-11-29 12:34:10.648892
2750  2023-11-29 12:34:10.680806
2751  2023-11-29 12:34:10.712717
2752  2023-11-29 12:34:10.744638
2753  2023-11-29 12:34:10.776547
2754  2023-11-29 12:34:10.809460
2755  2023-11-29 12:34:10.840380
2756  2023-11-29 12:34:10.872260
2757  2023-11-29 12:34:10.905172
2758  2023-11-29 12:34:10.953163
2759  2023-11-29 12:34:10.985077
2760  2023-11-29 12:34:11.016962
2761  2023-11-29 12:34:11.048912
2762  2023-11-29 12:34:11.080791
2763  2023-11-29 12:34:11.113702
2764  2023-11-29 12:34:11.144669
2765  2023-11-29 12:34:11.176567
2766  2023-11-29 12:34:11.208503
2767  2023-11-29 12:34:11.240395
2768  2023-11-29 12:34:11.272396
2769  2023-11-29 12:34:11.304478
2770  2023-11-29 12:34:11.352382
2771  2023-11-29 12:34:11.384298
2772  2023-11-29 12:34:11.416186
2773  2023-11-29 12:34:11.449145
2774  2023-11-29 12:34:11.481040
2775  2023-11-29 12:34:11.512956
2776  2023-11-29 12:34:11.544867
2777  2023-11-29 12:34:11.576782
2778  2023-11-29 12:34:11.608696
2779  2023-11-29 12:34:11.640612
2780  2023-11-29 12:34:11.672529
2781  2023-11-29 12:34:11.704440
2782  2023-11-29 12:34:11.752337
2783  2023-11-29 12:34:11.784377
2784  2023-11-29 12:34:11.816284
2785  2023-11-29 12:34:11.848199
2786  2023-11-29 12:34:11.881111
2787  2023-11-29 12:34:11.913025
2788  2023-11-29 12:34:11.944940
2789  2023-11-29 12:34:11.976867
2790  2023-11-29 12:34:12.008868
2791  2023-11-29 12:34:12.040780
2792  2023-11-29 12:34:12.072694
2793  2023-11-29 12:34:12.104606
2794  2023-11-29 12:34:12.152483
2795  2023-11-29 12:34:12.184396
2796  2023-11-29 12:34:12.216309
2797  2023-11-29 12:34:12.248225
2798  2023-11-29 12:34:12.281157
2799  2023-11-29 12:34:12.313051
2800  2023-11-29 12:34:12.344967
2801  2023-11-29 12:34:12.376886
2802  2023-11-29 12:34:12.408798
2803  2023-11-29 12:34:12.440712
2804  2023-11-29 12:34:12.472593
2805  2023-11-29 12:34:12.504542
2806  2023-11-29 12:34:12.552418
2807  2023-11-29 12:34:12.585052
2808  2023-11-29 12:34:12.617085
2809  2023-11-29 12:34:12.648986
2810  2023-11-29 12:34:12.680900
2811  2023-11-29 12:34:12.712784
2812  2023-11-29 12:34:12.744733
2813  2023-11-29 12:34:12.776666
2814  2023-11-29 12:34:12.809093
2815  2023-11-29 12:34:12.841068
2816  2023-11-29 12:34:12.872998
2817  2023-11-29 12:34:12.904865
2818  2023-11-29 12:34:12.952729
2819  2023-11-29 12:34:12.984644
2820  2023-11-29 12:34:13.016560
2821  2023-11-29 12:34:13.048476
2822  2023-11-29 12:34:13.080468
2823  2023-11-29 12:34:13.112385
2824  2023-11-29 12:34:13.145174
2825  2023-11-29 12:34:13.177148
2826  2023-11-29 12:34:13.209060
2827  2023-11-29 12:34:13.240975
2828  2023-11-29 12:34:13.272892
2829  2023-11-29 12:34:13.304774
2830  2023-11-29 12:34:13.352425
2831  2023-11-29 12:34:13.384401
2832  2023-11-29 12:34:13.416352
2833  2023-11-29 12:34:13.448334
2834  2023-11-29 12:34:13.480254
2835  2023-11-29 12:34:13.512166
2836  2023-11-29 12:34:13.545097
2837  2023-11-29 12:34:13.576992
2838  2023-11-29 12:34:13.608907
2839  2023-11-29 12:34:13.640821
2840  2023-11-29 12:34:13.672740
2841  2023-11-29 12:34:13.704660
2842  2023-11-29 12:34:13.752529
2843  2023-11-29 12:34:13.784439
2844  2023-11-29 12:34:13.816352
2845  2023-11-29 12:34:13.849266
2846  2023-11-29 12:34:13.881186
2847  2023-11-29 12:34:13.913097
2848  2023-11-29 12:34:13.944977
2849  2023-11-29 12:34:13.976901
2850  2023-11-29 12:34:14.008819
2851  2023-11-29 12:34:14.040731
2852  2023-11-29 12:34:14.072653
2853  2023-11-29 12:34:14.104528
2854  2023-11-29 12:34:14.152449
2855  2023-11-29 12:34:14.184345
2856  2023-11-29 12:34:14.217264
2857  2023-11-29 12:34:14.249158
2858  2023-11-29 12:34:14.281087
2859  2023-11-29 12:34:14.313017
2860  2023-11-29 12:34:14.344919
2861  2023-11-29 12:34:14.376837
2862  2023-11-29 12:34:14.408752
2863  2023-11-29 12:34:14.440666
2864  2023-11-29 12:34:14.472580
2865  2023-11-29 12:34:14.504512
2866  2023-11-29 12:34:14.552445
2867  2023-11-29 12:34:14.584383
2868  2023-11-29 12:34:14.616294
2869  2023-11-29 12:34:14.648209
2870  2023-11-29 12:34:14.681132
2871  2023-11-29 12:34:14.713042
2872  2023-11-29 12:34:14.744950
2873  2023-11-29 12:34:14.776860
2874  2023-11-29 12:34:14.808776
2875  2023-11-29 12:34:14.840689
2876  2023-11-29 12:34:14.872613
2877  2023-11-29 12:34:14.904519
2878  2023-11-29 12:34:14.952397
2879  2023-11-29 12:34:14.984309
2880  2023-11-29 12:34:15.017216
2881  2023-11-29 12:34:15.049137
2882  2023-11-29 12:34:15.081053
2883  2023-11-29 12:34:15.112967
2884  2023-11-29 12:34:15.144878
2885  2023-11-29 12:34:15.176792
2886  2023-11-29 12:34:15.208725
2887  2023-11-29 12:34:15.240621
2888  2023-11-29 12:34:15.272536
2889  2023-11-29 12:34:15.304458
2890  2023-11-29 12:34:15.352331
2891  2023-11-29 12:34:15.384243
2892  2023-11-29 12:34:15.417153
2893  2023-11-29 12:34:15.449032
2894  2023-11-29 12:34:15.480976
2895  2023-11-29 12:34:15.512901
2896  2023-11-29 12:34:15.544805
2897  2023-11-29 12:34:15.576728
2898  2023-11-29 12:34:15.608635
2899  2023-11-29 12:34:15.640569
2900  2023-11-29 12:34:15.672474
2901  2023-11-29 12:34:15.704384
2902  2023-11-29 12:34:15.752284
2903  2023-11-29 12:34:15.784186
2904  2023-11-29 12:34:15.817047
2905  2023-11-29 12:34:15.849046
2906  2023-11-29 12:34:15.880955
2907  2023-11-29 12:34:15.912872
2908  2023-11-29 12:34:15.944791
2909  2023-11-29 12:34:15.976667
2910  2023-11-29 12:34:16.008649
2911  2023-11-29 12:34:16.040603
2912  2023-11-29 12:34:16.072602
2913  2023-11-29 12:34:16.104617
2914  2023-11-29 12:34:16.152515
2915  2023-11-29 12:34:16.184404
2916  2023-11-29 12:34:16.216352
2917  2023-11-29 12:34:16.248338
2918  2023-11-29 12:34:16.280249
2919  2023-11-29 12:34:16.312174
2920  2023-11-29 12:34:16.344231
2921  2023-11-29 12:34:16.377143
2922  2023-11-29 12:34:16.409022
2923  2023-11-29 12:34:16.440970
2924  2023-11-29 12:34:16.472883
2925  2023-11-29 12:34:16.504801
2926  2023-11-29 12:34:16.552672
2927  2023-11-29 12:34:16.584602
2928  2023-11-29 12:34:16.616469
2929  2023-11-29 12:34:16.649380
2930  2023-11-29 12:34:16.681150
2931  2023-11-29 12:34:16.713074
2932  2023-11-29 12:34:16.744990
2933  2023-11-29 12:34:16.776946
2934  2023-11-29 12:34:16.808896
2935  2023-11-29 12:34:16.840842
2936  2023-11-29 12:34:16.872763
2937  2023-11-29 12:34:16.904679
2938  2023-11-29 12:34:16.952552
2939  2023-11-29 12:34:16.984551
2940  2023-11-29 12:34:17.016460
2941  2023-11-29 12:34:17.048382
2942  2023-11-29 12:34:17.080295
2943  2023-11-29 12:34:17.112209
2944  2023-11-29 12:34:17.145127
2945  2023-11-29 12:34:17.177133
2946  2023-11-29 12:34:17.209038
2947  2023-11-29 12:34:17.240915
2948  2023-11-29 12:34:17.272912
2949  2023-11-29 12:34:17.304822
2950  2023-11-29 12:34:17.352706
2951  2023-11-29 12:34:17.384626
2952  2023-11-29 12:34:17.416497
2953  2023-11-29 12:34:17.448412
2954  2023-11-29 12:34:17.481324
2955  2023-11-29 12:34:17.513279
2956  2023-11-29 12:34:17.545198
2957  2023-11-29 12:34:17.577113
2958  2023-11-29 12:34:17.609121
2959  2023-11-29 12:34:17.641035
2960  2023-11-29 12:34:17.672990
2961  2023-11-29 12:34:17.704991
2962  2023-11-29 12:34:17.752863
2963  2023-11-29 12:34:17.784973
2964  2023-11-29 12:34:17.816979
2965  2023-11-29 12:34:17.848926
2966  2023-11-29 12:34:17.880933
2967  2023-11-29 12:34:17.912884
2968  2023-11-29 12:34:17.944797
2969  2023-11-29 12:34:17.976709
2970  2023-11-29 12:34:18.008591
2971  2023-11-29 12:34:18.040544
2972  2023-11-29 12:34:18.072461
2973  2023-11-29 12:34:18.104367
2974  2023-11-29 12:34:18.152246
2975  2023-11-29 12:34:18.185166
2976  2023-11-29 12:34:18.217068
2977  2023-11-29 12:34:18.248988
2978  2023-11-29 12:34:18.280863
2979  2023-11-29 12:34:18.312812
2980  2023-11-29 12:34:18.344725
2981  2023-11-29 12:34:18.376650
2982  2023-11-29 12:34:18.408522
2983  2023-11-29 12:34:18.440518
2984  2023-11-29 12:34:18.472506
2985  2023-11-29 12:34:18.504425
2986  2023-11-29 12:34:18.552294
2987  2023-11-29 12:34:18.584232
2988  2023-11-29 12:34:18.617083
2989  2023-11-29 12:34:18.648997
2990  2023-11-29 12:34:18.680912
2991  2023-11-29 12:34:18.712861
2992  2023-11-29 12:34:18.744779
2993  2023-11-29 12:34:18.776692
2994  2023-11-29 12:34:18.808571
2995  2023-11-29 12:34:18.840558
2996  2023-11-29 12:34:18.873333
2997  2023-11-29 12:34:18.905239
2998  2023-11-29 12:34:18.953112
2999  2023-11-29 12:34:18.985026
3000  2023-11-29 12:34:19.016941
3001  2023-11-29 12:34:19.048855
3002  2023-11-29 12:34:19.080770
3003  2023-11-29 12:34:19.112721
3004  2023-11-29 12:34:19.144694
3005  2023-11-29 12:34:19.176509
3006  2023-11-29 12:34:19.208465
3007  2023-11-29 12:34:19.240379
3008  2023-11-29 12:34:19.272293
3009  2023-11-29 12:34:19.305205
3010  2023-11-29 12:34:19.353078
3011  2023-11-29 12:34:19.385023
3012  2023-11-29 12:34:19.416943
3013  2023-11-29 12:34:19.448861
3014  2023-11-29 12:34:19.480737
3015  2023-11-29 12:34:19.512684
3016  2023-11-29 12:34:19.544680
3017  2023-11-29 12:34:19.576677
3018  2023-11-29 12:34:19.608552
3019  2023-11-29 12:34:19.640467
3020  2023-11-29 12:34:19.672421
3021  2023-11-29 12:34:19.704297
3022  2023-11-29 12:34:19.752213
3023  2023-11-29 12:34:19.784865
3024  2023-11-29 12:34:19.816851
3025  2023-11-29 12:34:19.848773
3026  2023-11-29 12:34:19.880650
3027  2023-11-29 12:34:19.912927
3028  2023-11-29 12:34:19.944581
3029  2023-11-29 12:34:19.976532
3030  2023-11-29 12:34:20.008241
3031  2023-11-29 12:34:20.041191
3032  2023-11-29 12:34:20.073080
3033  2023-11-29 12:34:20.104995
3034  2023-11-29 12:34:20.153039
3035  2023-11-29 12:34:20.184996
3036  2023-11-29 12:34:20.216908
3037  2023-11-29 12:34:20.248818
3038  2023-11-29 12:34:20.280698
3039  2023-11-29 12:34:20.312646
3040  2023-11-29 12:34:20.344570
3041  2023-11-29 12:34:20.376475
3042  2023-11-29 12:34:20.408356
3043  2023-11-29 12:34:20.440271
3044  2023-11-29 12:34:20.472187
3045  2023-11-29 12:34:20.505130
3046  2023-11-29 12:34:20.553010
3047  2023-11-29 12:34:20.584937
3048  2023-11-29 12:34:20.616801
3049  2023-11-29 12:34:20.648756
3050  2023-11-29 12:34:20.680786
3051  2023-11-29 12:34:20.712699
3052  2023-11-29 12:34:20.744626
3053  2023-11-29 12:34:20.776488
3054  2023-11-29 12:34:20.808403
3055  2023-11-29 12:34:20.840317
3056  2023-11-29 12:34:20.872232
3057  2023-11-29 12:34:20.905144
3058  2023-11-29 12:34:20.953016
3059  2023-11-29 12:34:20.984931
3060  2023-11-29 12:34:21.016846
3061  2023-11-29 12:34:21.048799
3062  2023-11-29 12:34:21.080715
3063  2023-11-29 12:34:21.113702
3064  2023-11-29 12:34:21.144616
3065  2023-11-29 12:34:21.176566
3066  2023-11-29 12:34:21.208481
3067  2023-11-29 12:34:21.241396
3068  2023-11-29 12:34:21.272446
3069  2023-11-29 12:34:21.304361
3070  2023-11-29 12:34:21.352293
3071  2023-11-29 12:34:21.385185
3072  2023-11-29 12:34:21.417061
3073  2023-11-29 12:34:21.449061
3074  2023-11-29 12:34:21.481052
3075  2023-11-29 12:34:21.512966
3076  2023-11-29 12:34:21.544922
3077  2023-11-29 12:34:21.576872
3078  2023-11-29 12:34:21.608781
3079  2023-11-29 12:34:21.640665
3080  2023-11-29 12:34:21.672672
3081  2023-11-29 12:34:21.704585
3082  2023-11-29 12:34:21.752456
3083  2023-11-29 12:34:21.784368
3084  2023-11-29 12:34:21.816286
3085  2023-11-29 12:34:21.849195
3086  2023-11-29 12:34:21.881118
3087  2023-11-29 12:34:21.913036
3088  2023-11-29 12:34:21.944947
3089  2023-11-29 12:34:21.976822
3090  2023-11-29 12:34:22.008781
3091  2023-11-29 12:34:22.040651
3092  2023-11-29 12:34:22.072566
3093  2023-11-29 12:34:22.104481
3094  2023-11-29 12:34:22.152353
3095  2023-11-29 12:34:22.184302
3096  2023-11-29 12:34:22.216214
3097  2023-11-29 12:34:22.249136
3098  2023-11-29 12:34:22.281009
3099  2023-11-29 12:34:22.312924
3100  2023-11-29 12:34:22.344874
3101  2023-11-29 12:34:22.376753
3102  2023-11-29 12:34:22.408668
3103  2023-11-29 12:34:22.440582
3104  2023-11-29 12:34:22.472497
3105  2023-11-29 12:34:22.504544
3106  2023-11-29 12:34:22.552416
3107  2023-11-29 12:34:22.584372
3108  2023-11-29 12:34:22.616282
3109  2023-11-29 12:34:22.649202
3110  2023-11-29 12:34:22.681072
3111  2023-11-29 12:34:22.712987
3112  2023-11-29 12:34:22.744911
3113  2023-11-29 12:34:22.777846
3114  2023-11-29 12:34:22.808731
3115  2023-11-29 12:34:22.840657
3116  2023-11-29 12:34:22.872560
3117  2023-11-29 12:34:22.905483
3118  2023-11-29 12:34:22.953345
3119  2023-11-29 12:34:22.985260
3120  2023-11-29 12:34:23.017174
3121  2023-11-29 12:34:23.049088
3122  2023-11-29 12:34:23.081045
3123  2023-11-29 12:34:23.112979
3124  2023-11-29 12:34:23.144935
3125  2023-11-29 12:34:23.176850
3126  2023-11-29 12:34:23.208766
3127  2023-11-29 12:34:23.240770
3128  2023-11-29 12:34:23.272746
3129  2023-11-29 12:34:23.304778
3130  2023-11-29 12:34:23.352650
3131  2023-11-29 12:34:23.384565
3132  2023-11-29 12:34:23.416528
3133  2023-11-29 12:34:23.448430
3134  2023-11-29 12:34:23.480309
3135  2023-11-29 12:34:23.512224
3136  2023-11-29 12:34:23.545174
3137  2023-11-29 12:34:23.577050
3138  2023-11-29 12:34:23.608965
3139  2023-11-29 12:34:23.640880
3140  2023-11-29 12:34:23.672855
3141  2023-11-29 12:34:23.704770
3142  2023-11-29 12:34:23.752643
3143  2023-11-29 12:34:23.784556
3144  2023-11-29 12:34:23.816521
3145  2023-11-29 12:34:23.849384
3146  2023-11-29 12:34:23.880341
3147  2023-11-29 12:34:23.912215
3148  2023-11-29 12:34:23.945127
3149  2023-11-29 12:34:23.977042
3150  2023-11-29 12:34:24.008956
3151  2023-11-29 12:34:24.040871
3152  2023-11-29 12:34:24.072786
3153  2023-11-29 12:34:24.104700
3154  2023-11-29 12:34:24.152667
3155  2023-11-29 12:34:24.184662
3156  2023-11-29 12:34:24.216640
3157  2023-11-29 12:34:24.248588
3158  2023-11-29 12:34:24.280644
3159  2023-11-29 12:34:24.312558
3160  2023-11-29 12:34:24.344473
3161  2023-11-29 12:34:24.376392
3162  2023-11-29 12:34:24.408302
3163  2023-11-29 12:34:24.441214
3164  2023-11-29 12:34:24.472280
3165  2023-11-29 12:34:24.504230
3166  2023-11-29 12:34:24.552247
3167  2023-11-29 12:34:24.585160
3168  2023-11-29 12:34:24.617074
3169  2023-11-29 12:34:24.648989
3170  2023-11-29 12:34:24.680904
3171  2023-11-29 12:34:24.712819
3172  2023-11-29 12:34:24.744733
3173  2023-11-29 12:34:24.776649
3174  2023-11-29 12:34:24.808564
3175  2023-11-29 12:34:24.840479
3176  2023-11-29 12:34:24.873392
3177  2023-11-29 12:34:24.905304
3178  2023-11-29 12:34:24.953181
3179  2023-11-29 12:34:24.985099
3180  2023-11-29 12:34:25.017005
3181  2023-11-29 12:34:25.048920
3182  2023-11-29 12:34:25.080865
3183  2023-11-29 12:34:25.112749
3184  2023-11-29 12:34:25.144664
3185  2023-11-29 12:34:25.176578
3186  2023-11-29 12:34:25.208527
3187  2023-11-29 12:34:25.240408
3188  2023-11-29 12:34:25.272322
3189  2023-11-29 12:34:25.304237
3190  2023-11-29 12:34:25.352128
3191  2023-11-29 12:34:25.385039
3192  2023-11-29 12:34:25.416987
3193  2023-11-29 12:34:25.448869
3194  2023-11-29 12:34:25.480783
3195  2023-11-29 12:34:25.512516
3196  2023-11-29 12:34:25.544467
3197  2023-11-29 12:34:25.576345
3198  2023-11-29 12:34:25.608260
3199  2023-11-29 12:34:25.641172
3200  2023-11-29 12:34:25.673127
3201  2023-11-29 12:34:25.705001
3202  2023-11-29 12:34:25.752909
3203  2023-11-29 12:34:25.784788
3204  2023-11-29 12:34:25.816705
3205  2023-11-29 12:34:25.848617
3206  2023-11-29 12:34:25.880572
3207  2023-11-29 12:34:25.912240
3208  2023-11-29 12:34:25.945152
3209  2023-11-29 12:34:25.977154
3210  2023-11-29 12:34:26.009069
3211  2023-11-29 12:34:26.040984
3212  2023-11-29 12:34:26.072898
3213  2023-11-29 12:34:26.104813
3214  2023-11-29 12:34:26.152898
3215  2023-11-29 12:34:26.184813
3216  2023-11-29 12:34:26.216902
3217  2023-11-29 12:34:26.248852
3218  2023-11-29 12:34:26.280819
3219  2023-11-29 12:34:26.312815
3220  2023-11-29 12:34:26.344748
3221  2023-11-29 12:34:26.376663
3222  2023-11-29 12:34:26.408615
3223  2023-11-29 12:34:26.441494
3224  2023-11-29 12:34:26.472408
3225  2023-11-29 12:34:26.504321
3226  2023-11-29 12:34:26.552284
3227  2023-11-29 12:34:26.585256
3228  2023-11-29 12:34:26.617134
3229  2023-11-29 12:34:26.649024
3230  2023-11-29 12:34:26.680939
3231  2023-11-29 12:34:26.712886
3232  2023-11-29 12:34:26.744790
3233  2023-11-29 12:34:26.776671
3234  2023-11-29 12:34:26.808595
3235  2023-11-29 12:34:26.842528
3236  2023-11-29 12:34:26.874441
3237  2023-11-29 12:34:26.906356
3238  2023-11-29 12:34:26.954228
3239  2023-11-29 12:34:26.986143
3240  2023-11-29 12:34:27.018026
3241  2023-11-29 12:34:27.049971
3242  2023-11-29 12:34:27.081899
3243  2023-11-29 12:34:27.113800
3244  2023-11-29 12:34:27.145735
3245  2023-11-29 12:34:27.178628
3246  2023-11-29 12:34:27.209544
3247  2023-11-29 12:34:27.241461
3248  2023-11-29 12:34:27.273375
3249  2023-11-29 12:34:27.306304
3250  2023-11-29 12:34:27.354158
3251  2023-11-29 12:34:27.386095
3252  2023-11-29 12:34:27.418122
3253  2023-11-29 12:34:27.450101
3254  2023-11-29 12:34:27.481974
3255  2023-11-29 12:34:27.513921
3256  2023-11-29 12:34:27.545869
3257  2023-11-29 12:34:27.577816
3258  2023-11-29 12:34:27.609795
3259  2023-11-29 12:34:27.641699
3260  2023-11-29 12:34:27.673629
3261  2023-11-29 12:34:27.706538
3262  2023-11-29 12:34:27.753401
3263  2023-11-29 12:34:27.785314
3264  2023-11-29 12:34:27.817228
3265  2023-11-29 12:34:27.849254
3266  2023-11-29 12:34:27.881172
3267  2023-11-29 12:34:27.913100
3268  2023-11-29 12:34:27.945002
3269  2023-11-29 12:34:27.977878
3270  2023-11-29 12:34:28.009726
3271  2023-11-29 12:34:28.041599
3272  2023-11-29 12:34:28.073540
3273  2023-11-29 12:34:28.105457
3274  2023-11-29 12:34:28.153399
3275  2023-11-29 12:34:28.185311
3276  2023-11-29 12:34:28.217240
3277  2023-11-29 12:34:28.249142
3278  2023-11-29 12:34:28.281058
3279  2023-11-29 12:34:28.312973
3280  2023-11-29 12:34:28.344887
3281  2023-11-29 12:34:28.376803
3282  2023-11-29 12:34:28.408715
3283  2023-11-29 12:34:28.440641
3284  2023-11-29 12:34:28.472548
3285  2023-11-29 12:34:28.505455
3286  2023-11-29 12:34:28.553328
3287  2023-11-29 12:34:28.585212
3288  2023-11-29 12:34:28.617125
3289  2023-11-29 12:34:28.649045
3290  2023-11-29 12:34:28.680960
3291  2023-11-29 12:34:28.712900
3292  2023-11-29 12:34:28.744817
3293  2023-11-29 12:34:28.776724
3294  2023-11-29 12:34:28.808662
3295  2023-11-29 12:34:28.840565
3296  2023-11-29 12:34:28.872476
3297  2023-11-29 12:34:28.904389
3298  2023-11-29 12:34:28.953259
3299  2023-11-29 12:34:28.985182
3300  2023-11-29 12:34:29.017271
3301  2023-11-29 12:34:29.049208
3302  2023-11-29 12:34:29.081158
3303  2023-11-29 12:34:29.113133
3304  2023-11-29 12:34:29.144703
3305  2023-11-29 12:34:29.176617
3306  2023-11-29 12:34:29.208601
3307  2023-11-29 12:34:29.240541
3308  2023-11-29 12:34:29.272430
3309  2023-11-29 12:34:29.306339
3310  2023-11-29 12:34:29.353185
3311  2023-11-29 12:34:29.385100
3312  2023-11-29 12:34:29.417083
3313  2023-11-29 12:34:29.448958
3314  2023-11-29 12:34:29.480880
3315  2023-11-29 12:34:29.512810
3316  2023-11-29 12:34:29.545714
3317  2023-11-29 12:34:29.577745
3318  2023-11-29 12:34:29.609651
3319  2023-11-29 12:34:29.640677
3320  2023-11-29 12:34:29.672591
3321  2023-11-29 12:34:29.705533
3322  2023-11-29 12:34:29.752408
3323  2023-11-29 12:34:29.786328
3324  2023-11-29 12:34:29.818239
3325  2023-11-29 12:34:29.850159
3326  2023-11-29 12:34:29.881066
3327  2023-11-29 12:34:29.912982
3328  2023-11-29 12:34:29.945891
3329  2023-11-29 12:34:29.977807
3330  2023-11-29 12:34:30.009723
3331  2023-11-29 12:34:30.040679
3332  2023-11-29 12:34:30.072652
3333  2023-11-29 12:34:30.105598
3334  2023-11-29 12:34:30.152498
3335  2023-11-29 12:34:30.186401
3336  2023-11-29 12:34:30.218263
3337  2023-11-29 12:34:30.250179
3338  2023-11-29 12:34:30.282095
3339  2023-11-29 12:34:30.313011
3340  2023-11-29 12:34:30.345923
3341  2023-11-29 12:34:30.376880
3342  2023-11-29 12:34:30.409790
3343  2023-11-29 12:34:30.440699
3344  2023-11-29 12:34:30.472615
3345  2023-11-29 12:34:30.506317
3346  2023-11-29 12:34:30.552302
3347  2023-11-29 12:34:30.585198
3348  2023-11-29 12:34:30.617114
3349  2023-11-29 12:34:30.649024
3350  2023-11-29 12:34:30.680944
3351  2023-11-29 12:34:30.712854
3352  2023-11-29 12:34:30.745767
3353  2023-11-29 12:34:30.777680
3354  2023-11-29 12:34:30.809597
3355  2023-11-29 12:34:30.840528
3356  2023-11-29 12:34:30.872431
3357  2023-11-29 12:34:30.905347
3358  2023-11-29 12:34:30.953212
3359  2023-11-29 12:34:30.985130
3360  2023-11-29 12:34:31.017047
3361  2023-11-29 12:34:31.048957
3362  2023-11-29 12:34:31.080871
3363  2023-11-29 12:34:31.112784
3364  2023-11-29 12:34:31.144708
3365  2023-11-29 12:34:31.177616
3366  2023-11-29 12:34:31.209526
3367  2023-11-29 12:34:31.240413
3368  2023-11-29 12:34:31.272328
3369  2023-11-29 12:34:31.305241
3370  2023-11-29 12:34:31.353112
3371  2023-11-29 12:34:31.385057
3372  2023-11-29 12:34:31.416975
3373  2023-11-29 12:34:31.448892
3374  2023-11-29 12:34:31.480803
3375  2023-11-29 12:34:31.512716
3376  2023-11-29 12:34:31.544643
3377  2023-11-29 12:34:31.576545
3378  2023-11-29 12:34:31.608460
3379  2023-11-29 12:34:31.641384
3380  2023-11-29 12:34:31.672296
3381  2023-11-29 12:34:31.705170
3382  2023-11-29 12:34:31.753077
3383  2023-11-29 12:34:31.784988
3384  2023-11-29 12:34:31.816872
3385  2023-11-29 12:34:31.848822
3386  2023-11-29 12:34:31.880733
3387  2023-11-29 12:34:31.912666
3388  2023-11-29 12:34:31.944530
3389  2023-11-29 12:34:31.976476
3390  2023-11-29 12:34:32.008390
3391  2023-11-29 12:34:32.041302
3392  2023-11-29 12:34:32.072223
3393  2023-11-29 12:34:32.105101
3394  2023-11-29 12:34:32.153008
3395  2023-11-29 12:34:32.184439
3396  2023-11-29 12:34:32.216325
3397  2023-11-29 12:34:32.249339
3398  2023-11-29 12:34:32.281248
3399  2023-11-29 12:34:32.313164
3400  2023-11-29 12:34:32.345046
3401  2023-11-29 12:34:32.376961
3402  2023-11-29 12:34:32.408910
3403  2023-11-29 12:34:32.440829
3404  2023-11-29 12:34:32.472705
3405  2023-11-29 12:34:32.504471
3406  2023-11-29 12:34:32.552412
3407  2023-11-29 12:34:32.585320
3408  2023-11-29 12:34:32.617231
3409  2023-11-29 12:34:32.649153
3410  2023-11-29 12:34:32.681067
3411  2023-11-29 12:34:32.712977
3412  2023-11-29 12:34:32.744863
3413  2023-11-29 12:34:32.776806
3414  2023-11-29 12:34:32.808854
3415  2023-11-29 12:34:32.840642
3416  2023-11-29 12:34:32.873560
3417  2023-11-29 12:34:32.905434
3418  2023-11-29 12:34:32.953339
3419  2023-11-29 12:34:32.984257
3420  2023-11-29 12:34:33.017164
3421  2023-11-29 12:34:33.049108
3422  2023-11-29 12:34:33.080965
3423  2023-11-29 12:34:33.112879
3424  2023-11-29 12:34:33.144794
3425  2023-11-29 12:34:33.176738
3426  2023-11-29 12:34:33.208651
3427  2023-11-29 12:34:33.240570
3428  2023-11-29 12:34:33.272491
3429  2023-11-29 12:34:33.304397
3430  2023-11-29 12:34:33.352268
3431  2023-11-29 12:34:33.385167
3432  2023-11-29 12:34:33.417081
3433  2023-11-29 12:34:33.448997
3434  2023-11-29 12:34:33.480998
3435  2023-11-29 12:34:33.512917
3436  2023-11-29 12:34:33.544828
3437  2023-11-29 12:34:33.576743
3438  2023-11-29 12:34:33.608657
3439  2023-11-29 12:34:33.640572
3440  2023-11-29 12:34:33.672481
3441  2023-11-29 12:34:33.704402
3442  2023-11-29 12:34:33.753271
3443  2023-11-29 12:34:33.785186
3444  2023-11-29 12:34:33.817117
3445  2023-11-29 12:34:33.849014
3446  2023-11-29 12:34:33.880929
3447  2023-11-29 12:34:33.912848
3448  2023-11-29 12:34:33.944725
3449  2023-11-29 12:34:33.976687
3450  2023-11-29 12:34:34.008587
3451  2023-11-29 12:34:34.041472
3452  2023-11-29 12:34:34.073381
3453  2023-11-29 12:34:34.104298
3454  2023-11-29 12:34:34.153214
3455  2023-11-29 12:34:34.185125
3456  2023-11-29 12:34:34.217029
3457  2023-11-29 12:34:34.248947
3458  2023-11-29 12:34:34.280828
3459  2023-11-29 12:34:34.312774
3460  2023-11-29 12:34:34.344687
3461  2023-11-29 12:34:34.376617
3462  2023-11-29 12:34:34.408529
3463  2023-11-29 12:34:34.440434
3464  2023-11-29 12:34:34.472354
3465  2023-11-29 12:34:34.504366
3466  2023-11-29 12:34:34.553204
3467  2023-11-29 12:34:34.585153
3468  2023-11-29 12:34:34.617065
3469  2023-11-29 12:34:34.648979
3470  2023-11-29 12:34:34.680897
3471  2023-11-29 12:34:34.712882
3472  2023-11-29 12:34:34.744868
3473  2023-11-29 12:34:34.776750
3474  2023-11-29 12:34:34.808696
3475  2023-11-29 12:34:34.840622
3476  2023-11-29 12:34:34.872526
3477  2023-11-29 12:34:34.904409
3478  2023-11-29 12:34:34.952314
3479  2023-11-29 12:34:34.985226
3480  2023-11-29 12:34:35.017149
3481  2023-11-29 12:34:35.049062
3482  2023-11-29 12:34:35.080971
3483  2023-11-29 12:34:35.112889
3484  2023-11-29 12:34:35.144872
3485  2023-11-29 12:34:35.176823
3486  2023-11-29 12:34:35.208733
3487  2023-11-29 12:34:35.240653
3488  2023-11-29 12:34:35.272562
3489  2023-11-29 12:34:35.304476
3490  2023-11-29 12:34:35.352347
3491  2023-11-29 12:34:35.384262
3492  2023-11-29 12:34:35.417202
3493  2023-11-29 12:34:35.449114
3494  2023-11-29 12:34:35.481005
3495  2023-11-29 12:34:35.512919
3496  2023-11-29 12:34:35.544836
3497  2023-11-29 12:34:35.576749
3498  2023-11-29 12:34:35.608634
3499  2023-11-29 12:34:35.640578
3500  2023-11-29 12:34:35.672495
3501  2023-11-29 12:34:35.704411
3502  2023-11-29 12:34:35.752279
3503  2023-11-29 12:34:35.784193
3504  2023-11-29 12:34:35.817107
3505  2023-11-29 12:34:35.849044
3506  2023-11-29 12:34:35.880938
3507  2023-11-29 12:34:35.912850
3508  2023-11-29 12:34:35.944734
3509  2023-11-29 12:34:35.976661
3510  2023-11-29 12:34:36.008478
3511  2023-11-29 12:34:36.040358
3512  2023-11-29 12:34:36.072269
3513  2023-11-29 12:34:36.104269
3514  2023-11-29 12:34:36.153137
3515  2023-11-29 12:34:36.185050
3516  2023-11-29 12:34:36.216966
3517  2023-11-29 12:34:36.248879
3518  2023-11-29 12:34:36.280795
3519  2023-11-29 12:34:36.312709
3520  2023-11-29 12:34:36.344626
3521  2023-11-29 12:34:36.376542
3522  2023-11-29 12:34:36.408453
3523  2023-11-29 12:34:36.440375
3524  2023-11-29 12:34:36.472283
3525  2023-11-29 12:34:36.504196
3526  2023-11-29 12:34:36.553067
3527  2023-11-29 12:34:36.584986
3528  2023-11-29 12:34:36.616883
3529  2023-11-29 12:34:36.648819
3530  2023-11-29 12:34:36.680728
3531  2023-11-29 12:34:36.712658
3532  2023-11-29 12:34:36.744557
3533  2023-11-29 12:34:36.776438
3534  2023-11-29 12:34:36.808390
3535  2023-11-29 12:34:36.840301
3536  2023-11-29 12:34:36.872220
3537  2023-11-29 12:34:36.905125
3538  2023-11-29 12:34:36.952999
3539  2023-11-29 12:34:36.984915
3540  2023-11-29 12:34:37.016829
3541  2023-11-29 12:34:37.048744
3542  2023-11-29 12:34:37.080678
3543  2023-11-29 12:34:37.112608
3544  2023-11-29 12:34:37.144541
3545  2023-11-29 12:34:37.176435
3546  2023-11-29 12:34:37.208351
3547  2023-11-29 12:34:37.240237
3548  2023-11-29 12:34:37.273177
3549  2023-11-29 12:34:37.305091
3550  2023-11-29 12:34:37.352964
3551  2023-11-29 12:34:37.384878
3552  2023-11-29 12:34:37.416770
3553  2023-11-29 12:34:37.449746
3554  2023-11-29 12:34:37.480694
3555  2023-11-29 12:34:37.512611
3556  2023-11-29 12:34:37.544542
3557  2023-11-29 12:34:37.577436
3558  2023-11-29 12:34:37.608354
3559  2023-11-29 12:34:37.640266
3560  2023-11-29 12:34:37.673194
3561  2023-11-29 12:34:37.705093
