
1  2023-10-19 14:07:06.232351
2  2023-10-19 14:07:06.264304
3  2023-10-19 14:07:06.296232
4  2023-10-19 14:07:06.328123
5  2023-10-19 14:07:06.375967
6  2023-10-19 14:07:06.407881
7  2023-10-19 14:07:06.440826
8  2023-10-19 14:07:06.472757
9  2023-10-19 14:07:06.504624
10  2023-10-19 14:07:06.536537
11  2023-10-19 14:07:06.568452
12  2023-10-19 14:07:06.600397
13  2023-10-19 14:07:06.633280
14  2023-10-19 14:07:06.664196
15  2023-10-19 14:07:06.696147
16  2023-10-19 14:07:06.728063
17  2023-10-19 14:07:06.775928
18  2023-10-19 14:07:06.808840
19  2023-10-19 14:07:06.840761
20  2023-10-19 14:07:06.872638
21  2023-10-19 14:07:06.904554
22  2023-10-19 14:07:06.936496
23  2023-10-19 14:07:06.968382
24  2023-10-19 14:07:07.000299
25  2023-10-19 14:07:07.032249
26  2023-10-19 14:07:07.064126
27  2023-10-19 14:07:07.096068
28  2023-10-19 14:07:07.127955
29  2023-10-19 14:07:07.175827
30  2023-10-19 14:07:07.208739
31  2023-10-19 14:07:07.240654
32  2023-10-19 14:07:07.272601
33  2023-10-19 14:07:07.304518
34  2023-10-19 14:07:07.336398
35  2023-10-19 14:07:07.368352
36  2023-10-19 14:07:07.400258
37  2023-10-19 14:07:07.432141
38  2023-10-19 14:07:07.465054
39  2023-10-19 14:07:07.496970
40  2023-10-19 14:07:07.527886
41  2023-10-19 14:07:07.576755
42  2023-10-19 14:07:07.608700
43  2023-10-19 14:07:07.640618
44  2023-10-19 14:07:07.672499
45  2023-10-19 14:07:07.704414
46  2023-10-19 14:07:07.736358
47  2023-10-19 14:07:07.768277
48  2023-10-19 14:07:07.800157
49  2023-10-19 14:07:07.832108
50  2023-10-19 14:07:07.864015
51  2023-10-19 14:07:07.895901
52  2023-10-19 14:07:07.927844
53  2023-10-19 14:07:07.976685
54  2023-10-19 14:07:08.008632
55  2023-10-19 14:07:08.040514
56  2023-10-19 14:07:08.072429
57  2023-10-19 14:07:08.104376
58  2023-10-19 14:07:08.136258
59  2023-10-19 14:07:08.168172
60  2023-10-19 14:07:08.200133
61  2023-10-19 14:07:08.232030
62  2023-10-19 14:07:08.263943
63  2023-10-19 14:07:08.295831
64  2023-10-19 14:07:08.328784
65  2023-10-19 14:07:08.376615
66  2023-10-19 14:07:08.408530
67  2023-10-19 14:07:08.440445
68  2023-10-19 14:07:08.472359
69  2023-10-19 14:07:08.504274
70  2023-10-19 14:07:08.536188
71  2023-10-19 14:07:08.568103
72  2023-10-19 14:07:08.600045
73  2023-10-19 14:07:08.632931
74  2023-10-19 14:07:08.664847
75  2023-10-19 14:07:08.696791
76  2023-10-19 14:07:08.728703
77  2023-10-19 14:07:08.776547
78  2023-10-19 14:07:08.808461
79  2023-10-19 14:07:08.840376
80  2023-10-19 14:07:08.872291
81  2023-10-19 14:07:08.904205
82  2023-10-19 14:07:08.936120
83  2023-10-19 14:07:08.968034
84  2023-10-19 14:07:08.999977
85  2023-10-19 14:07:09.031889
86  2023-10-19 14:07:09.064801
87  2023-10-19 14:07:09.096716
88  2023-10-19 14:07:09.128632
89  2023-10-19 14:07:09.176523
90  2023-10-19 14:07:09.208391
91  2023-10-19 14:07:09.240306
92  2023-10-19 14:07:09.272221
93  2023-10-19 14:07:09.304174
94  2023-10-19 14:07:09.336076
95  2023-10-19 14:07:09.367992
96  2023-10-19 14:07:09.400878
97  2023-10-19 14:07:09.431819
98  2023-10-19 14:07:09.464747
99  2023-10-19 14:07:09.496651
100  2023-10-19 14:07:09.528564
101  2023-10-19 14:07:09.576407
102  2023-10-19 14:07:09.608322
103  2023-10-19 14:07:09.640237
104  2023-10-19 14:07:09.672153
105  2023-10-19 14:07:09.704066
106  2023-10-19 14:07:09.735980
107  2023-10-19 14:07:09.767922
108  2023-10-19 14:07:09.800808
109  2023-10-19 14:07:09.832748
110  2023-10-19 14:07:09.864678
111  2023-10-19 14:07:09.896598
112  2023-10-19 14:07:09.928466
113  2023-10-19 14:07:09.976337
114  2023-10-19 14:07:10.008252
115  2023-10-19 14:07:10.040167
116  2023-10-19 14:07:10.072081
117  2023-10-19 14:07:10.103996
118  2023-10-19 14:07:10.135911
119  2023-10-19 14:07:10.167851
120  2023-10-19 14:07:10.200777
121  2023-10-19 14:07:10.232678
122  2023-10-19 14:07:10.264596
123  2023-10-19 14:07:10.296515
124  2023-10-19 14:07:10.328437
125  2023-10-19 14:07:10.376268
126  2023-10-19 14:07:10.408182
127  2023-10-19 14:07:10.440097
128  2023-10-19 14:07:10.472012
129  2023-10-19 14:07:10.504925
130  2023-10-19 14:07:10.535841
131  2023-10-19 14:07:10.568782
132  2023-10-19 14:07:10.600712
133  2023-10-19 14:07:10.632613
134  2023-10-19 14:07:10.664497
135  2023-10-19 14:07:10.696440
136  2023-10-19 14:07:10.728362
137  2023-10-19 14:07:10.776198
138  2023-10-19 14:07:10.808111
139  2023-10-19 14:07:10.840065
140  2023-10-19 14:07:10.871942
141  2023-10-19 14:07:10.903857
142  2023-10-19 14:07:10.936769
143  2023-10-19 14:07:10.968682
144  2023-10-19 14:07:11.000601
145  2023-10-19 14:07:11.032549
146  2023-10-19 14:07:11.064427
147  2023-10-19 14:07:11.096346
148  2023-10-19 14:07:11.128315
149  2023-10-19 14:07:11.176156
150  2023-10-19 14:07:11.208043
151  2023-10-19 14:07:11.239958
152  2023-10-19 14:07:11.271872
153  2023-10-19 14:07:11.304784
154  2023-10-19 14:07:11.336699
155  2023-10-19 14:07:11.368650
156  2023-10-19 14:07:11.400562
157  2023-10-19 14:07:11.432472
158  2023-10-19 14:07:11.464392
159  2023-10-19 14:07:11.496308
160  2023-10-19 14:07:11.528228
161  2023-10-19 14:07:11.576058
162  2023-10-19 14:07:11.607973
163  2023-10-19 14:07:11.639887
164  2023-10-19 14:07:11.672799
165  2023-10-19 14:07:11.704716
166  2023-10-19 14:07:11.736629
167  2023-10-19 14:07:11.768572
168  2023-10-19 14:07:11.800493
169  2023-10-19 14:07:11.832401
170  2023-10-19 14:07:11.864291
171  2023-10-19 14:07:11.896228
172  2023-10-19 14:07:11.928151
173  2023-10-19 14:07:11.976988
174  2023-10-19 14:07:12.008901
175  2023-10-19 14:07:12.040816
176  2023-10-19 14:07:12.072731
177  2023-10-19 14:07:12.104645
178  2023-10-19 14:07:12.136560
179  2023-10-19 14:07:12.168502
180  2023-10-19 14:07:12.200389
181  2023-10-19 14:07:12.232332
182  2023-10-19 14:07:12.264247
183  2023-10-19 14:07:12.297129
184  2023-10-19 14:07:12.328085
185  2023-10-19 14:07:12.375958
186  2023-10-19 14:07:12.407833
187  2023-10-19 14:07:12.440746
188  2023-10-19 14:07:12.472702
189  2023-10-19 14:07:12.504608
190  2023-10-19 14:07:12.536539
191  2023-10-19 14:07:12.568403
192  2023-10-19 14:07:12.600361
193  2023-10-19 14:07:12.632239
194  2023-10-19 14:07:12.664185
195  2023-10-19 14:07:12.696089
196  2023-10-19 14:07:12.727977
197  2023-10-19 14:07:12.775849
198  2023-10-19 14:07:12.808788
199  2023-10-19 14:07:12.840704
200  2023-10-19 14:07:12.872590
201  2023-10-19 14:07:12.904505
202  2023-10-19 14:07:12.936419
203  2023-10-19 14:07:12.968371
204  2023-10-19 14:07:13.000282
205  2023-10-19 14:07:13.032192
206  2023-10-19 14:07:13.064104
207  2023-10-19 14:07:13.096019
208  2023-10-19 14:07:13.127907
209  2023-10-19 14:07:13.176777
210  2023-10-19 14:07:13.208692
211  2023-10-19 14:07:13.240606
212  2023-10-19 14:07:13.272521
213  2023-10-19 14:07:13.304435
214  2023-10-19 14:07:13.336350
215  2023-10-19 14:07:13.368299
216  2023-10-19 14:07:13.400222
217  2023-10-19 14:07:13.432119
218  2023-10-19 14:07:13.464034
219  2023-10-19 14:07:13.495974
220  2023-10-19 14:07:13.528836
221  2023-10-19 14:07:13.576707
222  2023-10-19 14:07:13.608669
223  2023-10-19 14:07:13.640574
224  2023-10-19 14:07:13.672449
225  2023-10-19 14:07:13.704399
226  2023-10-19 14:07:13.736315
227  2023-10-19 14:07:13.768224
228  2023-10-19 14:07:13.800145
229  2023-10-19 14:07:13.832071
230  2023-10-19 14:07:13.863987
231  2023-10-19 14:07:13.895886
232  2023-10-19 14:07:13.928799
233  2023-10-19 14:07:13.976637
234  2023-10-19 14:07:14.008613
235  2023-10-19 14:07:14.040508
236  2023-10-19 14:07:14.072415
237  2023-10-19 14:07:14.104330
238  2023-10-19 14:07:14.136238
239  2023-10-19 14:07:14.169160
240  2023-10-19 14:07:14.200038
241  2023-10-19 14:07:14.231958
242  2023-10-19 14:07:14.263896
243  2023-10-19 14:07:14.296782
244  2023-10-19 14:07:14.328726
245  2023-10-19 14:07:14.376567
246  2023-10-19 14:07:14.408516
247  2023-10-19 14:07:14.440430
248  2023-10-19 14:07:14.472343
249  2023-10-19 14:07:14.504273
250  2023-10-19 14:07:14.536178
251  2023-10-19 14:07:14.568098
252  2023-10-19 14:07:14.600967
253  2023-10-19 14:07:14.632883
254  2023-10-19 14:07:14.663840
255  2023-10-19 14:07:14.696740
256  2023-10-19 14:07:14.728624
257  2023-10-19 14:07:14.776534
258  2023-10-19 14:07:14.808453
259  2023-10-19 14:07:14.840369
260  2023-10-19 14:07:14.872273
261  2023-10-19 14:07:14.904193
262  2023-10-19 14:07:14.936101
263  2023-10-19 14:07:14.968018
264  2023-10-19 14:07:14.999959
265  2023-10-19 14:07:15.032812
266  2023-10-19 14:07:15.064778
267  2023-10-19 14:07:15.096676
268  2023-10-19 14:07:15.128590
269  2023-10-19 14:07:15.176462
270  2023-10-19 14:07:15.208377
271  2023-10-19 14:07:15.240256
272  2023-10-19 14:07:15.272205
273  2023-10-19 14:07:15.304121
274  2023-10-19 14:07:15.336031
275  2023-10-19 14:07:15.367945
276  2023-10-19 14:07:15.399865
277  2023-10-19 14:07:15.432772
278  2023-10-19 14:07:15.464689
279  2023-10-19 14:07:15.496606
280  2023-10-19 14:07:15.528520
281  2023-10-19 14:07:15.576397
282  2023-10-19 14:07:15.608306
283  2023-10-19 14:07:15.640222
284  2023-10-19 14:07:15.672141
285  2023-10-19 14:07:15.704058
286  2023-10-19 14:07:15.735963
287  2023-10-19 14:07:15.767884
288  2023-10-19 14:07:15.800761
289  2023-10-19 14:07:15.832703
290  2023-10-19 14:07:15.864613
291  2023-10-19 14:07:15.896501
292  2023-10-19 14:07:15.928453
293  2023-10-19 14:07:15.976288
294  2023-10-19 14:07:16.008256
295  2023-10-19 14:07:16.040163
296  2023-10-19 14:07:16.072074
297  2023-10-19 14:07:16.103981
298  2023-10-19 14:07:16.136859
299  2023-10-19 14:07:16.168774
300  2023-10-19 14:07:16.200715
301  2023-10-19 14:07:16.232638
302  2023-10-19 14:07:16.264552
303  2023-10-19 14:07:16.296432
304  2023-10-19 14:07:16.328380
305  2023-10-19 14:07:16.376218
306  2023-10-19 14:07:16.408170
307  2023-10-19 14:07:16.440090
308  2023-10-19 14:07:16.471998
309  2023-10-19 14:07:16.503912
310  2023-10-19 14:07:16.535818
311  2023-10-19 14:07:16.568735
312  2023-10-19 14:07:16.600650
313  2023-10-19 14:07:16.632562
314  2023-10-19 14:07:16.664499
315  2023-10-19 14:07:16.696362
316  2023-10-19 14:07:16.728316
317  2023-10-19 14:07:16.776196
318  2023-10-19 14:07:16.808112
319  2023-10-19 14:07:16.840025
320  2023-10-19 14:07:16.871891
321  2023-10-19 14:07:16.903839
322  2023-10-19 14:07:16.936722
323  2023-10-19 14:07:16.968661
324  2023-10-19 14:07:17.000587
325  2023-10-19 14:07:17.032492
326  2023-10-19 14:07:17.064411
327  2023-10-19 14:07:17.096321
328  2023-10-19 14:07:17.128270
329  2023-10-19 14:07:17.176113
330  2023-10-19 14:07:17.208038
331  2023-10-19 14:07:17.239947
332  2023-10-19 14:07:17.271862
333  2023-10-19 14:07:17.304769
334  2023-10-19 14:07:17.336680
335  2023-10-19 14:07:17.368589
336  2023-10-19 14:07:17.400479
337  2023-10-19 14:07:17.432431
338  2023-10-19 14:07:17.464361
339  2023-10-19 14:07:17.496249
340  2023-10-19 14:07:17.528172
341  2023-10-19 14:07:17.576043
342  2023-10-19 14:07:17.607964
343  2023-10-19 14:07:17.639867
344  2023-10-19 14:07:17.672783
345  2023-10-19 14:07:17.704692
346  2023-10-19 14:07:17.736607
347  2023-10-19 14:07:17.768557
348  2023-10-19 14:07:17.800409
349  2023-10-19 14:07:17.832366
350  2023-10-19 14:07:17.864276
351  2023-10-19 14:07:17.896199
352  2023-10-19 14:07:17.928072
353  2023-10-19 14:07:17.976937
354  2023-10-19 14:07:18.007884
355  2023-10-19 14:07:18.040797
356  2023-10-19 14:07:18.072712
357  2023-10-19 14:07:18.104636
358  2023-10-19 14:07:18.136546
359  2023-10-19 14:07:18.168455
360  2023-10-19 14:07:18.200367
361  2023-10-19 14:07:18.232310
362  2023-10-19 14:07:18.264196
363  2023-10-19 14:07:18.296082
364  2023-10-19 14:07:18.329031
365  2023-10-19 14:07:18.375906
366  2023-10-19 14:07:18.407825
367  2023-10-19 14:07:18.440731
368  2023-10-19 14:07:18.472644
369  2023-10-19 14:07:18.504525
370  2023-10-19 14:07:18.536468
371  2023-10-19 14:07:18.568358
372  2023-10-19 14:07:18.600308
373  2023-10-19 14:07:18.632212
374  2023-10-19 14:07:18.664130
375  2023-10-19 14:07:18.696057
376  2023-10-19 14:07:18.727963
377  2023-10-19 14:07:18.775842
378  2023-10-19 14:07:18.808761
379  2023-10-19 14:07:18.840666
380  2023-10-19 14:07:18.872577
381  2023-10-19 14:07:18.904485
382  2023-10-19 14:07:18.936408
383  2023-10-19 14:07:18.968326
384  2023-10-19 14:07:19.000243
385  2023-10-19 14:07:19.032113
386  2023-10-19 14:07:19.064054
387  2023-10-19 14:07:19.095945
388  2023-10-19 14:07:19.128857
389  2023-10-19 14:07:19.176781
390  2023-10-19 14:07:19.208642
391  2023-10-19 14:07:19.240589
392  2023-10-19 14:07:19.272519
393  2023-10-19 14:07:19.304387
394  2023-10-19 14:07:19.336302
395  2023-10-19 14:07:19.368252
396  2023-10-19 14:07:19.400156
397  2023-10-19 14:07:19.432045
398  2023-10-19 14:07:19.463959
399  2023-10-19 14:07:19.495908
400  2023-10-19 14:07:19.528814
401  2023-10-19 14:07:19.576659
402  2023-10-19 14:07:19.608573
403  2023-10-19 14:07:19.640521
404  2023-10-19 14:07:19.672401
405  2023-10-19 14:07:19.704345
406  2023-10-19 14:07:19.736273
407  2023-10-19 14:07:19.768204
408  2023-10-19 14:07:19.800112
409  2023-10-19 14:07:19.832018
410  2023-10-19 14:07:19.863930
411  2023-10-19 14:07:19.895830
412  2023-10-19 14:07:19.928750
413  2023-10-19 14:07:19.976588
414  2023-10-19 14:07:20.008532
415  2023-10-19 14:07:20.040451
416  2023-10-19 14:07:20.072366
417  2023-10-19 14:07:20.104276
418  2023-10-19 14:07:20.136160
419  2023-10-19 14:07:20.168102
420  2023-10-19 14:07:20.200026
421  2023-10-19 14:07:20.231943
422  2023-10-19 14:07:20.263845
423  2023-10-19 14:07:20.296794
424  2023-10-19 14:07:20.328683
425  2023-10-19 14:07:20.376556
426  2023-10-19 14:07:20.408470
427  2023-10-19 14:07:20.440385
428  2023-10-19 14:07:20.472294
429  2023-10-19 14:07:20.504217
430  2023-10-19 14:07:20.536120
431  2023-10-19 14:07:20.568035
432  2023-10-19 14:07:20.599952
433  2023-10-19 14:07:20.632833
434  2023-10-19 14:07:20.664772
435  2023-10-19 14:07:20.696663
436  2023-10-19 14:07:20.728619
437  2023-10-19 14:07:20.776484
438  2023-10-19 14:07:20.808402
439  2023-10-19 14:07:20.840279
440  2023-10-19 14:07:20.872230
441  2023-10-19 14:07:20.904140
442  2023-10-19 14:07:20.936050
443  2023-10-19 14:07:20.967982
444  2023-10-19 14:07:20.999852
445  2023-10-19 14:07:21.032798
446  2023-10-19 14:07:21.064703
447  2023-10-19 14:07:21.096618
448  2023-10-19 14:07:21.128540
449  2023-10-19 14:07:21.176413
450  2023-10-19 14:07:21.208354
451  2023-10-19 14:07:21.240242
452  2023-10-19 14:07:21.272148
453  2023-10-19 14:07:21.304069
454  2023-10-19 14:07:21.336950
455  2023-10-19 14:07:21.368897
456  2023-10-19 14:07:21.400811
457  2023-10-19 14:07:21.432693
458  2023-10-19 14:07:21.464607
459  2023-10-19 14:07:21.496521
460  2023-10-19 14:07:21.528480
461  2023-10-19 14:07:21.576364
462  2023-10-19 14:07:21.608271
463  2023-10-19 14:07:21.640179
464  2023-10-19 14:07:21.672088
465  2023-10-19 14:07:21.704965
466  2023-10-19 14:07:21.736879
467  2023-10-19 14:07:21.768828
468  2023-10-19 14:07:21.800738
469  2023-10-19 14:07:21.832624
470  2023-10-19 14:07:21.864538
471  2023-10-19 14:07:21.896453
472  2023-10-19 14:07:21.928367
473  2023-10-19 14:07:21.976238
474  2023-10-19 14:07:22.008183
475  2023-10-19 14:07:22.040126
476  2023-10-19 14:07:22.072985
477  2023-10-19 14:07:22.103937
478  2023-10-19 14:07:22.136809
479  2023-10-19 14:07:22.168724
480  2023-10-19 14:07:22.200639
481  2023-10-19 14:07:22.232589
482  2023-10-19 14:07:22.264502
483  2023-10-19 14:07:22.296382
484  2023-10-19 14:07:22.328297
485  2023-10-19 14:07:22.376205
486  2023-10-19 14:07:22.408084
487  2023-10-19 14:07:22.440041
488  2023-10-19 14:07:22.472955
489  2023-10-19 14:07:22.504825
490  2023-10-19 14:07:22.536742
491  2023-10-19 14:07:22.568654
492  2023-10-19 14:07:22.600600
493  2023-10-19 14:07:22.632484
494  2023-10-19 14:07:22.664399
495  2023-10-19 14:07:22.696313
496  2023-10-19 14:07:22.728256
497  2023-10-19 14:07:22.776219
498  2023-10-19 14:07:22.808112
499  2023-10-19 14:07:22.839987
500  2023-10-19 14:07:22.871929
501  2023-10-19 14:07:22.903851
502  2023-10-19 14:07:22.936729
503  2023-10-19 14:07:22.968683
504  2023-10-19 14:07:23.000587
505  2023-10-19 14:07:23.032499
506  2023-10-19 14:07:23.064416
507  2023-10-19 14:07:23.096339
508  2023-10-19 14:07:23.128247
509  2023-10-19 14:07:23.176123
510  2023-10-19 14:07:23.208059
511  2023-10-19 14:07:23.239917
512  2023-10-19 14:07:23.271860
513  2023-10-19 14:07:23.304780
514  2023-10-19 14:07:23.336704
515  2023-10-19 14:07:23.368616
516  2023-10-19 14:07:23.400530
517  2023-10-19 14:07:23.432402
518  2023-10-19 14:07:23.464317
519  2023-10-19 14:07:23.496282
520  2023-10-19 14:07:23.528175
521  2023-10-19 14:07:23.576019
522  2023-10-19 14:07:23.607933
523  2023-10-19 14:07:23.639847
524  2023-10-19 14:07:23.672760
525  2023-10-19 14:07:23.704714
526  2023-10-19 14:07:23.736619
527  2023-10-19 14:07:23.768530
528  2023-10-19 14:07:23.800420
529  2023-10-19 14:07:23.832367
530  2023-10-19 14:07:23.864280
531  2023-10-19 14:07:23.896161
532  2023-10-19 14:07:23.928076
533  2023-10-19 14:07:23.976946
534  2023-10-19 14:07:24.007893
535  2023-10-19 14:07:24.039828
536  2023-10-19 14:07:24.072718
537  2023-10-19 14:07:24.104631
538  2023-10-19 14:07:24.136565
539  2023-10-19 14:07:24.168477
540  2023-10-19 14:07:24.200383
541  2023-10-19 14:07:24.232298
542  2023-10-19 14:07:24.264178
543  2023-10-19 14:07:24.296118
544  2023-10-19 14:07:24.328048
545  2023-10-19 14:07:24.375913
546  2023-10-19 14:07:24.407819
547  2023-10-19 14:07:24.440734
548  2023-10-19 14:07:24.472625
549  2023-10-19 14:07:24.504540
550  2023-10-19 14:07:24.536493
551  2023-10-19 14:07:24.568405
552  2023-10-19 14:07:24.600329
553  2023-10-19 14:07:24.632234
554  2023-10-19 14:07:24.664108
555  2023-10-19 14:07:24.696058
556  2023-10-19 14:07:24.727936
557  2023-10-19 14:07:24.775837
558  2023-10-19 14:07:24.808747
559  2023-10-19 14:07:24.840680
560  2023-10-19 14:07:24.872578
561  2023-10-19 14:07:24.904509
562  2023-10-19 14:07:24.936417
563  2023-10-19 14:07:24.968320
564  2023-10-19 14:07:25.000252
565  2023-10-19 14:07:25.032151
566  2023-10-19 14:07:25.064076
567  2023-10-19 14:07:25.095968
568  2023-10-19 14:07:25.127872
569  2023-10-19 14:07:25.175807
570  2023-10-19 14:07:25.208689
571  2023-10-19 14:07:25.240606
572  2023-10-19 14:07:25.272527
573  2023-10-19 14:07:25.304400
574  2023-10-19 14:07:25.336347
575  2023-10-19 14:07:25.368273
576  2023-10-19 14:07:25.400144
577  2023-10-19 14:07:25.432095
578  2023-10-19 14:07:25.464006
579  2023-10-19 14:07:25.495922
580  2023-10-19 14:07:25.527829
581  2023-10-19 14:07:25.576710
582  2023-10-19 14:07:25.608616
583  2023-10-19 14:07:25.640532
584  2023-10-19 14:07:25.672448
585  2023-10-19 14:07:25.704378
586  2023-10-19 14:07:25.736293
587  2023-10-19 14:07:25.768191
588  2023-10-19 14:07:25.800095
589  2023-10-19 14:07:25.832026
590  2023-10-19 14:07:25.863941
591  2023-10-19 14:07:25.895839
592  2023-10-19 14:07:25.928763
593  2023-10-19 14:07:25.976599
594  2023-10-19 14:07:26.008541
595  2023-10-19 14:07:26.040461
596  2023-10-19 14:07:26.072342
597  2023-10-19 14:07:26.104306
598  2023-10-19 14:07:26.136221
599  2023-10-19 14:07:26.168118
600  2023-10-19 14:07:26.200056
601  2023-10-19 14:07:26.231951
602  2023-10-19 14:07:26.263873
603  2023-10-19 14:07:26.296740
604  2023-10-19 14:07:26.328689
605  2023-10-19 14:07:26.376527
606  2023-10-19 14:07:26.408483
607  2023-10-19 14:07:26.440387
608  2023-10-19 14:07:26.472298
609  2023-10-19 14:07:26.504213
610  2023-10-19 14:07:26.536150
611  2023-10-19 14:07:26.568056
612  2023-10-19 14:07:26.599929
613  2023-10-19 14:07:26.632843
614  2023-10-19 14:07:26.664775
615  2023-10-19 14:07:26.696703
616  2023-10-19 14:07:26.728590
617  2023-10-19 14:07:26.776486
618  2023-10-19 14:07:26.808404
619  2023-10-19 14:07:26.840288
620  2023-10-19 14:07:26.872238
621  2023-10-19 14:07:26.904151
622  2023-10-19 14:07:26.936073
623  2023-10-19 14:07:26.967946
624  2023-10-19 14:07:26.999936
625  2023-10-19 14:07:27.031828
626  2023-10-19 14:07:27.064733
627  2023-10-19 14:07:27.096601
628  2023-10-19 14:07:27.128545
629  2023-10-19 14:07:27.176427
630  2023-10-19 14:07:27.208336
631  2023-10-19 14:07:27.240254
632  2023-10-19 14:07:27.272169
633  2023-10-19 14:07:27.304051
634  2023-10-19 14:07:27.335961
635  2023-10-19 14:07:27.367909
636  2023-10-19 14:07:27.399833
637  2023-10-19 14:07:27.432736
638  2023-10-19 14:07:27.464618
639  2023-10-19 14:07:27.496535
640  2023-10-19 14:07:27.528483
641  2023-10-19 14:07:27.576356
642  2023-10-19 14:07:27.608267
643  2023-10-19 14:07:27.640191
644  2023-10-19 14:07:27.672063
645  2023-10-19 14:07:27.704003
646  2023-10-19 14:07:27.735927
647  2023-10-19 14:07:27.767839
648  2023-10-19 14:07:27.800753
649  2023-10-19 14:07:27.832668
650  2023-10-19 14:07:27.864595
651  2023-10-19 14:07:27.896504
652  2023-10-19 14:07:27.928421
653  2023-10-19 14:07:27.976249
654  2023-10-19 14:07:28.008202
655  2023-10-19 14:07:28.040130
656  2023-10-19 14:07:28.072026
657  2023-10-19 14:07:28.103933
658  2023-10-19 14:07:28.136819
659  2023-10-19 14:07:28.168759
660  2023-10-19 14:07:28.200647
661  2023-10-19 14:07:28.232563
662  2023-10-19 14:07:28.264512
663  2023-10-19 14:07:28.296393
664  2023-10-19 14:07:28.328347
665  2023-10-19 14:07:28.376210
666  2023-10-19 14:07:28.408129
667  2023-10-19 14:07:28.440043
668  2023-10-19 14:07:28.471955
669  2023-10-19 14:07:28.504881
670  2023-10-19 14:07:28.536789
671  2023-10-19 14:07:28.568664
672  2023-10-19 14:07:28.600582
673  2023-10-19 14:07:28.632494
674  2023-10-19 14:07:28.664436
675  2023-10-19 14:07:28.696357
676  2023-10-19 14:07:28.728274
677  2023-10-19 14:07:28.776108
678  2023-10-19 14:07:28.808027
679  2023-10-19 14:07:28.839937
680  2023-10-19 14:07:28.871890
681  2023-10-19 14:07:28.903804
682  2023-10-19 14:07:28.936680
683  2023-10-19 14:07:28.968636
684  2023-10-19 14:07:29.000509
685  2023-10-19 14:07:29.032463
686  2023-10-19 14:07:29.064374
687  2023-10-19 14:07:29.096281
688  2023-10-19 14:07:29.128199
689  2023-10-19 14:07:29.176075
690  2023-10-19 14:07:29.208013
691  2023-10-19 14:07:29.239872
692  2023-10-19 14:07:29.271820
693  2023-10-19 14:07:29.304722
694  2023-10-19 14:07:29.336652
695  2023-10-19 14:07:29.368565
696  2023-10-19 14:07:29.400487
697  2023-10-19 14:07:29.432387
698  2023-10-19 14:07:29.464313
699  2023-10-19 14:07:29.496227
700  2023-10-19 14:07:29.528147
701  2023-10-19 14:07:29.576029
702  2023-10-19 14:07:29.607931
703  2023-10-19 14:07:29.639833
704  2023-10-19 14:07:29.672752
705  2023-10-19 14:07:29.704662
706  2023-10-19 14:07:29.736541
707  2023-10-19 14:07:29.768496
708  2023-10-19 14:07:29.800406
709  2023-10-19 14:07:29.832282
710  2023-10-19 14:07:29.864231
711  2023-10-19 14:07:29.896155
712  2023-10-19 14:07:29.928066
713  2023-10-19 14:07:29.976897
714  2023-10-19 14:07:30.008846
715  2023-10-19 14:07:30.040754
716  2023-10-19 14:07:30.072678
717  2023-10-19 14:07:30.104594
718  2023-10-19 14:07:30.136499
719  2023-10-19 14:07:30.168433
720  2023-10-19 14:07:30.200327
721  2023-10-19 14:07:30.232271
722  2023-10-19 14:07:30.264155
723  2023-10-19 14:07:30.297067
724  2023-10-19 14:07:30.327996
725  2023-10-19 14:07:30.375829
726  2023-10-19 14:07:30.407775
727  2023-10-19 14:07:30.440692
728  2023-10-19 14:07:30.472605
729  2023-10-19 14:07:30.504489
730  2023-10-19 14:07:30.536440
731  2023-10-19 14:07:30.568355
732  2023-10-19 14:07:30.600268
733  2023-10-19 14:07:30.632172
734  2023-10-19 14:07:30.664115
735  2023-10-19 14:07:30.695999
736  2023-10-19 14:07:30.727933
737  2023-10-19 14:07:30.775820
738  2023-10-19 14:07:30.808716
739  2023-10-19 14:07:30.840627
740  2023-10-19 14:07:30.872537
741  2023-10-19 14:07:30.904415
742  2023-10-19 14:07:30.936357
743  2023-10-19 14:07:30.968246
744  2023-10-19 14:07:31.000209
745  2023-10-19 14:07:31.032108
746  2023-10-19 14:07:31.064061
747  2023-10-19 14:07:31.095937
748  2023-10-19 14:07:31.127861
749  2023-10-19 14:07:31.176732
750  2023-10-19 14:07:31.208652
751  2023-10-19 14:07:31.240556
752  2023-10-19 14:07:31.272468
753  2023-10-19 14:07:31.304383
754  2023-10-19 14:07:31.336293
755  2023-10-19 14:07:31.368220
756  2023-10-19 14:07:31.400122
757  2023-10-19 14:07:31.432043
758  2023-10-19 14:07:31.463945
759  2023-10-19 14:07:31.495885
760  2023-10-19 14:07:31.528795
761  2023-10-19 14:07:31.576661
762  2023-10-19 14:07:31.608566
763  2023-10-19 14:07:31.640489
764  2023-10-19 14:07:31.672404
765  2023-10-19 14:07:31.704314
766  2023-10-19 14:07:31.736227
767  2023-10-19 14:07:31.768135
768  2023-10-19 14:07:31.800050
769  2023-10-19 14:07:31.832959
770  2023-10-19 14:07:31.863876
771  2023-10-19 14:07:31.895791
772  2023-10-19 14:07:31.928706
773  2023-10-19 14:07:31.976548
774  2023-10-19 14:07:32.008463
775  2023-10-19 14:07:32.040377
776  2023-10-19 14:07:32.072337
777  2023-10-19 14:07:32.104248
778  2023-10-19 14:07:32.136157
779  2023-10-19 14:07:32.168065
780  2023-10-19 14:07:32.199989
781  2023-10-19 14:07:32.231900
782  2023-10-19 14:07:32.264811
783  2023-10-19 14:07:32.296718
784  2023-10-19 14:07:32.328634
785  2023-10-19 14:07:32.376509
786  2023-10-19 14:07:32.408436
787  2023-10-19 14:07:32.440348
788  2023-10-19 14:07:32.472248
789  2023-10-19 14:07:32.504137
790  2023-10-19 14:07:32.536077
791  2023-10-19 14:07:32.567994
792  2023-10-19 14:07:32.599929
793  2023-10-19 14:07:32.631799
794  2023-10-19 14:07:32.664746
795  2023-10-19 14:07:32.696661
796  2023-10-19 14:07:32.728580
797  2023-10-19 14:07:32.776444
798  2023-10-19 14:07:32.808354
799  2023-10-19 14:07:32.840309
800  2023-10-19 14:07:32.872182
801  2023-10-19 14:07:32.904132
802  2023-10-19 14:07:32.936019
803  2023-10-19 14:07:32.967933
804  2023-10-19 14:07:32.999863
805  2023-10-19 14:07:33.032766
806  2023-10-19 14:07:33.064669
807  2023-10-19 14:07:33.096581
808  2023-10-19 14:07:33.128467
809  2023-10-19 14:07:33.176402
810  2023-10-19 14:07:33.208295
811  2023-10-19 14:07:33.240204
812  2023-10-19 14:07:33.272120
813  2023-10-19 14:07:33.304033
814  2023-10-19 14:07:33.335939
815  2023-10-19 14:07:33.367872
816  2023-10-19 14:07:33.400778
817  2023-10-19 14:07:33.432689
818  2023-10-19 14:07:33.464596
819  2023-10-19 14:07:33.496514
820  2023-10-19 14:07:33.528428
821  2023-10-19 14:07:33.576298
822  2023-10-19 14:07:33.608211
823  2023-10-19 14:07:33.640139
824  2023-10-19 14:07:33.672041
825  2023-10-19 14:07:33.703967
826  2023-10-19 14:07:33.735867
827  2023-10-19 14:07:33.768797
828  2023-10-19 14:07:33.800707
829  2023-10-19 14:07:33.832584
830  2023-10-19 14:07:33.864527
831  2023-10-19 14:07:33.896443
832  2023-10-19 14:07:33.928333
833  2023-10-19 14:07:33.976199
834  2023-10-19 14:07:34.008117
835  2023-10-19 14:07:34.040054
836  2023-10-19 14:07:34.071986
837  2023-10-19 14:07:34.103906
838  2023-10-19 14:07:34.136771
839  2023-10-19 14:07:34.168683
840  2023-10-19 14:07:34.200599
841  2023-10-19 14:07:34.232552
842  2023-10-19 14:07:34.264463
843  2023-10-19 14:07:34.296379
844  2023-10-19 14:07:34.328295
845  2023-10-19 14:07:34.376163
846  2023-10-19 14:07:34.408088
847  2023-10-19 14:07:34.439995
848  2023-10-19 14:07:34.471903
849  2023-10-19 14:07:34.503823
850  2023-10-19 14:07:34.535750
851  2023-10-19 14:07:34.568649
852  2023-10-19 14:07:34.600556
853  2023-10-19 14:07:34.632481
854  2023-10-19 14:07:34.664397
855  2023-10-19 14:07:34.696312
856  2023-10-19 14:07:34.728187
857  2023-10-19 14:07:34.776090
858  2023-10-19 14:07:34.808013
859  2023-10-19 14:07:34.839925
860  2023-10-19 14:07:34.871846
861  2023-10-19 14:07:34.904758
862  2023-10-19 14:07:34.936668
863  2023-10-19 14:07:34.968577
864  2023-10-19 14:07:35.000497
865  2023-10-19 14:07:35.032404
866  2023-10-19 14:07:35.064326
867  2023-10-19 14:07:35.096239
868  2023-10-19 14:07:35.128171
869  2023-10-19 14:07:35.176025
870  2023-10-19 14:07:35.207935
871  2023-10-19 14:07:35.239853
872  2023-10-19 14:07:35.272758
873  2023-10-19 14:07:35.304673
874  2023-10-19 14:07:35.336561
875  2023-10-19 14:07:35.368475
876  2023-10-19 14:07:35.400432
877  2023-10-19 14:07:35.432344
878  2023-10-19 14:07:35.464224
879  2023-10-19 14:07:35.496183
880  2023-10-19 14:07:35.528082
881  2023-10-19 14:07:35.575954
882  2023-10-19 14:07:35.607886
883  2023-10-19 14:07:35.640776
884  2023-10-19 14:07:35.672695
885  2023-10-19 14:07:35.704619
886  2023-10-19 14:07:35.736542
887  2023-10-19 14:07:35.768432
888  2023-10-19 14:07:35.800371
889  2023-10-19 14:07:35.832278
890  2023-10-19 14:07:35.864184
891  2023-10-19 14:07:35.896100
892  2023-10-19 14:07:35.927978
893  2023-10-19 14:07:35.976850
894  2023-10-19 14:07:36.007809
895  2023-10-19 14:07:36.040715
896  2023-10-19 14:07:36.072637
897  2023-10-19 14:07:36.104552
898  2023-10-19 14:07:36.136449
899  2023-10-19 14:07:36.168370
900  2023-10-19 14:07:36.200321
901  2023-10-19 14:07:36.232199
902  2023-10-19 14:07:36.264115
903  2023-10-19 14:07:36.296029
904  2023-10-19 14:07:36.327907
905  2023-10-19 14:07:36.376817
906  2023-10-19 14:07:36.408751
907  2023-10-19 14:07:36.440608
908  2023-10-19 14:07:36.472522
909  2023-10-19 14:07:36.504462
910  2023-10-19 14:07:36.536387
911  2023-10-19 14:07:36.568309
912  2023-10-19 14:07:36.600222
913  2023-10-19 14:07:36.632121
914  2023-10-19 14:07:36.664047
915  2023-10-19 14:07:36.695966
916  2023-10-19 14:07:36.727839
917  2023-10-19 14:07:36.776743
918  2023-10-19 14:07:36.808672
919  2023-10-19 14:07:36.840572
920  2023-10-19 14:07:36.872478
921  2023-10-19 14:07:36.904399
922  2023-10-19 14:07:36.936310
923  2023-10-19 14:07:36.968226
924  2023-10-19 14:07:37.000146
925  2023-10-19 14:07:37.032052
926  2023-10-19 14:07:37.063987
927  2023-10-19 14:07:37.095883
928  2023-10-19 14:07:37.127769
929  2023-10-19 14:07:37.176686
930  2023-10-19 14:07:37.208581
931  2023-10-19 14:07:37.240497
932  2023-10-19 14:07:37.272411
933  2023-10-19 14:07:37.304342
934  2023-10-19 14:07:37.336244
935  2023-10-19 14:07:37.368154
936  2023-10-19 14:07:37.400090
937  2023-10-19 14:07:37.431985
938  2023-10-19 14:07:37.464868
939  2023-10-19 14:07:37.495813
940  2023-10-19 14:07:37.528697
941  2023-10-19 14:07:37.576605
942  2023-10-19 14:07:37.608516
943  2023-10-19 14:07:37.640434
944  2023-10-19 14:07:37.672350
945  2023-10-19 14:07:37.704264
946  2023-10-19 14:07:37.736170
947  2023-10-19 14:07:37.768085
948  2023-10-19 14:07:37.800015
949  2023-10-19 14:07:37.831922
950  2023-10-19 14:07:37.863826
951  2023-10-19 14:07:37.896746
952  2023-10-19 14:07:37.928652
953  2023-10-19 14:07:37.976498
954  2023-10-19 14:07:38.008452
955  2023-10-19 14:07:38.040354
956  2023-10-19 14:07:38.072304
957  2023-10-19 14:07:38.104196
958  2023-10-19 14:07:38.136100
959  2023-10-19 14:07:38.168014
960  2023-10-19 14:07:38.199935
961  2023-10-19 14:07:38.231859
962  2023-10-19 14:07:38.264763
963  2023-10-19 14:07:38.296680
964  2023-10-19 14:07:38.328562
965  2023-10-19 14:07:38.376462
966  2023-10-19 14:07:38.408344
967  2023-10-19 14:07:38.440304
968  2023-10-19 14:07:38.472220
969  2023-10-19 14:07:38.504114
970  2023-10-19 14:07:38.536030
971  2023-10-19 14:07:38.567968
972  2023-10-19 14:07:38.599857
973  2023-10-19 14:07:38.631779
974  2023-10-19 14:07:38.664699
975  2023-10-19 14:07:38.696607
976  2023-10-19 14:07:38.728487
977  2023-10-19 14:07:38.776358
978  2023-10-19 14:07:38.808300
979  2023-10-19 14:07:38.840228
980  2023-10-19 14:07:38.872103
981  2023-10-19 14:07:38.904056
982  2023-10-19 14:07:38.935978
983  2023-10-19 14:07:38.967873
984  2023-10-19 14:07:38.999788
985  2023-10-19 14:07:39.032708
986  2023-10-19 14:07:39.064624
987  2023-10-19 14:07:39.096544
988  2023-10-19 14:07:39.128418
989  2023-10-19 14:07:39.176328
990  2023-10-19 14:07:39.208241
991  2023-10-19 14:07:39.240119
992  2023-10-19 14:07:39.272062
993  2023-10-19 14:07:39.303983
994  2023-10-19 14:07:39.336863
995  2023-10-19 14:07:39.367815
996  2023-10-19 14:07:39.400724
997  2023-10-19 14:07:39.432629
998  2023-10-19 14:07:39.464554
999  2023-10-19 14:07:39.496462
1000  2023-10-19 14:07:39.528347
1001  2023-10-19 14:07:39.576219
1002  2023-10-19 14:07:39.608168
1003  2023-10-19 14:07:39.640076
1004  2023-10-19 14:07:39.671990
1005  2023-10-19 14:07:39.703912
1006  2023-10-19 14:07:39.735830
1007  2023-10-19 14:07:39.768760
1008  2023-10-19 14:07:39.800647
1009  2023-10-19 14:07:39.832569
1010  2023-10-19 14:07:39.864488
1011  2023-10-19 14:07:39.896362
1012  2023-10-19 14:07:39.928315
1013  2023-10-19 14:07:39.976150
1014  2023-10-19 14:07:40.008102
1015  2023-10-19 14:07:40.040006
1016  2023-10-19 14:07:40.071924
1017  2023-10-19 14:07:40.103809
1018  2023-10-19 14:07:40.136721
1019  2023-10-19 14:07:40.168669
1020  2023-10-19 14:07:40.200576
1021  2023-10-19 14:07:40.232503
1022  2023-10-19 14:07:40.264416
1023  2023-10-19 14:07:40.296292
1024  2023-10-19 14:07:40.328207
1025  2023-10-19 14:07:40.376114
1026  2023-10-19 14:07:40.408029
1027  2023-10-19 14:07:40.439947
1028  2023-10-19 14:07:40.471850
1029  2023-10-19 14:07:40.504771
1030  2023-10-19 14:07:40.536682
1031  2023-10-19 14:07:40.568592
1032  2023-10-19 14:07:40.600506
1033  2023-10-19 14:07:40.632430
1034  2023-10-19 14:07:40.664308
1035  2023-10-19 14:07:40.696223
1036  2023-10-19 14:07:40.728137
1037  2023-10-19 14:07:40.776047
1038  2023-10-19 14:07:40.807962
1039  2023-10-19 14:07:40.839866
1040  2023-10-19 14:07:40.872783
1041  2023-10-19 14:07:40.904694
1042  2023-10-19 14:07:40.936627
1043  2023-10-19 14:07:40.968534
1044  2023-10-19 14:07:41.000447
1045  2023-10-19 14:07:41.032354
1046  2023-10-19 14:07:41.064239
1047  2023-10-19 14:07:41.096182
1048  2023-10-19 14:07:41.128106
1049  2023-10-19 14:07:41.175968
1050  2023-10-19 14:07:41.207881
1051  2023-10-19 14:07:41.240793
1052  2023-10-19 14:07:41.272708
1053  2023-10-19 14:07:41.304601
1054  2023-10-19 14:07:41.336511
1055  2023-10-19 14:07:41.368466
1056  2023-10-19 14:07:41.400381
1057  2023-10-19 14:07:41.432293
1058  2023-10-19 14:07:41.464205
1059  2023-10-19 14:07:41.496083
1060  2023-10-19 14:07:41.527998
1061  2023-10-19 14:07:41.575897
1062  2023-10-19 14:07:41.607826
1063  2023-10-19 14:07:41.640735
1064  2023-10-19 14:07:41.672612
1065  2023-10-19 14:07:41.704557
1066  2023-10-19 14:07:41.736469
1067  2023-10-19 14:07:41.768390
1068  2023-10-19 14:07:41.800272
1069  2023-10-19 14:07:41.832223
1070  2023-10-19 14:07:41.864100
1071  2023-10-19 14:07:41.896013
1072  2023-10-19 14:07:41.927954
1073  2023-10-19 14:07:41.976799
1074  2023-10-19 14:07:42.008759
1075  2023-10-19 14:07:42.040664
1076  2023-10-19 14:07:42.072568
1077  2023-10-19 14:07:42.104457
1078  2023-10-19 14:07:42.136414
1079  2023-10-19 14:07:42.168324
1080  2023-10-19 14:07:42.200229
1081  2023-10-19 14:07:42.232142
1082  2023-10-19 14:07:42.264056
1083  2023-10-19 14:07:42.295943
1084  2023-10-19 14:07:42.327858
1085  2023-10-19 14:07:42.376761
1086  2023-10-19 14:07:42.408670
1087  2023-10-19 14:07:42.440595
1088  2023-10-19 14:07:42.472512
1089  2023-10-19 14:07:42.504389
1090  2023-10-19 14:07:42.536346
1091  2023-10-19 14:07:42.568246
1092  2023-10-19 14:07:42.600172
1093  2023-10-19 14:07:42.632072
1094  2023-10-19 14:07:42.663995
1095  2023-10-19 14:07:42.695874
1096  2023-10-19 14:07:42.728786
1097  2023-10-19 14:07:42.776707
1098  2023-10-19 14:07:42.808624
1099  2023-10-19 14:07:42.840488
1100  2023-10-19 14:07:42.872432
1101  2023-10-19 14:07:42.904345
1102  2023-10-19 14:07:42.936261
1103  2023-10-19 14:07:42.969179
1104  2023-10-19 14:07:43.000096
1105  2023-10-19 14:07:43.032011
1106  2023-10-19 14:07:43.063917
1107  2023-10-19 14:07:43.095831
1108  2023-10-19 14:07:43.128752
1109  2023-10-19 14:07:43.176618
1110  2023-10-19 14:07:43.208529
1111  2023-10-19 14:07:43.240447
1112  2023-10-19 14:07:43.272360
1113  2023-10-19 14:07:43.304284
1114  2023-10-19 14:07:43.336194
1115  2023-10-19 14:07:43.368076
1116  2023-10-19 14:07:43.400043
1117  2023-10-19 14:07:43.431932
1118  2023-10-19 14:07:43.463847
1119  2023-10-19 14:07:43.496732
1120  2023-10-19 14:07:43.528646
1121  2023-10-19 14:07:43.576557
1122  2023-10-19 14:07:43.608462
1123  2023-10-19 14:07:43.640386
1124  2023-10-19 14:07:43.672309
1125  2023-10-19 14:07:43.704212
1126  2023-10-19 14:07:43.736121
1127  2023-10-19 14:07:43.768037
1128  2023-10-19 14:07:43.799959
1129  2023-10-19 14:07:43.831870
1130  2023-10-19 14:07:43.864747
1131  2023-10-19 14:07:43.896662
1132  2023-10-19 14:07:43.928576
1133  2023-10-19 14:07:43.976449
1134  2023-10-19 14:07:44.008397
1135  2023-10-19 14:07:44.040315
1136  2023-10-19 14:07:44.072222
1137  2023-10-19 14:07:44.104137
1138  2023-10-19 14:07:44.136064
1139  2023-10-19 14:07:44.167965
1140  2023-10-19 14:07:44.199890
1141  2023-10-19 14:07:44.231792
1142  2023-10-19 14:07:44.264677
1143  2023-10-19 14:07:44.296593
1144  2023-10-19 14:07:44.328510
1145  2023-10-19 14:07:44.376410
1146  2023-10-19 14:07:44.408323
1147  2023-10-19 14:07:44.440240
1148  2023-10-19 14:07:44.472160
1149  2023-10-19 14:07:44.504039
1150  2023-10-19 14:07:44.536004
1151  2023-10-19 14:07:44.567898
1152  2023-10-19 14:07:44.599814
1153  2023-10-19 14:07:44.632695
1154  2023-10-19 14:07:44.664648
1155  2023-10-19 14:07:44.696593
1156  2023-10-19 14:07:44.728481
1157  2023-10-19 14:07:44.776356
1158  2023-10-19 14:07:44.808269
1159  2023-10-19 14:07:44.840140
1160  2023-10-19 14:07:44.872090
1161  2023-10-19 14:07:44.904004
1162  2023-10-19 14:07:44.935922
1163  2023-10-19 14:07:44.968795
1164  2023-10-19 14:07:45.000709
1165  2023-10-19 14:07:45.032629
1166  2023-10-19 14:07:45.064582
1167  2023-10-19 14:07:45.096497
1168  2023-10-19 14:07:45.128406
1169  2023-10-19 14:07:45.176278
1170  2023-10-19 14:07:45.209188
1171  2023-10-19 14:07:45.241068
1172  2023-10-19 14:07:45.273013
1173  2023-10-19 14:07:45.304897
1174  2023-10-19 14:07:45.336811
1175  2023-10-19 14:07:45.368726
1176  2023-10-19 14:07:45.400676
1177  2023-10-19 14:07:45.432583
1178  2023-10-19 14:07:45.464507
1179  2023-10-19 14:07:45.496426
1180  2023-10-19 14:07:45.528298
1181  2023-10-19 14:07:45.576216
1182  2023-10-19 14:07:45.609110
1183  2023-10-19 14:07:45.641025
1184  2023-10-19 14:07:45.672947
1185  2023-10-19 14:07:45.704854
1186  2023-10-19 14:07:45.736784
1187  2023-10-19 14:07:45.768657
1188  2023-10-19 14:07:45.800604
1189  2023-10-19 14:07:45.832484
1190  2023-10-19 14:07:45.864435
1191  2023-10-19 14:07:45.896314
1192  2023-10-19 14:07:45.928272
1193  2023-10-19 14:07:45.977148
1194  2023-10-19 14:07:46.009048
1195  2023-10-19 14:07:46.040928
1196  2023-10-19 14:07:46.071871
1197  2023-10-19 14:07:46.104800
1198  2023-10-19 14:07:46.136673
1199  2023-10-19 14:07:46.168585
1200  2023-10-19 14:07:46.200537
1201  2023-10-19 14:07:46.232455
1202  2023-10-19 14:07:46.264368
1203  2023-10-19 14:07:46.296245
1204  2023-10-19 14:07:46.328190
1205  2023-10-19 14:07:46.376032
1206  2023-10-19 14:07:46.407947
1207  2023-10-19 14:07:46.439887
1208  2023-10-19 14:07:46.472774
1209  2023-10-19 14:07:46.504688
1210  2023-10-19 14:07:46.536602
1211  2023-10-19 14:07:46.568573
1212  2023-10-19 14:07:46.600433
1213  2023-10-19 14:07:46.632380
1214  2023-10-19 14:07:46.665287
1215  2023-10-19 14:07:46.697200
1216  2023-10-19 14:07:46.728089
1217  2023-10-19 14:07:46.775997
1218  2023-10-19 14:07:46.807875
1219  2023-10-19 14:07:46.839792
1220  2023-10-19 14:07:46.872703
1221  2023-10-19 14:07:46.904617
1222  2023-10-19 14:07:46.936572
1223  2023-10-19 14:07:46.968447
1224  2023-10-19 14:07:47.000401
1225  2023-10-19 14:07:47.032276
1226  2023-10-19 14:07:47.064241
1227  2023-10-19 14:07:47.096142
1228  2023-10-19 14:07:47.128018
1229  2023-10-19 14:07:47.176918
1230  2023-10-19 14:07:47.207846
1231  2023-10-19 14:07:47.240717
1232  2023-10-19 14:07:47.272667
1233  2023-10-19 14:07:47.304548
1234  2023-10-19 14:07:47.336476
1235  2023-10-19 14:07:47.368409
1236  2023-10-19 14:07:47.400322
1237  2023-10-19 14:07:47.432206
1238  2023-10-19 14:07:47.464121
1239  2023-10-19 14:07:47.496044
1240  2023-10-19 14:07:47.527985
1241  2023-10-19 14:07:47.575856
1242  2023-10-19 14:07:47.608785
1243  2023-10-19 14:07:47.640647
1244  2023-10-19 14:07:47.672596
1245  2023-10-19 14:07:47.704515
1246  2023-10-19 14:07:47.736423
1247  2023-10-19 14:07:47.768335
1248  2023-10-19 14:07:47.800222
1249  2023-10-19 14:07:47.832184
1250  2023-10-19 14:07:47.864095
1251  2023-10-19 14:07:47.895966
1252  2023-10-19 14:07:47.927879
1253  2023-10-19 14:07:47.976749
1254  2023-10-19 14:07:48.008720
1255  2023-10-19 14:07:48.040625
1256  2023-10-19 14:07:48.072519
1257  2023-10-19 14:07:48.104437
1258  2023-10-19 14:07:48.136323
1259  2023-10-19 14:07:48.168292
1260  2023-10-19 14:07:48.200152
1261  2023-10-19 14:07:48.232109
1262  2023-10-19 14:07:48.264035
1263  2023-10-19 14:07:48.295929
1264  2023-10-19 14:07:48.328808
1265  2023-10-19 14:07:48.376680
1266  2023-10-19 14:07:48.408594
1267  2023-10-19 14:07:48.440546
1268  2023-10-19 14:07:48.472461
1269  2023-10-19 14:07:48.504339
1270  2023-10-19 14:07:48.536281
1271  2023-10-19 14:07:48.568204
1272  2023-10-19 14:07:48.600119
1273  2023-10-19 14:07:48.632036
1274  2023-10-19 14:07:48.663937
1275  2023-10-19 14:07:48.695857
1276  2023-10-19 14:07:48.728743
1277  2023-10-19 14:07:48.776610
1278  2023-10-19 14:07:48.808561
1279  2023-10-19 14:07:48.840438
1280  2023-10-19 14:07:48.872389
1281  2023-10-19 14:07:48.904301
1282  2023-10-19 14:07:48.936221
1283  2023-10-19 14:07:48.968127
1284  2023-10-19 14:07:49.001009
1285  2023-10-19 14:07:49.031963
1286  2023-10-19 14:07:49.064839
1287  2023-10-19 14:07:49.095783
1288  2023-10-19 14:07:49.128667
1289  2023-10-19 14:07:49.176544
1290  2023-10-19 14:07:49.208455
1291  2023-10-19 14:07:49.240370
1292  2023-10-19 14:07:49.272325
1293  2023-10-19 14:07:49.304244
1294  2023-10-19 14:07:49.336148
1295  2023-10-19 14:07:49.368067
1296  2023-10-19 14:07:49.399982
1297  2023-10-19 14:07:49.431893
1298  2023-10-19 14:07:49.464849
1299  2023-10-19 14:07:49.496719
1300  2023-10-19 14:07:49.528598
1301  2023-10-19 14:07:49.576470
1302  2023-10-19 14:07:49.608385
1303  2023-10-19 14:07:49.640348
1304  2023-10-19 14:07:49.672290
1305  2023-10-19 14:07:49.704205
1306  2023-10-19 14:07:49.736121
1307  2023-10-19 14:07:49.768034
1308  2023-10-19 14:07:49.799949
1309  2023-10-19 14:07:49.832862
1310  2023-10-19 14:07:49.863778
1311  2023-10-19 14:07:49.896691
1312  2023-10-19 14:07:49.928606
1313  2023-10-19 14:07:49.976478
1314  2023-10-19 14:07:50.008392
1315  2023-10-19 14:07:50.040306
1316  2023-10-19 14:07:50.072221
1317  2023-10-19 14:07:50.104135
1318  2023-10-19 14:07:50.136050
1319  2023-10-19 14:07:50.167965
1320  2023-10-19 14:07:50.199880
1321  2023-10-19 14:07:50.231799
1322  2023-10-19 14:07:50.264706
1323  2023-10-19 14:07:50.296621
1324  2023-10-19 14:07:50.328536
1325  2023-10-19 14:07:50.376408
1326  2023-10-19 14:07:50.408322
1327  2023-10-19 14:07:50.440236
1328  2023-10-19 14:07:50.472151
1329  2023-10-19 14:07:50.504066
1330  2023-10-19 14:07:50.535985
1331  2023-10-19 14:07:50.567895
1332  2023-10-19 14:07:50.600807
1333  2023-10-19 14:07:50.632721
1334  2023-10-19 14:07:50.664636
1335  2023-10-19 14:07:50.696561
1336  2023-10-19 14:07:50.728543
1337  2023-10-19 14:07:50.776409
1338  2023-10-19 14:07:50.808295
1339  2023-10-19 14:07:50.840253
1340  2023-10-19 14:07:50.872125
1341  2023-10-19 14:07:50.904094
1342  2023-10-19 14:07:50.935994
1343  2023-10-19 14:07:50.968866
1344  2023-10-19 14:07:50.999828
1345  2023-10-19 14:07:51.032694
1346  2023-10-19 14:07:51.064644
1347  2023-10-19 14:07:51.096524
1348  2023-10-19 14:07:51.128440
1349  2023-10-19 14:07:51.176310
1350  2023-10-19 14:07:51.208301
1351  2023-10-19 14:07:51.240179
1352  2023-10-19 14:07:51.272083
1353  2023-10-19 14:07:51.303969
1354  2023-10-19 14:07:51.335885
1355  2023-10-19 14:07:51.368822
1356  2023-10-19 14:07:51.400710
1357  2023-10-19 14:07:51.432661
1358  2023-10-19 14:07:51.464539
1359  2023-10-19 14:07:51.496485
1360  2023-10-19 14:07:51.528416
1361  2023-10-19 14:07:51.576291
1362  2023-10-19 14:07:51.608184
1363  2023-10-19 14:07:51.640098
1364  2023-10-19 14:07:51.672014
1365  2023-10-19 14:07:51.703938
1366  2023-10-19 14:07:51.735848
1367  2023-10-19 14:07:51.767771
1368  2023-10-19 14:07:51.800667
1369  2023-10-19 14:07:51.832554
1370  2023-10-19 14:07:51.864499
1371  2023-10-19 14:07:51.896416
1372  2023-10-19 14:07:51.928301
1373  2023-10-19 14:07:51.976172
1374  2023-10-19 14:07:52.008137
1375  2023-10-19 14:07:52.040034
1376  2023-10-19 14:07:52.071944
1377  2023-10-19 14:07:52.103860
1378  2023-10-19 14:07:52.135787
1379  2023-10-19 14:07:52.168692
1380  2023-10-19 14:07:52.200597
1381  2023-10-19 14:07:52.232518
1382  2023-10-19 14:07:52.264399
1383  2023-10-19 14:07:52.296351
1384  2023-10-19 14:07:52.328276
1385  2023-10-19 14:07:52.376146
1386  2023-10-19 14:07:52.408060
1387  2023-10-19 14:07:52.439963
1388  2023-10-19 14:07:52.471872
1389  2023-10-19 14:07:52.504757
1390  2023-10-19 14:07:52.536712
1391  2023-10-19 14:07:52.568614
1392  2023-10-19 14:07:52.600502
1393  2023-10-19 14:07:52.632417
1394  2023-10-19 14:07:52.664330
1395  2023-10-19 14:07:52.696274
1396  2023-10-19 14:07:52.728186
1397  2023-10-19 14:07:52.776071
1398  2023-10-19 14:07:52.807947
1399  2023-10-19 14:07:52.839861
1400  2023-10-19 14:07:52.872799
1401  2023-10-19 14:07:52.904724
1402  2023-10-19 14:07:52.936636
1403  2023-10-19 14:07:52.968517
1404  2023-10-19 14:07:53.000433
1405  2023-10-19 14:07:53.032376
1406  2023-10-19 14:07:53.064260
1407  2023-10-19 14:07:53.096202
1408  2023-10-19 14:07:53.128091
1409  2023-10-19 14:07:53.176960
1410  2023-10-19 14:07:53.208903
1411  2023-10-19 14:07:53.239791
1412  2023-10-19 14:07:53.272734
1413  2023-10-19 14:07:53.304660
1414  2023-10-19 14:07:53.336532
1415  2023-10-19 14:07:53.368496
1416  2023-10-19 14:07:53.400404
1417  2023-10-19 14:07:53.432314
1418  2023-10-19 14:07:53.464219
1419  2023-10-19 14:07:53.496133
1420  2023-10-19 14:07:53.528066
1421  2023-10-19 14:07:53.575921
1422  2023-10-19 14:07:53.607843
1423  2023-10-19 14:07:53.640745
1424  2023-10-19 14:07:53.672686
1425  2023-10-19 14:07:53.704581
1426  2023-10-19 14:07:53.736492
1427  2023-10-19 14:07:53.768416
1428  2023-10-19 14:07:53.800327
1429  2023-10-19 14:07:53.832248
1430  2023-10-19 14:07:53.864160
1431  2023-10-19 14:07:53.896062
1432  2023-10-19 14:07:53.927986
1433  2023-10-19 14:07:53.976820
1434  2023-10-19 14:07:54.008761
1435  2023-10-19 14:07:54.040679
1436  2023-10-19 14:07:54.072596
1437  2023-10-19 14:07:54.104479
1438  2023-10-19 14:07:54.136395
1439  2023-10-19 14:07:54.168338
1440  2023-10-19 14:07:54.200256
1441  2023-10-19 14:07:54.232164
1442  2023-10-19 14:07:54.264080
1443  2023-10-19 14:07:54.296004
1444  2023-10-19 14:07:54.327907
1445  2023-10-19 14:07:54.376780
1446  2023-10-19 14:07:54.408700
1447  2023-10-19 14:07:54.440609
1448  2023-10-19 14:07:54.472528
1449  2023-10-19 14:07:54.504438
1450  2023-10-19 14:07:54.536352
1451  2023-10-19 14:07:54.568282
1452  2023-10-19 14:07:54.600220
1453  2023-10-19 14:07:54.632105
1454  2023-10-19 14:07:54.664020
1455  2023-10-19 14:07:54.695927
1456  2023-10-19 14:07:54.727846
1457  2023-10-19 14:07:54.776680
1458  2023-10-19 14:07:54.808629
1459  2023-10-19 14:07:54.840510
1460  2023-10-19 14:07:54.872461
1461  2023-10-19 14:07:54.904369
1462  2023-10-19 14:07:54.936282
1463  2023-10-19 14:07:54.968196
1464  2023-10-19 14:07:55.001090
1465  2023-10-19 14:07:55.032044
1466  2023-10-19 14:07:55.063941
1467  2023-10-19 14:07:55.095855
1468  2023-10-19 14:07:55.128756
1469  2023-10-19 14:07:55.176644
1470  2023-10-19 14:07:55.208527
1471  2023-10-19 14:07:55.240485
1472  2023-10-19 14:07:55.272382
1473  2023-10-19 14:07:55.304268
1474  2023-10-19 14:07:55.336186
1475  2023-10-19 14:07:55.368130
1476  2023-10-19 14:07:55.400045
1477  2023-10-19 14:07:55.431927
1478  2023-10-19 14:07:55.463887
1479  2023-10-19 14:07:55.495783
1480  2023-10-19 14:07:55.528695
1481  2023-10-19 14:07:55.576569
1482  2023-10-19 14:07:55.608486
1483  2023-10-19 14:07:55.640430
1484  2023-10-19 14:07:55.672290
1485  2023-10-19 14:07:55.704236
1486  2023-10-19 14:07:55.736143
1487  2023-10-19 14:07:55.768073
1488  2023-10-19 14:07:55.799969
1489  2023-10-19 14:07:55.831887
1490  2023-10-19 14:07:55.864796
1491  2023-10-19 14:07:55.896728
1492  2023-10-19 14:07:55.928634
1493  2023-10-19 14:07:55.976471
1494  2023-10-19 14:07:56.008389
1495  2023-10-19 14:07:56.040329
1496  2023-10-19 14:07:56.072244
1497  2023-10-19 14:07:56.104166
1498  2023-10-19 14:07:56.136078
1499  2023-10-19 14:07:56.167986
1500  2023-10-19 14:07:56.199900
1501  2023-10-19 14:07:56.231789
1502  2023-10-19 14:07:56.264706
1503  2023-10-19 14:07:56.296649
1504  2023-10-19 14:07:56.328558
1505  2023-10-19 14:07:56.376457
1506  2023-10-19 14:07:56.408316
1507  2023-10-19 14:07:56.440269
1508  2023-10-19 14:07:56.472186
1509  2023-10-19 14:07:56.504088
1510  2023-10-19 14:07:56.536000
1511  2023-10-19 14:07:56.567916
1512  2023-10-19 14:07:56.599831
1513  2023-10-19 14:07:56.631745
1514  2023-10-19 14:07:56.664662
1515  2023-10-19 14:07:56.696591
1516  2023-10-19 14:07:56.728486
1517  2023-10-19 14:07:56.776360
1518  2023-10-19 14:07:56.808275
1519  2023-10-19 14:07:56.840195
1520  2023-10-19 14:07:56.872116
1521  2023-10-19 14:07:56.904021
1522  2023-10-19 14:07:56.935938
1523  2023-10-19 14:07:56.967858
1524  2023-10-19 14:07:56.999760
1525  2023-10-19 14:07:57.032675
1526  2023-10-19 14:07:57.064598
1527  2023-10-19 14:07:57.096510
1528  2023-10-19 14:07:57.128426
1529  2023-10-19 14:07:57.176290
1530  2023-10-19 14:07:57.208205
1531  2023-10-19 14:07:57.240130
1532  2023-10-19 14:07:57.272010
1533  2023-10-19 14:07:57.303961
1534  2023-10-19 14:07:57.335875
1535  2023-10-19 14:07:57.368783
1536  2023-10-19 14:07:57.400714
1537  2023-10-19 14:07:57.432635
1538  2023-10-19 14:07:57.464491
1539  2023-10-19 14:07:57.496434
1540  2023-10-19 14:07:57.528349
1541  2023-10-19 14:07:57.576221
1542  2023-10-19 14:07:57.608136
1543  2023-10-19 14:07:57.640048
1544  2023-10-19 14:07:57.671972
1545  2023-10-19 14:07:57.703884
1546  2023-10-19 14:07:57.735797
1547  2023-10-19 14:07:57.768709
1548  2023-10-19 14:07:57.800592
1549  2023-10-19 14:07:57.832506
1550  2023-10-19 14:07:57.864461
1551  2023-10-19 14:07:57.896376
1552  2023-10-19 14:07:57.928281
1553  2023-10-19 14:07:57.976122
1554  2023-10-19 14:07:58.008067
1555  2023-10-19 14:07:58.039992
1556  2023-10-19 14:07:58.071895
1557  2023-10-19 14:07:58.103819
1558  2023-10-19 14:07:58.136737
1559  2023-10-19 14:07:58.168664
1560  2023-10-19 14:07:58.200563
1561  2023-10-19 14:07:58.232471
1562  2023-10-19 14:07:58.264388
1563  2023-10-19 14:07:58.296301
1564  2023-10-19 14:07:58.328237
1565  2023-10-19 14:07:58.376100
1566  2023-10-19 14:07:58.407993
1567  2023-10-19 14:07:58.439911
1568  2023-10-19 14:07:58.471823
1569  2023-10-19 14:07:58.504740
1570  2023-10-19 14:07:58.536663
1571  2023-10-19 14:07:58.568576
1572  2023-10-19 14:07:58.600499
1573  2023-10-19 14:07:58.632422
1574  2023-10-19 14:07:58.664327
1575  2023-10-19 14:07:58.696232
1576  2023-10-19 14:07:58.728148
1577  2023-10-19 14:07:58.776024
1578  2023-10-19 14:07:58.807901
1579  2023-10-19 14:07:58.839848
1580  2023-10-19 14:07:58.872724
1581  2023-10-19 14:07:58.904675
1582  2023-10-19 14:07:58.936593
1583  2023-10-19 14:07:58.968509
1584  2023-10-19 14:07:59.000430
1585  2023-10-19 14:07:59.032330
1586  2023-10-19 14:07:59.064267
1587  2023-10-19 14:07:59.096162
1588  2023-10-19 14:07:59.128041
1589  2023-10-19 14:07:59.175913
1590  2023-10-19 14:07:59.207827
1591  2023-10-19 14:07:59.239784
1592  2023-10-19 14:07:59.272684
1593  2023-10-19 14:07:59.304603
1594  2023-10-19 14:07:59.336510
1595  2023-10-19 14:07:59.368434
1596  2023-10-19 14:07:59.400349
1597  2023-10-19 14:07:59.432263
1598  2023-10-19 14:07:59.464145
1599  2023-10-19 14:07:59.496108
1600  2023-10-19 14:07:59.528012
1601  2023-10-19 14:07:59.575883
1602  2023-10-19 14:07:59.607783
1603  2023-10-19 14:07:59.640700
1604  2023-10-19 14:07:59.672588
1605  2023-10-19 14:07:59.704527
1606  2023-10-19 14:07:59.736448
1607  2023-10-19 14:07:59.768366
1608  2023-10-19 14:07:59.800287
1609  2023-10-19 14:07:59.832200
1610  2023-10-19 14:07:59.864121
1611  2023-10-19 14:07:59.896035
1612  2023-10-19 14:07:59.927944
1613  2023-10-19 14:07:59.976770
1614  2023-10-19 14:08:00.008689
1615  2023-10-19 14:08:00.040604
1616  2023-10-19 14:08:00.072514
1617  2023-10-19 14:08:00.104460
1618  2023-10-19 14:08:00.136378
1619  2023-10-19 14:08:00.168304
1620  2023-10-19 14:08:00.200223
1621  2023-10-19 14:08:00.232128
1622  2023-10-19 14:08:00.264039
1623  2023-10-19 14:08:00.295959
1624  2023-10-19 14:08:00.327868
1625  2023-10-19 14:08:00.375743
1626  2023-10-19 14:08:00.408654
1627  2023-10-19 14:08:00.440559
1628  2023-10-19 14:08:00.472484
1629  2023-10-19 14:08:00.504399
1630  2023-10-19 14:08:00.536274
1631  2023-10-19 14:08:00.568229
1632  2023-10-19 14:08:00.600137
1633  2023-10-19 14:08:00.632053
1634  2023-10-19 14:08:00.663976
1635  2023-10-19 14:08:00.695890
1636  2023-10-19 14:08:00.727795
1637  2023-10-19 14:08:00.776666
1638  2023-10-19 14:08:00.808580
1639  2023-10-19 14:08:00.840487
1640  2023-10-19 14:08:00.872415
1641  2023-10-19 14:08:00.904336
1642  2023-10-19 14:08:00.936249
1643  2023-10-19 14:08:00.968148
1644  2023-10-19 14:08:01.000067
1645  2023-10-19 14:08:01.032009
1646  2023-10-19 14:08:01.063862
1647  2023-10-19 14:08:01.095813
1648  2023-10-19 14:08:01.128722
1649  2023-10-19 14:08:01.176565
1650  2023-10-19 14:08:01.208511
1651  2023-10-19 14:08:01.240419
1652  2023-10-19 14:08:01.272351
1653  2023-10-19 14:08:01.304223
1654  2023-10-19 14:08:01.336164
1655  2023-10-19 14:08:01.368082
1656  2023-10-19 14:08:01.400010
1657  2023-10-19 14:08:01.431882
1658  2023-10-19 14:08:01.463796
1659  2023-10-19 14:08:01.496758
1660  2023-10-19 14:08:01.528659
1661  2023-10-19 14:08:01.576521
1662  2023-10-19 14:08:01.608444
1663  2023-10-19 14:08:01.640350
1664  2023-10-19 14:08:01.672236
1665  2023-10-19 14:08:01.704190
1666  2023-10-19 14:08:01.736097
1667  2023-10-19 14:08:01.768016
1668  2023-10-19 14:08:01.799938
1669  2023-10-19 14:08:01.831851
1670  2023-10-19 14:08:01.864790
1671  2023-10-19 14:08:01.896669
1672  2023-10-19 14:08:01.928583
1673  2023-10-19 14:08:01.976421
1674  2023-10-19 14:08:02.008367
1675  2023-10-19 14:08:02.040297
1676  2023-10-19 14:08:02.072166
1677  2023-10-19 14:08:02.104109
1678  2023-10-19 14:08:02.136035
1679  2023-10-19 14:08:02.167908
1680  2023-10-19 14:08:02.200872
1681  2023-10-19 14:08:02.232769
1682  2023-10-19 14:08:02.264698
1683  2023-10-19 14:08:02.296602
1684  2023-10-19 14:08:02.328514
1685  2023-10-19 14:08:02.376392
1686  2023-10-19 14:08:02.408321
1687  2023-10-19 14:08:02.440215
1688  2023-10-19 14:08:02.472096
1689  2023-10-19 14:08:02.505008
1690  2023-10-19 14:08:02.535992
1691  2023-10-19 14:08:02.567873
1692  2023-10-19 14:08:02.599797
1693  2023-10-19 14:08:02.632667
1694  2023-10-19 14:08:02.664622
1695  2023-10-19 14:08:02.696495
1696  2023-10-19 14:08:02.728415
1697  2023-10-19 14:08:02.776311
1698  2023-10-19 14:08:02.808248
1699  2023-10-19 14:08:02.840138
1700  2023-10-19 14:08:02.872065
1701  2023-10-19 14:08:02.903976
1702  2023-10-19 14:08:02.935913
1703  2023-10-19 14:08:02.967797
1704  2023-10-19 14:08:03.000728
1705  2023-10-19 14:08:03.032631
1706  2023-10-19 14:08:03.064561
1707  2023-10-19 14:08:03.096461
1708  2023-10-19 14:08:03.128366
1709  2023-10-19 14:08:03.176250
1710  2023-10-19 14:08:03.208172
1711  2023-10-19 14:08:03.240041
1712  2023-10-19 14:08:03.271999
1713  2023-10-19 14:08:03.303875
1714  2023-10-19 14:08:03.335832
1715  2023-10-19 14:08:03.368732
1716  2023-10-19 14:08:03.400642
1717  2023-10-19 14:08:03.432561
1718  2023-10-19 14:08:03.464477
1719  2023-10-19 14:08:03.496401
1720  2023-10-19 14:08:03.528316
1721  2023-10-19 14:08:03.576170
1722  2023-10-19 14:08:03.608093
1723  2023-10-19 14:08:03.640001
1724  2023-10-19 14:08:03.671916
1725  2023-10-19 14:08:03.703833
1726  2023-10-19 14:08:03.736750
1727  2023-10-19 14:08:03.768627
1728  2023-10-19 14:08:03.800591
1729  2023-10-19 14:08:03.832516
1730  2023-10-19 14:08:03.864417
1731  2023-10-19 14:08:03.896321
1732  2023-10-19 14:08:03.928239
1733  2023-10-19 14:08:03.976073
1734  2023-10-19 14:08:04.008021
1735  2023-10-19 14:08:04.039929
1736  2023-10-19 14:08:04.072814
1737  2023-10-19 14:08:04.103769
1738  2023-10-19 14:08:04.136680
1739  2023-10-19 14:08:04.168603
1740  2023-10-19 14:08:04.200511
1741  2023-10-19 14:08:04.232431
1742  2023-10-19 14:08:04.264345
1743  2023-10-19 14:08:04.296259
1744  2023-10-19 14:08:04.328130
1745  2023-10-19 14:08:04.376031
1746  2023-10-19 14:08:04.407952
1747  2023-10-19 14:08:04.439866
1748  2023-10-19 14:08:04.471775
1749  2023-10-19 14:08:04.504704
1750  2023-10-19 14:08:04.536621
1751  2023-10-19 14:08:04.568532
1752  2023-10-19 14:08:04.600438
1753  2023-10-19 14:08:04.632324
1754  2023-10-19 14:08:04.664284
1755  2023-10-19 14:08:04.696189
1756  2023-10-19 14:08:04.728096
1757  2023-10-19 14:08:04.775972
1758  2023-10-19 14:08:04.807877
1759  2023-10-19 14:08:04.839789
1760  2023-10-19 14:08:04.872715
1761  2023-10-19 14:08:04.904594
1762  2023-10-19 14:08:04.936548
1763  2023-10-19 14:08:04.968422
1764  2023-10-19 14:08:05.000367
1765  2023-10-19 14:08:05.032281
1766  2023-10-19 14:08:05.064224
1767  2023-10-19 14:08:05.096080
1768  2023-10-19 14:08:05.127991
1769  2023-10-19 14:08:05.175867
1770  2023-10-19 14:08:05.207812
1771  2023-10-19 14:08:05.240724
1772  2023-10-19 14:08:05.272638
1773  2023-10-19 14:08:05.304555
1774  2023-10-19 14:08:05.336489
1775  2023-10-19 14:08:05.368383
1776  2023-10-19 14:08:05.400262
1777  2023-10-19 14:08:05.432209
1778  2023-10-19 14:08:05.464135
1779  2023-10-19 14:08:05.497034
1780  2023-10-19 14:08:05.527958
1781  2023-10-19 14:08:05.575831
1782  2023-10-19 14:08:05.608722
1783  2023-10-19 14:08:05.640625
1784  2023-10-19 14:08:05.672574
1785  2023-10-19 14:08:05.704509
1786  2023-10-19 14:08:05.736402
1787  2023-10-19 14:08:05.768322
1788  2023-10-19 14:08:05.800238
1789  2023-10-19 14:08:05.832145
1790  2023-10-19 14:08:05.864067
1791  2023-10-19 14:08:05.895975
1792  2023-10-19 14:08:05.928850
1793  2023-10-19 14:08:05.976723
1794  2023-10-19 14:08:06.008665
1795  2023-10-19 14:08:06.040550
1796  2023-10-19 14:08:06.072464
1797  2023-10-19 14:08:06.104381
1798  2023-10-19 14:08:06.136295
1799  2023-10-19 14:08:06.169207
1800  2023-10-19 14:08:06.200124
1801  2023-10-19 14:08:06.232039
1802  2023-10-19 14:08:06.263954
1803  2023-10-19 14:08:06.295902
1804  2023-10-19 14:08:06.328781
1805  2023-10-19 14:08:06.376688
1806  2023-10-19 14:08:06.408604
1807  2023-10-19 14:08:06.440509
1808  2023-10-19 14:08:06.472442
1809  2023-10-19 14:08:06.504351
1810  2023-10-19 14:08:06.536225
1811  2023-10-19 14:08:06.568140
1812  2023-10-19 14:08:06.600116
1813  2023-10-19 14:08:06.631998
1814  2023-10-19 14:08:06.663884
1815  2023-10-19 14:08:06.695798
1816  2023-10-19 14:08:06.728711
1817  2023-10-19 14:08:06.776616
1818  2023-10-19 14:08:06.808528
1819  2023-10-19 14:08:06.840449
1820  2023-10-19 14:08:06.872326
1821  2023-10-19 14:08:06.904241
1822  2023-10-19 14:08:06.936156
1823  2023-10-19 14:08:06.968071
1824  2023-10-19 14:08:06.999985
1825  2023-10-19 14:08:07.031903
1826  2023-10-19 14:08:07.063814
1827  2023-10-19 14:08:07.096730
1828  2023-10-19 14:08:07.128641
1829  2023-10-19 14:08:07.176538
1830  2023-10-19 14:08:07.208427
1831  2023-10-19 14:08:07.240371
1832  2023-10-19 14:08:07.272256
1833  2023-10-19 14:08:07.304172
1834  2023-10-19 14:08:07.336086
1835  2023-10-19 14:08:07.368000
1836  2023-10-19 14:08:07.399915
1837  2023-10-19 14:08:07.432827
1838  2023-10-19 14:08:07.464742
1839  2023-10-19 14:08:07.496656
1840  2023-10-19 14:08:07.528571
1841  2023-10-19 14:08:07.576471
1842  2023-10-19 14:08:07.608398
1843  2023-10-19 14:08:07.640314
1844  2023-10-19 14:08:07.672187
1845  2023-10-19 14:08:07.704101
1846  2023-10-19 14:08:07.736016
1847  2023-10-19 14:08:07.768929
1848  2023-10-19 14:08:07.799845
1849  2023-10-19 14:08:07.832759
1850  2023-10-19 14:08:07.864672
1851  2023-10-19 14:08:07.896587
1852  2023-10-19 14:08:07.928534
1853  2023-10-19 14:08:07.976372
1854  2023-10-19 14:08:08.008327
1855  2023-10-19 14:08:08.040241
1856  2023-10-19 14:08:08.072117
1857  2023-10-19 14:08:08.104031
1858  2023-10-19 14:08:08.135950
1859  2023-10-19 14:08:08.167861
1860  2023-10-19 14:08:08.200773
1861  2023-10-19 14:08:08.232688
1862  2023-10-19 14:08:08.264628
1863  2023-10-19 14:08:08.296546
1864  2023-10-19 14:08:08.328432
1865  2023-10-19 14:08:08.376340
1866  2023-10-19 14:08:08.408258
1867  2023-10-19 14:08:08.440161
1868  2023-10-19 14:08:08.472078
1869  2023-10-19 14:08:08.503996
1870  2023-10-19 14:08:08.535876
1871  2023-10-19 14:08:08.567791
1872  2023-10-19 14:08:08.599736
1873  2023-10-19 14:08:08.632617
1874  2023-10-19 14:08:08.664533
1875  2023-10-19 14:08:08.696447
1876  2023-10-19 14:08:08.728362
1877  2023-10-19 14:08:08.776271
1878  2023-10-19 14:08:08.808181
1879  2023-10-19 14:08:08.840090
1880  2023-10-19 14:08:08.871977
1881  2023-10-19 14:08:08.903892
1882  2023-10-19 14:08:08.935807
1883  2023-10-19 14:08:08.968719
1884  2023-10-19 14:08:09.000634
1885  2023-10-19 14:08:09.032548
1886  2023-10-19 14:08:09.064463
1887  2023-10-19 14:08:09.096377
1888  2023-10-19 14:08:09.128292
1889  2023-10-19 14:08:09.176167
1890  2023-10-19 14:08:09.209076
1891  2023-10-19 14:08:09.240027
1892  2023-10-19 14:08:09.271907
1893  2023-10-19 14:08:09.304820
1894  2023-10-19 14:08:09.336735
1895  2023-10-19 14:08:09.368650
1896  2023-10-19 14:08:09.400564
1897  2023-10-19 14:08:09.433504
1898  2023-10-19 14:08:09.465421
1899  2023-10-19 14:08:09.497332
1900  2023-10-19 14:08:09.529253
1901  2023-10-19 14:08:09.577127
1902  2023-10-19 14:08:09.609006
1903  2023-10-19 14:08:09.640947
1904  2023-10-19 14:08:09.672879
1905  2023-10-19 14:08:09.704750
1906  2023-10-19 14:08:09.736665
1907  2023-10-19 14:08:09.768579
1908  2023-10-19 14:08:09.800494
1909  2023-10-19 14:08:09.832409
1910  2023-10-19 14:08:09.864323
1911  2023-10-19 14:08:09.896238
1912  2023-10-19 14:08:09.929177
1913  2023-10-19 14:08:09.977056
1914  2023-10-19 14:08:10.008936
1915  2023-10-19 14:08:10.040885
1916  2023-10-19 14:08:10.072800
1917  2023-10-19 14:08:10.104715
1918  2023-10-19 14:08:10.136628
1919  2023-10-19 14:08:10.168509
1920  2023-10-19 14:08:10.200459
1921  2023-10-19 14:08:10.232338
1922  2023-10-19 14:08:10.264253
1923  2023-10-19 14:08:10.297194
1924  2023-10-19 14:08:10.329118
1925  2023-10-19 14:08:10.376990
1926  2023-10-19 14:08:10.408903
1927  2023-10-19 14:08:10.440781
1928  2023-10-19 14:08:10.472721
1929  2023-10-19 14:08:10.504649
1930  2023-10-19 14:08:10.536556
1931  2023-10-19 14:08:10.568472
1932  2023-10-19 14:08:10.600380
1933  2023-10-19 14:08:10.632297
1934  2023-10-19 14:08:10.664212
1935  2023-10-19 14:08:10.696124
1936  2023-10-19 14:08:10.728013
1937  2023-10-19 14:08:10.775919
1938  2023-10-19 14:08:10.808836
1939  2023-10-19 14:08:10.840741
1940  2023-10-19 14:08:10.872670
1941  2023-10-19 14:08:10.904573
1942  2023-10-19 14:08:10.936483
1943  2023-10-19 14:08:10.968399
1944  2023-10-19 14:08:11.000322
1945  2023-10-19 14:08:11.032228
1946  2023-10-19 14:08:11.064151
1947  2023-10-19 14:08:11.096054
1948  2023-10-19 14:08:11.127977
1949  2023-10-19 14:08:11.175841
1950  2023-10-19 14:08:11.208727
1951  2023-10-19 14:08:11.240641
1952  2023-10-19 14:08:11.273581
1953  2023-10-19 14:08:11.305468
1954  2023-10-19 14:08:11.336385
1955  2023-10-19 14:08:11.368299
1956  2023-10-19 14:08:11.400241
1957  2023-10-19 14:08:11.433153
1958  2023-10-19 14:08:11.465067
1959  2023-10-19 14:08:11.496955
1960  2023-10-19 14:08:11.527907
1961  2023-10-19 14:08:11.576743
1962  2023-10-19 14:08:11.608700
1963  2023-10-19 14:08:11.640600
1964  2023-10-19 14:08:11.673539
1965  2023-10-19 14:08:11.705451
1966  2023-10-19 14:08:11.737343
1967  2023-10-19 14:08:11.768230
1968  2023-10-19 14:08:11.800145
1969  2023-10-19 14:08:11.833085
1970  2023-10-19 14:08:11.865022
1971  2023-10-19 14:08:11.896922
1972  2023-10-19 14:08:11.928827
1973  2023-10-19 14:08:11.977734
1974  2023-10-19 14:08:12.008586
1975  2023-10-19 14:08:12.040501
1976  2023-10-19 14:08:12.072416
1977  2023-10-19 14:08:12.104332
1978  2023-10-19 14:08:12.136246
1979  2023-10-19 14:08:12.168159
1980  2023-10-19 14:08:12.200074
1981  2023-10-19 14:08:12.231989
1982  2023-10-19 14:08:12.264931
1983  2023-10-19 14:08:12.296865
1984  2023-10-19 14:08:12.328729
1985  2023-10-19 14:08:12.376653
1986  2023-10-19 14:08:12.408518
1987  2023-10-19 14:08:12.440461
1988  2023-10-19 14:08:12.472378
1989  2023-10-19 14:08:12.504296
1990  2023-10-19 14:08:12.536210
1991  2023-10-19 14:08:12.568090
1992  2023-10-19 14:08:12.600038
1993  2023-10-19 14:08:12.632918
1994  2023-10-19 14:08:12.664858
1995  2023-10-19 14:08:12.696778
1996  2023-10-19 14:08:12.728660
1997  2023-10-19 14:08:12.776561
1998  2023-10-19 14:08:12.808475
1999  2023-10-19 14:08:12.840398
2000  2023-10-19 14:08:12.872276
2001  2023-10-19 14:08:12.904239
2002  2023-10-19 14:08:12.936149
2003  2023-10-19 14:08:12.969055
2004  2023-10-19 14:08:12.999934
2005  2023-10-19 14:08:13.031894
2006  2023-10-19 14:08:13.064761
2007  2023-10-19 14:08:13.096701
2008  2023-10-19 14:08:13.128617
2009  2023-10-19 14:08:13.176500
2010  2023-10-19 14:08:13.208379
2011  2023-10-19 14:08:13.240291
2012  2023-10-19 14:08:13.272206
2013  2023-10-19 14:08:13.304151
2014  2023-10-19 14:08:13.336077
2015  2023-10-19 14:08:13.368000
2016  2023-10-19 14:08:13.399865
2017  2023-10-19 14:08:13.431779
2018  2023-10-19 14:08:13.464692
2019  2023-10-19 14:08:13.496608
2020  2023-10-19 14:08:13.528521
2021  2023-10-19 14:08:13.576423
2022  2023-10-19 14:08:13.608334
2023  2023-10-19 14:08:13.640259
2024  2023-10-19 14:08:13.672137
2025  2023-10-19 14:08:13.704051
2026  2023-10-19 14:08:13.736004
2027  2023-10-19 14:08:13.767919
2028  2023-10-19 14:08:13.799797
2029  2023-10-19 14:08:13.832743
2030  2023-10-19 14:08:13.864650
2031  2023-10-19 14:08:13.896566
2032  2023-10-19 14:08:13.928478
2033  2023-10-19 14:08:13.976325
2034  2023-10-19 14:08:14.008239
2035  2023-10-19 14:08:14.040187
2036  2023-10-19 14:08:14.072066
2037  2023-10-19 14:08:14.104019
2038  2023-10-19 14:08:14.135933
2039  2023-10-19 14:08:14.167839
2040  2023-10-19 14:08:14.200722
2041  2023-10-19 14:08:14.232664
2042  2023-10-19 14:08:14.264552
2043  2023-10-19 14:08:14.296495
2044  2023-10-19 14:08:14.328420
2045  2023-10-19 14:08:14.376285
2046  2023-10-19 14:08:14.408218
2047  2023-10-19 14:08:14.440082
2048  2023-10-19 14:08:14.471996
2049  2023-10-19 14:08:14.503913
2050  2023-10-19 14:08:14.535867
2051  2023-10-19 14:08:14.568775
2052  2023-10-19 14:08:14.600652
2053  2023-10-19 14:08:14.632569
2054  2023-10-19 14:08:14.664487
2055  2023-10-19 14:08:14.696398
2056  2023-10-19 14:08:14.728350
2057  2023-10-19 14:08:14.776237
2058  2023-10-19 14:08:14.808132
2059  2023-10-19 14:08:14.840040
2060  2023-10-19 14:08:14.871927
2061  2023-10-19 14:08:14.903843
2062  2023-10-19 14:08:14.935792
2063  2023-10-19 14:08:14.968705
2064  2023-10-19 14:08:15.000583
2065  2023-10-19 14:08:15.032497
2066  2023-10-19 14:08:15.064448
2067  2023-10-19 14:08:15.096358
2068  2023-10-19 14:08:15.128283
2069  2023-10-19 14:08:15.176142
2070  2023-10-19 14:08:15.208068
2071  2023-10-19 14:08:15.239973
2072  2023-10-19 14:08:15.271884
2073  2023-10-19 14:08:15.303802
2074  2023-10-19 14:08:15.336686
2075  2023-10-19 14:08:15.368653
2076  2023-10-19 14:08:15.400551
2077  2023-10-19 14:08:15.432458
2078  2023-10-19 14:08:15.464344
2079  2023-10-19 14:08:15.496305
2080  2023-10-19 14:08:15.528199
2081  2023-10-19 14:08:15.576082
2082  2023-10-19 14:08:15.607986
2083  2023-10-19 14:08:15.639873
2084  2023-10-19 14:08:15.671827
2085  2023-10-19 14:08:15.704701
2086  2023-10-19 14:08:15.736640
2087  2023-10-19 14:08:15.768566
2088  2023-10-19 14:08:15.800470
2089  2023-10-19 14:08:15.832387
2090  2023-10-19 14:08:15.864272
2091  2023-10-19 14:08:15.896217
2092  2023-10-19 14:08:15.928137
2093  2023-10-19 14:08:15.976008
2094  2023-10-19 14:08:16.007914
2095  2023-10-19 14:08:16.039845
2096  2023-10-19 14:08:16.071750
2097  2023-10-19 14:08:16.104661
2098  2023-10-19 14:08:16.136549
2099  2023-10-19 14:08:16.168496
2100  2023-10-19 14:08:16.200407
2101  2023-10-19 14:08:16.232288
2102  2023-10-19 14:08:16.264237
2103  2023-10-19 14:08:16.296152
2104  2023-10-19 14:08:16.328067
2105  2023-10-19 14:08:16.375951
2106  2023-10-19 14:08:16.407853
2107  2023-10-19 14:08:16.439762
2108  2023-10-19 14:08:16.472703
2109  2023-10-19 14:08:16.504560
2110  2023-10-19 14:08:16.536503
2111  2023-10-19 14:08:16.568423
2112  2023-10-19 14:08:16.600309
2113  2023-10-19 14:08:16.632218
2114  2023-10-19 14:08:16.664167
2115  2023-10-19 14:08:16.696077
2116  2023-10-19 14:08:16.727967
2117  2023-10-19 14:08:16.775842
2118  2023-10-19 14:08:16.807776
2119  2023-10-19 14:08:16.840662
2120  2023-10-19 14:08:16.872576
2121  2023-10-19 14:08:16.904490
2122  2023-10-19 14:08:16.936433
2123  2023-10-19 14:08:16.968371
2124  2023-10-19 14:08:17.000250
2125  2023-10-19 14:08:17.032149
2126  2023-10-19 14:08:17.064096
2127  2023-10-19 14:08:17.096007
2128  2023-10-19 14:08:17.128927
2129  2023-10-19 14:08:17.176791
2130  2023-10-19 14:08:17.208721
2131  2023-10-19 14:08:17.240632
2132  2023-10-19 14:08:17.272548
2133  2023-10-19 14:08:17.304421
2134  2023-10-19 14:08:17.336335
2135  2023-10-19 14:08:17.368284
2136  2023-10-19 14:08:17.400205
2137  2023-10-19 14:08:17.432108
2138  2023-10-19 14:08:17.464025
2139  2023-10-19 14:08:17.495945
2140  2023-10-19 14:08:17.527851
2141  2023-10-19 14:08:17.575751
2142  2023-10-19 14:08:17.608634
2143  2023-10-19 14:08:17.640562
2144  2023-10-19 14:08:17.672463
2145  2023-10-19 14:08:17.704389
2146  2023-10-19 14:08:17.736327
2147  2023-10-19 14:08:17.768212
2148  2023-10-19 14:08:17.800133
2149  2023-10-19 14:08:17.832016
2150  2023-10-19 14:08:17.863970
2151  2023-10-19 14:08:17.895867
2152  2023-10-19 14:08:17.927790
2153  2023-10-19 14:08:17.976624
2154  2023-10-19 14:08:18.008539
2155  2023-10-19 14:08:18.040453
2156  2023-10-19 14:08:18.072397
2157  2023-10-19 14:08:18.104311
2158  2023-10-19 14:08:18.136197
2159  2023-10-19 14:08:18.168112
2160  2023-10-19 14:08:18.200056
2161  2023-10-19 14:08:18.231974
2162  2023-10-19 14:08:18.263856
2163  2023-10-19 14:08:18.296767
2164  2023-10-19 14:08:18.328728
2165  2023-10-19 14:08:18.376554
2166  2023-10-19 14:08:18.408503
2167  2023-10-19 14:08:18.440415
2168  2023-10-19 14:08:18.472298
2169  2023-10-19 14:08:18.504246
2170  2023-10-19 14:08:18.536182
2171  2023-10-19 14:08:18.568074
2172  2023-10-19 14:08:18.599991
2173  2023-10-19 14:08:18.631874
2174  2023-10-19 14:08:18.663832
2175  2023-10-19 14:08:18.695753
2176  2023-10-19 14:08:18.728638
2177  2023-10-19 14:08:18.776520
2178  2023-10-19 14:08:18.808447
2179  2023-10-19 14:08:18.840352
2180  2023-10-19 14:08:18.872227
2181  2023-10-19 14:08:18.904181
2182  2023-10-19 14:08:18.936086
2183  2023-10-19 14:08:18.967999
2184  2023-10-19 14:08:18.999911
2185  2023-10-19 14:08:19.031841
2186  2023-10-19 14:08:19.063752
2187  2023-10-19 14:08:19.096667
2188  2023-10-19 14:08:19.128568
2189  2023-10-19 14:08:19.176443
2190  2023-10-19 14:08:19.208362
2191  2023-10-19 14:08:19.240280
2192  2023-10-19 14:08:19.272165
2193  2023-10-19 14:08:19.304105
2194  2023-10-19 14:08:19.336040
2195  2023-10-19 14:08:19.368898
2196  2023-10-19 14:08:19.400840
2197  2023-10-19 14:08:19.431757
2198  2023-10-19 14:08:19.464698
2199  2023-10-19 14:08:19.496557
2200  2023-10-19 14:08:19.528504
2201  2023-10-19 14:08:19.576344
2202  2023-10-19 14:08:19.608309
2203  2023-10-19 14:08:19.640224
2204  2023-10-19 14:08:19.672127
2205  2023-10-19 14:08:19.704047
2206  2023-10-19 14:08:19.736951
2207  2023-10-19 14:08:19.767859
2208  2023-10-19 14:08:19.800793
2209  2023-10-19 14:08:19.832686
2210  2023-10-19 14:08:19.864600
2211  2023-10-19 14:08:19.896487
2212  2023-10-19 14:08:19.928431
2213  2023-10-19 14:08:19.976309
2214  2023-10-19 14:08:20.008245
2215  2023-10-19 14:08:20.040155
2216  2023-10-19 14:08:20.072069
2217  2023-10-19 14:08:20.103973
2218  2023-10-19 14:08:20.135874
2219  2023-10-19 14:08:20.167796
2220  2023-10-19 14:08:20.200719
2221  2023-10-19 14:08:20.232615
2222  2023-10-19 14:08:20.264503
2223  2023-10-19 14:08:20.296461
2224  2023-10-19 14:08:20.328370
2225  2023-10-19 14:08:20.376234
2226  2023-10-19 14:08:20.408145
2227  2023-10-19 14:08:20.440085
2228  2023-10-19 14:08:20.471953
2229  2023-10-19 14:08:20.503889
2230  2023-10-19 14:08:20.535811
2231  2023-10-19 14:08:20.568717
2232  2023-10-19 14:08:20.600657
2233  2023-10-19 14:08:20.632520
2234  2023-10-19 14:08:20.664473
2235  2023-10-19 14:08:20.696384
2236  2023-10-19 14:08:20.728291
2237  2023-10-19 14:08:20.776188
2238  2023-10-19 14:08:20.808102
2239  2023-10-19 14:08:20.839994
2240  2023-10-19 14:08:20.871906
2241  2023-10-19 14:08:20.903833
2242  2023-10-19 14:08:20.935737
2243  2023-10-19 14:08:20.968677
2244  2023-10-19 14:08:21.000534
2245  2023-10-19 14:08:21.032495
2246  2023-10-19 14:08:21.064393
2247  2023-10-19 14:08:21.096313
2248  2023-10-19 14:08:21.128246
2249  2023-10-19 14:08:21.176102
2250  2023-10-19 14:08:21.208020
2251  2023-10-19 14:08:21.239896
2252  2023-10-19 14:08:21.271844
2253  2023-10-19 14:08:21.304756
2254  2023-10-19 14:08:21.336663
2255  2023-10-19 14:08:21.368577
2256  2023-10-19 14:08:21.400500
2257  2023-10-19 14:08:21.432379
2258  2023-10-19 14:08:21.464326
2259  2023-10-19 14:08:21.496265
2260  2023-10-19 14:08:21.528151
2261  2023-10-19 14:08:21.576046
2262  2023-10-19 14:08:21.607982
2263  2023-10-19 14:08:21.639851
2264  2023-10-19 14:08:21.671774
2265  2023-10-19 14:08:21.704691
2266  2023-10-19 14:08:21.736612
2267  2023-10-19 14:08:21.768521
2268  2023-10-19 14:08:21.800440
2269  2023-10-19 14:08:21.832343
2270  2023-10-19 14:08:21.864271
2271  2023-10-19 14:08:21.896197
2272  2023-10-19 14:08:21.928090
2273  2023-10-19 14:08:21.975926
2274  2023-10-19 14:08:22.007879
2275  2023-10-19 14:08:22.039782
2276  2023-10-19 14:08:22.072695
2277  2023-10-19 14:08:22.104621
2278  2023-10-19 14:08:22.136540
2279  2023-10-19 14:08:22.168454
2280  2023-10-19 14:08:22.200354
2281  2023-10-19 14:08:22.232247
2282  2023-10-19 14:08:22.264160
2283  2023-10-19 14:08:22.296101
2284  2023-10-19 14:08:22.328018
2285  2023-10-19 14:08:22.375900
2286  2023-10-19 14:08:22.407807
2287  2023-10-19 14:08:22.440716
2288  2023-10-19 14:08:22.472629
2289  2023-10-19 14:08:22.504511
2290  2023-10-19 14:08:22.536427
2291  2023-10-19 14:08:22.568378
2292  2023-10-19 14:08:22.600292
2293  2023-10-19 14:08:22.632170
2294  2023-10-19 14:08:22.664111
2295  2023-10-19 14:08:22.696031
2296  2023-10-19 14:08:22.727956
2297  2023-10-19 14:08:22.775829
2298  2023-10-19 14:08:22.808731
2299  2023-10-19 14:08:22.840657
2300  2023-10-19 14:08:22.872575
2301  2023-10-19 14:08:22.904476
2302  2023-10-19 14:08:22.936393
2303  2023-10-19 14:08:22.968309
2304  2023-10-19 14:08:23.000217
2305  2023-10-19 14:08:23.032129
2306  2023-10-19 14:08:23.064049
2307  2023-10-19 14:08:23.095966
2308  2023-10-19 14:08:23.127843
2309  2023-10-19 14:08:23.175751
2310  2023-10-19 14:08:23.208660
2311  2023-10-19 14:08:23.240575
2312  2023-10-19 14:08:23.272489
2313  2023-10-19 14:08:23.304401
2314  2023-10-19 14:08:23.336325
2315  2023-10-19 14:08:23.368236
2316  2023-10-19 14:08:23.400170
2317  2023-10-19 14:08:23.432058
2318  2023-10-19 14:08:23.463974
2319  2023-10-19 14:08:23.495893
2320  2023-10-19 14:08:23.527815
2321  2023-10-19 14:08:23.576687
2322  2023-10-19 14:08:23.608601
2323  2023-10-19 14:08:23.640510
2324  2023-10-19 14:08:23.672387
2325  2023-10-19 14:08:23.704301
2326  2023-10-19 14:08:23.736253
2327  2023-10-19 14:08:23.768180
2328  2023-10-19 14:08:23.801044
2329  2023-10-19 14:08:23.832003
2330  2023-10-19 14:08:23.863915
2331  2023-10-19 14:08:23.895833
2332  2023-10-19 14:08:23.928702
2333  2023-10-19 14:08:23.976611
2334  2023-10-19 14:08:24.008523
2335  2023-10-19 14:08:24.040403
2336  2023-10-19 14:08:24.072367
2337  2023-10-19 14:08:24.104233
2338  2023-10-19 14:08:24.136147
2339  2023-10-19 14:08:24.168062
2340  2023-10-19 14:08:24.199975
2341  2023-10-19 14:08:24.231890
2342  2023-10-19 14:08:24.263805
2343  2023-10-19 14:08:24.296718
2344  2023-10-19 14:08:24.328665
2345  2023-10-19 14:08:24.376538
2346  2023-10-19 14:08:24.408447
2347  2023-10-19 14:08:24.440376
2348  2023-10-19 14:08:24.472292
2349  2023-10-19 14:08:24.504192
2350  2023-10-19 14:08:24.536121
2351  2023-10-19 14:08:24.568026
2352  2023-10-19 14:08:24.599945
2353  2023-10-19 14:08:24.631850
2354  2023-10-19 14:08:24.663788
2355  2023-10-19 14:08:24.696680
2356  2023-10-19 14:08:24.728603
2357  2023-10-19 14:08:24.776433
2358  2023-10-19 14:08:24.808396
2359  2023-10-19 14:08:24.840295
2360  2023-10-19 14:08:24.872230
2361  2023-10-19 14:08:24.904137
2362  2023-10-19 14:08:24.936043
2363  2023-10-19 14:08:24.967965
2364  2023-10-19 14:08:24.999873
2365  2023-10-19 14:08:25.031788
2366  2023-10-19 14:08:25.063713
2367  2023-10-19 14:08:25.096610
2368  2023-10-19 14:08:25.128527
2369  2023-10-19 14:08:25.176404
2370  2023-10-19 14:08:25.208280
2371  2023-10-19 14:08:25.240251
2372  2023-10-19 14:08:25.272144
2373  2023-10-19 14:08:25.304022
2374  2023-10-19 14:08:25.335937
2375  2023-10-19 14:08:25.367885
2376  2023-10-19 14:08:25.399815
2377  2023-10-19 14:08:25.432706
2378  2023-10-19 14:08:25.464629
2379  2023-10-19 14:08:25.496541
2380  2023-10-19 14:08:25.528457
2381  2023-10-19 14:08:25.576344
2382  2023-10-19 14:08:25.608253
2383  2023-10-19 14:08:25.640170
2384  2023-10-19 14:08:25.672065
2385  2023-10-19 14:08:25.703992
2386  2023-10-19 14:08:25.735918
2387  2023-10-19 14:08:25.768851
2388  2023-10-19 14:08:25.800756
2389  2023-10-19 14:08:25.832608
2390  2023-10-19 14:08:25.864523
2391  2023-10-19 14:08:25.896475
2392  2023-10-19 14:08:25.928353
2393  2023-10-19 14:08:25.976226
2394  2023-10-19 14:08:26.008179
2395  2023-10-19 14:08:26.040089
2396  2023-10-19 14:08:26.072003
2397  2023-10-19 14:08:26.103910
2398  2023-10-19 14:08:26.135798
2399  2023-10-19 14:08:26.167771
2400  2023-10-19 14:08:26.200660
2401  2023-10-19 14:08:26.232575
2402  2023-10-19 14:08:26.264487
2403  2023-10-19 14:08:26.296404
2404  2023-10-19 14:08:26.328320
2405  2023-10-19 14:08:26.376190
2406  2023-10-19 14:08:26.408069
2407  2023-10-19 14:08:26.440018
2408  2023-10-19 14:08:26.471932
2409  2023-10-19 14:08:26.503851
2410  2023-10-19 14:08:26.536760
2411  2023-10-19 14:08:26.567689
2412  2023-10-19 14:08:26.600591
2413  2023-10-19 14:08:26.632524
2414  2023-10-19 14:08:26.664385
2415  2023-10-19 14:08:26.696347
2416  2023-10-19 14:08:26.728244
2417  2023-10-19 14:08:26.776130
2418  2023-10-19 14:08:26.808050
2419  2023-10-19 14:08:26.839952
2420  2023-10-19 14:08:26.872858
2421  2023-10-19 14:08:26.904782
2422  2023-10-19 14:08:26.936655
2423  2023-10-19 14:08:26.968573
2424  2023-10-19 14:08:27.000485
2425  2023-10-19 14:08:27.032429
2426  2023-10-19 14:08:27.064314
2427  2023-10-19 14:08:27.096233
2428  2023-10-19 14:08:27.128176
2429  2023-10-19 14:08:27.176020
2430  2023-10-19 14:08:27.207966
2431  2023-10-19 14:08:27.239844
2432  2023-10-19 14:08:27.271759
2433  2023-10-19 14:08:27.304672
2434  2023-10-19 14:08:27.336585
2435  2023-10-19 14:08:27.368500
2436  2023-10-19 14:08:27.400415
2437  2023-10-19 14:08:27.432330
2438  2023-10-19 14:08:27.464244
2439  2023-10-19 14:08:27.496202
2440  2023-10-19 14:08:27.528108
2441  2023-10-19 14:08:27.575999
2442  2023-10-19 14:08:27.607893
2443  2023-10-19 14:08:27.639810
2444  2023-10-19 14:08:27.671741
2445  2023-10-19 14:08:27.704635
2446  2023-10-19 14:08:27.736550
2447  2023-10-19 14:08:27.768475
2448  2023-10-19 14:08:27.800404
2449  2023-10-19 14:08:27.832296
2450  2023-10-19 14:08:27.864223
2451  2023-10-19 14:08:27.896125
2452  2023-10-19 14:08:27.928005
2453  2023-10-19 14:08:27.975913
2454  2023-10-19 14:08:28.008789
2455  2023-10-19 14:08:28.040703
2456  2023-10-19 14:08:28.072618
2457  2023-10-19 14:08:28.104570
2458  2023-10-19 14:08:28.136472
2459  2023-10-19 14:08:28.168398
2460  2023-10-19 14:08:28.200332
2461  2023-10-19 14:08:28.232233
2462  2023-10-19 14:08:28.264137
2463  2023-10-19 14:08:28.296053
2464  2023-10-19 14:08:28.327962
2465  2023-10-19 14:08:28.375855
2466  2023-10-19 14:08:28.407764
2467  2023-10-19 14:08:28.440632
2468  2023-10-19 14:08:28.472551
2469  2023-10-19 14:08:28.504497
2470  2023-10-19 14:08:28.536378
2471  2023-10-19 14:08:28.568292
2472  2023-10-19 14:08:28.600207
2473  2023-10-19 14:08:28.632125
2474  2023-10-19 14:08:28.664036
2475  2023-10-19 14:08:28.695951
2476  2023-10-19 14:08:28.727900
2477  2023-10-19 14:08:28.775738
2478  2023-10-19 14:08:28.808649
2479  2023-10-19 14:08:28.840564
2480  2023-10-19 14:08:28.872478
2481  2023-10-19 14:08:28.904393
2482  2023-10-19 14:08:28.936308
2483  2023-10-19 14:08:28.968222
2484  2023-10-19 14:08:29.000137
2485  2023-10-19 14:08:29.032052
2486  2023-10-19 14:08:29.063966
2487  2023-10-19 14:08:29.095881
2488  2023-10-19 14:08:29.128819
2489  2023-10-19 14:08:29.176666
2490  2023-10-19 14:08:29.208581
2491  2023-10-19 14:08:29.240495
2492  2023-10-19 14:08:29.272411
2493  2023-10-19 14:08:29.304325
2494  2023-10-19 14:08:29.336240
2495  2023-10-19 14:08:29.368156
2496  2023-10-19 14:08:29.400067
2497  2023-10-19 14:08:29.431982
2498  2023-10-19 14:08:29.463944
2499  2023-10-19 14:08:29.495840
2500  2023-10-19 14:08:29.527765
2501  2023-10-19 14:08:29.576595
2502  2023-10-19 14:08:29.608509
2503  2023-10-19 14:08:29.640427
2504  2023-10-19 14:08:29.672370
2505  2023-10-19 14:08:29.704253
2506  2023-10-19 14:08:29.736169
2507  2023-10-19 14:08:29.768112
2508  2023-10-19 14:08:29.800052
2509  2023-10-19 14:08:29.831912
2510  2023-10-19 14:08:29.863827
2511  2023-10-19 14:08:29.895786
2512  2023-10-19 14:08:29.928681
2513  2023-10-19 14:08:29.976526
2514  2023-10-19 14:08:30.008440
2515  2023-10-19 14:08:30.040354
2516  2023-10-19 14:08:30.072269
2517  2023-10-19 14:08:30.104184
2518  2023-10-19 14:08:30.136098
2519  2023-10-19 14:08:30.168013
2520  2023-10-19 14:08:30.199928
2521  2023-10-19 14:08:30.231842
2522  2023-10-19 14:08:30.264754
2523  2023-10-19 14:08:30.296704
2524  2023-10-19 14:08:30.328611
2525  2023-10-19 14:08:30.376457
2526  2023-10-19 14:08:30.408370
2527  2023-10-19 14:08:30.440286
2528  2023-10-19 14:08:30.472200
2529  2023-10-19 14:08:30.505149
2530  2023-10-19 14:08:30.536030
2531  2023-10-19 14:08:30.567943
2532  2023-10-19 14:08:30.599859
2533  2023-10-19 14:08:30.631773
2534  2023-10-19 14:08:30.664685
2535  2023-10-19 14:08:30.696599
2536  2023-10-19 14:08:30.728514
2537  2023-10-19 14:08:30.776386
2538  2023-10-19 14:08:30.808301
2539  2023-10-19 14:08:30.840248
2540  2023-10-19 14:08:30.872130
2541  2023-10-19 14:08:30.904044
2542  2023-10-19 14:08:30.935959
2543  2023-10-19 14:08:30.967900
2544  2023-10-19 14:08:30.999788
2545  2023-10-19 14:08:31.032701
2546  2023-10-19 14:08:31.064615
2547  2023-10-19 14:08:31.096557
2548  2023-10-19 14:08:31.128502
2549  2023-10-19 14:08:31.176316
2550  2023-10-19 14:08:31.208230
2551  2023-10-19 14:08:31.240145
2552  2023-10-19 14:08:31.272060
2553  2023-10-19 14:08:31.303975
2554  2023-10-19 14:08:31.335889
2555  2023-10-19 14:08:31.367804
2556  2023-10-19 14:08:31.400717
2557  2023-10-19 14:08:31.432630
2558  2023-10-19 14:08:31.464578
2559  2023-10-19 14:08:31.496459
2560  2023-10-19 14:08:31.528400
2561  2023-10-19 14:08:31.576246
2562  2023-10-19 14:08:31.608161
2563  2023-10-19 14:08:31.640075
2564  2023-10-19 14:08:31.671990
2565  2023-10-19 14:08:31.704904
2566  2023-10-19 14:08:31.735819
2567  2023-10-19 14:08:31.768731
2568  2023-10-19 14:08:31.800648
2569  2023-10-19 14:08:31.832561
2570  2023-10-19 14:08:31.864478
2571  2023-10-19 14:08:31.896411
2572  2023-10-19 14:08:31.928305
2573  2023-10-19 14:08:31.976177
2574  2023-10-19 14:08:32.008133
2575  2023-10-19 14:08:32.040006
2576  2023-10-19 14:08:32.071920
2577  2023-10-19 14:08:32.103835
2578  2023-10-19 14:08:32.135776
2579  2023-10-19 14:08:32.168662
2580  2023-10-19 14:08:32.200576
2581  2023-10-19 14:08:32.232491
2582  2023-10-19 14:08:32.264441
2583  2023-10-19 14:08:32.296319
2584  2023-10-19 14:08:32.328234
2585  2023-10-19 14:08:32.376107
2586  2023-10-19 14:08:32.408021
2587  2023-10-19 14:08:32.439936
2588  2023-10-19 14:08:32.471854
2589  2023-10-19 14:08:32.503765
2590  2023-10-19 14:08:32.536677
2591  2023-10-19 14:08:32.568592
2592  2023-10-19 14:08:32.600506
2593  2023-10-19 14:08:32.632421
2594  2023-10-19 14:08:32.664364
2595  2023-10-19 14:08:32.696280
2596  2023-10-19 14:08:32.728198
2597  2023-10-19 14:08:32.776037
2598  2023-10-19 14:08:32.807951
2599  2023-10-19 14:08:32.840864
2600  2023-10-19 14:08:32.872779
2601  2023-10-19 14:08:32.904694
2602  2023-10-19 14:08:32.936608
2603  2023-10-19 14:08:32.968522
2604  2023-10-19 14:08:33.000438
2605  2023-10-19 14:08:33.032352
2606  2023-10-19 14:08:33.064266
2607  2023-10-19 14:08:33.096180
2608  2023-10-19 14:08:33.128099
2609  2023-10-19 14:08:33.175993
2610  2023-10-19 14:08:33.207882
2611  2023-10-19 14:08:33.239796
2612  2023-10-19 14:08:33.272709
2613  2023-10-19 14:08:33.304649
2614  2023-10-19 14:08:33.336537
2615  2023-10-19 14:08:33.368452
2616  2023-10-19 14:08:33.400368
2617  2023-10-19 14:08:33.432311
2618  2023-10-19 14:08:33.464223
2619  2023-10-19 14:08:33.496140
2620  2023-10-19 14:08:33.529059
2621  2023-10-19 14:08:33.576895
2622  2023-10-19 14:08:33.609833
2623  2023-10-19 14:08:33.641748
2624  2023-10-19 14:08:33.672688
2625  2023-10-19 14:08:33.705590
2626  2023-10-19 14:08:33.737513
2627  2023-10-19 14:08:33.769421
2628  2023-10-19 14:08:33.801327
2629  2023-10-19 14:08:33.833257
2630  2023-10-19 14:08:33.865155
2631  2023-10-19 14:08:33.897076
2632  2023-10-19 14:08:33.928980
2633  2023-10-19 14:08:33.976827
2634  2023-10-19 14:08:34.008757
2635  2023-10-19 14:08:34.040654
2636  2023-10-19 14:08:34.073597
2637  2023-10-19 14:08:34.105507
2638  2023-10-19 14:08:34.137433
2639  2023-10-19 14:08:34.169346
2640  2023-10-19 14:08:34.201253
2641  2023-10-19 14:08:34.233181
2642  2023-10-19 14:08:34.266051
2643  2023-10-19 14:08:34.296974
2644  2023-10-19 14:08:34.328925
2645  2023-10-19 14:08:34.376809
2646  2023-10-19 14:08:34.408718
2647  2023-10-19 14:08:34.440585
2648  2023-10-19 14:08:34.472531
2649  2023-10-19 14:08:34.505449
2650  2023-10-19 14:08:34.536354
2651  2023-10-19 14:08:34.568243
2652  2023-10-19 14:08:34.601199
2653  2023-10-19 14:08:34.633097
2654  2023-10-19 14:08:34.665035
2655  2023-10-19 14:08:34.696940
2656  2023-10-19 14:08:34.728813
2657  2023-10-19 14:08:34.776685
2658  2023-10-19 14:08:34.808641
2659  2023-10-19 14:08:34.840515
2660  2023-10-19 14:08:34.872428
2661  2023-10-19 14:08:34.904372
2662  2023-10-19 14:08:34.936290
2663  2023-10-19 14:08:34.969217
2664  2023-10-19 14:08:35.000088
2665  2023-10-19 14:08:35.032003
2666  2023-10-19 14:08:35.063951
2667  2023-10-19 14:08:35.096865
2668  2023-10-19 14:08:35.128743
2669  2023-10-19 14:08:35.176664
2670  2023-10-19 14:08:35.208557
2671  2023-10-19 14:08:35.240480
2672  2023-10-19 14:08:35.272392
2673  2023-10-19 14:08:35.304313
2674  2023-10-19 14:08:35.336215
2675  2023-10-19 14:08:35.368137
2676  2023-10-19 14:08:35.400047
2677  2023-10-19 14:08:35.431932
2678  2023-10-19 14:08:35.463882
2679  2023-10-19 14:08:35.496759
2680  2023-10-19 14:08:35.528673
2681  2023-10-19 14:08:35.576576
2682  2023-10-19 14:08:35.608489
2683  2023-10-19 14:08:35.640413
2684  2023-10-19 14:08:35.672324
2685  2023-10-19 14:08:35.704233
2686  2023-10-19 14:08:35.736147
2687  2023-10-19 14:08:35.768063
2688  2023-10-19 14:08:35.799975
2689  2023-10-19 14:08:35.832860
2690  2023-10-19 14:08:35.863821
2691  2023-10-19 14:08:35.896688
2692  2023-10-19 14:08:35.928603
2693  2023-10-19 14:08:35.976476
2694  2023-10-19 14:08:36.008429
2695  2023-10-19 14:08:36.040304
2696  2023-10-19 14:08:36.072219
2697  2023-10-19 14:08:36.105166
2698  2023-10-19 14:08:36.137105
2699  2023-10-19 14:08:36.167998
2700  2023-10-19 14:08:36.199904
2701  2023-10-19 14:08:36.232830
2702  2023-10-19 14:08:36.264705
2703  2023-10-19 14:08:36.296620
2704  2023-10-19 14:08:36.328547
2705  2023-10-19 14:08:36.377432
2706  2023-10-19 14:08:36.408354
2707  2023-10-19 14:08:36.440235
2708  2023-10-19 14:08:36.473195
2709  2023-10-19 14:08:36.505090
2710  2023-10-19 14:08:36.537011
2711  2023-10-19 14:08:36.567914
2712  2023-10-19 14:08:36.599842
2713  2023-10-19 14:08:36.632720
2714  2023-10-19 14:08:36.665660
2715  2023-10-19 14:08:36.697584
2716  2023-10-19 14:08:36.728463
2717  2023-10-19 14:08:36.777369
2718  2023-10-19 14:08:36.808250
2719  2023-10-19 14:08:36.840196
2720  2023-10-19 14:08:36.873106
2721  2023-10-19 14:08:36.905032
2722  2023-10-19 14:08:36.936945
2723  2023-10-19 14:08:36.967823
2724  2023-10-19 14:08:36.999748
2725  2023-10-19 14:08:37.032651
2726  2023-10-19 14:08:37.065562
2727  2023-10-19 14:08:37.097504
2728  2023-10-19 14:08:37.129437
2729  2023-10-19 14:08:37.176267
2730  2023-10-19 14:08:37.208215
2731  2023-10-19 14:08:37.240124
2732  2023-10-19 14:08:37.272036
2733  2023-10-19 14:08:37.304951
2734  2023-10-19 14:08:37.336867
2735  2023-10-19 14:08:37.368778
2736  2023-10-19 14:08:37.400667
2737  2023-10-19 14:08:37.432616
2738  2023-10-19 14:08:37.465531
2739  2023-10-19 14:08:37.497407
2740  2023-10-19 14:08:37.529352
2741  2023-10-19 14:08:37.576231
2742  2023-10-19 14:08:37.608143
2743  2023-10-19 14:08:37.640025
2744  2023-10-19 14:08:37.672939
2745  2023-10-19 14:08:37.703894
2746  2023-10-19 14:08:37.736802
2747  2023-10-19 14:08:37.768708
2748  2023-10-19 14:08:37.800596
2749  2023-10-19 14:08:37.832547
2750  2023-10-19 14:08:37.864469
2751  2023-10-19 14:08:37.896392
2752  2023-10-19 14:08:37.928306
2753  2023-10-19 14:08:37.976127
2754  2023-10-19 14:08:38.009069
2755  2023-10-19 14:08:38.039988
2756  2023-10-19 14:08:38.071870
2757  2023-10-19 14:08:38.104783
2758  2023-10-19 14:08:38.136743
2759  2023-10-19 14:08:38.168649
2760  2023-10-19 14:08:38.200559
2761  2023-10-19 14:08:38.232443
2762  2023-10-19 14:08:38.265355
2763  2023-10-19 14:08:38.296298
2764  2023-10-19 14:08:38.328218
2765  2023-10-19 14:08:38.376086
2766  2023-10-19 14:08:38.408012
2767  2023-10-19 14:08:38.439916
2768  2023-10-19 14:08:38.471830
2769  2023-10-19 14:08:38.503744
2770  2023-10-19 14:08:38.536668
2771  2023-10-19 14:08:38.568542
2772  2023-10-19 14:08:38.600495
2773  2023-10-19 14:08:38.632400
2774  2023-10-19 14:08:38.664319
2775  2023-10-19 14:08:38.696245
2776  2023-10-19 14:08:38.729117
2777  2023-10-19 14:08:38.776018
2778  2023-10-19 14:08:38.807901
2779  2023-10-19 14:08:38.839845
2780  2023-10-19 14:08:38.871730
2781  2023-10-19 14:08:38.904671
2782  2023-10-19 14:08:38.936584
2783  2023-10-19 14:08:38.968472
2784  2023-10-19 14:08:39.000387
2785  2023-10-19 14:08:39.032342
2786  2023-10-19 14:08:39.064248
2787  2023-10-19 14:08:39.096133
2788  2023-10-19 14:08:39.129074
2789  2023-10-19 14:08:39.176915
2790  2023-10-19 14:08:39.208830
2791  2023-10-19 14:08:39.239784
2792  2023-10-19 14:08:39.272702
2793  2023-10-19 14:08:39.304575
2794  2023-10-19 14:08:39.336522
2795  2023-10-19 14:08:39.368431
2796  2023-10-19 14:08:39.400316
2797  2023-10-19 14:08:39.432258
2798  2023-10-19 14:08:39.464148
2799  2023-10-19 14:08:39.496090
2800  2023-10-19 14:08:39.528012
2801  2023-10-19 14:08:39.575848
2802  2023-10-19 14:08:39.607791
2803  2023-10-19 14:08:39.639710
2804  2023-10-19 14:08:39.672617
2805  2023-10-19 14:08:39.704531
2806  2023-10-19 14:08:39.736454
2807  2023-10-19 14:08:39.768333
2808  2023-10-19 14:08:39.800246
2809  2023-10-19 14:08:39.832201
2810  2023-10-19 14:08:39.864076
2811  2023-10-19 14:08:39.896022
2812  2023-10-19 14:08:39.927920
2813  2023-10-19 14:08:39.976810
2814  2023-10-19 14:08:40.007720
2815  2023-10-19 14:08:40.040604
2816  2023-10-19 14:08:40.072550
2817  2023-10-19 14:08:40.104477
2818  2023-10-19 14:08:40.136349
2819  2023-10-19 14:08:40.168293
2820  2023-10-19 14:08:40.200204
2821  2023-10-19 14:08:40.232122
2822  2023-10-19 14:08:40.264006
2823  2023-10-19 14:08:40.295921
2824  2023-10-19 14:08:40.328871
2825  2023-10-19 14:08:40.376706
2826  2023-10-19 14:08:40.408663
2827  2023-10-19 14:08:40.440581
2828  2023-10-19 14:08:40.472449
2829  2023-10-19 14:08:40.504365
2830  2023-10-19 14:08:40.536307
2831  2023-10-19 14:08:40.568231
2832  2023-10-19 14:08:40.600135
2833  2023-10-19 14:08:40.632023
2834  2023-10-19 14:08:40.663981
2835  2023-10-19 14:08:40.695852
2836  2023-10-19 14:08:40.727766
2837  2023-10-19 14:08:40.775684
2838  2023-10-19 14:08:40.808609
2839  2023-10-19 14:08:40.840494
2840  2023-10-19 14:08:40.872407
2841  2023-10-19 14:08:40.904295
2842  2023-10-19 14:08:40.936252
2843  2023-10-19 14:08:40.968128
2844  2023-10-19 14:08:41.000039
2845  2023-10-19 14:08:41.031994
2846  2023-10-19 14:08:41.063868
2847  2023-10-19 14:08:41.096816
2848  2023-10-19 14:08:41.128711
2849  2023-10-19 14:08:41.176596
2850  2023-10-19 14:08:41.208537
2851  2023-10-19 14:08:41.240432
2852  2023-10-19 14:08:41.272309
2853  2023-10-19 14:08:41.304254
2854  2023-10-19 14:08:41.336168
2855  2023-10-19 14:08:41.368111
2856  2023-10-19 14:08:41.399971
2857  2023-10-19 14:08:41.431882
2858  2023-10-19 14:08:41.463800
2859  2023-10-19 14:08:41.496710
2860  2023-10-19 14:08:41.528651
2861  2023-10-19 14:08:41.576545
2862  2023-10-19 14:08:41.608436
2863  2023-10-19 14:08:41.640354
2864  2023-10-19 14:08:41.672240
2865  2023-10-19 14:08:41.704183
2866  2023-10-19 14:08:41.736101
2867  2023-10-19 14:08:41.768012
2868  2023-10-19 14:08:41.799899
2869  2023-10-19 14:08:41.831846
2870  2023-10-19 14:08:41.863729
2871  2023-10-19 14:08:41.896641
2872  2023-10-19 14:08:41.928596
2873  2023-10-19 14:08:41.976426
2874  2023-10-19 14:08:42.008384
2875  2023-10-19 14:08:42.040294
2876  2023-10-19 14:08:42.072169
2877  2023-10-19 14:08:42.104092
2878  2023-10-19 14:08:42.136003
2879  2023-10-19 14:08:42.167914
2880  2023-10-19 14:08:42.200874
2881  2023-10-19 14:08:42.231785
2882  2023-10-19 14:08:42.264683
2883  2023-10-19 14:08:42.296571
2884  2023-10-19 14:08:42.328520
2885  2023-10-19 14:08:42.376391
2886  2023-10-19 14:08:42.408302
2887  2023-10-19 14:08:42.440229
2888  2023-10-19 14:08:42.472131
2889  2023-10-19 14:08:42.504016
2890  2023-10-19 14:08:42.535929
2891  2023-10-19 14:08:42.567845
2892  2023-10-19 14:08:42.600757
2893  2023-10-19 14:08:42.632674
2894  2023-10-19 14:08:42.664612
2895  2023-10-19 14:08:42.696531
2896  2023-10-19 14:08:42.728415
2897  2023-10-19 14:08:42.776327
2898  2023-10-19 14:08:42.808234
2899  2023-10-19 14:08:42.840157
2900  2023-10-19 14:08:42.872074
2901  2023-10-19 14:08:42.903982
2902  2023-10-19 14:08:42.935860
2903  2023-10-19 14:08:42.967778
2904  2023-10-19 14:08:43.000712
2905  2023-10-19 14:08:43.032631
2906  2023-10-19 14:08:43.064515
2907  2023-10-19 14:08:43.096458
2908  2023-10-19 14:08:43.128345
2909  2023-10-19 14:08:43.176245
2910  2023-10-19 14:08:43.208132
2911  2023-10-19 14:08:43.240077
2912  2023-10-19 14:08:43.271987
2913  2023-10-19 14:08:43.303915
2914  2023-10-19 14:08:43.335792
2915  2023-10-19 14:08:43.368741
2916  2023-10-19 14:08:43.400643
2917  2023-10-19 14:08:43.432535
2918  2023-10-19 14:08:43.464446
2919  2023-10-19 14:08:43.496389
2920  2023-10-19 14:08:43.528276
2921  2023-10-19 14:08:43.576188
2922  2023-10-19 14:08:43.608061
2923  2023-10-19 14:08:43.639981
2924  2023-10-19 14:08:43.671939
2925  2023-10-19 14:08:43.703832
2926  2023-10-19 14:08:43.735771
2927  2023-10-19 14:08:43.768668
2928  2023-10-19 14:08:43.800548
2929  2023-10-19 14:08:43.832498
2930  2023-10-19 14:08:43.864419
2931  2023-10-19 14:08:43.896357
2932  2023-10-19 14:08:43.928206
2933  2023-10-19 14:08:43.976078
2934  2023-10-19 14:08:44.008030
2935  2023-10-19 14:08:44.039945
2936  2023-10-19 14:08:44.071856
2937  2023-10-19 14:08:44.103781
2938  2023-10-19 14:08:44.136692
2939  2023-10-19 14:08:44.168599
2940  2023-10-19 14:08:44.200514
2941  2023-10-19 14:08:44.232421
2942  2023-10-19 14:08:44.264339
2943  2023-10-19 14:08:44.296249
2944  2023-10-19 14:08:44.328136
2945  2023-10-19 14:08:44.376017
2946  2023-10-19 14:08:44.407922
2947  2023-10-19 14:08:44.439836
2948  2023-10-19 14:08:44.471751
2949  2023-10-19 14:08:44.504664
2950  2023-10-19 14:08:44.536578
2951  2023-10-19 14:08:44.568493
2952  2023-10-19 14:08:44.600408
2953  2023-10-19 14:08:44.632324
2954  2023-10-19 14:08:44.664269
2955  2023-10-19 14:08:44.696157
2956  2023-10-19 14:08:44.728065
2957  2023-10-19 14:08:44.775974
2958  2023-10-19 14:08:44.807879
2959  2023-10-19 14:08:44.839804
2960  2023-10-19 14:08:44.871708
2961  2023-10-19 14:08:44.904624
2962  2023-10-19 14:08:44.936536
2963  2023-10-19 14:08:44.968424
2964  2023-10-19 14:08:45.000338
2965  2023-10-19 14:08:45.032256
2966  2023-10-19 14:08:45.064225
2967  2023-10-19 14:08:45.096123
2968  2023-10-19 14:08:45.128027
2969  2023-10-19 14:08:45.175909
2970  2023-10-19 14:08:45.207833
2971  2023-10-19 14:08:45.239743
2972  2023-10-19 14:08:45.272638
2973  2023-10-19 14:08:45.304550
2974  2023-10-19 14:08:45.336484
2975  2023-10-19 14:08:45.368379
2976  2023-10-19 14:08:45.400296
2977  2023-10-19 14:08:45.432224
2978  2023-10-19 14:08:45.464135
2979  2023-10-19 14:08:45.496046
2980  2023-10-19 14:08:45.527954
2981  2023-10-19 14:08:45.575866
2982  2023-10-19 14:08:45.607765
2983  2023-10-19 14:08:45.640653
2984  2023-10-19 14:08:45.672574
2985  2023-10-19 14:08:45.704495
2986  2023-10-19 14:08:45.736404
2987  2023-10-19 14:08:45.768327
2988  2023-10-19 14:08:45.800229
2989  2023-10-19 14:08:45.832112
2990  2023-10-19 14:08:45.864057
2991  2023-10-19 14:08:45.895979
2992  2023-10-19 14:08:45.927857
2993  2023-10-19 14:08:45.976725
2994  2023-10-19 14:08:46.008640
2995  2023-10-19 14:08:46.040590
2996  2023-10-19 14:08:46.072500
2997  2023-10-19 14:08:46.104411
2998  2023-10-19 14:08:46.136327
2999  2023-10-19 14:08:46.168246
3000  2023-10-19 14:08:46.200180
3001  2023-10-19 14:08:46.232079
3002  2023-10-19 14:08:46.263958
3003  2023-10-19 14:08:46.295905
3004  2023-10-19 14:08:46.327814
3005  2023-10-19 14:08:46.376698
3006  2023-10-19 14:08:46.408617
3007  2023-10-19 14:08:46.440486
3008  2023-10-19 14:08:46.472404
3009  2023-10-19 14:08:46.504318
3010  2023-10-19 14:08:46.536229
3011  2023-10-19 14:08:46.568148
3012  2023-10-19 14:08:46.600120
3013  2023-10-19 14:08:46.632006
3014  2023-10-19 14:08:46.663928
3015  2023-10-19 14:08:46.695830
3016  2023-10-19 14:08:46.727744
3017  2023-10-19 14:08:46.776621
3018  2023-10-19 14:08:46.808551
3019  2023-10-19 14:08:46.840450
3020  2023-10-19 14:08:46.872357
3021  2023-10-19 14:08:46.904299
3022  2023-10-19 14:08:46.936231
3023  2023-10-19 14:08:46.968113
3024  2023-10-19 14:08:47.000036
3025  2023-10-19 14:08:47.031930
3026  2023-10-19 14:08:47.063845
3027  2023-10-19 14:08:47.095768
3028  2023-10-19 14:08:47.128645
3029  2023-10-19 14:08:47.176554
3030  2023-10-19 14:08:47.208474
3031  2023-10-19 14:08:47.240382
3032  2023-10-19 14:08:47.272294
3033  2023-10-19 14:08:47.304216
3034  2023-10-19 14:08:47.336130
3035  2023-10-19 14:08:47.368004
3036  2023-10-19 14:08:47.399925
3037  2023-10-19 14:08:47.431865
3038  2023-10-19 14:08:47.464773
3039  2023-10-19 14:08:47.496698
3040  2023-10-19 14:08:47.528604
3041  2023-10-19 14:08:47.576486
3042  2023-10-19 14:08:47.608397
3043  2023-10-19 14:08:47.640305
3044  2023-10-19 14:08:47.672229
3045  2023-10-19 14:08:47.704137
3046  2023-10-19 14:08:47.736021
3047  2023-10-19 14:08:47.767939
3048  2023-10-19 14:08:47.800847
3049  2023-10-19 14:08:47.832762
3050  2023-10-19 14:08:47.864716
3051  2023-10-19 14:08:47.896623
3052  2023-10-19 14:08:47.928543
3053  2023-10-19 14:08:47.976427
3054  2023-10-19 14:08:48.008340
3055  2023-10-19 14:08:48.040255
3056  2023-10-19 14:08:48.072170
3057  2023-10-19 14:08:48.104084
3058  2023-10-19 14:08:48.136002
3059  2023-10-19 14:08:48.167919
3060  2023-10-19 14:08:48.199828
3061  2023-10-19 14:08:48.232740
3062  2023-10-19 14:08:48.264710
3063  2023-10-19 14:08:48.296660
3064  2023-10-19 14:08:48.328572
3065  2023-10-19 14:08:48.376442
3066  2023-10-19 14:08:48.408321
3067  2023-10-19 14:08:48.440237
3068  2023-10-19 14:08:48.472193
3069  2023-10-19 14:08:48.504102
3070  2023-10-19 14:08:48.536009
3071  2023-10-19 14:08:48.567923
3072  2023-10-19 14:08:48.599836
3073  2023-10-19 14:08:48.631751
3074  2023-10-19 14:08:48.664664
3075  2023-10-19 14:08:48.696577
3076  2023-10-19 14:08:48.728508
3077  2023-10-19 14:08:48.776392
3078  2023-10-19 14:08:48.808300
3079  2023-10-19 14:08:48.840207
3080  2023-10-19 14:08:48.872147
3081  2023-10-19 14:08:48.904032
3082  2023-10-19 14:08:48.935939
3083  2023-10-19 14:08:48.967825
3084  2023-10-19 14:08:48.999741
3085  2023-10-19 14:08:49.032656
3086  2023-10-19 14:08:49.064600
3087  2023-10-19 14:08:49.096486
3088  2023-10-19 14:08:49.128426
3089  2023-10-19 14:08:49.160340
3090  2023-10-19 14:08:49.208183
3091  2023-10-19 14:08:49.240102
3092  2023-10-19 14:08:49.272044
3093  2023-10-19 14:08:49.303971
3094  2023-10-19 14:08:49.335879
3095  2023-10-19 14:08:49.367799
3096  2023-10-19 14:08:49.399706
3097  2023-10-19 14:08:49.432610
3098  2023-10-19 14:08:49.464524
3099  2023-10-19 14:08:49.496455
3100  2023-10-19 14:08:49.528328
3101  2023-10-19 14:08:49.560293
3102  2023-10-19 14:08:49.608151
3103  2023-10-19 14:08:49.640063
3104  2023-10-19 14:08:49.671987
3105  2023-10-19 14:08:49.703895
3106  2023-10-19 14:08:49.735799
3107  2023-10-19 14:08:49.768729
3108  2023-10-19 14:08:49.800599
3109  2023-10-19 14:08:49.832514
3110  2023-10-19 14:08:49.864469
3111  2023-10-19 14:08:49.896379
3112  2023-10-19 14:08:49.928285
3113  2023-10-19 14:08:49.960171
3114  2023-10-19 14:08:50.008044
3115  2023-10-19 14:08:50.039959
3116  2023-10-19 14:08:50.071876
3117  2023-10-19 14:08:50.103824
3118  2023-10-19 14:08:50.136727
3119  2023-10-19 14:08:50.168644
3120  2023-10-19 14:08:50.200555
3121  2023-10-19 14:08:50.232450
3122  2023-10-19 14:08:50.264387
3123  2023-10-19 14:08:50.296271
3124  2023-10-19 14:08:50.328191
3125  2023-10-19 14:08:50.360111
3126  2023-10-19 14:08:50.408009
3127  2023-10-19 14:08:50.439924
3128  2023-10-19 14:08:50.471856
3129  2023-10-19 14:08:50.503763
3130  2023-10-19 14:08:50.536667
3131  2023-10-19 14:08:50.568544
3132  2023-10-19 14:08:50.600485
3133  2023-10-19 14:08:50.632374
3134  2023-10-19 14:08:50.664318
3135  2023-10-19 14:08:50.696239
3136  2023-10-19 14:08:50.728165
3137  2023-10-19 14:08:50.760062
3138  2023-10-19 14:08:50.807939
3139  2023-10-19 14:08:50.839850
3140  2023-10-19 14:08:50.871774
3141  2023-10-19 14:08:50.904688
3142  2023-10-19 14:08:50.936608
3143  2023-10-19 14:08:50.968504
3144  2023-10-19 14:08:51.000418
3145  2023-10-19 14:08:51.032334
3146  2023-10-19 14:08:51.064256
3147  2023-10-19 14:08:51.096165
3148  2023-10-19 14:08:51.128086
3149  2023-10-19 14:08:51.159998
3150  2023-10-19 14:08:51.207869
3151  2023-10-19 14:08:51.239799
3152  2023-10-19 14:08:51.271713
3153  2023-10-19 14:08:51.304614
3154  2023-10-19 14:08:51.336494
3155  2023-10-19 14:08:51.368435
3156  2023-10-19 14:08:51.400349
3157  2023-10-19 14:08:51.432265
3158  2023-10-19 14:08:51.464177
3159  2023-10-19 14:08:51.496103
3160  2023-10-19 14:08:51.528012
3161  2023-10-19 14:08:51.559930
3162  2023-10-19 14:08:51.607765
3163  2023-10-19 14:08:51.640677
3164  2023-10-19 14:08:51.672592
3165  2023-10-19 14:08:51.704507
3166  2023-10-19 14:08:51.736449
3167  2023-10-19 14:08:51.768335
3168  2023-10-19 14:08:51.800255
3169  2023-10-19 14:08:51.832193
3170  2023-10-19 14:08:51.864111
3171  2023-10-19 14:08:51.896052
3172  2023-10-19 14:08:51.927970
3173  2023-10-19 14:08:51.959851
3174  2023-10-19 14:08:52.008724
3175  2023-10-19 14:08:52.040607
3176  2023-10-19 14:08:52.072522
3177  2023-10-19 14:08:52.104464
3178  2023-10-19 14:08:52.136381
3179  2023-10-19 14:08:52.168308
3180  2023-10-19 14:08:52.200214
3181  2023-10-19 14:08:52.232127
3182  2023-10-19 14:08:52.264044
3183  2023-10-19 14:08:52.295951
3184  2023-10-19 14:08:52.327875
3185  2023-10-19 14:08:52.359782
3186  2023-10-19 14:08:52.408623
3187  2023-10-19 14:08:52.440537
3188  2023-10-19 14:08:52.472452
3189  2023-10-19 14:08:52.504366
3190  2023-10-19 14:08:52.536282
3191  2023-10-19 14:08:52.568199
3192  2023-10-19 14:08:52.600149
3193  2023-10-19 14:08:52.632051
3194  2023-10-19 14:08:52.664937
3195  2023-10-19 14:08:52.696880
3196  2023-10-19 14:08:52.728767
3197  2023-10-19 14:08:52.760714
3198  2023-10-19 14:08:52.808553
3199  2023-10-19 14:08:52.840468
3200  2023-10-19 14:08:52.872382
3201  2023-10-19 14:08:52.904333
3202  2023-10-19 14:08:52.936250
3203  2023-10-19 14:08:52.968175
3204  2023-10-19 14:08:53.000069
3205  2023-10-19 14:08:53.031985
3206  2023-10-19 14:08:53.063905
3207  2023-10-19 14:08:53.095836
3208  2023-10-19 14:08:53.128697
3209  2023-10-19 14:08:53.160648
3210  2023-10-19 14:08:53.208483
3211  2023-10-19 14:08:53.240398
3212  2023-10-19 14:08:53.272312
3213  2023-10-19 14:08:53.304257
3214  2023-10-19 14:08:53.336171
3215  2023-10-19 14:08:53.368084
3216  2023-10-19 14:08:53.400010
3217  2023-10-19 14:08:53.431933
3218  2023-10-19 14:08:53.463838
3219  2023-10-19 14:08:53.495773
3220  2023-10-19 14:08:53.528675
3221  2023-10-19 14:08:53.560545
3222  2023-10-19 14:08:53.608413
3223  2023-10-19 14:08:53.640328
3224  2023-10-19 14:08:53.672243
3225  2023-10-19 14:08:53.704201
3226  2023-10-19 14:08:53.736098
3227  2023-10-19 14:08:53.768031
3228  2023-10-19 14:08:53.799927
3229  2023-10-19 14:08:53.832848
3230  2023-10-19 14:08:53.863758
3231  2023-10-19 14:08:53.896678
3232  2023-10-19 14:08:53.928558
3233  2023-10-19 14:08:53.960471
3234  2023-10-19 14:08:54.008371
3235  2023-10-19 14:08:54.040258
3236  2023-10-19 14:08:54.072176
3237  2023-10-19 14:08:54.104121
3238  2023-10-19 14:08:54.136030
3239  2023-10-19 14:08:54.167945
3240  2023-10-19 14:08:54.199867
3241  2023-10-19 14:08:54.231779
3242  2023-10-19 14:08:54.264704
3243  2023-10-19 14:08:54.296608
3244  2023-10-19 14:08:54.328525
3245  2023-10-19 14:08:54.360431
3246  2023-10-19 14:08:54.408274
3247  2023-10-19 14:08:54.440189
3248  2023-10-19 14:08:54.472104
3249  2023-10-19 14:08:54.504049
3250  2023-10-19 14:08:54.535963
3251  2023-10-19 14:08:54.568871
3252  2023-10-19 14:08:54.599763
3253  2023-10-19 14:08:54.632708
3254  2023-10-19 14:08:54.664626
3255  2023-10-19 14:08:54.696535
3256  2023-10-19 14:08:54.728451
3257  2023-10-19 14:08:54.760368
3258  2023-10-19 14:08:54.808205
3259  2023-10-19 14:08:54.840120
3260  2023-10-19 14:08:54.872033
3261  2023-10-19 14:08:54.903989
3262  2023-10-19 14:08:54.935891
3263  2023-10-19 14:08:54.968802
3264  2023-10-19 14:08:55.000688
3265  2023-10-19 14:08:55.032651
3266  2023-10-19 14:08:55.064548
3267  2023-10-19 14:08:55.096433
3268  2023-10-19 14:08:55.128374
3269  2023-10-19 14:08:55.160292
3270  2023-10-19 14:08:55.208134
3271  2023-10-19 14:08:55.240049
3272  2023-10-19 14:08:55.271964
3273  2023-10-19 14:08:55.303908
3274  2023-10-19 14:08:55.335819
3275  2023-10-19 14:08:55.367741
3276  2023-10-19 14:08:55.400654
3277  2023-10-19 14:08:55.432561
3278  2023-10-19 14:08:55.464477
3279  2023-10-19 14:08:55.496390
3280  2023-10-19 14:08:55.528306
3281  2023-10-19 14:08:55.560196
3282  2023-10-19 14:08:55.608065
3283  2023-10-19 14:08:55.639980
3284  2023-10-19 14:08:55.671893
3285  2023-10-19 14:08:55.703836
3286  2023-10-19 14:08:55.736720
3287  2023-10-19 14:08:55.768664
3288  2023-10-19 14:08:55.800575
3289  2023-10-19 14:08:55.832464
3290  2023-10-19 14:08:55.864413
3291  2023-10-19 14:08:55.896343
3292  2023-10-19 14:08:55.928249
3293  2023-10-19 14:08:55.960147
3294  2023-10-19 14:08:56.008030
3295  2023-10-19 14:08:56.039910
3296  2023-10-19 14:08:56.071850
3297  2023-10-19 14:08:56.103770
3298  2023-10-19 14:08:56.135658
3299  2023-10-19 14:08:56.168598
3300  2023-10-19 14:08:56.200505
3301  2023-10-19 14:08:56.232422
3302  2023-10-19 14:08:56.264337
3303  2023-10-19 14:08:56.296257
3304  2023-10-19 14:08:56.328166
3305  2023-10-19 14:08:56.360081
3306  2023-10-19 14:08:56.407925
3307  2023-10-19 14:08:56.439840
3308  2023-10-19 14:08:56.471782
3309  2023-10-19 14:08:56.504693
3310  2023-10-19 14:08:56.536606
3311  2023-10-19 14:08:56.568531
3312  2023-10-19 14:08:56.600411
3313  2023-10-19 14:08:56.632325
3314  2023-10-19 14:08:56.664241
3315  2023-10-19 14:08:56.696156
3316  2023-10-19 14:08:56.728072
3317  2023-10-19 14:08:56.759983
3318  2023-10-19 14:08:56.807854
3319  2023-10-19 14:08:56.839770
3320  2023-10-19 14:08:56.872683
3321  2023-10-19 14:08:56.904596
3322  2023-10-19 14:08:56.936550
3323  2023-10-19 14:08:56.968471
3324  2023-10-19 14:08:57.002368
3325  2023-10-19 14:08:57.032291
3326  2023-10-19 14:08:57.066204
3327  2023-10-19 14:08:57.098108
3328  2023-10-19 14:08:57.130026
3329  2023-10-19 14:08:57.161937
3330  2023-10-19 14:08:57.209813
3331  2023-10-19 14:08:57.241730
3332  2023-10-19 14:08:57.273645
3333  2023-10-19 14:08:57.305583
3334  2023-10-19 14:08:57.337471
3335  2023-10-19 14:08:57.369396
3336  2023-10-19 14:08:57.401311
3337  2023-10-19 14:08:57.433184
3338  2023-10-19 14:08:57.466122
3339  2023-10-19 14:08:57.498040
3340  2023-10-19 14:08:57.529949
3341  2023-10-19 14:08:57.561838
3342  2023-10-19 14:08:57.609736
3343  2023-10-19 14:08:57.641661
3344  2023-10-19 14:08:57.673567
3345  2023-10-19 14:08:57.705491
3346  2023-10-19 14:08:57.737414
3347  2023-10-19 14:08:57.769328
3348  2023-10-19 14:08:57.801245
3349  2023-10-19 14:08:57.833147
3350  2023-10-19 14:08:57.865066
3351  2023-10-19 14:08:57.896981
3352  2023-10-19 14:08:57.928883
3353  2023-10-19 14:08:57.960812
3354  2023-10-19 14:08:58.008672
3355  2023-10-19 14:08:58.040599
3356  2023-10-19 14:08:58.072502
3357  2023-10-19 14:08:58.105418
3358  2023-10-19 14:08:58.137299
3359  2023-10-19 14:08:58.169240
3360  2023-10-19 14:08:58.201156
3361  2023-10-19 14:08:58.233072
3362  2023-10-19 14:08:58.265004
3363  2023-10-19 14:08:58.296905
3364  2023-10-19 14:08:58.328817
3365  2023-10-19 14:08:58.360741
3366  2023-10-19 14:08:58.408604
3367  2023-10-19 14:08:58.440523
3368  2023-10-19 14:08:58.472442
3369  2023-10-19 14:08:58.504355
3370  2023-10-19 14:08:58.536234
3371  2023-10-19 14:08:58.569174
3372  2023-10-19 14:08:58.600091
3373  2023-10-19 14:08:58.633003
3374  2023-10-19 14:08:58.664888
3375  2023-10-19 14:08:58.696802
3376  2023-10-19 14:08:58.728717
3377  2023-10-19 14:08:58.760666
3378  2023-10-19 14:08:58.808504
3379  2023-10-19 14:08:58.840419
3380  2023-10-19 14:08:58.872376
3381  2023-10-19 14:08:58.904277
3382  2023-10-19 14:08:58.936212
3383  2023-10-19 14:08:58.969100
3384  2023-10-19 14:08:59.000999
3385  2023-10-19 14:08:59.031932
3386  2023-10-19 14:08:59.064863
3387  2023-10-19 14:08:59.096760
3388  2023-10-19 14:08:59.128693
3389  2023-10-19 14:08:59.160606
3390  2023-10-19 14:08:59.208473
3391  2023-10-19 14:08:59.240382
3392  2023-10-19 14:08:59.272302
3393  2023-10-19 14:08:59.304210
3394  2023-10-19 14:08:59.336127
3395  2023-10-19 14:08:59.368047
3396  2023-10-19 14:08:59.399948
3397  2023-10-19 14:08:59.431870
3398  2023-10-19 14:08:59.464748
3399  2023-10-19 14:08:59.496691
3400  2023-10-19 14:08:59.528603
3401  2023-10-19 14:08:59.560519
3402  2023-10-19 14:08:59.608394
3403  2023-10-19 14:08:59.640308
3404  2023-10-19 14:08:59.672225
3405  2023-10-19 14:08:59.704137
3406  2023-10-19 14:08:59.736067
3407  2023-10-19 14:08:59.767942
3408  2023-10-19 14:08:59.799852
3409  2023-10-19 14:08:59.831797
3410  2023-10-19 14:08:59.864713
3411  2023-10-19 14:08:59.896630
3412  2023-10-19 14:08:59.928537
3413  2023-10-19 14:08:59.960453
3414  2023-10-19 14:09:00.008293
3415  2023-10-19 14:09:00.040238
3416  2023-10-19 14:09:00.072152
3417  2023-10-19 14:09:00.104068
3418  2023-10-19 14:09:00.135988
3419  2023-10-19 14:09:00.168903
3420  2023-10-19 14:09:00.199817
3421  2023-10-19 14:09:00.232694
3422  2023-10-19 14:09:00.264609
3423  2023-10-19 14:09:00.296524
3424  2023-10-19 14:09:00.328475
3425  2023-10-19 14:09:00.360352
3426  2023-10-19 14:09:00.408254
3427  2023-10-19 14:09:00.440140
3428  2023-10-19 14:09:00.472053
3429  2023-10-19 14:09:00.504965
3430  2023-10-19 14:09:00.535905
3431  2023-10-19 14:09:00.567816
3432  2023-10-19 14:09:00.600710
3433  2023-10-19 14:09:00.632623
3434  2023-10-19 14:09:00.665541
3435  2023-10-19 14:09:00.697482
3436  2023-10-19 14:09:00.729402
3437  2023-10-19 14:09:00.761284
3438  2023-10-19 14:09:00.809156
3439  2023-10-19 14:09:00.840069
3440  2023-10-19 14:09:00.871984
3441  2023-10-19 14:09:00.905939
3442  2023-10-19 14:09:00.937848
3443  2023-10-19 14:09:00.969748
3444  2023-10-19 14:09:01.000684
3445  2023-10-19 14:09:01.032592
3446  2023-10-19 14:09:01.065495
3447  2023-10-19 14:09:01.097414
3448  2023-10-19 14:09:01.129326
3449  2023-10-19 14:09:01.160241
3450  2023-10-19 14:09:01.209111
3451  2023-10-19 14:09:01.240027
3452  2023-10-19 14:09:01.271943
3453  2023-10-19 14:09:01.304867
3454  2023-10-19 14:09:01.337775
3455  2023-10-19 14:09:01.368657
3456  2023-10-19 14:09:01.400571
3457  2023-10-19 14:09:01.432513
3458  2023-10-19 14:09:01.465425
3459  2023-10-19 14:09:01.497341
3460  2023-10-19 14:09:01.529285
3461  2023-10-19 14:09:01.560178
3462  2023-10-19 14:09:01.609039
3463  2023-10-19 14:09:01.639960
3464  2023-10-19 14:09:01.672843
3465  2023-10-19 14:09:01.705781
3466  2023-10-19 14:09:01.737695
3467  2023-10-19 14:09:01.769587
3468  2023-10-19 14:09:01.800505
3469  2023-10-19 14:09:01.832450
3470  2023-10-19 14:09:01.864362
3471  2023-10-19 14:09:01.897270
3472  2023-10-19 14:09:01.930183
3473  2023-10-19 14:09:01.960074
3474  2023-10-19 14:09:02.008976
3475  2023-10-19 14:09:02.039907
3476  2023-10-19 14:09:02.071801
3477  2023-10-19 14:09:02.104713
3478  2023-10-19 14:09:02.137654
3479  2023-10-19 14:09:02.168517
3480  2023-10-19 14:09:02.200458
3481  2023-10-19 14:09:02.232371
3482  2023-10-19 14:09:02.265285
3483  2023-10-19 14:09:02.297209
3484  2023-10-19 14:09:02.329114
3485  2023-10-19 14:09:02.360031
3486  2023-10-19 14:09:02.407902
3487  2023-10-19 14:09:02.439825
3488  2023-10-19 14:09:02.471732
3489  2023-10-19 14:09:02.504643
3490  2023-10-19 14:09:02.536574
3491  2023-10-19 14:09:02.568448
3492  2023-10-19 14:09:02.600396
3493  2023-10-19 14:09:02.632316
3494  2023-10-19 14:09:02.665215
3495  2023-10-19 14:09:02.697141
3496  2023-10-19 14:09:02.729042
3497  2023-10-19 14:09:02.759934
3498  2023-10-19 14:09:02.807806
3499  2023-10-19 14:09:02.840721
3500  2023-10-19 14:09:02.872635
3501  2023-10-19 14:09:02.904602
3502  2023-10-19 14:09:02.936488
3503  2023-10-19 14:09:02.968382
3504  2023-10-19 14:09:03.000290
3505  2023-10-19 14:09:03.032206
3506  2023-10-19 14:09:03.064153
3507  2023-10-19 14:09:03.096065
3508  2023-10-19 14:09:03.128947
3509  2023-10-19 14:09:03.160862
3510  2023-10-19 14:09:03.208736
3511  2023-10-19 14:09:03.240650
3512  2023-10-19 14:09:03.272562
3513  2023-10-19 14:09:03.304503
3514  2023-10-19 14:09:03.338448
3515  2023-10-19 14:09:03.368349
3516  2023-10-19 14:09:03.400220
3517  2023-10-19 14:09:03.432135
3518  2023-10-19 14:09:03.465074
3519  2023-10-19 14:09:03.495998
3520  2023-10-19 14:09:03.528878
3521  2023-10-19 14:09:03.559793
3522  2023-10-19 14:09:03.608663
3523  2023-10-19 14:09:03.640633
3524  2023-10-19 14:09:03.672495
3525  2023-10-19 14:09:03.704410
3526  2023-10-19 14:09:03.736322
3527  2023-10-19 14:09:03.768279
3528  2023-10-19 14:09:03.800152
3529  2023-10-19 14:09:03.832065
3530  2023-10-19 14:09:03.863980
3531  2023-10-19 14:09:03.895896
3532  2023-10-19 14:09:03.928808
3533  2023-10-19 14:09:03.960722
3534  2023-10-19 14:09:04.008594
3535  2023-10-19 14:09:04.040509
3536  2023-10-19 14:09:04.072455
3537  2023-10-19 14:09:04.104339
3538  2023-10-19 14:09:04.136253
3539  2023-10-19 14:09:04.168196
3540  2023-10-19 14:09:04.200129
3541  2023-10-19 14:09:04.231997
3542  2023-10-19 14:09:04.263946
3543  2023-10-19 14:09:04.296862
3544  2023-10-19 14:09:04.328738
3545  2023-10-19 14:09:04.360682
3546  2023-10-19 14:09:04.408563
3547  2023-10-19 14:09:04.440475
3548  2023-10-19 14:09:04.472352
3549  2023-10-19 14:09:04.504268
3550  2023-10-19 14:09:04.536212
3551  2023-10-19 14:09:04.568097
3552  2023-10-19 14:09:04.600012
3553  2023-10-19 14:09:04.631926
3554  2023-10-19 14:09:04.663840
3555  2023-10-19 14:09:04.696799
3556  2023-10-19 14:09:04.728668
3557  2023-10-19 14:09:04.760611
3558  2023-10-19 14:09:04.808482
3559  2023-10-19 14:09:04.840402
3560  2023-10-19 14:09:04.872283
3561  2023-10-19 14:09:04.904204
