
1  2023-10-17 09:52:38.299090
2  2023-10-17 09:52:38.331016
3  2023-10-17 09:52:38.362917
4  2023-10-17 09:52:38.394800
5  2023-10-17 09:52:38.426751
6  2023-10-17 09:52:38.459687
7  2023-10-17 09:52:38.491571
8  2023-10-17 09:52:38.523484
9  2023-10-17 09:52:38.555401
10  2023-10-17 09:52:38.587315
11  2023-10-17 09:52:38.635203
12  2023-10-17 09:52:38.667179
13  2023-10-17 09:52:38.699081
14  2023-10-17 09:52:38.731946
15  2023-10-17 09:52:38.762862
16  2023-10-17 09:52:38.794815
17  2023-10-17 09:52:38.827690
18  2023-10-17 09:52:38.859605
19  2023-10-17 09:52:38.891524
20  2023-10-17 09:52:38.923434
21  2023-10-17 09:52:38.955381
22  2023-10-17 09:52:38.987297
23  2023-10-17 09:52:39.035831
24  2023-10-17 09:52:39.067745
25  2023-10-17 09:52:39.099724
26  2023-10-17 09:52:39.131639
27  2023-10-17 09:52:39.163585
28  2023-10-17 09:52:39.195501
29  2023-10-17 09:52:39.227415
30  2023-10-17 09:52:39.259329
31  2023-10-17 09:52:39.291275
32  2023-10-17 09:52:39.323213
33  2023-10-17 09:52:39.355075
34  2023-10-17 09:52:39.387020
35  2023-10-17 09:52:39.434897
36  2023-10-17 09:52:39.467782
37  2023-10-17 09:52:39.499724
38  2023-10-17 09:52:39.531602
39  2023-10-17 09:52:39.563516
40  2023-10-17 09:52:39.595431
41  2023-10-17 09:52:39.627371
42  2023-10-17 09:52:39.659260
43  2023-10-17 09:52:39.691176
44  2023-10-17 09:52:39.723090
45  2023-10-17 09:52:39.755028
46  2023-10-17 09:52:39.787919
47  2023-10-17 09:52:39.835789
48  2023-10-17 09:52:39.867737
49  2023-10-17 09:52:39.899631
50  2023-10-17 09:52:39.931533
51  2023-10-17 09:52:39.982398
52  2023-10-17 09:52:40.027279
53  2023-10-17 09:52:40.043237
54  2023-10-17 09:52:40.059192
55  2023-10-17 09:52:40.138980
56  2023-10-17 09:52:40.205802
57  2023-10-17 09:52:40.235720
58  2023-10-17 09:52:40.267635
59  2023-10-17 09:52:40.299550
60  2023-10-17 09:52:40.331465
61  2023-10-17 09:52:40.363378
62  2023-10-17 09:52:40.395293
63  2023-10-17 09:52:40.427208
64  2023-10-17 09:52:40.460120
65  2023-10-17 09:52:40.491037
66  2023-10-17 09:52:40.523951
67  2023-10-17 09:52:40.554866
68  2023-10-17 09:52:40.586781
69  2023-10-17 09:52:40.635652
70  2023-10-17 09:52:40.667566
71  2023-10-17 09:52:40.699515
72  2023-10-17 09:52:40.731396
73  2023-10-17 09:52:40.763310
74  2023-10-17 09:52:40.795226
75  2023-10-17 09:52:40.827139
76  2023-10-17 09:52:40.859054
77  2023-10-17 09:52:40.890968
78  2023-10-17 09:52:40.922962
79  2023-10-17 09:52:40.955848
80  2023-10-17 09:52:40.986712
81  2023-10-17 09:52:41.035583
82  2023-10-17 09:52:41.067532
83  2023-10-17 09:52:41.099439
84  2023-10-17 09:52:41.131326
85  2023-10-17 09:52:41.163241
86  2023-10-17 09:52:41.195195
87  2023-10-17 09:52:41.227070
88  2023-10-17 09:52:41.259027
89  2023-10-17 09:52:41.291941
90  2023-10-17 09:52:41.322814
91  2023-10-17 09:52:41.355728
92  2023-10-17 09:52:41.403600
93  2023-10-17 09:52:41.435515
94  2023-10-17 09:52:41.467430
95  2023-10-17 09:52:41.499344
96  2023-10-17 09:52:41.534252
97  2023-10-17 09:52:41.563173
98  2023-10-17 09:52:41.595087
99  2023-10-17 09:52:41.627002
100  2023-10-17 09:52:41.658916
101  2023-10-17 09:52:41.690833
102  2023-10-17 09:52:41.723743
103  2023-10-17 09:52:41.755658
104  2023-10-17 09:52:41.803530
105  2023-10-17 09:52:41.835445
106  2023-10-17 09:52:41.867396
107  2023-10-17 09:52:41.899311
108  2023-10-17 09:52:41.931301
109  2023-10-17 09:52:41.963216
110  2023-10-17 09:52:41.995189
111  2023-10-17 09:52:42.027045
112  2023-10-17 09:52:42.058961
113  2023-10-17 09:52:42.090875
114  2023-10-17 09:52:42.122790
115  2023-10-17 09:52:42.155702
116  2023-10-17 09:52:42.203466
117  2023-10-17 09:52:42.235381
118  2023-10-17 09:52:42.267381
119  2023-10-17 09:52:42.299305
120  2023-10-17 09:52:42.331220
121  2023-10-17 09:52:42.363125
122  2023-10-17 09:52:42.395055
123  2023-10-17 09:52:42.426924
124  2023-10-17 09:52:42.458839
125  2023-10-17 09:52:42.490787
126  2023-10-17 09:52:42.522668
127  2023-10-17 09:52:42.555595
128  2023-10-17 09:52:42.603453
129  2023-10-17 09:52:42.635367
130  2023-10-17 09:52:42.667282
131  2023-10-17 09:52:42.699229
132  2023-10-17 09:52:42.731160
133  2023-10-17 09:52:42.763072
134  2023-10-17 09:52:42.794940
135  2023-10-17 09:52:42.826855
136  2023-10-17 09:52:42.858816
137  2023-10-17 09:52:42.891682
138  2023-10-17 09:52:42.923626
139  2023-10-17 09:52:42.955539
140  2023-10-17 09:52:43.003384
141  2023-10-17 09:52:43.035298
142  2023-10-17 09:52:43.067213
143  2023-10-17 09:52:43.099164
144  2023-10-17 09:52:43.132047
145  2023-10-17 09:52:43.162957
146  2023-10-17 09:52:43.195871
147  2023-10-17 09:52:43.227784
148  2023-10-17 09:52:43.259739
149  2023-10-17 09:52:43.291614
150  2023-10-17 09:52:43.323528
151  2023-10-17 09:52:43.355443
152  2023-10-17 09:52:43.403349
153  2023-10-17 09:52:43.435387
154  2023-10-17 09:52:43.467274
155  2023-10-17 09:52:43.499286
156  2023-10-17 09:52:43.531172
157  2023-10-17 09:52:43.563115
158  2023-10-17 09:52:43.595039
159  2023-10-17 09:52:43.626950
160  2023-10-17 09:52:43.658905
161  2023-10-17 09:52:43.690864
162  2023-10-17 09:52:43.723766
163  2023-10-17 09:52:43.755648
164  2023-10-17 09:52:43.803520
165  2023-10-17 09:52:43.835468
166  2023-10-17 09:52:43.867350
167  2023-10-17 09:52:43.899264
168  2023-10-17 09:52:43.931185
169  2023-10-17 09:52:44.061854
170  2023-10-17 09:52:44.090777
171  2023-10-17 09:52:44.123702
172  2023-10-17 09:52:44.155644
173  2023-10-17 09:52:44.203453
174  2023-10-17 09:52:44.235436
175  2023-10-17 09:52:44.267387
176  2023-10-17 09:52:44.299303
177  2023-10-17 09:52:44.331180
178  2023-10-17 09:52:44.363130
179  2023-10-17 09:52:44.395101
180  2023-10-17 09:52:44.427105
181  2023-10-17 09:52:44.458998
182  2023-10-17 09:52:44.490925
183  2023-10-17 09:52:44.522902
184  2023-10-17 09:52:44.554814
185  2023-10-17 09:52:44.603688
186  2023-10-17 09:52:44.635604
187  2023-10-17 09:52:44.667483
188  2023-10-17 09:52:44.699398
189  2023-10-17 09:52:44.731312
190  2023-10-17 09:52:44.763227
191  2023-10-17 09:52:44.795188
192  2023-10-17 09:52:44.827090
193  2023-10-17 09:52:44.858971
194  2023-10-17 09:52:44.890910
195  2023-10-17 09:52:44.922840
196  2023-10-17 09:52:44.971670
197  2023-10-17 09:52:45.003585
198  2023-10-17 09:52:45.035500
199  2023-10-17 09:52:45.067414
200  2023-10-17 09:52:45.099329
201  2023-10-17 09:52:45.131270
202  2023-10-17 09:52:45.163264
203  2023-10-17 09:52:45.195446
204  2023-10-17 09:52:45.227174
205  2023-10-17 09:52:45.259089
206  2023-10-17 09:52:45.292004
207  2023-10-17 09:52:45.323916
208  2023-10-17 09:52:45.371792
209  2023-10-17 09:52:45.403703
210  2023-10-17 09:52:45.435620
211  2023-10-17 09:52:45.467548
212  2023-10-17 09:52:45.499577
213  2023-10-17 09:52:45.531491
214  2023-10-17 09:52:45.563405
215  2023-10-17 09:52:45.595324
216  2023-10-17 09:52:45.627235
217  2023-10-17 09:52:45.659149
218  2023-10-17 09:52:45.691065
219  2023-10-17 09:52:45.722980
220  2023-10-17 09:52:45.770922
221  2023-10-17 09:52:45.803763
222  2023-10-17 09:52:45.835679
223  2023-10-17 09:52:45.867642
224  2023-10-17 09:52:45.899507
225  2023-10-17 09:52:45.931432
226  2023-10-17 09:52:45.963370
227  2023-10-17 09:52:45.995251
228  2023-10-17 09:52:46.027166
229  2023-10-17 09:52:46.059080
230  2023-10-17 09:52:46.091029
231  2023-10-17 09:52:46.122909
232  2023-10-17 09:52:46.171781
233  2023-10-17 09:52:46.202722
234  2023-10-17 09:52:46.235663
235  2023-10-17 09:52:46.267523
236  2023-10-17 09:52:46.299438
237  2023-10-17 09:52:46.331353
238  2023-10-17 09:52:46.363267
239  2023-10-17 09:52:46.395182
240  2023-10-17 09:52:46.427131
241  2023-10-17 09:52:46.459043
242  2023-10-17 09:52:46.490977
243  2023-10-17 09:52:46.522871
244  2023-10-17 09:52:46.571710
245  2023-10-17 09:52:46.603627
246  2023-10-17 09:52:46.635575
247  2023-10-17 09:52:46.667454
248  2023-10-17 09:52:46.699369
249  2023-10-17 09:52:46.731284
250  2023-10-17 09:52:46.763235
251  2023-10-17 09:52:46.795113
252  2023-10-17 09:52:46.827053
253  2023-10-17 09:52:46.858943
254  2023-10-17 09:52:46.890857
255  2023-10-17 09:52:46.922823
256  2023-10-17 09:52:46.971679
257  2023-10-17 09:52:47.003586
258  2023-10-17 09:52:47.035504
259  2023-10-17 09:52:47.067414
260  2023-10-17 09:52:47.099300
261  2023-10-17 09:52:47.131284
262  2023-10-17 09:52:47.163181
263  2023-10-17 09:52:47.195099
264  2023-10-17 09:52:47.226959
265  2023-10-17 09:52:47.259766
266  2023-10-17 09:52:47.291681
267  2023-10-17 09:52:47.323602
268  2023-10-17 09:52:47.371546
269  2023-10-17 09:52:47.403415
270  2023-10-17 09:52:47.435393
271  2023-10-17 09:52:47.467379
272  2023-10-17 09:52:47.499326
273  2023-10-17 09:52:47.531239
274  2023-10-17 09:52:47.563230
275  2023-10-17 09:52:47.595202
276  2023-10-17 09:52:47.627072
277  2023-10-17 09:52:47.658987
278  2023-10-17 09:52:47.690935
279  2023-10-17 09:52:47.722866
280  2023-10-17 09:52:47.771726
281  2023-10-17 09:52:47.803607
282  2023-10-17 09:52:47.835549
283  2023-10-17 09:52:47.867464
284  2023-10-17 09:52:47.899345
285  2023-10-17 09:52:47.932259
286  2023-10-17 09:52:47.963175
287  2023-10-17 09:52:47.995123
288  2023-10-17 09:52:48.027005
289  2023-10-17 09:52:48.058933
290  2023-10-17 09:52:48.090835
291  2023-10-17 09:52:48.122749
292  2023-10-17 09:52:48.171681
293  2023-10-17 09:52:48.203568
294  2023-10-17 09:52:48.235447
295  2023-10-17 09:52:48.267362
296  2023-10-17 09:52:48.299305
297  2023-10-17 09:52:48.331191
298  2023-10-17 09:52:48.363106
299  2023-10-17 09:52:48.395045
300  2023-10-17 09:52:48.426935
301  2023-10-17 09:52:48.458849
302  2023-10-17 09:52:48.490850
303  2023-10-17 09:52:48.538736
304  2023-10-17 09:52:48.571620
305  2023-10-17 09:52:48.603537
306  2023-10-17 09:52:48.635451
307  2023-10-17 09:52:48.667445
308  2023-10-17 09:52:48.699385
309  2023-10-17 09:52:48.731300
310  2023-10-17 09:52:48.763189
311  2023-10-17 09:52:48.795139
312  2023-10-17 09:52:48.827048
313  2023-10-17 09:52:48.858933
314  2023-10-17 09:52:48.890847
315  2023-10-17 09:52:48.939749
316  2023-10-17 09:52:48.971681
317  2023-10-17 09:52:49.003546
318  2023-10-17 09:52:49.035461
319  2023-10-17 09:52:49.067408
320  2023-10-17 09:52:49.099326
321  2023-10-17 09:52:49.131206
322  2023-10-17 09:52:49.163144
323  2023-10-17 09:52:49.195036
324  2023-10-17 09:52:49.226999
325  2023-10-17 09:52:49.258895
326  2023-10-17 09:52:49.290780
327  2023-10-17 09:52:49.339749
328  2023-10-17 09:52:49.371564
329  2023-10-17 09:52:49.403513
330  2023-10-17 09:52:49.435393
331  2023-10-17 09:52:49.467340
332  2023-10-17 09:52:49.499223
333  2023-10-17 09:52:49.531138
334  2023-10-17 09:52:49.727617
335  2023-10-17 09:52:49.739606
336  2023-10-17 09:52:49.771497
337  2023-10-17 09:52:49.804410
338  2023-10-17 09:52:49.835357
339  2023-10-17 09:52:49.867239
340  2023-10-17 09:52:49.899155
341  2023-10-17 09:52:49.932066
342  2023-10-17 09:52:49.962985
343  2023-10-17 09:52:49.994903
344  2023-10-17 09:52:50.026813
345  2023-10-17 09:52:50.059726
346  2023-10-17 09:52:50.091640
347  2023-10-17 09:52:50.139512
348  2023-10-17 09:52:50.171427
349  2023-10-17 09:52:50.203367
350  2023-10-17 09:52:50.235256
351  2023-10-17 09:52:50.267202
352  2023-10-17 09:52:50.299115
353  2023-10-17 09:52:50.331000
354  2023-10-17 09:52:50.362915
355  2023-10-17 09:52:50.394853
356  2023-10-17 09:52:50.426744
357  2023-10-17 09:52:50.459657
358  2023-10-17 09:52:50.491571
359  2023-10-17 09:52:50.539443
360  2023-10-17 09:52:50.571367
361  2023-10-17 09:52:50.603315
362  2023-10-17 09:52:50.635240
363  2023-10-17 09:52:50.667144
364  2023-10-17 09:52:50.699025
365  2023-10-17 09:52:50.730941
366  2023-10-17 09:52:50.762855
367  2023-10-17 09:52:50.794770
368  2023-10-17 09:52:50.827682
369  2023-10-17 09:52:50.859596
370  2023-10-17 09:52:50.891511
371  2023-10-17 09:52:50.939419
372  2023-10-17 09:52:50.971298
373  2023-10-17 09:52:51.003245
374  2023-10-17 09:52:51.035192
375  2023-10-17 09:52:51.067070
376  2023-10-17 09:52:51.098957
377  2023-10-17 09:52:51.130871
378  2023-10-17 09:52:51.162818
379  2023-10-17 09:52:51.194701
380  2023-10-17 09:52:51.227613
381  2023-10-17 09:52:51.259554
382  2023-10-17 09:52:51.291442
383  2023-10-17 09:52:51.339315
384  2023-10-17 09:52:51.371229
385  2023-10-17 09:52:51.403182
386  2023-10-17 09:52:51.435059
387  2023-10-17 09:52:51.466973
388  2023-10-17 09:52:51.498937
389  2023-10-17 09:52:51.531801
390  2023-10-17 09:52:51.563715
391  2023-10-17 09:52:51.595685
392  2023-10-17 09:52:51.627544
393  2023-10-17 09:52:51.659459
394  2023-10-17 09:52:51.691397
395  2023-10-17 09:52:51.739277
396  2023-10-17 09:52:51.771160
397  2023-10-17 09:52:51.803130
398  2023-10-17 09:52:51.835027
399  2023-10-17 09:52:51.866905
400  2023-10-17 09:52:51.899817
401  2023-10-17 09:52:51.931731
402  2023-10-17 09:52:51.963691
403  2023-10-17 09:52:51.995561
404  2023-10-17 09:52:52.027503
405  2023-10-17 09:52:52.059390
406  2023-10-17 09:52:52.091305
407  2023-10-17 09:52:52.139177
408  2023-10-17 09:52:52.171127
409  2023-10-17 09:52:52.203033
410  2023-10-17 09:52:52.234921
411  2023-10-17 09:52:52.266836
412  2023-10-17 09:52:52.299783
413  2023-10-17 09:52:52.331663
414  2023-10-17 09:52:52.363577
415  2023-10-17 09:52:52.395492
416  2023-10-17 09:52:52.427407
417  2023-10-17 09:52:52.459321
418  2023-10-17 09:52:52.507225
419  2023-10-17 09:52:52.539141
420  2023-10-17 09:52:52.572023
421  2023-10-17 09:52:52.603935
422  2023-10-17 09:52:52.635851
423  2023-10-17 09:52:52.667768
424  2023-10-17 09:52:52.699680
425  2023-10-17 09:52:52.731594
426  2023-10-17 09:52:52.763511
427  2023-10-17 09:52:52.795423
428  2023-10-17 09:52:52.827339
429  2023-10-17 09:52:52.859253
430  2023-10-17 09:52:52.907125
431  2023-10-17 09:52:52.939040
432  2023-10-17 09:52:52.971004
433  2023-10-17 09:52:53.003872
434  2023-10-17 09:52:53.035783
435  2023-10-17 09:52:53.067731
436  2023-10-17 09:52:53.099611
437  2023-10-17 09:52:53.131559
438  2023-10-17 09:52:53.163474
439  2023-10-17 09:52:53.195389
440  2023-10-17 09:52:53.227269
441  2023-10-17 09:52:53.259185
442  2023-10-17 09:52:53.307083
443  2023-10-17 09:52:53.339000
444  2023-10-17 09:52:53.371884
445  2023-10-17 09:52:53.402801
446  2023-10-17 09:52:53.435712
447  2023-10-17 09:52:53.467675
448  2023-10-17 09:52:53.499543
449  2023-10-17 09:52:53.531492
450  2023-10-17 09:52:53.563371
451  2023-10-17 09:52:53.595292
452  2023-10-17 09:52:53.627200
453  2023-10-17 09:52:53.659115
454  2023-10-17 09:52:53.707018
455  2023-10-17 09:52:53.739934
456  2023-10-17 09:52:53.771816
457  2023-10-17 09:52:53.803741
458  2023-10-17 09:52:53.835680
459  2023-10-17 09:52:53.867586
460  2023-10-17 09:52:53.899473
461  2023-10-17 09:52:53.931421
462  2023-10-17 09:52:53.963302
463  2023-10-17 09:52:53.995217
464  2023-10-17 09:52:54.027163
465  2023-10-17 09:52:54.059046
466  2023-10-17 09:52:54.107916
467  2023-10-17 09:52:54.138958
468  2023-10-17 09:52:54.171907
469  2023-10-17 09:52:54.203939
470  2023-10-17 09:52:54.235797
471  2023-10-17 09:52:54.267755
472  2023-10-17 09:52:54.299661
473  2023-10-17 09:52:54.331542
474  2023-10-17 09:52:54.363510
475  2023-10-17 09:52:54.395464
476  2023-10-17 09:52:54.427378
477  2023-10-17 09:52:54.459254
478  2023-10-17 09:52:54.507235
479  2023-10-17 09:52:54.539138
480  2023-10-17 09:52:54.571075
481  2023-10-17 09:52:54.602966
482  2023-10-17 09:52:54.634856
483  2023-10-17 09:52:54.667768
484  2023-10-17 09:52:54.699719
485  2023-10-17 09:52:54.731647
486  2023-10-17 09:52:54.763512
487  2023-10-17 09:52:54.916105
488  2023-10-17 09:52:54.939095
489  2023-10-17 09:52:54.971982
490  2023-10-17 09:52:55.002907
491  2023-10-17 09:52:55.035820
492  2023-10-17 09:52:55.067736
493  2023-10-17 09:52:55.099661
494  2023-10-17 09:52:55.131561
495  2023-10-17 09:52:55.163443
496  2023-10-17 09:52:55.195358
497  2023-10-17 09:52:55.227273
498  2023-10-17 09:52:55.259188
499  2023-10-17 09:52:55.307060
500  2023-10-17 09:52:55.339000
501  2023-10-17 09:52:55.370942
502  2023-10-17 09:52:55.403851
503  2023-10-17 09:52:55.435752
504  2023-10-17 09:52:55.467779
505  2023-10-17 09:52:55.499661
506  2023-10-17 09:52:55.531695
507  2023-10-17 09:52:55.563490
508  2023-10-17 09:52:55.595405
509  2023-10-17 09:52:55.627320
510  2023-10-17 09:52:55.659234
511  2023-10-17 09:52:55.707141
512  2023-10-17 09:52:55.739021
513  2023-10-17 09:52:55.771934
514  2023-10-17 09:52:55.803849
515  2023-10-17 09:52:55.835764
516  2023-10-17 09:52:55.867710
517  2023-10-17 09:52:55.899593
518  2023-10-17 09:52:55.931540
519  2023-10-17 09:52:55.963454
520  2023-10-17 09:52:55.995337
521  2023-10-17 09:52:56.027252
522  2023-10-17 09:52:56.075124
523  2023-10-17 09:52:56.107038
524  2023-10-17 09:52:56.138985
525  2023-10-17 09:52:56.171891
526  2023-10-17 09:52:56.203781
527  2023-10-17 09:52:56.235694
528  2023-10-17 09:52:56.267636
529  2023-10-17 09:52:56.299557
530  2023-10-17 09:52:56.331438
531  2023-10-17 09:52:56.363353
532  2023-10-17 09:52:56.395268
533  2023-10-17 09:52:56.427182
534  2023-10-17 09:52:56.475083
535  2023-10-17 09:52:56.506969
536  2023-10-17 09:52:56.538884
537  2023-10-17 09:52:56.571798
538  2023-10-17 09:52:56.603746
539  2023-10-17 09:52:56.635625
540  2023-10-17 09:52:56.667575
541  2023-10-17 09:52:56.699496
542  2023-10-17 09:52:56.731400
543  2023-10-17 09:52:56.763284
544  2023-10-17 09:52:56.795244
545  2023-10-17 09:52:56.827114
546  2023-10-17 09:52:56.875010
547  2023-10-17 09:52:56.907898
548  2023-10-17 09:52:56.939848
549  2023-10-17 09:52:56.971759
550  2023-10-17 09:52:57.003644
551  2023-10-17 09:52:57.035573
552  2023-10-17 09:52:57.067471
553  2023-10-17 09:52:57.099386
554  2023-10-17 09:52:57.131301
555  2023-10-17 09:52:57.163215
556  2023-10-17 09:52:57.195130
557  2023-10-17 09:52:57.227046
558  2023-10-17 09:52:57.274917
559  2023-10-17 09:52:57.307829
560  2023-10-17 09:52:57.338746
561  2023-10-17 09:52:57.371707
562  2023-10-17 09:52:57.403606
563  2023-10-17 09:52:57.435488
564  2023-10-17 09:52:57.467434
565  2023-10-17 09:52:57.499317
566  2023-10-17 09:52:57.531264
567  2023-10-17 09:52:57.563178
568  2023-10-17 09:52:57.595066
569  2023-10-17 09:52:57.626976
570  2023-10-17 09:52:57.674848
571  2023-10-17 09:52:57.707792
572  2023-10-17 09:52:57.739681
573  2023-10-17 09:52:57.771616
574  2023-10-17 09:52:57.803536
575  2023-10-17 09:52:57.835452
576  2023-10-17 09:52:57.867362
577  2023-10-17 09:52:57.899280
578  2023-10-17 09:52:57.931163
579  2023-10-17 09:52:57.963111
580  2023-10-17 09:52:57.995027
581  2023-10-17 09:52:58.026907
582  2023-10-17 09:52:58.075777
583  2023-10-17 09:52:58.107692
584  2023-10-17 09:52:58.139709
585  2023-10-17 09:52:58.171643
586  2023-10-17 09:52:58.203514
587  2023-10-17 09:52:58.235511
588  2023-10-17 09:52:58.267491
589  2023-10-17 09:52:58.299442
590  2023-10-17 09:52:58.331351
591  2023-10-17 09:52:58.363235
592  2023-10-17 09:52:58.395150
593  2023-10-17 09:52:58.427095
594  2023-10-17 09:52:58.475935
595  2023-10-17 09:52:58.506851
596  2023-10-17 09:52:58.539798
597  2023-10-17 09:52:58.571696
598  2023-10-17 09:52:58.603593
599  2023-10-17 09:52:58.635508
600  2023-10-17 09:52:58.667459
601  2023-10-17 09:52:58.699368
602  2023-10-17 09:52:58.732250
603  2023-10-17 09:52:58.764165
604  2023-10-17 09:52:58.795081
605  2023-10-17 09:52:58.828018
606  2023-10-17 09:52:58.875866
607  2023-10-17 09:52:58.907785
608  2023-10-17 09:52:58.939695
609  2023-10-17 09:52:58.971609
610  2023-10-17 09:52:59.003524
611  2023-10-17 09:52:59.035439
612  2023-10-17 09:52:59.068352
613  2023-10-17 09:52:59.099300
614  2023-10-17 09:52:59.132198
615  2023-10-17 09:52:59.163131
616  2023-10-17 09:52:59.195012
617  2023-10-17 09:52:59.227959
618  2023-10-17 09:52:59.275799
619  2023-10-17 09:52:59.307739
620  2023-10-17 09:52:59.339678
621  2023-10-17 09:52:59.371543
622  2023-10-17 09:52:59.403484
623  2023-10-17 09:52:59.435345
624  2023-10-17 09:52:59.467367
625  2023-10-17 09:52:59.499282
626  2023-10-17 09:52:59.531229
627  2023-10-17 09:52:59.563111
628  2023-10-17 09:52:59.595025
629  2023-10-17 09:52:59.627969
630  2023-10-17 09:52:59.674962
631  2023-10-17 09:52:59.707840
632  2023-10-17 09:52:59.739813
633  2023-10-17 09:52:59.771725
634  2023-10-17 09:52:59.803582
635  2023-10-17 09:52:59.835497
636  2023-10-17 09:52:59.867445
637  2023-10-17 09:52:59.899328
638  2023-10-17 09:52:59.931263
639  2023-10-17 09:52:59.963155
640  2023-10-17 09:52:59.996102
641  2023-10-17 09:53:00.042942
642  2023-10-17 09:53:00.074856
643  2023-10-17 09:53:00.107769
644  2023-10-17 09:53:00.139717
645  2023-10-17 09:53:00.171626
646  2023-10-17 09:53:00.203543
647  2023-10-17 09:53:00.235466
648  2023-10-17 09:53:00.267367
649  2023-10-17 09:53:00.299263
650  2023-10-17 09:53:00.331229
651  2023-10-17 09:53:00.363086
652  2023-10-17 09:53:00.604441
653  2023-10-17 09:53:00.635391
654  2023-10-17 09:53:00.667305
655  2023-10-17 09:53:00.699229
656  2023-10-17 09:53:00.731146
657  2023-10-17 09:53:00.763052
658  2023-10-17 09:53:00.795014
659  2023-10-17 09:53:00.843884
660  2023-10-17 09:53:00.875798
661  2023-10-17 09:53:00.907849
662  2023-10-17 09:53:00.939734
663  2023-10-17 09:53:00.971646
664  2023-10-17 09:53:01.003589
665  2023-10-17 09:53:01.035476
666  2023-10-17 09:53:01.067415
667  2023-10-17 09:53:01.100303
668  2023-10-17 09:53:01.132250
669  2023-10-17 09:53:01.163135
670  2023-10-17 09:53:01.195090
671  2023-10-17 09:53:01.244018
672  2023-10-17 09:53:01.275970
673  2023-10-17 09:53:01.307883
674  2023-10-17 09:53:01.339797
675  2023-10-17 09:53:01.371717
676  2023-10-17 09:53:01.403621
677  2023-10-17 09:53:01.435533
678  2023-10-17 09:53:01.467421
679  2023-10-17 09:53:01.499372
680  2023-10-17 09:53:01.532263
681  2023-10-17 09:53:01.563209
682  2023-10-17 09:53:01.595079
683  2023-10-17 09:53:01.642952
684  2023-10-17 09:53:01.674970
685  2023-10-17 09:53:01.706911
686  2023-10-17 09:53:01.739826
687  2023-10-17 09:53:01.771771
688  2023-10-17 09:53:01.803628
689  2023-10-17 09:53:01.835566
690  2023-10-17 09:53:01.867489
691  2023-10-17 09:53:01.899403
692  2023-10-17 09:53:01.931317
693  2023-10-17 09:53:01.963243
694  2023-10-17 09:53:01.995213
695  2023-10-17 09:53:02.043118
696  2023-10-17 09:53:02.075037
697  2023-10-17 09:53:02.106951
698  2023-10-17 09:53:02.139859
699  2023-10-17 09:53:02.171767
700  2023-10-17 09:53:02.203690
701  2023-10-17 09:53:02.235610
702  2023-10-17 09:53:02.267513
703  2023-10-17 09:53:02.299425
704  2023-10-17 09:53:02.331315
705  2023-10-17 09:53:02.363228
706  2023-10-17 09:53:02.395143
707  2023-10-17 09:53:02.444039
708  2023-10-17 09:53:02.474961
709  2023-10-17 09:53:02.507757
710  2023-10-17 09:53:02.539762
711  2023-10-17 09:53:02.571699
712  2023-10-17 09:53:02.603593
713  2023-10-17 09:53:02.635507
714  2023-10-17 09:53:02.667430
715  2023-10-17 09:53:02.699335
716  2023-10-17 09:53:02.731223
717  2023-10-17 09:53:02.763189
718  2023-10-17 09:53:02.795053
719  2023-10-17 09:53:02.843948
720  2023-10-17 09:53:02.874872
721  2023-10-17 09:53:02.907786
722  2023-10-17 09:53:02.939701
723  2023-10-17 09:53:02.971609
724  2023-10-17 09:53:03.003530
725  2023-10-17 09:53:03.035437
726  2023-10-17 09:53:03.067351
727  2023-10-17 09:53:03.099268
728  2023-10-17 09:53:03.131181
729  2023-10-17 09:53:03.163069
730  2023-10-17 09:53:03.195011
731  2023-10-17 09:53:03.243887
732  2023-10-17 09:53:03.274771
733  2023-10-17 09:53:03.307719
734  2023-10-17 09:53:03.339634
735  2023-10-17 09:53:03.371512
736  2023-10-17 09:53:03.403455
737  2023-10-17 09:53:03.435278
738  2023-10-17 09:53:03.467194
739  2023-10-17 09:53:03.499172
740  2023-10-17 09:53:03.531084
741  2023-10-17 09:53:03.563060
742  2023-10-17 09:53:03.610932
743  2023-10-17 09:53:03.642875
744  2023-10-17 09:53:03.675784
745  2023-10-17 09:53:03.707705
746  2023-10-17 09:53:03.739638
747  2023-10-17 09:53:03.771536
748  2023-10-17 09:53:03.803444
749  2023-10-17 09:53:03.835466
750  2023-10-17 09:53:03.867404
751  2023-10-17 09:53:03.899285
752  2023-10-17 09:53:03.931203
753  2023-10-17 09:53:03.963113
754  2023-10-17 09:53:04.010996
755  2023-10-17 09:53:04.042823
756  2023-10-17 09:53:04.075850
757  2023-10-17 09:53:04.107790
758  2023-10-17 09:53:04.139644
759  2023-10-17 09:53:04.171557
760  2023-10-17 09:53:04.203473
761  2023-10-17 09:53:04.235389
762  2023-10-17 09:53:04.267301
763  2023-10-17 09:53:04.300241
764  2023-10-17 09:53:04.331132
765  2023-10-17 09:53:04.363045
766  2023-10-17 09:53:04.410953
767  2023-10-17 09:53:04.443858
768  2023-10-17 09:53:04.475783
769  2023-10-17 09:53:04.507705
770  2023-10-17 09:53:04.539601
771  2023-10-17 09:53:04.571521
772  2023-10-17 09:53:04.603517
773  2023-10-17 09:53:04.635425
774  2023-10-17 09:53:04.667309
775  2023-10-17 09:53:04.699255
776  2023-10-17 09:53:04.731193
777  2023-10-17 09:53:04.764076
778  2023-10-17 09:53:04.810924
779  2023-10-17 09:53:04.843861
780  2023-10-17 09:53:04.875783
781  2023-10-17 09:53:04.907671
782  2023-10-17 09:53:04.939580
783  2023-10-17 09:53:04.971530
784  2023-10-17 09:53:05.003410
785  2023-10-17 09:53:05.035367
786  2023-10-17 09:53:05.067264
787  2023-10-17 09:53:05.099159
788  2023-10-17 09:53:05.131108
789  2023-10-17 09:53:05.163015
790  2023-10-17 09:53:05.210854
791  2023-10-17 09:53:05.243795
792  2023-10-17 09:53:05.275714
793  2023-10-17 09:53:05.307634
794  2023-10-17 09:53:05.339549
795  2023-10-17 09:53:05.371460
796  2023-10-17 09:53:05.403340
797  2023-10-17 09:53:05.435288
798  2023-10-17 09:53:05.467197
799  2023-10-17 09:53:05.499116
800  2023-10-17 09:53:05.531031
801  2023-10-17 09:53:05.562944
802  2023-10-17 09:53:05.610897
803  2023-10-17 09:53:05.643811
804  2023-10-17 09:53:05.675868
805  2023-10-17 09:53:05.707775
806  2023-10-17 09:53:05.739710
807  2023-10-17 09:53:05.771613
808  2023-10-17 09:53:05.803491
809  2023-10-17 09:53:05.835434
810  2023-10-17 09:53:05.867353
811  2023-10-17 09:53:05.899264
812  2023-10-17 09:53:05.931190
813  2023-10-17 09:53:05.963092
814  2023-10-17 09:53:06.010937
815  2023-10-17 09:53:06.205420
816  2023-10-17 09:53:06.235371
817  2023-10-17 09:53:06.267286
818  2023-10-17 09:53:06.299199
819  2023-10-17 09:53:06.331112
820  2023-10-17 09:53:06.363042
821  2023-10-17 09:53:06.411865
822  2023-10-17 09:53:06.443782
823  2023-10-17 09:53:06.475697
824  2023-10-17 09:53:06.507630
825  2023-10-17 09:53:06.539559
826  2023-10-17 09:53:06.571489
827  2023-10-17 09:53:06.603486
828  2023-10-17 09:53:06.635365
829  2023-10-17 09:53:06.667278
830  2023-10-17 09:53:06.700195
831  2023-10-17 09:53:06.732108
832  2023-10-17 09:53:06.764022
833  2023-10-17 09:53:06.811896
834  2023-10-17 09:53:06.843808
835  2023-10-17 09:53:06.875723
836  2023-10-17 09:53:06.908660
837  2023-10-17 09:53:06.939554
838  2023-10-17 09:53:06.971466
839  2023-10-17 09:53:07.003577
840  2023-10-17 09:53:07.036489
841  2023-10-17 09:53:07.067375
842  2023-10-17 09:53:07.099321
843  2023-10-17 09:53:07.131238
844  2023-10-17 09:53:07.179109
845  2023-10-17 09:53:07.211023
846  2023-10-17 09:53:07.243959
847  2023-10-17 09:53:07.275816
848  2023-10-17 09:53:07.307732
849  2023-10-17 09:53:07.339684
850  2023-10-17 09:53:07.371559
851  2023-10-17 09:53:07.403500
852  2023-10-17 09:53:07.436431
853  2023-10-17 09:53:07.467340
854  2023-10-17 09:53:07.499267
855  2023-10-17 09:53:07.531175
856  2023-10-17 09:53:07.579039
857  2023-10-17 09:53:07.610969
858  2023-10-17 09:53:07.643865
859  2023-10-17 09:53:07.675810
860  2023-10-17 09:53:07.707707
861  2023-10-17 09:53:07.739602
862  2023-10-17 09:53:07.771525
863  2023-10-17 09:53:07.803437
864  2023-10-17 09:53:07.835316
865  2023-10-17 09:53:07.868309
866  2023-10-17 09:53:07.899193
867  2023-10-17 09:53:07.931131
868  2023-10-17 09:53:07.978987
869  2023-10-17 09:53:08.010928
870  2023-10-17 09:53:08.043806
871  2023-10-17 09:53:08.075756
872  2023-10-17 09:53:08.107670
873  2023-10-17 09:53:08.139551
874  2023-10-17 09:53:08.171465
875  2023-10-17 09:53:08.203427
876  2023-10-17 09:53:08.235321
877  2023-10-17 09:53:08.267210
878  2023-10-17 09:53:08.299164
879  2023-10-17 09:53:08.332040
880  2023-10-17 09:53:08.379917
881  2023-10-17 09:53:08.411840
882  2023-10-17 09:53:08.443739
883  2023-10-17 09:53:08.475654
884  2023-10-17 09:53:08.507567
885  2023-10-17 09:53:08.540510
886  2023-10-17 09:53:08.571410
887  2023-10-17 09:53:08.603368
888  2023-10-17 09:53:08.635249
889  2023-10-17 09:53:08.668169
890  2023-10-17 09:53:08.699211
891  2023-10-17 09:53:08.731162
892  2023-10-17 09:53:08.779997
893  2023-10-17 09:53:08.810938
894  2023-10-17 09:53:08.843858
895  2023-10-17 09:53:08.875779
896  2023-10-17 09:53:08.907693
897  2023-10-17 09:53:08.939604
898  2023-10-17 09:53:08.971516
899  2023-10-17 09:53:09.003424
900  2023-10-17 09:53:09.035314
901  2023-10-17 09:53:09.067278
902  2023-10-17 09:53:09.100164
903  2023-10-17 09:53:09.131081
904  2023-10-17 09:53:09.179952
905  2023-10-17 09:53:09.210871
906  2023-10-17 09:53:09.243758
907  2023-10-17 09:53:09.275673
908  2023-10-17 09:53:09.307622
909  2023-10-17 09:53:09.339543
910  2023-10-17 09:53:09.371442
911  2023-10-17 09:53:09.403364
912  2023-10-17 09:53:09.435245
913  2023-10-17 09:53:09.467196
914  2023-10-17 09:53:09.499109
915  2023-10-17 09:53:09.531019
916  2023-10-17 09:53:09.578898
917  2023-10-17 09:53:09.611815
918  2023-10-17 09:53:09.643786
919  2023-10-17 09:53:09.675631
920  2023-10-17 09:53:09.707551
921  2023-10-17 09:53:09.739463
922  2023-10-17 09:53:09.771378
923  2023-10-17 09:53:09.803291
924  2023-10-17 09:53:09.835202
925  2023-10-17 09:53:09.867184
926  2023-10-17 09:53:09.900035
927  2023-10-17 09:53:09.930952
928  2023-10-17 09:53:09.979818
929  2023-10-17 09:53:10.011736
930  2023-10-17 09:53:10.043691
931  2023-10-17 09:53:10.075700
932  2023-10-17 09:53:10.107615
933  2023-10-17 09:53:10.139528
934  2023-10-17 09:53:10.171442
935  2023-10-17 09:53:10.203323
936  2023-10-17 09:53:10.235238
937  2023-10-17 09:53:10.267159
938  2023-10-17 09:53:10.299068
939  2023-10-17 09:53:10.330983
940  2023-10-17 09:53:10.379851
941  2023-10-17 09:53:10.411766
942  2023-10-17 09:53:10.443682
943  2023-10-17 09:53:10.475596
944  2023-10-17 09:53:10.507524
945  2023-10-17 09:53:10.539469
946  2023-10-17 09:53:10.571374
947  2023-10-17 09:53:10.603285
948  2023-10-17 09:53:10.635220
949  2023-10-17 09:53:10.667193
950  2023-10-17 09:53:10.699140
951  2023-10-17 09:53:10.731070
952  2023-10-17 09:53:10.780004
953  2023-10-17 09:53:10.810974
954  2023-10-17 09:53:10.843864
955  2023-10-17 09:53:10.875779
956  2023-10-17 09:53:10.907675
957  2023-10-17 09:53:10.939603
958  2023-10-17 09:53:10.971528
959  2023-10-17 09:53:11.003434
960  2023-10-17 09:53:11.035355
961  2023-10-17 09:53:11.067271
962  2023-10-17 09:53:11.099192
963  2023-10-17 09:53:11.147056
964  2023-10-17 09:53:11.179961
965  2023-10-17 09:53:11.211849
966  2023-10-17 09:53:11.296624
967  2023-10-17 09:53:11.307627
968  2023-10-17 09:53:11.339538
969  2023-10-17 09:53:11.371453
970  2023-10-17 09:53:11.403374
971  2023-10-17 09:53:11.435309
972  2023-10-17 09:53:11.467219
973  2023-10-17 09:53:11.499082
974  2023-10-17 09:53:11.546979
975  2023-10-17 09:53:11.579891
976  2023-10-17 09:53:11.611814
977  2023-10-17 09:53:11.643738
978  2023-10-17 09:53:11.675669
979  2023-10-17 09:53:11.707563
980  2023-10-17 09:53:11.739473
981  2023-10-17 09:53:11.771382
982  2023-10-17 09:53:11.803304
983  2023-10-17 09:53:11.835226
984  2023-10-17 09:53:11.867141
985  2023-10-17 09:53:11.900042
986  2023-10-17 09:53:11.946914
987  2023-10-17 09:53:11.979823
988  2023-10-17 09:53:12.011746
989  2023-10-17 09:53:12.043675
990  2023-10-17 09:53:12.075574
991  2023-10-17 09:53:12.107489
992  2023-10-17 09:53:12.139400
993  2023-10-17 09:53:12.171313
994  2023-10-17 09:53:12.203257
995  2023-10-17 09:53:12.235164
996  2023-10-17 09:53:12.267142
997  2023-10-17 09:53:12.299093
998  2023-10-17 09:53:12.346960
999  2023-10-17 09:53:12.379878
1000  2023-10-17 09:53:12.411760
1001  2023-10-17 09:53:12.443711
1002  2023-10-17 09:53:12.475631
1003  2023-10-17 09:53:12.507535
1004  2023-10-17 09:53:12.539457
1005  2023-10-17 09:53:12.571361
1006  2023-10-17 09:53:12.603280
1007  2023-10-17 09:53:12.635207
1008  2023-10-17 09:53:12.667109
1009  2023-10-17 09:53:12.699024
1010  2023-10-17 09:53:12.746903
1011  2023-10-17 09:53:12.779806
1012  2023-10-17 09:53:12.811733
1013  2023-10-17 09:53:12.843801
1014  2023-10-17 09:53:12.875551
1015  2023-10-17 09:53:12.907472
1016  2023-10-17 09:53:12.939383
1017  2023-10-17 09:53:12.972294
1018  2023-10-17 09:53:13.003180
1019  2023-10-17 09:53:13.035131
1020  2023-10-17 09:53:13.067040
1021  2023-10-17 09:53:13.098924
1022  2023-10-17 09:53:13.146846
1023  2023-10-17 09:53:13.179741
1024  2023-10-17 09:53:13.211658
1025  2023-10-17 09:53:13.243562
1026  2023-10-17 09:53:13.275485
1027  2023-10-17 09:53:13.307397
1028  2023-10-17 09:53:13.339325
1029  2023-10-17 09:53:13.371236
1030  2023-10-17 09:53:13.403137
1031  2023-10-17 09:53:13.435067
1032  2023-10-17 09:53:13.466973
1033  2023-10-17 09:53:13.499877
1034  2023-10-17 09:53:13.547759
1035  2023-10-17 09:53:13.579640
1036  2023-10-17 09:53:13.611586
1037  2023-10-17 09:53:13.643498
1038  2023-10-17 09:53:13.675414
1039  2023-10-17 09:53:13.707331
1040  2023-10-17 09:53:13.739259
1041  2023-10-17 09:53:13.771158
1042  2023-10-17 09:53:13.803069
1043  2023-10-17 09:53:13.835125
1044  2023-10-17 09:53:13.867054
1045  2023-10-17 09:53:13.899958
1046  2023-10-17 09:53:13.946840
1047  2023-10-17 09:53:13.979751
1048  2023-10-17 09:53:14.011662
1049  2023-10-17 09:53:14.043572
1050  2023-10-17 09:53:14.075484
1051  2023-10-17 09:53:14.107410
1052  2023-10-17 09:53:14.139312
1053  2023-10-17 09:53:14.171248
1054  2023-10-17 09:53:14.204141
1055  2023-10-17 09:53:14.235058
1056  2023-10-17 09:53:14.266976
1057  2023-10-17 09:53:14.299890
1058  2023-10-17 09:53:14.347753
1059  2023-10-17 09:53:14.379644
1060  2023-10-17 09:53:14.411606
1061  2023-10-17 09:53:14.443507
1062  2023-10-17 09:53:14.475423
1063  2023-10-17 09:53:14.507334
1064  2023-10-17 09:53:14.539251
1065  2023-10-17 09:53:14.571168
1066  2023-10-17 09:53:14.603081
1067  2023-10-17 09:53:14.635991
1068  2023-10-17 09:53:14.666875
1069  2023-10-17 09:53:14.714772
1070  2023-10-17 09:53:14.747660
1071  2023-10-17 09:53:14.779576
1072  2023-10-17 09:53:14.811490
1073  2023-10-17 09:53:14.843405
1074  2023-10-17 09:53:14.875352
1075  2023-10-17 09:53:14.907267
1076  2023-10-17 09:53:14.939186
1077  2023-10-17 09:53:14.971106
1078  2023-10-17 09:53:15.003003
1079  2023-10-17 09:53:15.034962
1080  2023-10-17 09:53:15.067875
1081  2023-10-17 09:53:15.114784
1082  2023-10-17 09:53:15.146742
1083  2023-10-17 09:53:15.179704
1084  2023-10-17 09:53:15.211606
1085  2023-10-17 09:53:15.243519
1086  2023-10-17 09:53:15.275435
1087  2023-10-17 09:53:15.307384
1088  2023-10-17 09:53:15.339336
1089  2023-10-17 09:53:15.371339
1090  2023-10-17 09:53:15.403259
1091  2023-10-17 09:53:15.435134
1092  2023-10-17 09:53:15.467049
1093  2023-10-17 09:53:15.514922
1094  2023-10-17 09:53:15.546867
1095  2023-10-17 09:53:15.579667
1096  2023-10-17 09:53:15.611598
1097  2023-10-17 09:53:15.643512
1098  2023-10-17 09:53:15.675410
1099  2023-10-17 09:53:15.707482
1100  2023-10-17 09:53:15.739431
1101  2023-10-17 09:53:15.771343
1102  2023-10-17 09:53:15.804255
1103  2023-10-17 09:53:15.836140
1104  2023-10-17 09:53:15.867090
1105  2023-10-17 09:53:15.915926
1106  2023-10-17 09:53:15.947840
1107  2023-10-17 09:53:15.979756
1108  2023-10-17 09:53:16.011670
1109  2023-10-17 09:53:16.043586
1110  2023-10-17 09:53:16.075501
1111  2023-10-17 09:53:16.107414
1112  2023-10-17 09:53:16.140353
1113  2023-10-17 09:53:16.171259
1114  2023-10-17 09:53:16.203225
1115  2023-10-17 09:53:16.236137
1116  2023-10-17 09:53:16.267054
1117  2023-10-17 09:53:16.315009
1118  2023-10-17 09:53:16.347954
1119  2023-10-17 09:53:16.379906
1120  2023-10-17 09:53:16.411794
1121  2023-10-17 09:53:16.443691
1122  2023-10-17 09:53:16.475619
1123  2023-10-17 09:53:16.507527
1124  2023-10-17 09:53:16.539437
1125  2023-10-17 09:53:16.571370
1126  2023-10-17 09:53:16.603281
1127  2023-10-17 09:53:16.635182
1128  2023-10-17 09:53:16.667083
1129  2023-10-17 09:53:16.714955
1130  2023-10-17 09:53:16.747945
1131  2023-10-17 09:53:16.779921
1132  2023-10-17 09:53:16.811842
1133  2023-10-17 09:53:16.843755
1134  2023-10-17 09:53:16.875639
1135  2023-10-17 09:53:16.956468
1136  2023-10-17 09:53:16.971441
1137  2023-10-17 09:53:17.003300
1138  2023-10-17 09:53:17.035271
1139  2023-10-17 09:53:17.067175
1140  2023-10-17 09:53:17.115000
1141  2023-10-17 09:53:17.146914
1142  2023-10-17 09:53:17.179866
1143  2023-10-17 09:53:17.211777
1144  2023-10-17 09:53:17.243713
1145  2023-10-17 09:53:17.275570
1146  2023-10-17 09:53:17.307522
1147  2023-10-17 09:53:17.339447
1148  2023-10-17 09:53:17.371360
1149  2023-10-17 09:53:17.403283
1150  2023-10-17 09:53:17.435188
1151  2023-10-17 09:53:17.467089
1152  2023-10-17 09:53:17.514931
1153  2023-10-17 09:53:17.546877
1154  2023-10-17 09:53:17.579790
1155  2023-10-17 09:53:17.611729
1156  2023-10-17 09:53:17.643620
1157  2023-10-17 09:53:17.675501
1158  2023-10-17 09:53:17.707444
1159  2023-10-17 09:53:17.739365
1160  2023-10-17 09:53:17.771291
1161  2023-10-17 09:53:17.803195
1162  2023-10-17 09:53:17.835102
1163  2023-10-17 09:53:17.866990
1164  2023-10-17 09:53:17.914862
1165  2023-10-17 09:53:17.946810
1166  2023-10-17 09:53:17.979724
1167  2023-10-17 09:53:18.011635
1168  2023-10-17 09:53:18.043549
1169  2023-10-17 09:53:18.075474
1170  2023-10-17 09:53:18.107377
1171  2023-10-17 09:53:18.139296
1172  2023-10-17 09:53:18.171222
1173  2023-10-17 09:53:18.203123
1174  2023-10-17 09:53:18.235032
1175  2023-10-17 09:53:18.266946
1176  2023-10-17 09:53:18.314824
1177  2023-10-17 09:53:18.346708
1178  2023-10-17 09:53:18.379682
1179  2023-10-17 09:53:18.411572
1180  2023-10-17 09:53:18.443485
1181  2023-10-17 09:53:18.475375
1182  2023-10-17 09:53:18.507312
1183  2023-10-17 09:53:18.539245
1184  2023-10-17 09:53:18.571141
1185  2023-10-17 09:53:18.603048
1186  2023-10-17 09:53:18.634969
1187  2023-10-17 09:53:18.682843
1188  2023-10-17 09:53:18.714758
1189  2023-10-17 09:53:18.747637
1190  2023-10-17 09:53:18.779585
1191  2023-10-17 09:53:18.811497
1192  2023-10-17 09:53:18.843412
1193  2023-10-17 09:53:18.875325
1194  2023-10-17 09:53:18.907210
1195  2023-10-17 09:53:18.940123
1196  2023-10-17 09:53:18.971041
1197  2023-10-17 09:53:19.002985
1198  2023-10-17 09:53:19.035897
1199  2023-10-17 09:53:19.082783
1200  2023-10-17 09:53:19.115689
1201  2023-10-17 09:53:19.147568
1202  2023-10-17 09:53:19.179517
1203  2023-10-17 09:53:19.211435
1204  2023-10-17 09:53:19.243346
1205  2023-10-17 09:53:19.275290
1206  2023-10-17 09:53:19.308177
1207  2023-10-17 09:53:19.340055
1208  2023-10-17 09:53:19.370996
1209  2023-10-17 09:53:19.403917
1210  2023-10-17 09:53:19.435830
1211  2023-10-17 09:53:19.483703
1212  2023-10-17 09:53:19.515632
1213  2023-10-17 09:53:19.547546
1214  2023-10-17 09:53:19.579553
1215  2023-10-17 09:53:19.611516
1216  2023-10-17 09:53:19.643415
1217  2023-10-17 09:53:19.675331
1218  2023-10-17 09:53:19.707253
1219  2023-10-17 09:53:19.739153
1220  2023-10-17 09:53:19.771067
1221  2023-10-17 09:53:19.803110
1222  2023-10-17 09:53:19.836017
1223  2023-10-17 09:53:19.882890
1224  2023-10-17 09:53:19.914806
1225  2023-10-17 09:53:19.947686
1226  2023-10-17 09:53:19.979640
1227  2023-10-17 09:53:20.011550
1228  2023-10-17 09:53:20.043461
1229  2023-10-17 09:53:20.075378
1230  2023-10-17 09:53:20.107293
1231  2023-10-17 09:53:20.139174
1232  2023-10-17 09:53:20.171132
1233  2023-10-17 09:53:20.204047
1234  2023-10-17 09:53:20.235968
1235  2023-10-17 09:53:20.282898
1236  2023-10-17 09:53:20.314803
1237  2023-10-17 09:53:20.347727
1238  2023-10-17 09:53:20.379598
1239  2023-10-17 09:53:20.411635
1240  2023-10-17 09:53:20.443548
1241  2023-10-17 09:53:20.475460
1242  2023-10-17 09:53:20.507388
1243  2023-10-17 09:53:20.539432
1244  2023-10-17 09:53:20.571343
1245  2023-10-17 09:53:20.603261
1246  2023-10-17 09:53:20.635184
1247  2023-10-17 09:53:20.683060
1248  2023-10-17 09:53:20.714957
1249  2023-10-17 09:53:20.746841
1250  2023-10-17 09:53:20.779754
1251  2023-10-17 09:53:20.811699
1252  2023-10-17 09:53:20.843629
1253  2023-10-17 09:53:20.875532
1254  2023-10-17 09:53:20.907449
1255  2023-10-17 09:53:20.939361
1256  2023-10-17 09:53:20.971279
1257  2023-10-17 09:53:21.003193
1258  2023-10-17 09:53:21.036114
1259  2023-10-17 09:53:21.082989
1260  2023-10-17 09:53:21.114903
1261  2023-10-17 09:53:21.146772
1262  2023-10-17 09:53:21.179722
1263  2023-10-17 09:53:21.211630
1264  2023-10-17 09:53:21.243553
1265  2023-10-17 09:53:21.275465
1266  2023-10-17 09:53:21.308342
1267  2023-10-17 09:53:21.340257
1268  2023-10-17 09:53:21.371317
1269  2023-10-17 09:53:21.403112
1270  2023-10-17 09:53:21.436001
1271  2023-10-17 09:53:21.483872
1272  2023-10-17 09:53:21.515788
1273  2023-10-17 09:53:21.547702
1274  2023-10-17 09:53:21.579616
1275  2023-10-17 09:53:21.611536
1276  2023-10-17 09:53:21.643447
1277  2023-10-17 09:53:21.675392
1278  2023-10-17 09:53:21.707276
1279  2023-10-17 09:53:21.739231
1280  2023-10-17 09:53:21.771128
1281  2023-10-17 09:53:21.803050
1282  2023-10-17 09:53:21.835967
1283  2023-10-17 09:53:21.883840
1284  2023-10-17 09:53:21.914841
1285  2023-10-17 09:53:21.947754
1286  2023-10-17 09:53:21.979703
1287  2023-10-17 09:53:22.011620
1288  2023-10-17 09:53:22.043530
1289  2023-10-17 09:53:22.075452
1290  2023-10-17 09:53:22.107328
1291  2023-10-17 09:53:22.139393
1292  2023-10-17 09:53:22.171346
1293  2023-10-17 09:53:22.203277
1294  2023-10-17 09:53:22.251150
1295  2023-10-17 09:53:22.283090
1296  2023-10-17 09:53:22.315022
1297  2023-10-17 09:53:22.346936
1298  2023-10-17 09:53:22.379834
1299  2023-10-17 09:53:22.411799
1300  2023-10-17 09:53:22.443679
1301  2023-10-17 09:53:22.498535
1302  2023-10-17 09:53:22.507547
1303  2023-10-17 09:53:22.539458
1304  2023-10-17 09:53:22.571371
1305  2023-10-17 09:53:22.603289
1306  2023-10-17 09:53:22.652123
1307  2023-10-17 09:53:22.683072
1308  2023-10-17 09:53:22.715952
1309  2023-10-17 09:53:22.747868
1310  2023-10-17 09:53:22.779750
1311  2023-10-17 09:53:22.811661
1312  2023-10-17 09:53:22.843669
1313  2023-10-17 09:53:22.875607
1314  2023-10-17 09:53:22.907510
1315  2023-10-17 09:53:22.939418
1316  2023-10-17 09:53:22.971329
1317  2023-10-17 09:53:23.003246
1318  2023-10-17 09:53:23.051083
1319  2023-10-17 09:53:23.083030
1320  2023-10-17 09:53:23.114945
1321  2023-10-17 09:53:23.146853
1322  2023-10-17 09:53:23.179770
1323  2023-10-17 09:53:23.211654
1324  2023-10-17 09:53:23.243599
1325  2023-10-17 09:53:23.275515
1326  2023-10-17 09:53:23.307430
1327  2023-10-17 09:53:23.339344
1328  2023-10-17 09:53:23.371275
1329  2023-10-17 09:53:23.404176
1330  2023-10-17 09:53:23.451014
1331  2023-10-17 09:53:23.482964
1332  2023-10-17 09:53:23.515873
1333  2023-10-17 09:53:23.547781
1334  2023-10-17 09:53:23.579675
1335  2023-10-17 09:53:23.611616
1336  2023-10-17 09:53:23.643532
1337  2023-10-17 09:53:23.675453
1338  2023-10-17 09:53:23.707362
1339  2023-10-17 09:53:23.739277
1340  2023-10-17 09:53:23.771159
1341  2023-10-17 09:53:23.803098
1342  2023-10-17 09:53:23.850992
1343  2023-10-17 09:53:23.882885
1344  2023-10-17 09:53:23.915858
1345  2023-10-17 09:53:23.947801
1346  2023-10-17 09:53:23.979803
1347  2023-10-17 09:53:24.011713
1348  2023-10-17 09:53:24.043667
1349  2023-10-17 09:53:24.075591
1350  2023-10-17 09:53:24.107492
1351  2023-10-17 09:53:24.139408
1352  2023-10-17 09:53:24.171322
1353  2023-10-17 09:53:24.203236
1354  2023-10-17 09:53:24.251073
1355  2023-10-17 09:53:24.283020
1356  2023-10-17 09:53:24.314903
1357  2023-10-17 09:53:24.346817
1358  2023-10-17 09:53:24.379781
1359  2023-10-17 09:53:24.411655
1360  2023-10-17 09:53:24.443592
1361  2023-10-17 09:53:24.475512
1362  2023-10-17 09:53:24.507422
1363  2023-10-17 09:53:24.539335
1364  2023-10-17 09:53:24.571252
1365  2023-10-17 09:53:24.603164
1366  2023-10-17 09:53:24.651004
1367  2023-10-17 09:53:24.682919
1368  2023-10-17 09:53:24.714866
1369  2023-10-17 09:53:24.746779
1370  2023-10-17 09:53:24.779661
1371  2023-10-17 09:53:24.811607
1372  2023-10-17 09:53:24.843521
1373  2023-10-17 09:53:24.875406
1374  2023-10-17 09:53:24.908350
1375  2023-10-17 09:53:24.939294
1376  2023-10-17 09:53:24.971206
1377  2023-10-17 09:53:25.003098
1378  2023-10-17 09:53:25.050935
1379  2023-10-17 09:53:25.083882
1380  2023-10-17 09:53:25.115762
1381  2023-10-17 09:53:25.147677
1382  2023-10-17 09:53:25.179617
1383  2023-10-17 09:53:25.211506
1384  2023-10-17 09:53:25.243525
1385  2023-10-17 09:53:25.275435
1386  2023-10-17 09:53:25.307322
1387  2023-10-17 09:53:25.339236
1388  2023-10-17 09:53:25.371284
1389  2023-10-17 09:53:25.403191
1390  2023-10-17 09:53:25.451026
1391  2023-10-17 09:53:25.482973
1392  2023-10-17 09:53:25.514974
1393  2023-10-17 09:53:25.546894
1394  2023-10-17 09:53:25.579851
1395  2023-10-17 09:53:25.610872
1396  2023-10-17 09:53:25.643784
1397  2023-10-17 09:53:25.675723
1398  2023-10-17 09:53:25.707615
1399  2023-10-17 09:53:25.739555
1400  2023-10-17 09:53:25.771503
1401  2023-10-17 09:53:25.819341
1402  2023-10-17 09:53:25.851287
1403  2023-10-17 09:53:25.883171
1404  2023-10-17 09:53:25.915086
1405  2023-10-17 09:53:25.948011
1406  2023-10-17 09:53:25.979912
1407  2023-10-17 09:53:26.011858
1408  2023-10-17 09:53:26.043759
1409  2023-10-17 09:53:26.075689
1410  2023-10-17 09:53:26.107603
1411  2023-10-17 09:53:26.139486
1412  2023-10-17 09:53:26.171401
1413  2023-10-17 09:53:26.219273
1414  2023-10-17 09:53:26.251187
1415  2023-10-17 09:53:26.283215
1416  2023-10-17 09:53:26.315170
1417  2023-10-17 09:53:26.347084
1418  2023-10-17 09:53:26.379002
1419  2023-10-17 09:53:26.411911
1420  2023-10-17 09:53:26.442864
1421  2023-10-17 09:53:26.475769
1422  2023-10-17 09:53:26.507663
1423  2023-10-17 09:53:26.539603
1424  2023-10-17 09:53:26.571486
1425  2023-10-17 09:53:26.619448
1426  2023-10-17 09:53:26.651371
1427  2023-10-17 09:53:26.683315
1428  2023-10-17 09:53:26.715261
1429  2023-10-17 09:53:26.747193
1430  2023-10-17 09:53:26.779058
1431  2023-10-17 09:53:26.810997
1432  2023-10-17 09:53:26.842914
1433  2023-10-17 09:53:26.875838
1434  2023-10-17 09:53:26.907751
1435  2023-10-17 09:53:26.939668
1436  2023-10-17 09:53:26.971543
1437  2023-10-17 09:53:27.019415
1438  2023-10-17 09:53:27.051366
1439  2023-10-17 09:53:27.083280
1440  2023-10-17 09:53:27.115160
1441  2023-10-17 09:53:27.147122
1442  2023-10-17 09:53:27.179986
1443  2023-10-17 09:53:27.210938
1444  2023-10-17 09:53:27.243848
1445  2023-10-17 09:53:27.275771
1446  2023-10-17 09:53:27.307680
1447  2023-10-17 09:53:27.339591
1448  2023-10-17 09:53:27.371474
1449  2023-10-17 09:53:27.419347
1450  2023-10-17 09:53:27.451261
1451  2023-10-17 09:53:27.483221
1452  2023-10-17 09:53:27.515124
1453  2023-10-17 09:53:27.547006
1454  2023-10-17 09:53:27.578944
1455  2023-10-17 09:53:27.611865
1456  2023-10-17 09:53:27.643773
1457  2023-10-17 09:53:27.675693
1458  2023-10-17 09:53:27.707607
1459  2023-10-17 09:53:27.739522
1460  2023-10-17 09:53:27.771440
1461  2023-10-17 09:53:27.819313
1462  2023-10-17 09:53:27.851192
1463  2023-10-17 09:53:27.883107
1464  2023-10-17 09:53:27.915051
1465  2023-10-17 09:53:27.946966
1466  2023-10-17 09:53:27.979850
1467  2023-10-17 09:53:28.011764
1468  2023-10-17 09:53:28.043680
1469  2023-10-17 09:53:28.075595
1470  2023-10-17 09:53:28.107508
1471  2023-10-17 09:53:28.139423
1472  2023-10-17 09:53:28.171337
1473  2023-10-17 09:53:28.219209
1474  2023-10-17 09:53:28.251166
1475  2023-10-17 09:53:28.283038
1476  2023-10-17 09:53:28.314953
1477  2023-10-17 09:53:28.347003
1478  2023-10-17 09:53:28.378945
1479  2023-10-17 09:53:28.411833
1480  2023-10-17 09:53:28.443780
1481  2023-10-17 09:53:28.475711
1482  2023-10-17 09:53:28.507607
1483  2023-10-17 09:53:28.539622
1484  2023-10-17 09:53:28.571621
1485  2023-10-17 09:53:28.619444
1486  2023-10-17 09:53:28.651359
1487  2023-10-17 09:53:28.683274
1488  2023-10-17 09:53:28.715188
1489  2023-10-17 09:53:28.748152
1490  2023-10-17 09:53:28.780018
1491  2023-10-17 09:53:28.811975
1492  2023-10-17 09:53:28.843844
1493  2023-10-17 09:53:28.875760
1494  2023-10-17 09:53:28.907675
1495  2023-10-17 09:53:28.939623
1496  2023-10-17 09:53:28.971504
1497  2023-10-17 09:53:29.019375
1498  2023-10-17 09:53:29.051290
1499  2023-10-17 09:53:29.083205
1500  2023-10-17 09:53:29.115120
1501  2023-10-17 09:53:29.147034
1502  2023-10-17 09:53:29.178949
1503  2023-10-17 09:53:29.211893
1504  2023-10-17 09:53:29.243778
1505  2023-10-17 09:53:29.275738
1506  2023-10-17 09:53:29.307636
1507  2023-10-17 09:53:29.339568
1508  2023-10-17 09:53:29.371435
1509  2023-10-17 09:53:29.419333
1510  2023-10-17 09:53:29.451221
1511  2023-10-17 09:53:29.483182
1512  2023-10-17 09:53:29.515051
1513  2023-10-17 09:53:29.546997
1514  2023-10-17 09:53:29.579910
1515  2023-10-17 09:53:29.611792
1516  2023-10-17 09:53:29.643707
1517  2023-10-17 09:53:29.675666
1518  2023-10-17 09:53:29.707536
1519  2023-10-17 09:53:29.739482
1520  2023-10-17 09:53:29.787324
1521  2023-10-17 09:53:29.819272
1522  2023-10-17 09:53:29.851153
1523  2023-10-17 09:53:29.883067
1524  2023-10-17 09:53:29.915023
1525  2023-10-17 09:53:29.946897
1526  2023-10-17 09:53:29.979852
1527  2023-10-17 09:53:30.011759
1528  2023-10-17 09:53:30.043687
1529  2023-10-17 09:53:30.075553
1530  2023-10-17 09:53:30.107512
1531  2023-10-17 09:53:30.139420
1532  2023-10-17 09:53:30.187281
1533  2023-10-17 09:53:30.219169
1534  2023-10-17 09:53:30.251120
1535  2023-10-17 09:53:30.282999
1536  2023-10-17 09:53:30.314913
1537  2023-10-17 09:53:30.346861
1538  2023-10-17 09:53:30.379774
1539  2023-10-17 09:53:30.411655
1540  2023-10-17 09:53:30.443600
1541  2023-10-17 09:53:30.475517
1542  2023-10-17 09:53:30.507431
1543  2023-10-17 09:53:30.539352
1544  2023-10-17 09:53:30.587186
1545  2023-10-17 09:53:30.619100
1546  2023-10-17 09:53:30.651015
1547  2023-10-17 09:53:30.682930
1548  2023-10-17 09:53:30.714845
1549  2023-10-17 09:53:30.746759
1550  2023-10-17 09:53:30.779721
1551  2023-10-17 09:53:30.811586
1552  2023-10-17 09:53:30.843533
1553  2023-10-17 09:53:30.875450
1554  2023-10-17 09:53:30.908329
1555  2023-10-17 09:53:30.940244
1556  2023-10-17 09:53:30.987117
1557  2023-10-17 09:53:31.020037
1558  2023-10-17 09:53:31.051945
1559  2023-10-17 09:53:31.083859
1560  2023-10-17 09:53:31.115777
1561  2023-10-17 09:53:31.147690
1562  2023-10-17 09:53:31.179603
1563  2023-10-17 09:53:31.211554
1564  2023-10-17 09:53:31.243436
1565  2023-10-17 09:53:31.275378
1566  2023-10-17 09:53:31.307293
1567  2023-10-17 09:53:31.339229
1568  2023-10-17 09:53:31.388091
1569  2023-10-17 09:53:31.418995
1570  2023-10-17 09:53:31.450879
1571  2023-10-17 09:53:31.483823
1572  2023-10-17 09:53:31.515706
1573  2023-10-17 09:53:31.547620
1574  2023-10-17 09:53:31.579563
1575  2023-10-17 09:53:31.611480
1576  2023-10-17 09:53:31.643397
1577  2023-10-17 09:53:31.675292
1578  2023-10-17 09:53:31.707194
1579  2023-10-17 09:53:31.739137
1580  2023-10-17 09:53:31.786981
1581  2023-10-17 09:53:31.819893
1582  2023-10-17 09:53:31.850841
1583  2023-10-17 09:53:31.883722
1584  2023-10-17 09:53:31.915637
1585  2023-10-17 09:53:31.947552
1586  2023-10-17 09:53:31.979502
1587  2023-10-17 09:53:32.012410
1588  2023-10-17 09:53:32.043296
1589  2023-10-17 09:53:32.075254
1590  2023-10-17 09:53:32.107127
1591  2023-10-17 09:53:32.139066
1592  2023-10-17 09:53:32.187933
1593  2023-10-17 09:53:32.218825
1594  2023-10-17 09:53:32.250771
1595  2023-10-17 09:53:32.283680
1596  2023-10-17 09:53:32.315568
1597  2023-10-17 09:53:32.347524
1598  2023-10-17 09:53:32.379430
1599  2023-10-17 09:53:32.411344
1600  2023-10-17 09:53:32.443258
1601  2023-10-17 09:53:32.475142
1602  2023-10-17 09:53:32.507082
1603  2023-10-17 09:53:32.538997
1604  2023-10-17 09:53:32.587890
1605  2023-10-17 09:53:32.619755
1606  2023-10-17 09:53:32.651670
1607  2023-10-17 09:53:32.683631
1608  2023-10-17 09:53:32.715499
1609  2023-10-17 09:53:32.747414
1610  2023-10-17 09:53:32.779362
1611  2023-10-17 09:53:32.811276
1612  2023-10-17 09:53:32.843210
1613  2023-10-17 09:53:32.875114
1614  2023-10-17 09:53:32.906988
1615  2023-10-17 09:53:32.939949
1616  2023-10-17 09:53:32.987772
1617  2023-10-17 09:53:33.019750
1618  2023-10-17 09:53:33.051601
1619  2023-10-17 09:53:33.083516
1620  2023-10-17 09:53:33.115431
1621  2023-10-17 09:53:33.147277
1622  2023-10-17 09:53:33.180219
1623  2023-10-17 09:53:33.213163
1624  2023-10-17 09:53:33.243048
1625  2023-10-17 09:53:33.277100
1626  2023-10-17 09:53:33.309003
1627  2023-10-17 09:53:33.355934
1628  2023-10-17 09:53:33.387877
1629  2023-10-17 09:53:33.419868
1630  2023-10-17 09:53:33.452803
1631  2023-10-17 09:53:33.484812
1632  2023-10-17 09:53:33.516727
1633  2023-10-17 09:53:33.547606
1634  2023-10-17 09:53:33.580565
1635  2023-10-17 09:53:33.612465
1636  2023-10-17 09:53:33.643410
1637  2023-10-17 09:53:33.676288
1638  2023-10-17 09:53:33.708217
1639  2023-10-17 09:53:33.756073
1640  2023-10-17 09:53:33.787011
1641  2023-10-17 09:53:33.819912
1642  2023-10-17 09:53:33.851801
1643  2023-10-17 09:53:33.883757
1644  2023-10-17 09:53:33.915653
1645  2023-10-17 09:53:33.948550
1646  2023-10-17 09:53:33.980499
1647  2023-10-17 09:53:34.012393
1648  2023-10-17 09:53:34.044312
1649  2023-10-17 09:53:34.076234
1650  2023-10-17 09:53:34.108150
1651  2023-10-17 09:53:34.156004
1652  2023-10-17 09:53:34.187926
1653  2023-10-17 09:53:34.219856
1654  2023-10-17 09:53:34.251725
1655  2023-10-17 09:53:34.283639
1656  2023-10-17 09:53:34.315553
1657  2023-10-17 09:53:34.347499
1658  2023-10-17 09:53:34.380415
1659  2023-10-17 09:53:34.411331
1660  2023-10-17 09:53:34.444256
1661  2023-10-17 09:53:34.476153
1662  2023-10-17 09:53:34.508071
1663  2023-10-17 09:53:34.555943
1664  2023-10-17 09:53:34.587876
1665  2023-10-17 09:53:34.619777
1666  2023-10-17 09:53:34.651687
1667  2023-10-17 09:53:34.683570
1668  2023-10-17 09:53:34.715485
1669  2023-10-17 09:53:34.747400
1670  2023-10-17 09:53:34.779323
1671  2023-10-17 09:53:34.811239
1672  2023-10-17 09:53:34.844142
1673  2023-10-17 09:53:34.876086
1674  2023-10-17 09:53:34.909003
1675  2023-10-17 09:53:34.955857
1676  2023-10-17 09:53:34.987790
1677  2023-10-17 09:53:35.019673
1678  2023-10-17 09:53:35.051587
1679  2023-10-17 09:53:35.083502
1680  2023-10-17 09:53:35.115422
1681  2023-10-17 09:53:35.148380
1682  2023-10-17 09:53:35.179249
1683  2023-10-17 09:53:35.212189
1684  2023-10-17 09:53:35.244128
1685  2023-10-17 09:53:35.276034
1686  2023-10-17 09:53:35.307935
1687  2023-10-17 09:53:35.354779
1688  2023-10-17 09:53:35.387689
1689  2023-10-17 09:53:35.419638
1690  2023-10-17 09:53:35.451541
1691  2023-10-17 09:53:35.483468
1692  2023-10-17 09:53:35.515382
1693  2023-10-17 09:53:35.547296
1694  2023-10-17 09:53:35.579211
1695  2023-10-17 09:53:35.611124
1696  2023-10-17 09:53:35.643006
1697  2023-10-17 09:53:35.675953
1698  2023-10-17 09:53:35.707861
1699  2023-10-17 09:53:35.755705
1700  2023-10-17 09:53:35.787619
1701  2023-10-17 09:53:35.819534
1702  2023-10-17 09:53:35.851475
1703  2023-10-17 09:53:35.883397
1704  2023-10-17 09:53:35.915320
1705  2023-10-17 09:53:35.947225
1706  2023-10-17 09:53:35.979109
1707  2023-10-17 09:53:36.011052
1708  2023-10-17 09:53:36.043994
1709  2023-10-17 09:53:36.075882
1710  2023-10-17 09:53:36.107765
1711  2023-10-17 09:53:36.155639
1712  2023-10-17 09:53:36.187550
1713  2023-10-17 09:53:36.219465
1714  2023-10-17 09:53:36.251424
1715  2023-10-17 09:53:36.283369
1716  2023-10-17 09:53:36.315251
1717  2023-10-17 09:53:36.347170
1718  2023-10-17 09:53:36.380068
1719  2023-10-17 09:53:36.410985
1720  2023-10-17 09:53:36.443906
1721  2023-10-17 09:53:36.475813
1722  2023-10-17 09:53:36.507727
1723  2023-10-17 09:53:36.555620
1724  2023-10-17 09:53:36.587519
1725  2023-10-17 09:53:36.619430
1726  2023-10-17 09:53:36.651401
1727  2023-10-17 09:53:36.683350
1728  2023-10-17 09:53:36.715265
1729  2023-10-17 09:53:36.747146
1730  2023-10-17 09:53:36.779095
1731  2023-10-17 09:53:36.811006
1732  2023-10-17 09:53:36.843930
1733  2023-10-17 09:53:36.875802
1734  2023-10-17 09:53:36.923730
1735  2023-10-17 09:53:36.955588
1736  2023-10-17 09:53:36.987535
1737  2023-10-17 09:53:37.019449
1738  2023-10-17 09:53:37.051333
1739  2023-10-17 09:53:37.083274
1740  2023-10-17 09:53:37.115188
1741  2023-10-17 09:53:37.147212
1742  2023-10-17 09:53:37.179110
1743  2023-10-17 09:53:37.211025
1744  2023-10-17 09:53:37.243940
1745  2023-10-17 09:53:37.275830
1746  2023-10-17 09:53:37.323696
1747  2023-10-17 09:53:37.355641
1748  2023-10-17 09:53:37.387522
1749  2023-10-17 09:53:37.419437
1750  2023-10-17 09:53:37.451400
1751  2023-10-17 09:53:37.483267
1752  2023-10-17 09:53:37.515181
1753  2023-10-17 09:53:37.547120
1754  2023-10-17 09:53:37.579035
1755  2023-10-17 09:53:37.610971
1756  2023-10-17 09:53:37.643838
1757  2023-10-17 09:53:37.675756
1758  2023-10-17 09:53:37.723658
1759  2023-10-17 09:53:37.755540
1760  2023-10-17 09:53:37.787488
1761  2023-10-17 09:53:37.819394
1762  2023-10-17 09:53:37.851324
1763  2023-10-17 09:53:37.883227
1764  2023-10-17 09:53:37.915163
1765  2023-10-17 09:53:37.947060
1766  2023-10-17 09:53:37.978972
1767  2023-10-17 09:53:38.010907
1768  2023-10-17 09:53:38.043804
1769  2023-10-17 09:53:38.075716
1770  2023-10-17 09:53:38.123591
1771  2023-10-17 09:53:38.155503
1772  2023-10-17 09:53:38.187385
1773  2023-10-17 09:53:38.219328
1774  2023-10-17 09:53:38.252242
1775  2023-10-17 09:53:38.283161
1776  2023-10-17 09:53:38.315075
1777  2023-10-17 09:53:38.347956
1778  2023-10-17 09:53:38.379897
1779  2023-10-17 09:53:38.411823
1780  2023-10-17 09:53:38.443737
1781  2023-10-17 09:53:38.475653
1782  2023-10-17 09:53:38.523660
1783  2023-10-17 09:53:38.555535
1784  2023-10-17 09:53:38.587500
1785  2023-10-17 09:53:38.619398
1786  2023-10-17 09:53:38.651280
1787  2023-10-17 09:53:38.683247
1788  2023-10-17 09:53:38.715109
1789  2023-10-17 09:53:38.747056
1790  2023-10-17 09:53:38.779970
1791  2023-10-17 09:53:38.811898
1792  2023-10-17 09:53:38.843798
1793  2023-10-17 09:53:38.875712
1794  2023-10-17 09:53:38.923587
1795  2023-10-17 09:53:38.955467
1796  2023-10-17 09:53:38.987414
1797  2023-10-17 09:53:39.019329
1798  2023-10-17 09:53:39.051243
1799  2023-10-17 09:53:39.083219
1800  2023-10-17 09:53:39.115102
1801  2023-10-17 09:53:39.147135
1802  2023-10-17 09:53:39.180050
1803  2023-10-17 09:53:39.211935
1804  2023-10-17 09:53:39.242959
1805  2023-10-17 09:53:39.274952
1806  2023-10-17 09:53:39.323850
1807  2023-10-17 09:53:39.355769
1808  2023-10-17 09:53:39.387651
1809  2023-10-17 09:53:39.419590
1810  2023-10-17 09:53:39.451479
1811  2023-10-17 09:53:39.483394
1812  2023-10-17 09:53:39.515307
1813  2023-10-17 09:53:39.547250
1814  2023-10-17 09:53:39.580148
1815  2023-10-17 09:53:39.612050
1816  2023-10-17 09:53:39.643966
1817  2023-10-17 09:53:39.675880
1818  2023-10-17 09:53:39.723753
1819  2023-10-17 09:53:39.755666
1820  2023-10-17 09:53:39.787688
1821  2023-10-17 09:53:39.819634
1822  2023-10-17 09:53:39.851549
1823  2023-10-17 09:53:39.883471
1824  2023-10-17 09:53:39.915370
1825  2023-10-17 09:53:39.947291
1826  2023-10-17 09:53:39.979175
1827  2023-10-17 09:53:40.011090
1828  2023-10-17 09:53:40.043064
1829  2023-10-17 09:53:40.075918
1830  2023-10-17 09:53:40.123820
1831  2023-10-17 09:53:40.155748
1832  2023-10-17 09:53:40.187617
1833  2023-10-17 09:53:40.219563
1834  2023-10-17 09:53:40.251479
1835  2023-10-17 09:53:40.283396
1836  2023-10-17 09:53:40.315309
1837  2023-10-17 09:53:40.347244
1838  2023-10-17 09:53:40.379106
1839  2023-10-17 09:53:40.412044
1840  2023-10-17 09:53:40.443991
1841  2023-10-17 09:53:40.475880
1842  2023-10-17 09:53:40.523719
1843  2023-10-17 09:53:40.555692
1844  2023-10-17 09:53:40.587696
1845  2023-10-17 09:53:40.619610
1846  2023-10-17 09:53:40.651526
1847  2023-10-17 09:53:40.683444
1848  2023-10-17 09:53:40.715357
1849  2023-10-17 09:53:40.747238
1850  2023-10-17 09:53:40.779152
1851  2023-10-17 09:53:40.812104
1852  2023-10-17 09:53:40.843018
1853  2023-10-17 09:53:40.890886
1854  2023-10-17 09:53:40.923799
1855  2023-10-17 09:53:40.955713
1856  2023-10-17 09:53:40.987595
1857  2023-10-17 09:53:41.019512
1858  2023-10-17 09:53:41.051427
1859  2023-10-17 09:53:41.083341
1860  2023-10-17 09:53:41.115288
1861  2023-10-17 09:53:41.147217
1862  2023-10-17 09:53:41.179115
1863  2023-10-17 09:53:41.212029
1864  2023-10-17 09:53:41.242947
1865  2023-10-17 09:53:41.290785
1866  2023-10-17 09:53:41.323743
1867  2023-10-17 09:53:41.355665
1868  2023-10-17 09:53:41.387526
1869  2023-10-17 09:53:41.419516
1870  2023-10-17 09:53:41.451540
1871  2023-10-17 09:53:41.483441
1872  2023-10-17 09:53:41.515356
1873  2023-10-17 09:53:41.547308
1874  2023-10-17 09:53:41.579307
1875  2023-10-17 09:53:41.611208
1876  2023-10-17 09:53:41.643116
1877  2023-10-17 09:53:41.690985
1878  2023-10-17 09:53:41.722903
1879  2023-10-17 09:53:41.754812
1880  2023-10-17 09:53:41.787738
1881  2023-10-17 09:53:41.819655
1882  2023-10-17 09:53:41.851561
1883  2023-10-17 09:53:41.883479
1884  2023-10-17 09:53:41.915393
1885  2023-10-17 09:53:41.947272
1886  2023-10-17 09:53:41.979244
1887  2023-10-17 09:53:42.011136
1888  2023-10-17 09:53:42.043045
1889  2023-10-17 09:53:42.091921
1890  2023-10-17 09:53:42.123832
1891  2023-10-17 09:53:42.155752
1892  2023-10-17 09:53:42.187663
1893  2023-10-17 09:53:42.219590
1894  2023-10-17 09:53:42.251590
1895  2023-10-17 09:53:42.283505
1896  2023-10-17 09:53:42.315422
1897  2023-10-17 09:53:42.347337
1898  2023-10-17 09:53:42.380218
1899  2023-10-17 09:53:42.412131
1900  2023-10-17 09:53:42.444050
1901  2023-10-17 09:53:42.491918
1902  2023-10-17 09:53:42.523833
1903  2023-10-17 09:53:42.555748
1904  2023-10-17 09:53:42.587665
1905  2023-10-17 09:53:42.619576
1906  2023-10-17 09:53:42.651524
1907  2023-10-17 09:53:42.683441
1908  2023-10-17 09:53:42.715353
1909  2023-10-17 09:53:42.747302
1910  2023-10-17 09:53:42.779186
1911  2023-10-17 09:53:42.811090
1912  2023-10-17 09:53:42.842980
1913  2023-10-17 09:53:42.890880
1914  2023-10-17 09:53:42.923796
1915  2023-10-17 09:53:42.955742
1916  2023-10-17 09:53:42.987743
1917  2023-10-17 09:53:43.019666
1918  2023-10-17 09:53:43.051576
1919  2023-10-17 09:53:43.083512
1920  2023-10-17 09:53:43.115507
1921  2023-10-17 09:53:43.147388
1922  2023-10-17 09:53:43.179336
1923  2023-10-17 09:53:43.211257
1924  2023-10-17 09:53:43.244130
1925  2023-10-17 09:53:43.291039
1926  2023-10-17 09:53:43.322945
1927  2023-10-17 09:53:43.355865
1928  2023-10-17 09:53:43.387820
1929  2023-10-17 09:53:43.419711
1930  2023-10-17 09:53:43.451626
1931  2023-10-17 09:53:43.483543
1932  2023-10-17 09:53:43.515456
1933  2023-10-17 09:53:43.547369
1934  2023-10-17 09:53:43.579354
1935  2023-10-17 09:53:43.611297
1936  2023-10-17 09:53:43.643185
1937  2023-10-17 09:53:43.692088
1938  2023-10-17 09:53:43.722996
1939  2023-10-17 09:53:43.754912
1940  2023-10-17 09:53:43.787833
1941  2023-10-17 09:53:43.819773
1942  2023-10-17 09:53:43.851658
1943  2023-10-17 09:53:43.883573
1944  2023-10-17 09:53:43.915489
1945  2023-10-17 09:53:43.947417
1946  2023-10-17 09:53:43.979429
1947  2023-10-17 09:53:44.011345
1948  2023-10-17 09:53:44.043266
1949  2023-10-17 09:53:44.091096
1950  2023-10-17 09:53:44.123056
1951  2023-10-17 09:53:44.154954
1952  2023-10-17 09:53:44.187872
1953  2023-10-17 09:53:44.219787
1954  2023-10-17 09:53:44.251718
1955  2023-10-17 09:53:44.283616
1956  2023-10-17 09:53:44.315531
1957  2023-10-17 09:53:44.347411
1958  2023-10-17 09:53:44.379361
1959  2023-10-17 09:53:44.411298
1960  2023-10-17 09:53:44.459157
1961  2023-10-17 09:53:44.491052
1962  2023-10-17 09:53:44.522966
1963  2023-10-17 09:53:44.554883
1964  2023-10-17 09:53:44.586804
1965  2023-10-17 09:53:44.618852
1966  2023-10-17 09:53:44.651769
1967  2023-10-17 09:53:44.683661
1968  2023-10-17 09:53:44.715574
1969  2023-10-17 09:53:44.747491
1970  2023-10-17 09:53:44.779426
1971  2023-10-17 09:53:44.811318
1972  2023-10-17 09:53:44.859159
1973  2023-10-17 09:53:44.891099
1974  2023-10-17 09:53:44.924000
1975  2023-10-17 09:53:44.955933
1976  2023-10-17 09:53:44.986849
1977  2023-10-17 09:53:45.019926
1978  2023-10-17 09:53:45.051848
1979  2023-10-17 09:53:45.083766
1980  2023-10-17 09:53:45.115689
1981  2023-10-17 09:53:45.147604
1982  2023-10-17 09:53:45.179621
1983  2023-10-17 09:53:45.211535
1984  2023-10-17 09:53:45.259411
1985  2023-10-17 09:53:45.291323
1986  2023-10-17 09:53:45.323247
1987  2023-10-17 09:53:45.355155
1988  2023-10-17 09:53:45.387075
1989  2023-10-17 09:53:45.418974
1990  2023-10-17 09:53:45.452016
1991  2023-10-17 09:53:45.482921
1992  2023-10-17 09:53:45.515849
1993  2023-10-17 09:53:45.547768
1994  2023-10-17 09:53:45.579676
1995  2023-10-17 09:53:45.611592
1996  2023-10-17 09:53:45.659554
1997  2023-10-17 09:53:45.691470
1998  2023-10-17 09:53:45.723384
1999  2023-10-17 09:53:45.755301
2000  2023-10-17 09:53:45.787217
2001  2023-10-17 09:53:45.819122
2002  2023-10-17 09:53:45.851046
2003  2023-10-17 09:53:45.882969
2004  2023-10-17 09:53:45.914884
2005  2023-10-17 09:53:45.947784
2006  2023-10-17 09:53:45.979699
2007  2023-10-17 09:53:46.011614
2008  2023-10-17 09:53:46.059504
2009  2023-10-17 09:53:46.091419
2010  2023-10-17 09:53:46.123360
2011  2023-10-17 09:53:46.155255
2012  2023-10-17 09:53:46.187207
2013  2023-10-17 09:53:46.219109
2014  2023-10-17 09:53:46.251990
2015  2023-10-17 09:53:46.282929
2016  2023-10-17 09:53:46.315819
2017  2023-10-17 09:53:46.348729
2018  2023-10-17 09:53:46.380753
2019  2023-10-17 09:53:46.411669
2020  2023-10-17 09:53:46.459534
2021  2023-10-17 09:53:46.492442
2022  2023-10-17 09:53:46.523358
2023  2023-10-17 09:53:46.555275
2024  2023-10-17 09:53:46.588179
2025  2023-10-17 09:53:46.620109
2026  2023-10-17 09:53:46.652014
2027  2023-10-17 09:53:46.682932
2028  2023-10-17 09:53:46.715842
2029  2023-10-17 09:53:46.748748
2030  2023-10-17 09:53:46.779641
2031  2023-10-17 09:53:46.811591
2032  2023-10-17 09:53:46.860457
2033  2023-10-17 09:53:46.892366
2034  2023-10-17 09:53:46.923312
2035  2023-10-17 09:53:46.955201
2036  2023-10-17 09:53:46.988108
2037  2023-10-17 09:53:47.020022
2038  2023-10-17 09:53:47.051919
2039  2023-10-17 09:53:47.082868
2040  2023-10-17 09:53:47.115779
2041  2023-10-17 09:53:47.147688
2042  2023-10-17 09:53:47.180618
2043  2023-10-17 09:53:47.212558
2044  2023-10-17 09:53:47.260545
2045  2023-10-17 09:53:47.292463
2046  2023-10-17 09:53:47.323381
2047  2023-10-17 09:53:47.355400
2048  2023-10-17 09:53:47.388318
2049  2023-10-17 09:53:47.420226
2050  2023-10-17 09:53:47.452168
2051  2023-10-17 09:53:47.483067
2052  2023-10-17 09:53:47.514992
2053  2023-10-17 09:53:47.547890
2054  2023-10-17 09:53:47.579805
2055  2023-10-17 09:53:47.612686
2056  2023-10-17 09:53:47.660558
2057  2023-10-17 09:53:47.692524
2058  2023-10-17 09:53:47.723417
2059  2023-10-17 09:53:47.755331
2060  2023-10-17 09:53:47.788267
2061  2023-10-17 09:53:47.820158
2062  2023-10-17 09:53:47.852106
2063  2023-10-17 09:53:47.882998
2064  2023-10-17 09:53:47.914934
2065  2023-10-17 09:53:47.947825
2066  2023-10-17 09:53:47.979856
2067  2023-10-17 09:53:48.028713
2068  2023-10-17 09:53:48.060629
2069  2023-10-17 09:53:48.091558
2070  2023-10-17 09:53:48.123429
2071  2023-10-17 09:53:48.155344
2072  2023-10-17 09:53:48.188300
2073  2023-10-17 09:53:48.220201
2074  2023-10-17 09:53:48.252143
2075  2023-10-17 09:53:48.283049
2076  2023-10-17 09:53:48.315950
2077  2023-10-17 09:53:48.347862
2078  2023-10-17 09:53:48.379960
2079  2023-10-17 09:53:48.427842
2080  2023-10-17 09:53:48.459744
2081  2023-10-17 09:53:48.491657
2082  2023-10-17 09:53:48.523540
2083  2023-10-17 09:53:48.555453
2084  2023-10-17 09:53:48.587392
2085  2023-10-17 09:53:48.620312
2086  2023-10-17 09:53:48.652219
2087  2023-10-17 09:53:48.683158
2088  2023-10-17 09:53:48.715072
2089  2023-10-17 09:53:48.747940
2090  2023-10-17 09:53:48.779891
2091  2023-10-17 09:53:48.827755
2092  2023-10-17 09:53:48.859666
2093  2023-10-17 09:53:48.891578
2094  2023-10-17 09:53:48.923503
2095  2023-10-17 09:53:48.955411
2096  2023-10-17 09:53:48.987346
2097  2023-10-17 09:53:49.019267
2098  2023-10-17 09:53:49.051159
2099  2023-10-17 09:53:49.083074
2100  2023-10-17 09:53:49.115005
2101  2023-10-17 09:53:49.147895
2102  2023-10-17 09:53:49.179822
2103  2023-10-17 09:53:49.227681
2104  2023-10-17 09:53:49.259573
2105  2023-10-17 09:53:49.291519
2106  2023-10-17 09:53:49.323434
2107  2023-10-17 09:53:49.355341
2108  2023-10-17 09:53:49.387263
2109  2023-10-17 09:53:49.419178
2110  2023-10-17 09:53:49.451093
2111  2023-10-17 09:53:49.483007
2112  2023-10-17 09:53:49.514923
2113  2023-10-17 09:53:49.547801
2114  2023-10-17 09:53:49.579769
2115  2023-10-17 09:53:49.627635
2116  2023-10-17 09:53:49.659542
2117  2023-10-17 09:53:49.691456
2118  2023-10-17 09:53:49.723369
2119  2023-10-17 09:53:49.755293
2120  2023-10-17 09:53:49.787162
2121  2023-10-17 09:53:49.819119
2122  2023-10-17 09:53:49.850999
2123  2023-10-17 09:53:49.883904
2124  2023-10-17 09:53:49.914851
2125  2023-10-17 09:53:49.947774
2126  2023-10-17 09:53:49.979675
2127  2023-10-17 09:53:50.027521
2128  2023-10-17 09:53:50.059435
2129  2023-10-17 09:53:50.091353
2130  2023-10-17 09:53:50.123264
2131  2023-10-17 09:53:50.155220
2132  2023-10-17 09:53:50.187094
2133  2023-10-17 09:53:50.219009
2134  2023-10-17 09:53:50.250969
2135  2023-10-17 09:53:50.282838
2136  2023-10-17 09:53:50.315748
2137  2023-10-17 09:53:50.347664
2138  2023-10-17 09:53:50.380575
2139  2023-10-17 09:53:50.427450
2140  2023-10-17 09:53:50.459374
2141  2023-10-17 09:53:50.491281
2142  2023-10-17 09:53:50.523231
2143  2023-10-17 09:53:50.555111
2144  2023-10-17 09:53:50.587068
2145  2023-10-17 09:53:50.619975
2146  2023-10-17 09:53:50.651876
2147  2023-10-17 09:53:50.682792
2148  2023-10-17 09:53:50.715686
2149  2023-10-17 09:53:50.747678
2150  2023-10-17 09:53:50.779719
2151  2023-10-17 09:53:50.827554
2152  2023-10-17 09:53:50.859498
2153  2023-10-17 09:53:50.891419
2154  2023-10-17 09:53:50.923297
2155  2023-10-17 09:53:50.955210
2156  2023-10-17 09:53:50.987159
2157  2023-10-17 09:53:51.020045
2158  2023-10-17 09:53:51.050985
2159  2023-10-17 09:53:51.083899
2160  2023-10-17 09:53:51.115781
2161  2023-10-17 09:53:51.147695
2162  2023-10-17 09:53:51.179623
2163  2023-10-17 09:53:51.227534
2164  2023-10-17 09:53:51.259430
2165  2023-10-17 09:53:51.291353
2166  2023-10-17 09:53:51.324263
2167  2023-10-17 09:53:51.355141
2168  2023-10-17 09:53:51.387056
2169  2023-10-17 09:53:51.420001
2170  2023-10-17 09:53:51.450910
2171  2023-10-17 09:53:51.482828
2172  2023-10-17 09:53:51.515754
2173  2023-10-17 09:53:51.547627
2174  2023-10-17 09:53:51.579574
2175  2023-10-17 09:53:51.627450
2176  2023-10-17 09:53:51.659362
2177  2023-10-17 09:53:51.691285
2178  2023-10-17 09:53:51.723181
2179  2023-10-17 09:53:51.755103
2180  2023-10-17 09:53:51.786987
2181  2023-10-17 09:53:51.819935
2182  2023-10-17 09:53:51.851850
2183  2023-10-17 09:53:51.883777
2184  2023-10-17 09:53:51.915643
2185  2023-10-17 09:53:51.947603
2186  2023-10-17 09:53:51.995475
2187  2023-10-17 09:53:52.027345
2188  2023-10-17 09:53:52.059300
2189  2023-10-17 09:53:52.091220
2190  2023-10-17 09:53:52.123127
2191  2023-10-17 09:53:52.155004
2192  2023-10-17 09:53:52.186949
2193  2023-10-17 09:53:52.219868
2194  2023-10-17 09:53:52.251780
2195  2023-10-17 09:53:52.283690
2196  2023-10-17 09:53:52.315574
2197  2023-10-17 09:53:52.347489
2198  2023-10-17 09:53:52.395361
2199  2023-10-17 09:53:52.427300
2200  2023-10-17 09:53:52.459228
2201  2023-10-17 09:53:52.491129
2202  2023-10-17 09:53:52.523059
2203  2023-10-17 09:53:52.554935
2204  2023-10-17 09:53:52.586881
2205  2023-10-17 09:53:52.619795
2206  2023-10-17 09:53:52.651731
2207  2023-10-17 09:53:52.683628
2208  2023-10-17 09:53:52.715506
2209  2023-10-17 09:53:52.747420
2210  2023-10-17 09:53:52.795292
2211  2023-10-17 09:53:52.827247
2212  2023-10-17 09:53:52.860121
2213  2023-10-17 09:53:52.892036
2214  2023-10-17 09:53:52.923960
2215  2023-10-17 09:53:52.955864
2216  2023-10-17 09:53:52.987790
2217  2023-10-17 09:53:53.019725
2218  2023-10-17 09:53:53.051638
2219  2023-10-17 09:53:53.083557
2220  2023-10-17 09:53:53.115464
2221  2023-10-17 09:53:53.147352
2222  2023-10-17 09:53:53.195302
2223  2023-10-17 09:53:53.227220
2224  2023-10-17 09:53:53.259161
2225  2023-10-17 09:53:53.291071
2226  2023-10-17 09:53:53.323958
2227  2023-10-17 09:53:53.355905
2228  2023-10-17 09:53:53.387787
2229  2023-10-17 09:53:53.419704
2230  2023-10-17 09:53:53.451665
2231  2023-10-17 09:53:53.483580
2232  2023-10-17 09:53:53.515494
2233  2023-10-17 09:53:53.547410
2234  2023-10-17 09:53:53.595282
2235  2023-10-17 09:53:53.627198
2236  2023-10-17 09:53:53.659145
2237  2023-10-17 09:53:53.691070
2238  2023-10-17 09:53:53.722985
2239  2023-10-17 09:53:53.755853
2240  2023-10-17 09:53:53.786847
2241  2023-10-17 09:53:53.819794
2242  2023-10-17 09:53:53.851719
2243  2023-10-17 09:53:53.883631
2244  2023-10-17 09:53:53.915553
2245  2023-10-17 09:53:53.947422
2246  2023-10-17 09:53:53.995324
2247  2023-10-17 09:53:54.027238
2248  2023-10-17 09:53:54.059119
2249  2023-10-17 09:53:54.091073
2250  2023-10-17 09:53:54.122981
2251  2023-10-17 09:53:54.154904
2252  2023-10-17 09:53:54.186810
2253  2023-10-17 09:53:54.219698
2254  2023-10-17 09:53:54.251649
2255  2023-10-17 09:53:54.283564
2256  2023-10-17 09:53:54.315467
2257  2023-10-17 09:53:54.347380
2258  2023-10-17 09:53:54.395253
2259  2023-10-17 09:53:54.427208
2260  2023-10-17 09:53:54.459083
2261  2023-10-17 09:53:54.491996
2262  2023-10-17 09:53:54.523909
2263  2023-10-17 09:53:54.555855
2264  2023-10-17 09:53:54.587740
2265  2023-10-17 09:53:54.619705
2266  2023-10-17 09:53:54.651602
2267  2023-10-17 09:53:54.683515
2268  2023-10-17 09:53:54.715398
2269  2023-10-17 09:53:54.747313
2270  2023-10-17 09:53:54.795321
2271  2023-10-17 09:53:54.827168
2272  2023-10-17 09:53:54.859080
2273  2023-10-17 09:53:54.891028
2274  2023-10-17 09:53:54.923938
2275  2023-10-17 09:53:54.955854
2276  2023-10-17 09:53:54.987782
2277  2023-10-17 09:53:55.019650
2278  2023-10-17 09:53:55.051599
2279  2023-10-17 09:53:55.083527
2280  2023-10-17 09:53:55.115426
2281  2023-10-17 09:53:55.147388
2282  2023-10-17 09:53:55.195306
2283  2023-10-17 09:53:55.227197
2284  2023-10-17 09:53:55.259103
2285  2023-10-17 09:53:55.291058
2286  2023-10-17 09:53:55.323964
2287  2023-10-17 09:53:55.355884
2288  2023-10-17 09:53:55.387793
2289  2023-10-17 09:53:55.419698
2290  2023-10-17 09:53:55.451591
2291  2023-10-17 09:53:55.483537
2292  2023-10-17 09:53:55.515444
2293  2023-10-17 09:53:55.563339
2294  2023-10-17 09:53:55.595291
2295  2023-10-17 09:53:55.627244
2296  2023-10-17 09:53:55.659152
2297  2023-10-17 09:53:55.691076
2298  2023-10-17 09:53:55.722972
2299  2023-10-17 09:53:55.754936
2300  2023-10-17 09:53:55.786878
2301  2023-10-17 09:53:55.819796
2302  2023-10-17 09:53:55.851679
2303  2023-10-17 09:53:55.883592
2304  2023-10-17 09:53:55.915508
2305  2023-10-17 09:53:55.963379
2306  2023-10-17 09:53:55.995296
2307  2023-10-17 09:53:56.027243
2308  2023-10-17 09:53:56.059157
2309  2023-10-17 09:53:56.091040
2310  2023-10-17 09:53:56.122955
2311  2023-10-17 09:53:56.154867
2312  2023-10-17 09:53:56.186841
2313  2023-10-17 09:53:56.218755
2314  2023-10-17 09:53:56.251715
2315  2023-10-17 09:53:56.283615
2316  2023-10-17 09:53:56.315541
2317  2023-10-17 09:53:56.363369
2318  2023-10-17 09:53:56.395328
2319  2023-10-17 09:53:56.427267
2320  2023-10-17 09:53:56.460155
2321  2023-10-17 09:53:56.492071
2322  2023-10-17 09:53:56.523983
2323  2023-10-17 09:53:56.555900
2324  2023-10-17 09:53:56.587812
2325  2023-10-17 09:53:56.619727
2326  2023-10-17 09:53:56.651643
2327  2023-10-17 09:53:56.683558
2328  2023-10-17 09:53:56.716501
2329  2023-10-17 09:53:56.763517
2330  2023-10-17 09:53:56.795430
2331  2023-10-17 09:53:56.827396
2332  2023-10-17 09:53:56.859358
2333  2023-10-17 09:53:56.891226
2334  2023-10-17 09:53:56.923170
2335  2023-10-17 09:53:56.955078
2336  2023-10-17 09:53:56.987968
2337  2023-10-17 09:53:57.019885
2338  2023-10-17 09:53:57.051796
2339  2023-10-17 09:53:57.083712
2340  2023-10-17 09:53:57.115627
2341  2023-10-17 09:53:57.163540
2342  2023-10-17 09:53:57.195444
2343  2023-10-17 09:53:57.227328
2344  2023-10-17 09:53:57.259272
2345  2023-10-17 09:53:57.291181
2346  2023-10-17 09:53:57.324069
2347  2023-10-17 09:53:57.355009
2348  2023-10-17 09:53:57.386928
2349  2023-10-17 09:53:57.419815
2350  2023-10-17 09:53:57.451753
2351  2023-10-17 09:53:57.483643
2352  2023-10-17 09:53:57.515558
2353  2023-10-17 09:53:57.563521
2354  2023-10-17 09:53:57.595437
2355  2023-10-17 09:53:57.627347
2356  2023-10-17 09:53:57.659232
2357  2023-10-17 09:53:57.691145
2358  2023-10-17 09:53:57.723098
2359  2023-10-17 09:53:57.754976
2360  2023-10-17 09:53:57.786928
2361  2023-10-17 09:53:57.819801
2362  2023-10-17 09:53:57.851771
2363  2023-10-17 09:53:57.883662
2364  2023-10-17 09:53:57.915578
2365  2023-10-17 09:53:57.963475
2366  2023-10-17 09:53:57.995363
2367  2023-10-17 09:53:58.027289
2368  2023-10-17 09:53:58.059297
2369  2023-10-17 09:53:58.091242
2370  2023-10-17 09:53:58.123162
2371  2023-10-17 09:53:58.155113
2372  2023-10-17 09:53:58.187098
2373  2023-10-17 09:53:58.219001
2374  2023-10-17 09:53:58.251881
2375  2023-10-17 09:53:58.283830
2376  2023-10-17 09:53:58.315712
2377  2023-10-17 09:53:58.363611
2378  2023-10-17 09:53:58.395531
2379  2023-10-17 09:53:58.427446
2380  2023-10-17 09:53:58.459326
2381  2023-10-17 09:53:58.491241
2382  2023-10-17 09:53:58.523204
2383  2023-10-17 09:53:58.555095
2384  2023-10-17 09:53:58.587016
2385  2023-10-17 09:53:58.618900
2386  2023-10-17 09:53:58.650846
2387  2023-10-17 09:53:58.683728
2388  2023-10-17 09:53:58.715675
2389  2023-10-17 09:53:58.763549
2390  2023-10-17 09:53:58.795471
2391  2023-10-17 09:53:58.827374
2392  2023-10-17 09:53:58.859305
2393  2023-10-17 09:53:58.892230
2394  2023-10-17 09:53:58.924143
2395  2023-10-17 09:53:58.955060
2396  2023-10-17 09:53:58.988009
2397  2023-10-17 09:53:59.019960
2398  2023-10-17 09:53:59.050877
2399  2023-10-17 09:53:59.083823
2400  2023-10-17 09:53:59.115705
2401  2023-10-17 09:53:59.163624
2402  2023-10-17 09:53:59.195523
2403  2023-10-17 09:53:59.227438
2404  2023-10-17 09:53:59.259319
2405  2023-10-17 09:53:59.291234
2406  2023-10-17 09:53:59.323182
2407  2023-10-17 09:53:59.355107
2408  2023-10-17 09:53:59.387004
2409  2023-10-17 09:53:59.418919
2410  2023-10-17 09:53:59.451806
2411  2023-10-17 09:53:59.483760
2412  2023-10-17 09:53:59.531592
2413  2023-10-17 09:53:59.563559
2414  2023-10-17 09:53:59.595454
2415  2023-10-17 09:53:59.627372
2416  2023-10-17 09:53:59.659920
2417  2023-10-17 09:53:59.691834
2418  2023-10-17 09:53:59.723750
2419  2023-10-17 09:53:59.755665
2420  2023-10-17 09:53:59.787592
2421  2023-10-17 09:53:59.819523
2422  2023-10-17 09:53:59.851410
2423  2023-10-17 09:53:59.883324
2424  2023-10-17 09:53:59.931196
2425  2023-10-17 09:53:59.963111
2426  2023-10-17 09:53:59.996022
2427  2023-10-17 09:54:00.026940
2428  2023-10-17 09:54:00.059884
2429  2023-10-17 09:54:00.091799
2430  2023-10-17 09:54:00.123681
2431  2023-10-17 09:54:00.155596
2432  2023-10-17 09:54:00.187509
2433  2023-10-17 09:54:00.219490
2434  2023-10-17 09:54:00.251432
2435  2023-10-17 09:54:00.283350
2436  2023-10-17 09:54:00.331247
2437  2023-10-17 09:54:00.363138
2438  2023-10-17 09:54:00.395049
2439  2023-10-17 09:54:00.426963
2440  2023-10-17 09:54:00.458881
2441  2023-10-17 09:54:00.491762
2442  2023-10-17 09:54:00.523709
2443  2023-10-17 09:54:00.555635
2444  2023-10-17 09:54:00.587533
2445  2023-10-17 09:54:00.619446
2446  2023-10-17 09:54:00.651336
2447  2023-10-17 09:54:00.683285
2448  2023-10-17 09:54:00.731122
2449  2023-10-17 09:54:00.763062
2450  2023-10-17 09:54:00.794995
2451  2023-10-17 09:54:00.827900
2452  2023-10-17 09:54:00.859834
2453  2023-10-17 09:54:00.891694
2454  2023-10-17 09:54:00.923645
2455  2023-10-17 09:54:00.955555
2456  2023-10-17 09:54:00.987470
2457  2023-10-17 09:54:01.019352
2458  2023-10-17 09:54:01.051267
2459  2023-10-17 09:54:01.084181
2460  2023-10-17 09:54:01.131086
2461  2023-10-17 09:54:01.162993
2462  2023-10-17 09:54:01.194925
2463  2023-10-17 09:54:01.227833
2464  2023-10-17 09:54:01.259710
2465  2023-10-17 09:54:01.291653
2466  2023-10-17 09:54:01.323572
2467  2023-10-17 09:54:01.355482
2468  2023-10-17 09:54:01.387397
2469  2023-10-17 09:54:01.419309
2470  2023-10-17 09:54:01.451198
2471  2023-10-17 09:54:01.483139
2472  2023-10-17 09:54:01.531011
2473  2023-10-17 09:54:01.562925
2474  2023-10-17 09:54:01.595847
2475  2023-10-17 09:54:01.627779
2476  2023-10-17 09:54:01.659722
2477  2023-10-17 09:54:01.691661
2478  2023-10-17 09:54:01.723577
2479  2023-10-17 09:54:01.755460
2480  2023-10-17 09:54:01.787374
2481  2023-10-17 09:54:01.819289
2482  2023-10-17 09:54:01.851203
2483  2023-10-17 09:54:01.883148
2484  2023-10-17 09:54:01.931022
2485  2023-10-17 09:54:01.963902
2486  2023-10-17 09:54:01.994842
2487  2023-10-17 09:54:02.027778
2488  2023-10-17 09:54:02.059647
2489  2023-10-17 09:54:02.091562
2490  2023-10-17 09:54:02.123545
2491  2023-10-17 09:54:02.155486
2492  2023-10-17 09:54:02.187406
2493  2023-10-17 09:54:02.219315
2494  2023-10-17 09:54:02.251204
2495  2023-10-17 09:54:02.283142
2496  2023-10-17 09:54:02.331023
2497  2023-10-17 09:54:02.362905
2498  2023-10-17 09:54:02.395873
2499  2023-10-17 09:54:02.427756
2500  2023-10-17 09:54:02.459689
2501  2023-10-17 09:54:02.491561
2502  2023-10-17 09:54:02.523853
2503  2023-10-17 09:54:02.555769
2504  2023-10-17 09:54:02.587718
2505  2023-10-17 09:54:02.619714
2506  2023-10-17 09:54:02.651703
2507  2023-10-17 09:54:02.683615
2508  2023-10-17 09:54:02.731488
2509  2023-10-17 09:54:02.763402
2510  2023-10-17 09:54:02.795319
2511  2023-10-17 09:54:02.827264
2512  2023-10-17 09:54:02.859194
2513  2023-10-17 09:54:02.891160
2514  2023-10-17 09:54:02.923072
2515  2023-10-17 09:54:02.955984
2516  2023-10-17 09:54:02.987869
2517  2023-10-17 09:54:03.019794
2518  2023-10-17 09:54:03.051744
2519  2023-10-17 09:54:03.099570
2520  2023-10-17 09:54:03.131554
2521  2023-10-17 09:54:03.163016
2522  2023-10-17 09:54:03.194912
2523  2023-10-17 09:54:03.226899
2524  2023-10-17 09:54:03.258810
2525  2023-10-17 09:54:03.291690
2526  2023-10-17 09:54:03.323639
2527  2023-10-17 09:54:03.355545
2528  2023-10-17 09:54:03.387460
2529  2023-10-17 09:54:03.419392
2530  2023-10-17 09:54:03.451264
2531  2023-10-17 09:54:03.500163
2532  2023-10-17 09:54:03.531051
2533  2023-10-17 09:54:03.562965
2534  2023-10-17 09:54:03.594914
2535  2023-10-17 09:54:03.626840
2536  2023-10-17 09:54:03.659738
2537  2023-10-17 09:54:03.691621
2538  2023-10-17 09:54:03.723536
2539  2023-10-17 09:54:03.755489
2540  2023-10-17 09:54:03.788395
2541  2023-10-17 09:54:03.819305
2542  2023-10-17 09:54:03.852193
2543  2023-10-17 09:54:03.899093
2544  2023-10-17 09:54:03.931014
2545  2023-10-17 09:54:03.963894
2546  2023-10-17 09:54:03.994841
2547  2023-10-17 09:54:04.027789
2548  2023-10-17 09:54:04.059638
2549  2023-10-17 09:54:04.091553
2550  2023-10-17 09:54:04.123502
2551  2023-10-17 09:54:04.155382
2552  2023-10-17 09:54:04.187331
2553  2023-10-17 09:54:04.219271
2554  2023-10-17 09:54:04.251126
2555  2023-10-17 09:54:04.299023
2556  2023-10-17 09:54:04.330938
2557  2023-10-17 09:54:04.363826
2558  2023-10-17 09:54:04.395740
2559  2023-10-17 09:54:04.427679
2560  2023-10-17 09:54:04.459572
2561  2023-10-17 09:54:04.491484
2562  2023-10-17 09:54:04.523432
2563  2023-10-17 09:54:04.555353
2564  2023-10-17 09:54:04.587228
2565  2023-10-17 09:54:04.619176
2566  2023-10-17 09:54:04.651091
2567  2023-10-17 09:54:04.698931
2568  2023-10-17 09:54:04.731881
2569  2023-10-17 09:54:04.763758
2570  2023-10-17 09:54:04.795695
2571  2023-10-17 09:54:04.827619
2572  2023-10-17 09:54:04.859534
2573  2023-10-17 09:54:04.891448
2574  2023-10-17 09:54:04.923331
2575  2023-10-17 09:54:04.955279
2576  2023-10-17 09:54:04.987201
2577  2023-10-17 09:54:05.019105
2578  2023-10-17 09:54:05.050990
2579  2023-10-17 09:54:05.099889
2580  2023-10-17 09:54:05.131802
2581  2023-10-17 09:54:05.163689
2582  2023-10-17 09:54:05.195604
2583  2023-10-17 09:54:05.227542
2584  2023-10-17 09:54:05.259458
2585  2023-10-17 09:54:05.291348
2586  2023-10-17 09:54:05.323294
2587  2023-10-17 09:54:05.355206
2588  2023-10-17 09:54:05.387121
2589  2023-10-17 09:54:05.419029
2590  2023-10-17 09:54:05.450921
2591  2023-10-17 09:54:05.499832
2592  2023-10-17 09:54:05.531736
2593  2023-10-17 09:54:05.563620
2594  2023-10-17 09:54:05.595535
2595  2023-10-17 09:54:05.627450
2596  2023-10-17 09:54:05.659395
2597  2023-10-17 09:54:05.692280
2598  2023-10-17 09:54:05.723193
2599  2023-10-17 09:54:05.756130
2600  2023-10-17 09:54:05.788021
2601  2023-10-17 09:54:05.818938
2602  2023-10-17 09:54:05.851850
2603  2023-10-17 09:54:05.899762
2604  2023-10-17 09:54:05.931638
2605  2023-10-17 09:54:05.963551
2606  2023-10-17 09:54:05.995560
2607  2023-10-17 09:54:06.027516
2608  2023-10-17 09:54:06.059390
2609  2023-10-17 09:54:06.091339
2610  2023-10-17 09:54:06.123219
2611  2023-10-17 09:54:06.155134
2612  2023-10-17 09:54:06.187078
2613  2023-10-17 09:54:06.218987
2614  2023-10-17 09:54:06.251876
2615  2023-10-17 09:54:06.299747
2616  2023-10-17 09:54:06.331691
2617  2023-10-17 09:54:06.363576
2618  2023-10-17 09:54:06.395491
2619  2023-10-17 09:54:06.427406
2620  2023-10-17 09:54:06.459353
2621  2023-10-17 09:54:06.491236
2622  2023-10-17 09:54:06.523179
2623  2023-10-17 09:54:06.555088
2624  2023-10-17 09:54:06.587977
2625  2023-10-17 09:54:06.619892
2626  2023-10-17 09:54:06.668801
2627  2023-10-17 09:54:06.699680
2628  2023-10-17 09:54:06.731633
2629  2023-10-17 09:54:06.763508
2630  2023-10-17 09:54:06.795468
2631  2023-10-17 09:54:06.827338
2632  2023-10-17 09:54:06.859252
2633  2023-10-17 09:54:06.891198
2634  2023-10-17 09:54:06.923142
2635  2023-10-17 09:54:06.955057
2636  2023-10-17 09:54:06.986998
2637  2023-10-17 09:54:07.018887
2638  2023-10-17 09:54:07.067790
2639  2023-10-17 09:54:07.099702
2640  2023-10-17 09:54:07.131621
2641  2023-10-17 09:54:07.163500
2642  2023-10-17 09:54:07.195415
2643  2023-10-17 09:54:07.227354
2644  2023-10-17 09:54:07.259290
2645  2023-10-17 09:54:07.291159
2646  2023-10-17 09:54:07.323104
2647  2023-10-17 09:54:07.354988
2648  2023-10-17 09:54:07.386903
2649  2023-10-17 09:54:07.418863
2650  2023-10-17 09:54:07.467720
2651  2023-10-17 09:54:07.499635
2652  2023-10-17 09:54:07.531551
2653  2023-10-17 09:54:07.563431
2654  2023-10-17 09:54:07.595346
2655  2023-10-17 09:54:07.627261
2656  2023-10-17 09:54:07.659200
2657  2023-10-17 09:54:07.691090
2658  2023-10-17 09:54:07.723005
2659  2023-10-17 09:54:07.754950
2660  2023-10-17 09:54:07.787849
2661  2023-10-17 09:54:07.819757
2662  2023-10-17 09:54:07.867655
2663  2023-10-17 09:54:07.900533
2664  2023-10-17 09:54:07.931485
2665  2023-10-17 09:54:07.963526
2666  2023-10-17 09:54:07.995441
2667  2023-10-17 09:54:08.027356
2668  2023-10-17 09:54:08.059271
2669  2023-10-17 09:54:08.091230
2670  2023-10-17 09:54:08.123101
2671  2023-10-17 09:54:08.155015
2672  2023-10-17 09:54:08.186970
2673  2023-10-17 09:54:08.219846
2674  2023-10-17 09:54:08.267732
2675  2023-10-17 09:54:08.299663
2676  2023-10-17 09:54:08.332541
2677  2023-10-17 09:54:08.364463
2678  2023-10-17 09:54:08.395372
2679  2023-10-17 09:54:08.428311
2680  2023-10-17 09:54:08.460232
2681  2023-10-17 09:54:08.492115
2682  2023-10-17 09:54:08.525055
2683  2023-10-17 09:54:08.556975
2684  2023-10-17 09:54:08.586890
2685  2023-10-17 09:54:08.620806
2686  2023-10-17 09:54:08.668676
2687  2023-10-17 09:54:08.700557
2688  2023-10-17 09:54:08.732505
2689  2023-10-17 09:54:08.763389
2690  2023-10-17 09:54:08.796336
2691  2023-10-17 09:54:08.828240
2692  2023-10-17 09:54:08.860164
2693  2023-10-17 09:54:08.893090
2694  2023-10-17 09:54:08.924974
2695  2023-10-17 09:54:08.956907
2696  2023-10-17 09:54:08.988827
2697  2023-10-17 09:54:09.020735
2698  2023-10-17 09:54:09.068604
2699  2023-10-17 09:54:09.100532
2700  2023-10-17 09:54:09.133445
2701  2023-10-17 09:54:09.164348
2702  2023-10-17 09:54:09.196264
2703  2023-10-17 09:54:09.229195
2704  2023-10-17 09:54:09.261092
2705  2023-10-17 09:54:09.291977
2706  2023-10-17 09:54:09.324890
2707  2023-10-17 09:54:09.356803
2708  2023-10-17 09:54:09.388752
2709  2023-10-17 09:54:09.420682
2710  2023-10-17 09:54:09.468511
2711  2023-10-17 09:54:09.500455
2712  2023-10-17 09:54:09.532440
2713  2023-10-17 09:54:09.564406
2714  2023-10-17 09:54:09.596327
2715  2023-10-17 09:54:09.628232
2716  2023-10-17 09:54:09.660147
2717  2023-10-17 09:54:09.692082
2718  2023-10-17 09:54:09.724001
2719  2023-10-17 09:54:09.755906
2720  2023-10-17 09:54:09.787814
2721  2023-10-17 09:54:09.819731
2722  2023-10-17 09:54:09.868601
2723  2023-10-17 09:54:09.900512
2724  2023-10-17 09:54:09.932428
2725  2023-10-17 09:54:09.964334
2726  2023-10-17 09:54:09.996258
2727  2023-10-17 09:54:10.028165
2728  2023-10-17 09:54:10.060113
2729  2023-10-17 09:54:10.091995
2730  2023-10-17 09:54:10.123931
2731  2023-10-17 09:54:10.155850
2732  2023-10-17 09:54:10.187747
2733  2023-10-17 09:54:10.219662
2734  2023-10-17 09:54:10.268550
2735  2023-10-17 09:54:10.299447
2736  2023-10-17 09:54:10.332362
2737  2023-10-17 09:54:10.364272
2738  2023-10-17 09:54:10.396160
2739  2023-10-17 09:54:10.428114
2740  2023-10-17 09:54:10.460018
2741  2023-10-17 09:54:10.491902
2742  2023-10-17 09:54:10.523839
2743  2023-10-17 09:54:10.556761
2744  2023-10-17 09:54:10.587674
2745  2023-10-17 09:54:10.635516
2746  2023-10-17 09:54:10.667554
2747  2023-10-17 09:54:10.700464
2748  2023-10-17 09:54:10.732393
2749  2023-10-17 09:54:10.763285
2750  2023-10-17 09:54:10.796208
2751  2023-10-17 09:54:10.827122
2752  2023-10-17 09:54:10.860030
2753  2023-10-17 09:54:10.891964
2754  2023-10-17 09:54:10.923857
2755  2023-10-17 09:54:10.955787
2756  2023-10-17 09:54:10.987699
2757  2023-10-17 09:54:11.035573
2758  2023-10-17 09:54:11.067480
2759  2023-10-17 09:54:11.099404
2760  2023-10-17 09:54:11.132316
2761  2023-10-17 09:54:11.163240
2762  2023-10-17 09:54:11.195131
2763  2023-10-17 09:54:11.228074
2764  2023-10-17 09:54:11.259934
2765  2023-10-17 09:54:11.291849
2766  2023-10-17 09:54:11.323805
2767  2023-10-17 09:54:11.355712
2768  2023-10-17 09:54:11.387618
2769  2023-10-17 09:54:11.435499
2770  2023-10-17 09:54:11.467412
2771  2023-10-17 09:54:11.499341
2772  2023-10-17 09:54:11.531274
2773  2023-10-17 09:54:11.563168
2774  2023-10-17 09:54:11.595070
2775  2023-10-17 09:54:11.628000
2776  2023-10-17 09:54:11.658900
2777  2023-10-17 09:54:11.691781
2778  2023-10-17 09:54:11.723765
2779  2023-10-17 09:54:11.755656
2780  2023-10-17 09:54:11.787558
2781  2023-10-17 09:54:11.835427
2782  2023-10-17 09:54:11.867341
2783  2023-10-17 09:54:11.899289
2784  2023-10-17 09:54:11.931273
2785  2023-10-17 09:54:11.963187
2786  2023-10-17 09:54:11.995095
2787  2023-10-17 09:54:12.027020
2788  2023-10-17 09:54:12.058924
2789  2023-10-17 09:54:12.091812
2790  2023-10-17 09:54:12.123782
2791  2023-10-17 09:54:12.155673
2792  2023-10-17 09:54:12.187587
2793  2023-10-17 09:54:12.235490
2794  2023-10-17 09:54:12.267376
2795  2023-10-17 09:54:12.299316
2796  2023-10-17 09:54:12.331208
2797  2023-10-17 09:54:12.363138
2798  2023-10-17 09:54:12.396083
2799  2023-10-17 09:54:12.427998
2800  2023-10-17 09:54:12.459912
2801  2023-10-17 09:54:12.491826
2802  2023-10-17 09:54:12.523740
2803  2023-10-17 09:54:12.555655
2804  2023-10-17 09:54:12.587569
2805  2023-10-17 09:54:12.635474
2806  2023-10-17 09:54:12.667358
2807  2023-10-17 09:54:12.699306
2808  2023-10-17 09:54:12.732223
2809  2023-10-17 09:54:12.764099
2810  2023-10-17 09:54:12.796046
2811  2023-10-17 09:54:12.827992
2812  2023-10-17 09:54:12.859874
2813  2023-10-17 09:54:12.891811
2814  2023-10-17 09:54:12.923703
2815  2023-10-17 09:54:12.955619
2816  2023-10-17 09:54:12.987541
2817  2023-10-17 09:54:13.035400
2818  2023-10-17 09:54:13.067329
2819  2023-10-17 09:54:13.099237
2820  2023-10-17 09:54:13.132127
2821  2023-10-17 09:54:13.163032
2822  2023-10-17 09:54:13.194971
2823  2023-10-17 09:54:13.227873
2824  2023-10-17 09:54:13.259832
2825  2023-10-17 09:54:13.291687
2826  2023-10-17 09:54:13.323654
2827  2023-10-17 09:54:13.355517
2828  2023-10-17 09:54:13.387432
2829  2023-10-17 09:54:13.435358
2830  2023-10-17 09:54:13.467258
2831  2023-10-17 09:54:13.499164
2832  2023-10-17 09:54:13.531084
2833  2023-10-17 09:54:13.562986
2834  2023-10-17 09:54:13.594908
2835  2023-10-17 09:54:13.627830
2836  2023-10-17 09:54:13.659753
2837  2023-10-17 09:54:13.691652
2838  2023-10-17 09:54:13.723569
2839  2023-10-17 09:54:13.755482
2840  2023-10-17 09:54:13.787398
2841  2023-10-17 09:54:13.835304
2842  2023-10-17 09:54:13.867183
2843  2023-10-17 09:54:13.899125
2844  2023-10-17 09:54:13.931013
2845  2023-10-17 09:54:13.962919
2846  2023-10-17 09:54:13.994852
2847  2023-10-17 09:54:14.027751
2848  2023-10-17 09:54:14.059670
2849  2023-10-17 09:54:14.091585
2850  2023-10-17 09:54:14.123500
2851  2023-10-17 09:54:14.155380
2852  2023-10-17 09:54:14.203304
2853  2023-10-17 09:54:14.235167
2854  2023-10-17 09:54:14.267115
2855  2023-10-17 09:54:14.299995
2856  2023-10-17 09:54:14.331923
2857  2023-10-17 09:54:14.363826
2858  2023-10-17 09:54:14.395741
2859  2023-10-17 09:54:14.427653
2860  2023-10-17 09:54:14.459569
2861  2023-10-17 09:54:14.491512
2862  2023-10-17 09:54:14.523427
2863  2023-10-17 09:54:14.555370
2864  2023-10-17 09:54:14.603184
2865  2023-10-17 09:54:14.636095
2866  2023-10-17 09:54:14.668049
2867  2023-10-17 09:54:14.699969
2868  2023-10-17 09:54:14.731898
2869  2023-10-17 09:54:14.763769
2870  2023-10-17 09:54:14.795708
2871  2023-10-17 09:54:14.827622
2872  2023-10-17 09:54:14.859525
2873  2023-10-17 09:54:14.891446
2874  2023-10-17 09:54:14.923362
2875  2023-10-17 09:54:14.955278
2876  2023-10-17 09:54:15.003149
2877  2023-10-17 09:54:15.036026
2878  2023-10-17 09:54:15.066995
2879  2023-10-17 09:54:15.099892
2880  2023-10-17 09:54:15.131773
2881  2023-10-17 09:54:15.163718
2882  2023-10-17 09:54:15.195635
2883  2023-10-17 09:54:15.227549
2884  2023-10-17 09:54:15.259463
2885  2023-10-17 09:54:15.291372
2886  2023-10-17 09:54:15.323259
2887  2023-10-17 09:54:15.355202
2888  2023-10-17 09:54:15.403077
2889  2023-10-17 09:54:15.435057
2890  2023-10-17 09:54:15.467926
2891  2023-10-17 09:54:15.499841
2892  2023-10-17 09:54:15.531756
2893  2023-10-17 09:54:15.563671
2894  2023-10-17 09:54:15.595651
2895  2023-10-17 09:54:15.627566
2896  2023-10-17 09:54:15.659492
2897  2023-10-17 09:54:15.691407
2898  2023-10-17 09:54:15.723321
2899  2023-10-17 09:54:15.755328
2900  2023-10-17 09:54:15.803197
2901  2023-10-17 09:54:15.835117
2902  2023-10-17 09:54:15.868027
2903  2023-10-17 09:54:15.899940
2904  2023-10-17 09:54:15.931849
2905  2023-10-17 09:54:15.963734
2906  2023-10-17 09:54:15.995649
2907  2023-10-17 09:54:16.027599
2908  2023-10-17 09:54:16.059479
2909  2023-10-17 09:54:16.091393
2910  2023-10-17 09:54:16.123350
2911  2023-10-17 09:54:16.155224
2912  2023-10-17 09:54:16.203137
2913  2023-10-17 09:54:16.235049
2914  2023-10-17 09:54:16.267955
2915  2023-10-17 09:54:16.299873
2916  2023-10-17 09:54:16.331784
2917  2023-10-17 09:54:16.363701
2918  2023-10-17 09:54:16.395612
2919  2023-10-17 09:54:16.427530
2920  2023-10-17 09:54:16.459442
2921  2023-10-17 09:54:16.491362
2922  2023-10-17 09:54:16.523273
2923  2023-10-17 09:54:16.555182
2924  2023-10-17 09:54:16.603026
2925  2023-10-17 09:54:16.635971
2926  2023-10-17 09:54:16.667886
2927  2023-10-17 09:54:16.699804
2928  2023-10-17 09:54:16.731715
2929  2023-10-17 09:54:16.763637
2930  2023-10-17 09:54:16.795546
2931  2023-10-17 09:54:16.827459
2932  2023-10-17 09:54:16.860339
2933  2023-10-17 09:54:16.891288
2934  2023-10-17 09:54:16.924168
2935  2023-10-17 09:54:16.955088
2936  2023-10-17 09:54:17.002989
2937  2023-10-17 09:54:17.035871
2938  2023-10-17 09:54:17.067851
2939  2023-10-17 09:54:17.099733
2940  2023-10-17 09:54:17.131666
2941  2023-10-17 09:54:17.163529
2942  2023-10-17 09:54:17.195489
2943  2023-10-17 09:54:17.227404
2944  2023-10-17 09:54:17.259318
2945  2023-10-17 09:54:17.291272
2946  2023-10-17 09:54:17.323211
2947  2023-10-17 09:54:17.355151
2948  2023-10-17 09:54:17.403028
2949  2023-10-17 09:54:17.435907
2950  2023-10-17 09:54:17.467822
2951  2023-10-17 09:54:17.499786
2952  2023-10-17 09:54:17.531686
2953  2023-10-17 09:54:17.563599
2954  2023-10-17 09:54:17.595515
2955  2023-10-17 09:54:17.627426
2956  2023-10-17 09:54:17.659344
2957  2023-10-17 09:54:17.691269
2958  2023-10-17 09:54:17.723164
2959  2023-10-17 09:54:17.771043
2960  2023-10-17 09:54:17.803924
2961  2023-10-17 09:54:17.835869
2962  2023-10-17 09:54:17.867755
2963  2023-10-17 09:54:17.899703
2964  2023-10-17 09:54:17.931618
2965  2023-10-17 09:54:17.963538
2966  2023-10-17 09:54:17.995470
2967  2023-10-17 09:54:18.027478
2968  2023-10-17 09:54:18.059473
2969  2023-10-17 09:54:18.091390
2970  2023-10-17 09:54:18.123432
2971  2023-10-17 09:54:18.171297
2972  2023-10-17 09:54:18.203233
2973  2023-10-17 09:54:18.235133
2974  2023-10-17 09:54:18.267049
2975  2023-10-17 09:54:18.299929
2976  2023-10-17 09:54:18.331844
2977  2023-10-17 09:54:18.363796
2978  2023-10-17 09:54:18.395705
2979  2023-10-17 09:54:18.427586
2980  2023-10-17 09:54:18.459566
2981  2023-10-17 09:54:18.491448
2982  2023-10-17 09:54:18.523371
2983  2023-10-17 09:54:18.571224
2984  2023-10-17 09:54:18.603151
2985  2023-10-17 09:54:18.635064
2986  2023-10-17 09:54:18.668022
2987  2023-10-17 09:54:18.699905
2988  2023-10-17 09:54:18.731911
2989  2023-10-17 09:54:18.763850
2990  2023-10-17 09:54:18.795712
2991  2023-10-17 09:54:18.827634
2992  2023-10-17 09:54:18.859542
2993  2023-10-17 09:54:18.892485
2994  2023-10-17 09:54:18.923373
2995  2023-10-17 09:54:18.972240
2996  2023-10-17 09:54:19.004155
2997  2023-10-17 09:54:19.035075
2998  2023-10-17 09:54:19.068016
2999  2023-10-17 09:54:19.099933
3000  2023-10-17 09:54:19.131828
3001  2023-10-17 09:54:19.163758
3002  2023-10-17 09:54:19.195674
3003  2023-10-17 09:54:19.227608
3004  2023-10-17 09:54:19.259473
3005  2023-10-17 09:54:19.291423
3006  2023-10-17 09:54:19.323426
3007  2023-10-17 09:54:19.371343
3008  2023-10-17 09:54:19.403244
3009  2023-10-17 09:54:19.435146
3010  2023-10-17 09:54:19.467063
3011  2023-10-17 09:54:19.499973
3012  2023-10-17 09:54:19.531915
3013  2023-10-17 09:54:19.563837
3014  2023-10-17 09:54:19.595715
3015  2023-10-17 09:54:19.627639
3016  2023-10-17 09:54:19.659548
3017  2023-10-17 09:54:19.691464
3018  2023-10-17 09:54:19.723373
3019  2023-10-17 09:54:19.771247
3020  2023-10-17 09:54:19.803183
3021  2023-10-17 09:54:19.835088
3022  2023-10-17 09:54:19.867981
3023  2023-10-17 09:54:19.899872
3024  2023-10-17 09:54:19.931834
3025  2023-10-17 09:54:19.963731
3026  2023-10-17 09:54:19.995658
3027  2023-10-17 09:54:20.027564
3028  2023-10-17 09:54:20.059478
3029  2023-10-17 09:54:20.091400
3030  2023-10-17 09:54:20.123307
3031  2023-10-17 09:54:20.172193
3032  2023-10-17 09:54:20.203091
3033  2023-10-17 09:54:20.235007
3034  2023-10-17 09:54:20.267920
3035  2023-10-17 09:54:20.299834
3036  2023-10-17 09:54:20.331750
3037  2023-10-17 09:54:20.363662
3038  2023-10-17 09:54:20.395578
3039  2023-10-17 09:54:20.427493
3040  2023-10-17 09:54:20.459405
3041  2023-10-17 09:54:20.491355
3042  2023-10-17 09:54:20.523235
3043  2023-10-17 09:54:20.572107
3044  2023-10-17 09:54:20.603019
3045  2023-10-17 09:54:20.635944
3046  2023-10-17 09:54:20.667850
3047  2023-10-17 09:54:20.699773
3048  2023-10-17 09:54:20.731675
3049  2023-10-17 09:54:20.763605
3050  2023-10-17 09:54:20.795508
3051  2023-10-17 09:54:20.827393
3052  2023-10-17 09:54:20.859340
3053  2023-10-17 09:54:20.891258
3054  2023-10-17 09:54:20.923168
3055  2023-10-17 09:54:20.972007
3056  2023-10-17 09:54:21.003921
3057  2023-10-17 09:54:21.035835
3058  2023-10-17 09:54:21.067763
3059  2023-10-17 09:54:21.100663
3060  2023-10-17 09:54:21.131617
3061  2023-10-17 09:54:21.163498
3062  2023-10-17 09:54:21.195413
3063  2023-10-17 09:54:21.228330
3064  2023-10-17 09:54:21.259238
3065  2023-10-17 09:54:21.292150
3066  2023-10-17 09:54:21.324065
3067  2023-10-17 09:54:21.370939
3068  2023-10-17 09:54:21.403861
3069  2023-10-17 09:54:21.435766
3070  2023-10-17 09:54:21.467681
3071  2023-10-17 09:54:21.499626
3072  2023-10-17 09:54:21.531513
3073  2023-10-17 09:54:21.563462
3074  2023-10-17 09:54:21.595373
3075  2023-10-17 09:54:21.627259
3076  2023-10-17 09:54:21.659200
3077  2023-10-17 09:54:21.691122
3078  2023-10-17 09:54:21.739987
3079  2023-10-17 09:54:21.771901
3080  2023-10-17 09:54:21.803819
3081  2023-10-17 09:54:21.835726
3082  2023-10-17 09:54:21.867659
3083  2023-10-17 09:54:21.899528
3084  2023-10-17 09:54:21.931478
3085  2023-10-17 09:54:21.963389
3086  2023-10-17 09:54:21.995321
3087  2023-10-17 09:54:22.029206
3088  2023-10-17 09:54:22.059125
3089  2023-10-17 09:54:22.091067
3090  2023-10-17 09:54:22.139926
3091  2023-10-17 09:54:22.171799
3092  2023-10-17 09:54:22.203715
3093  2023-10-17 09:54:22.235681
3094  2023-10-17 09:54:22.267578
3095  2023-10-17 09:54:22.301529
3096  2023-10-17 09:54:22.331407
3097  2023-10-17 09:54:22.363327
3098  2023-10-17 09:54:22.395249
3099  2023-10-17 09:54:22.427143
3100  2023-10-17 09:54:22.461062
3101  2023-10-17 09:54:22.491946
3102  2023-10-17 09:54:22.539816
3103  2023-10-17 09:54:22.571730
3104  2023-10-17 09:54:22.603753
3105  2023-10-17 09:54:22.635649
3106  2023-10-17 09:54:22.669527
3107  2023-10-17 09:54:22.701490
3108  2023-10-17 09:54:22.733391
3109  2023-10-17 09:54:22.764276
3110  2023-10-17 09:54:22.796191
3111  2023-10-17 09:54:22.827139
3112  2023-10-17 09:54:22.860021
3113  2023-10-17 09:54:22.891934
3114  2023-10-17 09:54:22.939806
3115  2023-10-17 09:54:22.971759
3116  2023-10-17 09:54:23.003636
3117  2023-10-17 09:54:23.035555
3118  2023-10-17 09:54:23.067466
3119  2023-10-17 09:54:23.099380
3120  2023-10-17 09:54:23.132297
3121  2023-10-17 09:54:23.163234
3122  2023-10-17 09:54:23.195152
3123  2023-10-17 09:54:23.229065
3124  2023-10-17 09:54:23.259992
3125  2023-10-17 09:54:23.291873
3126  2023-10-17 09:54:23.339783
3127  2023-10-17 09:54:23.372650
3128  2023-10-17 09:54:23.403592
3129  2023-10-17 09:54:23.435482
3130  2023-10-17 09:54:23.467433
3131  2023-10-17 09:54:23.499374
3132  2023-10-17 09:54:23.532224
3133  2023-10-17 09:54:23.563172
3134  2023-10-17 09:54:23.595087
3135  2023-10-17 09:54:23.626995
3136  2023-10-17 09:54:23.659881
3137  2023-10-17 09:54:23.691866
3138  2023-10-17 09:54:23.739667
3139  2023-10-17 09:54:23.773628
3140  2023-10-17 09:54:23.803549
3141  2023-10-17 09:54:23.835427
3142  2023-10-17 09:54:23.867383
3143  2023-10-17 09:54:23.901266
3144  2023-10-17 09:54:23.933195
3145  2023-10-17 09:54:23.965090
3146  2023-10-17 09:54:23.995031
3147  2023-10-17 09:54:24.027937
3148  2023-10-17 09:54:24.060841
3149  2023-10-17 09:54:24.093747
3150  2023-10-17 09:54:24.140693
3151  2023-10-17 09:54:24.172724
3152  2023-10-17 09:54:24.204618
3153  2023-10-17 09:54:24.235538
3154  2023-10-17 09:54:24.267453
3155  2023-10-17 09:54:24.300362
3156  2023-10-17 09:54:24.332273
3157  2023-10-17 09:54:24.364172
3158  2023-10-17 09:54:24.395119
3159  2023-10-17 09:54:24.428024
3160  2023-10-17 09:54:24.460933
3161  2023-10-17 09:54:24.491818
3162  2023-10-17 09:54:24.539740
3163  2023-10-17 09:54:24.572655
3164  2023-10-17 09:54:24.604550
3165  2023-10-17 09:54:24.635467
3166  2023-10-17 09:54:24.667390
3167  2023-10-17 09:54:24.700297
3168  2023-10-17 09:54:24.732209
3169  2023-10-17 09:54:24.764118
3170  2023-10-17 09:54:24.795039
3171  2023-10-17 09:54:24.826967
3172  2023-10-17 09:54:24.859885
3173  2023-10-17 09:54:24.891794
3174  2023-10-17 09:54:24.939656
3175  2023-10-17 09:54:24.971569
3176  2023-10-17 09:54:25.003493
3177  2023-10-17 09:54:25.035398
3178  2023-10-17 09:54:25.067314
3179  2023-10-17 09:54:25.100226
3180  2023-10-17 09:54:25.132141
3181  2023-10-17 09:54:25.163050
3182  2023-10-17 09:54:25.194969
3183  2023-10-17 09:54:25.226885
3184  2023-10-17 09:54:25.259801
3185  2023-10-17 09:54:25.307639
3186  2023-10-17 09:54:25.340552
3187  2023-10-17 09:54:25.372510
3188  2023-10-17 09:54:25.404417
3189  2023-10-17 09:54:25.435336
3190  2023-10-17 09:54:25.467245
3191  2023-10-17 09:54:25.500125
3192  2023-10-17 09:54:25.533067
3193  2023-10-17 09:54:25.563984
3194  2023-10-17 09:54:25.594907
3195  2023-10-17 09:54:25.627841
3196  2023-10-17 09:54:25.660747
3197  2023-10-17 09:54:25.707611
3198  2023-10-17 09:54:25.740515
3199  2023-10-17 09:54:25.772430
3200  2023-10-17 09:54:25.804344
3201  2023-10-17 09:54:25.835265
3202  2023-10-17 09:54:25.867167
3203  2023-10-17 09:54:25.900090
3204  2023-10-17 09:54:25.932010
3205  2023-10-17 09:54:25.963915
3206  2023-10-17 09:54:25.995805
3207  2023-10-17 09:54:26.027738
3208  2023-10-17 09:54:26.059677
3209  2023-10-17 09:54:26.107531
3210  2023-10-17 09:54:26.140448
3211  2023-10-17 09:54:26.171362
3212  2023-10-17 09:54:26.204275
3213  2023-10-17 09:54:26.235160
3214  2023-10-17 09:54:26.267105
3215  2023-10-17 09:54:26.300019
3216  2023-10-17 09:54:26.331943
3217  2023-10-17 09:54:26.364844
3218  2023-10-17 09:54:26.395730
3219  2023-10-17 09:54:26.427674
3220  2023-10-17 09:54:26.460593
3221  2023-10-17 09:54:26.507476
3222  2023-10-17 09:54:26.540377
3223  2023-10-17 09:54:26.573259
3224  2023-10-17 09:54:26.604216
3225  2023-10-17 09:54:26.636122
3226  2023-10-17 09:54:26.667039
3227  2023-10-17 09:54:26.699950
3228  2023-10-17 09:54:26.731864
3229  2023-10-17 09:54:26.763780
3230  2023-10-17 09:54:26.796661
3231  2023-10-17 09:54:26.827577
3232  2023-10-17 09:54:26.859532
3233  2023-10-17 09:54:26.907395
3234  2023-10-17 09:54:26.940306
3235  2023-10-17 09:54:26.972223
3236  2023-10-17 09:54:27.004137
3237  2023-10-17 09:54:27.035053
3238  2023-10-17 09:54:27.067966
3239  2023-10-17 09:54:27.099900
3240  2023-10-17 09:54:27.131795
3241  2023-10-17 09:54:27.163715
3242  2023-10-17 09:54:27.195593
3243  2023-10-17 09:54:27.227542
3244  2023-10-17 09:54:27.259450
3245  2023-10-17 09:54:27.307335
3246  2023-10-17 09:54:27.339252
3247  2023-10-17 09:54:27.372154
3248  2023-10-17 09:54:27.404077
3249  2023-10-17 09:54:27.436019
3250  2023-10-17 09:54:27.467868
3251  2023-10-17 09:54:27.499844
3252  2023-10-17 09:54:27.531729
3253  2023-10-17 09:54:27.563635
3254  2023-10-17 09:54:27.595524
3255  2023-10-17 09:54:27.627439
3256  2023-10-17 09:54:27.659381
3257  2023-10-17 09:54:27.707289
3258  2023-10-17 09:54:27.739172
3259  2023-10-17 09:54:27.772090
3260  2023-10-17 09:54:27.803992
3261  2023-10-17 09:54:27.835916
3262  2023-10-17 09:54:27.867832
3263  2023-10-17 09:54:27.900752
3264  2023-10-17 09:54:27.931675
3265  2023-10-17 09:54:27.963574
3266  2023-10-17 09:54:27.995488
3267  2023-10-17 09:54:28.027370
3268  2023-10-17 09:54:28.059285
3269  2023-10-17 09:54:28.107186
3270  2023-10-17 09:54:28.139096
3271  2023-10-17 09:54:28.171030
3272  2023-10-17 09:54:28.203934
3273  2023-10-17 09:54:28.235847
3274  2023-10-17 09:54:28.267778
3275  2023-10-17 09:54:28.299677
3276  2023-10-17 09:54:28.331592
3277  2023-10-17 09:54:28.363472
3278  2023-10-17 09:54:28.395419
3279  2023-10-17 09:54:28.427347
3280  2023-10-17 09:54:28.459216
3281  2023-10-17 09:54:28.507121
3282  2023-10-17 09:54:28.540000
3283  2023-10-17 09:54:28.571957
3284  2023-10-17 09:54:28.603830
3285  2023-10-17 09:54:28.635793
3286  2023-10-17 09:54:28.667694
3287  2023-10-17 09:54:28.699575
3288  2023-10-17 09:54:28.731522
3289  2023-10-17 09:54:28.763434
3290  2023-10-17 09:54:28.795356
3291  2023-10-17 09:54:28.827246
3292  2023-10-17 09:54:28.859179
3293  2023-10-17 09:54:28.907045
3294  2023-10-17 09:54:28.939977
3295  2023-10-17 09:54:28.971885
3296  2023-10-17 09:54:29.003798
3297  2023-10-17 09:54:29.035677
3298  2023-10-17 09:54:29.067623
3299  2023-10-17 09:54:29.099541
3300  2023-10-17 09:54:29.131452
3301  2023-10-17 09:54:29.163366
3302  2023-10-17 09:54:29.195292
3303  2023-10-17 09:54:29.228195
3304  2023-10-17 09:54:29.275040
3305  2023-10-17 09:54:29.307983
3306  2023-10-17 09:54:29.339909
3307  2023-10-17 09:54:29.372822
3308  2023-10-17 09:54:29.403743
3309  2023-10-17 09:54:29.435658
3310  2023-10-17 09:54:29.467567
3311  2023-10-17 09:54:29.499482
3312  2023-10-17 09:54:29.531397
3313  2023-10-17 09:54:29.563348
3314  2023-10-17 09:54:29.596261
3315  2023-10-17 09:54:29.627177
3316  2023-10-17 09:54:29.675060
3317  2023-10-17 09:54:29.708032
3318  2023-10-17 09:54:29.739913
3319  2023-10-17 09:54:29.771827
3320  2023-10-17 09:54:29.803755
3321  2023-10-17 09:54:29.835684
3322  2023-10-17 09:54:29.867603
3323  2023-10-17 09:54:29.899520
3324  2023-10-17 09:54:29.931433
3325  2023-10-17 09:54:29.963351
3326  2023-10-17 09:54:29.996261
3327  2023-10-17 09:54:30.027144
3328  2023-10-17 09:54:30.075048
3329  2023-10-17 09:54:30.107961
3330  2023-10-17 09:54:30.139847
3331  2023-10-17 09:54:30.171793
3332  2023-10-17 09:54:30.203707
3333  2023-10-17 09:54:30.235629
3334  2023-10-17 09:54:30.267535
3335  2023-10-17 09:54:30.299450
3336  2023-10-17 09:54:30.332364
3337  2023-10-17 09:54:30.363282
3338  2023-10-17 09:54:30.396192
3339  2023-10-17 09:54:30.427103
3340  2023-10-17 09:54:30.475960
3341  2023-10-17 09:54:30.507860
3342  2023-10-17 09:54:30.539806
3343  2023-10-17 09:54:30.571731
3344  2023-10-17 09:54:30.603606
3345  2023-10-17 09:54:30.635555
3346  2023-10-17 09:54:30.667466
3347  2023-10-17 09:54:30.699385
3348  2023-10-17 09:54:30.731311
3349  2023-10-17 09:54:30.763216
3350  2023-10-17 09:54:30.795125
3351  2023-10-17 09:54:30.827007
3352  2023-10-17 09:54:30.875904
3353  2023-10-17 09:54:30.907823
3354  2023-10-17 09:54:30.939746
3355  2023-10-17 09:54:30.971657
3356  2023-10-17 09:54:31.003575
3357  2023-10-17 09:54:31.035484
3358  2023-10-17 09:54:31.067397
3359  2023-10-17 09:54:31.099326
3360  2023-10-17 09:54:31.131229
3361  2023-10-17 09:54:31.163133
3362  2023-10-17 09:54:31.196034
3363  2023-10-17 09:54:31.227953
3364  2023-10-17 09:54:31.275809
3365  2023-10-17 09:54:31.307724
3366  2023-10-17 09:54:31.339659
3367  2023-10-17 09:54:31.372549
3368  2023-10-17 09:54:31.404472
3369  2023-10-17 09:54:31.436381
3370  2023-10-17 09:54:31.468327
3371  2023-10-17 09:54:31.500257
3372  2023-10-17 09:54:31.532125
3373  2023-10-17 09:54:31.564038
3374  2023-10-17 09:54:31.594955
3375  2023-10-17 09:54:31.627867
3376  2023-10-17 09:54:31.675788
3377  2023-10-17 09:54:31.707689
3378  2023-10-17 09:54:31.739569
3379  2023-10-17 09:54:31.771515
3380  2023-10-17 09:54:31.803398
3381  2023-10-17 09:54:31.835352
3382  2023-10-17 09:54:31.867251
3383  2023-10-17 09:54:31.899191
3384  2023-10-17 09:54:31.932086
3385  2023-10-17 09:54:31.963010
3386  2023-10-17 09:54:31.995933
3387  2023-10-17 09:54:32.027798
3388  2023-10-17 09:54:32.075705
3389  2023-10-17 09:54:32.107585
3390  2023-10-17 09:54:32.139541
3391  2023-10-17 09:54:32.171446
3392  2023-10-17 09:54:32.203367
3393  2023-10-17 09:54:32.235246
3394  2023-10-17 09:54:32.267193
3395  2023-10-17 09:54:32.299106
3396  2023-10-17 09:54:32.332019
3397  2023-10-17 09:54:32.363944
3398  2023-10-17 09:54:32.395878
3399  2023-10-17 09:54:32.427763
3400  2023-10-17 09:54:32.475641
3401  2023-10-17 09:54:32.507518
3402  2023-10-17 09:54:32.539464
3403  2023-10-17 09:54:32.571395
3404  2023-10-17 09:54:32.603313
3405  2023-10-17 09:54:32.635209
3406  2023-10-17 09:54:32.667124
3407  2023-10-17 09:54:32.699045
3408  2023-10-17 09:54:32.731916
3409  2023-10-17 09:54:32.762859
3410  2023-10-17 09:54:32.795774
3411  2023-10-17 09:54:32.843646
3412  2023-10-17 09:54:32.875668
3413  2023-10-17 09:54:32.907580
3414  2023-10-17 09:54:32.939496
3415  2023-10-17 09:54:32.971407
3416  2023-10-17 09:54:33.003331
3417  2023-10-17 09:54:33.035239
3418  2023-10-17 09:54:33.068151
3419  2023-10-17 09:54:33.099060
3420  2023-10-17 09:54:33.131949
3421  2023-10-17 09:54:33.163863
3422  2023-10-17 09:54:33.195779
3423  2023-10-17 09:54:33.243651
3424  2023-10-17 09:54:33.275565
3425  2023-10-17 09:54:33.308511
3426  2023-10-17 09:54:33.339396
3427  2023-10-17 09:54:33.372359
3428  2023-10-17 09:54:33.404221
3429  2023-10-17 09:54:33.435176
3430  2023-10-17 09:54:33.467054
3431  2023-10-17 09:54:33.500000
3432  2023-10-17 09:54:33.531903
3433  2023-10-17 09:54:33.563837
3434  2023-10-17 09:54:33.595740
3435  2023-10-17 09:54:33.643725
3436  2023-10-17 09:54:33.675656
3437  2023-10-17 09:54:33.707558
3438  2023-10-17 09:54:33.739470
3439  2023-10-17 09:54:33.771385
3440  2023-10-17 09:54:33.803318
3441  2023-10-17 09:54:33.835220
3442  2023-10-17 09:54:33.867214
3443  2023-10-17 09:54:33.900090
3444  2023-10-17 09:54:33.931079
3445  2023-10-17 09:54:33.963024
3446  2023-10-17 09:54:33.995938
3447  2023-10-17 09:54:34.043838
3448  2023-10-17 09:54:34.075726
3449  2023-10-17 09:54:34.107636
3450  2023-10-17 09:54:34.139551
3451  2023-10-17 09:54:34.171573
3452  2023-10-17 09:54:34.203487
3453  2023-10-17 09:54:34.235409
3454  2023-10-17 09:54:34.267319
3455  2023-10-17 09:54:34.300235
3456  2023-10-17 09:54:34.331146
3457  2023-10-17 09:54:34.363072
3458  2023-10-17 09:54:34.394975
3459  2023-10-17 09:54:34.443843
3460  2023-10-17 09:54:34.475726
3461  2023-10-17 09:54:34.507685
3462  2023-10-17 09:54:34.539555
3463  2023-10-17 09:54:34.571503
3464  2023-10-17 09:54:34.603417
3465  2023-10-17 09:54:34.635335
3466  2023-10-17 09:54:34.667227
3467  2023-10-17 09:54:34.700170
3468  2023-10-17 09:54:34.732074
3469  2023-10-17 09:54:34.762985
3470  2023-10-17 09:54:34.794900
3471  2023-10-17 09:54:34.843869
3472  2023-10-17 09:54:34.875805
3473  2023-10-17 09:54:34.907836
3474  2023-10-17 09:54:34.939742
3475  2023-10-17 09:54:34.971618
3476  2023-10-17 09:54:35.003568
3477  2023-10-17 09:54:35.035482
3478  2023-10-17 09:54:35.067396
3479  2023-10-17 09:54:35.099324
3480  2023-10-17 09:54:35.131222
3481  2023-10-17 09:54:35.163132
3482  2023-10-17 09:54:35.195046
3483  2023-10-17 09:54:35.243892
3484  2023-10-17 09:54:35.275830
3485  2023-10-17 09:54:35.307772
3486  2023-10-17 09:54:35.339701
3487  2023-10-17 09:54:35.371550
3488  2023-10-17 09:54:35.403466
3489  2023-10-17 09:54:35.435419
3490  2023-10-17 09:54:35.467299
3491  2023-10-17 09:54:35.500239
3492  2023-10-17 09:54:35.531123
3493  2023-10-17 09:54:35.563085
3494  2023-10-17 09:54:35.595984
3495  2023-10-17 09:54:35.643823
3496  2023-10-17 09:54:35.675769
3497  2023-10-17 09:54:35.707679
3498  2023-10-17 09:54:35.739600
3499  2023-10-17 09:54:35.771524
3500  2023-10-17 09:54:35.803461
3501  2023-10-17 09:54:35.835324
3502  2023-10-17 09:54:35.867286
3503  2023-10-17 09:54:35.899165
3504  2023-10-17 09:54:35.931090
3505  2023-10-17 09:54:35.963006
3506  2023-10-17 09:54:35.994909
3507  2023-10-17 09:54:36.043756
3508  2023-10-17 09:54:36.075712
3509  2023-10-17 09:54:36.107627
3510  2023-10-17 09:54:36.139497
3511  2023-10-17 09:54:36.171446
3512  2023-10-17 09:54:36.203375
3513  2023-10-17 09:54:36.235248
3514  2023-10-17 09:54:36.268154
3515  2023-10-17 09:54:36.299072
3516  2023-10-17 09:54:36.330987
3517  2023-10-17 09:54:36.362902
3518  2023-10-17 09:54:36.411771
3519  2023-10-17 09:54:36.443686
3520  2023-10-17 09:54:36.475601
3521  2023-10-17 09:54:36.507515
3522  2023-10-17 09:54:36.539430
3523  2023-10-17 09:54:36.571377
3524  2023-10-17 09:54:36.603311
3525  2023-10-17 09:54:36.635204
3526  2023-10-17 09:54:36.667133
3527  2023-10-17 09:54:36.700032
3528  2023-10-17 09:54:36.731915
3529  2023-10-17 09:54:36.762877
3530  2023-10-17 09:54:36.811739
3531  2023-10-17 09:54:36.843616
3532  2023-10-17 09:54:36.875565
3533  2023-10-17 09:54:36.907448
3534  2023-10-17 09:54:36.939394
3535  2023-10-17 09:54:36.971309
3536  2023-10-17 09:54:37.003221
3537  2023-10-17 09:54:37.036102
3538  2023-10-17 09:54:37.068047
3539  2023-10-17 09:54:37.099965
3540  2023-10-17 09:54:37.131846
3541  2023-10-17 09:54:37.163762
3542  2023-10-17 09:54:37.211634
3543  2023-10-17 09:54:37.243549
3544  2023-10-17 09:54:37.275462
3545  2023-10-17 09:54:37.307378
3546  2023-10-17 09:54:37.339294
3547  2023-10-17 09:54:37.372205
3548  2023-10-17 09:54:37.403121
3549  2023-10-17 09:54:37.435036
3550  2023-10-17 09:54:37.467983
3551  2023-10-17 09:54:37.499863
3552  2023-10-17 09:54:37.531810
3553  2023-10-17 09:54:37.563691
3554  2023-10-17 09:54:37.611564
3555  2023-10-17 09:54:37.643480
3556  2023-10-17 09:54:37.675449
3557  2023-10-17 09:54:37.707342
3558  2023-10-17 09:54:37.739276
3559  2023-10-17 09:54:37.771184
3560  2023-10-17 09:54:37.803076
3561  2023-10-17 09:54:37.835997
