
1  2023-11-20 14:28:46.282819
2  2023-11-20 14:28:46.314258
3  2023-11-20 14:28:46.346245
4  2023-11-20 14:28:46.379157
5  2023-11-20 14:28:46.410073
6  2023-11-20 14:28:46.442018
7  2023-11-20 14:28:46.473902
8  2023-11-20 14:28:46.506820
9  2023-11-20 14:28:46.538730
10  2023-11-20 14:28:46.570644
11  2023-11-20 14:28:46.602558
12  2023-11-20 14:28:46.650431
13  2023-11-20 14:28:46.682611
14  2023-11-20 14:28:46.714526
15  2023-11-20 14:28:46.746442
16  2023-11-20 14:28:46.778353
17  2023-11-20 14:28:46.810311
18  2023-11-20 14:28:46.842214
19  2023-11-20 14:28:46.874151
20  2023-11-20 14:28:46.907011
21  2023-11-20 14:28:46.938014
22  2023-11-20 14:28:46.969929
23  2023-11-20 14:28:47.001843
24  2023-11-20 14:28:47.050760
25  2023-11-20 14:28:47.082627
26  2023-11-20 14:28:47.114542
27  2023-11-20 14:28:47.146488
28  2023-11-20 14:28:47.178373
29  2023-11-20 14:28:47.210286
30  2023-11-20 14:28:47.242238
31  2023-11-20 14:28:47.274115
32  2023-11-20 14:28:47.307027
33  2023-11-20 14:28:47.337945
34  2023-11-20 14:28:47.369861
35  2023-11-20 14:28:47.402772
36  2023-11-20 14:28:47.450645
37  2023-11-20 14:28:47.482558
38  2023-11-20 14:28:47.514587
39  2023-11-20 14:28:47.546535
40  2023-11-20 14:28:47.578448
41  2023-11-20 14:28:47.610330
42  2023-11-20 14:28:47.642282
43  2023-11-20 14:28:47.674196
44  2023-11-20 14:28:47.706107
45  2023-11-20 14:28:47.738040
46  2023-11-20 14:28:47.769904
47  2023-11-20 14:28:47.802819
48  2023-11-20 14:28:47.850688
49  2023-11-20 14:28:47.882635
50  2023-11-20 14:28:47.914528
51  2023-11-20 14:28:47.946432
52  2023-11-20 14:28:47.978347
53  2023-11-20 14:28:48.010365
54  2023-11-20 14:28:48.042292
55  2023-11-20 14:28:48.074230
56  2023-11-20 14:28:48.106109
57  2023-11-20 14:28:48.137953
58  2023-11-20 14:28:48.169867
59  2023-11-20 14:28:48.202779
60  2023-11-20 14:28:48.250685
61  2023-11-20 14:28:48.282569
62  2023-11-20 14:28:48.314481
63  2023-11-20 14:28:48.346395
64  2023-11-20 14:28:48.378310
65  2023-11-20 14:28:48.410226
66  2023-11-20 14:28:48.442139
67  2023-11-20 14:28:48.474054
68  2023-11-20 14:28:48.506966
69  2023-11-20 14:28:48.537886
70  2023-11-20 14:28:48.570797
71  2023-11-20 14:28:48.618670
72  2023-11-20 14:28:48.650616
73  2023-11-20 14:28:48.682501
74  2023-11-20 14:28:48.714412
75  2023-11-20 14:28:48.746354
76  2023-11-20 14:28:48.778272
77  2023-11-20 14:28:48.810155
78  2023-11-20 14:28:48.842070
79  2023-11-20 14:28:48.874035
80  2023-11-20 14:28:48.905935
81  2023-11-20 14:28:48.938812
82  2023-11-20 14:28:48.970726
83  2023-11-20 14:28:49.018598
84  2023-11-20 14:28:49.050640
85  2023-11-20 14:28:49.082556
86  2023-11-20 14:28:49.114503
87  2023-11-20 14:28:49.146386
88  2023-11-20 14:28:49.178300
89  2023-11-20 14:28:49.210267
90  2023-11-20 14:28:49.242213
91  2023-11-20 14:28:49.274118
92  2023-11-20 14:28:49.306033
93  2023-11-20 14:28:49.337948
94  2023-11-20 14:28:49.369862
95  2023-11-20 14:28:49.418734
96  2023-11-20 14:28:49.450646
97  2023-11-20 14:28:49.482561
98  2023-11-20 14:28:49.514476
99  2023-11-20 14:28:49.546393
100  2023-11-20 14:28:49.578308
101  2023-11-20 14:28:49.610219
102  2023-11-20 14:28:49.642143
103  2023-11-20 14:28:49.674049
104  2023-11-20 14:28:49.705963
105  2023-11-20 14:28:49.737878
106  2023-11-20 14:28:49.770790
107  2023-11-20 14:28:49.818663
108  2023-11-20 14:28:49.850666
109  2023-11-20 14:28:49.882544
110  2023-11-20 14:28:49.914459
111  2023-11-20 14:28:49.946067
112  2023-11-20 14:28:49.979011
113  2023-11-20 14:28:50.009898
114  2023-11-20 14:28:50.042810
115  2023-11-20 14:28:50.074811
116  2023-11-20 14:28:50.106720
117  2023-11-20 14:28:50.138634
118  2023-11-20 14:28:50.170549
119  2023-11-20 14:28:50.218462
120  2023-11-20 14:28:50.250519
121  2023-11-20 14:28:50.282437
122  2023-11-20 14:28:50.314351
123  2023-11-20 14:28:50.346266
124  2023-11-20 14:28:50.378240
125  2023-11-20 14:28:50.410282
126  2023-11-20 14:28:50.442131
127  2023-11-20 14:28:50.474046
128  2023-11-20 14:28:50.505961
129  2023-11-20 14:28:50.538000
130  2023-11-20 14:28:50.569972
131  2023-11-20 14:28:50.617963
132  2023-11-20 14:28:50.650841
133  2023-11-20 14:28:50.682757
134  2023-11-20 14:28:50.714672
135  2023-11-20 14:28:50.746616
136  2023-11-20 14:28:50.778499
137  2023-11-20 14:28:50.810447
138  2023-11-20 14:28:50.842447
139  2023-11-20 14:28:50.874362
140  2023-11-20 14:28:50.906374
141  2023-11-20 14:28:50.938289
142  2023-11-20 14:28:50.970209
143  2023-11-20 14:28:51.019082
144  2023-11-20 14:28:51.050995
145  2023-11-20 14:28:51.082906
146  2023-11-20 14:28:51.114819
147  2023-11-20 14:28:51.146732
148  2023-11-20 14:28:51.178678
149  2023-11-20 14:28:51.210561
150  2023-11-20 14:28:51.242477
151  2023-11-20 14:28:51.274391
152  2023-11-20 14:28:51.306306
153  2023-11-20 14:28:51.338226
154  2023-11-20 14:28:51.370136
155  2023-11-20 14:28:51.418049
156  2023-11-20 14:28:51.450966
157  2023-11-20 14:28:51.482835
158  2023-11-20 14:28:51.514775
159  2023-11-20 14:28:51.546702
160  2023-11-20 14:28:51.578579
161  2023-11-20 14:28:51.610492
162  2023-11-20 14:28:51.642407
163  2023-11-20 14:28:51.674321
164  2023-11-20 14:28:51.706236
165  2023-11-20 14:28:51.738151
166  2023-11-20 14:28:51.770065
167  2023-11-20 14:28:51.817937
168  2023-11-20 14:28:51.849852
169  2023-11-20 14:28:51.882764
170  2023-11-20 14:28:51.914679
171  2023-11-20 14:28:51.946627
172  2023-11-20 14:28:51.978509
173  2023-11-20 14:28:52.010423
174  2023-11-20 14:28:52.042399
175  2023-11-20 14:28:52.074392
176  2023-11-20 14:28:52.106453
177  2023-11-20 14:28:52.138368
178  2023-11-20 14:28:52.170283
179  2023-11-20 14:28:52.218155
180  2023-11-20 14:28:52.250104
181  2023-11-20 14:28:52.282982
182  2023-11-20 14:28:52.313900
183  2023-11-20 14:28:52.346813
184  2023-11-20 14:28:52.378725
185  2023-11-20 14:28:52.410640
186  2023-11-20 14:28:52.442554
187  2023-11-20 14:28:52.474469
188  2023-11-20 14:28:52.506384
189  2023-11-20 14:28:52.538385
190  2023-11-20 14:28:52.586230
191  2023-11-20 14:28:52.618145
192  2023-11-20 14:28:52.650091
193  2023-11-20 14:28:52.683050
194  2023-11-20 14:28:52.714918
195  2023-11-20 14:28:52.745961
196  2023-11-20 14:28:52.778838
197  2023-11-20 14:28:52.809839
198  2023-11-20 14:28:52.842751
199  2023-11-20 14:28:52.873793
200  2023-11-20 14:28:52.906705
201  2023-11-20 14:28:52.938620
202  2023-11-20 14:28:52.986528
203  2023-11-20 14:28:53.018441
204  2023-11-20 14:28:53.050353
205  2023-11-20 14:28:53.083234
206  2023-11-20 14:28:53.114151
207  2023-11-20 14:28:53.146102
208  2023-11-20 14:28:53.178979
209  2023-11-20 14:28:53.209895
210  2023-11-20 14:28:53.242810
211  2023-11-20 14:28:53.274722
212  2023-11-20 14:28:53.306636
213  2023-11-20 14:28:53.338551
214  2023-11-20 14:28:53.386428
215  2023-11-20 14:28:53.418349
216  2023-11-20 14:28:53.450284
217  2023-11-20 14:28:53.482167
218  2023-11-20 14:28:53.514109
219  2023-11-20 14:28:53.545996
220  2023-11-20 14:28:53.578909
221  2023-11-20 14:28:53.609826
222  2023-11-20 14:28:53.642738
223  2023-11-20 14:28:53.674652
224  2023-11-20 14:28:53.706609
225  2023-11-20 14:28:53.738406
226  2023-11-20 14:28:53.786279
227  2023-11-20 14:28:53.818194
228  2023-11-20 14:28:53.850109
229  2023-11-20 14:28:53.883021
230  2023-11-20 14:28:53.913971
231  2023-11-20 14:28:53.946850
232  2023-11-20 14:28:53.978764
233  2023-11-20 14:28:54.010678
234  2023-11-20 14:28:54.042605
235  2023-11-20 14:28:54.074508
236  2023-11-20 14:28:54.106422
237  2023-11-20 14:28:54.138337
238  2023-11-20 14:28:54.186227
239  2023-11-20 14:28:54.218125
240  2023-11-20 14:28:54.250070
241  2023-11-20 14:28:54.282027
242  2023-11-20 14:28:54.313902
243  2023-11-20 14:28:54.346813
244  2023-11-20 14:28:54.378726
245  2023-11-20 14:28:54.410675
246  2023-11-20 14:28:54.442595
247  2023-11-20 14:28:54.474511
248  2023-11-20 14:28:54.506386
249  2023-11-20 14:28:54.538300
250  2023-11-20 14:28:54.586220
251  2023-11-20 14:28:54.619133
252  2023-11-20 14:28:54.650050
253  2023-11-20 14:28:54.682963
254  2023-11-20 14:28:54.714877
255  2023-11-20 14:28:54.746798
256  2023-11-20 14:28:54.778733
257  2023-11-20 14:28:54.810620
258  2023-11-20 14:28:54.842543
259  2023-11-20 14:28:54.874481
260  2023-11-20 14:28:54.906395
261  2023-11-20 14:28:54.938279
262  2023-11-20 14:28:54.986187
263  2023-11-20 14:28:55.018108
264  2023-11-20 14:28:55.049981
265  2023-11-20 14:28:55.082967
266  2023-11-20 14:28:55.114938
267  2023-11-20 14:28:55.145842
268  2023-11-20 14:28:55.178786
269  2023-11-20 14:28:55.210668
270  2023-11-20 14:28:55.242583
271  2023-11-20 14:28:55.274498
272  2023-11-20 14:28:55.306412
273  2023-11-20 14:28:55.338327
274  2023-11-20 14:28:55.386236
275  2023-11-20 14:28:55.418134
276  2023-11-20 14:28:55.450039
277  2023-11-20 14:28:55.482974
278  2023-11-20 14:28:55.514864
279  2023-11-20 14:28:55.546770
280  2023-11-20 14:28:55.578718
281  2023-11-20 14:28:55.610668
282  2023-11-20 14:28:55.642626
283  2023-11-20 14:28:55.674542
284  2023-11-20 14:28:55.706456
285  2023-11-20 14:28:55.738371
286  2023-11-20 14:28:55.786243
287  2023-11-20 14:28:55.818159
288  2023-11-20 14:28:55.850074
289  2023-11-20 14:28:55.883014
290  2023-11-20 14:28:55.913902
291  2023-11-20 14:28:55.946815
292  2023-11-20 14:28:55.978729
293  2023-11-20 14:28:56.010774
294  2023-11-20 14:28:56.042558
295  2023-11-20 14:28:56.074472
296  2023-11-20 14:28:56.106387
297  2023-11-20 14:28:56.155297
298  2023-11-20 14:28:56.186292
299  2023-11-20 14:28:56.218170
300  2023-11-20 14:28:56.251117
301  2023-11-20 14:28:56.282032
302  2023-11-20 14:28:56.314912
303  2023-11-20 14:28:56.346827
304  2023-11-20 14:28:56.378775
305  2023-11-20 14:28:56.410655
306  2023-11-20 14:28:56.442570
307  2023-11-20 14:28:56.474484
308  2023-11-20 14:28:56.506399
309  2023-11-20 14:28:56.554271
310  2023-11-20 14:28:56.586220
311  2023-11-20 14:28:56.618203
312  2023-11-20 14:28:56.650088
313  2023-11-20 14:28:56.682045
314  2023-11-20 14:28:56.714039
315  2023-11-20 14:28:56.745957
316  2023-11-20 14:28:56.778867
317  2023-11-20 14:28:56.809831
318  2023-11-20 14:28:56.842743
319  2023-11-20 14:28:56.874725
320  2023-11-20 14:28:56.906725
321  2023-11-20 14:28:56.954552
322  2023-11-20 14:28:56.986498
323  2023-11-20 14:28:57.018412
324  2023-11-20 14:28:57.050334
325  2023-11-20 14:28:57.082251
326  2023-11-20 14:28:57.114131
327  2023-11-20 14:28:57.146042
328  2023-11-20 14:28:57.177953
329  2023-11-20 14:28:57.209867
330  2023-11-20 14:28:57.242779
331  2023-11-20 14:28:57.274694
332  2023-11-20 14:28:57.306609
333  2023-11-20 14:28:57.354515
334  2023-11-20 14:28:57.386430
335  2023-11-20 14:28:57.418312
336  2023-11-20 14:28:57.450236
337  2023-11-20 14:28:57.483138
338  2023-11-20 14:28:57.514112
339  2023-11-20 14:28:57.546009
340  2023-11-20 14:28:57.578921
341  2023-11-20 14:28:57.609798
342  2023-11-20 14:28:57.642710
343  2023-11-20 14:28:57.674625
344  2023-11-20 14:28:57.706540
345  2023-11-20 14:28:57.754444
346  2023-11-20 14:28:57.786328
347  2023-11-20 14:28:57.818242
348  2023-11-20 14:28:57.850164
349  2023-11-20 14:28:57.882070
350  2023-11-20 14:28:57.913986
351  2023-11-20 14:28:57.946947
352  2023-11-20 14:28:57.978862
353  2023-11-20 14:28:58.010764
354  2023-11-20 14:28:58.042641
355  2023-11-20 14:28:58.074556
356  2023-11-20 14:28:58.106470
357  2023-11-20 14:28:58.154342
358  2023-11-20 14:28:58.186278
359  2023-11-20 14:28:58.218172
360  2023-11-20 14:28:58.251125
361  2023-11-20 14:28:58.283033
362  2023-11-20 14:28:58.313916
363  2023-11-20 14:28:58.346863
364  2023-11-20 14:28:58.378911
365  2023-11-20 14:28:58.410807
366  2023-11-20 14:28:58.442688
367  2023-11-20 14:28:58.474602
368  2023-11-20 14:28:58.506517
369  2023-11-20 14:28:58.554390
370  2023-11-20 14:28:58.586306
371  2023-11-20 14:28:58.618243
372  2023-11-20 14:28:58.650210
373  2023-11-20 14:28:58.682119
374  2023-11-20 14:28:58.714073
375  2023-11-20 14:28:58.746947
376  2023-11-20 14:28:58.777865
377  2023-11-20 14:28:58.810775
378  2023-11-20 14:28:58.842690
379  2023-11-20 14:28:58.874605
380  2023-11-20 14:28:58.906519
381  2023-11-20 14:28:58.954394
382  2023-11-20 14:28:58.986307
383  2023-11-20 14:28:59.018222
384  2023-11-20 14:28:59.050136
385  2023-11-20 14:28:59.083048
386  2023-11-20 14:28:59.114962
387  2023-11-20 14:28:59.146877
388  2023-11-20 14:28:59.178792
389  2023-11-20 14:28:59.210756
390  2023-11-20 14:28:59.242704
391  2023-11-20 14:28:59.274619
392  2023-11-20 14:28:59.306592
393  2023-11-20 14:28:59.354465
394  2023-11-20 14:28:59.386382
395  2023-11-20 14:28:59.418299
396  2023-11-20 14:28:59.450210
397  2023-11-20 14:28:59.483171
398  2023-11-20 14:28:59.514038
399  2023-11-20 14:28:59.546983
400  2023-11-20 14:28:59.577869
401  2023-11-20 14:28:59.610791
402  2023-11-20 14:28:59.642697
403  2023-11-20 14:28:59.674609
404  2023-11-20 14:28:59.706565
405  2023-11-20 14:28:59.754396
406  2023-11-20 14:28:59.786349
407  2023-11-20 14:28:59.818289
408  2023-11-20 14:28:59.850205
409  2023-11-20 14:28:59.883143
410  2023-11-20 14:28:59.914086
411  2023-11-20 14:28:59.946024
412  2023-11-20 14:28:59.977911
413  2023-11-20 14:29:00.010823
414  2023-11-20 14:29:00.041777
415  2023-11-20 14:29:00.074708
416  2023-11-20 14:29:00.122653
417  2023-11-20 14:29:00.154606
418  2023-11-20 14:29:00.186449
419  2023-11-20 14:29:00.218369
420  2023-11-20 14:29:00.250279
421  2023-11-20 14:29:00.282229
422  2023-11-20 14:29:00.314107
423  2023-11-20 14:29:00.347038
424  2023-11-20 14:29:00.378956
425  2023-11-20 14:29:00.409851
426  2023-11-20 14:29:00.442763
427  2023-11-20 14:29:00.474681
428  2023-11-20 14:29:00.522584
429  2023-11-20 14:29:00.554465
430  2023-11-20 14:29:00.586379
431  2023-11-20 14:29:00.618296
432  2023-11-20 14:29:00.650219
433  2023-11-20 14:29:00.682159
434  2023-11-20 14:29:00.714038
435  2023-11-20 14:29:00.746950
436  2023-11-20 14:29:00.778977
437  2023-11-20 14:29:00.809858
438  2023-11-20 14:29:00.841773
439  2023-11-20 14:29:00.874700
440  2023-11-20 14:29:00.922557
441  2023-11-20 14:29:00.954472
442  2023-11-20 14:29:00.986457
443  2023-11-20 14:29:01.018462
444  2023-11-20 14:29:01.050489
445  2023-11-20 14:29:01.082544
446  2023-11-20 14:29:01.114458
447  2023-11-20 14:29:01.146475
448  2023-11-20 14:29:01.178356
449  2023-11-20 14:29:01.210269
450  2023-11-20 14:29:01.242428
451  2023-11-20 14:29:01.274342
452  2023-11-20 14:29:01.322310
453  2023-11-20 14:29:01.354349
454  2023-11-20 14:29:01.386263
455  2023-11-20 14:29:01.418178
456  2023-11-20 14:29:01.450092
457  2023-11-20 14:29:01.483006
458  2023-11-20 14:29:01.513922
459  2023-11-20 14:29:01.546892
460  2023-11-20 14:29:01.578870
461  2023-11-20 14:29:01.610757
462  2023-11-20 14:29:01.642671
463  2023-11-20 14:29:01.674586
464  2023-11-20 14:29:01.722491
465  2023-11-20 14:29:01.754379
466  2023-11-20 14:29:01.786288
467  2023-11-20 14:29:01.818202
468  2023-11-20 14:29:01.850117
469  2023-11-20 14:29:01.882032
470  2023-11-20 14:29:01.914981
471  2023-11-20 14:29:01.946859
472  2023-11-20 14:29:01.978808
473  2023-11-20 14:29:02.010687
474  2023-11-20 14:29:02.042602
475  2023-11-20 14:29:02.074517
476  2023-11-20 14:29:02.122391
477  2023-11-20 14:29:02.154310
478  2023-11-20 14:29:02.186220
479  2023-11-20 14:29:02.218133
480  2023-11-20 14:29:02.250059
481  2023-11-20 14:29:02.281998
482  2023-11-20 14:29:02.314910
483  2023-11-20 14:29:02.346832
484  2023-11-20 14:29:02.378798
485  2023-11-20 14:29:02.410746
486  2023-11-20 14:29:02.442675
487  2023-11-20 14:29:02.474589
488  2023-11-20 14:29:02.522462
489  2023-11-20 14:29:02.554377
490  2023-11-20 14:29:02.586324
491  2023-11-20 14:29:02.618337
492  2023-11-20 14:29:02.650366
493  2023-11-20 14:29:02.682328
494  2023-11-20 14:29:02.714245
495  2023-11-20 14:29:02.746185
496  2023-11-20 14:29:02.778073
497  2023-11-20 14:29:02.809987
498  2023-11-20 14:29:02.841902
499  2023-11-20 14:29:02.874814
500  2023-11-20 14:29:02.922687
501  2023-11-20 14:29:02.954601
502  2023-11-20 14:29:02.986547
503  2023-11-20 14:29:03.018462
504  2023-11-20 14:29:03.050346
505  2023-11-20 14:29:03.083259
506  2023-11-20 14:29:03.114241
507  2023-11-20 14:29:03.146090
508  2023-11-20 14:29:03.178003
509  2023-11-20 14:29:03.209918
510  2023-11-20 14:29:03.242830
511  2023-11-20 14:29:03.274745
512  2023-11-20 14:29:03.322618
513  2023-11-20 14:29:03.354532
514  2023-11-20 14:29:03.386446
515  2023-11-20 14:29:03.418361
516  2023-11-20 14:29:03.451275
517  2023-11-20 14:29:03.482190
518  2023-11-20 14:29:03.515155
519  2023-11-20 14:29:03.547046
520  2023-11-20 14:29:03.578960
521  2023-11-20 14:29:03.609880
522  2023-11-20 14:29:03.641798
523  2023-11-20 14:29:03.690818
524  2023-11-20 14:29:03.722782
525  2023-11-20 14:29:03.754776
526  2023-11-20 14:29:03.786746
527  2023-11-20 14:29:03.818737
528  2023-11-20 14:29:03.850739
529  2023-11-20 14:29:03.882741
530  2023-11-20 14:29:03.914624
531  2023-11-20 14:29:03.946566
532  2023-11-20 14:29:03.978527
533  2023-11-20 14:29:04.010440
534  2023-11-20 14:29:04.042355
535  2023-11-20 14:29:04.090229
536  2023-11-20 14:29:04.123174
537  2023-11-20 14:29:04.154056
538  2023-11-20 14:29:04.186969
539  2023-11-20 14:29:04.218885
540  2023-11-20 14:29:04.250800
541  2023-11-20 14:29:04.282821
542  2023-11-20 14:29:04.314735
543  2023-11-20 14:29:04.346650
544  2023-11-20 14:29:04.378565
545  2023-11-20 14:29:04.410588
546  2023-11-20 14:29:04.442503
547  2023-11-20 14:29:04.490375
548  2023-11-20 14:29:04.522290
549  2023-11-20 14:29:04.554204
550  2023-11-20 14:29:04.586154
551  2023-11-20 14:29:04.618035
552  2023-11-20 14:29:04.650948
553  2023-11-20 14:29:04.683002
554  2023-11-20 14:29:04.714820
555  2023-11-20 14:29:04.747737
556  2023-11-20 14:29:04.779611
557  2023-11-20 14:29:04.810519
558  2023-11-20 14:29:04.842435
559  2023-11-20 14:29:04.890307
560  2023-11-20 14:29:04.923237
561  2023-11-20 14:29:04.954237
562  2023-11-20 14:29:04.987194
563  2023-11-20 14:29:05.019059
564  2023-11-20 14:29:05.051008
565  2023-11-20 14:29:05.082954
566  2023-11-20 14:29:05.114910
567  2023-11-20 14:29:05.146933
568  2023-11-20 14:29:05.178829
569  2023-11-20 14:29:05.210696
570  2023-11-20 14:29:05.242657
571  2023-11-20 14:29:05.290561
572  2023-11-20 14:29:05.322491
573  2023-11-20 14:29:05.355431
574  2023-11-20 14:29:05.387392
575  2023-11-20 14:29:05.419307
576  2023-11-20 14:29:05.450218
577  2023-11-20 14:29:05.483097
578  2023-11-20 14:29:05.515047
579  2023-11-20 14:29:05.546926
580  2023-11-20 14:29:05.578841
581  2023-11-20 14:29:05.610141
582  2023-11-20 14:29:05.642058
583  2023-11-20 14:29:05.690961
584  2023-11-20 14:29:05.722877
585  2023-11-20 14:29:05.754791
586  2023-11-20 14:29:05.786711
587  2023-11-20 14:29:05.818622
588  2023-11-20 14:29:05.850556
589  2023-11-20 14:29:05.882450
590  2023-11-20 14:29:05.914365
591  2023-11-20 14:29:05.946280
592  2023-11-20 14:29:05.979311
593  2023-11-20 14:29:06.010281
594  2023-11-20 14:29:06.042297
595  2023-11-20 14:29:06.091210
596  2023-11-20 14:29:06.123091
597  2023-11-20 14:29:06.155000
598  2023-11-20 14:29:06.186912
599  2023-11-20 14:29:06.218826
600  2023-11-20 14:29:06.250741
601  2023-11-20 14:29:06.282656
602  2023-11-20 14:29:06.314571
603  2023-11-20 14:29:06.346581
604  2023-11-20 14:29:06.378507
605  2023-11-20 14:29:06.410501
606  2023-11-20 14:29:06.442383
607  2023-11-20 14:29:06.490308
608  2023-11-20 14:29:06.522305
609  2023-11-20 14:29:06.555210
610  2023-11-20 14:29:06.587140
611  2023-11-20 14:29:06.619185
612  2023-11-20 14:29:06.651088
613  2023-11-20 14:29:06.682980
614  2023-11-20 14:29:06.714894
615  2023-11-20 14:29:06.746841
616  2023-11-20 14:29:06.778724
617  2023-11-20 14:29:06.810668
618  2023-11-20 14:29:06.842553
619  2023-11-20 14:29:06.890468
620  2023-11-20 14:29:06.922349
621  2023-11-20 14:29:06.954254
622  2023-11-20 14:29:06.987201
623  2023-11-20 14:29:07.018096
624  2023-11-20 14:29:07.051028
625  2023-11-20 14:29:07.083006
626  2023-11-20 14:29:07.114921
627  2023-11-20 14:29:07.146864
628  2023-11-20 14:29:07.178755
629  2023-11-20 14:29:07.210676
630  2023-11-20 14:29:07.242612
631  2023-11-20 14:29:07.290477
632  2023-11-20 14:29:07.322367
633  2023-11-20 14:29:07.354281
634  2023-11-20 14:29:07.387225
635  2023-11-20 14:29:07.419107
636  2023-11-20 14:29:07.451029
637  2023-11-20 14:29:07.481948
638  2023-11-20 14:29:07.514950
639  2023-11-20 14:29:07.546860
640  2023-11-20 14:29:07.578806
641  2023-11-20 14:29:07.610744
642  2023-11-20 14:29:07.658596
643  2023-11-20 14:29:07.690476
644  2023-11-20 14:29:07.722392
645  2023-11-20 14:29:07.755331
646  2023-11-20 14:29:07.787262
647  2023-11-20 14:29:07.818166
648  2023-11-20 14:29:07.851077
649  2023-11-20 14:29:07.882962
650  2023-11-20 14:29:07.914855
651  2023-11-20 14:29:07.946810
652  2023-11-20 14:29:07.978728
653  2023-11-20 14:29:08.010638
654  2023-11-20 14:29:08.058512
655  2023-11-20 14:29:08.090461
656  2023-11-20 14:29:08.122341
657  2023-11-20 14:29:08.154311
658  2023-11-20 14:29:08.187199
659  2023-11-20 14:29:08.219083
660  2023-11-20 14:29:08.250998
661  2023-11-20 14:29:08.282913
662  2023-11-20 14:29:08.314827
663  2023-11-20 14:29:08.346740
664  2023-11-20 14:29:08.378693
665  2023-11-20 14:29:08.410569
666  2023-11-20 14:29:08.458476
667  2023-11-20 14:29:08.490356
668  2023-11-20 14:29:08.522284
669  2023-11-20 14:29:08.555220
670  2023-11-20 14:29:08.587142
671  2023-11-20 14:29:08.619013
672  2023-11-20 14:29:08.650929
673  2023-11-20 14:29:08.682843
674  2023-11-20 14:29:08.714759
675  2023-11-20 14:29:08.746673
676  2023-11-20 14:29:08.778634
677  2023-11-20 14:29:08.810656
678  2023-11-20 14:29:08.858564
679  2023-11-20 14:29:08.890459
680  2023-11-20 14:29:08.922395
681  2023-11-20 14:29:08.954275
682  2023-11-20 14:29:08.987186
683  2023-11-20 14:29:09.019102
684  2023-11-20 14:29:09.051050
685  2023-11-20 14:29:09.081971
686  2023-11-20 14:29:09.114889
687  2023-11-20 14:29:09.146808
688  2023-11-20 14:29:09.178692
689  2023-11-20 14:29:09.210743
690  2023-11-20 14:29:09.258576
691  2023-11-20 14:29:09.290491
692  2023-11-20 14:29:09.322443
693  2023-11-20 14:29:09.354426
694  2023-11-20 14:29:09.386339
695  2023-11-20 14:29:09.418312
696  2023-11-20 14:29:09.450227
697  2023-11-20 14:29:09.482221
698  2023-11-20 14:29:09.515175
699  2023-11-20 14:29:09.546167
700  2023-11-20 14:29:09.579098
701  2023-11-20 14:29:09.610103
702  2023-11-20 14:29:09.659007
703  2023-11-20 14:29:09.690925
704  2023-11-20 14:29:09.722839
705  2023-11-20 14:29:09.754755
706  2023-11-20 14:29:09.786744
707  2023-11-20 14:29:09.818656
708  2023-11-20 14:29:09.850610
709  2023-11-20 14:29:09.882651
710  2023-11-20 14:29:09.914526
711  2023-11-20 14:29:09.946562
712  2023-11-20 14:29:09.978474
713  2023-11-20 14:29:10.010358
714  2023-11-20 14:29:10.058238
715  2023-11-20 14:29:10.090187
716  2023-11-20 14:29:10.122096
717  2023-11-20 14:29:10.155006
718  2023-11-20 14:29:10.186889
719  2023-11-20 14:29:10.218802
720  2023-11-20 14:29:10.250751
721  2023-11-20 14:29:10.282677
722  2023-11-20 14:29:10.314546
723  2023-11-20 14:29:10.346516
724  2023-11-20 14:29:10.378410
725  2023-11-20 14:29:10.410290
726  2023-11-20 14:29:10.459159
727  2023-11-20 14:29:10.490128
728  2023-11-20 14:29:10.523098
729  2023-11-20 14:29:10.555034
730  2023-11-20 14:29:10.586903
731  2023-11-20 14:29:10.618774
732  2023-11-20 14:29:10.650800
733  2023-11-20 14:29:10.682732
734  2023-11-20 14:29:10.714573
735  2023-11-20 14:29:10.746558
736  2023-11-20 14:29:10.778469
737  2023-11-20 14:29:10.810529
738  2023-11-20 14:29:10.858395
739  2023-11-20 14:29:10.890330
740  2023-11-20 14:29:10.922294
741  2023-11-20 14:29:10.954371
742  2023-11-20 14:29:10.986364
743  2023-11-20 14:29:11.018285
744  2023-11-20 14:29:11.050310
745  2023-11-20 14:29:11.083187
746  2023-11-20 14:29:11.114145
747  2023-11-20 14:29:11.147136
748  2023-11-20 14:29:11.178048
749  2023-11-20 14:29:11.225922
750  2023-11-20 14:29:11.258434
751  2023-11-20 14:29:11.290352
752  2023-11-20 14:29:11.322265
753  2023-11-20 14:29:11.354209
754  2023-11-20 14:29:11.386096
755  2023-11-20 14:29:11.418010
756  2023-11-20 14:29:11.450625
757  2023-11-20 14:29:11.482622
758  2023-11-20 14:29:11.514544
759  2023-11-20 14:29:11.546486
760  2023-11-20 14:29:11.578401
761  2023-11-20 14:29:11.627193
762  2023-11-20 14:29:11.658107
763  2023-11-20 14:29:11.689986
764  2023-11-20 14:29:11.722900
765  2023-11-20 14:29:11.754965
766  2023-11-20 14:29:11.786846
767  2023-11-20 14:29:11.818760
768  2023-11-20 14:29:11.850723
769  2023-11-20 14:29:11.882589
770  2023-11-20 14:29:11.914576
771  2023-11-20 14:29:11.946536
772  2023-11-20 14:29:11.978506
773  2023-11-20 14:29:12.026524
774  2023-11-20 14:29:12.058509
775  2023-11-20 14:29:12.090367
776  2023-11-20 14:29:12.122274
777  2023-11-20 14:29:12.154234
778  2023-11-20 14:29:12.186129
779  2023-11-20 14:29:12.219010
780  2023-11-20 14:29:12.250924
781  2023-11-20 14:29:12.282872
782  2023-11-20 14:29:12.314789
783  2023-11-20 14:29:12.346668
784  2023-11-20 14:29:12.378584
785  2023-11-20 14:29:12.426455
786  2023-11-20 14:29:12.458370
787  2023-11-20 14:29:12.490284
788  2023-11-20 14:29:12.522238
789  2023-11-20 14:29:12.554115
790  2023-11-20 14:29:12.586069
791  2023-11-20 14:29:12.617982
792  2023-11-20 14:29:12.649889
793  2023-11-20 14:29:12.682802
794  2023-11-20 14:29:12.714684
795  2023-11-20 14:29:12.746631
796  2023-11-20 14:29:12.778528
797  2023-11-20 14:29:12.826442
798  2023-11-20 14:29:12.858340
799  2023-11-20 14:29:12.890252
800  2023-11-20 14:29:12.922206
801  2023-11-20 14:29:12.954083
802  2023-11-20 14:29:12.986988
803  2023-11-20 14:29:13.018873
804  2023-11-20 14:29:13.050800
805  2023-11-20 14:29:13.082859
806  2023-11-20 14:29:13.114761
807  2023-11-20 14:29:13.146703
808  2023-11-20 14:29:13.178622
809  2023-11-20 14:29:13.226459
810  2023-11-20 14:29:13.258406
811  2023-11-20 14:29:13.290288
812  2023-11-20 14:29:13.322247
813  2023-11-20 14:29:13.354156
814  2023-11-20 14:29:13.386082
815  2023-11-20 14:29:13.418133
816  2023-11-20 14:29:13.450054
817  2023-11-20 14:29:13.481961
818  2023-11-20 14:29:13.514874
819  2023-11-20 14:29:13.546802
820  2023-11-20 14:29:13.578670
821  2023-11-20 14:29:13.626543
822  2023-11-20 14:29:13.658115
823  2023-11-20 14:29:13.690153
824  2023-11-20 14:29:13.722067
825  2023-11-20 14:29:13.754942
826  2023-11-20 14:29:13.786856
827  2023-11-20 14:29:13.818779
828  2023-11-20 14:29:13.850716
829  2023-11-20 14:29:13.882599
830  2023-11-20 14:29:13.914547
831  2023-11-20 14:29:13.946430
832  2023-11-20 14:29:13.978344
833  2023-11-20 14:29:14.026217
834  2023-11-20 14:29:14.058177
835  2023-11-20 14:29:14.090046
836  2023-11-20 14:29:14.121992
837  2023-11-20 14:29:14.154873
838  2023-11-20 14:29:14.186823
839  2023-11-20 14:29:14.218902
840  2023-11-20 14:29:14.250845
841  2023-11-20 14:29:14.282726
842  2023-11-20 14:29:14.314674
843  2023-11-20 14:29:14.346524
844  2023-11-20 14:29:14.378440
845  2023-11-20 14:29:14.426311
846  2023-11-20 14:29:14.458276
847  2023-11-20 14:29:14.490146
848  2023-11-20 14:29:14.522103
849  2023-11-20 14:29:14.553971
850  2023-11-20 14:29:14.586957
851  2023-11-20 14:29:14.617965
852  2023-11-20 14:29:14.650879
853  2023-11-20 14:29:14.682750
854  2023-11-20 14:29:14.714705
855  2023-11-20 14:29:14.746757
856  2023-11-20 14:29:14.778707
857  2023-11-20 14:29:14.826543
858  2023-11-20 14:29:14.858458
859  2023-11-20 14:29:14.890374
860  2023-11-20 14:29:14.922298
861  2023-11-20 14:29:14.954203
862  2023-11-20 14:29:14.987116
863  2023-11-20 14:29:15.019063
864  2023-11-20 14:29:15.050976
865  2023-11-20 14:29:15.082859
866  2023-11-20 14:29:15.114805
867  2023-11-20 14:29:15.146689
868  2023-11-20 14:29:15.194599
869  2023-11-20 14:29:15.226474
870  2023-11-20 14:29:15.258391
871  2023-11-20 14:29:15.290335
872  2023-11-20 14:29:15.322252
873  2023-11-20 14:29:15.354167
874  2023-11-20 14:29:15.386082
875  2023-11-20 14:29:15.418961
876  2023-11-20 14:29:15.449916
877  2023-11-20 14:29:15.482843
878  2023-11-20 14:29:15.514746
879  2023-11-20 14:29:15.546663
880  2023-11-20 14:29:15.594568
881  2023-11-20 14:29:15.626481
882  2023-11-20 14:29:15.658398
883  2023-11-20 14:29:15.690279
884  2023-11-20 14:29:15.722230
885  2023-11-20 14:29:15.754157
886  2023-11-20 14:29:15.786055
887  2023-11-20 14:29:15.817965
888  2023-11-20 14:29:15.850851
889  2023-11-20 14:29:15.882764
890  2023-11-20 14:29:15.914733
891  2023-11-20 14:29:15.946624
892  2023-11-20 14:29:15.994498
893  2023-11-20 14:29:16.026380
894  2023-11-20 14:29:16.058295
895  2023-11-20 14:29:16.090211
896  2023-11-20 14:29:16.122168
897  2023-11-20 14:29:16.154038
898  2023-11-20 14:29:16.185980
899  2023-11-20 14:29:16.217926
900  2023-11-20 14:29:16.250780
901  2023-11-20 14:29:16.282736
902  2023-11-20 14:29:16.314657
903  2023-11-20 14:29:16.346524
904  2023-11-20 14:29:16.394397
905  2023-11-20 14:29:16.426344
906  2023-11-20 14:29:16.458262
907  2023-11-20 14:29:16.490174
908  2023-11-20 14:29:16.523098
909  2023-11-20 14:29:16.554001
910  2023-11-20 14:29:16.586882
911  2023-11-20 14:29:16.618797
912  2023-11-20 14:29:16.650711
913  2023-11-20 14:29:16.682627
914  2023-11-20 14:29:16.714574
915  2023-11-20 14:29:16.746459
916  2023-11-20 14:29:16.794361
917  2023-11-20 14:29:16.826243
918  2023-11-20 14:29:16.858208
919  2023-11-20 14:29:16.890101
920  2023-11-20 14:29:16.922042
921  2023-11-20 14:29:16.953901
922  2023-11-20 14:29:16.986814
923  2023-11-20 14:29:17.018758
924  2023-11-20 14:29:17.050642
925  2023-11-20 14:29:17.082558
926  2023-11-20 14:29:17.114472
927  2023-11-20 14:29:17.146419
928  2023-11-20 14:29:17.194288
929  2023-11-20 14:29:17.226173
930  2023-11-20 14:29:17.258137
931  2023-11-20 14:29:17.291000
932  2023-11-20 14:29:17.322920
933  2023-11-20 14:29:17.354851
934  2023-11-20 14:29:17.386797
935  2023-11-20 14:29:17.418692
936  2023-11-20 14:29:17.450573
937  2023-11-20 14:29:17.482488
938  2023-11-20 14:29:17.514434
939  2023-11-20 14:29:17.546317
940  2023-11-20 14:29:17.594223
941  2023-11-20 14:29:17.626136
942  2023-11-20 14:29:17.658044
943  2023-11-20 14:29:17.689990
944  2023-11-20 14:29:17.721884
945  2023-11-20 14:29:17.754760
946  2023-11-20 14:29:17.786675
947  2023-11-20 14:29:17.818589
948  2023-11-20 14:29:17.850503
949  2023-11-20 14:29:17.882424
950  2023-11-20 14:29:17.914333
951  2023-11-20 14:29:17.946307
952  2023-11-20 14:29:17.994174
953  2023-11-20 14:29:18.026068
954  2023-11-20 14:29:18.057954
955  2023-11-20 14:29:18.090862
956  2023-11-20 14:29:18.122777
957  2023-11-20 14:29:18.154728
958  2023-11-20 14:29:18.186635
959  2023-11-20 14:29:18.218520
960  2023-11-20 14:29:18.250434
961  2023-11-20 14:29:18.282382
962  2023-11-20 14:29:18.314299
963  2023-11-20 14:29:18.346180
964  2023-11-20 14:29:18.394083
965  2023-11-20 14:29:18.425994
966  2023-11-20 14:29:18.457928
967  2023-11-20 14:29:18.490805
968  2023-11-20 14:29:18.522706
969  2023-11-20 14:29:18.554621
970  2023-11-20 14:29:18.586536
971  2023-11-20 14:29:18.618451
972  2023-11-20 14:29:18.650405
973  2023-11-20 14:29:18.682312
974  2023-11-20 14:29:18.714243
975  2023-11-20 14:29:18.762099
976  2023-11-20 14:29:18.794015
977  2023-11-20 14:29:18.826895
978  2023-11-20 14:29:18.858840
979  2023-11-20 14:29:18.890755
980  2023-11-20 14:29:18.922673
981  2023-11-20 14:29:18.954584
982  2023-11-20 14:29:18.986468
983  2023-11-20 14:29:19.018382
984  2023-11-20 14:29:19.050297
985  2023-11-20 14:29:19.083240
986  2023-11-20 14:29:19.115124
987  2023-11-20 14:29:19.163068
988  2023-11-20 14:29:19.194943
989  2023-11-20 14:29:19.226825
990  2023-11-20 14:29:19.258776
991  2023-11-20 14:29:19.290654
992  2023-11-20 14:29:19.322569
993  2023-11-20 14:29:19.354514
994  2023-11-20 14:29:19.386397
995  2023-11-20 14:29:19.418312
996  2023-11-20 14:29:19.451258
997  2023-11-20 14:29:19.482142
998  2023-11-20 14:29:19.514090
999  2023-11-20 14:29:19.561969
1000  2023-11-20 14:29:19.593878
1001  2023-11-20 14:29:19.626802
1002  2023-11-20 14:29:19.658707
1003  2023-11-20 14:29:19.690619
1004  2023-11-20 14:29:19.722499
1005  2023-11-20 14:29:19.754413
1006  2023-11-20 14:29:19.786329
1007  2023-11-20 14:29:19.818277
1008  2023-11-20 14:29:19.850225
1009  2023-11-20 14:29:19.883102
1010  2023-11-20 14:29:19.914017
1011  2023-11-20 14:29:19.962899
1012  2023-11-20 14:29:19.993809
1013  2023-11-20 14:29:20.026687
1014  2023-11-20 14:29:20.058600
1015  2023-11-20 14:29:20.090515
1016  2023-11-20 14:29:20.122465
1017  2023-11-20 14:29:20.154392
1018  2023-11-20 14:29:20.186316
1019  2023-11-20 14:29:20.218174
1020  2023-11-20 14:29:20.250125
1021  2023-11-20 14:29:20.283031
1022  2023-11-20 14:29:20.313956
1023  2023-11-20 14:29:20.362822
1024  2023-11-20 14:29:20.394743
1025  2023-11-20 14:29:20.426618
1026  2023-11-20 14:29:20.458532
1027  2023-11-20 14:29:20.490445
1028  2023-11-20 14:29:20.522360
1029  2023-11-20 14:29:20.554275
1030  2023-11-20 14:29:20.586219
1031  2023-11-20 14:29:20.618134
1032  2023-11-20 14:29:20.650050
1033  2023-11-20 14:29:20.682964
1034  2023-11-20 14:29:20.714877
1035  2023-11-20 14:29:20.762729
1036  2023-11-20 14:29:20.794667
1037  2023-11-20 14:29:20.826548
1038  2023-11-20 14:29:20.858462
1039  2023-11-20 14:29:20.890423
1040  2023-11-20 14:29:20.922344
1041  2023-11-20 14:29:20.954242
1042  2023-11-20 14:29:20.986154
1043  2023-11-20 14:29:21.018036
1044  2023-11-20 14:29:21.050981
1045  2023-11-20 14:29:21.082863
1046  2023-11-20 14:29:21.114778
1047  2023-11-20 14:29:21.162650
1048  2023-11-20 14:29:21.194564
1049  2023-11-20 14:29:21.226479
1050  2023-11-20 14:29:21.258394
1051  2023-11-20 14:29:21.290307
1052  2023-11-20 14:29:21.322222
1053  2023-11-20 14:29:21.354176
1054  2023-11-20 14:29:21.386052
1055  2023-11-20 14:29:21.419001
1056  2023-11-20 14:29:21.450885
1057  2023-11-20 14:29:21.482830
1058  2023-11-20 14:29:21.514747
1059  2023-11-20 14:29:21.562580
1060  2023-11-20 14:29:21.594581
1061  2023-11-20 14:29:21.626529
1062  2023-11-20 14:29:21.658421
1063  2023-11-20 14:29:21.690326
1064  2023-11-20 14:29:21.722240
1065  2023-11-20 14:29:21.754154
1066  2023-11-20 14:29:21.787069
1067  2023-11-20 14:29:21.819018
1068  2023-11-20 14:29:21.850898
1069  2023-11-20 14:29:21.882811
1070  2023-11-20 14:29:21.914758
1071  2023-11-20 14:29:21.962597
1072  2023-11-20 14:29:21.994544
1073  2023-11-20 14:29:22.026426
1074  2023-11-20 14:29:22.058342
1075  2023-11-20 14:29:22.090400
1076  2023-11-20 14:29:22.122315
1077  2023-11-20 14:29:22.154230
1078  2023-11-20 14:29:22.187175
1079  2023-11-20 14:29:22.218059
1080  2023-11-20 14:29:22.250006
1081  2023-11-20 14:29:22.282887
1082  2023-11-20 14:29:22.382624
1083  2023-11-20 14:29:22.394624
1084  2023-11-20 14:29:22.426502
1085  2023-11-20 14:29:22.458464
1086  2023-11-20 14:29:22.490379
1087  2023-11-20 14:29:22.522294
1088  2023-11-20 14:29:22.554246
1089  2023-11-20 14:29:22.586194
1090  2023-11-20 14:29:22.618074
1091  2023-11-20 14:29:22.649989
1092  2023-11-20 14:29:22.682935
1093  2023-11-20 14:29:22.730773
1094  2023-11-20 14:29:22.762687
1095  2023-11-20 14:29:22.794602
1096  2023-11-20 14:29:22.826550
1097  2023-11-20 14:29:22.858432
1098  2023-11-20 14:29:22.890349
1099  2023-11-20 14:29:22.922262
1100  2023-11-20 14:29:22.954241
1101  2023-11-20 14:29:22.987088
1102  2023-11-20 14:29:23.018012
1103  2023-11-20 14:29:23.049919
1104  2023-11-20 14:29:23.097824
1105  2023-11-20 14:29:23.130703
1106  2023-11-20 14:29:23.162618
1107  2023-11-20 14:29:23.194533
1108  2023-11-20 14:29:23.226448
1109  2023-11-20 14:29:23.258363
1110  2023-11-20 14:29:23.290278
1111  2023-11-20 14:29:23.323222
1112  2023-11-20 14:29:23.354141
1113  2023-11-20 14:29:23.387065
1114  2023-11-20 14:29:23.418970
1115  2023-11-20 14:29:23.450849
1116  2023-11-20 14:29:23.482830
1117  2023-11-20 14:29:23.530634
1118  2023-11-20 14:29:23.562549
1119  2023-11-20 14:29:23.594464
1120  2023-11-20 14:29:23.626378
1121  2023-11-20 14:29:23.658294
1122  2023-11-20 14:29:23.690209
1123  2023-11-20 14:29:23.723155
1124  2023-11-20 14:29:23.755036
1125  2023-11-20 14:29:23.786984
1126  2023-11-20 14:29:23.818864
1127  2023-11-20 14:29:23.850814
1128  2023-11-20 14:29:23.882702
1129  2023-11-20 14:29:23.930565
1130  2023-11-20 14:29:23.962480
1131  2023-11-20 14:29:23.994460
1132  2023-11-20 14:29:24.026309
1133  2023-11-20 14:29:24.058224
1134  2023-11-20 14:29:24.090138
1135  2023-11-20 14:29:24.123053
1136  2023-11-20 14:29:24.154966
1137  2023-11-20 14:29:24.186919
1138  2023-11-20 14:29:24.218796
1139  2023-11-20 14:29:24.250710
1140  2023-11-20 14:29:24.282624
1141  2023-11-20 14:29:24.330500
1142  2023-11-20 14:29:24.362444
1143  2023-11-20 14:29:24.394325
1144  2023-11-20 14:29:24.426240
1145  2023-11-20 14:29:24.458183
1146  2023-11-20 14:29:24.491067
1147  2023-11-20 14:29:24.522013
1148  2023-11-20 14:29:24.554896
1149  2023-11-20 14:29:24.586811
1150  2023-11-20 14:29:24.618757
1151  2023-11-20 14:29:24.650678
1152  2023-11-20 14:29:24.682555
1153  2023-11-20 14:29:24.730426
1154  2023-11-20 14:29:24.762341
1155  2023-11-20 14:29:24.794256
1156  2023-11-20 14:29:24.826171
1157  2023-11-20 14:29:24.858085
1158  2023-11-20 14:29:24.890998
1159  2023-11-20 14:29:24.922912
1160  2023-11-20 14:29:24.954862
1161  2023-11-20 14:29:24.986742
1162  2023-11-20 14:29:25.018657
1163  2023-11-20 14:29:25.050572
1164  2023-11-20 14:29:25.082486
1165  2023-11-20 14:29:25.130357
1166  2023-11-20 14:29:25.162272
1167  2023-11-20 14:29:25.194187
1168  2023-11-20 14:29:25.226101
1169  2023-11-20 14:29:25.259045
1170  2023-11-20 14:29:25.290971
1171  2023-11-20 14:29:25.322845
1172  2023-11-20 14:29:25.354799
1173  2023-11-20 14:29:25.386713
1174  2023-11-20 14:29:25.418587
1175  2023-11-20 14:29:25.450502
1176  2023-11-20 14:29:25.482416
1177  2023-11-20 14:29:25.530321
1178  2023-11-20 14:29:25.562203
1179  2023-11-20 14:29:25.594117
1180  2023-11-20 14:29:25.626032
1181  2023-11-20 14:29:25.657962
1182  2023-11-20 14:29:25.690866
1183  2023-11-20 14:29:25.722821
1184  2023-11-20 14:29:25.754718
1185  2023-11-20 14:29:25.786637
1186  2023-11-20 14:29:25.818548
1187  2023-11-20 14:29:25.850432
1188  2023-11-20 14:29:25.882347
1189  2023-11-20 14:29:25.930219
1190  2023-11-20 14:29:25.962134
1191  2023-11-20 14:29:25.994081
1192  2023-11-20 14:29:26.025963
1193  2023-11-20 14:29:26.058909
1194  2023-11-20 14:29:26.090824
1195  2023-11-20 14:29:26.122705
1196  2023-11-20 14:29:26.154619
1197  2023-11-20 14:29:26.186536
1198  2023-11-20 14:29:26.218449
1199  2023-11-20 14:29:26.250363
1200  2023-11-20 14:29:26.298235
1201  2023-11-20 14:29:26.330195
1202  2023-11-20 14:29:26.362064
1203  2023-11-20 14:29:26.393979
1204  2023-11-20 14:29:26.426891
1205  2023-11-20 14:29:26.458806
1206  2023-11-20 14:29:26.490753
1207  2023-11-20 14:29:26.522669
1208  2023-11-20 14:29:26.554582
1209  2023-11-20 14:29:26.586501
1210  2023-11-20 14:29:26.618486
1211  2023-11-20 14:29:26.650401
1212  2023-11-20 14:29:26.698396
1213  2023-11-20 14:29:26.730270
1214  2023-11-20 14:29:26.762185
1215  2023-11-20 14:29:26.794099
1216  2023-11-20 14:29:26.826014
1217  2023-11-20 14:29:26.857928
1218  2023-11-20 14:29:26.890841
1219  2023-11-20 14:29:26.922802
1220  2023-11-20 14:29:26.954707
1221  2023-11-20 14:29:26.986586
1222  2023-11-20 14:29:27.018500
1223  2023-11-20 14:29:27.050414
1224  2023-11-20 14:29:27.098287
1225  2023-11-20 14:29:27.130202
1226  2023-11-20 14:29:27.163114
1227  2023-11-20 14:29:27.194064
1228  2023-11-20 14:29:27.226943
1229  2023-11-20 14:29:27.258859
1230  2023-11-20 14:29:27.290821
1231  2023-11-20 14:29:27.322749
1232  2023-11-20 14:29:27.354633
1233  2023-11-20 14:29:27.386548
1234  2023-11-20 14:29:27.418431
1235  2023-11-20 14:29:27.450378
1236  2023-11-20 14:29:27.498260
1237  2023-11-20 14:29:27.530166
1238  2023-11-20 14:29:27.562209
1239  2023-11-20 14:29:27.594123
1240  2023-11-20 14:29:27.626038
1241  2023-11-20 14:29:27.657984
1242  2023-11-20 14:29:27.690866
1243  2023-11-20 14:29:27.722826
1244  2023-11-20 14:29:27.754728
1245  2023-11-20 14:29:27.786610
1246  2023-11-20 14:29:27.818526
1247  2023-11-20 14:29:27.850474
1248  2023-11-20 14:29:27.898310
1249  2023-11-20 14:29:27.930225
1250  2023-11-20 14:29:27.962181
1251  2023-11-20 14:29:27.994086
1252  2023-11-20 14:29:28.026966
1253  2023-11-20 14:29:28.058915
1254  2023-11-20 14:29:28.090798
1255  2023-11-20 14:29:28.122711
1256  2023-11-20 14:29:28.154626
1257  2023-11-20 14:29:28.186540
1258  2023-11-20 14:29:28.218457
1259  2023-11-20 14:29:28.250369
1260  2023-11-20 14:29:28.298241
1261  2023-11-20 14:29:28.330156
1262  2023-11-20 14:29:28.362070
1263  2023-11-20 14:29:28.393985
1264  2023-11-20 14:29:28.426897
1265  2023-11-20 14:29:28.458853
1266  2023-11-20 14:29:28.490727
1267  2023-11-20 14:29:28.522672
1268  2023-11-20 14:29:28.554557
1269  2023-11-20 14:29:28.586473
1270  2023-11-20 14:29:28.618385
1271  2023-11-20 14:29:28.650300
1272  2023-11-20 14:29:28.698172
1273  2023-11-20 14:29:28.730086
1274  2023-11-20 14:29:28.762136
1275  2023-11-20 14:29:28.794051
1276  2023-11-20 14:29:28.826965
1277  2023-11-20 14:29:28.858883
1278  2023-11-20 14:29:28.890845
1279  2023-11-20 14:29:28.922774
1280  2023-11-20 14:29:28.954657
1281  2023-11-20 14:29:28.986571
1282  2023-11-20 14:29:29.018451
1283  2023-11-20 14:29:29.050366
1284  2023-11-20 14:29:29.098238
1285  2023-11-20 14:29:29.130152
1286  2023-11-20 14:29:29.162097
1287  2023-11-20 14:29:29.194012
1288  2023-11-20 14:29:29.225896
1289  2023-11-20 14:29:29.258809
1290  2023-11-20 14:29:29.290756
1291  2023-11-20 14:29:29.322672
1292  2023-11-20 14:29:29.354553
1293  2023-11-20 14:29:29.386468
1294  2023-11-20 14:29:29.418498
1295  2023-11-20 14:29:29.450445
1296  2023-11-20 14:29:29.498348
1297  2023-11-20 14:29:29.530282
1298  2023-11-20 14:29:29.562274
1299  2023-11-20 14:29:29.594188
1300  2023-11-20 14:29:29.626134
1301  2023-11-20 14:29:29.659015
1302  2023-11-20 14:29:29.690965
1303  2023-11-20 14:29:29.722849
1304  2023-11-20 14:29:29.754791
1305  2023-11-20 14:29:29.786709
1306  2023-11-20 14:29:29.818589
1307  2023-11-20 14:29:29.850542
1308  2023-11-20 14:29:29.898537
1309  2023-11-20 14:29:29.930451
1310  2023-11-20 14:29:29.962366
1311  2023-11-20 14:29:29.994396
1312  2023-11-20 14:29:30.027308
1313  2023-11-20 14:29:30.058264
1314  2023-11-20 14:29:30.091141
1315  2023-11-20 14:29:30.123105
1316  2023-11-20 14:29:30.154006
1317  2023-11-20 14:29:30.186883
1318  2023-11-20 14:29:30.218836
1319  2023-11-20 14:29:30.266672
1320  2023-11-20 14:29:30.298583
1321  2023-11-20 14:29:30.330532
1322  2023-11-20 14:29:30.362443
1323  2023-11-20 14:29:30.394327
1324  2023-11-20 14:29:30.426241
1325  2023-11-20 14:29:30.458197
1326  2023-11-20 14:29:30.490103
1327  2023-11-20 14:29:30.521985
1328  2023-11-20 14:29:30.554931
1329  2023-11-20 14:29:30.586846
1330  2023-11-20 14:29:30.618727
1331  2023-11-20 14:29:30.666599
1332  2023-11-20 14:29:30.698513
1333  2023-11-20 14:29:30.730506
1334  2023-11-20 14:29:30.762538
1335  2023-11-20 14:29:30.794447
1336  2023-11-20 14:29:30.826362
1337  2023-11-20 14:29:30.858304
1338  2023-11-20 14:29:30.890191
1339  2023-11-20 14:29:30.923219
1340  2023-11-20 14:29:30.955133
1341  2023-11-20 14:29:30.986048
1342  2023-11-20 14:29:31.018962
1343  2023-11-20 14:29:31.065886
1344  2023-11-20 14:29:31.098796
1345  2023-11-20 14:29:31.130725
1346  2023-11-20 14:29:31.162633
1347  2023-11-20 14:29:31.194666
1348  2023-11-20 14:29:31.226549
1349  2023-11-20 14:29:31.258489
1350  2023-11-20 14:29:31.290444
1351  2023-11-20 14:29:31.322385
1352  2023-11-20 14:29:31.354268
1353  2023-11-20 14:29:31.386184
1354  2023-11-20 14:29:31.419131
1355  2023-11-20 14:29:31.466044
1356  2023-11-20 14:29:31.497994
1357  2023-11-20 14:29:31.530056
1358  2023-11-20 14:29:31.562014
1359  2023-11-20 14:29:31.593929
1360  2023-11-20 14:29:31.625874
1361  2023-11-20 14:29:31.658788
1362  2023-11-20 14:29:31.690704
1363  2023-11-20 14:29:31.722715
1364  2023-11-20 14:29:31.754663
1365  2023-11-20 14:29:31.786544
1366  2023-11-20 14:29:31.818459
1367  2023-11-20 14:29:31.866381
1368  2023-11-20 14:29:31.898244
1369  2023-11-20 14:29:31.930159
1370  2023-11-20 14:29:31.962073
1371  2023-11-20 14:29:31.993988
1372  2023-11-20 14:29:32.025903
1373  2023-11-20 14:29:32.058867
1374  2023-11-20 14:29:32.090771
1375  2023-11-20 14:29:32.122645
1376  2023-11-20 14:29:32.154591
1377  2023-11-20 14:29:32.186475
1378  2023-11-20 14:29:32.218424
1379  2023-11-20 14:29:32.266336
1380  2023-11-20 14:29:32.298251
1381  2023-11-20 14:29:32.330166
1382  2023-11-20 14:29:32.362080
1383  2023-11-20 14:29:32.393995
1384  2023-11-20 14:29:32.425910
1385  2023-11-20 14:29:32.458869
1386  2023-11-20 14:29:32.490793
1387  2023-11-20 14:29:32.522684
1388  2023-11-20 14:29:32.554600
1389  2023-11-20 14:29:32.586482
1390  2023-11-20 14:29:32.618396
1391  2023-11-20 14:29:32.666267
1392  2023-11-20 14:29:32.698213
1393  2023-11-20 14:29:32.730096
1394  2023-11-20 14:29:32.762011
1395  2023-11-20 14:29:32.793926
1396  2023-11-20 14:29:32.826870
1397  2023-11-20 14:29:32.858809
1398  2023-11-20 14:29:32.890701
1399  2023-11-20 14:29:32.922638
1400  2023-11-20 14:29:32.954513
1401  2023-11-20 14:29:32.986416
1402  2023-11-20 14:29:33.018338
1403  2023-11-20 14:29:33.066198
1404  2023-11-20 14:29:33.098113
1405  2023-11-20 14:29:33.130027
1406  2023-11-20 14:29:33.161975
1407  2023-11-20 14:29:33.193857
1408  2023-11-20 14:29:33.226769
1409  2023-11-20 14:29:33.258732
1410  2023-11-20 14:29:33.290599
1411  2023-11-20 14:29:33.322513
1412  2023-11-20 14:29:33.354429
1413  2023-11-20 14:29:33.386342
1414  2023-11-20 14:29:33.418296
1415  2023-11-20 14:29:33.466129
1416  2023-11-20 14:29:33.498091
1417  2023-11-20 14:29:33.529958
1418  2023-11-20 14:29:33.562873
1419  2023-11-20 14:29:33.594785
1420  2023-11-20 14:29:33.626700
1421  2023-11-20 14:29:33.658614
1422  2023-11-20 14:29:33.690530
1423  2023-11-20 14:29:33.722444
1424  2023-11-20 14:29:33.754446
1425  2023-11-20 14:29:33.786405
1426  2023-11-20 14:29:33.834277
1427  2023-11-20 14:29:33.866192
1428  2023-11-20 14:29:33.898106
1429  2023-11-20 14:29:33.930021
1430  2023-11-20 14:29:33.961936
1431  2023-11-20 14:29:33.993850
1432  2023-11-20 14:29:34.026762
1433  2023-11-20 14:29:34.058680
1434  2023-11-20 14:29:34.090624
1435  2023-11-20 14:29:34.122507
1436  2023-11-20 14:29:34.154421
1437  2023-11-20 14:29:34.186370
1438  2023-11-20 14:29:34.234334
1439  2023-11-20 14:29:34.266370
1440  2023-11-20 14:29:34.298475
1441  2023-11-20 14:29:34.330390
1442  2023-11-20 14:29:34.362305
1443  2023-11-20 14:29:34.394219
1444  2023-11-20 14:29:34.426134
1445  2023-11-20 14:29:34.459094
1446  2023-11-20 14:29:34.490963
1447  2023-11-20 14:29:34.522880
1448  2023-11-20 14:29:34.554791
1449  2023-11-20 14:29:34.586736
1450  2023-11-20 14:29:34.634577
1451  2023-11-20 14:29:34.666491
1452  2023-11-20 14:29:34.698434
1453  2023-11-20 14:29:34.730321
1454  2023-11-20 14:29:34.762235
1455  2023-11-20 14:29:34.794150
1456  2023-11-20 14:29:34.826065
1457  2023-11-20 14:29:34.857979
1458  2023-11-20 14:29:34.890926
1459  2023-11-20 14:29:34.922816
1460  2023-11-20 14:29:34.954728
1461  2023-11-20 14:29:34.986636
1462  2023-11-20 14:29:35.034540
1463  2023-11-20 14:29:35.066272
1464  2023-11-20 14:29:35.098187
1465  2023-11-20 14:29:35.130102
1466  2023-11-20 14:29:35.162047
1467  2023-11-20 14:29:35.193931
1468  2023-11-20 14:29:35.225845
1469  2023-11-20 14:29:35.258790
1470  2023-11-20 14:29:35.290708
1471  2023-11-20 14:29:35.322631
1472  2023-11-20 14:29:35.354634
1473  2023-11-20 14:29:35.386548
1474  2023-11-20 14:29:35.434420
1475  2023-11-20 14:29:35.466335
1476  2023-11-20 14:29:35.498250
1477  2023-11-20 14:29:35.530164
1478  2023-11-20 14:29:35.562079
1479  2023-11-20 14:29:35.593994
1480  2023-11-20 14:29:35.625908
1481  2023-11-20 14:29:35.658822
1482  2023-11-20 14:29:35.690738
1483  2023-11-20 14:29:35.722658
1484  2023-11-20 14:29:35.754575
1485  2023-11-20 14:29:35.786487
1486  2023-11-20 14:29:35.834351
1487  2023-11-20 14:29:35.866266
1488  2023-11-20 14:29:35.898181
1489  2023-11-20 14:29:35.930095
1490  2023-11-20 14:29:35.962010
1491  2023-11-20 14:29:35.993925
1492  2023-11-20 14:29:36.025839
1493  2023-11-20 14:29:36.058803
1494  2023-11-20 14:29:36.090700
1495  2023-11-20 14:29:36.122581
1496  2023-11-20 14:29:36.154497
1497  2023-11-20 14:29:36.186411
1498  2023-11-20 14:29:36.234282
1499  2023-11-20 14:29:36.266203
1500  2023-11-20 14:29:36.298111
1501  2023-11-20 14:29:36.330064
1502  2023-11-20 14:29:36.362090
1503  2023-11-20 14:29:36.394123
1504  2023-11-20 14:29:36.426038
1505  2023-11-20 14:29:36.458952
1506  2023-11-20 14:29:36.489901
1507  2023-11-20 14:29:36.522820
1508  2023-11-20 14:29:36.554726
1509  2023-11-20 14:29:36.586641
1510  2023-11-20 14:29:36.634480
1511  2023-11-20 14:29:36.666429
1512  2023-11-20 14:29:36.698342
1513  2023-11-20 14:29:36.730224
1514  2023-11-20 14:29:36.762139
1515  2023-11-20 14:29:36.794088
1516  2023-11-20 14:29:36.825999
1517  2023-11-20 14:29:36.858935
1518  2023-11-20 14:29:36.890830
1519  2023-11-20 14:29:36.922771
1520  2023-11-20 14:29:36.954625
1521  2023-11-20 14:29:36.986540
1522  2023-11-20 14:29:37.034576
1523  2023-11-20 14:29:37.066491
1524  2023-11-20 14:29:37.098405
1525  2023-11-20 14:29:37.130320
1526  2023-11-20 14:29:37.162235
1527  2023-11-20 14:29:37.195148
1528  2023-11-20 14:29:37.226064
1529  2023-11-20 14:29:37.259014
1530  2023-11-20 14:29:37.290929
1531  2023-11-20 14:29:37.323856
1532  2023-11-20 14:29:37.355754
1533  2023-11-20 14:29:37.386638
1534  2023-11-20 14:29:37.435547
1535  2023-11-20 14:29:37.467469
1536  2023-11-20 14:29:37.498338
1537  2023-11-20 14:29:37.530262
1538  2023-11-20 14:29:37.563206
1539  2023-11-20 14:29:37.595115
1540  2023-11-20 14:29:37.627029
1541  2023-11-20 14:29:37.658909
1542  2023-11-20 14:29:37.690865
1543  2023-11-20 14:29:37.723782
1544  2023-11-20 14:29:37.754651
1545  2023-11-20 14:29:37.802524
1546  2023-11-20 14:29:37.835483
1547  2023-11-20 14:29:37.867384
1548  2023-11-20 14:29:37.899302
1549  2023-11-20 14:29:37.931212
1550  2023-11-20 14:29:37.963125
1551  2023-11-20 14:29:37.995040
1552  2023-11-20 14:29:38.026955
1553  2023-11-20 14:29:38.058920
1554  2023-11-20 14:29:38.090829
1555  2023-11-20 14:29:38.122827
1556  2023-11-20 14:29:38.154740
1557  2023-11-20 14:29:38.202611
1558  2023-11-20 14:29:38.234501
1559  2023-11-20 14:29:38.266408
1560  2023-11-20 14:29:38.298322
1561  2023-11-20 14:29:38.331275
1562  2023-11-20 14:29:38.362151
1563  2023-11-20 14:29:38.394224
1564  2023-11-20 14:29:38.426139
1565  2023-11-20 14:29:38.459148
1566  2023-11-20 14:29:38.490090
1567  2023-11-20 14:29:38.523037
1568  2023-11-20 14:29:38.554103
1569  2023-11-20 14:29:38.603007
1570  2023-11-20 14:29:38.634891
1571  2023-11-20 14:29:38.666804
1572  2023-11-20 14:29:38.698718
1573  2023-11-20 14:29:38.730624
1574  2023-11-20 14:29:38.762546
1575  2023-11-20 14:29:38.794430
1576  2023-11-20 14:29:38.826507
1577  2023-11-20 14:29:38.858447
1578  2023-11-20 14:29:38.890369
1579  2023-11-20 14:29:38.922435
1580  2023-11-20 14:29:38.954351
1581  2023-11-20 14:29:39.002191
1582  2023-11-20 14:29:39.034137
1583  2023-11-20 14:29:39.066306
1584  2023-11-20 14:29:39.098180
1585  2023-11-20 14:29:39.130093
1586  2023-11-20 14:29:39.162058
1587  2023-11-20 14:29:39.194082
1588  2023-11-20 14:29:39.225960
1589  2023-11-20 14:29:39.258872
1590  2023-11-20 14:29:39.290789
1591  2023-11-20 14:29:39.322706
1592  2023-11-20 14:29:39.354628
1593  2023-11-20 14:29:39.402523
1594  2023-11-20 14:29:39.434436
1595  2023-11-20 14:29:39.466343
1596  2023-11-20 14:29:39.498277
1597  2023-11-20 14:29:39.530178
1598  2023-11-20 14:29:39.562063
1599  2023-11-20 14:29:39.593983
1600  2023-11-20 14:29:39.625891
1601  2023-11-20 14:29:39.658805
1602  2023-11-20 14:29:39.690720
1603  2023-11-20 14:29:39.722635
1604  2023-11-20 14:29:39.754549
1605  2023-11-20 14:29:39.802451
1606  2023-11-20 14:29:39.834366
1607  2023-11-20 14:29:39.866301
1608  2023-11-20 14:29:39.898199
1609  2023-11-20 14:29:39.930125
1610  2023-11-20 14:29:39.962135
1611  2023-11-20 14:29:39.994050
1612  2023-11-20 14:29:40.026929
1613  2023-11-20 14:29:40.058850
1614  2023-11-20 14:29:40.090924
1615  2023-11-20 14:29:40.122789
1616  2023-11-20 14:29:40.154754
1617  2023-11-20 14:29:40.202576
1618  2023-11-20 14:29:40.234533
1619  2023-11-20 14:29:40.267454
1620  2023-11-20 14:29:40.299347
1621  2023-11-20 14:29:40.330256
1622  2023-11-20 14:29:40.362200
1623  2023-11-20 14:29:40.395102
1624  2023-11-20 14:29:40.427018
1625  2023-11-20 14:29:40.458925
1626  2023-11-20 14:29:40.490839
1627  2023-11-20 14:29:40.522751
1628  2023-11-20 14:29:40.555678
1629  2023-11-20 14:29:40.602559
1630  2023-11-20 14:29:40.635490
1631  2023-11-20 14:29:40.667393
1632  2023-11-20 14:29:40.698329
1633  2023-11-20 14:29:40.730197
1634  2023-11-20 14:29:40.762155
1635  2023-11-20 14:29:40.795249
1636  2023-11-20 14:29:40.827211
1637  2023-11-20 14:29:40.859126
1638  2023-11-20 14:29:40.890043
1639  2023-11-20 14:29:40.922923
1640  2023-11-20 14:29:40.954849
1641  2023-11-20 14:29:41.002754
1642  2023-11-20 14:29:41.035672
1643  2023-11-20 14:29:41.066538
1644  2023-11-20 14:29:41.099452
1645  2023-11-20 14:29:41.130400
1646  2023-11-20 14:29:41.162312
1647  2023-11-20 14:29:41.195236
1648  2023-11-20 14:29:41.226112
1649  2023-11-20 14:29:41.259025
1650  2023-11-20 14:29:41.290948
1651  2023-11-20 14:29:41.322854
1652  2023-11-20 14:29:41.354792
1653  2023-11-20 14:29:41.402640
1654  2023-11-20 14:29:41.434586
1655  2023-11-20 14:29:41.466469
1656  2023-11-20 14:29:41.498415
1657  2023-11-20 14:29:41.530331
1658  2023-11-20 14:29:41.562219
1659  2023-11-20 14:29:41.595152
1660  2023-11-20 14:29:41.626073
1661  2023-11-20 14:29:41.658997
1662  2023-11-20 14:29:41.690903
1663  2023-11-20 14:29:41.722822
1664  2023-11-20 14:29:41.770655
1665  2023-11-20 14:29:41.802570
1666  2023-11-20 14:29:41.834520
1667  2023-11-20 14:29:41.866433
1668  2023-11-20 14:29:41.898315
1669  2023-11-20 14:29:41.930229
1670  2023-11-20 14:29:41.962178
1671  2023-11-20 14:29:41.994059
1672  2023-11-20 14:29:42.026004
1673  2023-11-20 14:29:42.058936
1674  2023-11-20 14:29:42.090833
1675  2023-11-20 14:29:42.122765
1676  2023-11-20 14:29:42.170619
1677  2023-11-20 14:29:42.202542
1678  2023-11-20 14:29:42.234452
1679  2023-11-20 14:29:42.266362
1680  2023-11-20 14:29:42.298278
1681  2023-11-20 14:29:42.330198
1682  2023-11-20 14:29:42.362075
1683  2023-11-20 14:29:42.394986
1684  2023-11-20 14:29:42.426938
1685  2023-11-20 14:29:42.458866
1686  2023-11-20 14:29:42.490767
1687  2023-11-20 14:29:42.522681
1688  2023-11-20 14:29:42.570555
1689  2023-11-20 14:29:42.602432
1690  2023-11-20 14:29:42.634382
1691  2023-11-20 14:29:42.666451
1692  2023-11-20 14:29:42.698560
1693  2023-11-20 14:29:42.730467
1694  2023-11-20 14:29:42.762348
1695  2023-11-20 14:29:42.794263
1696  2023-11-20 14:29:42.827208
1697  2023-11-20 14:29:42.859122
1698  2023-11-20 14:29:42.891046
1699  2023-11-20 14:29:42.921960
1700  2023-11-20 14:29:42.970833
1701  2023-11-20 14:29:43.002755
1702  2023-11-20 14:29:43.034623
1703  2023-11-20 14:29:43.066537
1704  2023-11-20 14:29:43.098451
1705  2023-11-20 14:29:43.130428
1706  2023-11-20 14:29:43.162386
1707  2023-11-20 14:29:43.194415
1708  2023-11-20 14:29:43.226372
1709  2023-11-20 14:29:43.258362
1710  2023-11-20 14:29:43.290298
1711  2023-11-20 14:29:43.322191
1712  2023-11-20 14:29:43.370090
1713  2023-11-20 14:29:43.401946
1714  2023-11-20 14:29:43.434858
1715  2023-11-20 14:29:43.466789
1716  2023-11-20 14:29:43.498722
1717  2023-11-20 14:29:43.530635
1718  2023-11-20 14:29:43.562547
1719  2023-11-20 14:29:43.594432
1720  2023-11-20 14:29:43.626379
1721  2023-11-20 14:29:43.658295
1722  2023-11-20 14:29:43.690177
1723  2023-11-20 14:29:43.722125
1724  2023-11-20 14:29:43.770021
1725  2023-11-20 14:29:43.801912
1726  2023-11-20 14:29:43.834830
1727  2023-11-20 14:29:43.866750
1728  2023-11-20 14:29:43.898650
1729  2023-11-20 14:29:43.930591
1730  2023-11-20 14:29:43.962557
1731  2023-11-20 14:29:43.994506
1732  2023-11-20 14:29:44.026416
1733  2023-11-20 14:29:44.058334
1734  2023-11-20 14:29:44.090272
1735  2023-11-20 14:29:44.122165
1736  2023-11-20 14:29:44.170043
1737  2023-11-20 14:29:44.201948
1738  2023-11-20 14:29:44.234829
1739  2023-11-20 14:29:44.266792
1740  2023-11-20 14:29:44.298689
1741  2023-11-20 14:29:44.330605
1742  2023-11-20 14:29:44.362487
1743  2023-11-20 14:29:44.394402
1744  2023-11-20 14:29:44.426399
1745  2023-11-20 14:29:44.458390
1746  2023-11-20 14:29:44.490260
1747  2023-11-20 14:29:44.522204
1748  2023-11-20 14:29:44.571084
1749  2023-11-20 14:29:44.601999
1750  2023-11-20 14:29:44.633910
1751  2023-11-20 14:29:44.665832
1752  2023-11-20 14:29:44.698705
1753  2023-11-20 14:29:44.730654
1754  2023-11-20 14:29:44.762531
1755  2023-11-20 14:29:44.794446
1756  2023-11-20 14:29:44.826498
1757  2023-11-20 14:29:44.858449
1758  2023-11-20 14:29:44.890343
1759  2023-11-20 14:29:44.922276
1760  2023-11-20 14:29:44.970147
1761  2023-11-20 14:29:45.002064
1762  2023-11-20 14:29:45.034974
1763  2023-11-20 14:29:45.066018
1764  2023-11-20 14:29:45.097938
1765  2023-11-20 14:29:45.129846
1766  2023-11-20 14:29:45.162760
1767  2023-11-20 14:29:45.194676
1768  2023-11-20 14:29:45.226588
1769  2023-11-20 14:29:45.258518
1770  2023-11-20 14:29:45.290434
1771  2023-11-20 14:29:45.338302
1772  2023-11-20 14:29:45.370203
1773  2023-11-20 14:29:45.402086
1774  2023-11-20 14:29:45.434001
1775  2023-11-20 14:29:45.465954
1776  2023-11-20 14:29:45.497865
1777  2023-11-20 14:29:45.530798
1778  2023-11-20 14:29:45.562657
1779  2023-11-20 14:29:45.594572
1780  2023-11-20 14:29:45.626517
1781  2023-11-20 14:29:45.658437
1782  2023-11-20 14:29:45.690385
1783  2023-11-20 14:29:45.738231
1784  2023-11-20 14:29:45.770137
1785  2023-11-20 14:29:45.802052
1786  2023-11-20 14:29:45.833963
1787  2023-11-20 14:29:45.866845
1788  2023-11-20 14:29:45.898760
1789  2023-11-20 14:29:45.930704
1790  2023-11-20 14:29:45.962625
1791  2023-11-20 14:29:45.994555
1792  2023-11-20 14:29:46.026453
1793  2023-11-20 14:29:46.058367
1794  2023-11-20 14:29:46.090290
1795  2023-11-20 14:29:46.138153
1796  2023-11-20 14:29:46.170069
1797  2023-11-20 14:29:46.201980
1798  2023-11-20 14:29:46.233862
1799  2023-11-20 14:29:46.265813
1800  2023-11-20 14:29:46.298735
1801  2023-11-20 14:29:46.330636
1802  2023-11-20 14:29:46.362551
1803  2023-11-20 14:29:46.394532
1804  2023-11-20 14:29:46.426444
1805  2023-11-20 14:29:46.458448
1806  2023-11-20 14:29:46.490328
1807  2023-11-20 14:29:46.538251
1808  2023-11-20 14:29:46.570148
1809  2023-11-20 14:29:46.602068
1810  2023-11-20 14:29:46.633974
1811  2023-11-20 14:29:46.665892
1812  2023-11-20 14:29:46.697817
1813  2023-11-20 14:29:46.730739
1814  2023-11-20 14:29:46.762634
1815  2023-11-20 14:29:46.794547
1816  2023-11-20 14:29:46.826461
1817  2023-11-20 14:29:46.858378
1818  2023-11-20 14:29:46.890304
1819  2023-11-20 14:29:46.938183
1820  2023-11-20 14:29:46.970076
1821  2023-11-20 14:29:47.001991
1822  2023-11-20 14:29:47.033908
1823  2023-11-20 14:29:47.066787
1824  2023-11-20 14:29:47.098745
1825  2023-11-20 14:29:47.130647
1826  2023-11-20 14:29:47.162569
1827  2023-11-20 14:29:47.194445
1828  2023-11-20 14:29:47.226360
1829  2023-11-20 14:29:47.258307
1830  2023-11-20 14:29:47.291189
1831  2023-11-20 14:29:47.338095
1832  2023-11-20 14:29:47.370015
1833  2023-11-20 14:29:47.401924
1834  2023-11-20 14:29:47.434837
1835  2023-11-20 14:29:47.466750
1836  2023-11-20 14:29:47.498666
1837  2023-11-20 14:29:47.530582
1838  2023-11-20 14:29:47.562509
1839  2023-11-20 14:29:47.594415
1840  2023-11-20 14:29:47.626328
1841  2023-11-20 14:29:47.659233
1842  2023-11-20 14:29:47.690155
1843  2023-11-20 14:29:47.739043
1844  2023-11-20 14:29:47.769940
1845  2023-11-20 14:29:47.801857
1846  2023-11-20 14:29:47.834780
1847  2023-11-20 14:29:47.866681
1848  2023-11-20 14:29:47.898594
1849  2023-11-20 14:29:47.930510
1850  2023-11-20 14:29:47.962424
1851  2023-11-20 14:29:47.994309
1852  2023-11-20 14:29:48.026259
1853  2023-11-20 14:29:48.058142
1854  2023-11-20 14:29:48.090083
1855  2023-11-20 14:29:48.137923
1856  2023-11-20 14:29:48.170871
1857  2023-11-20 14:29:48.202795
1858  2023-11-20 14:29:48.234664
1859  2023-11-20 14:29:48.266622
1860  2023-11-20 14:29:48.298530
1861  2023-11-20 14:29:48.330442
1862  2023-11-20 14:29:48.362357
1863  2023-11-20 14:29:48.394272
1864  2023-11-20 14:29:48.426186
1865  2023-11-20 14:29:48.458093
1866  2023-11-20 14:29:48.490015
1867  2023-11-20 14:29:48.537884
1868  2023-11-20 14:29:48.570811
1869  2023-11-20 14:29:48.602821
1870  2023-11-20 14:29:48.634684
1871  2023-11-20 14:29:48.666629
1872  2023-11-20 14:29:48.698545
1873  2023-11-20 14:29:48.730458
1874  2023-11-20 14:29:48.762377
1875  2023-11-20 14:29:48.794296
1876  2023-11-20 14:29:48.826203
1877  2023-11-20 14:29:48.858117
1878  2023-11-20 14:29:48.891031
1879  2023-11-20 14:29:48.937905
1880  2023-11-20 14:29:48.970819
1881  2023-11-20 14:29:49.002734
1882  2023-11-20 14:29:49.034647
1883  2023-11-20 14:29:49.066529
1884  2023-11-20 14:29:49.098479
1885  2023-11-20 14:29:49.130391
1886  2023-11-20 14:29:49.162274
1887  2023-11-20 14:29:49.194228
1888  2023-11-20 14:29:49.226103
1889  2023-11-20 14:29:49.259016
1890  2023-11-20 14:29:49.305921
1891  2023-11-20 14:29:49.337839
1892  2023-11-20 14:29:49.370746
1893  2023-11-20 14:29:49.402631
1894  2023-11-20 14:29:49.434576
1895  2023-11-20 14:29:49.466460
1896  2023-11-20 14:29:49.498376
1897  2023-11-20 14:29:49.530325
1898  2023-11-20 14:29:49.562237
1899  2023-11-20 14:29:49.594173
1900  2023-11-20 14:29:49.626068
1901  2023-11-20 14:29:49.658948
1902  2023-11-20 14:29:49.705843
1903  2023-11-20 14:29:49.738767
1904  2023-11-20 14:29:49.770683
1905  2023-11-20 14:29:49.802595
1906  2023-11-20 14:29:49.834507
1907  2023-11-20 14:29:49.866423
1908  2023-11-20 14:29:49.898337
1909  2023-11-20 14:29:49.930252
1910  2023-11-20 14:29:49.962184
1911  2023-11-20 14:29:49.994080
1912  2023-11-20 14:29:50.025998
1913  2023-11-20 14:29:50.058878
1914  2023-11-20 14:29:50.106789
1915  2023-11-20 14:29:50.138695
1916  2023-11-20 14:29:50.170610
1917  2023-11-20 14:29:50.202524
1918  2023-11-20 14:29:50.234407
1919  2023-11-20 14:29:50.266322
1920  2023-11-20 14:29:50.298268
1921  2023-11-20 14:29:50.331149
1922  2023-11-20 14:29:50.363097
1923  2023-11-20 14:29:50.394019
1924  2023-11-20 14:29:50.425931
1925  2023-11-20 14:29:50.458855
1926  2023-11-20 14:29:50.506712
1927  2023-11-20 14:29:50.538625
1928  2023-11-20 14:29:50.570546
1929  2023-11-20 14:29:50.602459
1930  2023-11-20 14:29:50.634375
1931  2023-11-20 14:29:50.666301
1932  2023-11-20 14:29:50.698203
1933  2023-11-20 14:29:50.730123
1934  2023-11-20 14:29:50.762026
1935  2023-11-20 14:29:50.793940
1936  2023-11-20 14:29:50.825855
1937  2023-11-20 14:29:50.858739
1938  2023-11-20 14:29:50.906640
1939  2023-11-20 14:29:50.938525
1940  2023-11-20 14:29:50.970470
1941  2023-11-20 14:29:51.002384
1942  2023-11-20 14:29:51.034309
1943  2023-11-20 14:29:51.066184
1944  2023-11-20 14:29:51.161956
1945  2023-11-20 14:29:51.168938
1946  2023-11-20 14:29:51.194868
1947  2023-11-20 14:29:51.225868
1948  2023-11-20 14:29:51.258781
1949  2023-11-20 14:29:51.306618
1950  2023-11-20 14:29:51.338567
1951  2023-11-20 14:29:51.370479
1952  2023-11-20 14:29:51.402397
1953  2023-11-20 14:29:51.434311
1954  2023-11-20 14:29:51.466232
1955  2023-11-20 14:29:51.498143
1956  2023-11-20 14:29:51.530051
1957  2023-11-20 14:29:51.561967
1958  2023-11-20 14:29:51.593880
1959  2023-11-20 14:29:51.626798
1960  2023-11-20 14:29:51.658770
1961  2023-11-20 14:29:51.706730
1962  2023-11-20 14:29:51.738676
1963  2023-11-20 14:29:51.770592
1964  2023-11-20 14:29:51.802511
1965  2023-11-20 14:29:51.834422
1966  2023-11-20 14:29:51.866336
1967  2023-11-20 14:29:51.899247
1968  2023-11-20 14:29:51.930185
1969  2023-11-20 14:29:51.962081
1970  2023-11-20 14:29:51.994961
1971  2023-11-20 14:29:52.026875
1972  2023-11-20 14:29:52.058804
1973  2023-11-20 14:29:52.106693
1974  2023-11-20 14:29:52.138610
1975  2023-11-20 14:29:52.170525
1976  2023-11-20 14:29:52.202443
1977  2023-11-20 14:29:52.234324
1978  2023-11-20 14:29:52.266234
1979  2023-11-20 14:29:52.298180
1980  2023-11-20 14:29:52.330064
1981  2023-11-20 14:29:52.362034
1982  2023-11-20 14:29:52.393924
1983  2023-11-20 14:29:52.426805
1984  2023-11-20 14:29:52.458760
1985  2023-11-20 14:29:52.506625
1986  2023-11-20 14:29:52.538541
1987  2023-11-20 14:29:52.570455
1988  2023-11-20 14:29:52.602370
1989  2023-11-20 14:29:52.634288
1990  2023-11-20 14:29:52.666194
1991  2023-11-20 14:29:52.698109
1992  2023-11-20 14:29:52.730027
1993  2023-11-20 14:29:52.761943
1994  2023-11-20 14:29:52.793825
1995  2023-11-20 14:29:52.826770
1996  2023-11-20 14:29:52.874643
1997  2023-11-20 14:29:52.906555
1998  2023-11-20 14:29:52.938437
1999  2023-11-20 14:29:52.970384
2000  2023-11-20 14:29:53.002304
2001  2023-11-20 14:29:53.034215
2002  2023-11-20 14:29:53.066132
2003  2023-11-20 14:29:53.098042
2004  2023-11-20 14:29:53.129957
2005  2023-11-20 14:29:53.161874
2006  2023-11-20 14:29:53.194788
2007  2023-11-20 14:29:53.226667
2008  2023-11-20 14:29:53.274756
2009  2023-11-20 14:29:53.306625
2010  2023-11-20 14:29:53.338567
2011  2023-11-20 14:29:53.370549
2012  2023-11-20 14:29:53.402551
2013  2023-11-20 14:29:53.434464
2014  2023-11-20 14:29:53.466346
2015  2023-11-20 14:29:53.498260
2016  2023-11-20 14:29:53.530210
2017  2023-11-20 14:29:53.562122
2018  2023-11-20 14:29:53.594034
2019  2023-11-20 14:29:53.626916
2020  2023-11-20 14:29:53.673823
2021  2023-11-20 14:29:53.706703
2022  2023-11-20 14:29:53.738618
2023  2023-11-20 14:29:53.770565
2024  2023-11-20 14:29:53.802481
2025  2023-11-20 14:29:53.834393
2026  2023-11-20 14:29:53.866322
2027  2023-11-20 14:29:53.898191
2028  2023-11-20 14:29:53.930138
2029  2023-11-20 14:29:53.962053
2030  2023-11-20 14:29:53.993974
2031  2023-11-20 14:29:54.025850
2032  2023-11-20 14:29:54.073757
2033  2023-11-20 14:29:54.106634
2034  2023-11-20 14:29:54.138634
2035  2023-11-20 14:29:54.170588
2036  2023-11-20 14:29:54.202503
2037  2023-11-20 14:29:54.234412
2038  2023-11-20 14:29:54.266293
2039  2023-11-20 14:29:54.298354
2040  2023-11-20 14:29:54.330306
2041  2023-11-20 14:29:54.362216
2042  2023-11-20 14:29:54.394128
2043  2023-11-20 14:29:54.426013
2044  2023-11-20 14:29:54.473920
2045  2023-11-20 14:29:54.506797
2046  2023-11-20 14:29:54.538712
2047  2023-11-20 14:29:54.570626
2048  2023-11-20 14:29:54.602573
2049  2023-11-20 14:29:54.634489
2050  2023-11-20 14:29:54.666409
2051  2023-11-20 14:29:54.698294
2052  2023-11-20 14:29:54.730200
2053  2023-11-20 14:29:54.762147
2054  2023-11-20 14:29:54.794185
2055  2023-11-20 14:29:54.826113
2056  2023-11-20 14:29:54.874020
2057  2023-11-20 14:29:54.905939
2058  2023-11-20 14:29:54.938813
2059  2023-11-20 14:29:54.970728
2060  2023-11-20 14:29:55.002676
2061  2023-11-20 14:29:55.034591
2062  2023-11-20 14:29:55.066509
2063  2023-11-20 14:29:55.098386
2064  2023-11-20 14:29:55.130301
2065  2023-11-20 14:29:55.162255
2066  2023-11-20 14:29:55.194186
2067  2023-11-20 14:29:55.226080
2068  2023-11-20 14:29:55.273954
2069  2023-11-20 14:29:55.306830
2070  2023-11-20 14:29:55.338744
2071  2023-11-20 14:29:55.370659
2072  2023-11-20 14:29:55.402573
2073  2023-11-20 14:29:55.434523
2074  2023-11-20 14:29:55.466451
2075  2023-11-20 14:29:55.498317
2076  2023-11-20 14:29:55.530232
2077  2023-11-20 14:29:55.562187
2078  2023-11-20 14:29:55.594096
2079  2023-11-20 14:29:55.626010
2080  2023-11-20 14:29:55.673892
2081  2023-11-20 14:29:55.706760
2082  2023-11-20 14:29:55.738684
2083  2023-11-20 14:29:55.770589
2084  2023-11-20 14:29:55.802504
2085  2023-11-20 14:29:55.834455
2086  2023-11-20 14:29:55.867362
2087  2023-11-20 14:29:55.898248
2088  2023-11-20 14:29:55.930163
2089  2023-11-20 14:29:55.962110
2090  2023-11-20 14:29:55.994025
2091  2023-11-20 14:29:56.025945
2092  2023-11-20 14:29:56.073815
2093  2023-11-20 14:29:56.106691
2094  2023-11-20 14:29:56.138606
2095  2023-11-20 14:29:56.170520
2096  2023-11-20 14:29:56.202477
2097  2023-11-20 14:29:56.234380
2098  2023-11-20 14:29:56.266298
2099  2023-11-20 14:29:56.298179
2100  2023-11-20 14:29:56.330124
2101  2023-11-20 14:29:56.362044
2102  2023-11-20 14:29:56.393953
2103  2023-11-20 14:29:56.425869
2104  2023-11-20 14:29:56.474707
2105  2023-11-20 14:29:56.506622
2106  2023-11-20 14:29:56.538536
2107  2023-11-20 14:29:56.570451
2108  2023-11-20 14:29:56.602366
2109  2023-11-20 14:29:56.634280
2110  2023-11-20 14:29:56.666195
2111  2023-11-20 14:29:56.698110
2112  2023-11-20 14:29:56.731054
2113  2023-11-20 14:29:56.761974
2114  2023-11-20 14:29:56.793885
2115  2023-11-20 14:29:56.842723
2116  2023-11-20 14:29:56.874638
2117  2023-11-20 14:29:56.906553
2118  2023-11-20 14:29:56.938467
2119  2023-11-20 14:29:56.970518
2120  2023-11-20 14:29:57.002408
2121  2023-11-20 14:29:57.034353
2122  2023-11-20 14:29:57.066267
2123  2023-11-20 14:29:57.098182
2124  2023-11-20 14:29:57.130096
2125  2023-11-20 14:29:57.163045
2126  2023-11-20 14:29:57.194969
2127  2023-11-20 14:29:57.242823
2128  2023-11-20 14:29:57.274710
2129  2023-11-20 14:29:57.306625
2130  2023-11-20 14:29:57.338539
2131  2023-11-20 14:29:57.370497
2132  2023-11-20 14:29:57.402369
2133  2023-11-20 14:29:57.434283
2134  2023-11-20 14:29:57.466198
2135  2023-11-20 14:29:57.498167
2136  2023-11-20 14:29:57.530065
2137  2023-11-20 14:29:57.561942
2138  2023-11-20 14:29:57.594854
2139  2023-11-20 14:29:57.641831
2140  2023-11-20 14:29:57.674742
2141  2023-11-20 14:29:57.706689
2142  2023-11-20 14:29:57.738572
2143  2023-11-20 14:29:57.770486
2144  2023-11-20 14:29:57.802401
2145  2023-11-20 14:29:57.834348
2146  2023-11-20 14:29:57.866265
2147  2023-11-20 14:29:57.898145
2148  2023-11-20 14:29:57.930060
2149  2023-11-20 14:29:57.962006
2150  2023-11-20 14:29:57.993928
2151  2023-11-20 14:29:58.041920
2152  2023-11-20 14:29:58.074833
2153  2023-11-20 14:29:58.106747
2154  2023-11-20 14:29:58.138662
2155  2023-11-20 14:29:58.170577
2156  2023-11-20 14:29:58.202491
2157  2023-11-20 14:29:58.234406
2158  2023-11-20 14:29:58.266321
2159  2023-11-20 14:29:58.298235
2160  2023-11-20 14:29:58.330150
2161  2023-11-20 14:29:58.362065
2162  2023-11-20 14:29:58.394170
2163  2023-11-20 14:29:58.442037
2164  2023-11-20 14:29:58.473952
2165  2023-11-20 14:29:58.506306
2166  2023-11-20 14:29:58.538223
2167  2023-11-20 14:29:58.570135
2168  2023-11-20 14:29:58.602081
2169  2023-11-20 14:29:58.633996
2170  2023-11-20 14:29:58.665911
2171  2023-11-20 14:29:58.698792
2172  2023-11-20 14:29:58.730753
2173  2023-11-20 14:29:58.762659
2174  2023-11-20 14:29:58.794630
2175  2023-11-20 14:29:58.842501
2176  2023-11-20 14:29:58.874449
2177  2023-11-20 14:29:58.906368
2178  2023-11-20 14:29:58.938245
2179  2023-11-20 14:29:58.970160
2180  2023-11-20 14:29:59.002075
2181  2023-11-20 14:29:59.034021
2182  2023-11-20 14:29:59.065904
2183  2023-11-20 14:29:59.098816
2184  2023-11-20 14:29:59.130731
2185  2023-11-20 14:29:59.162686
2186  2023-11-20 14:29:59.194560
2187  2023-11-20 14:29:59.242475
2188  2023-11-20 14:29:59.274347
2189  2023-11-20 14:29:59.306262
2190  2023-11-20 14:29:59.338176
2191  2023-11-20 14:29:59.370125
2192  2023-11-20 14:29:59.402006
2193  2023-11-20 14:29:59.433920
2194  2023-11-20 14:29:59.466832
2195  2023-11-20 14:29:59.498781
2196  2023-11-20 14:29:59.530662
2197  2023-11-20 14:29:59.562576
2198  2023-11-20 14:29:59.594491
2199  2023-11-20 14:29:59.642363
2200  2023-11-20 14:29:59.674278
2201  2023-11-20 14:29:59.706193
2202  2023-11-20 14:29:59.738108
2203  2023-11-20 14:29:59.770023
2204  2023-11-20 14:29:59.801938
2205  2023-11-20 14:29:59.833852
2206  2023-11-20 14:29:59.866764
2207  2023-11-20 14:29:59.898679
2208  2023-11-20 14:29:59.930594
2209  2023-11-20 14:29:59.962508
2210  2023-11-20 14:29:59.994423
2211  2023-11-20 14:30:00.042295
2212  2023-11-20 14:30:00.074210
2213  2023-11-20 14:30:00.106124
2214  2023-11-20 14:30:00.138039
2215  2023-11-20 14:30:00.169954
2216  2023-11-20 14:30:00.202866
2217  2023-11-20 14:30:00.234780
2218  2023-11-20 14:30:00.266695
2219  2023-11-20 14:30:00.298610
2220  2023-11-20 14:30:00.330525
2221  2023-11-20 14:30:00.362439
2222  2023-11-20 14:30:00.411352
2223  2023-11-20 14:30:00.442226
2224  2023-11-20 14:30:00.474141
2225  2023-11-20 14:30:00.506055
2226  2023-11-20 14:30:00.538968
2227  2023-11-20 14:30:00.569916
2228  2023-11-20 14:30:00.601799
2229  2023-11-20 14:30:00.634711
2230  2023-11-20 14:30:00.666665
2231  2023-11-20 14:30:00.698541
2232  2023-11-20 14:30:00.730455
2233  2023-11-20 14:30:00.762370
2234  2023-11-20 14:30:00.810242
2235  2023-11-20 14:30:00.842165
2236  2023-11-20 14:30:00.875108
2237  2023-11-20 14:30:00.906019
2238  2023-11-20 14:30:00.938898
2239  2023-11-20 14:30:00.970813
2240  2023-11-20 14:30:01.002727
2241  2023-11-20 14:30:01.034698
2242  2023-11-20 14:30:01.066557
2243  2023-11-20 14:30:01.098471
2244  2023-11-20 14:30:01.130386
2245  2023-11-20 14:30:01.162323
2246  2023-11-20 14:30:01.210209
2247  2023-11-20 14:30:01.242119
2248  2023-11-20 14:30:01.274002
2249  2023-11-20 14:30:01.305917
2250  2023-11-20 14:30:01.338829
2251  2023-11-20 14:30:01.370744
2252  2023-11-20 14:30:01.402658
2253  2023-11-20 14:30:01.434573
2254  2023-11-20 14:30:01.466487
2255  2023-11-20 14:30:01.498438
2256  2023-11-20 14:30:01.530317
2257  2023-11-20 14:30:01.562344
2258  2023-11-20 14:30:01.610258
2259  2023-11-20 14:30:01.642166
2260  2023-11-20 14:30:01.674211
2261  2023-11-20 14:30:01.706126
2262  2023-11-20 14:30:01.738040
2263  2023-11-20 14:30:01.770952
2264  2023-11-20 14:30:01.801955
2265  2023-11-20 14:30:01.833926
2266  2023-11-20 14:30:01.866835
2267  2023-11-20 14:30:01.898749
2268  2023-11-20 14:30:01.930664
2269  2023-11-20 14:30:01.962579
2270  2023-11-20 14:30:02.011482
2271  2023-11-20 14:30:02.042365
2272  2023-11-20 14:30:02.075279
2273  2023-11-20 14:30:02.106195
2274  2023-11-20 14:30:02.138109
2275  2023-11-20 14:30:02.170024
2276  2023-11-20 14:30:02.202968
2277  2023-11-20 14:30:02.234851
2278  2023-11-20 14:30:02.266766
2279  2023-11-20 14:30:02.298680
2280  2023-11-20 14:30:02.330629
2281  2023-11-20 14:30:02.362544
2282  2023-11-20 14:30:02.410417
2283  2023-11-20 14:30:02.442296
2284  2023-11-20 14:30:02.474211
2285  2023-11-20 14:30:02.506125
2286  2023-11-20 14:30:02.538074
2287  2023-11-20 14:30:02.570984
2288  2023-11-20 14:30:02.602867
2289  2023-11-20 14:30:02.634782
2290  2023-11-20 14:30:02.666751
2291  2023-11-20 14:30:02.698644
2292  2023-11-20 14:30:02.730526
2293  2023-11-20 14:30:02.762440
2294  2023-11-20 14:30:02.810312
2295  2023-11-20 14:30:02.842227
2296  2023-11-20 14:30:02.874179
2297  2023-11-20 14:30:02.906092
2298  2023-11-20 14:30:02.937971
2299  2023-11-20 14:30:02.969886
2300  2023-11-20 14:30:03.002800
2301  2023-11-20 14:30:03.034713
2302  2023-11-20 14:30:03.066627
2303  2023-11-20 14:30:03.098542
2304  2023-11-20 14:30:03.130457
2305  2023-11-20 14:30:03.162371
2306  2023-11-20 14:30:03.210294
2307  2023-11-20 14:30:03.242158
2308  2023-11-20 14:30:03.274072
2309  2023-11-20 14:30:03.305987
2310  2023-11-20 14:30:03.337902
2311  2023-11-20 14:30:03.369850
2312  2023-11-20 14:30:03.402728
2313  2023-11-20 14:30:03.434643
2314  2023-11-20 14:30:03.466564
2315  2023-11-20 14:30:03.498473
2316  2023-11-20 14:30:03.530387
2317  2023-11-20 14:30:03.562302
2318  2023-11-20 14:30:03.611348
2319  2023-11-20 14:30:03.642228
2320  2023-11-20 14:30:03.674143
2321  2023-11-20 14:30:03.706057
2322  2023-11-20 14:30:03.737972
2323  2023-11-20 14:30:03.769887
2324  2023-11-20 14:30:03.801950
2325  2023-11-20 14:30:03.833865
2326  2023-11-20 14:30:03.866777
2327  2023-11-20 14:30:03.898692
2328  2023-11-20 14:30:03.930606
2329  2023-11-20 14:30:03.962521
2330  2023-11-20 14:30:04.010426
2331  2023-11-20 14:30:04.042307
2332  2023-11-20 14:30:04.074225
2333  2023-11-20 14:30:04.106137
2334  2023-11-20 14:30:04.138051
2335  2023-11-20 14:30:04.169966
2336  2023-11-20 14:30:04.202880
2337  2023-11-20 14:30:04.234794
2338  2023-11-20 14:30:04.266708
2339  2023-11-20 14:30:04.298622
2340  2023-11-20 14:30:04.330539
2341  2023-11-20 14:30:04.378443
2342  2023-11-20 14:30:04.410324
2343  2023-11-20 14:30:04.442280
2344  2023-11-20 14:30:04.474153
2345  2023-11-20 14:30:04.506068
2346  2023-11-20 14:30:04.538015
2347  2023-11-20 14:30:04.569928
2348  2023-11-20 14:30:04.602814
2349  2023-11-20 14:30:04.634724
2350  2023-11-20 14:30:04.666670
2351  2023-11-20 14:30:04.698588
2352  2023-11-20 14:30:04.730468
2353  2023-11-20 14:30:04.778340
2354  2023-11-20 14:30:04.810285
2355  2023-11-20 14:30:04.842169
2356  2023-11-20 14:30:04.874114
2357  2023-11-20 14:30:04.906031
2358  2023-11-20 14:30:04.937913
2359  2023-11-20 14:30:04.969828
2360  2023-11-20 14:30:05.002777
2361  2023-11-20 14:30:05.034688
2362  2023-11-20 14:30:05.066569
2363  2023-11-20 14:30:05.098484
2364  2023-11-20 14:30:05.130398
2365  2023-11-20 14:30:05.178271
2366  2023-11-20 14:30:05.210220
2367  2023-11-20 14:30:05.242133
2368  2023-11-20 14:30:05.274014
2369  2023-11-20 14:30:05.305929
2370  2023-11-20 14:30:05.337844
2371  2023-11-20 14:30:05.370802
2372  2023-11-20 14:30:05.402750
2373  2023-11-20 14:30:05.434665
2374  2023-11-20 14:30:05.466580
2375  2023-11-20 14:30:05.498495
2376  2023-11-20 14:30:05.530409
2377  2023-11-20 14:30:05.578312
2378  2023-11-20 14:30:05.611228
2379  2023-11-20 14:30:05.642110
2380  2023-11-20 14:30:05.674025
2381  2023-11-20 14:30:05.705940
2382  2023-11-20 14:30:05.737854
2383  2023-11-20 14:30:05.770865
2384  2023-11-20 14:30:05.802779
2385  2023-11-20 14:30:05.834824
2386  2023-11-20 14:30:05.866739
2387  2023-11-20 14:30:05.898735
2388  2023-11-20 14:30:05.930670
2389  2023-11-20 14:30:05.978590
2390  2023-11-20 14:30:06.010460
2391  2023-11-20 14:30:06.042372
2392  2023-11-20 14:30:06.074286
2393  2023-11-20 14:30:06.106201
2394  2023-11-20 14:30:06.138116
2395  2023-11-20 14:30:06.170030
2396  2023-11-20 14:30:06.202952
2397  2023-11-20 14:30:06.233869
2398  2023-11-20 14:30:06.266785
2399  2023-11-20 14:30:06.298686
2400  2023-11-20 14:30:06.330601
2401  2023-11-20 14:30:06.378476
2402  2023-11-20 14:30:06.410423
2403  2023-11-20 14:30:06.442303
2404  2023-11-20 14:30:06.474217
2405  2023-11-20 14:30:06.506132
2406  2023-11-20 14:30:06.538078
2407  2023-11-20 14:30:06.569961
2408  2023-11-20 14:30:06.601876
2409  2023-11-20 14:30:06.634788
2410  2023-11-20 14:30:06.666703
2411  2023-11-20 14:30:06.698619
2412  2023-11-20 14:30:06.730575
2413  2023-11-20 14:30:06.778448
2414  2023-11-20 14:30:06.810362
2415  2023-11-20 14:30:06.842277
2416  2023-11-20 14:30:06.874191
2417  2023-11-20 14:30:06.906106
2418  2023-11-20 14:30:06.939019
2419  2023-11-20 14:30:06.970008
2420  2023-11-20 14:30:07.002928
2421  2023-11-20 14:30:07.034842
2422  2023-11-20 14:30:07.066757
2423  2023-11-20 14:30:07.098672
2424  2023-11-20 14:30:07.130586
2425  2023-11-20 14:30:07.178463
2426  2023-11-20 14:30:07.211404
2427  2023-11-20 14:30:07.242288
2428  2023-11-20 14:30:07.274268
2429  2023-11-20 14:30:07.306117
2430  2023-11-20 14:30:07.338032
2431  2023-11-20 14:30:07.369946
2432  2023-11-20 14:30:07.402859
2433  2023-11-20 14:30:07.434773
2434  2023-11-20 14:30:07.466688
2435  2023-11-20 14:30:07.498602
2436  2023-11-20 14:30:07.530517
2437  2023-11-20 14:30:07.578391
2438  2023-11-20 14:30:07.611333
2439  2023-11-20 14:30:07.642219
2440  2023-11-20 14:30:07.674138
2441  2023-11-20 14:30:07.706048
2442  2023-11-20 14:30:07.738960
2443  2023-11-20 14:30:07.770875
2444  2023-11-20 14:30:07.801792
2445  2023-11-20 14:30:07.834704
2446  2023-11-20 14:30:07.866652
2447  2023-11-20 14:30:07.898535
2448  2023-11-20 14:30:07.946407
2449  2023-11-20 14:30:07.978320
2450  2023-11-20 14:30:08.010277
2451  2023-11-20 14:30:08.042149
2452  2023-11-20 14:30:08.074096
2453  2023-11-20 14:30:08.105978
2454  2023-11-20 14:30:08.138891
2455  2023-11-20 14:30:08.170805
2456  2023-11-20 14:30:08.202466
2457  2023-11-20 14:30:08.234426
2458  2023-11-20 14:30:08.266434
2459  2023-11-20 14:30:08.298354
2460  2023-11-20 14:30:08.346226
2461  2023-11-20 14:30:08.378179
2462  2023-11-20 14:30:08.410095
2463  2023-11-20 14:30:08.442052
2464  2023-11-20 14:30:08.473967
2465  2023-11-20 14:30:08.505882
2466  2023-11-20 14:30:08.538839
2467  2023-11-20 14:30:08.570711
2468  2023-11-20 14:30:08.602623
2469  2023-11-20 14:30:08.634538
2470  2023-11-20 14:30:08.666542
2471  2023-11-20 14:30:08.698456
2472  2023-11-20 14:30:08.746362
2473  2023-11-20 14:30:08.779288
2474  2023-11-20 14:30:08.811195
2475  2023-11-20 14:30:08.842144
2476  2023-11-20 14:30:08.874059
2477  2023-11-20 14:30:08.906080
2478  2023-11-20 14:30:08.937991
2479  2023-11-20 14:30:08.969936
2480  2023-11-20 14:30:09.002035
2481  2023-11-20 14:30:09.034015
2482  2023-11-20 14:30:09.066118
2483  2023-11-20 14:30:09.098033
2484  2023-11-20 14:30:09.146935
2485  2023-11-20 14:30:09.178817
2486  2023-11-20 14:30:09.210759
2487  2023-11-20 14:30:09.242646
2488  2023-11-20 14:30:09.274634
2489  2023-11-20 14:30:09.306576
2490  2023-11-20 14:30:09.338491
2491  2023-11-20 14:30:09.370406
2492  2023-11-20 14:30:09.402320
2493  2023-11-20 14:30:09.434351
2494  2023-11-20 14:30:09.466200
2495  2023-11-20 14:30:09.499112
2496  2023-11-20 14:30:09.547016
2497  2023-11-20 14:30:09.577901
2498  2023-11-20 14:30:09.610816
2499  2023-11-20 14:30:09.642728
2500  2023-11-20 14:30:09.674643
2501  2023-11-20 14:30:09.706557
2502  2023-11-20 14:30:09.738473
2503  2023-11-20 14:30:09.770386
2504  2023-11-20 14:30:09.802424
2505  2023-11-20 14:30:09.834340
2506  2023-11-20 14:30:09.866264
2507  2023-11-20 14:30:09.898221
2508  2023-11-20 14:30:09.946084
2509  2023-11-20 14:30:09.979005
2510  2023-11-20 14:30:10.010868
2511  2023-11-20 14:30:10.042829
2512  2023-11-20 14:30:10.074724
2513  2023-11-20 14:30:10.106639
2514  2023-11-20 14:30:10.138629
2515  2023-11-20 14:30:10.170649
2516  2023-11-20 14:30:10.203542
2517  2023-11-20 14:30:10.235456
2518  2023-11-20 14:30:10.267373
2519  2023-11-20 14:30:10.298256
2520  2023-11-20 14:30:10.347158
2521  2023-11-20 14:30:10.379087
2522  2023-11-20 14:30:10.412005
2523  2023-11-20 14:30:10.443913
2524  2023-11-20 14:30:10.475868
2525  2023-11-20 14:30:10.507781
2526  2023-11-20 14:30:10.539742
2527  2023-11-20 14:30:10.571658
2528  2023-11-20 14:30:10.603571
2529  2023-11-20 14:30:10.635487
2530  2023-11-20 14:30:10.667397
2531  2023-11-20 14:30:10.699325
2532  2023-11-20 14:30:10.748197
2533  2023-11-20 14:30:10.780119
2534  2023-11-20 14:30:10.811028
2535  2023-11-20 14:30:10.842943
2536  2023-11-20 14:30:10.875884
2537  2023-11-20 14:30:10.907770
2538  2023-11-20 14:30:10.939720
2539  2023-11-20 14:30:10.971660
2540  2023-11-20 14:30:11.003655
2541  2023-11-20 14:30:11.035732
2542  2023-11-20 14:30:11.067651
2543  2023-11-20 14:30:11.099560
2544  2023-11-20 14:30:11.147430
2545  2023-11-20 14:30:11.179341
2546  2023-11-20 14:30:11.211272
2547  2023-11-20 14:30:11.243192
2548  2023-11-20 14:30:11.275100
2549  2023-11-20 14:30:11.307020
2550  2023-11-20 14:30:11.338926
2551  2023-11-20 14:30:11.370829
2552  2023-11-20 14:30:11.402747
2553  2023-11-20 14:30:11.434651
2554  2023-11-20 14:30:11.467594
2555  2023-11-20 14:30:11.499485
2556  2023-11-20 14:30:11.547361
2557  2023-11-20 14:30:11.579274
2558  2023-11-20 14:30:11.611212
2559  2023-11-20 14:30:11.643116
2560  2023-11-20 14:30:11.675030
2561  2023-11-20 14:30:11.706935
2562  2023-11-20 14:30:11.738866
2563  2023-11-20 14:30:11.770826
2564  2023-11-20 14:30:11.802805
2565  2023-11-20 14:30:11.834735
2566  2023-11-20 14:30:11.866638
2567  2023-11-20 14:30:11.915474
2568  2023-11-20 14:30:11.947387
2569  2023-11-20 14:30:11.979303
2570  2023-11-20 14:30:12.010259
2571  2023-11-20 14:30:12.043170
2572  2023-11-20 14:30:12.075087
2573  2023-11-20 14:30:12.106992
2574  2023-11-20 14:30:12.138922
2575  2023-11-20 14:30:12.170826
2576  2023-11-20 14:30:12.202735
2577  2023-11-20 14:30:12.234653
2578  2023-11-20 14:30:12.266566
2579  2023-11-20 14:30:12.314445
2580  2023-11-20 14:30:12.346354
2581  2023-11-20 14:30:12.378287
2582  2023-11-20 14:30:12.410190
2583  2023-11-20 14:30:12.443063
2584  2023-11-20 14:30:12.473980
2585  2023-11-20 14:30:12.506924
2586  2023-11-20 14:30:12.538873
2587  2023-11-20 14:30:12.570770
2588  2023-11-20 14:30:12.602665
2589  2023-11-20 14:30:12.634584
2590  2023-11-20 14:30:12.666503
2591  2023-11-20 14:30:12.714369
2592  2023-11-20 14:30:12.746294
2593  2023-11-20 14:30:12.779201
2594  2023-11-20 14:30:12.810115
2595  2023-11-20 14:30:12.842997
2596  2023-11-20 14:30:12.873940
2597  2023-11-20 14:30:12.905870
2598  2023-11-20 14:30:12.938780
2599  2023-11-20 14:30:12.970652
2600  2023-11-20 14:30:13.002598
2601  2023-11-20 14:30:13.034516
2602  2023-11-20 14:30:13.066561
2603  2023-11-20 14:30:13.114427
2604  2023-11-20 14:30:13.146316
2605  2023-11-20 14:30:13.178345
2606  2023-11-20 14:30:13.210279
2607  2023-11-20 14:30:13.242189
2608  2023-11-20 14:30:13.274098
2609  2023-11-20 14:30:13.306012
2610  2023-11-20 14:30:13.337967
2611  2023-11-20 14:30:13.369879
2612  2023-11-20 14:30:13.402805
2613  2023-11-20 14:30:13.434727
2614  2023-11-20 14:30:13.466688
2615  2023-11-20 14:30:13.514670
2616  2023-11-20 14:30:13.546584
2617  2023-11-20 14:30:13.578492
2618  2023-11-20 14:30:13.610407
2619  2023-11-20 14:30:13.643315
2620  2023-11-20 14:30:13.674246
2621  2023-11-20 14:30:13.706162
2622  2023-11-20 14:30:13.738092
2623  2023-11-20 14:30:13.770942
2624  2023-11-20 14:30:13.801891
2625  2023-11-20 14:30:13.834772
2626  2023-11-20 14:30:13.866687
2627  2023-11-20 14:30:13.914594
2628  2023-11-20 14:30:13.946504
2629  2023-11-20 14:30:13.979540
2630  2023-11-20 14:30:14.011450
2631  2023-11-20 14:30:14.042490
2632  2023-11-20 14:30:14.074434
2633  2023-11-20 14:30:14.107587
2634  2023-11-20 14:30:14.139487
2635  2023-11-20 14:30:14.170385
2636  2023-11-20 14:30:14.202345
2637  2023-11-20 14:30:14.235395
2638  2023-11-20 14:30:14.267294
2639  2023-11-20 14:30:14.314168
2640  2023-11-20 14:30:14.347056
2641  2023-11-20 14:30:14.377995
2642  2023-11-20 14:30:14.410876
2643  2023-11-20 14:30:14.442796
2644  2023-11-20 14:30:14.475740
2645  2023-11-20 14:30:14.507653
2646  2023-11-20 14:30:14.539564
2647  2023-11-20 14:30:14.570477
2648  2023-11-20 14:30:14.602399
2649  2023-11-20 14:30:14.635307
2650  2023-11-20 14:30:14.667213
2651  2023-11-20 14:30:14.715176
2652  2023-11-20 14:30:14.748208
2653  2023-11-20 14:30:14.779101
2654  2023-11-20 14:30:14.810973
2655  2023-11-20 14:30:14.841888
2656  2023-11-20 14:30:14.875797
2657  2023-11-20 14:30:14.906755
2658  2023-11-20 14:30:14.938659
2659  2023-11-20 14:30:14.970577
2660  2023-11-20 14:30:15.002500
2661  2023-11-20 14:30:15.035412
2662  2023-11-20 14:30:15.067326
2663  2023-11-20 14:30:15.115196
2664  2023-11-20 14:30:15.147104
2665  2023-11-20 14:30:15.180018
2666  2023-11-20 14:30:15.210903
2667  2023-11-20 14:30:15.242849
2668  2023-11-20 14:30:15.274787
2669  2023-11-20 14:30:15.306676
2670  2023-11-20 14:30:15.338595
2671  2023-11-20 14:30:15.370509
2672  2023-11-20 14:30:15.402390
2673  2023-11-20 14:30:15.434304
2674  2023-11-20 14:30:15.482178
2675  2023-11-20 14:30:15.515120
2676  2023-11-20 14:30:15.547180
2677  2023-11-20 14:30:15.579629
2678  2023-11-20 14:30:15.611644
2679  2023-11-20 14:30:15.642521
2680  2023-11-20 14:30:15.674472
2681  2023-11-20 14:30:15.706383
2682  2023-11-20 14:30:15.739309
2683  2023-11-20 14:30:15.770214
2684  2023-11-20 14:30:15.802206
2685  2023-11-20 14:30:15.834127
2686  2023-11-20 14:30:15.882998
2687  2023-11-20 14:30:15.914870
2688  2023-11-20 14:30:15.947859
2689  2023-11-20 14:30:15.979734
2690  2023-11-20 14:30:16.011792
2691  2023-11-20 14:30:16.042673
2692  2023-11-20 14:30:16.074630
2693  2023-11-20 14:30:16.106537
2694  2023-11-20 14:30:16.138591
2695  2023-11-20 14:30:16.171472
2696  2023-11-20 14:30:16.202390
2697  2023-11-20 14:30:16.234341
2698  2023-11-20 14:30:16.283203
2699  2023-11-20 14:30:16.314095
2700  2023-11-20 14:30:16.347009
2701  2023-11-20 14:30:16.377963
2702  2023-11-20 14:30:16.410871
2703  2023-11-20 14:30:16.442800
2704  2023-11-20 14:30:16.474691
2705  2023-11-20 14:30:16.506612
2706  2023-11-20 14:30:16.538523
2707  2023-11-20 14:30:16.570434
2708  2023-11-20 14:30:16.602356
2709  2023-11-20 14:30:16.634391
2710  2023-11-20 14:30:16.682338
2711  2023-11-20 14:30:16.714269
2712  2023-11-20 14:30:16.747134
2713  2023-11-20 14:30:16.779082
2714  2023-11-20 14:30:16.810003
2715  2023-11-20 14:30:16.842877
2716  2023-11-20 14:30:16.874826
2717  2023-11-20 14:30:16.906707
2718  2023-11-20 14:30:16.938660
2719  2023-11-20 14:30:16.970566
2720  2023-11-20 14:30:17.002490
2721  2023-11-20 14:30:17.034408
2722  2023-11-20 14:30:17.082357
2723  2023-11-20 14:30:17.114300
2724  2023-11-20 14:30:17.147196
2725  2023-11-20 14:30:17.179114
2726  2023-11-20 14:30:17.211101
2727  2023-11-20 14:30:17.242005
2728  2023-11-20 14:30:17.273953
2729  2023-11-20 14:30:17.306867
2730  2023-11-20 14:30:17.338813
2731  2023-11-20 14:30:17.370739
2732  2023-11-20 14:30:17.402609
2733  2023-11-20 14:30:17.434553
2734  2023-11-20 14:30:17.482431
2735  2023-11-20 14:30:17.514356
2736  2023-11-20 14:30:17.547274
2737  2023-11-20 14:30:17.579145
2738  2023-11-20 14:30:17.611090
2739  2023-11-20 14:30:17.641969
2740  2023-11-20 14:30:17.673915
2741  2023-11-20 14:30:17.706797
2742  2023-11-20 14:30:17.738768
2743  2023-11-20 14:30:17.770660
2744  2023-11-20 14:30:17.802571
2745  2023-11-20 14:30:17.834488
2746  2023-11-20 14:30:17.882361
2747  2023-11-20 14:30:17.914280
2748  2023-11-20 14:30:17.947204
2749  2023-11-20 14:30:17.979069
2750  2023-11-20 14:30:18.010984
2751  2023-11-20 14:30:18.041935
2752  2023-11-20 14:30:18.074763
2753  2023-11-20 14:30:18.106677
2754  2023-11-20 14:30:18.138667
2755  2023-11-20 14:30:18.170582
2756  2023-11-20 14:30:18.202496
2757  2023-11-20 14:30:18.234412
2758  2023-11-20 14:30:18.282283
2759  2023-11-20 14:30:18.314197
2760  2023-11-20 14:30:18.346112
2761  2023-11-20 14:30:18.378029
2762  2023-11-20 14:30:18.410088
2763  2023-11-20 14:30:18.442019
2764  2023-11-20 14:30:18.474933
2765  2023-11-20 14:30:18.505896
2766  2023-11-20 14:30:18.538794
2767  2023-11-20 14:30:18.570711
2768  2023-11-20 14:30:18.602590
2769  2023-11-20 14:30:18.634508
2770  2023-11-20 14:30:18.682412
2771  2023-11-20 14:30:18.715321
2772  2023-11-20 14:30:18.746320
2773  2023-11-20 14:30:18.778247
2774  2023-11-20 14:30:18.810180
2775  2023-11-20 14:30:18.842032
2776  2023-11-20 14:30:18.874975
2777  2023-11-20 14:30:18.906895
2778  2023-11-20 14:30:18.938807
2779  2023-11-20 14:30:18.970721
2780  2023-11-20 14:30:19.002603
2781  2023-11-20 14:30:19.034517
2782  2023-11-20 14:30:19.082421
2783  2023-11-20 14:30:19.114340
2784  2023-11-20 14:30:19.146267
2785  2023-11-20 14:30:19.178135
2786  2023-11-20 14:30:19.211047
2787  2023-11-20 14:30:19.241994
2788  2023-11-20 14:30:19.274912
2789  2023-11-20 14:30:19.306182
2790  2023-11-20 14:30:19.338094
2791  2023-11-20 14:30:19.371011
2792  2023-11-20 14:30:19.401933
2793  2023-11-20 14:30:19.450805
2794  2023-11-20 14:30:19.482678
2795  2023-11-20 14:30:19.514599
2796  2023-11-20 14:30:19.546530
2797  2023-11-20 14:30:19.578466
2798  2023-11-20 14:30:19.610371
2799  2023-11-20 14:30:19.642302
2800  2023-11-20 14:30:19.674211
2801  2023-11-20 14:30:19.706148
2802  2023-11-20 14:30:19.738149
2803  2023-11-20 14:30:19.770061
2804  2023-11-20 14:30:19.802091
2805  2023-11-20 14:30:19.851004
2806  2023-11-20 14:30:19.882068
2807  2023-11-20 14:30:19.915097
2808  2023-11-20 14:30:19.946943
2809  2023-11-20 14:30:19.978890
2810  2023-11-20 14:30:20.010954
2811  2023-11-20 14:30:20.042719
2812  2023-11-20 14:30:20.074605
2813  2023-11-20 14:30:20.106514
2814  2023-11-20 14:30:20.138430
2815  2023-11-20 14:30:20.170376
2816  2023-11-20 14:30:20.202260
2817  2023-11-20 14:30:20.250177
2818  2023-11-20 14:30:20.282094
2819  2023-11-20 14:30:20.315009
2820  2023-11-20 14:30:20.346874
2821  2023-11-20 14:30:20.378837
2822  2023-11-20 14:30:20.410733
2823  2023-11-20 14:30:20.442622
2824  2023-11-20 14:30:20.474533
2825  2023-11-20 14:30:20.506451
2826  2023-11-20 14:30:20.538366
2827  2023-11-20 14:30:20.570278
2828  2023-11-20 14:30:20.602192
2829  2023-11-20 14:30:20.650068
2830  2023-11-20 14:30:20.681981
2831  2023-11-20 14:30:20.714861
2832  2023-11-20 14:30:20.746808
2833  2023-11-20 14:30:20.778750
2834  2023-11-20 14:30:20.810636
2835  2023-11-20 14:30:20.842551
2836  2023-11-20 14:30:20.874465
2837  2023-11-20 14:30:20.906347
2838  2023-11-20 14:30:20.938303
2839  2023-11-20 14:30:20.970208
2840  2023-11-20 14:30:21.002121
2841  2023-11-20 14:30:21.050007
2842  2023-11-20 14:30:21.081941
2843  2023-11-20 14:30:21.114793
2844  2023-11-20 14:30:21.146706
2845  2023-11-20 14:30:21.178652
2846  2023-11-20 14:30:21.210576
2847  2023-11-20 14:30:21.242452
2848  2023-11-20 14:30:21.274395
2849  2023-11-20 14:30:21.306324
2850  2023-11-20 14:30:21.338247
2851  2023-11-20 14:30:21.370137
2852  2023-11-20 14:30:21.402062
2853  2023-11-20 14:30:21.449927
2854  2023-11-20 14:30:21.482807
2855  2023-11-20 14:30:21.514721
2856  2023-11-20 14:30:21.546669
2857  2023-11-20 14:30:21.578585
2858  2023-11-20 14:30:21.610505
2859  2023-11-20 14:30:21.642412
2860  2023-11-20 14:30:21.674335
2861  2023-11-20 14:30:21.706256
2862  2023-11-20 14:30:21.738205
2863  2023-11-20 14:30:21.770197
2864  2023-11-20 14:30:21.802227
2865  2023-11-20 14:30:21.850097
2866  2023-11-20 14:30:21.882013
2867  2023-11-20 14:30:21.913971
2868  2023-11-20 14:30:21.945884
2869  2023-11-20 14:30:21.978903
2870  2023-11-20 14:30:22.009824
2871  2023-11-20 14:30:22.042937
2872  2023-11-20 14:30:22.074828
2873  2023-11-20 14:30:22.106708
2874  2023-11-20 14:30:22.138656
2875  2023-11-20 14:30:22.170567
2876  2023-11-20 14:30:22.202490
2877  2023-11-20 14:30:22.250350
2878  2023-11-20 14:30:22.282280
2879  2023-11-20 14:30:22.314153
2880  2023-11-20 14:30:22.347098
2881  2023-11-20 14:30:22.378016
2882  2023-11-20 14:30:22.409934
2883  2023-11-20 14:30:22.442843
2884  2023-11-20 14:30:22.474724
2885  2023-11-20 14:30:22.506682
2886  2023-11-20 14:30:22.538586
2887  2023-11-20 14:30:22.570501
2888  2023-11-20 14:30:22.602415
2889  2023-11-20 14:30:22.650271
2890  2023-11-20 14:30:22.682221
2891  2023-11-20 14:30:22.715116
2892  2023-11-20 14:30:22.746997
2893  2023-11-20 14:30:22.778912
2894  2023-11-20 14:30:22.810826
2895  2023-11-20 14:30:22.842778
2896  2023-11-20 14:30:22.874688
2897  2023-11-20 14:30:22.906603
2898  2023-11-20 14:30:22.938515
2899  2023-11-20 14:30:22.970430
2900  2023-11-20 14:30:23.018294
2901  2023-11-20 14:30:23.051184
2902  2023-11-20 14:30:23.083130
2903  2023-11-20 14:30:23.114016
2904  2023-11-20 14:30:23.146928
2905  2023-11-20 14:30:23.178843
2906  2023-11-20 14:30:23.211756
2907  2023-11-20 14:30:23.242701
2908  2023-11-20 14:30:23.274587
2909  2023-11-20 14:30:23.306537
2910  2023-11-20 14:30:23.338454
2911  2023-11-20 14:30:23.370377
2912  2023-11-20 14:30:23.418277
2913  2023-11-20 14:30:23.451147
2914  2023-11-20 14:30:23.483029
2915  2023-11-20 14:30:23.514977
2916  2023-11-20 14:30:23.546896
2917  2023-11-20 14:30:23.578797
2918  2023-11-20 14:30:23.610688
2919  2023-11-20 14:30:23.642635
2920  2023-11-20 14:30:23.674552
2921  2023-11-20 14:30:23.706474
2922  2023-11-20 14:30:23.738379
2923  2023-11-20 14:30:23.770306
2924  2023-11-20 14:30:23.818168
2925  2023-11-20 14:30:23.851076
2926  2023-11-20 14:30:23.882990
2927  2023-11-20 14:30:23.914909
2928  2023-11-20 14:30:23.946790
2929  2023-11-20 14:30:23.978736
2930  2023-11-20 14:30:24.010624
2931  2023-11-20 14:30:24.042569
2932  2023-11-20 14:30:24.074480
2933  2023-11-20 14:30:24.106393
2934  2023-11-20 14:30:24.138278
2935  2023-11-20 14:30:24.170224
2936  2023-11-20 14:30:24.219094
2937  2023-11-20 14:30:24.251022
2938  2023-11-20 14:30:24.282918
2939  2023-11-20 14:30:24.314845
2940  2023-11-20 14:30:24.346730
2941  2023-11-20 14:30:24.378634
2942  2023-11-20 14:30:24.410594
2943  2023-11-20 14:30:24.442497
2944  2023-11-20 14:30:24.474410
2945  2023-11-20 14:30:24.506334
2946  2023-11-20 14:30:24.538241
2947  2023-11-20 14:30:24.570159
2948  2023-11-20 14:30:24.619028
2949  2023-11-20 14:30:24.650942
2950  2023-11-20 14:30:24.682822
2951  2023-11-20 14:30:24.714770
2952  2023-11-20 14:30:24.746651
2953  2023-11-20 14:30:24.778595
2954  2023-11-20 14:30:24.810480
2955  2023-11-20 14:30:24.842425
2956  2023-11-20 14:30:24.874346
2957  2023-11-20 14:30:24.906225
2958  2023-11-20 14:30:24.938194
2959  2023-11-20 14:30:24.970084
2960  2023-11-20 14:30:25.018933
2961  2023-11-20 14:30:25.050838
2962  2023-11-20 14:30:25.082752
2963  2023-11-20 14:30:25.114667
2964  2023-11-20 14:30:25.146585
2965  2023-11-20 14:30:25.178529
2966  2023-11-20 14:30:25.211457
2967  2023-11-20 14:30:25.242357
2968  2023-11-20 14:30:25.275278
2969  2023-11-20 14:30:25.306155
2970  2023-11-20 14:30:25.338101
2971  2023-11-20 14:30:25.370987
2972  2023-11-20 14:30:25.418874
2973  2023-11-20 14:30:25.450769
2974  2023-11-20 14:30:25.482683
2975  2023-11-20 14:30:25.514656
2976  2023-11-20 14:30:25.546514
2977  2023-11-20 14:30:25.578461
2978  2023-11-20 14:30:25.610341
2979  2023-11-20 14:30:25.642302
2980  2023-11-20 14:30:25.674201
2981  2023-11-20 14:30:25.706119
2982  2023-11-20 14:30:25.738032
2983  2023-11-20 14:30:25.769952
2984  2023-11-20 14:30:25.818835
2985  2023-11-20 14:30:25.850698
2986  2023-11-20 14:30:25.882613
2987  2023-11-20 14:30:25.914562
2988  2023-11-20 14:30:25.946442
2989  2023-11-20 14:30:25.978358
2990  2023-11-20 14:30:26.010305
2991  2023-11-20 14:30:26.042219
2992  2023-11-20 14:30:26.074133
2993  2023-11-20 14:30:26.107014
2994  2023-11-20 14:30:26.137961
2995  2023-11-20 14:30:26.170879
2996  2023-11-20 14:30:26.218716
2997  2023-11-20 14:30:26.250629
2998  2023-11-20 14:30:26.282579
2999  2023-11-20 14:30:26.314459
3000  2023-11-20 14:30:26.347401
3001  2023-11-20 14:30:26.378288
3002  2023-11-20 14:30:26.410205
3003  2023-11-20 14:30:26.442166
3004  2023-11-20 14:30:26.474065
3005  2023-11-20 14:30:26.505978
3006  2023-11-20 14:30:26.537898
3007  2023-11-20 14:30:26.570826
3008  2023-11-20 14:30:26.618679
3009  2023-11-20 14:30:26.650562
3010  2023-11-20 14:30:26.682475
3011  2023-11-20 14:30:26.714390
3012  2023-11-20 14:30:26.746306
3013  2023-11-20 14:30:26.778220
3014  2023-11-20 14:30:26.811164
3015  2023-11-20 14:30:26.842085
3016  2023-11-20 14:30:26.873996
3017  2023-11-20 14:30:26.905910
3018  2023-11-20 14:30:26.938795
3019  2023-11-20 14:30:26.986695
3020  2023-11-20 14:30:27.018580
3021  2023-11-20 14:30:27.050524
3022  2023-11-20 14:30:27.082438
3023  2023-11-20 14:30:27.114321
3024  2023-11-20 14:30:27.147258
3025  2023-11-20 14:30:27.179222
3026  2023-11-20 14:30:27.211104
3027  2023-11-20 14:30:27.242119
3028  2023-11-20 14:30:27.274075
3029  2023-11-20 14:30:27.305991
3030  2023-11-20 14:30:27.338869
3031  2023-11-20 14:30:27.386745
3032  2023-11-20 14:30:27.418657
3033  2023-11-20 14:30:27.450602
3034  2023-11-20 14:30:27.482485
3035  2023-11-20 14:30:27.514401
3036  2023-11-20 14:30:27.547343
3037  2023-11-20 14:30:27.578348
3038  2023-11-20 14:30:27.610298
3039  2023-11-20 14:30:27.642210
3040  2023-11-20 14:30:27.674124
3041  2023-11-20 14:30:27.706002
3042  2023-11-20 14:30:27.738947
3043  2023-11-20 14:30:27.786823
3044  2023-11-20 14:30:27.818738
3045  2023-11-20 14:30:27.850637
3046  2023-11-20 14:30:27.882532
3047  2023-11-20 14:30:27.914448
3048  2023-11-20 14:30:27.946361
3049  2023-11-20 14:30:27.978274
3050  2023-11-20 14:30:28.011214
3051  2023-11-20 14:30:28.042148
3052  2023-11-20 14:30:28.074053
3053  2023-11-20 14:30:28.105978
3054  2023-11-20 14:30:28.138845
3055  2023-11-20 14:30:28.186719
3056  2023-11-20 14:30:28.218632
3057  2023-11-20 14:30:28.250547
3058  2023-11-20 14:30:28.282463
3059  2023-11-20 14:30:28.315376
3060  2023-11-20 14:30:28.346292
3061  2023-11-20 14:30:28.378239
3062  2023-11-20 14:30:28.410169
3063  2023-11-20 14:30:28.442074
3064  2023-11-20 14:30:28.474015
3065  2023-11-20 14:30:28.505930
3066  2023-11-20 14:30:28.537881
3067  2023-11-20 14:30:28.586766
3068  2023-11-20 14:30:28.618665
3069  2023-11-20 14:30:28.650580
3070  2023-11-20 14:30:28.682497
3071  2023-11-20 14:30:28.714422
3072  2023-11-20 14:30:28.747346
3073  2023-11-20 14:30:28.778285
3074  2023-11-20 14:30:28.811152
3075  2023-11-20 14:30:28.842101
3076  2023-11-20 14:30:28.874013
3077  2023-11-20 14:30:28.906903
3078  2023-11-20 14:30:28.937901
3079  2023-11-20 14:30:28.986802
3080  2023-11-20 14:30:29.018684
3081  2023-11-20 14:30:29.050599
3082  2023-11-20 14:30:29.082558
3083  2023-11-20 14:30:29.114465
3084  2023-11-20 14:30:29.146381
3085  2023-11-20 14:30:29.179258
3086  2023-11-20 14:30:29.210208
3087  2023-11-20 14:30:29.242120
3088  2023-11-20 14:30:29.274036
3089  2023-11-20 14:30:29.306072
3090  2023-11-20 14:30:29.337985
3091  2023-11-20 14:30:29.386816
3092  2023-11-20 14:30:29.418729
3093  2023-11-20 14:30:29.450685
3094  2023-11-20 14:30:29.482565
3095  2023-11-20 14:30:29.514474
3096  2023-11-20 14:30:29.546090
3097  2023-11-20 14:30:29.578126
3098  2023-11-20 14:30:29.610034
3099  2023-11-20 14:30:29.641955
3100  2023-11-20 14:30:29.674860
3101  2023-11-20 14:30:29.706777
3102  2023-11-20 14:30:29.738658
3103  2023-11-20 14:30:29.786531
3104  2023-11-20 14:30:29.818479
3105  2023-11-20 14:30:29.850392
3106  2023-11-20 14:30:29.882308
3107  2023-11-20 14:30:29.914191
3108  2023-11-20 14:30:29.946141
3109  2023-11-20 14:30:29.979048
3110  2023-11-20 14:30:30.010931
3111  2023-11-20 14:30:30.041886
3112  2023-11-20 14:30:30.074810
3113  2023-11-20 14:30:30.106855
3114  2023-11-20 14:30:30.138803
3115  2023-11-20 14:30:30.186680
3116  2023-11-20 14:30:30.218640
3117  2023-11-20 14:30:30.250536
3118  2023-11-20 14:30:30.282459
3119  2023-11-20 14:30:30.315370
3120  2023-11-20 14:30:30.347280
3121  2023-11-20 14:30:30.379195
3122  2023-11-20 14:30:30.410112
3123  2023-11-20 14:30:30.442029
3124  2023-11-20 14:30:30.473943
3125  2023-11-20 14:30:30.506823
3126  2023-11-20 14:30:30.554723
3127  2023-11-20 14:30:30.586607
3128  2023-11-20 14:30:30.618562
3129  2023-11-20 14:30:30.650472
3130  2023-11-20 14:30:30.682504
3131  2023-11-20 14:30:30.714319
3132  2023-11-20 14:30:30.746201
3133  2023-11-20 14:30:30.778094
3134  2023-11-20 14:30:30.810040
3135  2023-11-20 14:30:30.841965
3136  2023-11-20 14:30:30.873921
3137  2023-11-20 14:30:30.906833
3138  2023-11-20 14:30:30.954744
3139  2023-11-20 14:30:30.986658
3140  2023-11-20 14:30:31.018573
3141  2023-11-20 14:30:31.050488
3142  2023-11-20 14:30:31.083436
3143  2023-11-20 14:30:31.114317
3144  2023-11-20 14:30:31.146277
3145  2023-11-20 14:30:31.178186
3146  2023-11-20 14:30:31.211058
3147  2023-11-20 14:30:31.242006
3148  2023-11-20 14:30:31.273920
3149  2023-11-20 14:30:31.306815
3150  2023-11-20 14:30:31.354677
3151  2023-11-20 14:30:31.386590
3152  2023-11-20 14:30:31.418545
3153  2023-11-20 14:30:31.450451
3154  2023-11-20 14:30:31.482367
3155  2023-11-20 14:30:31.514263
3156  2023-11-20 14:30:31.546199
3157  2023-11-20 14:30:31.578109
3158  2023-11-20 14:30:31.609991
3159  2023-11-20 14:30:31.641906
3160  2023-11-20 14:30:31.674818
3161  2023-11-20 14:30:31.706773
3162  2023-11-20 14:30:31.754640
3163  2023-11-20 14:30:31.786521
3164  2023-11-20 14:30:31.818434
3165  2023-11-20 14:30:31.850349
3166  2023-11-20 14:30:31.882297
3167  2023-11-20 14:30:31.914217
3168  2023-11-20 14:30:31.947123
3169  2023-11-20 14:30:31.979040
3170  2023-11-20 14:30:32.009922
3171  2023-11-20 14:30:32.042834
3172  2023-11-20 14:30:32.073894
3173  2023-11-20 14:30:32.106799
3174  2023-11-20 14:30:32.154670
3175  2023-11-20 14:30:32.186590
3176  2023-11-20 14:30:32.218520
3177  2023-11-20 14:30:32.250449
3178  2023-11-20 14:30:32.282440
3179  2023-11-20 14:30:32.314389
3180  2023-11-20 14:30:32.347292
3181  2023-11-20 14:30:32.379215
3182  2023-11-20 14:30:32.410133
3183  2023-11-20 14:30:32.442013
3184  2023-11-20 14:30:32.474926
3185  2023-11-20 14:30:32.506854
3186  2023-11-20 14:30:32.554748
3187  2023-11-20 14:30:32.587649
3188  2023-11-20 14:30:32.618593
3189  2023-11-20 14:30:32.650456
3190  2023-11-20 14:30:32.682371
3191  2023-11-20 14:30:32.715366
3192  2023-11-20 14:30:32.747358
3193  2023-11-20 14:30:32.779278
3194  2023-11-20 14:30:32.810142
3195  2023-11-20 14:30:32.842057
3196  2023-11-20 14:30:32.873972
3197  2023-11-20 14:30:32.905946
3198  2023-11-20 14:30:32.954874
3199  2023-11-20 14:30:32.986809
3200  2023-11-20 14:30:33.018687
3201  2023-11-20 14:30:33.050602
3202  2023-11-20 14:30:33.082554
3203  2023-11-20 14:30:33.114432
3204  2023-11-20 14:30:33.146382
3205  2023-11-20 14:30:33.178320
3206  2023-11-20 14:30:33.210215
3207  2023-11-20 14:30:33.242140
3208  2023-11-20 14:30:33.274005
3209  2023-11-20 14:30:33.306916
3210  2023-11-20 14:30:33.354819
3211  2023-11-20 14:30:33.386704
3212  2023-11-20 14:30:33.418618
3213  2023-11-20 14:30:33.450532
3214  2023-11-20 14:30:33.482601
3215  2023-11-20 14:30:33.514554
3216  2023-11-20 14:30:33.546463
3217  2023-11-20 14:30:33.579333
3218  2023-11-20 14:30:33.610307
3219  2023-11-20 14:30:33.642428
3220  2023-11-20 14:30:33.674314
3221  2023-11-20 14:30:33.706229
3222  2023-11-20 14:30:33.755159
3223  2023-11-20 14:30:33.786129
3224  2023-11-20 14:30:33.818060
3225  2023-11-20 14:30:33.850939
3226  2023-11-20 14:30:33.882893
3227  2023-11-20 14:30:33.914769
3228  2023-11-20 14:30:33.946683
3229  2023-11-20 14:30:33.978604
3230  2023-11-20 14:30:34.011511
3231  2023-11-20 14:30:34.042427
3232  2023-11-20 14:30:34.074374
3233  2023-11-20 14:30:34.106268
3234  2023-11-20 14:30:34.155156
3235  2023-11-20 14:30:34.187041
3236  2023-11-20 14:30:34.218999
3237  2023-11-20 14:30:34.250918
3238  2023-11-20 14:30:34.282832
3239  2023-11-20 14:30:34.314781
3240  2023-11-20 14:30:34.346695
3241  2023-11-20 14:30:34.378619
3242  2023-11-20 14:30:34.410609
3243  2023-11-20 14:30:34.442576
3244  2023-11-20 14:30:34.474635
3245  2023-11-20 14:30:34.522564
3246  2023-11-20 14:30:34.554468
3247  2023-11-20 14:30:34.586373
3248  2023-11-20 14:30:34.618290
3249  2023-11-20 14:30:34.650166
3250  2023-11-20 14:30:34.683079
3251  2023-11-20 14:30:34.714994
3252  2023-11-20 14:30:34.746976
3253  2023-11-20 14:30:34.779005
3254  2023-11-20 14:30:34.810898
3255  2023-11-20 14:30:34.841805
3256  2023-11-20 14:30:34.874717
3257  2023-11-20 14:30:34.922590
3258  2023-11-20 14:30:34.954542
3259  2023-11-20 14:30:34.986453
3260  2023-11-20 14:30:35.019330
3261  2023-11-20 14:30:35.051246
3262  2023-11-20 14:30:35.083161
3263  2023-11-20 14:30:35.115114
3264  2023-11-20 14:30:35.146991
3265  2023-11-20 14:30:35.178905
3266  2023-11-20 14:30:35.210834
3267  2023-11-20 14:30:35.242735
3268  2023-11-20 14:30:35.274649
3269  2023-11-20 14:30:35.322520
3270  2023-11-20 14:30:35.354449
3271  2023-11-20 14:30:35.386383
3272  2023-11-20 14:30:35.418301
3273  2023-11-20 14:30:35.451230
3274  2023-11-20 14:30:35.483220
3275  2023-11-20 14:30:35.515134
3276  2023-11-20 14:30:35.546084
3277  2023-11-20 14:30:35.578963
3278  2023-11-20 14:30:35.610927
3279  2023-11-20 14:30:35.642886
3280  2023-11-20 14:30:35.674207
3281  2023-11-20 14:30:35.723161
3282  2023-11-20 14:30:35.755046
3283  2023-11-20 14:30:35.787001
3284  2023-11-20 14:30:35.818878
3285  2023-11-20 14:30:35.850834
3286  2023-11-20 14:30:35.882704
3287  2023-11-20 14:30:35.914623
3288  2023-11-20 14:30:35.946535
3289  2023-11-20 14:30:35.978456
3290  2023-11-20 14:30:36.010362
3291  2023-11-20 14:30:36.042277
3292  2023-11-20 14:30:36.074191
3293  2023-11-20 14:30:36.122094
3294  2023-11-20 14:30:36.154978
3295  2023-11-20 14:30:36.186944
3296  2023-11-20 14:30:36.218820
3297  2023-11-20 14:30:36.250744
3298  2023-11-20 14:30:36.282669
3299  2023-11-20 14:30:36.314549
3300  2023-11-20 14:30:36.346513
3301  2023-11-20 14:30:36.378428
3302  2023-11-20 14:30:36.410331
3303  2023-11-20 14:30:36.442208
3304  2023-11-20 14:30:36.474122
3305  2023-11-20 14:30:36.523028
3306  2023-11-20 14:30:36.554963
3307  2023-11-20 14:30:36.586930
3308  2023-11-20 14:30:36.618843
3309  2023-11-20 14:30:36.650757
3310  2023-11-20 14:30:36.682680
3311  2023-11-20 14:30:36.714587
3312  2023-11-20 14:30:36.746502
3313  2023-11-20 14:30:36.778468
3314  2023-11-20 14:30:36.810369
3315  2023-11-20 14:30:36.842244
3316  2023-11-20 14:30:36.874159
3317  2023-11-20 14:30:36.923479
3318  2023-11-20 14:30:36.955394
3319  2023-11-20 14:30:36.986406
3320  2023-11-20 14:30:37.018347
3321  2023-11-20 14:30:37.050264
3322  2023-11-20 14:30:37.083224
3323  2023-11-20 14:30:37.114123
3324  2023-11-20 14:30:37.147063
3325  2023-11-20 14:30:37.178922
3326  2023-11-20 14:30:37.210834
3327  2023-11-20 14:30:37.242748
3328  2023-11-20 14:30:37.274668
3329  2023-11-20 14:30:37.322535
3330  2023-11-20 14:30:37.354448
3331  2023-11-20 14:30:37.386394
3332  2023-11-20 14:30:37.419278
3333  2023-11-20 14:30:37.450234
3334  2023-11-20 14:30:37.483138
3335  2023-11-20 14:30:37.515051
3336  2023-11-20 14:30:37.546962
3337  2023-11-20 14:30:37.578846
3338  2023-11-20 14:30:37.610846
3339  2023-11-20 14:30:37.641911
3340  2023-11-20 14:30:37.674823
3341  2023-11-20 14:30:37.722698
3342  2023-11-20 14:30:37.754611
3343  2023-11-20 14:30:37.786560
3344  2023-11-20 14:30:37.818438
3345  2023-11-20 14:30:37.851352
3346  2023-11-20 14:30:37.882282
3347  2023-11-20 14:30:37.914215
3348  2023-11-20 14:30:37.947096
3349  2023-11-20 14:30:37.979010
3350  2023-11-20 14:30:38.009958
3351  2023-11-20 14:30:38.041872
3352  2023-11-20 14:30:38.090710
3353  2023-11-20 14:30:38.122627
3354  2023-11-20 14:30:38.154575
3355  2023-11-20 14:30:38.186457
3356  2023-11-20 14:30:38.218402
3357  2023-11-20 14:30:38.251283
3358  2023-11-20 14:30:38.283242
3359  2023-11-20 14:30:38.315112
3360  2023-11-20 14:30:38.347061
3361  2023-11-20 14:30:38.378941
3362  2023-11-20 14:30:38.410940
3363  2023-11-20 14:30:38.442937
3364  2023-11-20 14:30:38.490811
3365  2023-11-20 14:30:38.522724
3366  2023-11-20 14:30:38.554638
3367  2023-11-20 14:30:38.586582
3368  2023-11-20 14:30:38.618638
3369  2023-11-20 14:30:38.650518
3370  2023-11-20 14:30:38.682447
3371  2023-11-20 14:30:38.714377
3372  2023-11-20 14:30:38.747288
3373  2023-11-20 14:30:38.778197
3374  2023-11-20 14:30:38.810095
3375  2023-11-20 14:30:38.841994
3376  2023-11-20 14:30:38.889865
3377  2023-11-20 14:30:38.922800
3378  2023-11-20 14:30:38.954693
3379  2023-11-20 14:30:38.986639
3380  2023-11-20 14:30:39.018521
3381  2023-11-20 14:30:39.050467
3382  2023-11-20 14:30:39.082351
3383  2023-11-20 14:30:39.114271
3384  2023-11-20 14:30:39.147180
3385  2023-11-20 14:30:39.178995
3386  2023-11-20 14:30:39.210900
3387  2023-11-20 14:30:39.242943
3388  2023-11-20 14:30:39.290813
3389  2023-11-20 14:30:39.322728
3390  2023-11-20 14:30:39.354650
3391  2023-11-20 14:30:39.386656
3392  2023-11-20 14:30:39.418626
3393  2023-11-20 14:30:39.450504
3394  2023-11-20 14:30:39.483435
3395  2023-11-20 14:30:39.514300
3396  2023-11-20 14:30:39.546219
3397  2023-11-20 14:30:39.578175
3398  2023-11-20 14:30:39.610074
3399  2023-11-20 14:30:39.642956
3400  2023-11-20 14:30:39.690828
3401  2023-11-20 14:30:39.722744
3402  2023-11-20 14:30:39.754659
3403  2023-11-20 14:30:39.786574
3404  2023-11-20 14:30:39.818487
3405  2023-11-20 14:30:39.850401
3406  2023-11-20 14:30:39.882370
3407  2023-11-20 14:30:39.914231
3408  2023-11-20 14:30:39.947144
3409  2023-11-20 14:30:39.979060
3410  2023-11-20 14:30:40.011039
3411  2023-11-20 14:30:40.042993
3412  2023-11-20 14:30:40.089923
3413  2023-11-20 14:30:40.122806
3414  2023-11-20 14:30:40.154719
3415  2023-11-20 14:30:40.186636
3416  2023-11-20 14:30:40.218548
3417  2023-11-20 14:30:40.250515
3418  2023-11-20 14:30:40.282409
3419  2023-11-20 14:30:40.314292
3420  2023-11-20 14:30:40.347240
3421  2023-11-20 14:30:40.379174
3422  2023-11-20 14:30:40.410149
3423  2023-11-20 14:30:40.442130
3424  2023-11-20 14:30:40.490036
3425  2023-11-20 14:30:40.522916
3426  2023-11-20 14:30:40.554866
3427  2023-11-20 14:30:40.586743
3428  2023-11-20 14:30:40.618699
3429  2023-11-20 14:30:40.650739
3430  2023-11-20 14:30:40.682828
3431  2023-11-20 14:30:40.714743
3432  2023-11-20 14:30:40.746644
3433  2023-11-20 14:30:40.778572
3434  2023-11-20 14:30:40.810505
3435  2023-11-20 14:30:40.842387
3436  2023-11-20 14:30:40.890407
3437  2023-11-20 14:30:40.922356
3438  2023-11-20 14:30:40.955314
3439  2023-11-20 14:30:40.986282
3440  2023-11-20 14:30:41.019228
3441  2023-11-20 14:30:41.051142
3442  2023-11-20 14:30:41.083216
3443  2023-11-20 14:30:41.114112
3444  2023-11-20 14:30:41.146109
3445  2023-11-20 14:30:41.179059
3446  2023-11-20 14:30:41.209974
3447  2023-11-20 14:30:41.241853
3448  2023-11-20 14:30:41.290724
3449  2023-11-20 14:30:41.322680
3450  2023-11-20 14:30:41.354552
3451  2023-11-20 14:30:41.386500
3452  2023-11-20 14:30:41.419388
3453  2023-11-20 14:30:41.451294
3454  2023-11-20 14:30:41.482246
3455  2023-11-20 14:30:41.515173
3456  2023-11-20 14:30:41.547073
3457  2023-11-20 14:30:41.578953
3458  2023-11-20 14:30:41.609871
3459  2023-11-20 14:30:41.641923
3460  2023-11-20 14:30:41.690792
3461  2023-11-20 14:30:41.722708
3462  2023-11-20 14:30:41.754622
3463  2023-11-20 14:30:41.786575
3464  2023-11-20 14:30:41.818451
3465  2023-11-20 14:30:41.850365
3466  2023-11-20 14:30:41.882291
3467  2023-11-20 14:30:41.915223
3468  2023-11-20 14:30:41.947173
3469  2023-11-20 14:30:41.979065
3470  2023-11-20 14:30:42.010936
3471  2023-11-20 14:30:42.058808
3472  2023-11-20 14:30:42.090723
3473  2023-11-20 14:30:42.122780
3474  2023-11-20 14:30:42.154703
3475  2023-11-20 14:30:42.186822
3476  2023-11-20 14:30:42.218703
3477  2023-11-20 14:30:42.250606
3478  2023-11-20 14:30:42.282520
3479  2023-11-20 14:30:42.314435
3480  2023-11-20 14:30:42.346351
3481  2023-11-20 14:30:42.378306
3482  2023-11-20 14:30:42.410216
3483  2023-11-20 14:30:42.458095
3484  2023-11-20 14:30:42.490964
3485  2023-11-20 14:30:42.522879
3486  2023-11-20 14:30:42.554793
3487  2023-11-20 14:30:42.586708
3488  2023-11-20 14:30:42.618622
3489  2023-11-20 14:30:42.652570
3490  2023-11-20 14:30:42.682451
3491  2023-11-20 14:30:42.715365
3492  2023-11-20 14:30:42.746339
3493  2023-11-20 14:30:42.778242
3494  2023-11-20 14:30:42.812143
3495  2023-11-20 14:30:42.860008
3496  2023-11-20 14:30:42.891923
3497  2023-11-20 14:30:42.924803
3498  2023-11-20 14:30:42.955748
3499  2023-11-20 14:30:42.986644
3500  2023-11-20 14:30:43.019583
3501  2023-11-20 14:30:43.051513
3502  2023-11-20 14:30:43.082441
3503  2023-11-20 14:30:43.114352
3504  2023-11-20 14:30:43.148252
3505  2023-11-20 14:30:43.179282
3506  2023-11-20 14:30:43.212191
3507  2023-11-20 14:30:43.260067
3508  2023-11-20 14:30:43.291994
3509  2023-11-20 14:30:43.324029
3510  2023-11-20 14:30:43.355932
3511  2023-11-20 14:30:43.387856
3512  2023-11-20 14:30:43.419760
3513  2023-11-20 14:30:43.451689
3514  2023-11-20 14:30:43.483603
3515  2023-11-20 14:30:43.515516
3516  2023-11-20 14:30:43.547431
3517  2023-11-20 14:30:43.579391
3518  2023-11-20 14:30:43.611479
3519  2023-11-20 14:30:43.659351
3520  2023-11-20 14:30:43.692256
3521  2023-11-20 14:30:43.723180
3522  2023-11-20 14:30:43.755050
3523  2023-11-20 14:30:43.786994
3524  2023-11-20 14:30:43.819920
3525  2023-11-20 14:30:43.851839
3526  2023-11-20 14:30:43.883746
3527  2023-11-20 14:30:43.915662
3528  2023-11-20 14:30:43.947536
3529  2023-11-20 14:30:43.979481
3530  2023-11-20 14:30:44.011396
3531  2023-11-20 14:30:44.059281
3532  2023-11-20 14:30:44.091196
3533  2023-11-20 14:30:44.123099
3534  2023-11-20 14:30:44.155119
3535  2023-11-20 14:30:44.187035
3536  2023-11-20 14:30:44.219951
3537  2023-11-20 14:30:44.250849
3538  2023-11-20 14:30:44.283728
3539  2023-11-20 14:30:44.314815
3540  2023-11-20 14:30:44.346727
3541  2023-11-20 14:30:44.379635
3542  2023-11-20 14:30:44.411680
3543  2023-11-20 14:30:44.459562
3544  2023-11-20 14:30:44.491460
3545  2023-11-20 14:30:44.523391
3546  2023-11-20 14:30:44.555304
3547  2023-11-20 14:30:44.587382
3548  2023-11-20 14:30:44.619308
3549  2023-11-20 14:30:44.651225
3550  2023-11-20 14:30:44.683245
3551  2023-11-20 14:30:44.715146
3552  2023-11-20 14:30:44.747076
3553  2023-11-20 14:30:44.778991
3554  2023-11-20 14:30:44.810891
3555  2023-11-20 14:30:44.858769
3556  2023-11-20 14:30:44.890675
3557  2023-11-20 14:30:44.923586
3558  2023-11-20 14:30:44.955516
3559  2023-11-20 14:30:44.987386
3560  2023-11-20 14:30:45.019345
3561  2023-11-20 14:30:45.051262
