
1  2023-10-18 12:38:31.081183
2  2023-10-18 12:38:31.112099
3  2023-10-18 12:38:31.144043
4  2023-10-18 12:38:31.175985
5  2023-10-18 12:38:31.207900
6  2023-10-18 12:38:31.239862
7  2023-10-18 12:38:31.272727
8  2023-10-18 12:38:31.304642
9  2023-10-18 12:38:31.352540
10  2023-10-18 12:38:31.384462
11  2023-10-18 12:38:31.416343
12  2023-10-18 12:38:31.448259
13  2023-10-18 12:38:31.480172
14  2023-10-18 12:38:31.512087
15  2023-10-18 12:38:31.544001
16  2023-10-18 12:38:31.575916
17  2023-10-18 12:38:31.607864
18  2023-10-18 12:38:31.639791
19  2023-10-18 12:38:31.672739
20  2023-10-18 12:38:31.703778
21  2023-10-18 12:38:31.752609
22  2023-10-18 12:38:31.784523
23  2023-10-18 12:38:31.816456
24  2023-10-18 12:38:31.848499
25  2023-10-18 12:38:31.880412
26  2023-10-18 12:38:31.912326
27  2023-10-18 12:38:31.944338
28  2023-10-18 12:38:31.976281
29  2023-10-18 12:38:32.008238
30  2023-10-18 12:38:32.040141
31  2023-10-18 12:38:32.072057
32  2023-10-18 12:38:32.103969
33  2023-10-18 12:38:32.151806
34  2023-10-18 12:38:32.184718
35  2023-10-18 12:38:32.216633
36  2023-10-18 12:38:32.248547
37  2023-10-18 12:38:32.280462
38  2023-10-18 12:38:32.312377
39  2023-10-18 12:38:32.344291
40  2023-10-18 12:38:32.376206
41  2023-10-18 12:38:32.408132
42  2023-10-18 12:38:32.440073
43  2023-10-18 12:38:32.471982
44  2023-10-18 12:38:32.504897
45  2023-10-18 12:38:32.552735
46  2023-10-18 12:38:32.584759
47  2023-10-18 12:38:32.616395
48  2023-10-18 12:38:32.648701
49  2023-10-18 12:38:32.680589
50  2023-10-18 12:38:32.712474
51  2023-10-18 12:38:32.744455
52  2023-10-18 12:38:32.776370
53  2023-10-18 12:38:32.808318
54  2023-10-18 12:38:32.840236
55  2023-10-18 12:38:32.872152
56  2023-10-18 12:38:32.904028
57  2023-10-18 12:38:32.952062
58  2023-10-18 12:38:32.983977
59  2023-10-18 12:38:33.015891
60  2023-10-18 12:38:33.048804
61  2023-10-18 12:38:33.080721
62  2023-10-18 12:38:33.112633
63  2023-10-18 12:38:33.144548
64  2023-10-18 12:38:33.176463
65  2023-10-18 12:38:33.239300
66  2023-10-18 12:38:33.253262
67  2023-10-18 12:38:33.272251
68  2023-10-18 12:38:33.317088
69  2023-10-18 12:38:33.434773
70  2023-10-18 12:38:33.448736
71  2023-10-18 12:38:33.480649
72  2023-10-18 12:38:33.512565
73  2023-10-18 12:38:33.544479
74  2023-10-18 12:38:33.576394
75  2023-10-18 12:38:33.609306
76  2023-10-18 12:38:33.640224
77  2023-10-18 12:38:33.672139
78  2023-10-18 12:38:33.704052
79  2023-10-18 12:38:33.860634
80  2023-10-18 12:38:33.880580
81  2023-10-18 12:38:33.912495
82  2023-10-18 12:38:33.944411
83  2023-10-18 12:38:33.976324
84  2023-10-18 12:38:34.008276
85  2023-10-18 12:38:34.040200
86  2023-10-18 12:38:34.072070
87  2023-10-18 12:38:34.104029
88  2023-10-18 12:38:34.151985
89  2023-10-18 12:38:34.184897
90  2023-10-18 12:38:34.216849
91  2023-10-18 12:38:34.248726
92  2023-10-18 12:38:34.280646
93  2023-10-18 12:38:34.312596
94  2023-10-18 12:38:34.344512
95  2023-10-18 12:38:34.376487
96  2023-10-18 12:38:34.408035
97  2023-10-18 12:38:34.439984
98  2023-10-18 12:38:34.472897
99  2023-10-18 12:38:34.503845
100  2023-10-18 12:38:34.552753
101  2023-10-18 12:38:34.584598
102  2023-10-18 12:38:34.616513
103  2023-10-18 12:38:34.648431
104  2023-10-18 12:38:34.680431
105  2023-10-18 12:38:34.712314
106  2023-10-18 12:38:34.744229
107  2023-10-18 12:38:34.776464
108  2023-10-18 12:38:34.808427
109  2023-10-18 12:38:34.840337
110  2023-10-18 12:38:34.872216
111  2023-10-18 12:38:34.904187
112  2023-10-18 12:38:34.952015
113  2023-10-18 12:38:34.983920
114  2023-10-18 12:38:35.015832
115  2023-10-18 12:38:35.048319
116  2023-10-18 12:38:35.080199
117  2023-10-18 12:38:35.112211
118  2023-10-18 12:38:35.144167
119  2023-10-18 12:38:35.176073
120  2023-10-18 12:38:35.207955
121  2023-10-18 12:38:35.239913
122  2023-10-18 12:38:35.271837
123  2023-10-18 12:38:35.304735
124  2023-10-18 12:38:35.352569
125  2023-10-18 12:38:35.384483
126  2023-10-18 12:38:35.416322
127  2023-10-18 12:38:35.448237
128  2023-10-18 12:38:35.480152
129  2023-10-18 12:38:35.512066
130  2023-10-18 12:38:35.543981
131  2023-10-18 12:38:35.576895
132  2023-10-18 12:38:35.607857
133  2023-10-18 12:38:35.640784
134  2023-10-18 12:38:35.672637
135  2023-10-18 12:38:35.704552
136  2023-10-18 12:38:35.753462
137  2023-10-18 12:38:35.784618
138  2023-10-18 12:38:35.816671
139  2023-10-18 12:38:35.848585
140  2023-10-18 12:38:35.880586
141  2023-10-18 12:38:35.912504
142  2023-10-18 12:38:35.944416
143  2023-10-18 12:38:35.976339
144  2023-10-18 12:38:36.008246
145  2023-10-18 12:38:36.040233
146  2023-10-18 12:38:36.072145
147  2023-10-18 12:38:36.104024
148  2023-10-18 12:38:36.152902
149  2023-10-18 12:38:36.184729
150  2023-10-18 12:38:36.216745
151  2023-10-18 12:38:36.248660
152  2023-10-18 12:38:36.280575
153  2023-10-18 12:38:36.312489
154  2023-10-18 12:38:36.344416
155  2023-10-18 12:38:36.376318
156  2023-10-18 12:38:36.408233
157  2023-10-18 12:38:36.440228
158  2023-10-18 12:38:36.472129
159  2023-10-18 12:38:36.504014
160  2023-10-18 12:38:36.552847
161  2023-10-18 12:38:36.584761
162  2023-10-18 12:38:36.616675
163  2023-10-18 12:38:36.648640
164  2023-10-18 12:38:36.680523
165  2023-10-18 12:38:36.712420
166  2023-10-18 12:38:36.744335
167  2023-10-18 12:38:36.776250
168  2023-10-18 12:38:36.808200
169  2023-10-18 12:38:36.840117
170  2023-10-18 12:38:36.872026
171  2023-10-18 12:38:36.903960
172  2023-10-18 12:38:36.952777
173  2023-10-18 12:38:36.984692
174  2023-10-18 12:38:37.016632
175  2023-10-18 12:38:37.048547
176  2023-10-18 12:38:37.080496
177  2023-10-18 12:38:37.112351
178  2023-10-18 12:38:37.144281
179  2023-10-18 12:38:37.176195
180  2023-10-18 12:38:37.208129
181  2023-10-18 12:38:37.240041
182  2023-10-18 12:38:37.271972
183  2023-10-18 12:38:37.303865
184  2023-10-18 12:38:37.352759
185  2023-10-18 12:38:37.384656
186  2023-10-18 12:38:37.416572
187  2023-10-18 12:38:37.448432
188  2023-10-18 12:38:37.480496
189  2023-10-18 12:38:37.512360
190  2023-10-18 12:38:37.544326
191  2023-10-18 12:38:37.576190
192  2023-10-18 12:38:37.608511
193  2023-10-18 12:38:37.640424
194  2023-10-18 12:38:37.672338
195  2023-10-18 12:38:37.704254
196  2023-10-18 12:38:37.751831
197  2023-10-18 12:38:37.783746
198  2023-10-18 12:38:37.816683
199  2023-10-18 12:38:37.848605
200  2023-10-18 12:38:37.880487
201  2023-10-18 12:38:37.912401
202  2023-10-18 12:38:37.944316
203  2023-10-18 12:38:37.976283
204  2023-10-18 12:38:38.008199
205  2023-10-18 12:38:38.040061
206  2023-10-18 12:38:38.072028
207  2023-10-18 12:38:38.103931
208  2023-10-18 12:38:38.152760
209  2023-10-18 12:38:38.184742
210  2023-10-18 12:38:38.216032
211  2023-10-18 12:38:38.247940
212  2023-10-18 12:38:38.279969
213  2023-10-18 12:38:38.311916
214  2023-10-18 12:38:38.344795
215  2023-10-18 12:38:38.376738
216  2023-10-18 12:38:38.408656
217  2023-10-18 12:38:38.440590
218  2023-10-18 12:38:38.472484
219  2023-10-18 12:38:38.504369
220  2023-10-18 12:38:38.552197
221  2023-10-18 12:38:38.585148
222  2023-10-18 12:38:38.616027
223  2023-10-18 12:38:38.648939
224  2023-10-18 12:38:38.680853
225  2023-10-18 12:38:38.712770
226  2023-10-18 12:38:38.744708
227  2023-10-18 12:38:38.776659
228  2023-10-18 12:38:38.808588
229  2023-10-18 12:38:38.840594
230  2023-10-18 12:38:38.872481
231  2023-10-18 12:38:38.904446
232  2023-10-18 12:38:38.952266
233  2023-10-18 12:38:38.984181
234  2023-10-18 12:38:39.016129
235  2023-10-18 12:38:39.048046
236  2023-10-18 12:38:39.079925
237  2023-10-18 12:38:39.111874
238  2023-10-18 12:38:39.144752
239  2023-10-18 12:38:39.176692
240  2023-10-18 12:38:39.208581
241  2023-10-18 12:38:39.240496
242  2023-10-18 12:38:39.272436
243  2023-10-18 12:38:39.304325
244  2023-10-18 12:38:39.807647
245  2023-10-18 12:38:39.816623
246  2023-10-18 12:38:39.848550
247  2023-10-18 12:38:39.880087
248  2023-10-18 12:38:39.912526
249  2023-10-18 12:38:39.944388
250  2023-10-18 12:38:39.976941
251  2023-10-18 12:38:40.008856
252  2023-10-18 12:38:40.040772
253  2023-10-18 12:38:40.072686
254  2023-10-18 12:38:40.104600
255  2023-10-18 12:38:40.152530
256  2023-10-18 12:38:40.184450
257  2023-10-18 12:38:40.216334
258  2023-10-18 12:38:40.248248
259  2023-10-18 12:38:40.280211
260  2023-10-18 12:38:40.312077
261  2023-10-18 12:38:40.344996
262  2023-10-18 12:38:40.376939
263  2023-10-18 12:38:40.407896
264  2023-10-18 12:38:40.439768
265  2023-10-18 12:38:40.472677
266  2023-10-18 12:38:40.504615
267  2023-10-18 12:38:40.552440
268  2023-10-18 12:38:40.584349
269  2023-10-18 12:38:40.616297
270  2023-10-18 12:38:40.648179
271  2023-10-18 12:38:40.681092
272  2023-10-18 12:38:40.713067
273  2023-10-18 12:38:40.744920
274  2023-10-18 12:38:40.775865
275  2023-10-18 12:38:40.808751
276  2023-10-18 12:38:40.840667
277  2023-10-18 12:38:40.872617
278  2023-10-18 12:38:40.904543
279  2023-10-18 12:38:40.952409
280  2023-10-18 12:38:40.984337
281  2023-10-18 12:38:41.016278
282  2023-10-18 12:38:41.048289
283  2023-10-18 12:38:41.080232
284  2023-10-18 12:38:41.112206
285  2023-10-18 12:38:41.144106
286  2023-10-18 12:38:41.176022
287  2023-10-18 12:38:41.207936
288  2023-10-18 12:38:41.240849
289  2023-10-18 12:38:41.272810
290  2023-10-18 12:38:41.304680
291  2023-10-18 12:38:41.352546
292  2023-10-18 12:38:41.384432
293  2023-10-18 12:38:41.416376
294  2023-10-18 12:38:41.448300
295  2023-10-18 12:38:41.480203
296  2023-10-18 12:38:41.512090
297  2023-10-18 12:38:41.544042
298  2023-10-18 12:38:41.575985
299  2023-10-18 12:38:41.608832
300  2023-10-18 12:38:41.640777
301  2023-10-18 12:38:41.671971
302  2023-10-18 12:38:41.703901
303  2023-10-18 12:38:41.752783
304  2023-10-18 12:38:41.783734
305  2023-10-18 12:38:41.816653
306  2023-10-18 12:38:41.848569
307  2023-10-18 12:38:41.880442
308  2023-10-18 12:38:41.912356
309  2023-10-18 12:38:41.944330
310  2023-10-18 12:38:41.976191
311  2023-10-18 12:38:42.008169
312  2023-10-18 12:38:42.040075
313  2023-10-18 12:38:42.071971
314  2023-10-18 12:38:42.103925
315  2023-10-18 12:38:42.152813
316  2023-10-18 12:38:42.183749
317  2023-10-18 12:38:42.216661
318  2023-10-18 12:38:42.248677
319  2023-10-18 12:38:42.279823
320  2023-10-18 12:38:42.312808
321  2023-10-18 12:38:42.344816
322  2023-10-18 12:38:42.376695
323  2023-10-18 12:38:42.408611
324  2023-10-18 12:38:42.440536
325  2023-10-18 12:38:42.472463
326  2023-10-18 12:38:42.504347
327  2023-10-18 12:38:42.552222
328  2023-10-18 12:38:42.585107
329  2023-10-18 12:38:42.617024
330  2023-10-18 12:38:42.648936
331  2023-10-18 12:38:42.680850
332  2023-10-18 12:38:42.712861
333  2023-10-18 12:38:42.744680
334  2023-10-18 12:38:42.776626
335  2023-10-18 12:38:42.808534
336  2023-10-18 12:38:42.841420
337  2023-10-18 12:38:42.872384
338  2023-10-18 12:38:42.904284
339  2023-10-18 12:38:42.952125
340  2023-10-18 12:38:42.984040
341  2023-10-18 12:38:43.015954
342  2023-10-18 12:38:43.048867
343  2023-10-18 12:38:43.080819
344  2023-10-18 12:38:43.112760
345  2023-10-18 12:38:43.144644
346  2023-10-18 12:38:43.176556
347  2023-10-18 12:38:43.208467
348  2023-10-18 12:38:43.240391
349  2023-10-18 12:38:43.272375
350  2023-10-18 12:38:43.304288
351  2023-10-18 12:38:43.352255
352  2023-10-18 12:38:43.384141
353  2023-10-18 12:38:43.416182
354  2023-10-18 12:38:43.448156
355  2023-10-18 12:38:43.480105
356  2023-10-18 12:38:43.512018
357  2023-10-18 12:38:43.543993
358  2023-10-18 12:38:43.575824
359  2023-10-18 12:38:43.608737
360  2023-10-18 12:38:43.639979
361  2023-10-18 12:38:43.671967
362  2023-10-18 12:38:43.703843
363  2023-10-18 12:38:43.752717
364  2023-10-18 12:38:43.784628
365  2023-10-18 12:38:43.816538
366  2023-10-18 12:38:43.848454
367  2023-10-18 12:38:43.880361
368  2023-10-18 12:38:43.912277
369  2023-10-18 12:38:43.944200
370  2023-10-18 12:38:43.976114
371  2023-10-18 12:38:44.008029
372  2023-10-18 12:38:44.039960
373  2023-10-18 12:38:44.071849
374  2023-10-18 12:38:44.104767
375  2023-10-18 12:38:44.152635
376  2023-10-18 12:38:44.184554
377  2023-10-18 12:38:44.216470
378  2023-10-18 12:38:44.248352
379  2023-10-18 12:38:44.280300
380  2023-10-18 12:38:44.312704
381  2023-10-18 12:38:44.344684
382  2023-10-18 12:38:44.376729
383  2023-10-18 12:38:44.408617
384  2023-10-18 12:38:44.440533
385  2023-10-18 12:38:44.472438
386  2023-10-18 12:38:44.505349
387  2023-10-18 12:38:44.552248
388  2023-10-18 12:38:44.584139
389  2023-10-18 12:38:44.616054
390  2023-10-18 12:38:44.648010
391  2023-10-18 12:38:44.680894
392  2023-10-18 12:38:44.712842
393  2023-10-18 12:38:44.744752
394  2023-10-18 12:38:44.776661
395  2023-10-18 12:38:44.808583
396  2023-10-18 12:38:44.840479
397  2023-10-18 12:38:44.872403
398  2023-10-18 12:38:44.904320
399  2023-10-18 12:38:44.952154
400  2023-10-18 12:38:45.306209
401  2023-10-18 12:38:45.353083
402  2023-10-18 12:38:45.384999
403  2023-10-18 12:38:45.415953
404  2023-10-18 12:38:45.447854
405  2023-10-18 12:38:45.480769
406  2023-10-18 12:38:45.512683
407  2023-10-18 12:38:45.544623
408  2023-10-18 12:38:45.576517
409  2023-10-18 12:38:45.608423
410  2023-10-18 12:38:45.640361
411  2023-10-18 12:38:45.672263
412  2023-10-18 12:38:45.704178
413  2023-10-18 12:38:45.752015
414  2023-10-18 12:38:45.783963
415  2023-10-18 12:38:45.815871
416  2023-10-18 12:38:45.848783
417  2023-10-18 12:38:45.880714
418  2023-10-18 12:38:45.912647
419  2023-10-18 12:38:45.944547
420  2023-10-18 12:38:45.976448
421  2023-10-18 12:38:46.008356
422  2023-10-18 12:38:46.040290
423  2023-10-18 12:38:46.072251
424  2023-10-18 12:38:46.104192
425  2023-10-18 12:38:46.152034
426  2023-10-18 12:38:46.183949
427  2023-10-18 12:38:46.215867
428  2023-10-18 12:38:46.248746
429  2023-10-18 12:38:46.280660
430  2023-10-18 12:38:46.312612
431  2023-10-18 12:38:46.344527
432  2023-10-18 12:38:46.376435
433  2023-10-18 12:38:46.408349
434  2023-10-18 12:38:46.440266
435  2023-10-18 12:38:46.472181
436  2023-10-18 12:38:46.505062
437  2023-10-18 12:38:46.552985
438  2023-10-18 12:38:46.584850
439  2023-10-18 12:38:46.616762
440  2023-10-18 12:38:46.648678
441  2023-10-18 12:38:46.680625
442  2023-10-18 12:38:46.712507
443  2023-10-18 12:38:46.744455
444  2023-10-18 12:38:46.776368
445  2023-10-18 12:38:46.808295
446  2023-10-18 12:38:46.840213
447  2023-10-18 12:38:46.872134
448  2023-10-18 12:38:46.904031
449  2023-10-18 12:38:46.951907
450  2023-10-18 12:38:46.984812
451  2023-10-18 12:38:47.016739
452  2023-10-18 12:38:47.048607
453  2023-10-18 12:38:47.080522
454  2023-10-18 12:38:47.112438
455  2023-10-18 12:38:47.144414
456  2023-10-18 12:38:47.176314
457  2023-10-18 12:38:47.208213
458  2023-10-18 12:38:47.240134
459  2023-10-18 12:38:47.272047
460  2023-10-18 12:38:47.304936
461  2023-10-18 12:38:47.352848
462  2023-10-18 12:38:47.384743
463  2023-10-18 12:38:47.416662
464  2023-10-18 12:38:47.448617
465  2023-10-18 12:38:47.480563
466  2023-10-18 12:38:47.512475
467  2023-10-18 12:38:47.544407
468  2023-10-18 12:38:47.576313
469  2023-10-18 12:38:47.608217
470  2023-10-18 12:38:47.640143
471  2023-10-18 12:38:47.672044
472  2023-10-18 12:38:47.703969
473  2023-10-18 12:38:47.751856
474  2023-10-18 12:38:47.784773
475  2023-10-18 12:38:47.816665
476  2023-10-18 12:38:47.848580
477  2023-10-18 12:38:47.880462
478  2023-10-18 12:38:47.912407
479  2023-10-18 12:38:47.944323
480  2023-10-18 12:38:47.976257
481  2023-10-18 12:38:48.008154
482  2023-10-18 12:38:48.040060
483  2023-10-18 12:38:48.072014
484  2023-10-18 12:38:48.103922
485  2023-10-18 12:38:48.152784
486  2023-10-18 12:38:48.184690
487  2023-10-18 12:38:48.216622
488  2023-10-18 12:38:48.248478
489  2023-10-18 12:38:48.280393
490  2023-10-18 12:38:48.312334
491  2023-10-18 12:38:48.344255
492  2023-10-18 12:38:48.376187
493  2023-10-18 12:38:48.408097
494  2023-10-18 12:38:48.441010
495  2023-10-18 12:38:48.472911
496  2023-10-18 12:38:48.504804
497  2023-10-18 12:38:48.552666
498  2023-10-18 12:38:48.584619
499  2023-10-18 12:38:48.616531
500  2023-10-18 12:38:48.648409
501  2023-10-18 12:38:48.680324
502  2023-10-18 12:38:48.712277
503  2023-10-18 12:38:48.744191
504  2023-10-18 12:38:48.776103
505  2023-10-18 12:38:48.808020
506  2023-10-18 12:38:48.840932
507  2023-10-18 12:38:48.871858
508  2023-10-18 12:38:48.904787
509  2023-10-18 12:38:48.952650
510  2023-10-18 12:38:48.984542
511  2023-10-18 12:38:49.016452
512  2023-10-18 12:38:49.048415
513  2023-10-18 12:38:49.080303
514  2023-10-18 12:38:49.112206
515  2023-10-18 12:38:49.144136
516  2023-10-18 12:38:49.176037
517  2023-10-18 12:38:49.207958
518  2023-10-18 12:38:49.239861
519  2023-10-18 12:38:49.272782
520  2023-10-18 12:38:49.304692
521  2023-10-18 12:38:49.352528
522  2023-10-18 12:38:49.384495
523  2023-10-18 12:38:49.416387
524  2023-10-18 12:38:49.448271
525  2023-10-18 12:38:49.480212
526  2023-10-18 12:38:49.512155
527  2023-10-18 12:38:49.544049
528  2023-10-18 12:38:49.575983
529  2023-10-18 12:38:49.607871
530  2023-10-18 12:38:49.640796
531  2023-10-18 12:38:49.672711
532  2023-10-18 12:38:49.704590
533  2023-10-18 12:38:49.752457
534  2023-10-18 12:38:49.784411
535  2023-10-18 12:38:49.816289
536  2023-10-18 12:38:49.848203
537  2023-10-18 12:38:49.880142
538  2023-10-18 12:38:49.912057
539  2023-10-18 12:38:49.943996
540  2023-10-18 12:38:49.975908
541  2023-10-18 12:38:50.007810
542  2023-10-18 12:38:50.040752
543  2023-10-18 12:38:50.072632
544  2023-10-18 12:38:50.104548
545  2023-10-18 12:38:50.152430
546  2023-10-18 12:38:50.184364
547  2023-10-18 12:38:50.216249
548  2023-10-18 12:38:50.248165
549  2023-10-18 12:38:50.280126
550  2023-10-18 12:38:50.312002
551  2023-10-18 12:38:50.343916
552  2023-10-18 12:38:50.375937
553  2023-10-18 12:38:50.408846
554  2023-10-18 12:38:50.440746
555  2023-10-18 12:38:50.472660
556  2023-10-18 12:38:50.504543
557  2023-10-18 12:38:50.927464
558  2023-10-18 12:38:50.952378
559  2023-10-18 12:38:50.984295
560  2023-10-18 12:38:51.016215
561  2023-10-18 12:38:51.048180
562  2023-10-18 12:38:51.081003
563  2023-10-18 12:38:51.111998
564  2023-10-18 12:38:51.144831
565  2023-10-18 12:38:51.176746
566  2023-10-18 12:38:51.208730
567  2023-10-18 12:38:51.240606
568  2023-10-18 12:38:51.272521
569  2023-10-18 12:38:51.304404
570  2023-10-18 12:38:51.352307
571  2023-10-18 12:38:51.384193
572  2023-10-18 12:38:51.416264
573  2023-10-18 12:38:51.448181
574  2023-10-18 12:38:51.480097
575  2023-10-18 12:38:51.512011
576  2023-10-18 12:38:51.544894
577  2023-10-18 12:38:51.576841
578  2023-10-18 12:38:51.608848
579  2023-10-18 12:38:51.639818
580  2023-10-18 12:38:51.672709
581  2023-10-18 12:38:51.704622
582  2023-10-18 12:38:51.752463
583  2023-10-18 12:38:51.784408
584  2023-10-18 12:38:51.816327
585  2023-10-18 12:38:51.848243
586  2023-10-18 12:38:51.880169
587  2023-10-18 12:38:51.912064
588  2023-10-18 12:38:51.944973
589  2023-10-18 12:38:51.975901
590  2023-10-18 12:38:52.007815
591  2023-10-18 12:38:52.040743
592  2023-10-18 12:38:52.072631
593  2023-10-18 12:38:52.104550
594  2023-10-18 12:38:52.152394
595  2023-10-18 12:38:52.184339
596  2023-10-18 12:38:52.216257
597  2023-10-18 12:38:52.248186
598  2023-10-18 12:38:52.280098
599  2023-10-18 12:38:52.311969
600  2023-10-18 12:38:52.343912
601  2023-10-18 12:38:52.375844
602  2023-10-18 12:38:52.408778
603  2023-10-18 12:38:52.440623
604  2023-10-18 12:38:52.472540
605  2023-10-18 12:38:52.504453
606  2023-10-18 12:38:52.552325
607  2023-10-18 12:38:52.584239
608  2023-10-18 12:38:52.616155
609  2023-10-18 12:38:52.648069
610  2023-10-18 12:38:52.679984
611  2023-10-18 12:38:52.711898
612  2023-10-18 12:38:52.743813
613  2023-10-18 12:38:52.776791
614  2023-10-18 12:38:52.808530
615  2023-10-18 12:38:52.840542
616  2023-10-18 12:38:52.872459
617  2023-10-18 12:38:52.904338
618  2023-10-18 12:38:52.952278
619  2023-10-18 12:38:52.984193
620  2023-10-18 12:38:53.016691
621  2023-10-18 12:38:53.048606
622  2023-10-18 12:38:53.080519
623  2023-10-18 12:38:53.112435
624  2023-10-18 12:38:53.144299
625  2023-10-18 12:38:53.176298
626  2023-10-18 12:38:53.208213
627  2023-10-18 12:38:53.240127
628  2023-10-18 12:38:53.272059
629  2023-10-18 12:38:53.303956
630  2023-10-18 12:38:53.352794
631  2023-10-18 12:38:53.384710
632  2023-10-18 12:38:53.416622
633  2023-10-18 12:38:53.448582
634  2023-10-18 12:38:53.480535
635  2023-10-18 12:38:53.512693
636  2023-10-18 12:38:53.544705
637  2023-10-18 12:38:53.576749
638  2023-10-18 12:38:53.608639
639  2023-10-18 12:38:53.640555
640  2023-10-18 12:38:53.672458
641  2023-10-18 12:38:53.704346
642  2023-10-18 12:38:53.752218
643  2023-10-18 12:38:53.784133
644  2023-10-18 12:38:53.816047
645  2023-10-18 12:38:53.848022
646  2023-10-18 12:38:53.879910
647  2023-10-18 12:38:53.911820
648  2023-10-18 12:38:53.944761
649  2023-10-18 12:38:53.976678
650  2023-10-18 12:38:54.008693
651  2023-10-18 12:38:54.040610
652  2023-10-18 12:38:54.072572
653  2023-10-18 12:38:54.104554
654  2023-10-18 12:38:54.152396
655  2023-10-18 12:38:54.184345
656  2023-10-18 12:38:54.216253
657  2023-10-18 12:38:54.248174
658  2023-10-18 12:38:54.280088
659  2023-10-18 12:38:54.312003
660  2023-10-18 12:38:54.343932
661  2023-10-18 12:38:54.375844
662  2023-10-18 12:38:54.407762
663  2023-10-18 12:38:54.440651
664  2023-10-18 12:38:54.472574
665  2023-10-18 12:38:54.504482
666  2023-10-18 12:38:54.552327
667  2023-10-18 12:38:54.585239
668  2023-10-18 12:38:54.616156
669  2023-10-18 12:38:54.648073
670  2023-10-18 12:38:54.681015
671  2023-10-18 12:38:54.712942
672  2023-10-18 12:38:54.743872
673  2023-10-18 12:38:54.775846
674  2023-10-18 12:38:54.808863
675  2023-10-18 12:38:54.840791
676  2023-10-18 12:38:54.872712
677  2023-10-18 12:38:54.904604
678  2023-10-18 12:38:54.952449
679  2023-10-18 12:38:54.984363
680  2023-10-18 12:38:55.016278
681  2023-10-18 12:38:55.048219
682  2023-10-18 12:38:55.080177
683  2023-10-18 12:38:55.112068
684  2023-10-18 12:38:55.143968
685  2023-10-18 12:38:55.176884
686  2023-10-18 12:38:55.208814
687  2023-10-18 12:38:55.240716
688  2023-10-18 12:38:55.272621
689  2023-10-18 12:38:55.304559
690  2023-10-18 12:38:55.352380
691  2023-10-18 12:38:55.384294
692  2023-10-18 12:38:55.416209
693  2023-10-18 12:38:55.448183
694  2023-10-18 12:38:55.480073
695  2023-10-18 12:38:55.511989
696  2023-10-18 12:38:55.544870
697  2023-10-18 12:38:55.575817
698  2023-10-18 12:38:55.608734
699  2023-10-18 12:38:55.640610
700  2023-10-18 12:38:55.672590
701  2023-10-18 12:38:55.704463
702  2023-10-18 12:38:55.752310
703  2023-10-18 12:38:55.784258
704  2023-10-18 12:38:55.816140
705  2023-10-18 12:38:55.849119
706  2023-10-18 12:38:55.880004
707  2023-10-18 12:38:55.911884
708  2023-10-18 12:38:55.944796
709  2023-10-18 12:38:56.273916
710  2023-10-18 12:38:56.282938
711  2023-10-18 12:38:56.312843
712  2023-10-18 12:38:56.344728
713  2023-10-18 12:38:56.376675
714  2023-10-18 12:38:56.408596
715  2023-10-18 12:38:56.440515
716  2023-10-18 12:38:56.472434
717  2023-10-18 12:38:56.504331
718  2023-10-18 12:38:56.552266
719  2023-10-18 12:38:56.584145
720  2023-10-18 12:38:56.616114
721  2023-10-18 12:38:56.648013
722  2023-10-18 12:38:56.679916
723  2023-10-18 12:38:56.711804
724  2023-10-18 12:38:56.744716
725  2023-10-18 12:38:56.776674
726  2023-10-18 12:38:56.808570
727  2023-10-18 12:38:56.840506
728  2023-10-18 12:38:56.872413
729  2023-10-18 12:38:56.904322
730  2023-10-18 12:38:56.952161
731  2023-10-18 12:38:56.984169
732  2023-10-18 12:38:57.016164
733  2023-10-18 12:38:57.048043
734  2023-10-18 12:38:57.080073
735  2023-10-18 12:38:57.111980
736  2023-10-18 12:38:57.143889
737  2023-10-18 12:38:57.175808
738  2023-10-18 12:38:57.208731
739  2023-10-18 12:38:57.240600
740  2023-10-18 12:38:57.272595
741  2023-10-18 12:38:57.304473
742  2023-10-18 12:38:57.352340
743  2023-10-18 12:38:57.384216
744  2023-10-18 12:38:57.416172
745  2023-10-18 12:38:57.448071
746  2023-10-18 12:38:57.479992
747  2023-10-18 12:38:57.511924
748  2023-10-18 12:38:57.543799
749  2023-10-18 12:38:57.575750
750  2023-10-18 12:38:57.608702
751  2023-10-18 12:38:57.640622
752  2023-10-18 12:38:57.672523
753  2023-10-18 12:38:57.704453
754  2023-10-18 12:38:57.752309
755  2023-10-18 12:38:57.784193
756  2023-10-18 12:38:57.816152
757  2023-10-18 12:38:57.848069
758  2023-10-18 12:38:57.879985
759  2023-10-18 12:38:57.912887
760  2023-10-18 12:38:57.943907
761  2023-10-18 12:38:57.975821
762  2023-10-18 12:38:58.007865
763  2023-10-18 12:38:58.040763
764  2023-10-18 12:38:58.072678
765  2023-10-18 12:38:58.104551
766  2023-10-18 12:38:58.152422
767  2023-10-18 12:38:58.184337
768  2023-10-18 12:38:58.216253
769  2023-10-18 12:38:58.248212
770  2023-10-18 12:38:58.280103
771  2023-10-18 12:38:58.311999
772  2023-10-18 12:38:58.344908
773  2023-10-18 12:38:58.376825
774  2023-10-18 12:38:58.408787
775  2023-10-18 12:38:58.440676
776  2023-10-18 12:38:58.472599
777  2023-10-18 12:38:58.504520
778  2023-10-18 12:38:58.552384
779  2023-10-18 12:38:58.584268
780  2023-10-18 12:38:58.616209
781  2023-10-18 12:38:58.648136
782  2023-10-18 12:38:58.680082
783  2023-10-18 12:38:58.711965
784  2023-10-18 12:38:58.743896
785  2023-10-18 12:38:58.775788
786  2023-10-18 12:38:58.808710
787  2023-10-18 12:38:58.840619
788  2023-10-18 12:38:58.872532
789  2023-10-18 12:38:58.904450
790  2023-10-18 12:38:58.952284
791  2023-10-18 12:38:58.984199
792  2023-10-18 12:38:59.016185
793  2023-10-18 12:38:59.048060
794  2023-10-18 12:38:59.079975
795  2023-10-18 12:38:59.111883
796  2023-10-18 12:38:59.143804
797  2023-10-18 12:38:59.176728
798  2023-10-18 12:38:59.208653
799  2023-10-18 12:38:59.240555
800  2023-10-18 12:38:59.272460
801  2023-10-18 12:38:59.304410
802  2023-10-18 12:38:59.352246
803  2023-10-18 12:38:59.384167
804  2023-10-18 12:38:59.416083
805  2023-10-18 12:38:59.447959
806  2023-10-18 12:38:59.479920
807  2023-10-18 12:38:59.511833
808  2023-10-18 12:38:59.544757
809  2023-10-18 12:38:59.576658
810  2023-10-18 12:38:59.608574
811  2023-10-18 12:38:59.640476
812  2023-10-18 12:38:59.672387
813  2023-10-18 12:38:59.704310
814  2023-10-18 12:38:59.752146
815  2023-10-18 12:38:59.784060
816  2023-10-18 12:38:59.816029
817  2023-10-18 12:38:59.847935
818  2023-10-18 12:38:59.879837
819  2023-10-18 12:38:59.912756
820  2023-10-18 12:38:59.944672
821  2023-10-18 12:38:59.976570
822  2023-10-18 12:39:00.008494
823  2023-10-18 12:39:00.040420
824  2023-10-18 12:39:00.072336
825  2023-10-18 12:39:00.104253
826  2023-10-18 12:39:00.152076
827  2023-10-18 12:39:00.184045
828  2023-10-18 12:39:00.215956
829  2023-10-18 12:39:00.247856
830  2023-10-18 12:39:00.279769
831  2023-10-18 12:39:00.312706
832  2023-10-18 12:39:00.344600
833  2023-10-18 12:39:00.376503
834  2023-10-18 12:39:00.408417
835  2023-10-18 12:39:00.440349
836  2023-10-18 12:39:00.472269
837  2023-10-18 12:39:00.504188
838  2023-10-18 12:39:00.552007
839  2023-10-18 12:39:00.583947
840  2023-10-18 12:39:00.615868
841  2023-10-18 12:39:00.647802
842  2023-10-18 12:39:00.680729
843  2023-10-18 12:39:00.712612
844  2023-10-18 12:39:00.744526
845  2023-10-18 12:39:00.776455
846  2023-10-18 12:39:00.808370
847  2023-10-18 12:39:00.841285
848  2023-10-18 12:39:00.873150
849  2023-10-18 12:39:00.905073
850  2023-10-18 12:39:00.952937
851  2023-10-18 12:39:00.984894
852  2023-10-18 12:39:01.016801
853  2023-10-18 12:39:01.049717
854  2023-10-18 12:39:01.080595
855  2023-10-18 12:39:01.112543
856  2023-10-18 12:39:01.144458
857  2023-10-18 12:39:01.177487
858  2023-10-18 12:39:01.209367
859  2023-10-18 12:39:01.241355
860  2023-10-18 12:39:01.272273
861  2023-10-18 12:39:01.305228
862  2023-10-18 12:39:01.353087
863  2023-10-18 12:39:01.384971
864  2023-10-18 12:39:01.416903
865  2023-10-18 12:39:01.448800
866  2023-10-18 12:39:01.480793
867  2023-10-18 12:39:01.512632
868  2023-10-18 12:39:01.544562
869  2023-10-18 12:39:01.576504
870  2023-10-18 12:39:01.608375
871  2023-10-18 12:39:01.640290
872  2023-10-18 12:39:01.672202
873  2023-10-18 12:39:01.704119
874  2023-10-18 12:39:01.751991
875  2023-10-18 12:39:01.783953
876  2023-10-18 12:39:01.816860
877  2023-10-18 12:39:01.848768
878  2023-10-18 12:39:01.880649
879  2023-10-18 12:39:02.034237
880  2023-10-18 12:39:02.043253
881  2023-10-18 12:39:02.072170
882  2023-10-18 12:39:02.104091
883  2023-10-18 12:39:02.152922
884  2023-10-18 12:39:02.184892
885  2023-10-18 12:39:02.216760
886  2023-10-18 12:39:02.248710
887  2023-10-18 12:39:02.280628
888  2023-10-18 12:39:02.312534
889  2023-10-18 12:39:02.344454
890  2023-10-18 12:39:02.376353
891  2023-10-18 12:39:02.408262
892  2023-10-18 12:39:02.440150
893  2023-10-18 12:39:02.472065
894  2023-10-18 12:39:02.504016
895  2023-10-18 12:39:02.551885
896  2023-10-18 12:39:02.583827
897  2023-10-18 12:39:02.616727
898  2023-10-18 12:39:02.648618
899  2023-10-18 12:39:02.680533
900  2023-10-18 12:39:02.712373
901  2023-10-18 12:39:02.744262
902  2023-10-18 12:39:02.776351
903  2023-10-18 12:39:02.808275
904  2023-10-18 12:39:02.840322
905  2023-10-18 12:39:02.872187
906  2023-10-18 12:39:02.904105
907  2023-10-18 12:39:02.951935
908  2023-10-18 12:39:02.983882
909  2023-10-18 12:39:03.015800
910  2023-10-18 12:39:03.048729
911  2023-10-18 12:39:03.080631
912  2023-10-18 12:39:03.112540
913  2023-10-18 12:39:03.144467
914  2023-10-18 12:39:03.176369
915  2023-10-18 12:39:03.208279
916  2023-10-18 12:39:03.240200
917  2023-10-18 12:39:03.272105
918  2023-10-18 12:39:03.304034
919  2023-10-18 12:39:03.351868
920  2023-10-18 12:39:03.383805
921  2023-10-18 12:39:03.416735
922  2023-10-18 12:39:03.448638
923  2023-10-18 12:39:03.480547
924  2023-10-18 12:39:03.512469
925  2023-10-18 12:39:03.544383
926  2023-10-18 12:39:03.576300
927  2023-10-18 12:39:03.608214
928  2023-10-18 12:39:03.640141
929  2023-10-18 12:39:03.672045
930  2023-10-18 12:39:03.703963
931  2023-10-18 12:39:03.751844
932  2023-10-18 12:39:03.784753
933  2023-10-18 12:39:03.816657
934  2023-10-18 12:39:03.848565
935  2023-10-18 12:39:03.880478
936  2023-10-18 12:39:03.912402
937  2023-10-18 12:39:03.944327
938  2023-10-18 12:39:03.976249
939  2023-10-18 12:39:04.008207
940  2023-10-18 12:39:04.040069
941  2023-10-18 12:39:04.073026
942  2023-10-18 12:39:04.104942
943  2023-10-18 12:39:04.151852
944  2023-10-18 12:39:04.184728
945  2023-10-18 12:39:04.216643
946  2023-10-18 12:39:04.248557
947  2023-10-18 12:39:04.280509
948  2023-10-18 12:39:04.312411
949  2023-10-18 12:39:04.344312
950  2023-10-18 12:39:04.376216
951  2023-10-18 12:39:04.408130
952  2023-10-18 12:39:04.440086
953  2023-10-18 12:39:04.472990
954  2023-10-18 12:39:04.504915
955  2023-10-18 12:39:04.552772
956  2023-10-18 12:39:04.584697
957  2023-10-18 12:39:04.616608
958  2023-10-18 12:39:04.648366
959  2023-10-18 12:39:04.680371
960  2023-10-18 12:39:04.712292
961  2023-10-18 12:39:04.744206
962  2023-10-18 12:39:04.776119
963  2023-10-18 12:39:04.808047
964  2023-10-18 12:39:04.839943
965  2023-10-18 12:39:04.871858
966  2023-10-18 12:39:04.904777
967  2023-10-18 12:39:04.952647
968  2023-10-18 12:39:04.984565
969  2023-10-18 12:39:05.016479
970  2023-10-18 12:39:05.048386
971  2023-10-18 12:39:05.080305
972  2023-10-18 12:39:05.112237
973  2023-10-18 12:39:05.144153
974  2023-10-18 12:39:05.176019
975  2023-10-18 12:39:05.207972
976  2023-10-18 12:39:05.240880
977  2023-10-18 12:39:05.271787
978  2023-10-18 12:39:05.304707
979  2023-10-18 12:39:05.352593
980  2023-10-18 12:39:05.384486
981  2023-10-18 12:39:05.416409
982  2023-10-18 12:39:05.448324
983  2023-10-18 12:39:05.480242
984  2023-10-18 12:39:05.512182
985  2023-10-18 12:39:05.544036
986  2023-10-18 12:39:05.576980
987  2023-10-18 12:39:05.607890
988  2023-10-18 12:39:05.639811
989  2023-10-18 12:39:05.672690
990  2023-10-18 12:39:05.704637
991  2023-10-18 12:39:05.752518
992  2023-10-18 12:39:05.784436
993  2023-10-18 12:39:05.816340
994  2023-10-18 12:39:05.848278
995  2023-10-18 12:39:05.880171
996  2023-10-18 12:39:05.912098
997  2023-10-18 12:39:05.943994
998  2023-10-18 12:39:05.975914
999  2023-10-18 12:39:06.007820
1000  2023-10-18 12:39:06.040757
1001  2023-10-18 12:39:06.072655
1002  2023-10-18 12:39:06.104584
1003  2023-10-18 12:39:06.152442
1004  2023-10-18 12:39:06.184349
1005  2023-10-18 12:39:06.216298
1006  2023-10-18 12:39:06.248200
1007  2023-10-18 12:39:06.280113
1008  2023-10-18 12:39:06.312011
1009  2023-10-18 12:39:06.343935
1010  2023-10-18 12:39:06.375839
1011  2023-10-18 12:39:06.408770
1012  2023-10-18 12:39:06.440679
1013  2023-10-18 12:39:06.472586
1014  2023-10-18 12:39:06.504498
1015  2023-10-18 12:39:06.552378
1016  2023-10-18 12:39:06.584282
1017  2023-10-18 12:39:06.616170
1018  2023-10-18 12:39:06.648123
1019  2023-10-18 12:39:06.680036
1020  2023-10-18 12:39:06.711946
1021  2023-10-18 12:39:06.743870
1022  2023-10-18 12:39:06.775778
1023  2023-10-18 12:39:06.808661
1024  2023-10-18 12:39:06.840615
1025  2023-10-18 12:39:06.872559
1026  2023-10-18 12:39:06.904474
1027  2023-10-18 12:39:06.952350
1028  2023-10-18 12:39:06.984295
1029  2023-10-18 12:39:07.016233
1030  2023-10-18 12:39:07.048696
1031  2023-10-18 12:39:07.080610
1032  2023-10-18 12:39:07.112529
1033  2023-10-18 12:39:07.144437
1034  2023-10-18 12:39:07.176360
1035  2023-10-18 12:39:07.208234
1036  2023-10-18 12:39:07.240175
1037  2023-10-18 12:39:07.272067
1038  2023-10-18 12:39:07.304011
1039  2023-10-18 12:39:07.352963
1040  2023-10-18 12:39:07.383909
1041  2023-10-18 12:39:07.415824
1042  2023-10-18 12:39:07.448735
1043  2023-10-18 12:39:07.480651
1044  2023-10-18 12:39:07.512566
1045  2023-10-18 12:39:07.544481
1046  2023-10-18 12:39:07.576394
1047  2023-10-18 12:39:07.608309
1048  2023-10-18 12:39:07.640291
1049  2023-10-18 12:39:07.672215
1050  2023-10-18 12:39:07.704127
1051  2023-10-18 12:39:07.752994
1052  2023-10-18 12:39:07.783913
1053  2023-10-18 12:39:07.815826
1054  2023-10-18 12:39:07.848742
1055  2023-10-18 12:39:07.880654
1056  2023-10-18 12:39:07.912566
1057  2023-10-18 12:39:07.944487
1058  2023-10-18 12:39:07.976400
1059  2023-10-18 12:39:08.008288
1060  2023-10-18 12:39:08.041222
1061  2023-10-18 12:39:08.073139
1062  2023-10-18 12:39:08.104024
1063  2023-10-18 12:39:08.151944
1064  2023-10-18 12:39:08.183883
1065  2023-10-18 12:39:08.216733
1066  2023-10-18 12:39:08.248693
1067  2023-10-18 12:39:08.280586
1068  2023-10-18 12:39:08.312494
1069  2023-10-18 12:39:08.344393
1070  2023-10-18 12:39:08.376336
1071  2023-10-18 12:39:08.408255
1072  2023-10-18 12:39:08.440189
1073  2023-10-18 12:39:08.473071
1074  2023-10-18 12:39:08.504953
1075  2023-10-18 12:39:08.552900
1076  2023-10-18 12:39:08.584742
1077  2023-10-18 12:39:08.616695
1078  2023-10-18 12:39:08.648570
1079  2023-10-18 12:39:08.680486
1080  2023-10-18 12:39:08.712489
1081  2023-10-18 12:39:08.744373
1082  2023-10-18 12:39:08.776288
1083  2023-10-18 12:39:08.808203
1084  2023-10-18 12:39:08.840133
1085  2023-10-18 12:39:08.872044
1086  2023-10-18 12:39:08.904919
1087  2023-10-18 12:39:08.952792
1088  2023-10-18 12:39:08.984707
1089  2023-10-18 12:39:09.016620
1090  2023-10-18 12:39:09.048574
1091  2023-10-18 12:39:09.080489
1092  2023-10-18 12:39:09.112366
1093  2023-10-18 12:39:09.144331
1094  2023-10-18 12:39:09.176226
1095  2023-10-18 12:39:09.208150
1096  2023-10-18 12:39:09.240062
1097  2023-10-18 12:39:09.272035
1098  2023-10-18 12:39:09.303947
1099  2023-10-18 12:39:09.352821
1100  2023-10-18 12:39:09.384743
1101  2023-10-18 12:39:09.416643
1102  2023-10-18 12:39:09.448562
1103  2023-10-18 12:39:09.480476
1104  2023-10-18 12:39:09.512412
1105  2023-10-18 12:39:09.544308
1106  2023-10-18 12:39:09.576224
1107  2023-10-18 12:39:09.608138
1108  2023-10-18 12:39:09.640050
1109  2023-10-18 12:39:09.671964
1110  2023-10-18 12:39:09.704879
1111  2023-10-18 12:39:09.751751
1112  2023-10-18 12:39:09.784700
1113  2023-10-18 12:39:09.816596
1114  2023-10-18 12:39:09.848494
1115  2023-10-18 12:39:09.880411
1116  2023-10-18 12:39:09.912293
1117  2023-10-18 12:39:09.944206
1118  2023-10-18 12:39:09.976163
1119  2023-10-18 12:39:10.008070
1120  2023-10-18 12:39:10.040006
1121  2023-10-18 12:39:10.071899
1122  2023-10-18 12:39:10.103813
1123  2023-10-18 12:39:10.152679
1124  2023-10-18 12:39:10.184565
1125  2023-10-18 12:39:10.216503
1126  2023-10-18 12:39:10.248424
1127  2023-10-18 12:39:10.280338
1128  2023-10-18 12:39:10.312253
1129  2023-10-18 12:39:10.344176
1130  2023-10-18 12:39:10.376077
1131  2023-10-18 12:39:10.408032
1132  2023-10-18 12:39:10.439881
1133  2023-10-18 12:39:10.472793
1134  2023-10-18 12:39:10.504766
1135  2023-10-18 12:39:10.552582
1136  2023-10-18 12:39:10.584533
1137  2023-10-18 12:39:10.616440
1138  2023-10-18 12:39:10.648325
1139  2023-10-18 12:39:10.680313
1140  2023-10-18 12:39:10.712189
1141  2023-10-18 12:39:10.744068
1142  2023-10-18 12:39:10.776015
1143  2023-10-18 12:39:10.807931
1144  2023-10-18 12:39:10.840859
1145  2023-10-18 12:39:10.872756
1146  2023-10-18 12:39:10.904638
1147  2023-10-18 12:39:10.952544
1148  2023-10-18 12:39:10.984453
1149  2023-10-18 12:39:11.016383
1150  2023-10-18 12:39:11.048290
1151  2023-10-18 12:39:11.080171
1152  2023-10-18 12:39:11.112086
1153  2023-10-18 12:39:11.144027
1154  2023-10-18 12:39:11.175948
1155  2023-10-18 12:39:11.207876
1156  2023-10-18 12:39:11.240775
1157  2023-10-18 12:39:11.272657
1158  2023-10-18 12:39:11.304603
1159  2023-10-18 12:39:11.352469
1160  2023-10-18 12:39:11.384387
1161  2023-10-18 12:39:11.416314
1162  2023-10-18 12:39:11.448227
1163  2023-10-18 12:39:11.480141
1164  2023-10-18 12:39:11.512140
1165  2023-10-18 12:39:11.544089
1166  2023-10-18 12:39:11.576017
1167  2023-10-18 12:39:11.607930
1168  2023-10-18 12:39:11.639921
1169  2023-10-18 12:39:11.672829
1170  2023-10-18 12:39:11.704737
1171  2023-10-18 12:39:11.752611
1172  2023-10-18 12:39:11.784543
1173  2023-10-18 12:39:11.816455
1174  2023-10-18 12:39:11.848351
1175  2023-10-18 12:39:11.880275
1176  2023-10-18 12:39:11.912200
1177  2023-10-18 12:39:11.944112
1178  2023-10-18 12:39:11.976017
1179  2023-10-18 12:39:12.007932
1180  2023-10-18 12:39:12.039847
1181  2023-10-18 12:39:12.072786
1182  2023-10-18 12:39:12.104689
1183  2023-10-18 12:39:12.152545
1184  2023-10-18 12:39:12.184481
1185  2023-10-18 12:39:12.216369
1186  2023-10-18 12:39:12.248287
1187  2023-10-18 12:39:12.280196
1188  2023-10-18 12:39:12.312126
1189  2023-10-18 12:39:12.344038
1190  2023-10-18 12:39:12.375942
1191  2023-10-18 12:39:12.408862
1192  2023-10-18 12:39:12.440775
1193  2023-10-18 12:39:12.472714
1194  2023-10-18 12:39:12.504602
1195  2023-10-18 12:39:12.552474
1196  2023-10-18 12:39:12.584393
1197  2023-10-18 12:39:12.616303
1198  2023-10-18 12:39:12.648187
1199  2023-10-18 12:39:12.756897
1200  2023-10-18 12:39:12.775878
1201  2023-10-18 12:39:12.808794
1202  2023-10-18 12:39:12.840736
1203  2023-10-18 12:39:12.872637
1204  2023-10-18 12:39:12.904568
1205  2023-10-18 12:39:12.952374
1206  2023-10-18 12:39:12.984289
1207  2023-10-18 12:39:13.016205
1208  2023-10-18 12:39:13.049170
1209  2023-10-18 12:39:13.080034
1210  2023-10-18 12:39:13.111947
1211  2023-10-18 12:39:13.144896
1212  2023-10-18 12:39:13.176800
1213  2023-10-18 12:39:13.208691
1214  2023-10-18 12:39:13.240640
1215  2023-10-18 12:39:13.272551
1216  2023-10-18 12:39:13.304433
1217  2023-10-18 12:39:13.352306
1218  2023-10-18 12:39:13.384246
1219  2023-10-18 12:39:13.416171
1220  2023-10-18 12:39:13.448077
1221  2023-10-18 12:39:13.479995
1222  2023-10-18 12:39:13.512908
1223  2023-10-18 12:39:13.544827
1224  2023-10-18 12:39:13.576762
1225  2023-10-18 12:39:13.608650
1226  2023-10-18 12:39:13.640564
1227  2023-10-18 12:39:13.672494
1228  2023-10-18 12:39:13.704426
1229  2023-10-18 12:39:13.752270
1230  2023-10-18 12:39:13.784186
1231  2023-10-18 12:39:13.816109
1232  2023-10-18 12:39:13.848022
1233  2023-10-18 12:39:13.880893
1234  2023-10-18 12:39:13.912832
1235  2023-10-18 12:39:13.944754
1236  2023-10-18 12:39:13.976695
1237  2023-10-18 12:39:14.008582
1238  2023-10-18 12:39:14.040508
1239  2023-10-18 12:39:14.072418
1240  2023-10-18 12:39:14.104329
1241  2023-10-18 12:39:14.152201
1242  2023-10-18 12:39:14.184112
1243  2023-10-18 12:39:14.216026
1244  2023-10-18 12:39:14.247943
1245  2023-10-18 12:39:14.280855
1246  2023-10-18 12:39:14.312764
1247  2023-10-18 12:39:14.344716
1248  2023-10-18 12:39:14.376594
1249  2023-10-18 12:39:14.408526
1250  2023-10-18 12:39:14.440444
1251  2023-10-18 12:39:14.472340
1252  2023-10-18 12:39:14.504274
1253  2023-10-18 12:39:14.552131
1254  2023-10-18 12:39:14.584065
1255  2023-10-18 12:39:14.615957
1256  2023-10-18 12:39:14.647888
1257  2023-10-18 12:39:14.679790
1258  2023-10-18 12:39:14.712700
1259  2023-10-18 12:39:14.744613
1260  2023-10-18 12:39:14.776521
1261  2023-10-18 12:39:14.808437
1262  2023-10-18 12:39:14.840328
1263  2023-10-18 12:39:14.872290
1264  2023-10-18 12:39:14.904260
1265  2023-10-18 12:39:14.952541
1266  2023-10-18 12:39:14.984481
1267  2023-10-18 12:39:15.016541
1268  2023-10-18 12:39:15.048446
1269  2023-10-18 12:39:15.080370
1270  2023-10-18 12:39:15.112277
1271  2023-10-18 12:39:15.144247
1272  2023-10-18 12:39:15.176126
1273  2023-10-18 12:39:15.208039
1274  2023-10-18 12:39:15.240941
1275  2023-10-18 12:39:15.272822
1276  2023-10-18 12:39:15.303788
1277  2023-10-18 12:39:15.352640
1278  2023-10-18 12:39:15.384554
1279  2023-10-18 12:39:15.416468
1280  2023-10-18 12:39:15.448385
1281  2023-10-18 12:39:15.480326
1282  2023-10-18 12:39:15.513181
1283  2023-10-18 12:39:15.544142
1284  2023-10-18 12:39:15.576045
1285  2023-10-18 12:39:15.607960
1286  2023-10-18 12:39:15.640870
1287  2023-10-18 12:39:15.672780
1288  2023-10-18 12:39:15.704698
1289  2023-10-18 12:39:15.752612
1290  2023-10-18 12:39:15.784534
1291  2023-10-18 12:39:15.816817
1292  2023-10-18 12:39:15.848731
1293  2023-10-18 12:39:15.880722
1294  2023-10-18 12:39:15.912627
1295  2023-10-18 12:39:15.944536
1296  2023-10-18 12:39:15.976450
1297  2023-10-18 12:39:16.008401
1298  2023-10-18 12:39:16.040252
1299  2023-10-18 12:39:16.072167
1300  2023-10-18 12:39:16.104120
1301  2023-10-18 12:39:16.151988
1302  2023-10-18 12:39:16.184866
1303  2023-10-18 12:39:16.216806
1304  2023-10-18 12:39:16.248734
1305  2023-10-18 12:39:16.280652
1306  2023-10-18 12:39:16.312554
1307  2023-10-18 12:39:16.344471
1308  2023-10-18 12:39:16.376379
1309  2023-10-18 12:39:16.408293
1310  2023-10-18 12:39:16.440183
1311  2023-10-18 12:39:16.472168
1312  2023-10-18 12:39:16.504053
1313  2023-10-18 12:39:16.551918
1314  2023-10-18 12:39:16.583843
1315  2023-10-18 12:39:16.615745
1316  2023-10-18 12:39:16.648660
1317  2023-10-18 12:39:16.680566
1318  2023-10-18 12:39:16.712479
1319  2023-10-18 12:39:16.744404
1320  2023-10-18 12:39:16.776329
1321  2023-10-18 12:39:16.808226
1322  2023-10-18 12:39:16.840162
1323  2023-10-18 12:39:16.872028
1324  2023-10-18 12:39:16.904971
1325  2023-10-18 12:39:16.951847
1326  2023-10-18 12:39:16.983786
1327  2023-10-18 12:39:17.016667
1328  2023-10-18 12:39:17.048583
1329  2023-10-18 12:39:17.080504
1330  2023-10-18 12:39:17.112419
1331  2023-10-18 12:39:17.144341
1332  2023-10-18 12:39:17.176240
1333  2023-10-18 12:39:17.208172
1334  2023-10-18 12:39:17.241042
1335  2023-10-18 12:39:17.271993
1336  2023-10-18 12:39:17.303910
1337  2023-10-18 12:39:17.351796
1338  2023-10-18 12:39:17.384692
1339  2023-10-18 12:39:17.416606
1340  2023-10-18 12:39:17.448514
1341  2023-10-18 12:39:17.480427
1342  2023-10-18 12:39:17.512343
1343  2023-10-18 12:39:17.544259
1344  2023-10-18 12:39:17.576188
1345  2023-10-18 12:39:17.608184
1346  2023-10-18 12:39:17.640068
1347  2023-10-18 12:39:17.671994
1348  2023-10-18 12:39:17.703896
1349  2023-10-18 12:39:17.752751
1350  2023-10-18 12:39:17.784702
1351  2023-10-18 12:39:17.816565
1352  2023-10-18 12:39:17.848479
1353  2023-10-18 12:39:17.881391
1354  2023-10-18 12:39:17.912316
1355  2023-10-18 12:39:17.944282
1356  2023-10-18 12:39:17.976215
1357  2023-10-18 12:39:18.008056
1358  2023-10-18 12:39:18.039966
1359  2023-10-18 12:39:18.071914
1360  2023-10-18 12:39:18.103829
1361  2023-10-18 12:39:18.152702
1362  2023-10-18 12:39:18.184624
1363  2023-10-18 12:39:18.216526
1364  2023-10-18 12:39:18.248439
1365  2023-10-18 12:39:18.280362
1366  2023-10-18 12:39:18.312277
1367  2023-10-18 12:39:18.344188
1368  2023-10-18 12:39:18.376097
1369  2023-10-18 12:39:18.408046
1370  2023-10-18 12:39:18.439929
1371  2023-10-18 12:39:18.472839
1372  2023-10-18 12:39:18.504783
1373  2023-10-18 12:39:18.552635
1374  2023-10-18 12:39:18.584536
1375  2023-10-18 12:39:18.616463
1376  2023-10-18 12:39:18.648365
1377  2023-10-18 12:39:18.680283
1378  2023-10-18 12:39:18.712217
1379  2023-10-18 12:39:18.744133
1380  2023-10-18 12:39:18.776053
1381  2023-10-18 12:39:18.807946
1382  2023-10-18 12:39:18.840873
1383  2023-10-18 12:39:18.872740
1384  2023-10-18 12:39:18.904654
1385  2023-10-18 12:39:18.952568
1386  2023-10-18 12:39:18.984479
1387  2023-10-18 12:39:19.016398
1388  2023-10-18 12:39:19.048298
1389  2023-10-18 12:39:19.080220
1390  2023-10-18 12:39:19.112134
1391  2023-10-18 12:39:19.144060
1392  2023-10-18 12:39:19.175970
1393  2023-10-18 12:39:19.207844
1394  2023-10-18 12:39:19.240804
1395  2023-10-18 12:39:19.272671
1396  2023-10-18 12:39:19.304633
1397  2023-10-18 12:39:19.352502
1398  2023-10-18 12:39:19.384417
1399  2023-10-18 12:39:19.416329
1400  2023-10-18 12:39:19.448226
1401  2023-10-18 12:39:19.484107
1402  2023-10-18 12:39:19.512057
1403  2023-10-18 12:39:19.543993
1404  2023-10-18 12:39:19.576888
1405  2023-10-18 12:39:19.607806
1406  2023-10-18 12:39:19.640743
1407  2023-10-18 12:39:19.672601
1408  2023-10-18 12:39:19.704516
1409  2023-10-18 12:39:19.752491
1410  2023-10-18 12:39:19.784489
1411  2023-10-18 12:39:19.816404
1412  2023-10-18 12:39:19.848318
1413  2023-10-18 12:39:19.880305
1414  2023-10-18 12:39:19.912227
1415  2023-10-18 12:39:19.944174
1416  2023-10-18 12:39:19.976056
1417  2023-10-18 12:39:20.008937
1418  2023-10-18 12:39:20.039898
1419  2023-10-18 12:39:20.072766
1420  2023-10-18 12:39:20.104681
1421  2023-10-18 12:39:20.152596
1422  2023-10-18 12:39:20.184509
1423  2023-10-18 12:39:20.216409
1424  2023-10-18 12:39:20.248330
1425  2023-10-18 12:39:20.280245
1426  2023-10-18 12:39:20.312184
1427  2023-10-18 12:39:20.344076
1428  2023-10-18 12:39:20.375987
1429  2023-10-18 12:39:20.407907
1430  2023-10-18 12:39:20.440782
1431  2023-10-18 12:39:20.472697
1432  2023-10-18 12:39:20.504611
1433  2023-10-18 12:39:20.552509
1434  2023-10-18 12:39:20.585429
1435  2023-10-18 12:39:20.616344
1436  2023-10-18 12:39:20.648273
1437  2023-10-18 12:39:20.680169
1438  2023-10-18 12:39:20.713117
1439  2023-10-18 12:39:20.744997
1440  2023-10-18 12:39:20.775945
1441  2023-10-18 12:39:20.808863
1442  2023-10-18 12:39:20.840713
1443  2023-10-18 12:39:20.872677
1444  2023-10-18 12:39:20.904543
1445  2023-10-18 12:39:20.952416
1446  2023-10-18 12:39:20.984362
1447  2023-10-18 12:39:21.016270
1448  2023-10-18 12:39:21.048192
1449  2023-10-18 12:39:21.080074
1450  2023-10-18 12:39:21.112029
1451  2023-10-18 12:39:21.143945
1452  2023-10-18 12:39:21.176871
1453  2023-10-18 12:39:21.208729
1454  2023-10-18 12:39:21.240644
1455  2023-10-18 12:39:21.272559
1456  2023-10-18 12:39:21.304527
1457  2023-10-18 12:39:21.352378
1458  2023-10-18 12:39:21.384295
1459  2023-10-18 12:39:21.416209
1460  2023-10-18 12:39:21.448125
1461  2023-10-18 12:39:21.480006
1462  2023-10-18 12:39:21.511947
1463  2023-10-18 12:39:21.544863
1464  2023-10-18 12:39:21.576777
1465  2023-10-18 12:39:21.608661
1466  2023-10-18 12:39:21.640628
1467  2023-10-18 12:39:21.672529
1468  2023-10-18 12:39:21.704404
1469  2023-10-18 12:39:21.752306
1470  2023-10-18 12:39:21.784294
1471  2023-10-18 12:39:21.816177
1472  2023-10-18 12:39:21.848183
1473  2023-10-18 12:39:21.880087
1474  2023-10-18 12:39:21.911996
1475  2023-10-18 12:39:21.944923
1476  2023-10-18 12:39:21.976825
1477  2023-10-18 12:39:22.008739
1478  2023-10-18 12:39:22.040664
1479  2023-10-18 12:39:22.072534
1480  2023-10-18 12:39:22.104473
1481  2023-10-18 12:39:22.152244
1482  2023-10-18 12:39:22.184366
1483  2023-10-18 12:39:22.216317
1484  2023-10-18 12:39:22.248262
1485  2023-10-18 12:39:22.280153
1486  2023-10-18 12:39:22.312088
1487  2023-10-18 12:39:22.343990
1488  2023-10-18 12:39:22.375859
1489  2023-10-18 12:39:22.408771
1490  2023-10-18 12:39:22.440689
1491  2023-10-18 12:39:22.472649
1492  2023-10-18 12:39:22.504515
1493  2023-10-18 12:39:22.552423
1494  2023-10-18 12:39:22.584303
1495  2023-10-18 12:39:22.616265
1496  2023-10-18 12:39:22.648193
1497  2023-10-18 12:39:22.680105
1498  2023-10-18 12:39:22.712006
1499  2023-10-18 12:39:22.743910
1500  2023-10-18 12:39:22.776787
1501  2023-10-18 12:39:22.808754
1502  2023-10-18 12:39:22.840616
1503  2023-10-18 12:39:22.872531
1504  2023-10-18 12:39:22.904446
1505  2023-10-18 12:39:22.952360
1506  2023-10-18 12:39:22.984281
1507  2023-10-18 12:39:23.016298
1508  2023-10-18 12:39:23.048196
1509  2023-10-18 12:39:23.080140
1510  2023-10-18 12:39:23.112027
1511  2023-10-18 12:39:23.143938
1512  2023-10-18 12:39:23.175824
1513  2023-10-18 12:39:23.208736
1514  2023-10-18 12:39:23.240651
1515  2023-10-18 12:39:23.272566
1516  2023-10-18 12:39:23.304481
1517  2023-10-18 12:39:23.352501
1518  2023-10-18 12:39:23.384437
1519  2023-10-18 12:39:23.416330
1520  2023-10-18 12:39:23.448245
1521  2023-10-18 12:39:23.480174
1522  2023-10-18 12:39:23.513050
1523  2023-10-18 12:39:23.544964
1524  2023-10-18 12:39:23.576877
1525  2023-10-18 12:39:23.608802
1526  2023-10-18 12:39:23.640706
1527  2023-10-18 12:39:23.672621
1528  2023-10-18 12:39:23.704535
1529  2023-10-18 12:39:23.752408
1530  2023-10-18 12:39:23.784324
1531  2023-10-18 12:39:23.816271
1532  2023-10-18 12:39:23.848153
1533  2023-10-18 12:39:23.932972
1534  2023-10-18 12:39:23.943933
1535  2023-10-18 12:39:23.976860
1536  2023-10-18 12:39:24.008759
1537  2023-10-18 12:39:24.039794
1538  2023-10-18 12:39:24.072706
1539  2023-10-18 12:39:24.104621
1540  2023-10-18 12:39:24.152525
1541  2023-10-18 12:39:24.184438
1542  2023-10-18 12:39:24.216324
1543  2023-10-18 12:39:24.248283
1544  2023-10-18 12:39:24.280182
1545  2023-10-18 12:39:24.312109
1546  2023-10-18 12:39:24.344049
1547  2023-10-18 12:39:24.376075
1548  2023-10-18 12:39:24.407991
1549  2023-10-18 12:39:24.439900
1550  2023-10-18 12:39:24.472516
1551  2023-10-18 12:39:24.520502
1552  2023-10-18 12:39:24.552735
1553  2023-10-18 12:39:24.584636
1554  2023-10-18 12:39:24.616573
1555  2023-10-18 12:39:24.648466
1556  2023-10-18 12:39:24.680389
1557  2023-10-18 12:39:24.712305
1558  2023-10-18 12:39:24.744191
1559  2023-10-18 12:39:24.776820
1560  2023-10-18 12:39:24.808754
1561  2023-10-18 12:39:24.840613
1562  2023-10-18 12:39:24.872577
1563  2023-10-18 12:39:24.920492
1564  2023-10-18 12:39:24.952406
1565  2023-10-18 12:39:24.984343
1566  2023-10-18 12:39:25.016194
1567  2023-10-18 12:39:25.048142
1568  2023-10-18 12:39:25.080055
1569  2023-10-18 12:39:25.111970
1570  2023-10-18 12:39:25.143853
1571  2023-10-18 12:39:25.176823
1572  2023-10-18 12:39:25.208679
1573  2023-10-18 12:39:25.240593
1574  2023-10-18 12:39:25.272510
1575  2023-10-18 12:39:25.320413
1576  2023-10-18 12:39:25.352301
1577  2023-10-18 12:39:25.384248
1578  2023-10-18 12:39:25.416158
1579  2023-10-18 12:39:25.448065
1580  2023-10-18 12:39:25.479996
1581  2023-10-18 12:39:25.511913
1582  2023-10-18 12:39:25.544844
1583  2023-10-18 12:39:25.576695
1584  2023-10-18 12:39:25.608610
1585  2023-10-18 12:39:25.640524
1586  2023-10-18 12:39:25.672439
1587  2023-10-18 12:39:25.720356
1588  2023-10-18 12:39:25.752259
1589  2023-10-18 12:39:25.784174
1590  2023-10-18 12:39:25.816109
1591  2023-10-18 12:39:25.847997
1592  2023-10-18 12:39:25.879886
1593  2023-10-18 12:39:25.912826
1594  2023-10-18 12:39:25.944711
1595  2023-10-18 12:39:25.976629
1596  2023-10-18 12:39:26.008541
1597  2023-10-18 12:39:26.040461
1598  2023-10-18 12:39:26.072370
1599  2023-10-18 12:39:26.120247
1600  2023-10-18 12:39:26.152157
1601  2023-10-18 12:39:26.184125
1602  2023-10-18 12:39:26.217035
1603  2023-10-18 12:39:26.248916
1604  2023-10-18 12:39:26.280860
1605  2023-10-18 12:39:26.312772
1606  2023-10-18 12:39:26.344671
1607  2023-10-18 12:39:26.376585
1608  2023-10-18 12:39:26.408471
1609  2023-10-18 12:39:26.440386
1610  2023-10-18 12:39:26.472301
1611  2023-10-18 12:39:26.520200
1612  2023-10-18 12:39:26.552140
1613  2023-10-18 12:39:26.584039
1614  2023-10-18 12:39:26.615952
1615  2023-10-18 12:39:26.647866
1616  2023-10-18 12:39:26.680798
1617  2023-10-18 12:39:26.712714
1618  2023-10-18 12:39:26.744573
1619  2023-10-18 12:39:26.777539
1620  2023-10-18 12:39:26.808445
1621  2023-10-18 12:39:26.841342
1622  2023-10-18 12:39:26.873263
1623  2023-10-18 12:39:26.921126
1624  2023-10-18 12:39:26.953052
1625  2023-10-18 12:39:26.984930
1626  2023-10-18 12:39:27.016890
1627  2023-10-18 12:39:27.048760
1628  2023-10-18 12:39:27.080711
1629  2023-10-18 12:39:27.112631
1630  2023-10-18 12:39:27.144504
1631  2023-10-18 12:39:27.176452
1632  2023-10-18 12:39:27.209331
1633  2023-10-18 12:39:27.241258
1634  2023-10-18 12:39:27.273184
1635  2023-10-18 12:39:27.321086
1636  2023-10-18 12:39:27.352993
1637  2023-10-18 12:39:27.384888
1638  2023-10-18 12:39:27.416822
1639  2023-10-18 12:39:27.448692
1640  2023-10-18 12:39:27.480647
1641  2023-10-18 12:39:27.512552
1642  2023-10-18 12:39:27.544435
1643  2023-10-18 12:39:27.577348
1644  2023-10-18 12:39:27.609263
1645  2023-10-18 12:39:27.641210
1646  2023-10-18 12:39:27.673124
1647  2023-10-18 12:39:27.720952
1648  2023-10-18 12:39:27.752832
1649  2023-10-18 12:39:27.784805
1650  2023-10-18 12:39:27.816708
1651  2023-10-18 12:39:27.849582
1652  2023-10-18 12:39:27.880918
1653  2023-10-18 12:39:27.912833
1654  2023-10-18 12:39:27.944809
1655  2023-10-18 12:39:27.976776
1656  2023-10-18 12:39:28.008685
1657  2023-10-18 12:39:28.040609
1658  2023-10-18 12:39:28.072489
1659  2023-10-18 12:39:28.120392
1660  2023-10-18 12:39:28.152306
1661  2023-10-18 12:39:28.184233
1662  2023-10-18 12:39:28.217149
1663  2023-10-18 12:39:28.248064
1664  2023-10-18 12:39:28.280978
1665  2023-10-18 12:39:28.312890
1666  2023-10-18 12:39:28.344796
1667  2023-10-18 12:39:28.376739
1668  2023-10-18 12:39:28.408590
1669  2023-10-18 12:39:28.440505
1670  2023-10-18 12:39:28.472450
1671  2023-10-18 12:39:28.520400
1672  2023-10-18 12:39:28.552298
1673  2023-10-18 12:39:28.584247
1674  2023-10-18 12:39:28.616153
1675  2023-10-18 12:39:28.648047
1676  2023-10-18 12:39:28.679962
1677  2023-10-18 12:39:28.711873
1678  2023-10-18 12:39:28.744750
1679  2023-10-18 12:39:28.776665
1680  2023-10-18 12:39:28.808611
1681  2023-10-18 12:39:28.840494
1682  2023-10-18 12:39:28.872409
1683  2023-10-18 12:39:28.920312
1684  2023-10-18 12:39:28.952195
1685  2023-10-18 12:39:28.984143
1686  2023-10-18 12:39:29.016080
1687  2023-10-18 12:39:29.048066
1688  2023-10-18 12:39:29.079982
1689  2023-10-18 12:39:29.111887
1690  2023-10-18 12:39:29.144822
1691  2023-10-18 12:39:29.176690
1692  2023-10-18 12:39:29.208605
1693  2023-10-18 12:39:29.240519
1694  2023-10-18 12:39:29.272466
1695  2023-10-18 12:39:29.320356
1696  2023-10-18 12:39:29.352303
1697  2023-10-18 12:39:29.384185
1698  2023-10-18 12:39:29.416089
1699  2023-10-18 12:39:29.448996
1700  2023-10-18 12:39:29.479812
1701  2023-10-18 12:39:29.512733
1702  2023-10-18 12:39:29.544693
1703  2023-10-18 12:39:29.576608
1704  2023-10-18 12:39:29.608558
1705  2023-10-18 12:39:29.640463
1706  2023-10-18 12:39:29.672361
1707  2023-10-18 12:39:29.720261
1708  2023-10-18 12:39:29.753167
1709  2023-10-18 12:39:29.784085
1710  2023-10-18 12:39:29.816032
1711  2023-10-18 12:39:29.848912
1712  2023-10-18 12:39:29.880830
1713  2023-10-18 12:39:29.912709
1714  2023-10-18 12:39:29.944626
1715  2023-10-18 12:39:29.976573
1716  2023-10-18 12:39:30.008484
1717  2023-10-18 12:39:30.040400
1718  2023-10-18 12:39:30.072311
1719  2023-10-18 12:39:30.120187
1720  2023-10-18 12:39:30.152107
1721  2023-10-18 12:39:30.184022
1722  2023-10-18 12:39:30.215932
1723  2023-10-18 12:39:30.247868
1724  2023-10-18 12:39:30.280760
1725  2023-10-18 12:39:30.312676
1726  2023-10-18 12:39:30.344582
1727  2023-10-18 12:39:30.376469
1728  2023-10-18 12:39:30.408413
1729  2023-10-18 12:39:30.440325
1730  2023-10-18 12:39:30.472215
1731  2023-10-18 12:39:30.520122
1732  2023-10-18 12:39:30.552061
1733  2023-10-18 12:39:30.583946
1734  2023-10-18 12:39:30.616858
1735  2023-10-18 12:39:30.647769
1736  2023-10-18 12:39:30.680691
1737  2023-10-18 12:39:30.712571
1738  2023-10-18 12:39:30.744517
1739  2023-10-18 12:39:30.776428
1740  2023-10-18 12:39:30.808348
1741  2023-10-18 12:39:30.840229
1742  2023-10-18 12:39:30.872145
1743  2023-10-18 12:39:30.920054
1744  2023-10-18 12:39:30.951958
1745  2023-10-18 12:39:30.983880
1746  2023-10-18 12:39:31.015816
1747  2023-10-18 12:39:31.048715
1748  2023-10-18 12:39:31.080618
1749  2023-10-18 12:39:31.112553
1750  2023-10-18 12:39:31.144464
1751  2023-10-18 12:39:31.176470
1752  2023-10-18 12:39:31.208332
1753  2023-10-18 12:39:31.240275
1754  2023-10-18 12:39:31.272190
1755  2023-10-18 12:39:31.320083
1756  2023-10-18 12:39:31.351976
1757  2023-10-18 12:39:31.383894
1758  2023-10-18 12:39:31.415809
1759  2023-10-18 12:39:31.448733
1760  2023-10-18 12:39:31.480613
1761  2023-10-18 12:39:31.512545
1762  2023-10-18 12:39:31.544518
1763  2023-10-18 12:39:31.576402
1764  2023-10-18 12:39:31.608357
1765  2023-10-18 12:39:31.640244
1766  2023-10-18 12:39:31.672146
1767  2023-10-18 12:39:31.721027
1768  2023-10-18 12:39:31.752956
1769  2023-10-18 12:39:31.783880
1770  2023-10-18 12:39:31.815786
1771  2023-10-18 12:39:31.848727
1772  2023-10-18 12:39:31.880622
1773  2023-10-18 12:39:31.912503
1774  2023-10-18 12:39:31.944449
1775  2023-10-18 12:39:31.976369
1776  2023-10-18 12:39:32.008272
1777  2023-10-18 12:39:32.040221
1778  2023-10-18 12:39:32.072104
1779  2023-10-18 12:39:32.119976
1780  2023-10-18 12:39:32.151891
1781  2023-10-18 12:39:32.184814
1782  2023-10-18 12:39:32.216725
1783  2023-10-18 12:39:32.248630
1784  2023-10-18 12:39:32.280552
1785  2023-10-18 12:39:32.312434
1786  2023-10-18 12:39:32.344349
1787  2023-10-18 12:39:32.376297
1788  2023-10-18 12:39:32.408178
1789  2023-10-18 12:39:32.440121
1790  2023-10-18 12:39:32.473041
1791  2023-10-18 12:39:32.519928
1792  2023-10-18 12:39:32.551799
1793  2023-10-18 12:39:32.584745
1794  2023-10-18 12:39:32.616652
1795  2023-10-18 12:39:32.648567
1796  2023-10-18 12:39:32.680455
1797  2023-10-18 12:39:32.712414
1798  2023-10-18 12:39:32.744311
1799  2023-10-18 12:39:32.776194
1800  2023-10-18 12:39:32.808153
1801  2023-10-18 12:39:32.840056
1802  2023-10-18 12:39:32.871938
1803  2023-10-18 12:39:32.920840
1804  2023-10-18 12:39:32.952764
1805  2023-10-18 12:39:32.984669
1806  2023-10-18 12:39:33.016632
1807  2023-10-18 12:39:33.048674
1808  2023-10-18 12:39:33.080595
1809  2023-10-18 12:39:33.113505
1810  2023-10-18 12:39:33.144405
1811  2023-10-18 12:39:33.176316
1812  2023-10-18 12:39:33.208234
1813  2023-10-18 12:39:33.241161
1814  2023-10-18 12:39:33.272081
1815  2023-10-18 12:39:33.320903
1816  2023-10-18 12:39:33.351846
1817  2023-10-18 12:39:33.384784
1818  2023-10-18 12:39:33.416680
1819  2023-10-18 12:39:33.448562
1820  2023-10-18 12:39:33.481499
1821  2023-10-18 12:39:33.513420
1822  2023-10-18 12:39:33.544343
1823  2023-10-18 12:39:33.576256
1824  2023-10-18 12:39:33.609165
1825  2023-10-18 12:39:33.641081
1826  2023-10-18 12:39:33.672962
1827  2023-10-18 12:39:33.721877
1828  2023-10-18 12:39:33.752786
1829  2023-10-18 12:39:33.784701
1830  2023-10-18 12:39:33.816616
1831  2023-10-18 12:39:33.848530
1832  2023-10-18 12:39:33.880480
1833  2023-10-18 12:39:33.913440
1834  2023-10-18 12:39:33.944336
1835  2023-10-18 12:39:33.976251
1836  2023-10-18 12:39:34.009136
1837  2023-10-18 12:39:34.041100
1838  2023-10-18 12:39:34.073005
1839  2023-10-18 12:39:34.120839
1840  2023-10-18 12:39:34.152815
1841  2023-10-18 12:39:34.184699
1842  2023-10-18 12:39:34.216654
1843  2023-10-18 12:39:34.248569
1844  2023-10-18 12:39:34.281578
1845  2023-10-18 12:39:34.312519
1846  2023-10-18 12:39:34.344413
1847  2023-10-18 12:39:34.376289
1848  2023-10-18 12:39:34.408238
1849  2023-10-18 12:39:34.440170
1850  2023-10-18 12:39:34.472067
1851  2023-10-18 12:39:34.521936
1852  2023-10-18 12:39:34.552817
1853  2023-10-18 12:39:34.600690
1854  2023-10-18 12:39:34.616683
1855  2023-10-18 12:39:34.648566
1856  2023-10-18 12:39:34.680476
1857  2023-10-18 12:39:34.712391
1858  2023-10-18 12:39:34.744305
1859  2023-10-18 12:39:34.776254
1860  2023-10-18 12:39:34.808179
1861  2023-10-18 12:39:34.840089
1862  2023-10-18 12:39:34.872040
1863  2023-10-18 12:39:34.920890
1864  2023-10-18 12:39:34.952783
1865  2023-10-18 12:39:34.984710
1866  2023-10-18 12:39:35.016602
1867  2023-10-18 12:39:35.048515
1868  2023-10-18 12:39:35.080443
1869  2023-10-18 12:39:35.112357
1870  2023-10-18 12:39:35.144271
1871  2023-10-18 12:39:35.176192
1872  2023-10-18 12:39:35.208102
1873  2023-10-18 12:39:35.240035
1874  2023-10-18 12:39:35.271920
1875  2023-10-18 12:39:35.320815
1876  2023-10-18 12:39:35.352729
1877  2023-10-18 12:39:35.385625
1878  2023-10-18 12:39:35.416532
1879  2023-10-18 12:39:35.448457
1880  2023-10-18 12:39:35.480370
1881  2023-10-18 12:39:35.512286
1882  2023-10-18 12:39:35.544199
1883  2023-10-18 12:39:35.576081
1884  2023-10-18 12:39:35.608052
1885  2023-10-18 12:39:35.639937
1886  2023-10-18 12:39:35.671874
1887  2023-10-18 12:39:35.720697
1888  2023-10-18 12:39:35.753632
1889  2023-10-18 12:39:35.785555
1890  2023-10-18 12:39:35.816472
1891  2023-10-18 12:39:35.848355
1892  2023-10-18 12:39:35.880317
1893  2023-10-18 12:39:35.912216
1894  2023-10-18 12:39:35.944138
1895  2023-10-18 12:39:35.976061
1896  2023-10-18 12:39:36.008958
1897  2023-10-18 12:39:36.039890
1898  2023-10-18 12:39:36.072801
1899  2023-10-18 12:39:36.120668
1900  2023-10-18 12:39:36.169546
1901  2023-10-18 12:39:36.185506
1902  2023-10-18 12:39:36.217371
1903  2023-10-18 12:39:36.248285
1904  2023-10-18 12:39:36.280233
1905  2023-10-18 12:39:36.313148
1906  2023-10-18 12:39:36.345058
1907  2023-10-18 12:39:36.375974
1908  2023-10-18 12:39:36.408536
1909  2023-10-18 12:39:36.440515
1910  2023-10-18 12:39:36.472379
1911  2023-10-18 12:39:36.520295
1912  2023-10-18 12:39:36.553208
1913  2023-10-18 12:39:36.584118
1914  2023-10-18 12:39:36.616053
1915  2023-10-18 12:39:36.647934
1916  2023-10-18 12:39:36.680823
1917  2023-10-18 12:39:36.712765
1918  2023-10-18 12:39:36.744687
1919  2023-10-18 12:39:36.776616
1920  2023-10-18 12:39:36.808515
1921  2023-10-18 12:39:36.840430
1922  2023-10-18 12:39:36.872358
1923  2023-10-18 12:39:36.920217
1924  2023-10-18 12:39:36.952126
1925  2023-10-18 12:39:36.984053
1926  2023-10-18 12:39:37.015966
1927  2023-10-18 12:39:37.047876
1928  2023-10-18 12:39:37.079788
1929  2023-10-18 12:39:37.112716
1930  2023-10-18 12:39:37.144614
1931  2023-10-18 12:39:37.176521
1932  2023-10-18 12:39:37.208444
1933  2023-10-18 12:39:37.240354
1934  2023-10-18 12:39:37.272267
1935  2023-10-18 12:39:37.320141
1936  2023-10-18 12:39:37.352057
1937  2023-10-18 12:39:37.383972
1938  2023-10-18 12:39:37.415891
1939  2023-10-18 12:39:37.448770
1940  2023-10-18 12:39:37.480717
1941  2023-10-18 12:39:37.512631
1942  2023-10-18 12:39:37.544539
1943  2023-10-18 12:39:37.576459
1944  2023-10-18 12:39:37.608372
1945  2023-10-18 12:39:37.640291
1946  2023-10-18 12:39:37.672171
1947  2023-10-18 12:39:37.720074
1948  2023-10-18 12:39:37.751988
1949  2023-10-18 12:39:37.783903
1950  2023-10-18 12:39:37.816999
1951  2023-10-18 12:39:37.848736
1952  2023-10-18 12:39:37.880649
1953  2023-10-18 12:39:37.912563
1954  2023-10-18 12:39:37.944471
1955  2023-10-18 12:39:37.976388
1956  2023-10-18 12:39:38.008272
1957  2023-10-18 12:39:38.040316
1958  2023-10-18 12:39:38.072137
1959  2023-10-18 12:39:38.120972
1960  2023-10-18 12:39:38.152901
1961  2023-10-18 12:39:38.184801
1962  2023-10-18 12:39:38.216716
1963  2023-10-18 12:39:38.248630
1964  2023-10-18 12:39:38.280547
1965  2023-10-18 12:39:38.312460
1966  2023-10-18 12:39:38.344437
1967  2023-10-18 12:39:38.376291
1968  2023-10-18 12:39:38.408213
1969  2023-10-18 12:39:38.440119
1970  2023-10-18 12:39:38.472034
1971  2023-10-18 12:39:38.519915
1972  2023-10-18 12:39:38.552841
1973  2023-10-18 12:39:38.584767
1974  2023-10-18 12:39:38.616692
1975  2023-10-18 12:39:38.648561
1976  2023-10-18 12:39:38.680508
1977  2023-10-18 12:39:38.712418
1978  2023-10-18 12:39:38.744332
1979  2023-10-18 12:39:38.776247
1980  2023-10-18 12:39:38.809132
1981  2023-10-18 12:39:38.840098
1982  2023-10-18 12:39:38.871993
1983  2023-10-18 12:39:38.919870
1984  2023-10-18 12:39:38.951784
1985  2023-10-18 12:39:38.984702
1986  2023-10-18 12:39:39.016630
1987  2023-10-18 12:39:39.048528
1988  2023-10-18 12:39:39.080406
1989  2023-10-18 12:39:39.112352
1990  2023-10-18 12:39:39.144266
1991  2023-10-18 12:39:39.176201
1992  2023-10-18 12:39:39.208098
1993  2023-10-18 12:39:39.240012
1994  2023-10-18 12:39:39.271928
1995  2023-10-18 12:39:39.319800
1996  2023-10-18 12:39:39.352680
1997  2023-10-18 12:39:39.384628
1998  2023-10-18 12:39:39.416535
1999  2023-10-18 12:39:39.448449
2000  2023-10-18 12:39:39.480337
2001  2023-10-18 12:39:39.512285
2002  2023-10-18 12:39:39.544193
2003  2023-10-18 12:39:39.576114
2004  2023-10-18 12:39:39.607996
2005  2023-10-18 12:39:39.640908
2006  2023-10-18 12:39:39.684831
2007  2023-10-18 12:39:39.720695
2008  2023-10-18 12:39:39.752642
2009  2023-10-18 12:39:39.784702
2010  2023-10-18 12:39:39.816657
2011  2023-10-18 12:39:39.848565
2012  2023-10-18 12:39:39.880437
2013  2023-10-18 12:39:39.912432
2014  2023-10-18 12:39:39.944202
2015  2023-10-18 12:39:39.976201
2016  2023-10-18 12:39:40.008105
2017  2023-10-18 12:39:40.039984
2018  2023-10-18 12:39:40.072930
2019  2023-10-18 12:39:40.119798
2020  2023-10-18 12:39:40.152686
2021  2023-10-18 12:39:40.184598
2022  2023-10-18 12:39:40.216566
2023  2023-10-18 12:39:40.248427
2024  2023-10-18 12:39:40.280373
2025  2023-10-18 12:39:40.312288
2026  2023-10-18 12:39:40.345202
2027  2023-10-18 12:39:40.377179
2028  2023-10-18 12:39:40.409098
2029  2023-10-18 12:39:40.441007
2030  2023-10-18 12:39:40.472923
2031  2023-10-18 12:39:40.520834
2032  2023-10-18 12:39:40.552727
2033  2023-10-18 12:39:40.584649
2034  2023-10-18 12:39:40.616570
2035  2023-10-18 12:39:40.648453
2036  2023-10-18 12:39:40.680367
2037  2023-10-18 12:39:40.712319
2038  2023-10-18 12:39:40.744227
2039  2023-10-18 12:39:40.776163
2040  2023-10-18 12:39:40.808073
2041  2023-10-18 12:39:40.841001
2042  2023-10-18 12:39:40.872853
2043  2023-10-18 12:39:40.919729
2044  2023-10-18 12:39:40.952664
2045  2023-10-18 12:39:40.984581
2046  2023-10-18 12:39:41.016524
2047  2023-10-18 12:39:41.048332
2048  2023-10-18 12:39:41.080329
2049  2023-10-18 12:39:41.112244
2050  2023-10-18 12:39:41.144190
2051  2023-10-18 12:39:41.177104
2052  2023-10-18 12:39:41.208020
2053  2023-10-18 12:39:41.241001
2054  2023-10-18 12:39:41.271971
2055  2023-10-18 12:39:41.319927
2056  2023-10-18 12:39:41.351810
2057  2023-10-18 12:39:41.384750
2058  2023-10-18 12:39:41.416673
2059  2023-10-18 12:39:41.448601
2060  2023-10-18 12:39:41.480494
2061  2023-10-18 12:39:41.512410
2062  2023-10-18 12:39:41.544329
2063  2023-10-18 12:39:41.576247
2064  2023-10-18 12:39:41.608185
2065  2023-10-18 12:39:41.640074
2066  2023-10-18 12:39:41.671953
2067  2023-10-18 12:39:41.720863
2068  2023-10-18 12:39:41.751771
2069  2023-10-18 12:39:41.784653
2070  2023-10-18 12:39:41.816608
2071  2023-10-18 12:39:41.848515
2072  2023-10-18 12:39:41.880429
2073  2023-10-18 12:39:41.912310
2074  2023-10-18 12:39:41.944260
2075  2023-10-18 12:39:41.976168
2076  2023-10-18 12:39:42.008103
2077  2023-10-18 12:39:42.039969
2078  2023-10-18 12:39:42.071883
2079  2023-10-18 12:39:42.119786
2080  2023-10-18 12:39:42.152721
2081  2023-10-18 12:39:42.184615
2082  2023-10-18 12:39:42.216530
2083  2023-10-18 12:39:42.248461
2084  2023-10-18 12:39:42.280326
2085  2023-10-18 12:39:42.312241
2086  2023-10-18 12:39:42.345203
2087  2023-10-18 12:39:42.377130
2088  2023-10-18 12:39:42.409089
2089  2023-10-18 12:39:42.440993
2090  2023-10-18 12:39:42.472943
2091  2023-10-18 12:39:42.520791
2092  2023-10-18 12:39:42.552695
2093  2023-10-18 12:39:42.584649
2094  2023-10-18 12:39:42.617561
2095  2023-10-18 12:39:42.648476
2096  2023-10-18 12:39:42.680389
2097  2023-10-18 12:39:42.712347
2098  2023-10-18 12:39:42.744266
2099  2023-10-18 12:39:42.776269
2100  2023-10-18 12:39:42.808175
2101  2023-10-18 12:39:42.841049
2102  2023-10-18 12:39:42.872963
2103  2023-10-18 12:39:42.920835
2104  2023-10-18 12:39:42.952750
2105  2023-10-18 12:39:42.984730
2106  2023-10-18 12:39:43.016580
2107  2023-10-18 12:39:43.048674
2108  2023-10-18 12:39:43.080527
2109  2023-10-18 12:39:43.112441
2110  2023-10-18 12:39:43.144391
2111  2023-10-18 12:39:43.176306
2112  2023-10-18 12:39:43.208220
2113  2023-10-18 12:39:43.241098
2114  2023-10-18 12:39:43.273015
2115  2023-10-18 12:39:43.320886
2116  2023-10-18 12:39:43.352800
2117  2023-10-18 12:39:43.384715
2118  2023-10-18 12:39:43.416630
2119  2023-10-18 12:39:43.448543
2120  2023-10-18 12:39:43.480458
2121  2023-10-18 12:39:43.513372
2122  2023-10-18 12:39:43.544289
2123  2023-10-18 12:39:43.577203
2124  2023-10-18 12:39:43.608117
2125  2023-10-18 12:39:43.641029
2126  2023-10-18 12:39:43.672945
2127  2023-10-18 12:39:43.720818
2128  2023-10-18 12:39:43.752730
2129  2023-10-18 12:39:43.784645
2130  2023-10-18 12:39:43.816600
2131  2023-10-18 12:39:43.848475
2132  2023-10-18 12:39:43.881387
2133  2023-10-18 12:39:43.912315
2134  2023-10-18 12:39:43.944272
2135  2023-10-18 12:39:43.976134
2136  2023-10-18 12:39:44.009046
2137  2023-10-18 12:39:44.040005
2138  2023-10-18 12:39:44.071917
2139  2023-10-18 12:39:44.120263
2140  2023-10-18 12:39:44.152175
2141  2023-10-18 12:39:44.184163
2142  2023-10-18 12:39:44.216058
2143  2023-10-18 12:39:44.247970
2144  2023-10-18 12:39:44.279885
2145  2023-10-18 12:39:44.312766
2146  2023-10-18 12:39:44.344681
2147  2023-10-18 12:39:44.376643
2148  2023-10-18 12:39:44.408562
2149  2023-10-18 12:39:44.440456
2150  2023-10-18 12:39:44.472371
2151  2023-10-18 12:39:44.520240
2152  2023-10-18 12:39:44.552160
2153  2023-10-18 12:39:44.584152
2154  2023-10-18 12:39:44.616098
2155  2023-10-18 12:39:44.648054
2156  2023-10-18 12:39:44.680929
2157  2023-10-18 12:39:44.711885
2158  2023-10-18 12:39:44.744799
2159  2023-10-18 12:39:44.776750
2160  2023-10-18 12:39:44.808661
2161  2023-10-18 12:39:44.840576
2162  2023-10-18 12:39:44.872458
2163  2023-10-18 12:39:44.920354
2164  2023-10-18 12:39:44.952274
2165  2023-10-18 12:39:44.984185
2166  2023-10-18 12:39:45.016130
2167  2023-10-18 12:39:45.047989
2168  2023-10-18 12:39:45.079963
2169  2023-10-18 12:39:45.112815
2170  2023-10-18 12:39:45.144730
2171  2023-10-18 12:39:45.176644
2172  2023-10-18 12:39:45.208571
2173  2023-10-18 12:39:45.240474
2174  2023-10-18 12:39:45.272388
2175  2023-10-18 12:39:45.320287
2176  2023-10-18 12:39:45.352200
2177  2023-10-18 12:39:45.384091
2178  2023-10-18 12:39:45.417004
2179  2023-10-18 12:39:45.448948
2180  2023-10-18 12:39:45.480836
2181  2023-10-18 12:39:45.512748
2182  2023-10-18 12:39:45.545687
2183  2023-10-18 12:39:45.576607
2184  2023-10-18 12:39:45.608519
2185  2023-10-18 12:39:45.640433
2186  2023-10-18 12:39:45.672455
2187  2023-10-18 12:39:45.720306
2188  2023-10-18 12:39:45.752225
2189  2023-10-18 12:39:45.784107
2190  2023-10-18 12:39:45.816065
2191  2023-10-18 12:39:45.847989
2192  2023-10-18 12:39:45.880886
2193  2023-10-18 12:39:45.912763
2194  2023-10-18 12:39:45.944678
2195  2023-10-18 12:39:45.976627
2196  2023-10-18 12:39:46.008510
2197  2023-10-18 12:39:46.040461
2198  2023-10-18 12:39:46.072336
2199  2023-10-18 12:39:46.120236
2200  2023-10-18 12:39:46.152157
2201  2023-10-18 12:39:46.184038
2202  2023-10-18 12:39:46.216951
2203  2023-10-18 12:39:46.248905
2204  2023-10-18 12:39:46.279816
2205  2023-10-18 12:39:46.312728
2206  2023-10-18 12:39:46.344634
2207  2023-10-18 12:39:46.376523
2208  2023-10-18 12:39:46.408480
2209  2023-10-18 12:39:46.440389
2210  2023-10-18 12:39:46.472301
2211  2023-10-18 12:39:46.520195
2212  2023-10-18 12:39:46.552079
2213  2023-10-18 12:39:46.583969
2214  2023-10-18 12:39:46.615920
2215  2023-10-18 12:39:46.648837
2216  2023-10-18 12:39:46.679759
2217  2023-10-18 12:39:46.712625
2218  2023-10-18 12:39:46.744573
2219  2023-10-18 12:39:46.776484
2220  2023-10-18 12:39:46.808403
2221  2023-10-18 12:39:46.840322
2222  2023-10-18 12:39:46.872198
2223  2023-10-18 12:39:46.920102
2224  2023-10-18 12:39:46.952023
2225  2023-10-18 12:39:46.983927
2226  2023-10-18 12:39:47.015861
2227  2023-10-18 12:39:47.048726
2228  2023-10-18 12:39:47.080641
2229  2023-10-18 12:39:47.112556
2230  2023-10-18 12:39:47.144470
2231  2023-10-18 12:39:47.176385
2232  2023-10-18 12:39:47.208300
2233  2023-10-18 12:39:47.240214
2234  2023-10-18 12:39:47.272129
2235  2023-10-18 12:39:47.321001
2236  2023-10-18 12:39:47.352929
2237  2023-10-18 12:39:47.384894
2238  2023-10-18 12:39:47.416779
2239  2023-10-18 12:39:47.448639
2240  2023-10-18 12:39:47.480553
2241  2023-10-18 12:39:47.512603
2242  2023-10-18 12:39:47.544493
2243  2023-10-18 12:39:47.576397
2244  2023-10-18 12:39:47.608362
2245  2023-10-18 12:39:47.640260
2246  2023-10-18 12:39:47.672214
2247  2023-10-18 12:39:47.720088
2248  2023-10-18 12:39:47.752002
2249  2023-10-18 12:39:47.783843
2250  2023-10-18 12:39:47.816755
2251  2023-10-18 12:39:47.848708
2252  2023-10-18 12:39:47.880585
2253  2023-10-18 12:39:47.912550
2254  2023-10-18 12:39:47.944413
2255  2023-10-18 12:39:47.976328
2256  2023-10-18 12:39:48.008307
2257  2023-10-18 12:39:48.040256
2258  2023-10-18 12:39:48.072200
2259  2023-10-18 12:39:48.120065
2260  2023-10-18 12:39:48.151987
2261  2023-10-18 12:39:48.184870
2262  2023-10-18 12:39:48.215810
2263  2023-10-18 12:39:48.248696
2264  2023-10-18 12:39:48.280611
2265  2023-10-18 12:39:48.312550
2266  2023-10-18 12:39:48.344465
2267  2023-10-18 12:39:48.376355
2268  2023-10-18 12:39:48.408269
2269  2023-10-18 12:39:48.440184
2270  2023-10-18 12:39:48.472129
2271  2023-10-18 12:39:48.520013
2272  2023-10-18 12:39:48.551921
2273  2023-10-18 12:39:48.584797
2274  2023-10-18 12:39:48.616712
2275  2023-10-18 12:39:48.648654
2276  2023-10-18 12:39:48.680566
2277  2023-10-18 12:39:48.712456
2278  2023-10-18 12:39:48.744371
2279  2023-10-18 12:39:48.776285
2280  2023-10-18 12:39:48.808265
2281  2023-10-18 12:39:48.840115
2282  2023-10-18 12:39:48.872030
2283  2023-10-18 12:39:48.919943
2284  2023-10-18 12:39:48.951816
2285  2023-10-18 12:39:48.984728
2286  2023-10-18 12:39:49.016676
2287  2023-10-18 12:39:49.048593
2288  2023-10-18 12:39:49.080472
2289  2023-10-18 12:39:49.112420
2290  2023-10-18 12:39:49.144327
2291  2023-10-18 12:39:49.176216
2292  2023-10-18 12:39:49.208168
2293  2023-10-18 12:39:49.240046
2294  2023-10-18 12:39:49.272018
2295  2023-10-18 12:39:49.319974
2296  2023-10-18 12:39:49.351880
2297  2023-10-18 12:39:49.384757
2298  2023-10-18 12:39:49.416671
2299  2023-10-18 12:39:49.448586
2300  2023-10-18 12:39:49.480532
2301  2023-10-18 12:39:49.512447
2302  2023-10-18 12:39:49.544330
2303  2023-10-18 12:39:49.576245
2304  2023-10-18 12:39:49.608160
2305  2023-10-18 12:39:49.641072
2306  2023-10-18 12:39:49.672987
2307  2023-10-18 12:39:49.720859
2308  2023-10-18 12:39:49.752773
2309  2023-10-18 12:39:49.784689
2310  2023-10-18 12:39:49.816667
2311  2023-10-18 12:39:49.848547
2312  2023-10-18 12:39:49.880535
2313  2023-10-18 12:39:49.912451
2314  2023-10-18 12:39:49.944364
2315  2023-10-18 12:39:49.976279
2316  2023-10-18 12:39:50.009194
2317  2023-10-18 12:39:50.041228
2318  2023-10-18 12:39:50.072190
2319  2023-10-18 12:39:50.121015
2320  2023-10-18 12:39:50.151931
2321  2023-10-18 12:39:50.184844
2322  2023-10-18 12:39:50.216869
2323  2023-10-18 12:39:50.248783
2324  2023-10-18 12:39:50.280734
2325  2023-10-18 12:39:50.312612
2326  2023-10-18 12:39:50.344528
2327  2023-10-18 12:39:50.376443
2328  2023-10-18 12:39:50.408356
2329  2023-10-18 12:39:50.440271
2330  2023-10-18 12:39:50.472186
2331  2023-10-18 12:39:50.520091
2332  2023-10-18 12:39:50.553014
2333  2023-10-18 12:39:50.583976
2334  2023-10-18 12:39:50.615878
2335  2023-10-18 12:39:50.647761
2336  2023-10-18 12:39:50.680757
2337  2023-10-18 12:39:50.712682
2338  2023-10-18 12:39:50.744600
2339  2023-10-18 12:39:50.776569
2340  2023-10-18 12:39:50.808533
2341  2023-10-18 12:39:50.840399
2342  2023-10-18 12:39:50.901250
2343  2023-10-18 12:39:50.920190
2344  2023-10-18 12:39:50.952149
2345  2023-10-18 12:39:50.985012
2346  2023-10-18 12:39:51.016926
2347  2023-10-18 12:39:51.048890
2348  2023-10-18 12:39:51.080784
2349  2023-10-18 12:39:51.112670
2350  2023-10-18 12:39:51.144585
2351  2023-10-18 12:39:51.176515
2352  2023-10-18 12:39:51.208491
2353  2023-10-18 12:39:51.240406
2354  2023-10-18 12:39:51.272320
2355  2023-10-18 12:39:51.320219
2356  2023-10-18 12:39:51.352141
2357  2023-10-18 12:39:51.385034
2358  2023-10-18 12:39:51.415936
2359  2023-10-18 12:39:51.447851
2360  2023-10-18 12:39:51.480763
2361  2023-10-18 12:39:51.511710
2362  2023-10-18 12:39:51.544592
2363  2023-10-18 12:39:51.576507
2364  2023-10-18 12:39:51.608422
2365  2023-10-18 12:39:51.640346
2366  2023-10-18 12:39:51.672340
2367  2023-10-18 12:39:51.720258
2368  2023-10-18 12:39:51.752126
2369  2023-10-18 12:39:51.784040
2370  2023-10-18 12:39:51.815955
2371  2023-10-18 12:39:51.847944
2372  2023-10-18 12:39:51.881928
2373  2023-10-18 12:39:51.911808
2374  2023-10-18 12:39:51.944721
2375  2023-10-18 12:39:51.976697
2376  2023-10-18 12:39:52.008549
2377  2023-10-18 12:39:52.040512
2378  2023-10-18 12:39:52.072379
2379  2023-10-18 12:39:52.120251
2380  2023-10-18 12:39:52.152193
2381  2023-10-18 12:39:52.185078
2382  2023-10-18 12:39:52.215995
2383  2023-10-18 12:39:52.247909
2384  2023-10-18 12:39:52.281861
2385  2023-10-18 12:39:52.312773
2386  2023-10-18 12:39:52.345681
2387  2023-10-18 12:39:52.377617
2388  2023-10-18 12:39:52.409529
2389  2023-10-18 12:39:52.441427
2390  2023-10-18 12:39:52.473331
2391  2023-10-18 12:39:52.521212
2392  2023-10-18 12:39:52.553120
2393  2023-10-18 12:39:52.585040
2394  2023-10-18 12:39:52.617923
2395  2023-10-18 12:39:52.649864
2396  2023-10-18 12:39:52.681807
2397  2023-10-18 12:39:52.713706
2398  2023-10-18 12:39:52.745586
2399  2023-10-18 12:39:52.777524
2400  2023-10-18 12:39:52.809438
2401  2023-10-18 12:39:52.841325
2402  2023-10-18 12:39:52.873273
2403  2023-10-18 12:39:52.922155
2404  2023-10-18 12:39:52.953071
2405  2023-10-18 12:39:52.984974
2406  2023-10-18 12:39:53.016855
2407  2023-10-18 12:39:53.048809
2408  2023-10-18 12:39:53.080713
2409  2023-10-18 12:39:53.112599
2410  2023-10-18 12:39:53.144513
2411  2023-10-18 12:39:53.177461
2412  2023-10-18 12:39:53.209390
2413  2023-10-18 12:39:53.241295
2414  2023-10-18 12:39:53.273202
2415  2023-10-18 12:39:53.321076
2416  2023-10-18 12:39:53.352984
2417  2023-10-18 12:39:53.385917
2418  2023-10-18 12:39:53.416836
2419  2023-10-18 12:39:53.448740
2420  2023-10-18 12:39:53.480646
2421  2023-10-18 12:39:53.513575
2422  2023-10-18 12:39:53.544444
2423  2023-10-18 12:39:53.576359
2424  2023-10-18 12:39:53.608274
2425  2023-10-18 12:39:53.640222
2426  2023-10-18 12:39:53.673128
2427  2023-10-18 12:39:53.721059
2428  2023-10-18 12:39:53.752972
2429  2023-10-18 12:39:53.784889
2430  2023-10-18 12:39:53.816845
2431  2023-10-18 12:39:53.848771
2432  2023-10-18 12:39:53.880686
2433  2023-10-18 12:39:53.912601
2434  2023-10-18 12:39:53.944586
2435  2023-10-18 12:39:53.976501
2436  2023-10-18 12:39:54.008416
2437  2023-10-18 12:39:54.040333
2438  2023-10-18 12:39:54.072245
2439  2023-10-18 12:39:54.120118
2440  2023-10-18 12:39:54.152033
2441  2023-10-18 12:39:54.184950
2442  2023-10-18 12:39:54.215861
2443  2023-10-18 12:39:54.247745
2444  2023-10-18 12:39:54.280702
2445  2023-10-18 12:39:54.312604
2446  2023-10-18 12:39:54.344526
2447  2023-10-18 12:39:54.376436
2448  2023-10-18 12:39:54.408353
2449  2023-10-18 12:39:54.440264
2450  2023-10-18 12:39:54.472182
2451  2023-10-18 12:39:54.520057
2452  2023-10-18 12:39:54.552929
2453  2023-10-18 12:39:54.584878
2454  2023-10-18 12:39:54.616758
2455  2023-10-18 12:39:54.648676
2456  2023-10-18 12:39:54.680588
2457  2023-10-18 12:39:54.712545
2458  2023-10-18 12:39:54.744449
2459  2023-10-18 12:39:54.776363
2460  2023-10-18 12:39:54.808358
2461  2023-10-18 12:39:54.840304
2462  2023-10-18 12:39:54.872180
2463  2023-10-18 12:39:54.920048
2464  2023-10-18 12:39:54.951958
2465  2023-10-18 12:39:54.983877
2466  2023-10-18 12:39:55.016788
2467  2023-10-18 12:39:55.048703
2468  2023-10-18 12:39:55.080632
2469  2023-10-18 12:39:55.112536
2470  2023-10-18 12:39:55.144412
2471  2023-10-18 12:39:55.176375
2472  2023-10-18 12:39:55.208294
2473  2023-10-18 12:39:55.240193
2474  2023-10-18 12:39:55.272103
2475  2023-10-18 12:39:55.319978
2476  2023-10-18 12:39:55.351894
2477  2023-10-18 12:39:55.384771
2478  2023-10-18 12:39:55.416734
2479  2023-10-18 12:39:55.448627
2480  2023-10-18 12:39:55.480514
2481  2023-10-18 12:39:55.512462
2482  2023-10-18 12:39:55.544379
2483  2023-10-18 12:39:55.576291
2484  2023-10-18 12:39:55.608172
2485  2023-10-18 12:39:55.640127
2486  2023-10-18 12:39:55.672008
2487  2023-10-18 12:39:55.720896
2488  2023-10-18 12:39:55.751824
2489  2023-10-18 12:39:55.784735
2490  2023-10-18 12:39:55.816615
2491  2023-10-18 12:39:55.848585
2492  2023-10-18 12:39:55.880470
2493  2023-10-18 12:39:55.912359
2494  2023-10-18 12:39:55.944274
2495  2023-10-18 12:39:55.976222
2496  2023-10-18 12:39:56.008140
2497  2023-10-18 12:39:56.040018
2498  2023-10-18 12:39:56.072930
2499  2023-10-18 12:39:56.119805
2500  2023-10-18 12:39:56.152716
2501  2023-10-18 12:39:56.184663
2502  2023-10-18 12:39:56.216546
2503  2023-10-18 12:39:56.248461
2504  2023-10-18 12:39:56.280375
2505  2023-10-18 12:39:56.312326
2506  2023-10-18 12:39:56.344241
2507  2023-10-18 12:39:56.376119
2508  2023-10-18 12:39:56.408034
2509  2023-10-18 12:39:56.439979
2510  2023-10-18 12:39:56.472896
2511  2023-10-18 12:39:56.520733
2512  2023-10-18 12:39:56.552647
2513  2023-10-18 12:39:56.585562
2514  2023-10-18 12:39:56.616476
2515  2023-10-18 12:39:56.648428
2516  2023-10-18 12:39:56.680335
2517  2023-10-18 12:39:56.712221
2518  2023-10-18 12:39:56.744302
2519  2023-10-18 12:39:56.776083
2520  2023-10-18 12:39:56.808963
2521  2023-10-18 12:39:56.840877
2522  2023-10-18 12:39:56.872801
2523  2023-10-18 12:39:56.920663
2524  2023-10-18 12:39:56.952580
2525  2023-10-18 12:39:56.984495
2526  2023-10-18 12:39:57.016410
2527  2023-10-18 12:39:57.048351
2528  2023-10-18 12:39:57.080239
2529  2023-10-18 12:39:57.112153
2530  2023-10-18 12:39:57.144115
2531  2023-10-18 12:39:57.177007
2532  2023-10-18 12:39:57.208922
2533  2023-10-18 12:39:57.239872
2534  2023-10-18 12:39:57.272724
2535  2023-10-18 12:39:57.320595
2536  2023-10-18 12:39:57.352511
2537  2023-10-18 12:39:57.384424
2538  2023-10-18 12:39:57.416373
2539  2023-10-18 12:39:57.448292
2540  2023-10-18 12:39:57.480195
2541  2023-10-18 12:39:57.512109
2542  2023-10-18 12:39:57.544037
2543  2023-10-18 12:39:57.576945
2544  2023-10-18 12:39:57.608831
2545  2023-10-18 12:39:57.639772
2546  2023-10-18 12:39:57.672654
2547  2023-10-18 12:39:57.720556
2548  2023-10-18 12:39:57.752441
2549  2023-10-18 12:39:57.784356
2550  2023-10-18 12:39:57.816304
2551  2023-10-18 12:39:57.848220
2552  2023-10-18 12:39:57.880201
2553  2023-10-18 12:39:57.912089
2554  2023-10-18 12:39:57.944004
2555  2023-10-18 12:39:57.975946
2556  2023-10-18 12:39:58.008997
2557  2023-10-18 12:39:58.039961
2558  2023-10-18 12:39:58.071829
2559  2023-10-18 12:39:58.120671
2560  2023-10-18 12:39:58.152619
2561  2023-10-18 12:39:58.184534
2562  2023-10-18 12:39:58.216448
2563  2023-10-18 12:39:58.248330
2564  2023-10-18 12:39:58.280245
2565  2023-10-18 12:39:58.312199
2566  2023-10-18 12:39:58.345073
2567  2023-10-18 12:39:58.376988
2568  2023-10-18 12:39:58.408827
2569  2023-10-18 12:39:58.440846
2570  2023-10-18 12:39:58.472822
2571  2023-10-18 12:39:58.520686
2572  2023-10-18 12:39:58.552628
2573  2023-10-18 12:39:58.584550
2574  2023-10-18 12:39:58.616482
2575  2023-10-18 12:39:58.648375
2576  2023-10-18 12:39:58.680285
2577  2023-10-18 12:39:58.712214
2578  2023-10-18 12:39:58.744123
2579  2023-10-18 12:39:58.776037
2580  2023-10-18 12:39:58.808975
2581  2023-10-18 12:39:58.840858
2582  2023-10-18 12:39:58.872745
2583  2023-10-18 12:39:58.920652
2584  2023-10-18 12:39:58.952531
2585  2023-10-18 12:39:58.984479
2586  2023-10-18 12:39:59.016395
2587  2023-10-18 12:39:59.049275
2588  2023-10-18 12:39:59.080190
2589  2023-10-18 12:39:59.112132
2590  2023-10-18 12:39:59.145048
2591  2023-10-18 12:39:59.175969
2592  2023-10-18 12:39:59.207890
2593  2023-10-18 12:39:59.240802
2594  2023-10-18 12:39:59.272676
2595  2023-10-18 12:39:59.320581
2596  2023-10-18 12:39:59.352493
2597  2023-10-18 12:39:59.384409
2598  2023-10-18 12:39:59.416292
2599  2023-10-18 12:39:59.448206
2600  2023-10-18 12:39:59.480133
2601  2023-10-18 12:39:59.512069
2602  2023-10-18 12:39:59.543981
2603  2023-10-18 12:39:59.576862
2604  2023-10-18 12:39:59.609824
2605  2023-10-18 12:39:59.640745
2606  2023-10-18 12:39:59.672660
2607  2023-10-18 12:39:59.721559
2608  2023-10-18 12:39:59.752510
2609  2023-10-18 12:39:59.784425
2610  2023-10-18 12:39:59.816354
2611  2023-10-18 12:39:59.848268
2612  2023-10-18 12:39:59.881170
2613  2023-10-18 12:39:59.913089
2614  2023-10-18 12:39:59.943994
2615  2023-10-18 12:39:59.975916
2616  2023-10-18 12:40:00.008831
2617  2023-10-18 12:40:00.041732
2618  2023-10-18 12:40:00.072664
2619  2023-10-18 12:40:00.121532
2620  2023-10-18 12:40:00.152412
2621  2023-10-18 12:40:00.185368
2622  2023-10-18 12:40:00.216241
2623  2023-10-18 12:40:00.248196
2624  2023-10-18 12:40:00.281099
2625  2023-10-18 12:40:00.313979
2626  2023-10-18 12:40:00.345894
2627  2023-10-18 12:40:00.375844
2628  2023-10-18 12:40:00.408725
2629  2023-10-18 12:40:00.441673
2630  2023-10-18 12:40:00.472585
2631  2023-10-18 12:40:00.521425
2632  2023-10-18 12:40:00.553340
2633  2023-10-18 12:40:00.585255
2634  2023-10-18 12:40:00.616219
2635  2023-10-18 12:40:00.648086
2636  2023-10-18 12:40:00.680997
2637  2023-10-18 12:40:00.712948
2638  2023-10-18 12:40:00.743831
2639  2023-10-18 12:40:00.775777
2640  2023-10-18 12:40:00.808699
2641  2023-10-18 12:40:00.841611
2642  2023-10-18 12:40:00.872519
2643  2023-10-18 12:40:00.921355
2644  2023-10-18 12:40:00.953303
2645  2023-10-18 12:40:00.985190
2646  2023-10-18 12:40:01.016145
2647  2023-10-18 12:40:01.048058
2648  2023-10-18 12:40:01.080979
2649  2023-10-18 12:40:01.113873
2650  2023-10-18 12:40:01.145786
2651  2023-10-18 12:40:01.176722
2652  2023-10-18 12:40:01.208586
2653  2023-10-18 12:40:01.240504
2654  2023-10-18 12:40:01.273475
2655  2023-10-18 12:40:01.320351
2656  2023-10-18 12:40:01.352344
2657  2023-10-18 12:40:01.385276
2658  2023-10-18 12:40:01.416177
2659  2023-10-18 12:40:01.448100
2660  2023-10-18 12:40:01.480020
2661  2023-10-18 12:40:01.512926
2662  2023-10-18 12:40:01.544842
2663  2023-10-18 12:40:01.576737
2664  2023-10-18 12:40:01.608627
2665  2023-10-18 12:40:01.640591
2666  2023-10-18 12:40:01.672490
2667  2023-10-18 12:40:01.720390
2668  2023-10-18 12:40:01.752304
2669  2023-10-18 12:40:01.784310
2670  2023-10-18 12:40:01.816223
2671  2023-10-18 12:40:01.848147
2672  2023-10-18 12:40:01.880082
2673  2023-10-18 12:40:01.911988
2674  2023-10-18 12:40:01.943891
2675  2023-10-18 12:40:01.976771
2676  2023-10-18 12:40:02.008714
2677  2023-10-18 12:40:02.040625
2678  2023-10-18 12:40:02.072533
2679  2023-10-18 12:40:02.120379
2680  2023-10-18 12:40:02.184209
2681  2023-10-18 12:40:02.193186
2682  2023-10-18 12:40:02.217169
2683  2023-10-18 12:40:02.248069
2684  2023-10-18 12:40:02.280000
2685  2023-10-18 12:40:02.312894
2686  2023-10-18 12:40:02.344780
2687  2023-10-18 12:40:02.376771
2688  2023-10-18 12:40:02.408608
2689  2023-10-18 12:40:02.440577
2690  2023-10-18 12:40:02.472470
2691  2023-10-18 12:40:02.520340
2692  2023-10-18 12:40:02.553223
2693  2023-10-18 12:40:02.584187
2694  2023-10-18 12:40:02.617052
2695  2023-10-18 12:40:02.648967
2696  2023-10-18 12:40:02.680930
2697  2023-10-18 12:40:02.712796
2698  2023-10-18 12:40:02.745741
2699  2023-10-18 12:40:02.776626
2700  2023-10-18 12:40:02.808575
2701  2023-10-18 12:40:02.840490
2702  2023-10-18 12:40:02.873414
2703  2023-10-18 12:40:02.920272
2704  2023-10-18 12:40:02.952200
2705  2023-10-18 12:40:02.984112
2706  2023-10-18 12:40:03.016012
2707  2023-10-18 12:40:03.048924
2708  2023-10-18 12:40:03.079810
2709  2023-10-18 12:40:03.112766
2710  2023-10-18 12:40:03.144797
2711  2023-10-18 12:40:03.176692
2712  2023-10-18 12:40:03.208613
2713  2023-10-18 12:40:03.240529
2714  2023-10-18 12:40:03.272443
2715  2023-10-18 12:40:03.320313
2716  2023-10-18 12:40:03.352228
2717  2023-10-18 12:40:03.384142
2718  2023-10-18 12:40:03.416077
2719  2023-10-18 12:40:03.447972
2720  2023-10-18 12:40:03.479886
2721  2023-10-18 12:40:03.512826
2722  2023-10-18 12:40:03.544717
2723  2023-10-18 12:40:03.576631
2724  2023-10-18 12:40:03.608535
2725  2023-10-18 12:40:03.640425
2726  2023-10-18 12:40:03.672372
2727  2023-10-18 12:40:03.720212
2728  2023-10-18 12:40:03.752178
2729  2023-10-18 12:40:03.784043
2730  2023-10-18 12:40:03.816003
2731  2023-10-18 12:40:03.847872
2732  2023-10-18 12:40:03.880818
2733  2023-10-18 12:40:03.912742
2734  2023-10-18 12:40:03.944649
2735  2023-10-18 12:40:03.976563
2736  2023-10-18 12:40:04.008471
2737  2023-10-18 12:40:04.040386
2738  2023-10-18 12:40:04.072302
2739  2023-10-18 12:40:04.120174
2740  2023-10-18 12:40:04.152095
2741  2023-10-18 12:40:04.184003
2742  2023-10-18 12:40:04.215920
2743  2023-10-18 12:40:04.247834
2744  2023-10-18 12:40:04.280760
2745  2023-10-18 12:40:04.312655
2746  2023-10-18 12:40:04.344544
2747  2023-10-18 12:40:04.376491
2748  2023-10-18 12:40:04.408408
2749  2023-10-18 12:40:04.440331
2750  2023-10-18 12:40:04.472235
2751  2023-10-18 12:40:04.520114
2752  2023-10-18 12:40:04.552023
2753  2023-10-18 12:40:04.583950
2754  2023-10-18 12:40:04.615864
2755  2023-10-18 12:40:04.648730
2756  2023-10-18 12:40:04.680644
2757  2023-10-18 12:40:04.712590
2758  2023-10-18 12:40:04.744504
2759  2023-10-18 12:40:04.776431
2760  2023-10-18 12:40:04.808334
2761  2023-10-18 12:40:04.840265
2762  2023-10-18 12:40:04.872134
2763  2023-10-18 12:40:04.921004
2764  2023-10-18 12:40:04.951957
2765  2023-10-18 12:40:04.984833
2766  2023-10-18 12:40:05.016748
2767  2023-10-18 12:40:05.048660
2768  2023-10-18 12:40:05.080625
2769  2023-10-18 12:40:05.112535
2770  2023-10-18 12:40:05.144439
2771  2023-10-18 12:40:05.176353
2772  2023-10-18 12:40:05.208267
2773  2023-10-18 12:40:05.240188
2774  2023-10-18 12:40:05.272103
2775  2023-10-18 12:40:05.319970
2776  2023-10-18 12:40:05.351886
2777  2023-10-18 12:40:05.384814
2778  2023-10-18 12:40:05.416714
2779  2023-10-18 12:40:05.448591
2780  2023-10-18 12:40:05.480506
2781  2023-10-18 12:40:05.512446
2782  2023-10-18 12:40:05.544366
2783  2023-10-18 12:40:05.576282
2784  2023-10-18 12:40:05.608203
2785  2023-10-18 12:40:05.640125
2786  2023-10-18 12:40:05.672027
2787  2023-10-18 12:40:05.719878
2788  2023-10-18 12:40:05.751814
2789  2023-10-18 12:40:05.784770
2790  2023-10-18 12:40:05.816641
2791  2023-10-18 12:40:05.848563
2792  2023-10-18 12:40:05.880468
2793  2023-10-18 12:40:05.912383
2794  2023-10-18 12:40:05.944316
2795  2023-10-18 12:40:05.976264
2796  2023-10-18 12:40:06.008177
2797  2023-10-18 12:40:06.040132
2798  2023-10-18 12:40:06.072012
2799  2023-10-18 12:40:06.119937
2800  2023-10-18 12:40:06.151887
2801  2023-10-18 12:40:06.184800
2802  2023-10-18 12:40:06.216710
2803  2023-10-18 12:40:06.248593
2804  2023-10-18 12:40:06.280597
2805  2023-10-18 12:40:06.312536
2806  2023-10-18 12:40:06.344463
2807  2023-10-18 12:40:06.376374
2808  2023-10-18 12:40:06.408287
2809  2023-10-18 12:40:06.440220
2810  2023-10-18 12:40:06.472130
2811  2023-10-18 12:40:06.520087
2812  2023-10-18 12:40:06.551971
2813  2023-10-18 12:40:06.583918
2814  2023-10-18 12:40:06.615834
2815  2023-10-18 12:40:06.648754
2816  2023-10-18 12:40:06.680626
2817  2023-10-18 12:40:06.712540
2818  2023-10-18 12:40:06.744493
2819  2023-10-18 12:40:06.776396
2820  2023-10-18 12:40:06.808286
2821  2023-10-18 12:40:06.840203
2822  2023-10-18 12:40:06.872115
2823  2023-10-18 12:40:06.920984
2824  2023-10-18 12:40:06.952900
2825  2023-10-18 12:40:06.984813
2826  2023-10-18 12:40:07.016785
2827  2023-10-18 12:40:07.048642
2828  2023-10-18 12:40:07.080557
2829  2023-10-18 12:40:07.112473
2830  2023-10-18 12:40:07.144386
2831  2023-10-18 12:40:07.176348
2832  2023-10-18 12:40:07.208247
2833  2023-10-18 12:40:07.240162
2834  2023-10-18 12:40:07.272078
2835  2023-10-18 12:40:07.319917
2836  2023-10-18 12:40:07.352828
2837  2023-10-18 12:40:07.384795
2838  2023-10-18 12:40:07.416700
2839  2023-10-18 12:40:07.448613
2840  2023-10-18 12:40:07.480487
2841  2023-10-18 12:40:07.512434
2842  2023-10-18 12:40:07.544343
2843  2023-10-18 12:40:07.576272
2844  2023-10-18 12:40:07.608200
2845  2023-10-18 12:40:07.640061
2846  2023-10-18 12:40:07.672014
2847  2023-10-18 12:40:07.721877
2848  2023-10-18 12:40:07.752805
2849  2023-10-18 12:40:07.784727
2850  2023-10-18 12:40:07.816626
2851  2023-10-18 12:40:07.848531
2852  2023-10-18 12:40:07.880450
2853  2023-10-18 12:40:07.912333
2854  2023-10-18 12:40:07.944283
2855  2023-10-18 12:40:07.976162
2856  2023-10-18 12:40:08.009128
2857  2023-10-18 12:40:08.040025
2858  2023-10-18 12:40:08.071938
2859  2023-10-18 12:40:08.120775
2860  2023-10-18 12:40:08.152724
2861  2023-10-18 12:40:08.184637
2862  2023-10-18 12:40:08.216555
2863  2023-10-18 12:40:08.248476
2864  2023-10-18 12:40:08.280349
2865  2023-10-18 12:40:08.312299
2866  2023-10-18 12:40:08.344226
2867  2023-10-18 12:40:08.376127
2868  2023-10-18 12:40:08.408039
2869  2023-10-18 12:40:08.440029
2870  2023-10-18 12:40:08.471946
2871  2023-10-18 12:40:08.519935
2872  2023-10-18 12:40:08.551835
2873  2023-10-18 12:40:08.584767
2874  2023-10-18 12:40:08.616657
2875  2023-10-18 12:40:08.648582
2876  2023-10-18 12:40:08.680483
2877  2023-10-18 12:40:08.712403
2878  2023-10-18 12:40:08.744314
2879  2023-10-18 12:40:08.776249
2880  2023-10-18 12:40:08.808188
2881  2023-10-18 12:40:08.840060
2882  2023-10-18 12:40:08.871946
2883  2023-10-18 12:40:08.920817
2884  2023-10-18 12:40:08.952731
2885  2023-10-18 12:40:08.984646
2886  2023-10-18 12:40:09.016574
2887  2023-10-18 12:40:09.048476
2888  2023-10-18 12:40:09.080390
2889  2023-10-18 12:40:09.112331
2890  2023-10-18 12:40:09.144249
2891  2023-10-18 12:40:09.176189
2892  2023-10-18 12:40:09.208089
2893  2023-10-18 12:40:09.240997
2894  2023-10-18 12:40:09.271905
2895  2023-10-18 12:40:09.320748
2896  2023-10-18 12:40:09.352662
2897  2023-10-18 12:40:09.384624
2898  2023-10-18 12:40:09.416522
2899  2023-10-18 12:40:09.448453
2900  2023-10-18 12:40:09.480368
2901  2023-10-18 12:40:09.512361
2902  2023-10-18 12:40:09.544230
2903  2023-10-18 12:40:09.576169
2904  2023-10-18 12:40:09.608093
2905  2023-10-18 12:40:09.639975
2906  2023-10-18 12:40:09.672902
2907  2023-10-18 12:40:09.720802
2908  2023-10-18 12:40:09.752673
2909  2023-10-18 12:40:09.784587
2910  2023-10-18 12:40:09.816538
2911  2023-10-18 12:40:09.848572
2912  2023-10-18 12:40:09.880461
2913  2023-10-18 12:40:09.912375
2914  2023-10-18 12:40:09.944290
2915  2023-10-18 12:40:09.976207
2916  2023-10-18 12:40:10.009157
2917  2023-10-18 12:40:10.040080
2918  2023-10-18 12:40:10.071994
2919  2023-10-18 12:40:10.119864
2920  2023-10-18 12:40:10.152733
2921  2023-10-18 12:40:10.184673
2922  2023-10-18 12:40:10.216613
2923  2023-10-18 12:40:10.248548
2924  2023-10-18 12:40:10.280423
2925  2023-10-18 12:40:10.312337
2926  2023-10-18 12:40:10.344246
2927  2023-10-18 12:40:10.376173
2928  2023-10-18 12:40:10.408100
2929  2023-10-18 12:40:10.440001
2930  2023-10-18 12:40:10.471928
2931  2023-10-18 12:40:10.519785
2932  2023-10-18 12:40:10.552664
2933  2023-10-18 12:40:10.584579
2934  2023-10-18 12:40:10.616518
2935  2023-10-18 12:40:10.648433
2936  2023-10-18 12:40:10.680404
2937  2023-10-18 12:40:10.713326
2938  2023-10-18 12:40:10.744243
2939  2023-10-18 12:40:10.776159
2940  2023-10-18 12:40:10.808078
2941  2023-10-18 12:40:10.840992
2942  2023-10-18 12:40:10.872948
2943  2023-10-18 12:40:10.920804
2944  2023-10-18 12:40:10.952685
2945  2023-10-18 12:40:10.984600
2946  2023-10-18 12:40:11.016549
2947  2023-10-18 12:40:11.048464
2948  2023-10-18 12:40:11.080370
2949  2023-10-18 12:40:11.112259
2950  2023-10-18 12:40:11.144174
2951  2023-10-18 12:40:11.176131
2952  2023-10-18 12:40:11.208067
2953  2023-10-18 12:40:11.240964
2954  2023-10-18 12:40:11.271866
2955  2023-10-18 12:40:11.320666
2956  2023-10-18 12:40:11.352614
2957  2023-10-18 12:40:11.384497
2958  2023-10-18 12:40:11.416411
2959  2023-10-18 12:40:11.448326
2960  2023-10-18 12:40:11.480241
2961  2023-10-18 12:40:11.512183
2962  2023-10-18 12:40:11.544069
2963  2023-10-18 12:40:11.575983
2964  2023-10-18 12:40:11.607899
2965  2023-10-18 12:40:11.640841
2966  2023-10-18 12:40:11.671857
2967  2023-10-18 12:40:11.720724
2968  2023-10-18 12:40:11.752593
2969  2023-10-18 12:40:11.784507
2970  2023-10-18 12:40:11.816463
2971  2023-10-18 12:40:11.848381
2972  2023-10-18 12:40:11.880278
2973  2023-10-18 12:40:11.912166
2974  2023-10-18 12:40:11.944081
2975  2023-10-18 12:40:11.976043
2976  2023-10-18 12:40:12.007944
2977  2023-10-18 12:40:12.040789
2978  2023-10-18 12:40:12.072703
2979  2023-10-18 12:40:12.120614
2980  2023-10-18 12:40:12.152519
2981  2023-10-18 12:40:12.184460
2982  2023-10-18 12:40:12.216374
2983  2023-10-18 12:40:12.248297
2984  2023-10-18 12:40:12.280203
2985  2023-10-18 12:40:12.312133
2986  2023-10-18 12:40:12.344007
2987  2023-10-18 12:40:12.375954
2988  2023-10-18 12:40:12.407869
2989  2023-10-18 12:40:12.440797
2990  2023-10-18 12:40:12.472693
2991  2023-10-18 12:40:12.520558
2992  2023-10-18 12:40:12.552451
2993  2023-10-18 12:40:12.584400
2994  2023-10-18 12:40:12.616280
2995  2023-10-18 12:40:12.648231
2996  2023-10-18 12:40:12.680160
2997  2023-10-18 12:40:12.712027
2998  2023-10-18 12:40:12.743938
2999  2023-10-18 12:40:12.776374
3000  2023-10-18 12:40:12.808365
3001  2023-10-18 12:40:12.840312
3002  2023-10-18 12:40:12.872217
3003  2023-10-18 12:40:12.920107
3004  2023-10-18 12:40:12.952977
3005  2023-10-18 12:40:12.983894
3006  2023-10-18 12:40:13.015843
3007  2023-10-18 12:40:13.047758
3008  2023-10-18 12:40:13.080635
3009  2023-10-18 12:40:13.112550
3010  2023-10-18 12:40:13.144502
3011  2023-10-18 12:40:13.176409
3012  2023-10-18 12:40:13.208325
3013  2023-10-18 12:40:13.240241
3014  2023-10-18 12:40:13.272177
3015  2023-10-18 12:40:13.319995
3016  2023-10-18 12:40:13.364916
3017  2023-10-18 12:40:13.385861
3018  2023-10-18 12:40:13.416789
3019  2023-10-18 12:40:13.448708
3020  2023-10-18 12:40:13.480601
3021  2023-10-18 12:40:13.512625
3022  2023-10-18 12:40:13.544550
3023  2023-10-18 12:40:13.576498
3024  2023-10-18 12:40:13.608431
3025  2023-10-18 12:40:13.640336
3026  2023-10-18 12:40:13.673209
3027  2023-10-18 12:40:13.721115
3028  2023-10-18 12:40:13.753026
3029  2023-10-18 12:40:13.784908
3030  2023-10-18 12:40:13.816823
3031  2023-10-18 12:40:13.848782
3032  2023-10-18 12:40:13.880683
3033  2023-10-18 12:40:13.912567
3034  2023-10-18 12:40:13.944481
3035  2023-10-18 12:40:13.976429
3036  2023-10-18 12:40:14.008342
3037  2023-10-18 12:40:14.040258
3038  2023-10-18 12:40:14.072185
3039  2023-10-18 12:40:14.120012
3040  2023-10-18 12:40:14.152949
3041  2023-10-18 12:40:14.184886
3042  2023-10-18 12:40:14.216817
3043  2023-10-18 12:40:14.248668
3044  2023-10-18 12:40:14.280598
3045  2023-10-18 12:40:14.312551
3046  2023-10-18 12:40:14.344446
3047  2023-10-18 12:40:14.376351
3048  2023-10-18 12:40:14.408266
3049  2023-10-18 12:40:14.440209
3050  2023-10-18 12:40:14.472107
3051  2023-10-18 12:40:14.519943
3052  2023-10-18 12:40:14.552857
3053  2023-10-18 12:40:14.584838
3054  2023-10-18 12:40:14.616684
3055  2023-10-18 12:40:14.648601
3056  2023-10-18 12:40:14.680515
3057  2023-10-18 12:40:14.712428
3058  2023-10-18 12:40:14.744392
3059  2023-10-18 12:40:14.776297
3060  2023-10-18 12:40:14.808185
3061  2023-10-18 12:40:14.841120
3062  2023-10-18 12:40:14.872064
3063  2023-10-18 12:40:14.920918
3064  2023-10-18 12:40:14.951868
3065  2023-10-18 12:40:14.984747
3066  2023-10-18 12:40:15.016706
3067  2023-10-18 12:40:15.048577
3068  2023-10-18 12:40:15.080523
3069  2023-10-18 12:40:15.112406
3070  2023-10-18 12:40:15.144345
3071  2023-10-18 12:40:15.176266
3072  2023-10-18 12:40:15.208186
3073  2023-10-18 12:40:15.240070
3074  2023-10-18 12:40:15.272007
3075  2023-10-18 12:40:15.319879
3076  2023-10-18 12:40:15.352764
3077  2023-10-18 12:40:15.384678
3078  2023-10-18 12:40:15.416627
3079  2023-10-18 12:40:15.448507
3080  2023-10-18 12:40:15.480446
3081  2023-10-18 12:40:15.513334
3082  2023-10-18 12:40:15.545297
3083  2023-10-18 12:40:15.576194
3084  2023-10-18 12:40:15.608122
3085  2023-10-18 12:40:15.640107
3086  2023-10-18 12:40:15.672990
3087  2023-10-18 12:40:15.720886
3088  2023-10-18 12:40:15.752804
3089  2023-10-18 12:40:15.784688
3090  2023-10-18 12:40:15.816603
3091  2023-10-18 12:40:15.848558
3092  2023-10-18 12:40:15.880468
3093  2023-10-18 12:40:15.912353
3094  2023-10-18 12:40:15.944347
3095  2023-10-18 12:40:15.976261
3096  2023-10-18 12:40:16.008177
3097  2023-10-18 12:40:16.040094
3098  2023-10-18 12:40:16.072006
3099  2023-10-18 12:40:16.119907
3100  2023-10-18 12:40:16.151824
3101  2023-10-18 12:40:16.184714
3102  2023-10-18 12:40:16.216621
3103  2023-10-18 12:40:16.248535
3104  2023-10-18 12:40:16.280503
3105  2023-10-18 12:40:16.312449
3106  2023-10-18 12:40:16.344380
3107  2023-10-18 12:40:16.376278
3108  2023-10-18 12:40:16.408211
3109  2023-10-18 12:40:16.440332
3110  2023-10-18 12:40:16.472285
3111  2023-10-18 12:40:16.520184
3112  2023-10-18 12:40:16.552069
3113  2023-10-18 12:40:16.583955
3114  2023-10-18 12:40:16.615870
3115  2023-10-18 12:40:16.647817
3116  2023-10-18 12:40:16.680697
3117  2023-10-18 12:40:16.712612
3118  2023-10-18 12:40:16.744551
3119  2023-10-18 12:40:16.776466
3120  2023-10-18 12:40:16.808387
3121  2023-10-18 12:40:16.840295
3122  2023-10-18 12:40:16.872215
3123  2023-10-18 12:40:16.920057
3124  2023-10-18 12:40:16.952006
3125  2023-10-18 12:40:16.983919
3126  2023-10-18 12:40:17.015801
3127  2023-10-18 12:40:17.048713
3128  2023-10-18 12:40:17.080628
3129  2023-10-18 12:40:17.112543
3130  2023-10-18 12:40:17.144459
3131  2023-10-18 12:40:17.177432
3132  2023-10-18 12:40:17.209322
3133  2023-10-18 12:40:17.240202
3134  2023-10-18 12:40:17.272117
3135  2023-10-18 12:40:17.319988
3136  2023-10-18 12:40:17.351903
3137  2023-10-18 12:40:17.384862
3138  2023-10-18 12:40:17.416794
3139  2023-10-18 12:40:17.448644
3140  2023-10-18 12:40:17.480559
3141  2023-10-18 12:40:17.512474
3142  2023-10-18 12:40:17.544429
3143  2023-10-18 12:40:17.576333
3144  2023-10-18 12:40:17.608249
3145  2023-10-18 12:40:17.640143
3146  2023-10-18 12:40:17.672096
3147  2023-10-18 12:40:17.720964
3148  2023-10-18 12:40:17.751833
3149  2023-10-18 12:40:17.784745
3150  2023-10-18 12:40:17.816660
3151  2023-10-18 12:40:17.850607
3152  2023-10-18 12:40:17.880546
3153  2023-10-18 12:40:17.913433
3154  2023-10-18 12:40:17.945346
3155  2023-10-18 12:40:17.978259
3156  2023-10-18 12:40:18.010176
3157  2023-10-18 12:40:18.040087
3158  2023-10-18 12:40:18.073998
3159  2023-10-18 12:40:18.121881
3160  2023-10-18 12:40:18.153759
3161  2023-10-18 12:40:18.185720
3162  2023-10-18 12:40:18.217618
3163  2023-10-18 12:40:18.249553
3164  2023-10-18 12:40:18.281469
3165  2023-10-18 12:40:18.314362
3166  2023-10-18 12:40:18.346281
3167  2023-10-18 12:40:18.377191
3168  2023-10-18 12:40:18.410122
3169  2023-10-18 12:40:18.442021
3170  2023-10-18 12:40:18.473947
3171  2023-10-18 12:40:18.521810
3172  2023-10-18 12:40:18.553723
3173  2023-10-18 12:40:18.585637
3174  2023-10-18 12:40:18.617543
3175  2023-10-18 12:40:18.649459
3176  2023-10-18 12:40:18.681375
3177  2023-10-18 12:40:18.713288
3178  2023-10-18 12:40:18.745207
3179  2023-10-18 12:40:18.777126
3180  2023-10-18 12:40:18.809032
3181  2023-10-18 12:40:18.840946
3182  2023-10-18 12:40:18.872837
3183  2023-10-18 12:40:18.920754
3184  2023-10-18 12:40:18.953651
3185  2023-10-18 12:40:18.985592
3186  2023-10-18 12:40:19.017482
3187  2023-10-18 12:40:19.049396
3188  2023-10-18 12:40:19.081311
3189  2023-10-18 12:40:19.113230
3190  2023-10-18 12:40:19.145152
3191  2023-10-18 12:40:19.177052
3192  2023-10-18 12:40:19.208979
3193  2023-10-18 12:40:19.240853
3194  2023-10-18 12:40:19.272804
3195  2023-10-18 12:40:19.320677
3196  2023-10-18 12:40:19.352582
3197  2023-10-18 12:40:19.384501
3198  2023-10-18 12:40:19.416418
3199  2023-10-18 12:40:19.449343
3200  2023-10-18 12:40:19.481244
3201  2023-10-18 12:40:19.513153
3202  2023-10-18 12:40:19.545084
3203  2023-10-18 12:40:19.576961
3204  2023-10-18 12:40:19.608872
3205  2023-10-18 12:40:19.641818
3206  2023-10-18 12:40:19.672730
3207  2023-10-18 12:40:19.720605
3208  2023-10-18 12:40:19.753539
3209  2023-10-18 12:40:19.784432
3210  2023-10-18 12:40:19.816359
3211  2023-10-18 12:40:19.849228
3212  2023-10-18 12:40:19.882172
3213  2023-10-18 12:40:19.913090
3214  2023-10-18 12:40:19.945024
3215  2023-10-18 12:40:19.976923
3216  2023-10-18 12:40:20.008841
3217  2023-10-18 12:40:20.040750
3218  2023-10-18 12:40:20.072664
3219  2023-10-18 12:40:20.120537
3220  2023-10-18 12:40:20.152452
3221  2023-10-18 12:40:20.184374
3222  2023-10-18 12:40:20.216285
3223  2023-10-18 12:40:20.248205
3224  2023-10-18 12:40:20.280110
3225  2023-10-18 12:40:20.312017
3226  2023-10-18 12:40:20.344944
3227  2023-10-18 12:40:20.376847
3228  2023-10-18 12:40:20.408782
3229  2023-10-18 12:40:20.440705
3230  2023-10-18 12:40:20.472694
3231  2023-10-18 12:40:20.520572
3232  2023-10-18 12:40:20.552509
3233  2023-10-18 12:40:20.584395
3234  2023-10-18 12:40:20.616311
3235  2023-10-18 12:40:20.648227
3236  2023-10-18 12:40:20.680198
3237  2023-10-18 12:40:20.712064
3238  2023-10-18 12:40:20.743971
3239  2023-10-18 12:40:20.775876
3240  2023-10-18 12:40:20.808772
3241  2023-10-18 12:40:20.840724
3242  2023-10-18 12:40:20.872648
3243  2023-10-18 12:40:20.920466
3244  2023-10-18 12:40:20.952408
3245  2023-10-18 12:40:20.984316
3246  2023-10-18 12:40:21.017231
3247  2023-10-18 12:40:21.048154
3248  2023-10-18 12:40:21.080078
3249  2023-10-18 12:40:21.111981
3250  2023-10-18 12:40:21.143903
3251  2023-10-18 12:40:21.176809
3252  2023-10-18 12:40:21.208726
3253  2023-10-18 12:40:21.240649
3254  2023-10-18 12:40:21.272555
3255  2023-10-18 12:40:21.320399
3256  2023-10-18 12:40:21.352341
3257  2023-10-18 12:40:21.384272
3258  2023-10-18 12:40:21.416143
3259  2023-10-18 12:40:21.448055
3260  2023-10-18 12:40:21.480002
3261  2023-10-18 12:40:21.511922
3262  2023-10-18 12:40:21.544824
3263  2023-10-18 12:40:21.576748
3264  2023-10-18 12:40:21.608660
3265  2023-10-18 12:40:21.640577
3266  2023-10-18 12:40:21.672489
3267  2023-10-18 12:40:21.720376
3268  2023-10-18 12:40:21.752276
3269  2023-10-18 12:40:21.784215
3270  2023-10-18 12:40:21.816119
3271  2023-10-18 12:40:21.848985
3272  2023-10-18 12:40:21.880915
3273  2023-10-18 12:40:21.912815
3274  2023-10-18 12:40:21.944730
3275  2023-10-18 12:40:21.976696
3276  2023-10-18 12:40:22.008621
3277  2023-10-18 12:40:22.040509
3278  2023-10-18 12:40:22.072418
3279  2023-10-18 12:40:22.120260
3280  2023-10-18 12:40:22.152206
3281  2023-10-18 12:40:22.184147
3282  2023-10-18 12:40:22.216068
3283  2023-10-18 12:40:22.247953
3284  2023-10-18 12:40:22.279875
3285  2023-10-18 12:40:22.312775
3286  2023-10-18 12:40:22.344692
3287  2023-10-18 12:40:22.376605
3288  2023-10-18 12:40:22.408523
3289  2023-10-18 12:40:22.440439
3290  2023-10-18 12:40:22.472353
3291  2023-10-18 12:40:22.520191
3292  2023-10-18 12:40:22.552160
3293  2023-10-18 12:40:22.584018
3294  2023-10-18 12:40:22.615977
3295  2023-10-18 12:40:22.647880
3296  2023-10-18 12:40:22.680763
3297  2023-10-18 12:40:22.712691
3298  2023-10-18 12:40:22.744607
3299  2023-10-18 12:40:22.776526
3300  2023-10-18 12:40:22.808436
3301  2023-10-18 12:40:22.840345
3302  2023-10-18 12:40:22.872276
3303  2023-10-18 12:40:22.920111
3304  2023-10-18 12:40:22.952019
3305  2023-10-18 12:40:22.983934
3306  2023-10-18 12:40:23.015898
3307  2023-10-18 12:40:23.048760
3308  2023-10-18 12:40:23.080715
3309  2023-10-18 12:40:23.112631
3310  2023-10-18 12:40:23.144506
3311  2023-10-18 12:40:23.176424
3312  2023-10-18 12:40:23.208367
3313  2023-10-18 12:40:23.240282
3314  2023-10-18 12:40:23.272277
3315  2023-10-18 12:40:23.320203
3316  2023-10-18 12:40:23.352147
3317  2023-10-18 12:40:23.384033
3318  2023-10-18 12:40:23.415984
3319  2023-10-18 12:40:23.447862
3320  2023-10-18 12:40:23.480821
3321  2023-10-18 12:40:23.512720
3322  2023-10-18 12:40:23.544635
3323  2023-10-18 12:40:23.576544
3324  2023-10-18 12:40:23.608460
3325  2023-10-18 12:40:23.640378
3326  2023-10-18 12:40:23.673262
3327  2023-10-18 12:40:23.720199
3328  2023-10-18 12:40:23.753049
3329  2023-10-18 12:40:23.785002
3330  2023-10-18 12:40:23.815939
3331  2023-10-18 12:40:23.848848
3332  2023-10-18 12:40:23.880786
3333  2023-10-18 12:40:23.912732
3334  2023-10-18 12:40:23.944646
3335  2023-10-18 12:40:23.976562
3336  2023-10-18 12:40:24.008477
3337  2023-10-18 12:40:24.040460
3338  2023-10-18 12:40:24.072367
3339  2023-10-18 12:40:24.120211
3340  2023-10-18 12:40:24.152126
3341  2023-10-18 12:40:24.184086
3342  2023-10-18 12:40:24.216954
3343  2023-10-18 12:40:24.247872
3344  2023-10-18 12:40:24.279828
3345  2023-10-18 12:40:24.312746
3346  2023-10-18 12:40:24.344612
3347  2023-10-18 12:40:24.376561
3348  2023-10-18 12:40:24.408474
3349  2023-10-18 12:40:24.440389
3350  2023-10-18 12:40:24.472272
3351  2023-10-18 12:40:24.520142
3352  2023-10-18 12:40:24.566069
3353  2023-10-18 12:40:24.585006
3354  2023-10-18 12:40:24.616921
3355  2023-10-18 12:40:24.648825
3356  2023-10-18 12:40:24.680746
3357  2023-10-18 12:40:24.712665
3358  2023-10-18 12:40:24.744580
3359  2023-10-18 12:40:24.776493
3360  2023-10-18 12:40:24.808381
3361  2023-10-18 12:40:24.840287
3362  2023-10-18 12:40:24.872250
3363  2023-10-18 12:40:24.920082
3364  2023-10-18 12:40:24.951988
3365  2023-10-18 12:40:24.983951
3366  2023-10-18 12:40:25.015843
3367  2023-10-18 12:40:25.047809
3368  2023-10-18 12:40:25.080680
3369  2023-10-18 12:40:25.112592
3370  2023-10-18 12:40:25.144343
3371  2023-10-18 12:40:25.176256
3372  2023-10-18 12:40:25.208171
3373  2023-10-18 12:40:25.240085
3374  2023-10-18 12:40:25.272157
3375  2023-10-18 12:40:25.320018
3376  2023-10-18 12:40:25.351903
3377  2023-10-18 12:40:25.383854
3378  2023-10-18 12:40:25.416776
3379  2023-10-18 12:40:25.448721
3380  2023-10-18 12:40:25.480636
3381  2023-10-18 12:40:25.512556
3382  2023-10-18 12:40:25.544463
3383  2023-10-18 12:40:25.576378
3384  2023-10-18 12:40:25.608297
3385  2023-10-18 12:40:25.640225
3386  2023-10-18 12:40:25.672139
3387  2023-10-18 12:40:25.719998
3388  2023-10-18 12:40:25.752875
3389  2023-10-18 12:40:25.785819
3390  2023-10-18 12:40:25.816758
3391  2023-10-18 12:40:25.848660
3392  2023-10-18 12:40:25.880566
3393  2023-10-18 12:40:25.912474
3394  2023-10-18 12:40:25.944389
3395  2023-10-18 12:40:25.976310
3396  2023-10-18 12:40:26.008234
3397  2023-10-18 12:40:26.040151
3398  2023-10-18 12:40:26.072060
3399  2023-10-18 12:40:26.120925
3400  2023-10-18 12:40:26.152863
3401  2023-10-18 12:40:26.184782
3402  2023-10-18 12:40:26.216669
3403  2023-10-18 12:40:26.248582
3404  2023-10-18 12:40:26.280501
3405  2023-10-18 12:40:26.312412
3406  2023-10-18 12:40:26.344327
3407  2023-10-18 12:40:26.376237
3408  2023-10-18 12:40:26.408124
3409  2023-10-18 12:40:26.440039
3410  2023-10-18 12:40:26.472951
3411  2023-10-18 12:40:26.520824
3412  2023-10-18 12:40:26.552737
3413  2023-10-18 12:40:26.584654
3414  2023-10-18 12:40:26.616600
3415  2023-10-18 12:40:26.648515
3416  2023-10-18 12:40:26.680424
3417  2023-10-18 12:40:26.712345
3418  2023-10-18 12:40:26.744268
3419  2023-10-18 12:40:26.776192
3420  2023-10-18 12:40:26.809053
3421  2023-10-18 12:40:26.841001
3422  2023-10-18 12:40:26.873905
3423  2023-10-18 12:40:26.921785
3424  2023-10-18 12:40:26.953716
3425  2023-10-18 12:40:26.985611
3426  2023-10-18 12:40:27.016523
3427  2023-10-18 12:40:27.048445
3428  2023-10-18 12:40:27.081348
3429  2023-10-18 12:40:27.113263
3430  2023-10-18 12:40:27.144214
3431  2023-10-18 12:40:27.176103
3432  2023-10-18 12:40:27.208048
3433  2023-10-18 12:40:27.241922
3434  2023-10-18 12:40:27.273844
3435  2023-10-18 12:40:27.320790
3436  2023-10-18 12:40:27.353685
3437  2023-10-18 12:40:27.385600
3438  2023-10-18 12:40:27.416523
3439  2023-10-18 12:40:27.448455
3440  2023-10-18 12:40:27.482357
3441  2023-10-18 12:40:27.512282
3442  2023-10-18 12:40:27.546148
3443  2023-10-18 12:40:27.576071
3444  2023-10-18 12:40:27.608007
3445  2023-10-18 12:40:27.641937
3446  2023-10-18 12:40:27.672844
3447  2023-10-18 12:40:27.721708
3448  2023-10-18 12:40:27.752627
3449  2023-10-18 12:40:27.784534
3450  2023-10-18 12:40:27.816453
3451  2023-10-18 12:40:27.848378
3452  2023-10-18 12:40:27.881283
3453  2023-10-18 12:40:27.913206
3454  2023-10-18 12:40:27.945114
3455  2023-10-18 12:40:27.976022
3456  2023-10-18 12:40:28.007944
3457  2023-10-18 12:40:28.040876
3458  2023-10-18 12:40:28.072810
3459  2023-10-18 12:40:28.120614
3460  2023-10-18 12:40:28.152556
3461  2023-10-18 12:40:28.186444
3462  2023-10-18 12:40:28.216413
3463  2023-10-18 12:40:28.248295
3464  2023-10-18 12:40:28.281207
3465  2023-10-18 12:40:28.314138
3466  2023-10-18 12:40:28.345048
3467  2023-10-18 12:40:28.376960
3468  2023-10-18 12:40:28.407899
3469  2023-10-18 12:40:28.440790
3470  2023-10-18 12:40:28.473702
3471  2023-10-18 12:40:28.520573
3472  2023-10-18 12:40:28.553483
3473  2023-10-18 12:40:28.585401
3474  2023-10-18 12:40:28.616320
3475  2023-10-18 12:40:28.648200
3476  2023-10-18 12:40:28.680115
3477  2023-10-18 12:40:28.714059
3478  2023-10-18 12:40:28.744986
3479  2023-10-18 12:40:28.776908
3480  2023-10-18 12:40:28.808806
3481  2023-10-18 12:40:28.840739
3482  2023-10-18 12:40:28.872631
3483  2023-10-18 12:40:28.920472
3484  2023-10-18 12:40:28.952412
3485  2023-10-18 12:40:28.984335
3486  2023-10-18 12:40:29.017271
3487  2023-10-18 12:40:29.048170
3488  2023-10-18 12:40:29.080074
3489  2023-10-18 12:40:29.111985
3490  2023-10-18 12:40:29.145915
3491  2023-10-18 12:40:29.177825
3492  2023-10-18 12:40:29.208737
3493  2023-10-18 12:40:29.240647
3494  2023-10-18 12:40:29.272562
3495  2023-10-18 12:40:29.320440
3496  2023-10-18 12:40:29.352351
3497  2023-10-18 12:40:29.384266
3498  2023-10-18 12:40:29.416176
3499  2023-10-18 12:40:29.448098
3500  2023-10-18 12:40:29.480010
3501  2023-10-18 12:40:29.512929
3502  2023-10-18 12:40:29.543832
3503  2023-10-18 12:40:29.576760
3504  2023-10-18 12:40:29.608667
3505  2023-10-18 12:40:29.640583
3506  2023-10-18 12:40:29.672519
3507  2023-10-18 12:40:29.720378
3508  2023-10-18 12:40:29.752286
3509  2023-10-18 12:40:29.784191
3510  2023-10-18 12:40:29.816129
3511  2023-10-18 12:40:29.848029
3512  2023-10-18 12:40:29.879939
3513  2023-10-18 12:40:29.911855
3514  2023-10-18 12:40:29.944772
3515  2023-10-18 12:40:29.976711
3516  2023-10-18 12:40:30.008588
3517  2023-10-18 12:40:30.040504
3518  2023-10-18 12:40:30.072439
3519  2023-10-18 12:40:30.120265
3520  2023-10-18 12:40:30.153177
3521  2023-10-18 12:40:30.184128
3522  2023-10-18 12:40:30.217041
3523  2023-10-18 12:40:30.247992
3524  2023-10-18 12:40:30.279871
3525  2023-10-18 12:40:30.312784
3526  2023-10-18 12:40:30.344698
3527  2023-10-18 12:40:30.376613
3528  2023-10-18 12:40:30.408527
3529  2023-10-18 12:40:30.439959
3530  2023-10-18 12:40:30.472839
3531  2023-10-18 12:40:30.519817
3532  2023-10-18 12:40:30.552738
3533  2023-10-18 12:40:30.584657
3534  2023-10-18 12:40:30.616564
3535  2023-10-18 12:40:30.648494
3536  2023-10-18 12:40:30.680394
3537  2023-10-18 12:40:30.712311
3538  2023-10-18 12:40:30.744227
3539  2023-10-18 12:40:30.776145
3540  2023-10-18 12:40:30.808064
3541  2023-10-18 12:40:30.839962
3542  2023-10-18 12:40:30.871881
3543  2023-10-18 12:40:30.920768
3544  2023-10-18 12:40:30.952667
3545  2023-10-18 12:40:30.984583
3546  2023-10-18 12:40:31.016516
3547  2023-10-18 12:40:31.048402
3548  2023-10-18 12:40:31.080326
3549  2023-10-18 12:40:31.112241
3550  2023-10-18 12:40:31.144182
3551  2023-10-18 12:40:31.176090
3552  2023-10-18 12:40:31.207987
3553  2023-10-18 12:40:31.240887
3554  2023-10-18 12:40:31.271814
3555  2023-10-18 12:40:31.320650
3556  2023-10-18 12:40:31.352565
3557  2023-10-18 12:40:31.384480
3558  2023-10-18 12:40:31.416431
3559  2023-10-18 12:40:31.448336
3560  2023-10-18 12:40:31.480249
3561  2023-10-18 12:40:31.512197
