
1  2023-11-29 15:46:36.243307
2  2023-11-29 15:46:36.291235
3  2023-11-29 15:46:36.323094
4  2023-11-29 15:46:36.355009
5  2023-11-29 15:46:36.387015
6  2023-11-29 15:46:36.418873
7  2023-11-29 15:46:36.450847
8  2023-11-29 15:46:36.482734
9  2023-11-29 15:46:36.514674
10  2023-11-29 15:46:36.546562
11  2023-11-29 15:46:36.578446
12  2023-11-29 15:46:36.611392
13  2023-11-29 15:46:36.643274
14  2023-11-29 15:46:36.691145
15  2023-11-29 15:46:36.723205
16  2023-11-29 15:46:36.755122
17  2023-11-29 15:46:36.787037
18  2023-11-29 15:46:36.819037
19  2023-11-29 15:46:36.850952
20  2023-11-29 15:46:36.882867
21  2023-11-29 15:46:36.914781
22  2023-11-29 15:46:36.946729
23  2023-11-29 15:46:36.978726
24  2023-11-29 15:46:37.011638
25  2023-11-29 15:46:37.042555
26  2023-11-29 15:46:37.091425
27  2023-11-29 15:46:37.123339
28  2023-11-29 15:46:37.155302
29  2023-11-29 15:46:37.187218
30  2023-11-29 15:46:37.219161
31  2023-11-29 15:46:37.251075
32  2023-11-29 15:46:37.282994
33  2023-11-29 15:46:37.315905
34  2023-11-29 15:46:37.346819
35  2023-11-29 15:46:37.378737
36  2023-11-29 15:46:37.410776
37  2023-11-29 15:46:37.442676
38  2023-11-29 15:46:37.491512
39  2023-11-29 15:46:37.522429
40  2023-11-29 15:46:37.555341
41  2023-11-29 15:46:37.587305
42  2023-11-29 15:46:37.619237
43  2023-11-29 15:46:37.651204
44  2023-11-29 15:46:37.683098
45  2023-11-29 15:46:37.715036
46  2023-11-29 15:46:37.746896
47  2023-11-29 15:46:37.778810
48  2023-11-29 15:46:37.810762
49  2023-11-29 15:46:37.842673
50  2023-11-29 15:46:37.890559
51  2023-11-29 15:46:37.922426
52  2023-11-29 15:46:37.955340
53  2023-11-29 15:46:37.987299
54  2023-11-29 15:46:38.019195
55  2023-11-29 15:46:38.051157
56  2023-11-29 15:46:38.083071
57  2023-11-29 15:46:38.115069
58  2023-11-29 15:46:38.146945
59  2023-11-29 15:46:38.178860
60  2023-11-29 15:46:38.210775
61  2023-11-29 15:46:38.242729
62  2023-11-29 15:46:38.290593
63  2023-11-29 15:46:38.322475
64  2023-11-29 15:46:38.355387
65  2023-11-29 15:46:38.387301
66  2023-11-29 15:46:38.419269
67  2023-11-29 15:46:38.451183
68  2023-11-29 15:46:38.483078
69  2023-11-29 15:46:38.514960
70  2023-11-29 15:46:38.546928
71  2023-11-29 15:46:38.578843
72  2023-11-29 15:46:38.610757
73  2023-11-29 15:46:38.642672
74  2023-11-29 15:46:38.690543
75  2023-11-29 15:46:38.722458
76  2023-11-29 15:46:38.755370
77  2023-11-29 15:46:38.787285
78  2023-11-29 15:46:38.819199
79  2023-11-29 15:46:38.851114
80  2023-11-29 15:46:38.883029
81  2023-11-29 15:46:38.914943
82  2023-11-29 15:46:38.946858
83  2023-11-29 15:46:38.978773
84  2023-11-29 15:46:39.011685
85  2023-11-29 15:46:39.042601
86  2023-11-29 15:46:39.090473
87  2023-11-29 15:46:39.123385
88  2023-11-29 15:46:39.155300
89  2023-11-29 15:46:39.187216
90  2023-11-29 15:46:39.219130
91  2023-11-29 15:46:39.251044
92  2023-11-29 15:46:39.283032
93  2023-11-29 15:46:39.314982
94  2023-11-29 15:46:39.346893
95  2023-11-29 15:46:39.378776
96  2023-11-29 15:46:39.411688
97  2023-11-29 15:46:39.443647
98  2023-11-29 15:46:39.490576
99  2023-11-29 15:46:39.522570
100  2023-11-29 15:46:39.554545
101  2023-11-29 15:46:39.586431
102  2023-11-29 15:46:39.618422
103  2023-11-29 15:46:39.650380
104  2023-11-29 15:46:39.683283
105  2023-11-29 15:46:39.715164
106  2023-11-29 15:46:39.747078
107  2023-11-29 15:46:39.778993
108  2023-11-29 15:46:39.810908
109  2023-11-29 15:46:39.842822
110  2023-11-29 15:46:39.890703
111  2023-11-29 15:46:39.922719
112  2023-11-29 15:46:39.954668
113  2023-11-29 15:46:39.986582
114  2023-11-29 15:46:40.018491
115  2023-11-29 15:46:40.050497
116  2023-11-29 15:46:40.082459
117  2023-11-29 15:46:40.115383
118  2023-11-29 15:46:40.147286
119  2023-11-29 15:46:40.179201
120  2023-11-29 15:46:40.211115
121  2023-11-29 15:46:40.243030
122  2023-11-29 15:46:40.290910
123  2023-11-29 15:46:40.322817
124  2023-11-29 15:46:40.354731
125  2023-11-29 15:46:40.386645
126  2023-11-29 15:46:40.418560
127  2023-11-29 15:46:40.450474
128  2023-11-29 15:46:40.482389
129  2023-11-29 15:46:40.515302
130  2023-11-29 15:46:40.547223
131  2023-11-29 15:46:40.579130
132  2023-11-29 15:46:40.611045
133  2023-11-29 15:46:40.642960
134  2023-11-29 15:46:40.691445
135  2023-11-29 15:46:40.723360
136  2023-11-29 15:46:40.755294
137  2023-11-29 15:46:40.787247
138  2023-11-29 15:46:40.819141
139  2023-11-29 15:46:40.851378
140  2023-11-29 15:46:40.883293
141  2023-11-29 15:46:40.915302
142  2023-11-29 15:46:40.947217
143  2023-11-29 15:46:40.979132
144  2023-11-29 15:46:41.011052
145  2023-11-29 15:46:41.043441
146  2023-11-29 15:46:41.091314
147  2023-11-29 15:46:41.123231
148  2023-11-29 15:46:41.155150
149  2023-11-29 15:46:41.187095
150  2023-11-29 15:46:41.218951
151  2023-11-29 15:46:41.250866
152  2023-11-29 15:46:41.282781
153  2023-11-29 15:46:41.314702
154  2023-11-29 15:46:41.346648
155  2023-11-29 15:46:41.378554
156  2023-11-29 15:46:41.411857
157  2023-11-29 15:46:41.442853
158  2023-11-29 15:46:41.490773
159  2023-11-29 15:46:41.522736
160  2023-11-29 15:46:41.554602
161  2023-11-29 15:46:41.586517
162  2023-11-29 15:46:41.618432
163  2023-11-29 15:46:41.650394
164  2023-11-29 15:46:41.683295
165  2023-11-29 15:46:41.715173
166  2023-11-29 15:46:41.747087
167  2023-11-29 15:46:41.779037
168  2023-11-29 15:46:41.811915
169  2023-11-29 15:46:41.842831
170  2023-11-29 15:46:41.890737
171  2023-11-29 15:46:41.922731
172  2023-11-29 15:46:41.954645
173  2023-11-29 15:46:41.986560
174  2023-11-29 15:46:42.018475
175  2023-11-29 15:46:42.050389
176  2023-11-29 15:46:42.083339
177  2023-11-29 15:46:42.115267
178  2023-11-29 15:46:42.147199
179  2023-11-29 15:46:42.179314
180  2023-11-29 15:46:42.211274
181  2023-11-29 15:46:42.243206
182  2023-11-29 15:46:42.291077
183  2023-11-29 15:46:42.323094
184  2023-11-29 15:46:42.355003
185  2023-11-29 15:46:42.387040
186  2023-11-29 15:46:42.418955
187  2023-11-29 15:46:42.450869
188  2023-11-29 15:46:42.482907
189  2023-11-29 15:46:42.514827
190  2023-11-29 15:46:42.546737
191  2023-11-29 15:46:42.578696
192  2023-11-29 15:46:42.611564
193  2023-11-29 15:46:42.643478
194  2023-11-29 15:46:42.690352
195  2023-11-29 15:46:42.723264
196  2023-11-29 15:46:42.755179
197  2023-11-29 15:46:42.787094
198  2023-11-29 15:46:42.819008
199  2023-11-29 15:46:42.850924
200  2023-11-29 15:46:42.882839
201  2023-11-29 15:46:42.914753
202  2023-11-29 15:46:42.946667
203  2023-11-29 15:46:42.978583
204  2023-11-29 15:46:43.011644
205  2023-11-29 15:46:43.043522
206  2023-11-29 15:46:43.090396
207  2023-11-29 15:46:43.122419
208  2023-11-29 15:46:43.154334
209  2023-11-29 15:46:43.187285
210  2023-11-29 15:46:43.219209
211  2023-11-29 15:46:43.251075
212  2023-11-29 15:46:43.282993
213  2023-11-29 15:46:43.314937
214  2023-11-29 15:46:43.346850
215  2023-11-29 15:46:43.378734
216  2023-11-29 15:46:43.411646
217  2023-11-29 15:46:43.443645
218  2023-11-29 15:46:43.490503
219  2023-11-29 15:46:43.522489
220  2023-11-29 15:46:43.554390
221  2023-11-29 15:46:43.587268
222  2023-11-29 15:46:43.619182
223  2023-11-29 15:46:43.651130
224  2023-11-29 15:46:43.683045
225  2023-11-29 15:46:43.715006
226  2023-11-29 15:46:43.746920
227  2023-11-29 15:46:43.778837
228  2023-11-29 15:46:43.810781
229  2023-11-29 15:46:43.842664
230  2023-11-29 15:46:43.890577
231  2023-11-29 15:46:43.922451
232  2023-11-29 15:46:43.954365
233  2023-11-29 15:46:43.987277
234  2023-11-29 15:46:44.019192
235  2023-11-29 15:46:44.051106
236  2023-11-29 15:46:44.083021
237  2023-11-29 15:46:44.114936
238  2023-11-29 15:46:44.146860
239  2023-11-29 15:46:44.178766
240  2023-11-29 15:46:44.211681
241  2023-11-29 15:46:44.242594
242  2023-11-29 15:46:44.290466
243  2023-11-29 15:46:44.322381
244  2023-11-29 15:46:44.355293
245  2023-11-29 15:46:44.387207
246  2023-11-29 15:46:44.419122
247  2023-11-29 15:46:44.451037
248  2023-11-29 15:46:44.482951
249  2023-11-29 15:46:44.514866
250  2023-11-29 15:46:44.546780
251  2023-11-29 15:46:44.578695
252  2023-11-29 15:46:44.610708
253  2023-11-29 15:46:44.642609
254  2023-11-29 15:46:44.690481
255  2023-11-29 15:46:44.722393
256  2023-11-29 15:46:44.755290
257  2023-11-29 15:46:44.787220
258  2023-11-29 15:46:44.819134
259  2023-11-29 15:46:44.851049
260  2023-11-29 15:46:44.882962
261  2023-11-29 15:46:44.914847
262  2023-11-29 15:46:44.946762
263  2023-11-29 15:46:44.979673
264  2023-11-29 15:46:45.011590
265  2023-11-29 15:46:45.042538
266  2023-11-29 15:46:45.091375
267  2023-11-29 15:46:45.123335
268  2023-11-29 15:46:45.155250
269  2023-11-29 15:46:45.187186
270  2023-11-29 15:46:45.219075
271  2023-11-29 15:46:45.250986
272  2023-11-29 15:46:45.282863
273  2023-11-29 15:46:45.314777
274  2023-11-29 15:46:45.346691
275  2023-11-29 15:46:45.378639
276  2023-11-29 15:46:45.410552
277  2023-11-29 15:46:45.442465
278  2023-11-29 15:46:45.491356
279  2023-11-29 15:46:45.523271
280  2023-11-29 15:46:45.555185
281  2023-11-29 15:46:45.587100
282  2023-11-29 15:46:45.619094
283  2023-11-29 15:46:45.651002
284  2023-11-29 15:46:45.682885
285  2023-11-29 15:46:45.714799
286  2023-11-29 15:46:45.746716
287  2023-11-29 15:46:45.779659
288  2023-11-29 15:46:45.810574
289  2023-11-29 15:46:45.842457
290  2023-11-29 15:46:45.890328
291  2023-11-29 15:46:45.923242
292  2023-11-29 15:46:45.955197
293  2023-11-29 15:46:45.987108
294  2023-11-29 15:46:46.018985
295  2023-11-29 15:46:46.050900
296  2023-11-29 15:46:46.082814
297  2023-11-29 15:46:46.114728
298  2023-11-29 15:46:46.146688
299  2023-11-29 15:46:46.178587
300  2023-11-29 15:46:46.211501
301  2023-11-29 15:46:46.243385
302  2023-11-29 15:46:46.291287
303  2023-11-29 15:46:46.323207
304  2023-11-29 15:46:46.355139
305  2023-11-29 15:46:46.387035
306  2023-11-29 15:46:46.418915
307  2023-11-29 15:46:46.450830
308  2023-11-29 15:46:46.482828
309  2023-11-29 15:46:46.514700
310  2023-11-29 15:46:46.546615
311  2023-11-29 15:46:46.578530
312  2023-11-29 15:46:46.611353
313  2023-11-29 15:46:46.643266
314  2023-11-29 15:46:46.691131
315  2023-11-29 15:46:46.723045
316  2023-11-29 15:46:46.755001
317  2023-11-29 15:46:46.786969
318  2023-11-29 15:46:46.818895
319  2023-11-29 15:46:46.850848
320  2023-11-29 15:46:46.882764
321  2023-11-29 15:46:46.914709
322  2023-11-29 15:46:46.946626
323  2023-11-29 15:46:46.978508
324  2023-11-29 15:46:47.011428
325  2023-11-29 15:46:47.042366
326  2023-11-29 15:46:47.091252
327  2023-11-29 15:46:47.123166
328  2023-11-29 15:46:47.155081
329  2023-11-29 15:46:47.186995
330  2023-11-29 15:46:47.218910
331  2023-11-29 15:46:47.250791
332  2023-11-29 15:46:47.282709
333  2023-11-29 15:46:47.314789
334  2023-11-29 15:46:47.346629
335  2023-11-29 15:46:47.378641
336  2023-11-29 15:46:47.410555
337  2023-11-29 15:46:47.443502
338  2023-11-29 15:46:47.491339
339  2023-11-29 15:46:47.523303
340  2023-11-29 15:46:47.555168
341  2023-11-29 15:46:47.587195
342  2023-11-29 15:46:47.619109
343  2023-11-29 15:46:47.651067
344  2023-11-29 15:46:47.682977
345  2023-11-29 15:46:47.714853
346  2023-11-29 15:46:47.746768
347  2023-11-29 15:46:47.778715
348  2023-11-29 15:46:47.811600
349  2023-11-29 15:46:47.842512
350  2023-11-29 15:46:47.890439
351  2023-11-29 15:46:47.923296
352  2023-11-29 15:46:47.955350
353  2023-11-29 15:46:47.987258
354  2023-11-29 15:46:48.019173
355  2023-11-29 15:46:48.051101
356  2023-11-29 15:46:48.083002
357  2023-11-29 15:46:48.114917
358  2023-11-29 15:46:48.146831
359  2023-11-29 15:46:48.178746
360  2023-11-29 15:46:48.210660
361  2023-11-29 15:46:48.242575
362  2023-11-29 15:46:48.290447
363  2023-11-29 15:46:48.322362
364  2023-11-29 15:46:48.355274
365  2023-11-29 15:46:48.387188
366  2023-11-29 15:46:48.419103
367  2023-11-29 15:46:48.451017
368  2023-11-29 15:46:48.482933
369  2023-11-29 15:46:48.514851
370  2023-11-29 15:46:48.546761
371  2023-11-29 15:46:48.578676
372  2023-11-29 15:46:48.611600
373  2023-11-29 15:46:48.643503
374  2023-11-29 15:46:48.690377
375  2023-11-29 15:46:48.723289
376  2023-11-29 15:46:48.755204
377  2023-11-29 15:46:48.787118
378  2023-11-29 15:46:48.819033
379  2023-11-29 15:46:48.850947
380  2023-11-29 15:46:48.882862
381  2023-11-29 15:46:48.914835
382  2023-11-29 15:46:48.947689
383  2023-11-29 15:46:48.979651
384  2023-11-29 15:46:49.011519
385  2023-11-29 15:46:49.043443
386  2023-11-29 15:46:49.091304
387  2023-11-29 15:46:49.123219
388  2023-11-29 15:46:49.155183
389  2023-11-29 15:46:49.187049
390  2023-11-29 15:46:49.218963
391  2023-11-29 15:46:49.250877
392  2023-11-29 15:46:49.283791
393  2023-11-29 15:46:49.314708
394  2023-11-29 15:46:49.347620
395  2023-11-29 15:46:49.379534
396  2023-11-29 15:46:49.411449
397  2023-11-29 15:46:49.443364
398  2023-11-29 15:46:49.491243
399  2023-11-29 15:46:49.523221
400  2023-11-29 15:46:49.555136
401  2023-11-29 15:46:49.587132
402  2023-11-29 15:46:49.618965
403  2023-11-29 15:46:49.650878
404  2023-11-29 15:46:49.682990
405  2023-11-29 15:46:49.714896
406  2023-11-29 15:46:49.746817
407  2023-11-29 15:46:49.778736
408  2023-11-29 15:46:49.811677
409  2023-11-29 15:46:49.843552
410  2023-11-29 15:46:49.890430
411  2023-11-29 15:46:49.923351
412  2023-11-29 15:46:49.955325
413  2023-11-29 15:46:49.987236
414  2023-11-29 15:46:50.019134
415  2023-11-29 15:46:50.051129
416  2023-11-29 15:46:50.083052
417  2023-11-29 15:46:50.115046
418  2023-11-29 15:46:50.146948
419  2023-11-29 15:46:50.178799
420  2023-11-29 15:46:50.210744
421  2023-11-29 15:46:50.243673
422  2023-11-29 15:46:50.290693
423  2023-11-29 15:46:50.322607
424  2023-11-29 15:46:50.354583
425  2023-11-29 15:46:50.386468
426  2023-11-29 15:46:50.418352
427  2023-11-29 15:46:50.450365
428  2023-11-29 15:46:50.483357
429  2023-11-29 15:46:50.515288
430  2023-11-29 15:46:50.547174
431  2023-11-29 15:46:50.579061
432  2023-11-29 15:46:50.610975
433  2023-11-29 15:46:50.642977
434  2023-11-29 15:46:50.691283
435  2023-11-29 15:46:50.723214
436  2023-11-29 15:46:50.755136
437  2023-11-29 15:46:50.787026
438  2023-11-29 15:46:50.818950
439  2023-11-29 15:46:50.850873
440  2023-11-29 15:46:50.882803
441  2023-11-29 15:46:50.914717
442  2023-11-29 15:46:50.946764
443  2023-11-29 15:46:50.978654
444  2023-11-29 15:46:51.011514
445  2023-11-29 15:46:51.043475
446  2023-11-29 15:46:51.091301
447  2023-11-29 15:46:51.123261
448  2023-11-29 15:46:51.155186
449  2023-11-29 15:46:51.187092
450  2023-11-29 15:46:51.219009
451  2023-11-29 15:46:51.250926
452  2023-11-29 15:46:51.282849
453  2023-11-29 15:46:51.314742
454  2023-11-29 15:46:51.346654
455  2023-11-29 15:46:51.378571
456  2023-11-29 15:46:51.411476
457  2023-11-29 15:46:51.443410
458  2023-11-29 15:46:51.491231
459  2023-11-29 15:46:51.523184
460  2023-11-29 15:46:51.555111
461  2023-11-29 15:46:51.587025
462  2023-11-29 15:46:51.618945
463  2023-11-29 15:46:51.650857
464  2023-11-29 15:46:51.682747
465  2023-11-29 15:46:51.714682
466  2023-11-29 15:46:51.746610
467  2023-11-29 15:46:51.778508
468  2023-11-29 15:46:51.810604
469  2023-11-29 15:46:51.842526
470  2023-11-29 15:46:51.890401
471  2023-11-29 15:46:51.923270
472  2023-11-29 15:46:51.955237
473  2023-11-29 15:46:51.987150
474  2023-11-29 15:46:52.019208
475  2023-11-29 15:46:52.051056
476  2023-11-29 15:46:52.083023
477  2023-11-29 15:46:52.114952
478  2023-11-29 15:46:52.146868
479  2023-11-29 15:46:52.178883
480  2023-11-29 15:46:52.210747
481  2023-11-29 15:46:52.242693
482  2023-11-29 15:46:52.290534
483  2023-11-29 15:46:52.322479
484  2023-11-29 15:46:52.354418
485  2023-11-29 15:46:52.387311
486  2023-11-29 15:46:52.419239
487  2023-11-29 15:46:52.451152
488  2023-11-29 15:46:52.483051
489  2023-11-29 15:46:52.514989
490  2023-11-29 15:46:52.546907
491  2023-11-29 15:46:52.578839
492  2023-11-29 15:46:52.611675
493  2023-11-29 15:46:52.643619
494  2023-11-29 15:46:52.690502
495  2023-11-29 15:46:52.723376
496  2023-11-29 15:46:52.755317
497  2023-11-29 15:46:52.787268
498  2023-11-29 15:46:52.819165
499  2023-11-29 15:46:52.851034
500  2023-11-29 15:46:52.882949
501  2023-11-29 15:46:52.914901
502  2023-11-29 15:46:52.946831
503  2023-11-29 15:46:52.978850
504  2023-11-29 15:46:53.011763
505  2023-11-29 15:46:53.042726
506  2023-11-29 15:46:53.090600
507  2023-11-29 15:46:53.122508
508  2023-11-29 15:46:53.154410
509  2023-11-29 15:46:53.187293
510  2023-11-29 15:46:53.219266
511  2023-11-29 15:46:53.251121
512  2023-11-29 15:46:53.283035
513  2023-11-29 15:46:53.315949
514  2023-11-29 15:46:53.346869
515  2023-11-29 15:46:53.378859
516  2023-11-29 15:46:53.411717
517  2023-11-29 15:46:53.442646
518  2023-11-29 15:46:53.490480
519  2023-11-29 15:46:53.522431
520  2023-11-29 15:46:53.554341
521  2023-11-29 15:46:53.587263
522  2023-11-29 15:46:53.619189
523  2023-11-29 15:46:53.651081
524  2023-11-29 15:46:53.683020
525  2023-11-29 15:46:53.714880
526  2023-11-29 15:46:53.746868
527  2023-11-29 15:46:53.778751
528  2023-11-29 15:46:53.811671
529  2023-11-29 15:46:53.843536
530  2023-11-29 15:46:53.890449
531  2023-11-29 15:46:53.923322
532  2023-11-29 15:46:53.955237
533  2023-11-29 15:46:53.987217
534  2023-11-29 15:46:54.019134
535  2023-11-29 15:46:54.051034
536  2023-11-29 15:46:54.083044
537  2023-11-29 15:46:54.114959
538  2023-11-29 15:46:54.146924
539  2023-11-29 15:46:54.178856
540  2023-11-29 15:46:54.210736
541  2023-11-29 15:46:54.243615
542  2023-11-29 15:46:54.290960
543  2023-11-29 15:46:54.322821
544  2023-11-29 15:46:54.354814
545  2023-11-29 15:46:54.386750
546  2023-11-29 15:46:54.418711
547  2023-11-29 15:46:54.451248
548  2023-11-29 15:46:54.483181
549  2023-11-29 15:46:54.515071
550  2023-11-29 15:46:54.547072
551  2023-11-29 15:46:54.579009
552  2023-11-29 15:46:54.610915
553  2023-11-29 15:46:54.642837
554  2023-11-29 15:46:54.690697
555  2023-11-29 15:46:54.722605
556  2023-11-29 15:46:54.754518
557  2023-11-29 15:46:54.786442
558  2023-11-29 15:46:54.818350
559  2023-11-29 15:46:54.851277
560  2023-11-29 15:46:54.883187
561  2023-11-29 15:46:54.915089
562  2023-11-29 15:46:54.947005
563  2023-11-29 15:46:54.978939
564  2023-11-29 15:46:55.011835
565  2023-11-29 15:46:55.042842
566  2023-11-29 15:46:55.090719
567  2023-11-29 15:46:55.122812
568  2023-11-29 15:46:55.154737
569  2023-11-29 15:46:55.186625
570  2023-11-29 15:46:55.218528
571  2023-11-29 15:46:55.250453
572  2023-11-29 15:46:55.283366
573  2023-11-29 15:46:55.315312
574  2023-11-29 15:46:55.347201
575  2023-11-29 15:46:55.379121
576  2023-11-29 15:46:55.411012
577  2023-11-29 15:46:55.442976
578  2023-11-29 15:46:55.490838
579  2023-11-29 15:46:55.522731
580  2023-11-29 15:46:55.555595
581  2023-11-29 15:46:55.586544
582  2023-11-29 15:46:55.618456
583  2023-11-29 15:46:55.651372
584  2023-11-29 15:46:55.683096
585  2023-11-29 15:46:55.715121
586  2023-11-29 15:46:55.747030
587  2023-11-29 15:46:55.778919
588  2023-11-29 15:46:55.811830
589  2023-11-29 15:46:55.842748
590  2023-11-29 15:46:55.890692
591  2023-11-29 15:46:55.922563
592  2023-11-29 15:46:55.954478
593  2023-11-29 15:46:55.986388
594  2023-11-29 15:46:56.019276
595  2023-11-29 15:46:56.051190
596  2023-11-29 15:46:56.083155
597  2023-11-29 15:46:56.115019
598  2023-11-29 15:46:56.146934
599  2023-11-29 15:46:56.178848
600  2023-11-29 15:46:56.210827
601  2023-11-29 15:46:56.242710
602  2023-11-29 15:46:56.290580
603  2023-11-29 15:46:56.322508
604  2023-11-29 15:46:56.354504
605  2023-11-29 15:46:56.386476
606  2023-11-29 15:46:56.418405
607  2023-11-29 15:46:56.451319
608  2023-11-29 15:46:56.483217
609  2023-11-29 15:46:56.515132
610  2023-11-29 15:46:56.547015
611  2023-11-29 15:46:56.578982
612  2023-11-29 15:46:56.610894
613  2023-11-29 15:46:56.642831
614  2023-11-29 15:46:56.690682
615  2023-11-29 15:46:56.722603
616  2023-11-29 15:46:56.754526
617  2023-11-29 15:46:56.786426
618  2023-11-29 15:46:56.818375
619  2023-11-29 15:46:56.851286
620  2023-11-29 15:46:56.883218
621  2023-11-29 15:46:56.915083
622  2023-11-29 15:46:56.946997
623  2023-11-29 15:46:56.978938
624  2023-11-29 15:46:57.010867
625  2023-11-29 15:46:57.042809
626  2023-11-29 15:46:57.090647
627  2023-11-29 15:46:57.122528
628  2023-11-29 15:46:57.154484
629  2023-11-29 15:46:57.186389
630  2023-11-29 15:46:57.219313
631  2023-11-29 15:46:57.251234
632  2023-11-29 15:46:57.283129
633  2023-11-29 15:46:57.315013
634  2023-11-29 15:46:57.346928
635  2023-11-29 15:46:57.378898
636  2023-11-29 15:46:57.410817
637  2023-11-29 15:46:57.442705
638  2023-11-29 15:46:57.490633
639  2023-11-29 15:46:57.522681
640  2023-11-29 15:46:57.554593
641  2023-11-29 15:46:57.586511
642  2023-11-29 15:46:57.618424
643  2023-11-29 15:46:57.651369
644  2023-11-29 15:46:57.683218
645  2023-11-29 15:46:57.715133
646  2023-11-29 15:46:57.747047
647  2023-11-29 15:46:57.779015
648  2023-11-29 15:46:57.810929
649  2023-11-29 15:46:57.842857
650  2023-11-29 15:46:57.890707
651  2023-11-29 15:46:57.922612
652  2023-11-29 15:46:57.954493
653  2023-11-29 15:46:57.986407
654  2023-11-29 15:46:58.019319
655  2023-11-29 15:46:58.051234
656  2023-11-29 15:46:58.083148
657  2023-11-29 15:46:58.115063
658  2023-11-29 15:46:58.146978
659  2023-11-29 15:46:58.178892
660  2023-11-29 15:46:58.210807
661  2023-11-29 15:46:58.242755
662  2023-11-29 15:46:58.290636
663  2023-11-29 15:46:58.322545
664  2023-11-29 15:46:58.354422
665  2023-11-29 15:46:58.387334
666  2023-11-29 15:46:58.419249
667  2023-11-29 15:46:58.451164
668  2023-11-29 15:46:58.483078
669  2023-11-29 15:46:58.515034
670  2023-11-29 15:46:58.546907
671  2023-11-29 15:46:58.578822
672  2023-11-29 15:46:58.610737
673  2023-11-29 15:46:58.643679
674  2023-11-29 15:46:58.690523
675  2023-11-29 15:46:58.723436
676  2023-11-29 15:46:58.754368
677  2023-11-29 15:46:58.786267
678  2023-11-29 15:46:58.819179
679  2023-11-29 15:46:58.851096
680  2023-11-29 15:46:58.883012
681  2023-11-29 15:46:58.914923
682  2023-11-29 15:46:58.946837
683  2023-11-29 15:46:58.978755
684  2023-11-29 15:46:59.010699
685  2023-11-29 15:46:59.043578
686  2023-11-29 15:46:59.090453
687  2023-11-29 15:46:59.122513
688  2023-11-29 15:46:59.154428
689  2023-11-29 15:46:59.186378
690  2023-11-29 15:46:59.219284
691  2023-11-29 15:46:59.251169
692  2023-11-29 15:46:59.283083
693  2023-11-29 15:46:59.315033
694  2023-11-29 15:46:59.346947
695  2023-11-29 15:46:59.378827
696  2023-11-29 15:46:59.410742
697  2023-11-29 15:46:59.443693
698  2023-11-29 15:46:59.490673
699  2023-11-29 15:46:59.522647
700  2023-11-29 15:46:59.554532
701  2023-11-29 15:46:59.586416
702  2023-11-29 15:46:59.618331
703  2023-11-29 15:46:59.651293
704  2023-11-29 15:46:59.683214
705  2023-11-29 15:46:59.715072
706  2023-11-29 15:46:59.746987
707  2023-11-29 15:46:59.778901
708  2023-11-29 15:46:59.810901
709  2023-11-29 15:46:59.842730
710  2023-11-29 15:46:59.890634
711  2023-11-29 15:46:59.922517
712  2023-11-29 15:46:59.954432
713  2023-11-29 15:46:59.986378
714  2023-11-29 15:47:00.018295
715  2023-11-29 15:47:00.051173
716  2023-11-29 15:47:00.083087
717  2023-11-29 15:47:00.115002
718  2023-11-29 15:47:00.146917
719  2023-11-29 15:47:00.178831
720  2023-11-29 15:47:00.210746
721  2023-11-29 15:47:00.242660
722  2023-11-29 15:47:00.290532
723  2023-11-29 15:47:00.322447
724  2023-11-29 15:47:00.354361
725  2023-11-29 15:47:00.387273
726  2023-11-29 15:47:00.419188
727  2023-11-29 15:47:00.451102
728  2023-11-29 15:47:00.483017
729  2023-11-29 15:47:00.514932
730  2023-11-29 15:47:00.546846
731  2023-11-29 15:47:00.578761
732  2023-11-29 15:47:00.610684
733  2023-11-29 15:47:00.643304
734  2023-11-29 15:47:00.691176
735  2023-11-29 15:47:00.723091
736  2023-11-29 15:47:00.755005
737  2023-11-29 15:47:00.786920
738  2023-11-29 15:47:00.818835
739  2023-11-29 15:47:00.850757
740  2023-11-29 15:47:00.883664
741  2023-11-29 15:47:00.915576
742  2023-11-29 15:47:00.947492
743  2023-11-29 15:47:00.979407
744  2023-11-29 15:47:01.011322
745  2023-11-29 15:47:01.043235
746  2023-11-29 15:47:01.091106
747  2023-11-29 15:47:01.123021
748  2023-11-29 15:47:01.155056
749  2023-11-29 15:47:01.186968
750  2023-11-29 15:47:01.218882
751  2023-11-29 15:47:01.250797
752  2023-11-29 15:47:01.282823
753  2023-11-29 15:47:01.314739
754  2023-11-29 15:47:01.346660
755  2023-11-29 15:47:01.378601
756  2023-11-29 15:47:01.410565
757  2023-11-29 15:47:01.443477
758  2023-11-29 15:47:01.490453
759  2023-11-29 15:47:01.522338
760  2023-11-29 15:47:01.554367
761  2023-11-29 15:47:01.587284
762  2023-11-29 15:47:01.619248
763  2023-11-29 15:47:01.651196
764  2023-11-29 15:47:01.683112
765  2023-11-29 15:47:01.714992
766  2023-11-29 15:47:01.746907
767  2023-11-29 15:47:01.778821
768  2023-11-29 15:47:01.810813
769  2023-11-29 15:47:01.842650
770  2023-11-29 15:47:01.890570
771  2023-11-29 15:47:01.922437
772  2023-11-29 15:47:01.954353
773  2023-11-29 15:47:01.986267
774  2023-11-29 15:47:02.019179
775  2023-11-29 15:47:02.051094
776  2023-11-29 15:47:02.083009
777  2023-11-29 15:47:02.114923
778  2023-11-29 15:47:02.146895
779  2023-11-29 15:47:02.178753
780  2023-11-29 15:47:02.210793
781  2023-11-29 15:47:02.242707
782  2023-11-29 15:47:02.290638
783  2023-11-29 15:47:02.322558
784  2023-11-29 15:47:02.354512
785  2023-11-29 15:47:02.386388
786  2023-11-29 15:47:02.419306
787  2023-11-29 15:47:02.451316
788  2023-11-29 15:47:02.483296
789  2023-11-29 15:47:02.515177
790  2023-11-29 15:47:02.547063
791  2023-11-29 15:47:02.578974
792  2023-11-29 15:47:02.610926
793  2023-11-29 15:47:02.642880
794  2023-11-29 15:47:02.690717
795  2023-11-29 15:47:02.722628
796  2023-11-29 15:47:02.754504
797  2023-11-29 15:47:02.786419
798  2023-11-29 15:47:02.818380
799  2023-11-29 15:47:02.851301
800  2023-11-29 15:47:02.883160
801  2023-11-29 15:47:02.915185
802  2023-11-29 15:47:02.947214
803  2023-11-29 15:47:02.979128
804  2023-11-29 15:47:03.011044
805  2023-11-29 15:47:03.042957
806  2023-11-29 15:47:03.090912
807  2023-11-29 15:47:03.122826
808  2023-11-29 15:47:03.154755
809  2023-11-29 15:47:03.186656
810  2023-11-29 15:47:03.218570
811  2023-11-29 15:47:03.250485
812  2023-11-29 15:47:03.283401
813  2023-11-29 15:47:03.315312
814  2023-11-29 15:47:03.347226
815  2023-11-29 15:47:03.379243
816  2023-11-29 15:47:03.411157
817  2023-11-29 15:47:03.443072
818  2023-11-29 15:47:03.491053
819  2023-11-29 15:47:03.522968
820  2023-11-29 15:47:03.554882
821  2023-11-29 15:47:03.586797
822  2023-11-29 15:47:03.618712
823  2023-11-29 15:47:03.650626
824  2023-11-29 15:47:03.682541
825  2023-11-29 15:47:03.714455
826  2023-11-29 15:47:03.747368
827  2023-11-29 15:47:03.779282
828  2023-11-29 15:47:03.811197
829  2023-11-29 15:47:03.843111
830  2023-11-29 15:47:03.890983
831  2023-11-29 15:47:03.922982
832  2023-11-29 15:47:03.954896
833  2023-11-29 15:47:03.986811
834  2023-11-29 15:47:04.018728
835  2023-11-29 15:47:04.050640
836  2023-11-29 15:47:04.082554
837  2023-11-29 15:47:04.115467
838  2023-11-29 15:47:04.146510
839  2023-11-29 15:47:04.179824
840  2023-11-29 15:47:04.210745
841  2023-11-29 15:47:04.243653
842  2023-11-29 15:47:04.290527
843  2023-11-29 15:47:04.322442
844  2023-11-29 15:47:04.355355
845  2023-11-29 15:47:04.387269
846  2023-11-29 15:47:04.419183
847  2023-11-29 15:47:04.451098
848  2023-11-29 15:47:04.483012
849  2023-11-29 15:47:04.514982
850  2023-11-29 15:47:04.546842
851  2023-11-29 15:47:04.578761
852  2023-11-29 15:47:04.610671
853  2023-11-29 15:47:04.642586
854  2023-11-29 15:47:04.690491
855  2023-11-29 15:47:04.722418
856  2023-11-29 15:47:04.754286
857  2023-11-29 15:47:04.787199
858  2023-11-29 15:47:04.819144
859  2023-11-29 15:47:04.851062
860  2023-11-29 15:47:04.882942
861  2023-11-29 15:47:04.914967
862  2023-11-29 15:47:04.946882
863  2023-11-29 15:47:04.978845
864  2023-11-29 15:47:05.010711
865  2023-11-29 15:47:05.042626
866  2023-11-29 15:47:05.090500
867  2023-11-29 15:47:05.122521
868  2023-11-29 15:47:05.154436
869  2023-11-29 15:47:05.186463
870  2023-11-29 15:47:05.218377
871  2023-11-29 15:47:05.251290
872  2023-11-29 15:47:05.283211
873  2023-11-29 15:47:05.315119
874  2023-11-29 15:47:05.347033
875  2023-11-29 15:47:05.378948
876  2023-11-29 15:47:05.410863
877  2023-11-29 15:47:05.442777
878  2023-11-29 15:47:05.490659
879  2023-11-29 15:47:05.522564
880  2023-11-29 15:47:05.554478
881  2023-11-29 15:47:05.586396
882  2023-11-29 15:47:05.619305
883  2023-11-29 15:47:05.651219
884  2023-11-29 15:47:05.683134
885  2023-11-29 15:47:05.715049
886  2023-11-29 15:47:05.746963
887  2023-11-29 15:47:05.778878
888  2023-11-29 15:47:05.810793
889  2023-11-29 15:47:05.842756
890  2023-11-29 15:47:05.890671
891  2023-11-29 15:47:05.922585
892  2023-11-29 15:47:05.954500
893  2023-11-29 15:47:05.986415
894  2023-11-29 15:47:06.019327
895  2023-11-29 15:47:06.051242
896  2023-11-29 15:47:06.083156
897  2023-11-29 15:47:06.115071
898  2023-11-29 15:47:06.146986
899  2023-11-29 15:47:06.179897
900  2023-11-29 15:47:06.210815
901  2023-11-29 15:47:06.242738
902  2023-11-29 15:47:06.290629
903  2023-11-29 15:47:06.322520
904  2023-11-29 15:47:06.354467
905  2023-11-29 15:47:06.386402
906  2023-11-29 15:47:06.419310
907  2023-11-29 15:47:06.451224
908  2023-11-29 15:47:06.483189
909  2023-11-29 15:47:06.515054
910  2023-11-29 15:47:06.546968
911  2023-11-29 15:47:06.578882
912  2023-11-29 15:47:06.610797
913  2023-11-29 15:47:06.642758
914  2023-11-29 15:47:06.690584
915  2023-11-29 15:47:06.722546
916  2023-11-29 15:47:06.754413
917  2023-11-29 15:47:06.787325
918  2023-11-29 15:47:06.819240
919  2023-11-29 15:47:06.851154
920  2023-11-29 15:47:06.883069
921  2023-11-29 15:47:06.915069
922  2023-11-29 15:47:06.946984
923  2023-11-29 15:47:06.978932
924  2023-11-29 15:47:07.010813
925  2023-11-29 15:47:07.042849
926  2023-11-29 15:47:07.090721
927  2023-11-29 15:47:07.122636
928  2023-11-29 15:47:07.154550
929  2023-11-29 15:47:07.187493
930  2023-11-29 15:47:07.218410
931  2023-11-29 15:47:07.250325
932  2023-11-29 15:47:07.283232
933  2023-11-29 15:47:07.315248
934  2023-11-29 15:47:07.347153
935  2023-11-29 15:47:07.379035
936  2023-11-29 15:47:07.410950
937  2023-11-29 15:47:07.442893
938  2023-11-29 15:47:07.490828
939  2023-11-29 15:47:07.522851
940  2023-11-29 15:47:07.554740
941  2023-11-29 15:47:07.586703
942  2023-11-29 15:47:07.618666
943  2023-11-29 15:47:07.650595
944  2023-11-29 15:47:07.683507
945  2023-11-29 15:47:07.714424
946  2023-11-29 15:47:07.746510
947  2023-11-29 15:47:07.778425
948  2023-11-29 15:47:07.811341
949  2023-11-29 15:47:07.843252
950  2023-11-29 15:47:07.891124
951  2023-11-29 15:47:07.923038
952  2023-11-29 15:47:07.954953
953  2023-11-29 15:47:07.986867
954  2023-11-29 15:47:08.018782
955  2023-11-29 15:47:08.050697
956  2023-11-29 15:47:08.082611
957  2023-11-29 15:47:08.114526
958  2023-11-29 15:47:08.147545
959  2023-11-29 15:47:08.179468
960  2023-11-29 15:47:08.211374
961  2023-11-29 15:47:08.243288
962  2023-11-29 15:47:08.291160
963  2023-11-29 15:47:08.323075
964  2023-11-29 15:47:08.354990
965  2023-11-29 15:47:08.386904
966  2023-11-29 15:47:08.419873
967  2023-11-29 15:47:08.450733
968  2023-11-29 15:47:08.483646
969  2023-11-29 15:47:08.515562
970  2023-11-29 15:47:08.547490
971  2023-11-29 15:47:08.579391
972  2023-11-29 15:47:08.611318
973  2023-11-29 15:47:08.643218
974  2023-11-29 15:47:08.691091
975  2023-11-29 15:47:08.723005
976  2023-11-29 15:47:08.755970
977  2023-11-29 15:47:08.787834
978  2023-11-29 15:47:08.819756
979  2023-11-29 15:47:08.850664
980  2023-11-29 15:47:08.883578
981  2023-11-29 15:47:08.915537
982  2023-11-29 15:47:08.947439
983  2023-11-29 15:47:08.979336
984  2023-11-29 15:47:09.011275
985  2023-11-29 15:47:09.043150
986  2023-11-29 15:47:09.091043
987  2023-11-29 15:47:09.123120
988  2023-11-29 15:47:09.155004
989  2023-11-29 15:47:09.186934
990  2023-11-29 15:47:09.219878
991  2023-11-29 15:47:09.250748
992  2023-11-29 15:47:09.282692
993  2023-11-29 15:47:09.315634
994  2023-11-29 15:47:09.346501
995  2023-11-29 15:47:09.379403
996  2023-11-29 15:47:09.411317
997  2023-11-29 15:47:09.443232
998  2023-11-29 15:47:09.491114
999  2023-11-29 15:47:09.523079
1000  2023-11-29 15:47:09.554957
1001  2023-11-29 15:47:09.586886
1002  2023-11-29 15:47:09.618802
1003  2023-11-29 15:47:09.650695
1004  2023-11-29 15:47:09.682578
1005  2023-11-29 15:47:09.714494
1006  2023-11-29 15:47:09.747405
1007  2023-11-29 15:47:09.779320
1008  2023-11-29 15:47:09.811284
1009  2023-11-29 15:47:09.843150
1010  2023-11-29 15:47:09.891054
1011  2023-11-29 15:47:09.922950
1012  2023-11-29 15:47:09.955848
1013  2023-11-29 15:47:09.987830
1014  2023-11-29 15:47:10.018684
1015  2023-11-29 15:47:10.051621
1016  2023-11-29 15:47:10.083534
1017  2023-11-29 15:47:10.115460
1018  2023-11-29 15:47:10.146392
1019  2023-11-29 15:47:10.179249
1020  2023-11-29 15:47:10.211166
1021  2023-11-29 15:47:10.243079
1022  2023-11-29 15:47:10.290950
1023  2023-11-29 15:47:10.322865
1024  2023-11-29 15:47:10.354788
1025  2023-11-29 15:47:10.386698
1026  2023-11-29 15:47:10.418610
1027  2023-11-29 15:47:10.450524
1028  2023-11-29 15:47:10.483567
1029  2023-11-29 15:47:10.514484
1030  2023-11-29 15:47:10.547396
1031  2023-11-29 15:47:10.578356
1032  2023-11-29 15:47:10.611262
1033  2023-11-29 15:47:10.643140
1034  2023-11-29 15:47:10.691059
1035  2023-11-29 15:47:10.722972
1036  2023-11-29 15:47:10.754893
1037  2023-11-29 15:47:10.786836
1038  2023-11-29 15:47:10.818760
1039  2023-11-29 15:47:10.850584
1040  2023-11-29 15:47:10.883529
1041  2023-11-29 15:47:10.915517
1042  2023-11-29 15:47:10.947363
1043  2023-11-29 15:47:10.978302
1044  2023-11-29 15:47:11.011154
1045  2023-11-29 15:47:11.043069
1046  2023-11-29 15:47:11.090999
1047  2023-11-29 15:47:11.122906
1048  2023-11-29 15:47:11.154838
1049  2023-11-29 15:47:11.186731
1050  2023-11-29 15:47:11.219636
1051  2023-11-29 15:47:11.250560
1052  2023-11-29 15:47:11.283426
1053  2023-11-29 15:47:11.315398
1054  2023-11-29 15:47:11.347255
1055  2023-11-29 15:47:11.378765
1056  2023-11-29 15:47:11.411626
1057  2023-11-29 15:47:11.442662
1058  2023-11-29 15:47:11.490498
1059  2023-11-29 15:47:11.522443
1060  2023-11-29 15:47:11.555361
1061  2023-11-29 15:47:11.587382
1062  2023-11-29 15:47:11.619270
1063  2023-11-29 15:47:11.651200
1064  2023-11-29 15:47:11.683101
1065  2023-11-29 15:47:11.715047
1066  2023-11-29 15:47:11.746894
1067  2023-11-29 15:47:11.778840
1068  2023-11-29 15:47:11.810787
1069  2023-11-29 15:47:11.842637
1070  2023-11-29 15:47:11.890550
1071  2023-11-29 15:47:11.922423
1072  2023-11-29 15:47:11.954378
1073  2023-11-29 15:47:11.987323
1074  2023-11-29 15:47:12.019214
1075  2023-11-29 15:47:12.051079
1076  2023-11-29 15:47:12.082994
1077  2023-11-29 15:47:12.114961
1078  2023-11-29 15:47:12.146880
1079  2023-11-29 15:47:12.178995
1080  2023-11-29 15:47:12.210841
1081  2023-11-29 15:47:12.242927
1082  2023-11-29 15:47:12.290794
1083  2023-11-29 15:47:12.322751
1084  2023-11-29 15:47:12.355618
1085  2023-11-29 15:47:12.386546
1086  2023-11-29 15:47:12.418445
1087  2023-11-29 15:47:12.450320
1088  2023-11-29 15:47:12.483269
1089  2023-11-29 15:47:12.515208
1090  2023-11-29 15:47:12.547097
1091  2023-11-29 15:47:12.579038
1092  2023-11-29 15:47:12.610950
1093  2023-11-29 15:47:12.642872
1094  2023-11-29 15:47:12.690838
1095  2023-11-29 15:47:12.722865
1096  2023-11-29 15:47:12.754788
1097  2023-11-29 15:47:12.786715
1098  2023-11-29 15:47:12.819598
1099  2023-11-29 15:47:12.850522
1100  2023-11-29 15:47:12.883383
1101  2023-11-29 15:47:12.915343
1102  2023-11-29 15:47:12.947248
1103  2023-11-29 15:47:12.979283
1104  2023-11-29 15:47:13.011134
1105  2023-11-29 15:47:13.043105
1106  2023-11-29 15:47:13.090974
1107  2023-11-29 15:47:13.122835
1108  2023-11-29 15:47:13.154809
1109  2023-11-29 15:47:13.186715
1110  2023-11-29 15:47:13.218648
1111  2023-11-29 15:47:13.250493
1112  2023-11-29 15:47:13.282441
1113  2023-11-29 15:47:13.314502
1114  2023-11-29 15:47:13.346418
1115  2023-11-29 15:47:13.378395
1116  2023-11-29 15:47:13.411362
1117  2023-11-29 15:47:13.443457
1118  2023-11-29 15:47:13.491300
1119  2023-11-29 15:47:13.523188
1120  2023-11-29 15:47:13.555053
1121  2023-11-29 15:47:13.587021
1122  2023-11-29 15:47:13.618937
1123  2023-11-29 15:47:13.650862
1124  2023-11-29 15:47:13.682857
1125  2023-11-29 15:47:13.714792
1126  2023-11-29 15:47:13.746693
1127  2023-11-29 15:47:13.778590
1128  2023-11-29 15:47:13.811589
1129  2023-11-29 15:47:13.842549
1130  2023-11-29 15:47:13.890419
1131  2023-11-29 15:47:13.923375
1132  2023-11-29 15:47:13.955290
1133  2023-11-29 15:47:13.987256
1134  2023-11-29 15:47:14.019205
1135  2023-11-29 15:47:14.051085
1136  2023-11-29 15:47:14.082948
1137  2023-11-29 15:47:14.114863
1138  2023-11-29 15:47:14.146834
1139  2023-11-29 15:47:14.179693
1140  2023-11-29 15:47:14.210668
1141  2023-11-29 15:47:14.243519
1142  2023-11-29 15:47:14.290442
1143  2023-11-29 15:47:14.323305
1144  2023-11-29 15:47:14.355220
1145  2023-11-29 15:47:14.387161
1146  2023-11-29 15:47:14.419107
1147  2023-11-29 15:47:14.451019
1148  2023-11-29 15:47:14.482932
1149  2023-11-29 15:47:14.514830
1150  2023-11-29 15:47:14.546739
1151  2023-11-29 15:47:14.578655
1152  2023-11-29 15:47:14.610578
1153  2023-11-29 15:47:14.642497
1154  2023-11-29 15:47:14.690377
1155  2023-11-29 15:47:14.722280
1156  2023-11-29 15:47:14.755215
1157  2023-11-29 15:47:14.787117
1158  2023-11-29 15:47:14.819033
1159  2023-11-29 15:47:14.850948
1160  2023-11-29 15:47:14.882889
1161  2023-11-29 15:47:14.914803
1162  2023-11-29 15:47:14.946866
1163  2023-11-29 15:47:14.978836
1164  2023-11-29 15:47:15.010740
1165  2023-11-29 15:47:15.042665
1166  2023-11-29 15:47:15.090523
1167  2023-11-29 15:47:15.122435
1168  2023-11-29 15:47:15.154336
1169  2023-11-29 15:47:15.187250
1170  2023-11-29 15:47:15.219181
1171  2023-11-29 15:47:15.251089
1172  2023-11-29 15:47:15.282990
1173  2023-11-29 15:47:15.314899
1174  2023-11-29 15:47:15.346865
1175  2023-11-29 15:47:15.378782
1176  2023-11-29 15:47:15.410661
1177  2023-11-29 15:47:15.442623
1178  2023-11-29 15:47:15.490463
1179  2023-11-29 15:47:15.522492
1180  2023-11-29 15:47:15.554524
1181  2023-11-29 15:47:15.587424
1182  2023-11-29 15:47:15.618354
1183  2023-11-29 15:47:15.651270
1184  2023-11-29 15:47:15.683134
1185  2023-11-29 15:47:15.715048
1186  2023-11-29 15:47:15.747035
1187  2023-11-29 15:47:15.778909
1188  2023-11-29 15:47:15.810867
1189  2023-11-29 15:47:15.842738
1190  2023-11-29 15:47:15.890645
1191  2023-11-29 15:47:15.923492
1192  2023-11-29 15:47:15.954439
1193  2023-11-29 15:47:15.987356
1194  2023-11-29 15:47:16.019268
1195  2023-11-29 15:47:16.051210
1196  2023-11-29 15:47:16.083277
1197  2023-11-29 15:47:16.115112
1198  2023-11-29 15:47:16.147069
1199  2023-11-29 15:47:16.178976
1200  2023-11-29 15:47:16.210907
1201  2023-11-29 15:47:16.242834
1202  2023-11-29 15:47:16.290687
1203  2023-11-29 15:47:16.322613
1204  2023-11-29 15:47:16.354518
1205  2023-11-29 15:47:16.386386
1206  2023-11-29 15:47:16.419339
1207  2023-11-29 15:47:16.451255
1208  2023-11-29 15:47:16.483170
1209  2023-11-29 15:47:16.515077
1210  2023-11-29 15:47:16.546957
1211  2023-11-29 15:47:16.578928
1212  2023-11-29 15:47:16.610839
1213  2023-11-29 15:47:16.642754
1214  2023-11-29 15:47:16.690613
1215  2023-11-29 15:47:16.722532
1216  2023-11-29 15:47:16.754402
1217  2023-11-29 15:47:16.786316
1218  2023-11-29 15:47:16.819283
1219  2023-11-29 15:47:16.851196
1220  2023-11-29 15:47:16.883109
1221  2023-11-29 15:47:16.914972
1222  2023-11-29 15:47:16.946920
1223  2023-11-29 15:47:16.978864
1224  2023-11-29 15:47:17.010760
1225  2023-11-29 15:47:17.042668
1226  2023-11-29 15:47:17.090533
1227  2023-11-29 15:47:17.122467
1228  2023-11-29 15:47:17.154364
1229  2023-11-29 15:47:17.187244
1230  2023-11-29 15:47:17.219192
1231  2023-11-29 15:47:17.251127
1232  2023-11-29 15:47:17.283013
1233  2023-11-29 15:47:17.314902
1234  2023-11-29 15:47:17.346817
1235  2023-11-29 15:47:17.378808
1236  2023-11-29 15:47:17.411678
1237  2023-11-29 15:47:17.443632
1238  2023-11-29 15:47:17.490641
1239  2023-11-29 15:47:17.522708
1240  2023-11-29 15:47:17.555618
1241  2023-11-29 15:47:17.587535
1242  2023-11-29 15:47:17.618583
1243  2023-11-29 15:47:17.651497
1244  2023-11-29 15:47:17.683405
1245  2023-11-29 15:47:17.715320
1246  2023-11-29 15:47:17.747332
1247  2023-11-29 15:47:17.778296
1248  2023-11-29 15:47:17.811190
1249  2023-11-29 15:47:17.843102
1250  2023-11-29 15:47:17.890985
1251  2023-11-29 15:47:17.922891
1252  2023-11-29 15:47:17.954833
1253  2023-11-29 15:47:17.986820
1254  2023-11-29 15:47:18.018735
1255  2023-11-29 15:47:18.051644
1256  2023-11-29 15:47:18.082606
1257  2023-11-29 15:47:18.114588
1258  2023-11-29 15:47:18.146544
1259  2023-11-29 15:47:18.178418
1260  2023-11-29 15:47:18.211329
1261  2023-11-29 15:47:18.243244
1262  2023-11-29 15:47:18.291167
1263  2023-11-29 15:47:18.323030
1264  2023-11-29 15:47:18.354997
1265  2023-11-29 15:47:18.386964
1266  2023-11-29 15:47:18.418937
1267  2023-11-29 15:47:18.450887
1268  2023-11-29 15:47:18.482821
1269  2023-11-29 15:47:18.514703
1270  2023-11-29 15:47:18.546705
1271  2023-11-29 15:47:18.578619
1272  2023-11-29 15:47:18.610602
1273  2023-11-29 15:47:18.643462
1274  2023-11-29 15:47:18.690436
1275  2023-11-29 15:47:18.723336
1276  2023-11-29 15:47:18.755209
1277  2023-11-29 15:47:18.787124
1278  2023-11-29 15:47:18.819088
1279  2023-11-29 15:47:18.850980
1280  2023-11-29 15:47:18.882868
1281  2023-11-29 15:47:18.914816
1282  2023-11-29 15:47:18.946697
1283  2023-11-29 15:47:18.978643
1284  2023-11-29 15:47:19.010588
1285  2023-11-29 15:47:19.043438
1286  2023-11-29 15:47:19.090475
1287  2023-11-29 15:47:19.122386
1288  2023-11-29 15:47:19.155361
1289  2023-11-29 15:47:19.186338
1290  2023-11-29 15:47:19.219190
1291  2023-11-29 15:47:19.251105
1292  2023-11-29 15:47:19.283138
1293  2023-11-29 15:47:19.315087
1294  2023-11-29 15:47:19.347046
1295  2023-11-29 15:47:19.378979
1296  2023-11-29 15:47:19.410907
1297  2023-11-29 15:47:19.442901
1298  2023-11-29 15:47:19.490693
1299  2023-11-29 15:47:19.522656
1300  2023-11-29 15:47:19.555520
1301  2023-11-29 15:47:19.587435
1302  2023-11-29 15:47:19.618351
1303  2023-11-29 15:47:19.651264
1304  2023-11-29 15:47:19.683181
1305  2023-11-29 15:47:19.715051
1306  2023-11-29 15:47:19.746965
1307  2023-11-29 15:47:19.778880
1308  2023-11-29 15:47:19.810795
1309  2023-11-29 15:47:19.842880
1310  2023-11-29 15:47:19.890932
1311  2023-11-29 15:47:19.922846
1312  2023-11-29 15:47:19.954761
1313  2023-11-29 15:47:19.986675
1314  2023-11-29 15:47:20.018590
1315  2023-11-29 15:47:20.050505
1316  2023-11-29 15:47:20.083416
1317  2023-11-29 15:47:20.114334
1318  2023-11-29 15:47:20.147246
1319  2023-11-29 15:47:20.179160
1320  2023-11-29 15:47:20.211075
1321  2023-11-29 15:47:20.243506
1322  2023-11-29 15:47:20.290506
1323  2023-11-29 15:47:20.322523
1324  2023-11-29 15:47:20.354438
1325  2023-11-29 15:47:20.387349
1326  2023-11-29 15:47:20.418382
1327  2023-11-29 15:47:20.451362
1328  2023-11-29 15:47:20.483277
1329  2023-11-29 15:47:20.515246
1330  2023-11-29 15:47:20.547106
1331  2023-11-29 15:47:20.579082
1332  2023-11-29 15:47:20.610997
1333  2023-11-29 15:47:20.642911
1334  2023-11-29 15:47:20.690783
1335  2023-11-29 15:47:20.722747
1336  2023-11-29 15:47:20.754612
1337  2023-11-29 15:47:20.786527
1338  2023-11-29 15:47:20.818537
1339  2023-11-29 15:47:20.851451
1340  2023-11-29 15:47:20.883364
1341  2023-11-29 15:47:20.915278
1342  2023-11-29 15:47:20.947308
1343  2023-11-29 15:47:20.979247
1344  2023-11-29 15:47:21.011163
1345  2023-11-29 15:47:21.043045
1346  2023-11-29 15:47:21.090921
1347  2023-11-29 15:47:21.122831
1348  2023-11-29 15:47:21.154746
1349  2023-11-29 15:47:21.186689
1350  2023-11-29 15:47:21.218575
1351  2023-11-29 15:47:21.250490
1352  2023-11-29 15:47:21.282404
1353  2023-11-29 15:47:21.314483
1354  2023-11-29 15:47:21.346418
1355  2023-11-29 15:47:21.378350
1356  2023-11-29 15:47:21.411262
1357  2023-11-29 15:47:21.442304
1358  2023-11-29 15:47:21.490323
1359  2023-11-29 15:47:21.523278
1360  2023-11-29 15:47:21.555150
1361  2023-11-29 15:47:21.587064
1362  2023-11-29 15:47:21.618979
1363  2023-11-29 15:47:21.650894
1364  2023-11-29 15:47:21.682808
1365  2023-11-29 15:47:21.714730
1366  2023-11-29 15:47:21.746637
1367  2023-11-29 15:47:21.778719
1368  2023-11-29 15:47:21.810634
1369  2023-11-29 15:47:21.842548
1370  2023-11-29 15:47:21.890420
1371  2023-11-29 15:47:21.922335
1372  2023-11-29 15:47:21.955247
1373  2023-11-29 15:47:21.987161
1374  2023-11-29 15:47:22.019076
1375  2023-11-29 15:47:22.050991
1376  2023-11-29 15:47:22.082905
1377  2023-11-29 15:47:22.114820
1378  2023-11-29 15:47:22.146734
1379  2023-11-29 15:47:22.178661
1380  2023-11-29 15:47:22.210563
1381  2023-11-29 15:47:22.242478
1382  2023-11-29 15:47:22.290351
1383  2023-11-29 15:47:22.322707
1384  2023-11-29 15:47:22.354714
1385  2023-11-29 15:47:22.387589
1386  2023-11-29 15:47:22.418474
1387  2023-11-29 15:47:22.450388
1388  2023-11-29 15:47:22.483300
1389  2023-11-29 15:47:22.515321
1390  2023-11-29 15:47:22.547228
1391  2023-11-29 15:47:22.579274
1392  2023-11-29 15:47:22.611188
1393  2023-11-29 15:47:22.643209
1394  2023-11-29 15:47:22.691146
1395  2023-11-29 15:47:22.723061
1396  2023-11-29 15:47:22.754942
1397  2023-11-29 15:47:22.786951
1398  2023-11-29 15:47:22.818833
1399  2023-11-29 15:47:22.850925
1400  2023-11-29 15:47:22.882784
1401  2023-11-29 15:47:22.915696
1402  2023-11-29 15:47:22.946613
1403  2023-11-29 15:47:22.978589
1404  2023-11-29 15:47:23.010521
1405  2023-11-29 15:47:23.042455
1406  2023-11-29 15:47:23.090327
1407  2023-11-29 15:47:23.123239
1408  2023-11-29 15:47:23.155153
1409  2023-11-29 15:47:23.187155
1410  2023-11-29 15:47:23.219113
1411  2023-11-29 15:47:23.251048
1412  2023-11-29 15:47:23.282962
1413  2023-11-29 15:47:23.314877
1414  2023-11-29 15:47:23.346793
1415  2023-11-29 15:47:23.378707
1416  2023-11-29 15:47:23.410622
1417  2023-11-29 15:47:23.442537
1418  2023-11-29 15:47:23.490482
1419  2023-11-29 15:47:23.522504
1420  2023-11-29 15:47:23.554419
1421  2023-11-29 15:47:23.586512
1422  2023-11-29 15:47:23.618426
1423  2023-11-29 15:47:23.650341
1424  2023-11-29 15:47:23.683254
1425  2023-11-29 15:47:23.715168
1426  2023-11-29 15:47:23.747082
1427  2023-11-29 15:47:23.778997
1428  2023-11-29 15:47:23.810911
1429  2023-11-29 15:47:23.842826
1430  2023-11-29 15:47:23.890826
1431  2023-11-29 15:47:23.922741
1432  2023-11-29 15:47:23.954655
1433  2023-11-29 15:47:23.986570
1434  2023-11-29 15:47:24.018485
1435  2023-11-29 15:47:24.050543
1436  2023-11-29 15:47:24.082458
1437  2023-11-29 15:47:24.114441
1438  2023-11-29 15:47:24.147404
1439  2023-11-29 15:47:24.179318
1440  2023-11-29 15:47:24.211235
1441  2023-11-29 15:47:24.243279
1442  2023-11-29 15:47:24.291152
1443  2023-11-29 15:47:24.323066
1444  2023-11-29 15:47:24.354980
1445  2023-11-29 15:47:24.386895
1446  2023-11-29 15:47:24.418810
1447  2023-11-29 15:47:24.450724
1448  2023-11-29 15:47:24.482643
1449  2023-11-29 15:47:24.514553
1450  2023-11-29 15:47:24.546468
1451  2023-11-29 15:47:24.579380
1452  2023-11-29 15:47:24.611295
1453  2023-11-29 15:47:24.643301
1454  2023-11-29 15:47:24.691170
1455  2023-11-29 15:47:24.723085
1456  2023-11-29 15:47:24.755000
1457  2023-11-29 15:47:24.787010
1458  2023-11-29 15:47:24.818923
1459  2023-11-29 15:47:24.850838
1460  2023-11-29 15:47:24.883802
1461  2023-11-29 15:47:24.914717
1462  2023-11-29 15:47:24.946631
1463  2023-11-29 15:47:24.979545
1464  2023-11-29 15:47:25.011461
1465  2023-11-29 15:47:25.042536
1466  2023-11-29 15:47:25.090408
1467  2023-11-29 15:47:25.123320
1468  2023-11-29 15:47:25.155235
1469  2023-11-29 15:47:25.187218
1470  2023-11-29 15:47:25.219187
1471  2023-11-29 15:47:25.251062
1472  2023-11-29 15:47:25.282977
1473  2023-11-29 15:47:25.314947
1474  2023-11-29 15:47:25.346862
1475  2023-11-29 15:47:25.378776
1476  2023-11-29 15:47:25.410691
1477  2023-11-29 15:47:25.442647
1478  2023-11-29 15:47:25.490760
1479  2023-11-29 15:47:25.522839
1480  2023-11-29 15:47:25.554874
1481  2023-11-29 15:47:25.586724
1482  2023-11-29 15:47:25.618652
1483  2023-11-29 15:47:25.650589
1484  2023-11-29 15:47:25.682513
1485  2023-11-29 15:47:25.714383
1486  2023-11-29 15:47:25.747295
1487  2023-11-29 15:47:25.779211
1488  2023-11-29 15:47:25.811156
1489  2023-11-29 15:47:25.843148
1490  2023-11-29 15:47:25.891074
1491  2023-11-29 15:47:25.922980
1492  2023-11-29 15:47:25.954907
1493  2023-11-29 15:47:25.986768
1494  2023-11-29 15:47:26.018726
1495  2023-11-29 15:47:26.050629
1496  2023-11-29 15:47:26.082595
1497  2023-11-29 15:47:26.114614
1498  2023-11-29 15:47:26.146599
1499  2023-11-29 15:47:26.179528
1500  2023-11-29 15:47:26.210446
1501  2023-11-29 15:47:26.242448
1502  2023-11-29 15:47:26.290319
1503  2023-11-29 15:47:26.322308
1504  2023-11-29 15:47:26.355220
1505  2023-11-29 15:47:26.387135
1506  2023-11-29 15:47:26.419049
1507  2023-11-29 15:47:26.451035
1508  2023-11-29 15:47:26.483089
1509  2023-11-29 15:47:26.515003
1510  2023-11-29 15:47:26.546918
1511  2023-11-29 15:47:26.579074
1512  2023-11-29 15:47:26.610989
1513  2023-11-29 15:47:26.642903
1514  2023-11-29 15:47:26.690775
1515  2023-11-29 15:47:26.722749
1516  2023-11-29 15:47:26.754714
1517  2023-11-29 15:47:26.786629
1518  2023-11-29 15:47:26.818660
1519  2023-11-29 15:47:26.850575
1520  2023-11-29 15:47:26.882489
1521  2023-11-29 15:47:26.914516
1522  2023-11-29 15:47:26.946545
1523  2023-11-29 15:47:26.978550
1524  2023-11-29 15:47:27.010475
1525  2023-11-29 15:47:27.042389
1526  2023-11-29 15:47:27.091267
1527  2023-11-29 15:47:27.123182
1528  2023-11-29 15:47:27.155096
1529  2023-11-29 15:47:27.187011
1530  2023-11-29 15:47:27.218925
1531  2023-11-29 15:47:27.250840
1532  2023-11-29 15:47:27.282755
1533  2023-11-29 15:47:27.314669
1534  2023-11-29 15:47:27.346584
1535  2023-11-29 15:47:27.378498
1536  2023-11-29 15:47:27.410413
1537  2023-11-29 15:47:27.442436
1538  2023-11-29 15:47:27.490416
1539  2023-11-29 15:47:27.522331
1540  2023-11-29 15:47:27.555250
1541  2023-11-29 15:47:27.587158
1542  2023-11-29 15:47:27.619072
1543  2023-11-29 15:47:27.650987
1544  2023-11-29 15:47:27.682902
1545  2023-11-29 15:47:27.715845
1546  2023-11-29 15:47:27.746731
1547  2023-11-29 15:47:27.779644
1548  2023-11-29 15:47:27.811573
1549  2023-11-29 15:47:27.843474
1550  2023-11-29 15:47:27.890542
1551  2023-11-29 15:47:27.922554
1552  2023-11-29 15:47:27.954623
1553  2023-11-29 15:47:27.986522
1554  2023-11-29 15:47:28.019436
1555  2023-11-29 15:47:28.051349
1556  2023-11-29 15:47:28.083264
1557  2023-11-29 15:47:28.115178
1558  2023-11-29 15:47:28.147154
1559  2023-11-29 15:47:28.179205
1560  2023-11-29 15:47:28.211051
1561  2023-11-29 15:47:28.242966
1562  2023-11-29 15:47:28.290871
1563  2023-11-29 15:47:28.322838
1564  2023-11-29 15:47:28.355799
1565  2023-11-29 15:47:28.387714
1566  2023-11-29 15:47:28.418582
1567  2023-11-29 15:47:28.450497
1568  2023-11-29 15:47:28.483410
1569  2023-11-29 15:47:28.515327
1570  2023-11-29 15:47:28.548297
1571  2023-11-29 15:47:28.579316
1572  2023-11-29 15:47:28.610394
1573  2023-11-29 15:47:28.642407
1574  2023-11-29 15:47:28.691325
1575  2023-11-29 15:47:28.723327
1576  2023-11-29 15:47:28.755201
1577  2023-11-29 15:47:28.787115
1578  2023-11-29 15:47:28.820028
1579  2023-11-29 15:47:28.850983
1580  2023-11-29 15:47:28.883056
1581  2023-11-29 15:47:28.914972
1582  2023-11-29 15:47:28.946886
1583  2023-11-29 15:47:28.978800
1584  2023-11-29 15:47:29.010715
1585  2023-11-29 15:47:29.042630
1586  2023-11-29 15:47:29.091549
1587  2023-11-29 15:47:29.123443
1588  2023-11-29 15:47:29.155383
1589  2023-11-29 15:47:29.187303
1590  2023-11-29 15:47:29.219198
1591  2023-11-29 15:47:29.251073
1592  2023-11-29 15:47:29.282987
1593  2023-11-29 15:47:29.314902
1594  2023-11-29 15:47:29.346863
1595  2023-11-29 15:47:29.378800
1596  2023-11-29 15:47:29.410646
1597  2023-11-29 15:47:29.442560
1598  2023-11-29 15:47:29.490431
1599  2023-11-29 15:47:29.522358
1600  2023-11-29 15:47:29.555364
1601  2023-11-29 15:47:29.587181
1602  2023-11-29 15:47:29.619145
1603  2023-11-29 15:47:29.651036
1604  2023-11-29 15:47:29.683964
1605  2023-11-29 15:47:29.714896
1606  2023-11-29 15:47:29.746799
1607  2023-11-29 15:47:29.778744
1608  2023-11-29 15:47:29.810773
1609  2023-11-29 15:47:29.843656
1610  2023-11-29 15:47:29.891532
1611  2023-11-29 15:47:29.923443
1612  2023-11-29 15:47:29.955357
1613  2023-11-29 15:47:29.987275
1614  2023-11-29 15:47:30.019187
1615  2023-11-29 15:47:30.051102
1616  2023-11-29 15:47:30.084049
1617  2023-11-29 15:47:30.115965
1618  2023-11-29 15:47:30.146845
1619  2023-11-29 15:47:30.178759
1620  2023-11-29 15:47:30.210685
1621  2023-11-29 15:47:30.243633
1622  2023-11-29 15:47:30.290502
1623  2023-11-29 15:47:30.323374
1624  2023-11-29 15:47:30.355287
1625  2023-11-29 15:47:30.388282
1626  2023-11-29 15:47:30.419161
1627  2023-11-29 15:47:30.451031
1628  2023-11-29 15:47:30.483982
1629  2023-11-29 15:47:30.515947
1630  2023-11-29 15:47:30.548006
1631  2023-11-29 15:47:30.578923
1632  2023-11-29 15:47:30.610837
1633  2023-11-29 15:47:30.643813
1634  2023-11-29 15:47:30.690683
1635  2023-11-29 15:47:30.723577
1636  2023-11-29 15:47:30.755525
1637  2023-11-29 15:47:30.787415
1638  2023-11-29 15:47:30.819278
1639  2023-11-29 15:47:30.851245
1640  2023-11-29 15:47:30.883159
1641  2023-11-29 15:47:30.915080
1642  2023-11-29 15:47:30.946970
1643  2023-11-29 15:47:30.978941
1644  2023-11-29 15:47:31.010910
1645  2023-11-29 15:47:31.042769
1646  2023-11-29 15:47:31.090751
1647  2023-11-29 15:47:31.122596
1648  2023-11-29 15:47:31.154568
1649  2023-11-29 15:47:31.186662
1650  2023-11-29 15:47:31.219511
1651  2023-11-29 15:47:31.250428
1652  2023-11-29 15:47:31.282379
1653  2023-11-29 15:47:31.315266
1654  2023-11-29 15:47:31.347222
1655  2023-11-29 15:47:31.379139
1656  2023-11-29 15:47:31.411170
1657  2023-11-29 15:47:31.443102
1658  2023-11-29 15:47:31.490914
1659  2023-11-29 15:47:31.522959
1660  2023-11-29 15:47:31.554869
1661  2023-11-29 15:47:31.586810
1662  2023-11-29 15:47:31.618706
1663  2023-11-29 15:47:31.650610
1664  2023-11-29 15:47:31.682526
1665  2023-11-29 15:47:31.715446
1666  2023-11-29 15:47:31.746356
1667  2023-11-29 15:47:31.779269
1668  2023-11-29 15:47:31.811169
1669  2023-11-29 15:47:31.843201
1670  2023-11-29 15:47:31.891125
1671  2023-11-29 15:47:31.922988
1672  2023-11-29 15:47:31.954904
1673  2023-11-29 15:47:31.986913
1674  2023-11-29 15:47:32.018959
1675  2023-11-29 15:47:32.050820
1676  2023-11-29 15:47:32.082735
1677  2023-11-29 15:47:32.114737
1678  2023-11-29 15:47:32.146625
1679  2023-11-29 15:47:32.178480
1680  2023-11-29 15:47:32.210425
1681  2023-11-29 15:47:32.243305
1682  2023-11-29 15:47:32.291177
1683  2023-11-29 15:47:32.323134
1684  2023-11-29 15:47:32.355056
1685  2023-11-29 15:47:32.386965
1686  2023-11-29 15:47:32.418890
1687  2023-11-29 15:47:32.450750
1688  2023-11-29 15:47:32.482703
1689  2023-11-29 15:47:32.514611
1690  2023-11-29 15:47:32.546588
1691  2023-11-29 15:47:32.578625
1692  2023-11-29 15:47:32.610511
1693  2023-11-29 15:47:32.642425
1694  2023-11-29 15:47:32.691296
1695  2023-11-29 15:47:32.723164
1696  2023-11-29 15:47:32.755110
1697  2023-11-29 15:47:32.787046
1698  2023-11-29 15:47:32.818934
1699  2023-11-29 15:47:32.850823
1700  2023-11-29 15:47:32.882737
1701  2023-11-29 15:47:32.914702
1702  2023-11-29 15:47:32.946605
1703  2023-11-29 15:47:32.978529
1704  2023-11-29 15:47:33.010396
1705  2023-11-29 15:47:33.043341
1706  2023-11-29 15:47:33.091179
1707  2023-11-29 15:47:33.123213
1708  2023-11-29 15:47:33.155188
1709  2023-11-29 15:47:33.187105
1710  2023-11-29 15:47:33.219018
1711  2023-11-29 15:47:33.250935
1712  2023-11-29 15:47:33.282852
1713  2023-11-29 15:47:33.314776
1714  2023-11-29 15:47:33.346681
1715  2023-11-29 15:47:33.378600
1716  2023-11-29 15:47:33.410486
1717  2023-11-29 15:47:33.442403
1718  2023-11-29 15:47:33.490284
1719  2023-11-29 15:47:33.523349
1720  2023-11-29 15:47:33.555238
1721  2023-11-29 15:47:33.587181
1722  2023-11-29 15:47:33.619069
1723  2023-11-29 15:47:33.650992
1724  2023-11-29 15:47:33.682879
1725  2023-11-29 15:47:33.714822
1726  2023-11-29 15:47:33.746765
1727  2023-11-29 15:47:33.778746
1728  2023-11-29 15:47:33.810739
1729  2023-11-29 15:47:33.842655
1730  2023-11-29 15:47:33.891538
1731  2023-11-29 15:47:33.922452
1732  2023-11-29 15:47:33.954327
1733  2023-11-29 15:47:33.987271
1734  2023-11-29 15:47:34.019181
1735  2023-11-29 15:47:34.051095
1736  2023-11-29 15:47:34.082983
1737  2023-11-29 15:47:34.114897
1738  2023-11-29 15:47:34.146845
1739  2023-11-29 15:47:34.178728
1740  2023-11-29 15:47:34.210699
1741  2023-11-29 15:47:34.242587
1742  2023-11-29 15:47:34.290579
1743  2023-11-29 15:47:34.322463
1744  2023-11-29 15:47:34.354420
1745  2023-11-29 15:47:34.387444
1746  2023-11-29 15:47:34.419475
1747  2023-11-29 15:47:34.450387
1748  2023-11-29 15:47:34.483313
1749  2023-11-29 15:47:34.515217
1750  2023-11-29 15:47:34.547113
1751  2023-11-29 15:47:34.579046
1752  2023-11-29 15:47:34.611042
1753  2023-11-29 15:47:34.643042
1754  2023-11-29 15:47:34.690918
1755  2023-11-29 15:47:34.722808
1756  2023-11-29 15:47:34.754694
1757  2023-11-29 15:47:34.786644
1758  2023-11-29 15:47:34.818581
1759  2023-11-29 15:47:34.850484
1760  2023-11-29 15:47:34.882399
1761  2023-11-29 15:47:34.915265
1762  2023-11-29 15:47:34.947213
1763  2023-11-29 15:47:34.979134
1764  2023-11-29 15:47:35.011058
1765  2023-11-29 15:47:35.042973
1766  2023-11-29 15:47:35.090855
1767  2023-11-29 15:47:35.122710
1768  2023-11-29 15:47:35.154678
1769  2023-11-29 15:47:35.186583
1770  2023-11-29 15:47:35.218485
1771  2023-11-29 15:47:35.251397
1772  2023-11-29 15:47:35.282328
1773  2023-11-29 15:47:35.315255
1774  2023-11-29 15:47:35.347154
1775  2023-11-29 15:47:35.379068
1776  2023-11-29 15:47:35.410990
1777  2023-11-29 15:47:35.442894
1778  2023-11-29 15:47:35.490804
1779  2023-11-29 15:47:35.522703
1780  2023-11-29 15:47:35.554560
1781  2023-11-29 15:47:35.586500
1782  2023-11-29 15:47:35.618416
1783  2023-11-29 15:47:35.650330
1784  2023-11-29 15:47:35.683211
1785  2023-11-29 15:47:35.715126
1786  2023-11-29 15:47:35.747091
1787  2023-11-29 15:47:35.779084
1788  2023-11-29 15:47:35.810970
1789  2023-11-29 15:47:35.843062
1790  2023-11-29 15:47:35.890932
1791  2023-11-29 15:47:35.922801
1792  2023-11-29 15:47:35.954782
1793  2023-11-29 15:47:35.986668
1794  2023-11-29 15:47:36.018591
1795  2023-11-29 15:47:36.050547
1796  2023-11-29 15:47:36.082535
1797  2023-11-29 15:47:36.114457
1798  2023-11-29 15:47:36.146344
1799  2023-11-29 15:47:36.179258
1800  2023-11-29 15:47:36.211190
1801  2023-11-29 15:47:36.243105
1802  2023-11-29 15:47:36.290980
1803  2023-11-29 15:47:36.322881
1804  2023-11-29 15:47:36.354787
1805  2023-11-29 15:47:36.386652
1806  2023-11-29 15:47:36.418602
1807  2023-11-29 15:47:36.450525
1808  2023-11-29 15:47:36.482460
1809  2023-11-29 15:47:36.514451
1810  2023-11-29 15:47:36.546527
1811  2023-11-29 15:47:36.578451
1812  2023-11-29 15:47:36.610356
1813  2023-11-29 15:47:36.642272
1814  2023-11-29 15:47:36.691182
1815  2023-11-29 15:47:36.723190
1816  2023-11-29 15:47:36.755097
1817  2023-11-29 15:47:36.786993
1818  2023-11-29 15:47:36.818925
1819  2023-11-29 15:47:36.850849
1820  2023-11-29 15:47:36.882758
1821  2023-11-29 15:47:36.914625
1822  2023-11-29 15:47:36.946581
1823  2023-11-29 15:47:36.978521
1824  2023-11-29 15:47:37.010415
1825  2023-11-29 15:47:37.043300
1826  2023-11-29 15:47:37.091189
1827  2023-11-29 15:47:37.123113
1828  2023-11-29 15:47:37.155033
1829  2023-11-29 15:47:37.186974
1830  2023-11-29 15:47:37.218889
1831  2023-11-29 15:47:37.250805
1832  2023-11-29 15:47:37.282718
1833  2023-11-29 15:47:37.314710
1834  2023-11-29 15:47:37.346785
1835  2023-11-29 15:47:37.378704
1836  2023-11-29 15:47:37.410588
1837  2023-11-29 15:47:37.442495
1838  2023-11-29 15:47:37.491371
1839  2023-11-29 15:47:37.522270
1840  2023-11-29 15:47:37.555148
1841  2023-11-29 15:47:37.587063
1842  2023-11-29 15:47:37.619029
1843  2023-11-29 15:47:37.650945
1844  2023-11-29 15:47:37.682849
1845  2023-11-29 15:47:37.714721
1846  2023-11-29 15:47:37.746671
1847  2023-11-29 15:47:37.778627
1848  2023-11-29 15:47:37.810533
1849  2023-11-29 15:47:37.843379
1850  2023-11-29 15:47:37.891251
1851  2023-11-29 15:47:37.923198
1852  2023-11-29 15:47:37.955078
1853  2023-11-29 15:47:37.986993
1854  2023-11-29 15:47:38.018933
1855  2023-11-29 15:47:38.050874
1856  2023-11-29 15:47:38.082770
1857  2023-11-29 15:47:38.114651
1858  2023-11-29 15:47:38.146601
1859  2023-11-29 15:47:38.178514
1860  2023-11-29 15:47:38.210427
1861  2023-11-29 15:47:38.242352
1862  2023-11-29 15:47:38.290216
1863  2023-11-29 15:47:38.323130
1864  2023-11-29 15:47:38.355070
1865  2023-11-29 15:47:38.386922
1866  2023-11-29 15:47:38.418888
1867  2023-11-29 15:47:38.450790
1868  2023-11-29 15:47:38.482802
1869  2023-11-29 15:47:38.514723
1870  2023-11-29 15:47:38.546641
1871  2023-11-29 15:47:38.578515
1872  2023-11-29 15:47:38.610461
1873  2023-11-29 15:47:38.642470
1874  2023-11-29 15:47:38.690348
1875  2023-11-29 15:47:38.723241
1876  2023-11-29 15:47:38.755165
1877  2023-11-29 15:47:38.787037
1878  2023-11-29 15:47:38.819026
1879  2023-11-29 15:47:38.850901
1880  2023-11-29 15:47:38.882833
1881  2023-11-29 15:47:38.914757
1882  2023-11-29 15:47:38.946641
1883  2023-11-29 15:47:38.978611
1884  2023-11-29 15:47:39.010484
1885  2023-11-29 15:47:39.042388
1886  2023-11-29 15:47:39.091226
1887  2023-11-29 15:47:39.123137
1888  2023-11-29 15:47:39.155111
1889  2023-11-29 15:47:39.186967
1890  2023-11-29 15:47:39.219036
1891  2023-11-29 15:47:39.250983
1892  2023-11-29 15:47:39.282913
1893  2023-11-29 15:47:39.314832
1894  2023-11-29 15:47:39.346617
1895  2023-11-29 15:47:39.378629
1896  2023-11-29 15:47:39.410576
1897  2023-11-29 15:47:39.442489
1898  2023-11-29 15:47:39.490378
1899  2023-11-29 15:47:39.523242
1900  2023-11-29 15:47:39.555156
1901  2023-11-29 15:47:39.587071
1902  2023-11-29 15:47:39.618985
1903  2023-11-29 15:47:39.650901
1904  2023-11-29 15:47:39.682815
1905  2023-11-29 15:47:39.714730
1906  2023-11-29 15:47:39.746644
1907  2023-11-29 15:47:39.778566
1908  2023-11-29 15:47:39.810506
1909  2023-11-29 15:47:39.842433
1910  2023-11-29 15:47:39.890308
1911  2023-11-29 15:47:39.923216
1912  2023-11-29 15:47:39.955162
1913  2023-11-29 15:47:39.987076
1914  2023-11-29 15:47:40.018992
1915  2023-11-29 15:47:40.050906
1916  2023-11-29 15:47:40.082820
1917  2023-11-29 15:47:40.114735
1918  2023-11-29 15:47:40.146649
1919  2023-11-29 15:47:40.178564
1920  2023-11-29 15:47:40.210479
1921  2023-11-29 15:47:40.242393
1922  2023-11-29 15:47:40.290265
1923  2023-11-29 15:47:40.323177
1924  2023-11-29 15:47:40.355092
1925  2023-11-29 15:47:40.387007
1926  2023-11-29 15:47:40.418921
1927  2023-11-29 15:47:40.450836
1928  2023-11-29 15:47:40.482750
1929  2023-11-29 15:47:40.514668
1930  2023-11-29 15:47:40.546579
1931  2023-11-29 15:47:40.578494
1932  2023-11-29 15:47:40.610409
1933  2023-11-29 15:47:40.642327
1934  2023-11-29 15:47:40.691240
1935  2023-11-29 15:47:40.723111
1936  2023-11-29 15:47:40.755022
1937  2023-11-29 15:47:40.786936
1938  2023-11-29 15:47:40.818851
1939  2023-11-29 15:47:40.850843
1940  2023-11-29 15:47:40.882680
1941  2023-11-29 15:47:40.914595
1942  2023-11-29 15:47:40.946509
1943  2023-11-29 15:47:40.978506
1944  2023-11-29 15:47:41.010370
1945  2023-11-29 15:47:41.042253
1946  2023-11-29 15:47:41.091122
1947  2023-11-29 15:47:41.123037
1948  2023-11-29 15:47:41.154952
1949  2023-11-29 15:47:41.186915
1950  2023-11-29 15:47:41.218781
1951  2023-11-29 15:47:41.250695
1952  2023-11-29 15:47:41.282610
1953  2023-11-29 15:47:41.314557
1954  2023-11-29 15:47:41.346490
1955  2023-11-29 15:47:41.378354
1956  2023-11-29 15:47:41.410268
1957  2023-11-29 15:47:41.443211
1958  2023-11-29 15:47:41.491052
1959  2023-11-29 15:47:41.523022
1960  2023-11-29 15:47:41.554915
1961  2023-11-29 15:47:41.586796
1962  2023-11-29 15:47:41.618711
1963  2023-11-29 15:47:41.650668
1964  2023-11-29 15:47:41.682572
1965  2023-11-29 15:47:41.714455
1966  2023-11-29 15:47:41.746369
1967  2023-11-29 15:47:41.778317
1968  2023-11-29 15:47:41.810237
1969  2023-11-29 15:47:41.843155
1970  2023-11-29 15:47:41.890984
1971  2023-11-29 15:47:41.922888
1972  2023-11-29 15:47:41.954803
1973  2023-11-29 15:47:41.986757
1974  2023-11-29 15:47:42.019196
1975  2023-11-29 15:47:42.051110
1976  2023-11-29 15:47:42.083025
1977  2023-11-29 15:47:42.114999
1978  2023-11-29 15:47:42.146944
1979  2023-11-29 15:47:42.178957
1980  2023-11-29 15:47:42.210944
1981  2023-11-29 15:47:42.242896
1982  2023-11-29 15:47:42.290768
1983  2023-11-29 15:47:42.322682
1984  2023-11-29 15:47:42.354597
1985  2023-11-29 15:47:42.386421
1986  2023-11-29 15:47:42.418338
1987  2023-11-29 15:47:42.450282
1988  2023-11-29 15:47:42.483194
1989  2023-11-29 15:47:42.515109
1990  2023-11-29 15:47:42.547024
1991  2023-11-29 15:47:42.578938
1992  2023-11-29 15:47:42.610853
1993  2023-11-29 15:47:42.642853
1994  2023-11-29 15:47:42.690639
1995  2023-11-29 15:47:42.723701
1996  2023-11-29 15:47:42.754585
1997  2023-11-29 15:47:42.787498
1998  2023-11-29 15:47:42.819556
1999  2023-11-29 15:47:42.851455
2000  2023-11-29 15:47:42.883359
2001  2023-11-29 15:47:42.914401
2002  2023-11-29 15:47:42.946433
2003  2023-11-29 15:47:42.979399
2004  2023-11-29 15:47:43.011446
2005  2023-11-29 15:47:43.043354
2006  2023-11-29 15:47:43.091278
2007  2023-11-29 15:47:43.123192
2008  2023-11-29 15:47:43.155107
2009  2023-11-29 15:47:43.187025
2010  2023-11-29 15:47:43.218991
2011  2023-11-29 15:47:43.251010
2012  2023-11-29 15:47:43.282996
2013  2023-11-29 15:47:43.314955
2014  2023-11-29 15:47:43.346889
2015  2023-11-29 15:47:43.378852
2016  2023-11-29 15:47:43.410767
2017  2023-11-29 15:47:43.442726
2018  2023-11-29 15:47:43.490692
2019  2023-11-29 15:47:43.522774
2020  2023-11-29 15:47:43.554818
2021  2023-11-29 15:47:43.586656
2022  2023-11-29 15:47:43.618680
2023  2023-11-29 15:47:43.650637
2024  2023-11-29 15:47:43.682562
2025  2023-11-29 15:47:43.714430
2026  2023-11-29 15:47:43.746339
2027  2023-11-29 15:47:43.779250
2028  2023-11-29 15:47:43.810213
2029  2023-11-29 15:47:43.843080
2030  2023-11-29 15:47:43.890981
2031  2023-11-29 15:47:43.922867
2032  2023-11-29 15:47:43.954781
2033  2023-11-29 15:47:43.986766
2034  2023-11-29 15:47:44.018645
2035  2023-11-29 15:47:44.050525
2036  2023-11-29 15:47:44.082439
2037  2023-11-29 15:47:44.114354
2038  2023-11-29 15:47:44.146349
2039  2023-11-29 15:47:44.179301
2040  2023-11-29 15:47:44.211216
2041  2023-11-29 15:47:44.243252
2042  2023-11-29 15:47:44.291124
2043  2023-11-29 15:47:44.322247
2044  2023-11-29 15:47:44.355219
2045  2023-11-29 15:47:44.387074
2046  2023-11-29 15:47:44.418990
2047  2023-11-29 15:47:44.450903
2048  2023-11-29 15:47:44.482856
2049  2023-11-29 15:47:44.514833
2050  2023-11-29 15:47:44.546904
2051  2023-11-29 15:47:44.578797
2052  2023-11-29 15:47:44.610848
2053  2023-11-29 15:47:44.642762
2054  2023-11-29 15:47:44.690634
2055  2023-11-29 15:47:44.723547
2056  2023-11-29 15:47:44.754463
2057  2023-11-29 15:47:44.787375
2058  2023-11-29 15:47:44.818293
2059  2023-11-29 15:47:44.851204
2060  2023-11-29 15:47:44.883119
2061  2023-11-29 15:47:44.915033
2062  2023-11-29 15:47:44.946948
2063  2023-11-29 15:47:44.978863
2064  2023-11-29 15:47:45.010777
2065  2023-11-29 15:47:45.042700
2066  2023-11-29 15:47:45.090564
2067  2023-11-29 15:47:45.123476
2068  2023-11-29 15:47:45.155390
2069  2023-11-29 15:47:45.187305
2070  2023-11-29 15:47:45.219220
2071  2023-11-29 15:47:45.251135
2072  2023-11-29 15:47:45.283049
2073  2023-11-29 15:47:45.314963
2074  2023-11-29 15:47:45.346878
2075  2023-11-29 15:47:45.378793
2076  2023-11-29 15:47:45.410707
2077  2023-11-29 15:47:45.442622
2078  2023-11-29 15:47:45.490494
2079  2023-11-29 15:47:45.522408
2080  2023-11-29 15:47:45.555330
2081  2023-11-29 15:47:45.587238
2082  2023-11-29 15:47:45.619151
2083  2023-11-29 15:47:45.651066
2084  2023-11-29 15:47:45.683026
2085  2023-11-29 15:47:45.714895
2086  2023-11-29 15:47:45.746819
2087  2023-11-29 15:47:45.778724
2088  2023-11-29 15:47:45.810673
2089  2023-11-29 15:47:45.842553
2090  2023-11-29 15:47:45.890485
2091  2023-11-29 15:47:45.922340
2092  2023-11-29 15:47:45.955252
2093  2023-11-29 15:47:45.987167
2094  2023-11-29 15:47:46.019174
2095  2023-11-29 15:47:46.051094
2096  2023-11-29 15:47:46.083008
2097  2023-11-29 15:47:46.115025
2098  2023-11-29 15:47:46.146951
2099  2023-11-29 15:47:46.178897
2100  2023-11-29 15:47:46.210781
2101  2023-11-29 15:47:46.242728
2102  2023-11-29 15:47:46.290748
2103  2023-11-29 15:47:46.322663
2104  2023-11-29 15:47:46.354611
2105  2023-11-29 15:47:46.386539
2106  2023-11-29 15:47:46.418406
2107  2023-11-29 15:47:46.450321
2108  2023-11-29 15:47:46.483233
2109  2023-11-29 15:47:46.515148
2110  2023-11-29 15:47:46.547062
2111  2023-11-29 15:47:46.578984
2112  2023-11-29 15:47:46.610892
2113  2023-11-29 15:47:46.642806
2114  2023-11-29 15:47:46.690678
2115  2023-11-29 15:47:46.722606
2116  2023-11-29 15:47:46.754617
2117  2023-11-29 15:47:46.786531
2118  2023-11-29 15:47:46.818446
2119  2023-11-29 15:47:46.850434
2120  2023-11-29 15:47:46.882370
2121  2023-11-29 15:47:46.914285
2122  2023-11-29 15:47:46.947206
2123  2023-11-29 15:47:46.979210
2124  2023-11-29 15:47:47.011231
2125  2023-11-29 15:47:47.043146
2126  2023-11-29 15:47:47.091018
2127  2023-11-29 15:47:47.122932
2128  2023-11-29 15:47:47.154847
2129  2023-11-29 15:47:47.186861
2130  2023-11-29 15:47:47.218776
2131  2023-11-29 15:47:47.250691
2132  2023-11-29 15:47:47.282605
2133  2023-11-29 15:47:47.314645
2134  2023-11-29 15:47:47.346559
2135  2023-11-29 15:47:47.378474
2136  2023-11-29 15:47:47.410388
2137  2023-11-29 15:47:47.442450
2138  2023-11-29 15:47:47.490472
2139  2023-11-29 15:47:47.522413
2140  2023-11-29 15:47:47.554328
2141  2023-11-29 15:47:47.586243
2142  2023-11-29 15:47:47.618278
2143  2023-11-29 15:47:47.651190
2144  2023-11-29 15:47:47.683105
2145  2023-11-29 15:47:47.715019
2146  2023-11-29 15:47:47.746934
2147  2023-11-29 15:47:47.778964
2148  2023-11-29 15:47:47.810879
2149  2023-11-29 15:47:47.842798
2150  2023-11-29 15:47:47.890666
2151  2023-11-29 15:47:47.922589
2152  2023-11-29 15:47:47.954495
2153  2023-11-29 15:47:47.987408
2154  2023-11-29 15:47:48.019322
2155  2023-11-29 15:47:48.051344
2156  2023-11-29 15:47:48.083262
2157  2023-11-29 15:47:48.115171
2158  2023-11-29 15:47:48.147086
2159  2023-11-29 15:47:48.179008
2160  2023-11-29 15:47:48.210914
2161  2023-11-29 15:47:48.242829
2162  2023-11-29 15:47:48.290701
2163  2023-11-29 15:47:48.322615
2164  2023-11-29 15:47:48.354564
2165  2023-11-29 15:47:48.386494
2166  2023-11-29 15:47:48.418359
2167  2023-11-29 15:47:48.450274
2168  2023-11-29 15:47:48.483237
2169  2023-11-29 15:47:48.515154
2170  2023-11-29 15:47:48.547015
2171  2023-11-29 15:47:48.580149
2172  2023-11-29 15:47:48.611063
2173  2023-11-29 15:47:48.642964
2174  2023-11-29 15:47:48.691061
2175  2023-11-29 15:47:48.723968
2176  2023-11-29 15:47:48.755892
2177  2023-11-29 15:47:48.787799
2178  2023-11-29 15:47:48.819701
2179  2023-11-29 15:47:48.850625
2180  2023-11-29 15:47:48.883499
2181  2023-11-29 15:47:48.915459
2182  2023-11-29 15:47:48.947374
2183  2023-11-29 15:47:48.979375
2184  2023-11-29 15:47:49.011293
2185  2023-11-29 15:47:49.043233
2186  2023-11-29 15:47:49.092209
2187  2023-11-29 15:47:49.123135
2188  2023-11-29 15:47:49.155094
2189  2023-11-29 15:47:49.187008
2190  2023-11-29 15:47:49.218957
2191  2023-11-29 15:47:49.251860
2192  2023-11-29 15:47:49.282776
2193  2023-11-29 15:47:49.315719
2194  2023-11-29 15:47:49.347052
2195  2023-11-29 15:47:49.378968
2196  2023-11-29 15:47:49.410881
2197  2023-11-29 15:47:49.442795
2198  2023-11-29 15:47:49.491283
2199  2023-11-29 15:47:49.523351
2200  2023-11-29 15:47:49.555225
2201  2023-11-29 15:47:49.587133
2202  2023-11-29 15:47:49.619290
2203  2023-11-29 15:47:49.651210
2204  2023-11-29 15:47:49.683129
2205  2023-11-29 15:47:49.715038
2206  2023-11-29 15:47:49.746959
2207  2023-11-29 15:47:49.778873
2208  2023-11-29 15:47:49.810787
2209  2023-11-29 15:47:49.842723
2210  2023-11-29 15:47:49.891642
2211  2023-11-29 15:47:49.922604
2212  2023-11-29 15:47:49.955531
2213  2023-11-29 15:47:49.986445
2214  2023-11-29 15:47:50.018499
2215  2023-11-29 15:47:50.051409
2216  2023-11-29 15:47:50.083274
2217  2023-11-29 15:47:50.115240
2218  2023-11-29 15:47:50.147167
2219  2023-11-29 15:47:50.179142
2220  2023-11-29 15:47:50.211053
2221  2023-11-29 15:47:50.243010
2222  2023-11-29 15:47:50.290950
2223  2023-11-29 15:47:50.322868
2224  2023-11-29 15:47:50.354768
2225  2023-11-29 15:47:50.386726
2226  2023-11-29 15:47:50.418591
2227  2023-11-29 15:47:50.450522
2228  2023-11-29 15:47:50.482611
2229  2023-11-29 15:47:50.514617
2230  2023-11-29 15:47:50.546543
2231  2023-11-29 15:47:50.579416
2232  2023-11-29 15:47:50.610377
2233  2023-11-29 15:47:50.643361
2234  2023-11-29 15:47:50.690296
2235  2023-11-29 15:47:50.723184
2236  2023-11-29 15:47:50.756114
2237  2023-11-29 15:47:50.786982
2238  2023-11-29 15:47:50.818889
2239  2023-11-29 15:47:50.850985
2240  2023-11-29 15:47:50.884067
2241  2023-11-29 15:47:50.916053
2242  2023-11-29 15:47:50.948066
2243  2023-11-29 15:47:50.978950
2244  2023-11-29 15:47:51.010979
2245  2023-11-29 15:47:51.043939
2246  2023-11-29 15:47:51.090764
2247  2023-11-29 15:47:51.122764
2248  2023-11-29 15:47:51.155640
2249  2023-11-29 15:47:51.187552
2250  2023-11-29 15:47:51.219467
2251  2023-11-29 15:47:51.250382
2252  2023-11-29 15:47:51.283296
2253  2023-11-29 15:47:51.315200
2254  2023-11-29 15:47:51.347155
2255  2023-11-29 15:47:51.379138
2256  2023-11-29 15:47:51.411002
2257  2023-11-29 15:47:51.442967
2258  2023-11-29 15:47:51.490788
2259  2023-11-29 15:47:51.522776
2260  2023-11-29 15:47:51.555658
2261  2023-11-29 15:47:51.587575
2262  2023-11-29 15:47:51.619493
2263  2023-11-29 15:47:51.650391
2264  2023-11-29 15:47:51.682358
2265  2023-11-29 15:47:51.715306
2266  2023-11-29 15:47:51.747228
2267  2023-11-29 15:47:51.779137
2268  2023-11-29 15:47:51.811043
2269  2023-11-29 15:47:51.842928
2270  2023-11-29 15:47:51.890799
2271  2023-11-29 15:47:51.922802
2272  2023-11-29 15:47:51.954684
2273  2023-11-29 15:47:51.987584
2274  2023-11-29 15:47:52.018491
2275  2023-11-29 15:47:52.050373
2276  2023-11-29 15:47:52.082294
2277  2023-11-29 15:47:52.115238
2278  2023-11-29 15:47:52.147144
2279  2023-11-29 15:47:52.179128
2280  2023-11-29 15:47:52.211041
2281  2023-11-29 15:47:52.242986
2282  2023-11-29 15:47:52.290827
2283  2023-11-29 15:47:52.322818
2284  2023-11-29 15:47:52.354718
2285  2023-11-29 15:47:52.386616
2286  2023-11-29 15:47:52.418501
2287  2023-11-29 15:47:52.450441
2288  2023-11-29 15:47:52.482370
2289  2023-11-29 15:47:52.515231
2290  2023-11-29 15:47:52.547144
2291  2023-11-29 15:47:52.579203
2292  2023-11-29 15:47:52.610228
2293  2023-11-29 15:47:52.643377
2294  2023-11-29 15:47:52.691189
2295  2023-11-29 15:47:52.723105
2296  2023-11-29 15:47:52.755054
2297  2023-11-29 15:47:52.786997
2298  2023-11-29 15:47:52.818848
2299  2023-11-29 15:47:52.850819
2300  2023-11-29 15:47:52.882751
2301  2023-11-29 15:47:52.914615
2302  2023-11-29 15:47:52.946549
2303  2023-11-29 15:47:52.978519
2304  2023-11-29 15:47:53.010559
2305  2023-11-29 15:47:53.042445
2306  2023-11-29 15:47:53.090413
2307  2023-11-29 15:47:53.122330
2308  2023-11-29 15:47:53.154266
2309  2023-11-29 15:47:53.187178
2310  2023-11-29 15:47:53.219118
2311  2023-11-29 15:47:53.251136
2312  2023-11-29 15:47:53.283064
2313  2023-11-29 15:47:53.314966
2314  2023-11-29 15:47:53.346986
2315  2023-11-29 15:47:53.378999
2316  2023-11-29 15:47:53.410860
2317  2023-11-29 15:47:53.442826
2318  2023-11-29 15:47:53.490684
2319  2023-11-29 15:47:53.522648
2320  2023-11-29 15:47:53.554476
2321  2023-11-29 15:47:53.586437
2322  2023-11-29 15:47:53.618419
2323  2023-11-29 15:47:53.650329
2324  2023-11-29 15:47:53.682247
2325  2023-11-29 15:47:53.715151
2326  2023-11-29 15:47:53.747073
2327  2023-11-29 15:47:53.779001
2328  2023-11-29 15:47:53.810913
2329  2023-11-29 15:47:53.842777
2330  2023-11-29 15:47:53.890710
2331  2023-11-29 15:47:53.922564
2332  2023-11-29 15:47:53.954534
2333  2023-11-29 15:47:53.986435
2334  2023-11-29 15:47:54.018343
2335  2023-11-29 15:47:54.050347
2336  2023-11-29 15:47:54.082240
2337  2023-11-29 15:47:54.115178
2338  2023-11-29 15:47:54.147082
2339  2023-11-29 15:47:54.178976
2340  2023-11-29 15:47:54.210919
2341  2023-11-29 15:47:54.242821
2342  2023-11-29 15:47:54.290725
2343  2023-11-29 15:47:54.322601
2344  2023-11-29 15:47:54.354514
2345  2023-11-29 15:47:54.386426
2346  2023-11-29 15:47:54.418342
2347  2023-11-29 15:47:54.450256
2348  2023-11-29 15:47:54.483202
2349  2023-11-29 15:47:54.514203
2350  2023-11-29 15:47:54.547127
2351  2023-11-29 15:47:54.579129
2352  2023-11-29 15:47:54.611074
2353  2023-11-29 15:47:54.643133
2354  2023-11-29 15:47:54.691107
2355  2023-11-29 15:47:54.722999
2356  2023-11-29 15:47:54.754878
2357  2023-11-29 15:47:54.786845
2358  2023-11-29 15:47:54.818752
2359  2023-11-29 15:47:54.851670
2360  2023-11-29 15:47:54.882586
2361  2023-11-29 15:47:54.914483
2362  2023-11-29 15:47:54.946515
2363  2023-11-29 15:47:54.979385
2364  2023-11-29 15:47:55.011368
2365  2023-11-29 15:47:55.042362
2366  2023-11-29 15:47:55.091184
2367  2023-11-29 15:47:55.123097
2368  2023-11-29 15:47:55.155012
2369  2023-11-29 15:47:55.187045
2370  2023-11-29 15:47:55.218990
2371  2023-11-29 15:47:55.251006
2372  2023-11-29 15:47:55.282904
2373  2023-11-29 15:47:55.314789
2374  2023-11-29 15:47:55.346743
2375  2023-11-29 15:47:55.378668
2376  2023-11-29 15:47:55.410570
2377  2023-11-29 15:47:55.442482
2378  2023-11-29 15:47:55.490374
2379  2023-11-29 15:47:55.522234
2380  2023-11-29 15:47:55.555175
2381  2023-11-29 15:47:55.587098
2382  2023-11-29 15:47:55.619023
2383  2023-11-29 15:47:55.650890
2384  2023-11-29 15:47:55.683189
2385  2023-11-29 15:47:55.715194
2386  2023-11-29 15:47:55.747158
2387  2023-11-29 15:47:55.779087
2388  2023-11-29 15:47:55.810952
2389  2023-11-29 15:47:55.842909
2390  2023-11-29 15:47:55.890801
2391  2023-11-29 15:47:55.922693
2392  2023-11-29 15:47:55.954598
2393  2023-11-29 15:47:55.986512
2394  2023-11-29 15:47:56.018444
2395  2023-11-29 15:47:56.050342
2396  2023-11-29 15:47:56.082257
2397  2023-11-29 15:47:56.114184
2398  2023-11-29 15:47:56.147087
2399  2023-11-29 15:47:56.179001
2400  2023-11-29 15:47:56.210931
2401  2023-11-29 15:47:56.242711
2402  2023-11-29 15:47:56.290696
2403  2023-11-29 15:47:56.322651
2404  2023-11-29 15:47:56.354528
2405  2023-11-29 15:47:56.386427
2406  2023-11-29 15:47:56.418342
2407  2023-11-29 15:47:56.450259
2408  2023-11-29 15:47:56.483184
2409  2023-11-29 15:47:56.515093
2410  2023-11-29 15:47:56.547008
2411  2023-11-29 15:47:56.578932
2412  2023-11-29 15:47:56.610848
2413  2023-11-29 15:47:56.642751
2414  2023-11-29 15:47:56.690644
2415  2023-11-29 15:47:56.722557
2416  2023-11-29 15:47:56.754449
2417  2023-11-29 15:47:56.786375
2418  2023-11-29 15:47:56.819279
2419  2023-11-29 15:47:56.851199
2420  2023-11-29 15:47:56.883099
2421  2023-11-29 15:47:56.915004
2422  2023-11-29 15:47:56.946964
2423  2023-11-29 15:47:56.978879
2424  2023-11-29 15:47:57.010899
2425  2023-11-29 15:47:57.042842
2426  2023-11-29 15:47:57.090728
2427  2023-11-29 15:47:57.122632
2428  2023-11-29 15:47:57.154563
2429  2023-11-29 15:47:57.186462
2430  2023-11-29 15:47:57.218373
2431  2023-11-29 15:47:57.250302
2432  2023-11-29 15:47:57.282218
2433  2023-11-29 15:47:57.315125
2434  2023-11-29 15:47:57.347067
2435  2023-11-29 15:47:57.378942
2436  2023-11-29 15:47:57.410877
2437  2023-11-29 15:47:57.442809
2438  2023-11-29 15:47:57.490647
2439  2023-11-29 15:47:57.522562
2440  2023-11-29 15:47:57.554489
2441  2023-11-29 15:47:57.586392
2442  2023-11-29 15:47:57.618324
2443  2023-11-29 15:47:57.651225
2444  2023-11-29 15:47:57.683146
2445  2023-11-29 15:47:57.715053
2446  2023-11-29 15:47:57.746966
2447  2023-11-29 15:47:57.778922
2448  2023-11-29 15:47:57.810784
2449  2023-11-29 15:47:57.842728
2450  2023-11-29 15:47:57.890600
2451  2023-11-29 15:47:57.922506
2452  2023-11-29 15:47:57.954404
2453  2023-11-29 15:47:57.986321
2454  2023-11-29 15:47:58.018233
2455  2023-11-29 15:47:58.051198
2456  2023-11-29 15:47:58.083071
2457  2023-11-29 15:47:58.114975
2458  2023-11-29 15:47:58.146905
2459  2023-11-29 15:47:58.178806
2460  2023-11-29 15:47:58.210723
2461  2023-11-29 15:47:58.242635
2462  2023-11-29 15:47:58.290505
2463  2023-11-29 15:47:58.322436
2464  2023-11-29 15:47:58.354350
2465  2023-11-29 15:47:58.386248
2466  2023-11-29 15:47:58.418336
2467  2023-11-29 15:47:58.450283
2468  2023-11-29 15:47:58.483240
2469  2023-11-29 15:47:58.515122
2470  2023-11-29 15:47:58.547096
2471  2023-11-29 15:47:58.579010
2472  2023-11-29 15:47:58.610973
2473  2023-11-29 15:47:58.642887
2474  2023-11-29 15:47:58.690771
2475  2023-11-29 15:47:58.722657
2476  2023-11-29 15:47:58.754613
2477  2023-11-29 15:47:58.786455
2478  2023-11-29 15:47:58.818369
2479  2023-11-29 15:47:58.850330
2480  2023-11-29 15:47:58.882243
2481  2023-11-29 15:47:58.915151
2482  2023-11-29 15:47:58.947025
2483  2023-11-29 15:47:58.978940
2484  2023-11-29 15:47:59.010905
2485  2023-11-29 15:47:59.042820
2486  2023-11-29 15:47:59.091639
2487  2023-11-29 15:47:59.122625
2488  2023-11-29 15:47:59.154623
2489  2023-11-29 15:47:59.187414
2490  2023-11-29 15:47:59.219302
2491  2023-11-29 15:47:59.251239
2492  2023-11-29 15:47:59.283182
2493  2023-11-29 15:47:59.315070
2494  2023-11-29 15:47:59.346955
2495  2023-11-29 15:47:59.378870
2496  2023-11-29 15:47:59.410833
2497  2023-11-29 15:47:59.442750
2498  2023-11-29 15:47:59.490620
2499  2023-11-29 15:47:59.522541
2500  2023-11-29 15:47:59.554444
2501  2023-11-29 15:47:59.586315
2502  2023-11-29 15:47:59.618229
2503  2023-11-29 15:47:59.651180
2504  2023-11-29 15:47:59.683110
2505  2023-11-29 15:47:59.715012
2506  2023-11-29 15:47:59.746885
2507  2023-11-29 15:47:59.778800
2508  2023-11-29 15:47:59.810745
2509  2023-11-29 15:47:59.842706
2510  2023-11-29 15:47:59.890541
2511  2023-11-29 15:47:59.922447
2512  2023-11-29 15:47:59.954359
2513  2023-11-29 15:47:59.986289
2514  2023-11-29 15:48:00.018189
2515  2023-11-29 15:48:00.051071
2516  2023-11-29 15:48:00.082986
2517  2023-11-29 15:48:00.114900
2518  2023-11-29 15:48:00.146856
2519  2023-11-29 15:48:00.178729
2520  2023-11-29 15:48:00.210716
2521  2023-11-29 15:48:00.242615
2522  2023-11-29 15:48:00.290474
2523  2023-11-29 15:48:00.322376
2524  2023-11-29 15:48:00.354351
2525  2023-11-29 15:48:00.386274
2526  2023-11-29 15:48:00.419186
2527  2023-11-29 15:48:00.451101
2528  2023-11-29 15:48:00.482264
2529  2023-11-29 15:48:00.515177
2530  2023-11-29 15:48:00.547091
2531  2023-11-29 15:48:00.579127
2532  2023-11-29 15:48:00.611129
2533  2023-11-29 15:48:00.643044
2534  2023-11-29 15:48:00.690916
2535  2023-11-29 15:48:00.722830
2536  2023-11-29 15:48:00.754745
2537  2023-11-29 15:48:00.786659
2538  2023-11-29 15:48:00.818574
2539  2023-11-29 15:48:00.850531
2540  2023-11-29 15:48:00.882403
2541  2023-11-29 15:48:00.914318
2542  2023-11-29 15:48:00.946232
2543  2023-11-29 15:48:00.979184
2544  2023-11-29 15:48:01.011103
2545  2023-11-29 15:48:01.042974
2546  2023-11-29 15:48:01.090846
2547  2023-11-29 15:48:01.122760
2548  2023-11-29 15:48:01.154675
2549  2023-11-29 15:48:01.186647
2550  2023-11-29 15:48:01.218504
2551  2023-11-29 15:48:01.250418
2552  2023-11-29 15:48:01.282333
2553  2023-11-29 15:48:01.314292
2554  2023-11-29 15:48:01.347190
2555  2023-11-29 15:48:01.379074
2556  2023-11-29 15:48:01.410989
2557  2023-11-29 15:48:01.442944
2558  2023-11-29 15:48:01.490775
2559  2023-11-29 15:48:01.522756
2560  2023-11-29 15:48:01.554605
2561  2023-11-29 15:48:01.586519
2562  2023-11-29 15:48:01.618434
2563  2023-11-29 15:48:01.650383
2564  2023-11-29 15:48:01.682296
2565  2023-11-29 15:48:01.715175
2566  2023-11-29 15:48:01.747089
2567  2023-11-29 15:48:01.779060
2568  2023-11-29 15:48:01.810952
2569  2023-11-29 15:48:01.842833
2570  2023-11-29 15:48:01.890744
2571  2023-11-29 15:48:01.922620
2572  2023-11-29 15:48:01.954534
2573  2023-11-29 15:48:01.986480
2574  2023-11-29 15:48:02.018397
2575  2023-11-29 15:48:02.050278
2576  2023-11-29 15:48:02.082193
2577  2023-11-29 15:48:02.115105
2578  2023-11-29 15:48:02.147064
2579  2023-11-29 15:48:02.179013
2580  2023-11-29 15:48:02.210979
2581  2023-11-29 15:48:02.243012
2582  2023-11-29 15:48:02.290883
2583  2023-11-29 15:48:02.322847
2584  2023-11-29 15:48:02.354744
2585  2023-11-29 15:48:02.386627
2586  2023-11-29 15:48:02.418542
2587  2023-11-29 15:48:02.450456
2588  2023-11-29 15:48:02.482403
2589  2023-11-29 15:48:02.514286
2590  2023-11-29 15:48:02.546200
2591  2023-11-29 15:48:02.579112
2592  2023-11-29 15:48:02.611027
2593  2023-11-29 15:48:02.642942
2594  2023-11-29 15:48:02.690924
2595  2023-11-29 15:48:02.722839
2596  2023-11-29 15:48:02.754754
2597  2023-11-29 15:48:02.786674
2598  2023-11-29 15:48:02.818583
2599  2023-11-29 15:48:02.850497
2600  2023-11-29 15:48:02.882412
2601  2023-11-29 15:48:02.914327
2602  2023-11-29 15:48:02.946241
2603  2023-11-29 15:48:02.979153
2604  2023-11-29 15:48:03.011068
2605  2023-11-29 15:48:03.042982
2606  2023-11-29 15:48:03.090854
2607  2023-11-29 15:48:03.122911
2608  2023-11-29 15:48:03.154684
2609  2023-11-29 15:48:03.186598
2610  2023-11-29 15:48:03.218513
2611  2023-11-29 15:48:03.250535
2612  2023-11-29 15:48:03.282489
2613  2023-11-29 15:48:03.314451
2614  2023-11-29 15:48:03.347379
2615  2023-11-29 15:48:03.378336
2616  2023-11-29 15:48:03.410243
2617  2023-11-29 15:48:03.443176
2618  2023-11-29 15:48:03.491182
2619  2023-11-29 15:48:03.522323
2620  2023-11-29 15:48:03.554274
2621  2023-11-29 15:48:03.586183
2622  2023-11-29 15:48:03.619121
2623  2023-11-29 15:48:03.651011
2624  2023-11-29 15:48:03.683051
2625  2023-11-29 15:48:03.714933
2626  2023-11-29 15:48:03.746848
2627  2023-11-29 15:48:03.778817
2628  2023-11-29 15:48:03.810646
2629  2023-11-29 15:48:03.842789
2630  2023-11-29 15:48:03.890699
2631  2023-11-29 15:48:03.922658
2632  2023-11-29 15:48:03.954572
2633  2023-11-29 15:48:03.986594
2634  2023-11-29 15:48:04.018611
2635  2023-11-29 15:48:04.050561
2636  2023-11-29 15:48:04.082517
2637  2023-11-29 15:48:04.114431
2638  2023-11-29 15:48:04.146380
2639  2023-11-29 15:48:04.179258
2640  2023-11-29 15:48:04.211173
2641  2023-11-29 15:48:04.243087
2642  2023-11-29 15:48:04.290959
2643  2023-11-29 15:48:04.322874
2644  2023-11-29 15:48:04.354835
2645  2023-11-29 15:48:04.386703
2646  2023-11-29 15:48:04.418617
2647  2023-11-29 15:48:04.450532
2648  2023-11-29 15:48:04.482447
2649  2023-11-29 15:48:04.514361
2650  2023-11-29 15:48:04.546276
2651  2023-11-29 15:48:04.579188
2652  2023-11-29 15:48:04.610261
2653  2023-11-29 15:48:04.643179
2654  2023-11-29 15:48:04.691044
2655  2023-11-29 15:48:04.722959
2656  2023-11-29 15:48:04.754873
2657  2023-11-29 15:48:04.786788
2658  2023-11-29 15:48:04.818669
2659  2023-11-29 15:48:04.850581
2660  2023-11-29 15:48:04.883454
2661  2023-11-29 15:48:04.914371
2662  2023-11-29 15:48:04.946286
2663  2023-11-29 15:48:04.979198
2664  2023-11-29 15:48:05.011112
2665  2023-11-29 15:48:05.043027
2666  2023-11-29 15:48:05.090899
2667  2023-11-29 15:48:05.122813
2668  2023-11-29 15:48:05.154728
2669  2023-11-29 15:48:05.186643
2670  2023-11-29 15:48:05.218557
2671  2023-11-29 15:48:05.250639
2672  2023-11-29 15:48:05.282656
2673  2023-11-29 15:48:05.314570
2674  2023-11-29 15:48:05.346485
2675  2023-11-29 15:48:05.378399
2676  2023-11-29 15:48:05.410314
2677  2023-11-29 15:48:05.442228
2678  2023-11-29 15:48:05.491098
2679  2023-11-29 15:48:05.523019
2680  2023-11-29 15:48:05.554928
2681  2023-11-29 15:48:05.586842
2682  2023-11-29 15:48:05.618761
2683  2023-11-29 15:48:05.650676
2684  2023-11-29 15:48:05.682604
2685  2023-11-29 15:48:05.714500
2686  2023-11-29 15:48:05.746415
2687  2023-11-29 15:48:05.779327
2688  2023-11-29 15:48:05.811245
2689  2023-11-29 15:48:05.843231
2690  2023-11-29 15:48:05.891076
2691  2023-11-29 15:48:05.922942
2692  2023-11-29 15:48:05.954857
2693  2023-11-29 15:48:05.986771
2694  2023-11-29 15:48:06.018741
2695  2023-11-29 15:48:06.050601
2696  2023-11-29 15:48:06.082515
2697  2023-11-29 15:48:06.114430
2698  2023-11-29 15:48:06.146396
2699  2023-11-29 15:48:06.179295
2700  2023-11-29 15:48:06.211171
2701  2023-11-29 15:48:06.243086
2702  2023-11-29 15:48:06.290958
2703  2023-11-29 15:48:06.322872
2704  2023-11-29 15:48:06.354820
2705  2023-11-29 15:48:06.386734
2706  2023-11-29 15:48:06.418616
2707  2023-11-29 15:48:06.450519
2708  2023-11-29 15:48:06.482370
2709  2023-11-29 15:48:06.514285
2710  2023-11-29 15:48:06.546249
2711  2023-11-29 15:48:06.579161
2712  2023-11-29 15:48:06.611114
2713  2023-11-29 15:48:06.643053
2714  2023-11-29 15:48:06.690905
2715  2023-11-29 15:48:06.722824
2716  2023-11-29 15:48:06.754691
2717  2023-11-29 15:48:06.786606
2718  2023-11-29 15:48:06.818594
2719  2023-11-29 15:48:06.850466
2720  2023-11-29 15:48:06.882349
2721  2023-11-29 15:48:06.914264
2722  2023-11-29 15:48:06.947176
2723  2023-11-29 15:48:06.979156
2724  2023-11-29 15:48:07.011005
2725  2023-11-29 15:48:07.042920
2726  2023-11-29 15:48:07.090792
2727  2023-11-29 15:48:07.122706
2728  2023-11-29 15:48:07.154655
2729  2023-11-29 15:48:07.186537
2730  2023-11-29 15:48:07.218452
2731  2023-11-29 15:48:07.250366
2732  2023-11-29 15:48:07.282281
2733  2023-11-29 15:48:07.315193
2734  2023-11-29 15:48:07.347123
2735  2023-11-29 15:48:07.379022
2736  2023-11-29 15:48:07.410937
2737  2023-11-29 15:48:07.442851
2738  2023-11-29 15:48:07.490723
2739  2023-11-29 15:48:07.522638
2740  2023-11-29 15:48:07.554553
2741  2023-11-29 15:48:07.586467
2742  2023-11-29 15:48:07.619379
2743  2023-11-29 15:48:07.650297
2744  2023-11-29 15:48:07.682211
2745  2023-11-29 15:48:07.715123
2746  2023-11-29 15:48:07.747038
2747  2023-11-29 15:48:07.778952
2748  2023-11-29 15:48:07.810867
2749  2023-11-29 15:48:07.842781
2750  2023-11-29 15:48:07.891652
2751  2023-11-29 15:48:07.923567
2752  2023-11-29 15:48:07.954482
2753  2023-11-29 15:48:07.986397
2754  2023-11-29 15:48:08.019310
2755  2023-11-29 15:48:08.051224
2756  2023-11-29 15:48:08.084137
2757  2023-11-29 15:48:08.115054
2758  2023-11-29 15:48:08.147966
2759  2023-11-29 15:48:08.179944
2760  2023-11-29 15:48:08.210864
2761  2023-11-29 15:48:08.243907
2762  2023-11-29 15:48:08.291727
2763  2023-11-29 15:48:08.322643
2764  2023-11-29 15:48:08.356636
2765  2023-11-29 15:48:08.388499
2766  2023-11-29 15:48:08.418387
2767  2023-11-29 15:48:08.452344
2768  2023-11-29 15:48:08.483214
2769  2023-11-29 15:48:08.516177
2770  2023-11-29 15:48:08.546251
2771  2023-11-29 15:48:08.580203
2772  2023-11-29 15:48:08.612237
2773  2023-11-29 15:48:08.644205
2774  2023-11-29 15:48:08.692078
2775  2023-11-29 15:48:08.723886
2776  2023-11-29 15:48:08.755838
2777  2023-11-29 15:48:08.787799
2778  2023-11-29 15:48:08.819721
2779  2023-11-29 15:48:08.851627
2780  2023-11-29 15:48:08.883616
2781  2023-11-29 15:48:08.915540
2782  2023-11-29 15:48:08.947451
2783  2023-11-29 15:48:08.979426
2784  2023-11-29 15:48:09.011464
2785  2023-11-29 15:48:09.043365
2786  2023-11-29 15:48:09.091368
2787  2023-11-29 15:48:09.123306
2788  2023-11-29 15:48:09.155238
2789  2023-11-29 15:48:09.187281
2790  2023-11-29 15:48:09.219193
2791  2023-11-29 15:48:09.251118
2792  2023-11-29 15:48:09.283032
2793  2023-11-29 15:48:09.315115
2794  2023-11-29 15:48:09.347027
2795  2023-11-29 15:48:09.378953
2796  2023-11-29 15:48:09.410847
2797  2023-11-29 15:48:09.442747
2798  2023-11-29 15:48:09.490635
2799  2023-11-29 15:48:09.522540
2800  2023-11-29 15:48:09.555468
2801  2023-11-29 15:48:09.587384
2802  2023-11-29 15:48:09.619404
2803  2023-11-29 15:48:09.651336
2804  2023-11-29 15:48:09.683268
2805  2023-11-29 15:48:09.715170
2806  2023-11-29 15:48:09.747074
2807  2023-11-29 15:48:09.778983
2808  2023-11-29 15:48:09.810915
2809  2023-11-29 15:48:09.842839
2810  2023-11-29 15:48:09.890692
2811  2023-11-29 15:48:09.922628
2812  2023-11-29 15:48:09.954660
2813  2023-11-29 15:48:09.986541
2814  2023-11-29 15:48:10.018464
2815  2023-11-29 15:48:10.050375
2816  2023-11-29 15:48:10.082288
2817  2023-11-29 15:48:10.115224
2818  2023-11-29 15:48:10.147118
2819  2023-11-29 15:48:10.179011
2820  2023-11-29 15:48:10.210907
2821  2023-11-29 15:48:10.243869
2822  2023-11-29 15:48:10.290734
2823  2023-11-29 15:48:10.322682
2824  2023-11-29 15:48:10.355551
2825  2023-11-29 15:48:10.388512
2826  2023-11-29 15:48:10.419175
2827  2023-11-29 15:48:10.451207
2828  2023-11-29 15:48:10.484145
2829  2023-11-29 15:48:10.516077
2830  2023-11-29 15:48:10.547975
2831  2023-11-29 15:48:10.579901
2832  2023-11-29 15:48:10.610900
2833  2023-11-29 15:48:10.642814
2834  2023-11-29 15:48:10.690863
2835  2023-11-29 15:48:10.722757
2836  2023-11-29 15:48:10.755662
2837  2023-11-29 15:48:10.787570
2838  2023-11-29 15:48:10.819480
2839  2023-11-29 15:48:10.850419
2840  2023-11-29 15:48:10.882314
2841  2023-11-29 15:48:10.915226
2842  2023-11-29 15:48:10.947167
2843  2023-11-29 15:48:10.980049
2844  2023-11-29 15:48:11.010933
2845  2023-11-29 15:48:11.042885
2846  2023-11-29 15:48:11.090805
2847  2023-11-29 15:48:11.122720
2848  2023-11-29 15:48:11.155661
2849  2023-11-29 15:48:11.187580
2850  2023-11-29 15:48:11.219510
2851  2023-11-29 15:48:11.251375
2852  2023-11-29 15:48:11.282328
2853  2023-11-29 15:48:11.315237
2854  2023-11-29 15:48:11.347169
2855  2023-11-29 15:48:11.379086
2856  2023-11-29 15:48:11.410982
2857  2023-11-29 15:48:11.442863
2858  2023-11-29 15:48:11.490784
2859  2023-11-29 15:48:11.522694
2860  2023-11-29 15:48:11.555607
2861  2023-11-29 15:48:11.587519
2862  2023-11-29 15:48:11.619426
2863  2023-11-29 15:48:11.650346
2864  2023-11-29 15:48:11.683268
2865  2023-11-29 15:48:11.715212
2866  2023-11-29 15:48:11.747083
2867  2023-11-29 15:48:11.779015
2868  2023-11-29 15:48:11.810879
2869  2023-11-29 15:48:11.842826
2870  2023-11-29 15:48:11.890720
2871  2023-11-29 15:48:11.922580
2872  2023-11-29 15:48:11.954527
2873  2023-11-29 15:48:11.987461
2874  2023-11-29 15:48:12.019375
2875  2023-11-29 15:48:12.051236
2876  2023-11-29 15:48:12.083158
2877  2023-11-29 15:48:12.115103
2878  2023-11-29 15:48:12.147981
2879  2023-11-29 15:48:12.178942
2880  2023-11-29 15:48:12.210808
2881  2023-11-29 15:48:12.242723
2882  2023-11-29 15:48:12.290693
2883  2023-11-29 15:48:12.322685
2884  2023-11-29 15:48:12.354575
2885  2023-11-29 15:48:12.387477
2886  2023-11-29 15:48:12.418384
2887  2023-11-29 15:48:12.450479
2888  2023-11-29 15:48:12.482384
2889  2023-11-29 15:48:12.515302
2890  2023-11-29 15:48:12.547201
2891  2023-11-29 15:48:12.579135
2892  2023-11-29 15:48:12.611036
2893  2023-11-29 15:48:12.642920
2894  2023-11-29 15:48:12.690996
2895  2023-11-29 15:48:12.722910
2896  2023-11-29 15:48:12.754828
2897  2023-11-29 15:48:12.786813
2898  2023-11-29 15:48:12.818683
2899  2023-11-29 15:48:12.850615
2900  2023-11-29 15:48:12.882453
2901  2023-11-29 15:48:12.914400
2902  2023-11-29 15:48:12.946330
2903  2023-11-29 15:48:12.979242
2904  2023-11-29 15:48:13.011109
2905  2023-11-29 15:48:13.043076
2906  2023-11-29 15:48:13.090896
2907  2023-11-29 15:48:13.122883
2908  2023-11-29 15:48:13.154867
2909  2023-11-29 15:48:13.186801
2910  2023-11-29 15:48:13.218715
2911  2023-11-29 15:48:13.250578
2912  2023-11-29 15:48:13.282525
2913  2023-11-29 15:48:13.314442
2914  2023-11-29 15:48:13.346357
2915  2023-11-29 15:48:13.378399
2916  2023-11-29 15:48:13.410335
2917  2023-11-29 15:48:13.443257
2918  2023-11-29 15:48:13.491126
2919  2023-11-29 15:48:13.523068
2920  2023-11-29 15:48:13.555029
2921  2023-11-29 15:48:13.586686
2922  2023-11-29 15:48:13.618714
2923  2023-11-29 15:48:13.650640
2924  2023-11-29 15:48:13.682531
2925  2023-11-29 15:48:13.714440
2926  2023-11-29 15:48:13.746360
2927  2023-11-29 15:48:13.778239
2928  2023-11-29 15:48:13.811180
2929  2023-11-29 15:48:13.843064
2930  2023-11-29 15:48:13.890985
2931  2023-11-29 15:48:13.922850
2932  2023-11-29 15:48:13.954814
2933  2023-11-29 15:48:13.986754
2934  2023-11-29 15:48:14.018646
2935  2023-11-29 15:48:14.050552
2936  2023-11-29 15:48:14.082459
2937  2023-11-29 15:48:14.114372
2938  2023-11-29 15:48:14.146260
2939  2023-11-29 15:48:14.179203
2940  2023-11-29 15:48:14.211141
2941  2023-11-29 15:48:14.243178
2942  2023-11-29 15:48:14.291012
2943  2023-11-29 15:48:14.322937
2944  2023-11-29 15:48:14.354834
2945  2023-11-29 15:48:14.386751
2946  2023-11-29 15:48:14.418702
2947  2023-11-29 15:48:14.450629
2948  2023-11-29 15:48:14.482602
2949  2023-11-29 15:48:14.515523
2950  2023-11-29 15:48:14.546367
2951  2023-11-29 15:48:14.578327
2952  2023-11-29 15:48:14.610233
2953  2023-11-29 15:48:14.643107
2954  2023-11-29 15:48:14.691029
2955  2023-11-29 15:48:14.722941
2956  2023-11-29 15:48:14.754858
2957  2023-11-29 15:48:14.786807
2958  2023-11-29 15:48:14.818679
2959  2023-11-29 15:48:14.850599
2960  2023-11-29 15:48:14.882514
2961  2023-11-29 15:48:14.914428
2962  2023-11-29 15:48:14.946348
2963  2023-11-29 15:48:14.978246
2964  2023-11-29 15:48:15.011202
2965  2023-11-29 15:48:15.043035
2966  2023-11-29 15:48:15.090944
2967  2023-11-29 15:48:15.122889
2968  2023-11-29 15:48:15.154929
2969  2023-11-29 15:48:15.186797
2970  2023-11-29 15:48:15.218713
2971  2023-11-29 15:48:15.250626
2972  2023-11-29 15:48:15.282540
2973  2023-11-29 15:48:15.314567
2974  2023-11-29 15:48:15.346485
2975  2023-11-29 15:48:15.378400
2976  2023-11-29 15:48:15.411353
2977  2023-11-29 15:48:15.442235
2978  2023-11-29 15:48:15.491106
2979  2023-11-29 15:48:15.523056
2980  2023-11-29 15:48:15.555174
2981  2023-11-29 15:48:15.587095
2982  2023-11-29 15:48:15.619121
2983  2023-11-29 15:48:15.651133
2984  2023-11-29 15:48:15.683163
2985  2023-11-29 15:48:15.715082
2986  2023-11-29 15:48:15.747115
2987  2023-11-29 15:48:15.778994
2988  2023-11-29 15:48:15.810961
2989  2023-11-29 15:48:15.842874
2990  2023-11-29 15:48:15.890887
2991  2023-11-29 15:48:15.922801
2992  2023-11-29 15:48:15.954724
2993  2023-11-29 15:48:15.986616
2994  2023-11-29 15:48:16.018543
2995  2023-11-29 15:48:16.050452
2996  2023-11-29 15:48:16.082373
2997  2023-11-29 15:48:16.114286
2998  2023-11-29 15:48:16.146314
2999  2023-11-29 15:48:16.178301
3000  2023-11-29 15:48:16.211268
3001  2023-11-29 15:48:16.243137
3002  2023-11-29 15:48:16.291008
3003  2023-11-29 15:48:16.322918
3004  2023-11-29 15:48:16.354817
3005  2023-11-29 15:48:16.386747
3006  2023-11-29 15:48:16.418655
3007  2023-11-29 15:48:16.450596
3008  2023-11-29 15:48:16.482492
3009  2023-11-29 15:48:16.514403
3010  2023-11-29 15:48:16.546306
3011  2023-11-29 15:48:16.579235
3012  2023-11-29 15:48:16.611136
3013  2023-11-29 15:48:16.643041
3014  2023-11-29 15:48:16.690933
3015  2023-11-29 15:48:16.722826
3016  2023-11-29 15:48:16.754766
3017  2023-11-29 15:48:16.786658
3018  2023-11-29 15:48:16.818607
3019  2023-11-29 15:48:16.851458
3020  2023-11-29 15:48:16.883386
3021  2023-11-29 15:48:16.914320
3022  2023-11-29 15:48:16.946229
3023  2023-11-29 15:48:16.979146
3024  2023-11-29 15:48:17.011056
3025  2023-11-29 15:48:17.042977
3026  2023-11-29 15:48:17.090847
3027  2023-11-29 15:48:17.122781
3028  2023-11-29 15:48:17.154710
3029  2023-11-29 15:48:17.186588
3030  2023-11-29 15:48:17.218474
3031  2023-11-29 15:48:17.250449
3032  2023-11-29 15:48:17.282347
3033  2023-11-29 15:48:17.314225
3034  2023-11-29 15:48:17.347168
3035  2023-11-29 15:48:17.379097
3036  2023-11-29 15:48:17.410991
3037  2023-11-29 15:48:17.442926
3038  2023-11-29 15:48:17.490794
3039  2023-11-29 15:48:17.522693
3040  2023-11-29 15:48:17.554607
3041  2023-11-29 15:48:17.586522
3042  2023-11-29 15:48:17.618435
3043  2023-11-29 15:48:17.650351
3044  2023-11-29 15:48:17.682266
3045  2023-11-29 15:48:17.714180
3046  2023-11-29 15:48:17.747137
3047  2023-11-29 15:48:17.779055
3048  2023-11-29 15:48:17.811121
3049  2023-11-29 15:48:17.843021
3050  2023-11-29 15:48:17.891044
3051  2023-11-29 15:48:17.922940
3052  2023-11-29 15:48:17.954850
3053  2023-11-29 15:48:17.986754
3054  2023-11-29 15:48:18.018668
3055  2023-11-29 15:48:18.050609
3056  2023-11-29 15:48:18.082508
3057  2023-11-29 15:48:18.114412
3058  2023-11-29 15:48:18.146333
3059  2023-11-29 15:48:18.179207
3060  2023-11-29 15:48:18.211158
3061  2023-11-29 15:48:18.243090
3062  2023-11-29 15:48:18.290960
3063  2023-11-29 15:48:18.322862
3064  2023-11-29 15:48:18.354806
3065  2023-11-29 15:48:18.386689
3066  2023-11-29 15:48:18.418601
3067  2023-11-29 15:48:18.450516
3068  2023-11-29 15:48:18.482490
3069  2023-11-29 15:48:18.514409
3070  2023-11-29 15:48:18.546351
3071  2023-11-29 15:48:18.579266
3072  2023-11-29 15:48:18.611223
3073  2023-11-29 15:48:18.643127
3074  2023-11-29 15:48:18.691015
3075  2023-11-29 15:48:18.722920
3076  2023-11-29 15:48:18.754848
3077  2023-11-29 15:48:18.786710
3078  2023-11-29 15:48:18.818624
3079  2023-11-29 15:48:18.850608
3080  2023-11-29 15:48:18.882506
3081  2023-11-29 15:48:18.914401
3082  2023-11-29 15:48:18.946313
3083  2023-11-29 15:48:18.979200
3084  2023-11-29 15:48:19.011148
3085  2023-11-29 15:48:19.043074
3086  2023-11-29 15:48:19.090941
3087  2023-11-29 15:48:19.122860
3088  2023-11-29 15:48:19.154753
3089  2023-11-29 15:48:19.186640
3090  2023-11-29 15:48:19.218554
3091  2023-11-29 15:48:19.250505
3092  2023-11-29 15:48:19.282415
3093  2023-11-29 15:48:19.314344
3094  2023-11-29 15:48:19.347211
3095  2023-11-29 15:48:19.379125
3096  2023-11-29 15:48:19.411068
3097  2023-11-29 15:48:19.443004
3098  2023-11-29 15:48:19.490896
3099  2023-11-29 15:48:19.522812
3100  2023-11-29 15:48:19.554695
3101  2023-11-29 15:48:19.586573
3102  2023-11-29 15:48:19.618484
3103  2023-11-29 15:48:19.650445
3104  2023-11-29 15:48:19.683362
3105  2023-11-29 15:48:19.714260
3106  2023-11-29 15:48:19.747140
3107  2023-11-29 15:48:19.779055
3108  2023-11-29 15:48:19.810971
3109  2023-11-29 15:48:19.842942
3110  2023-11-29 15:48:19.890808
3111  2023-11-29 15:48:19.922730
3112  2023-11-29 15:48:19.954620
3113  2023-11-29 15:48:19.986500
3114  2023-11-29 15:48:20.018459
3115  2023-11-29 15:48:20.050377
3116  2023-11-29 15:48:20.082290
3117  2023-11-29 15:48:20.115155
3118  2023-11-29 15:48:20.147112
3119  2023-11-29 15:48:20.179010
3120  2023-11-29 15:48:20.210899
3121  2023-11-29 15:48:20.242863
3122  2023-11-29 15:48:20.290756
3123  2023-11-29 15:48:20.322567
3124  2023-11-29 15:48:20.354642
3125  2023-11-29 15:48:20.386512
3126  2023-11-29 15:48:20.418479
3127  2023-11-29 15:48:20.450424
3128  2023-11-29 15:48:20.482353
3129  2023-11-29 15:48:20.514277
3130  2023-11-29 15:48:20.547135
3131  2023-11-29 15:48:20.579049
3132  2023-11-29 15:48:20.611021
3133  2023-11-29 15:48:20.642927
3134  2023-11-29 15:48:20.690833
3135  2023-11-29 15:48:20.722727
3136  2023-11-29 15:48:20.754616
3137  2023-11-29 15:48:20.786530
3138  2023-11-29 15:48:20.818480
3139  2023-11-29 15:48:20.850445
3140  2023-11-29 15:48:20.882341
3141  2023-11-29 15:48:20.914259
3142  2023-11-29 15:48:20.947136
3143  2023-11-29 15:48:20.979055
3144  2023-11-29 15:48:21.010965
3145  2023-11-29 15:48:21.042880
3146  2023-11-29 15:48:21.090751
3147  2023-11-29 15:48:21.122715
3148  2023-11-29 15:48:21.154581
3149  2023-11-29 15:48:21.186532
3150  2023-11-29 15:48:21.219409
3151  2023-11-29 15:48:21.250324
3152  2023-11-29 15:48:21.282239
3153  2023-11-29 15:48:21.315152
3154  2023-11-29 15:48:21.347067
3155  2023-11-29 15:48:21.378980
3156  2023-11-29 15:48:21.410895
3157  2023-11-29 15:48:21.442810
3158  2023-11-29 15:48:21.490682
3159  2023-11-29 15:48:21.522605
3160  2023-11-29 15:48:21.554545
3161  2023-11-29 15:48:21.586426
3162  2023-11-29 15:48:21.618340
3163  2023-11-29 15:48:21.650289
3164  2023-11-29 15:48:21.682218
3165  2023-11-29 15:48:21.715081
3166  2023-11-29 15:48:21.746996
3167  2023-11-29 15:48:21.778910
3168  2023-11-29 15:48:21.810878
3169  2023-11-29 15:48:21.842739
3170  2023-11-29 15:48:21.890677
3171  2023-11-29 15:48:21.922526
3172  2023-11-29 15:48:21.954441
3173  2023-11-29 15:48:21.986355
3174  2023-11-29 15:48:22.018301
3175  2023-11-29 15:48:22.050184
3176  2023-11-29 15:48:22.083096
3177  2023-11-29 15:48:22.115011
3178  2023-11-29 15:48:22.146964
3179  2023-11-29 15:48:22.178840
3180  2023-11-29 15:48:22.210755
3181  2023-11-29 15:48:22.242771
3182  2023-11-29 15:48:22.290643
3183  2023-11-29 15:48:22.322634
3184  2023-11-29 15:48:22.354518
3185  2023-11-29 15:48:22.387004
3186  2023-11-29 15:48:22.418948
3187  2023-11-29 15:48:22.450893
3188  2023-11-29 15:48:22.482953
3189  2023-11-29 15:48:22.514867
3190  2023-11-29 15:48:22.546781
3191  2023-11-29 15:48:22.578696
3192  2023-11-29 15:48:22.610786
3193  2023-11-29 15:48:22.642700
3194  2023-11-29 15:48:22.690572
3195  2023-11-29 15:48:22.722487
3196  2023-11-29 15:48:22.754632
3197  2023-11-29 15:48:22.786655
3198  2023-11-29 15:48:22.818572
3199  2023-11-29 15:48:22.850570
3200  2023-11-29 15:48:22.882639
3201  2023-11-29 15:48:22.914554
3202  2023-11-29 15:48:22.946474
3203  2023-11-29 15:48:22.978383
3204  2023-11-29 15:48:23.011295
3205  2023-11-29 15:48:23.043210
3206  2023-11-29 15:48:23.091081
3207  2023-11-29 15:48:23.123107
3208  2023-11-29 15:48:23.155021
3209  2023-11-29 15:48:23.187051
3210  2023-11-29 15:48:23.218957
3211  2023-11-29 15:48:23.250872
3212  2023-11-29 15:48:23.282787
3213  2023-11-29 15:48:23.314701
3214  2023-11-29 15:48:23.347668
3215  2023-11-29 15:48:23.378530
3216  2023-11-29 15:48:23.411443
3217  2023-11-29 15:48:23.442550
3218  2023-11-29 15:48:23.490421
3219  2023-11-29 15:48:23.522423
3220  2023-11-29 15:48:23.554337
3221  2023-11-29 15:48:23.586251
3222  2023-11-29 15:48:23.619163
3223  2023-11-29 15:48:23.650162
3224  2023-11-29 15:48:23.683124
3225  2023-11-29 15:48:23.715085
3226  2023-11-29 15:48:23.747001
3227  2023-11-29 15:48:23.778914
3228  2023-11-29 15:48:23.810879
3229  2023-11-29 15:48:23.842743
3230  2023-11-29 15:48:23.890675
3231  2023-11-29 15:48:23.922544
3232  2023-11-29 15:48:23.954444
3233  2023-11-29 15:48:23.986359
3234  2023-11-29 15:48:24.018324
3235  2023-11-29 15:48:24.050247
3236  2023-11-29 15:48:24.082239
3237  2023-11-29 15:48:24.115120
3238  2023-11-29 15:48:24.147131
3239  2023-11-29 15:48:24.179052
3240  2023-11-29 15:48:24.210916
3241  2023-11-29 15:48:24.242830
3242  2023-11-29 15:48:24.290702
3243  2023-11-29 15:48:24.322617
3244  2023-11-29 15:48:24.354583
3245  2023-11-29 15:48:24.386446
3246  2023-11-29 15:48:24.418360
3247  2023-11-29 15:48:24.450426
3248  2023-11-29 15:48:24.482378
3249  2023-11-29 15:48:24.514288
3250  2023-11-29 15:48:24.547167
3251  2023-11-29 15:48:24.579082
3252  2023-11-29 15:48:24.611031
3253  2023-11-29 15:48:24.642953
3254  2023-11-29 15:48:24.690833
3255  2023-11-29 15:48:24.722726
3256  2023-11-29 15:48:24.754641
3257  2023-11-29 15:48:24.786586
3258  2023-11-29 15:48:24.818541
3259  2023-11-29 15:48:24.850449
3260  2023-11-29 15:48:24.882330
3261  2023-11-29 15:48:24.914245
3262  2023-11-29 15:48:24.947157
3263  2023-11-29 15:48:24.979113
3264  2023-11-29 15:48:25.010986
3265  2023-11-29 15:48:25.042901
3266  2023-11-29 15:48:25.090773
3267  2023-11-29 15:48:25.122687
3268  2023-11-29 15:48:25.154652
3269  2023-11-29 15:48:25.186628
3270  2023-11-29 15:48:25.218548
3271  2023-11-29 15:48:25.250463
3272  2023-11-29 15:48:25.282378
3273  2023-11-29 15:48:25.314293
3274  2023-11-29 15:48:25.347205
3275  2023-11-29 15:48:25.379121
3276  2023-11-29 15:48:25.411034
3277  2023-11-29 15:48:25.442949
3278  2023-11-29 15:48:25.490820
3279  2023-11-29 15:48:25.522735
3280  2023-11-29 15:48:25.554650
3281  2023-11-29 15:48:25.586564
3282  2023-11-29 15:48:25.618479
3283  2023-11-29 15:48:25.650441
3284  2023-11-29 15:48:25.682308
3285  2023-11-29 15:48:25.714223
3286  2023-11-29 15:48:25.747135
3287  2023-11-29 15:48:25.779049
3288  2023-11-29 15:48:25.810964
3289  2023-11-29 15:48:25.842879
3290  2023-11-29 15:48:25.890822
3291  2023-11-29 15:48:25.922737
3292  2023-11-29 15:48:25.954826
3293  2023-11-29 15:48:25.986740
3294  2023-11-29 15:48:26.018655
3295  2023-11-29 15:48:26.050569
3296  2023-11-29 15:48:26.082484
3297  2023-11-29 15:48:26.114399
3298  2023-11-29 15:48:26.147311
3299  2023-11-29 15:48:26.179225
3300  2023-11-29 15:48:26.211140
3301  2023-11-29 15:48:26.243054
3302  2023-11-29 15:48:26.290926
3303  2023-11-29 15:48:26.322841
3304  2023-11-29 15:48:26.354756
3305  2023-11-29 15:48:26.386670
3306  2023-11-29 15:48:26.418585
3307  2023-11-29 15:48:26.450606
3308  2023-11-29 15:48:26.482575
3309  2023-11-29 15:48:26.514526
3310  2023-11-29 15:48:26.547433
3311  2023-11-29 15:48:26.578350
3312  2023-11-29 15:48:26.610265
3313  2023-11-29 15:48:26.643177
3314  2023-11-29 15:48:26.691059
3315  2023-11-29 15:48:26.722963
3316  2023-11-29 15:48:26.754878
3317  2023-11-29 15:48:26.786792
3318  2023-11-29 15:48:26.818707
3319  2023-11-29 15:48:26.850622
3320  2023-11-29 15:48:26.883534
3321  2023-11-29 15:48:26.914451
3322  2023-11-29 15:48:26.947374
3323  2023-11-29 15:48:26.979279
3324  2023-11-29 15:48:27.011250
3325  2023-11-29 15:48:27.042359
3326  2023-11-29 15:48:27.091229
3327  2023-11-29 15:48:27.123143
3328  2023-11-29 15:48:27.155058
3329  2023-11-29 15:48:27.187023
3330  2023-11-29 15:48:27.218948
3331  2023-11-29 15:48:27.250871
3332  2023-11-29 15:48:27.282827
3333  2023-11-29 15:48:27.314774
3334  2023-11-29 15:48:27.346699
3335  2023-11-29 15:48:27.378571
3336  2023-11-29 15:48:27.411483
3337  2023-11-29 15:48:27.443399
3338  2023-11-29 15:48:27.490272
3339  2023-11-29 15:48:27.522236
3340  2023-11-29 15:48:27.555156
3341  2023-11-29 15:48:27.587019
3342  2023-11-29 15:48:27.618933
3343  2023-11-29 15:48:27.650880
3344  2023-11-29 15:48:27.682795
3345  2023-11-29 15:48:27.714677
3346  2023-11-29 15:48:27.747594
3347  2023-11-29 15:48:27.778506
3348  2023-11-29 15:48:27.810470
3349  2023-11-29 15:48:27.843333
3350  2023-11-29 15:48:27.890252
3351  2023-11-29 15:48:27.922226
3352  2023-11-29 15:48:27.955138
3353  2023-11-29 15:48:27.987225
3354  2023-11-29 15:48:28.018213
3355  2023-11-29 15:48:28.051170
3356  2023-11-29 15:48:28.083085
3357  2023-11-29 15:48:28.115074
3358  2023-11-29 15:48:28.148139
3359  2023-11-29 15:48:28.180069
3360  2023-11-29 15:48:28.210938
3361  2023-11-29 15:48:28.244874
3362  2023-11-29 15:48:28.291755
3363  2023-11-29 15:48:28.323670
3364  2023-11-29 15:48:28.356610
3365  2023-11-29 15:48:28.387499
3366  2023-11-29 15:48:28.418471
3367  2023-11-29 15:48:28.452416
3368  2023-11-29 15:48:28.484380
3369  2023-11-29 15:48:28.516367
3370  2023-11-29 15:48:28.548297
3371  2023-11-29 15:48:28.580204
3372  2023-11-29 15:48:28.612107
3373  2023-11-29 15:48:28.644043
3374  2023-11-29 15:48:28.691894
3375  2023-11-29 15:48:28.723821
3376  2023-11-29 15:48:28.755744
3377  2023-11-29 15:48:28.787654
3378  2023-11-29 15:48:28.819555
3379  2023-11-29 15:48:28.851478
3380  2023-11-29 15:48:28.884349
3381  2023-11-29 15:48:28.916264
3382  2023-11-29 15:48:28.948212
3383  2023-11-29 15:48:28.980127
3384  2023-11-29 15:48:29.012013
3385  2023-11-29 15:48:29.043966
3386  2023-11-29 15:48:29.091977
3387  2023-11-29 15:48:29.123897
3388  2023-11-29 15:48:29.155810
3389  2023-11-29 15:48:29.187741
3390  2023-11-29 15:48:29.220741
3391  2023-11-29 15:48:29.251715
3392  2023-11-29 15:48:29.283742
3393  2023-11-29 15:48:29.316662
3394  2023-11-29 15:48:29.348600
3395  2023-11-29 15:48:29.379471
3396  2023-11-29 15:48:29.411521
3397  2023-11-29 15:48:29.443427
3398  2023-11-29 15:48:29.491483
3399  2023-11-29 15:48:29.523381
3400  2023-11-29 15:48:29.555301
3401  2023-11-29 15:48:29.587211
3402  2023-11-29 15:48:29.619145
3403  2023-11-29 15:48:29.651038
3404  2023-11-29 15:48:29.683969
3405  2023-11-29 15:48:29.714907
3406  2023-11-29 15:48:29.747749
3407  2023-11-29 15:48:29.778763
3408  2023-11-29 15:48:29.810814
3409  2023-11-29 15:48:29.842728
3410  2023-11-29 15:48:29.890598
3411  2023-11-29 15:48:29.922509
3412  2023-11-29 15:48:29.955422
3413  2023-11-29 15:48:29.987343
3414  2023-11-29 15:48:30.019246
3415  2023-11-29 15:48:30.051160
3416  2023-11-29 15:48:30.083340
3417  2023-11-29 15:48:30.114326
3418  2023-11-29 15:48:30.147235
3419  2023-11-29 15:48:30.179173
3420  2023-11-29 15:48:30.211055
3421  2023-11-29 15:48:30.243003
3422  2023-11-29 15:48:30.290860
3423  2023-11-29 15:48:30.322946
3424  2023-11-29 15:48:30.354877
3425  2023-11-29 15:48:30.386788
3426  2023-11-29 15:48:30.418775
3427  2023-11-29 15:48:30.450708
3428  2023-11-29 15:48:30.482605
3429  2023-11-29 15:48:30.514509
3430  2023-11-29 15:48:30.547390
3431  2023-11-29 15:48:30.580349
3432  2023-11-29 15:48:30.611264
3433  2023-11-29 15:48:30.643133
3434  2023-11-29 15:48:30.691059
3435  2023-11-29 15:48:30.722952
3436  2023-11-29 15:48:30.754892
3437  2023-11-29 15:48:30.786792
3438  2023-11-29 15:48:30.818697
3439  2023-11-29 15:48:30.850627
3440  2023-11-29 15:48:30.882572
3441  2023-11-29 15:48:30.916569
3442  2023-11-29 15:48:30.948483
3443  2023-11-29 15:48:30.980455
3444  2023-11-29 15:48:31.010392
3445  2023-11-29 15:48:31.043252
3446  2023-11-29 15:48:31.091125
3447  2023-11-29 15:48:31.123039
3448  2023-11-29 15:48:31.155981
3449  2023-11-29 15:48:31.187895
3450  2023-11-29 15:48:31.219829
3451  2023-11-29 15:48:31.250738
3452  2023-11-29 15:48:31.282612
3453  2023-11-29 15:48:31.315558
3454  2023-11-29 15:48:31.347480
3455  2023-11-29 15:48:31.380386
3456  2023-11-29 15:48:31.410337
3457  2023-11-29 15:48:31.443252
3458  2023-11-29 15:48:31.491123
3459  2023-11-29 15:48:31.523130
3460  2023-11-29 15:48:31.556026
3461  2023-11-29 15:48:31.587941
3462  2023-11-29 15:48:31.619871
3463  2023-11-29 15:48:31.650770
3464  2023-11-29 15:48:31.682730
3465  2023-11-29 15:48:31.715620
3466  2023-11-29 15:48:31.747530
3467  2023-11-29 15:48:31.779456
3468  2023-11-29 15:48:31.811310
3469  2023-11-29 15:48:31.842228
3470  2023-11-29 15:48:31.891131
3471  2023-11-29 15:48:31.923061
3472  2023-11-29 15:48:31.955057
3473  2023-11-29 15:48:31.987979
3474  2023-11-29 15:48:32.019876
3475  2023-11-29 15:48:32.050793
3476  2023-11-29 15:48:32.082677
3477  2023-11-29 15:48:32.115802
3478  2023-11-29 15:48:32.147699
3479  2023-11-29 15:48:32.179608
3480  2023-11-29 15:48:32.211526
3481  2023-11-29 15:48:32.242408
3482  2023-11-29 15:48:32.290446
3483  2023-11-29 15:48:32.322350
3484  2023-11-29 15:48:32.355273
3485  2023-11-29 15:48:32.388202
3486  2023-11-29 15:48:32.419115
3487  2023-11-29 15:48:32.451002
3488  2023-11-29 15:48:32.482885
3489  2023-11-29 15:48:32.515843
3490  2023-11-29 15:48:32.546716
3491  2023-11-29 15:48:32.578705
3492  2023-11-29 15:48:32.611590
3493  2023-11-29 15:48:32.642493
3494  2023-11-29 15:48:32.690361
3495  2023-11-29 15:48:32.722279
3496  2023-11-29 15:48:32.755214
3497  2023-11-29 15:48:32.787125
3498  2023-11-29 15:48:32.819020
3499  2023-11-29 15:48:32.850960
3500  2023-11-29 15:48:32.882816
3501  2023-11-29 15:48:32.914781
3502  2023-11-29 15:48:32.946728
3503  2023-11-29 15:48:32.978625
3504  2023-11-29 15:48:33.011504
3505  2023-11-29 15:48:33.043387
3506  2023-11-29 15:48:33.090286
3507  2023-11-29 15:48:33.122267
3508  2023-11-29 15:48:33.154245
3509  2023-11-29 15:48:33.186253
3510  2023-11-29 15:48:33.219221
3511  2023-11-29 15:48:33.251181
3512  2023-11-29 15:48:33.283147
3513  2023-11-29 15:48:33.315040
3514  2023-11-29 15:48:33.346980
3515  2023-11-29 15:48:33.378867
3516  2023-11-29 15:48:33.410802
3517  2023-11-29 15:48:33.442707
3518  2023-11-29 15:48:33.490615
3519  2023-11-29 15:48:33.522516
3520  2023-11-29 15:48:33.554407
3521  2023-11-29 15:48:33.586318
3522  2023-11-29 15:48:33.618230
3523  2023-11-29 15:48:33.651167
3524  2023-11-29 15:48:33.683057
3525  2023-11-29 15:48:33.714938
3526  2023-11-29 15:48:33.746904
3527  2023-11-29 15:48:33.778825
3528  2023-11-29 15:48:33.810731
3529  2023-11-29 15:48:33.842600
3530  2023-11-29 15:48:33.890511
3531  2023-11-29 15:48:33.922417
3532  2023-11-29 15:48:33.954331
3533  2023-11-29 15:48:33.986247
3534  2023-11-29 15:48:34.018161
3535  2023-11-29 15:48:34.051077
3536  2023-11-29 15:48:34.082953
3537  2023-11-29 15:48:34.114902
3538  2023-11-29 15:48:34.146784
3539  2023-11-29 15:48:34.178755
3540  2023-11-29 15:48:34.210657
3541  2023-11-29 15:48:34.242558
3542  2023-11-29 15:48:34.290542
3543  2023-11-29 15:48:34.322474
3544  2023-11-29 15:48:34.354368
3545  2023-11-29 15:48:34.386284
3546  2023-11-29 15:48:34.419191
3547  2023-11-29 15:48:34.451130
3548  2023-11-29 15:48:34.483043
3549  2023-11-29 15:48:34.514909
3550  2023-11-29 15:48:34.546870
3551  2023-11-29 15:48:34.578787
3552  2023-11-29 15:48:34.610690
3553  2023-11-29 15:48:34.642631
3554  2023-11-29 15:48:34.690474
3555  2023-11-29 15:48:34.722384
3556  2023-11-29 15:48:34.754374
3557  2023-11-29 15:48:34.786288
3558  2023-11-29 15:48:34.819197
3559  2023-11-29 15:48:34.851127
3560  2023-11-29 15:48:34.882997
3561  2023-11-29 15:48:34.914944
