
1  2023-11-01 11:11:10.734493
2  2023-11-01 11:11:10.766437
3  2023-11-01 11:11:10.814313
4  2023-11-01 11:11:10.862350
5  2023-11-01 11:11:10.894265
6  2023-11-01 11:11:10.942169
7  2023-11-01 11:11:10.974081
8  2023-11-01 11:11:11.021924
9  2023-11-01 11:11:11.069797
10  2023-11-01 11:11:11.101792
11  2023-11-01 11:11:11.149710
12  2023-11-01 11:11:11.197582
13  2023-11-01 11:11:11.227532
14  2023-11-01 11:11:11.275410
15  2023-11-01 11:11:11.307299
16  2023-11-01 11:11:11.355190
17  2023-11-01 11:11:11.403063
18  2023-11-01 11:11:11.434948
19  2023-11-01 11:11:11.479873
20  2023-11-01 11:11:11.526738
21  2023-11-01 11:11:11.572699
22  2023-11-01 11:11:11.604546
23  2023-11-01 11:11:11.652367
24  2023-11-01 11:11:11.683284
25  2023-11-01 11:11:11.729202
26  2023-11-01 11:11:11.775201
27  2023-11-01 11:11:11.822075
28  2023-11-01 11:11:11.853991
29  2023-11-01 11:11:11.901862
30  2023-11-01 11:11:11.933778
31  2023-11-01 11:11:11.980651
32  2023-11-01 11:11:12.026529
33  2023-11-01 11:11:12.057446
34  2023-11-01 11:11:12.103001
35  2023-11-01 11:11:12.150865
36  2023-11-01 11:11:12.182798
37  2023-11-01 11:11:12.230636
38  2023-11-01 11:11:12.277480
39  2023-11-01 11:11:12.309435
40  2023-11-01 11:11:12.357315
41  2023-11-01 11:11:12.404869
42  2023-11-01 11:11:12.436856
43  2023-11-01 11:11:12.484735
44  2023-11-01 11:11:12.516612
45  2023-11-01 11:11:12.564517
46  2023-11-01 11:11:12.612502
47  2023-11-01 11:11:12.644399
48  2023-11-01 11:11:12.692257
49  2023-11-01 11:11:12.724137
50  2023-11-01 11:11:12.772042
51  2023-11-01 11:11:12.819770
52  2023-11-01 11:11:12.851591
53  2023-11-01 11:11:12.899525
54  2023-11-01 11:11:12.946365
55  2023-11-01 11:11:12.978321
56  2023-11-01 11:11:13.026122
57  2023-11-01 11:11:13.072000
58  2023-11-01 11:11:13.103971
59  2023-11-01 11:11:13.151972
60  2023-11-01 11:11:13.182851
61  2023-11-01 11:11:13.229726
62  2023-11-01 11:11:13.277598
63  2023-11-01 11:11:13.309513
64  2023-11-01 11:11:13.357440
65  2023-11-01 11:11:13.403347
66  2023-11-01 11:11:13.435264
67  2023-11-01 11:11:13.482066
68  2023-11-01 11:11:13.529938
69  2023-11-01 11:11:13.561853
70  2023-11-01 11:11:13.609724
71  2023-11-01 11:11:13.641809
72  2023-11-01 11:11:13.687763
73  2023-11-01 11:11:13.735787
74  2023-11-01 11:11:13.767674
75  2023-11-01 11:11:13.815573
76  2023-11-01 11:11:13.863430
77  2023-11-01 11:11:13.895348
78  2023-11-01 11:11:13.943238
79  2023-11-01 11:11:13.975130
80  2023-11-01 11:11:14.021044
81  2023-11-01 11:11:14.068921
82  2023-11-01 11:11:14.100836
83  2023-11-01 11:11:14.148661
84  2023-11-01 11:11:14.196571
85  2023-11-01 11:11:14.228489
86  2023-11-01 11:11:14.276366
87  2023-11-01 11:11:14.308287
88  2023-11-01 11:11:14.356260
89  2023-11-01 11:11:14.403183
90  2023-11-01 11:11:14.434155
91  2023-11-01 11:11:14.482023
92  2023-11-01 11:11:14.529883
93  2023-11-01 11:11:14.560813
94  2023-11-01 11:11:14.608690
95  2023-11-01 11:11:14.640589
96  2023-11-01 11:11:14.688429
97  2023-11-01 11:11:14.736330
98  2023-11-01 11:11:14.768253
99  2023-11-01 11:11:14.816088
100  2023-11-01 11:11:14.863961
101  2023-11-01 11:11:14.895876
102  2023-11-01 11:11:14.942749
103  2023-11-01 11:11:14.973766
104  2023-11-01 11:11:15.020640
105  2023-11-01 11:11:15.067512
106  2023-11-01 11:11:15.113365
107  2023-11-01 11:11:15.145306
108  2023-11-01 11:11:15.191196
109  2023-11-01 11:11:15.238032
110  2023-11-01 11:11:15.269947
111  2023-11-01 11:11:15.317852
112  2023-11-01 11:11:15.348769
113  2023-11-01 11:11:15.395610
114  2023-11-01 11:11:15.443542
115  2023-11-01 11:11:15.475453
116  2023-11-01 11:11:15.523326
117  2023-11-01 11:11:15.571198
118  2023-11-01 11:11:15.603113
119  2023-11-01 11:11:15.651016
120  2023-11-01 11:11:15.682899
121  2023-11-01 11:11:15.730771
122  2023-11-01 11:11:15.778675
123  2023-11-01 11:11:15.810558
124  2023-11-01 11:11:15.857464
125  2023-11-01 11:11:15.904308
126  2023-11-01 11:11:15.936223
127  2023-11-01 11:11:15.983097
128  2023-11-01 11:11:16.029971
129  2023-11-01 11:11:16.061895
130  2023-11-01 11:11:16.109802
131  2023-11-01 11:11:16.141673
132  2023-11-01 11:11:16.189556
133  2023-11-01 11:11:16.237417
134  2023-11-01 11:11:16.269333
135  2023-11-01 11:11:16.317203
136  2023-11-01 11:11:16.349152
137  2023-11-01 11:11:16.397023
138  2023-11-01 11:11:16.444897
139  2023-11-01 11:11:16.476808
140  2023-11-01 11:11:16.524700
141  2023-11-01 11:11:16.572553
142  2023-11-01 11:11:16.604471
143  2023-11-01 11:11:16.651347
144  2023-11-01 11:11:16.682254
145  2023-11-01 11:11:16.730131
146  2023-11-01 11:11:16.778003
147  2023-11-01 11:11:16.809917
148  2023-11-01 11:11:16.857788
149  2023-11-01 11:11:16.905829
150  2023-11-01 11:11:16.937575
151  2023-11-01 11:11:16.985450
152  2023-11-01 11:11:17.017367
153  2023-11-01 11:11:17.065297
154  2023-11-01 11:11:17.113154
155  2023-11-01 11:11:17.145066
156  2023-11-01 11:11:17.192938
157  2023-11-01 11:11:17.223864
158  2023-11-01 11:11:17.270703
159  2023-11-01 11:11:17.318609
160  2023-11-01 11:11:17.350486
161  2023-11-01 11:11:17.398393
162  2023-11-01 11:11:17.446305
163  2023-11-01 11:11:17.478216
164  2023-11-01 11:11:17.526109
165  2023-11-01 11:11:17.558024
166  2023-11-01 11:11:17.605942
167  2023-11-01 11:11:17.653768
168  2023-11-01 11:11:17.685639
169  2023-11-01 11:11:17.733542
170  2023-11-01 11:11:17.765592
171  2023-11-01 11:11:17.813340
172  2023-11-01 11:11:17.861312
173  2023-11-01 11:11:17.893225
174  2023-11-01 11:11:17.941185
175  2023-11-01 11:11:17.989025
176  2023-11-01 11:11:18.020028
177  2023-11-01 11:11:18.065953
178  2023-11-01 11:11:18.112826
179  2023-11-01 11:11:18.143737
180  2023-11-01 11:11:18.190607
181  2023-11-01 11:11:18.237449
182  2023-11-01 11:11:18.269363
183  2023-11-01 11:11:18.317286
184  2023-11-01 11:11:18.349183
185  2023-11-01 11:11:18.397021
186  2023-11-01 11:11:18.444893
187  2023-11-01 11:11:18.476861
188  2023-11-01 11:11:18.524734
189  2023-11-01 11:11:18.572641
190  2023-11-01 11:11:18.604509
191  2023-11-01 11:11:18.652483
192  2023-11-01 11:11:18.684397
193  2023-11-01 11:11:18.732270
194  2023-11-01 11:11:18.780147
195  2023-11-01 11:11:18.811059
196  2023-11-01 11:11:18.858054
197  2023-11-01 11:11:18.905926
198  2023-11-01 11:11:18.937840
199  2023-11-01 11:11:18.985712
200  2023-11-01 11:11:19.017627
201  2023-11-01 11:11:19.063505
202  2023-11-01 11:11:19.111377
203  2023-11-01 11:11:19.143085
204  2023-11-01 11:11:19.190974
205  2023-11-01 11:11:19.238846
206  2023-11-01 11:11:19.270794
207  2023-11-01 11:11:19.318632
208  2023-11-01 11:11:19.350547
209  2023-11-01 11:11:19.398419
210  2023-11-01 11:11:19.446489
211  2023-11-01 11:11:19.478404
212  2023-11-01 11:11:19.524281
213  2023-11-01 11:11:19.570206
214  2023-11-01 11:11:19.602109
215  2023-11-01 11:11:19.649945
216  2023-11-01 11:11:19.696862
217  2023-11-01 11:11:19.727738
218  2023-11-01 11:11:19.775731
219  2023-11-01 11:11:19.807657
220  2023-11-01 11:11:19.855552
221  2023-11-01 11:11:19.903389
222  2023-11-01 11:11:19.936309
223  2023-11-01 11:11:19.981223
224  2023-11-01 11:11:20.029321
225  2023-11-01 11:11:20.061319
226  2023-11-01 11:11:20.109195
227  2023-11-01 11:11:20.141119
228  2023-11-01 11:11:20.189007
229  2023-11-01 11:11:20.236919
230  2023-11-01 11:11:20.268732
231  2023-11-01 11:11:20.316645
232  2023-11-01 11:11:20.363479
233  2023-11-01 11:11:20.394396
234  2023-11-01 11:11:20.442268
235  2023-11-01 11:11:20.474183
236  2023-11-01 11:11:20.520060
237  2023-11-01 11:11:20.567102
238  2023-11-01 11:11:20.613902
239  2023-11-01 11:11:20.645816
240  2023-11-01 11:11:20.693690
241  2023-11-01 11:11:20.725662
242  2023-11-01 11:11:20.773577
243  2023-11-01 11:11:20.821406
244  2023-11-01 11:11:20.853321
245  2023-11-01 11:11:20.901249
246  2023-11-01 11:11:20.933223
247  2023-11-01 11:11:20.981067
248  2023-11-01 11:11:21.028939
249  2023-11-01 11:11:21.060853
250  2023-11-01 11:11:21.106794
251  2023-11-01 11:11:21.154636
252  2023-11-01 11:11:21.185585
253  2023-11-01 11:11:21.232463
254  2023-11-01 11:11:21.280348
255  2023-11-01 11:11:21.312247
256  2023-11-01 11:11:21.359089
257  2023-11-01 11:11:21.391060
258  2023-11-01 11:11:21.438911
259  2023-11-01 11:11:21.486779
260  2023-11-01 11:11:21.518733
261  2023-11-01 11:11:21.566472
262  2023-11-01 11:11:21.612359
263  2023-11-01 11:11:21.644223
264  2023-11-01 11:11:21.691099
265  2023-11-01 11:11:21.738977
266  2023-11-01 11:11:21.770885
267  2023-11-01 11:11:21.817759
268  2023-11-01 11:11:21.849674
269  2023-11-01 11:11:21.897546
270  2023-11-01 11:11:21.945418
271  2023-11-01 11:11:21.977332
272  2023-11-01 11:11:22.025204
273  2023-11-01 11:11:22.057119
274  2023-11-01 11:11:22.104991
275  2023-11-01 11:11:22.152863
276  2023-11-01 11:11:22.183781
277  2023-11-01 11:11:22.230656
278  2023-11-01 11:11:22.278528
279  2023-11-01 11:11:22.310474
280  2023-11-01 11:11:22.356591
281  2023-11-01 11:11:22.404466
282  2023-11-01 11:11:22.436377
283  2023-11-01 11:11:22.484201
284  2023-11-01 11:11:22.516116
285  2023-11-01 11:11:22.563254
286  2023-11-01 11:11:22.610289
287  2023-11-01 11:11:22.642340
288  2023-11-01 11:11:22.690163
289  2023-11-01 11:11:22.738066
290  2023-11-01 11:11:22.769998
291  2023-11-01 11:11:22.817822
292  2023-11-01 11:11:22.849736
293  2023-11-01 11:11:22.896650
294  2023-11-01 11:11:22.943523
295  2023-11-01 11:11:22.975411
296  2023-11-01 11:11:23.021336
297  2023-11-01 11:11:23.067243
298  2023-11-01 11:11:23.099129
299  2023-11-01 11:11:23.147013
300  2023-11-01 11:11:23.194873
301  2023-11-01 11:11:23.226787
302  2023-11-01 11:11:23.274689
303  2023-11-01 11:11:23.322532
304  2023-11-01 11:11:23.354562
305  2023-11-01 11:11:23.402564
306  2023-11-01 11:11:23.434426
307  2023-11-01 11:11:23.482338
308  2023-11-01 11:11:23.530170
309  2023-11-01 11:11:23.561087
310  2023-11-01 11:11:23.606964
311  2023-11-01 11:11:23.653839
312  2023-11-01 11:11:23.685754
313  2023-11-01 11:11:23.732674
314  2023-11-01 11:11:23.779539
315  2023-11-01 11:11:23.811314
316  2023-11-01 11:11:23.859184
317  2023-11-01 11:11:23.891174
318  2023-11-01 11:11:23.939178
319  2023-11-01 11:11:23.986918
320  2023-11-01 11:11:24.018937
321  2023-11-01 11:11:24.066895
322  2023-11-01 11:11:24.098828
323  2023-11-01 11:11:24.146637
324  2023-11-01 11:11:24.194554
325  2023-11-01 11:11:24.226468
326  2023-11-01 11:11:24.273330
327  2023-11-01 11:11:24.320171
328  2023-11-01 11:11:24.352086
329  2023-11-01 11:11:24.399960
330  2023-11-01 11:11:24.446880
331  2023-11-01 11:11:24.478782
332  2023-11-01 11:11:24.527661
333  2023-11-01 11:11:24.558535
334  2023-11-01 11:11:24.607434
335  2023-11-01 11:11:24.652349
336  2023-11-01 11:11:24.684311
337  2023-11-01 11:11:24.732336
338  2023-11-01 11:11:24.780180
339  2023-11-01 11:11:24.812222
340  2023-11-01 11:11:24.859103
341  2023-11-01 11:11:24.891016
342  2023-11-01 11:11:24.938885
343  2023-11-01 11:11:24.986747
344  2023-11-01 11:11:25.018682
345  2023-11-01 11:11:25.066746
346  2023-11-01 11:11:25.113619
347  2023-11-01 11:11:25.145531
348  2023-11-01 11:11:25.193372
349  2023-11-01 11:11:25.225286
350  2023-11-01 11:11:25.273193
351  2023-11-01 11:11:25.319035
352  2023-11-01 11:11:25.350950
353  2023-11-01 11:11:25.398938
354  2023-11-01 11:11:25.446949
355  2023-11-01 11:11:25.478864
356  2023-11-01 11:11:25.525739
357  2023-11-01 11:11:25.557653
358  2023-11-01 11:11:25.605557
359  2023-11-01 11:11:25.653397
360  2023-11-01 11:11:25.684315
361  2023-11-01 11:11:25.731223
362  2023-11-01 11:11:25.779095
363  2023-11-01 11:11:25.811021
364  2023-11-01 11:11:25.858886
365  2023-11-01 11:11:25.890865
366  2023-11-01 11:11:25.938776
367  2023-11-01 11:11:25.986609
368  2023-11-01 11:11:26.018524
369  2023-11-01 11:11:26.064435
370  2023-11-01 11:11:26.112307
371  2023-11-01 11:11:26.144237
372  2023-11-01 11:11:26.192109
373  2023-11-01 11:11:26.224007
374  2023-11-01 11:11:26.271863
375  2023-11-01 11:11:26.318755
376  2023-11-01 11:11:26.349677
377  2023-11-01 11:11:26.397513
378  2023-11-01 11:11:26.445635
379  2023-11-01 11:11:26.477331
380  2023-11-01 11:11:26.524332
381  2023-11-01 11:11:26.571192
382  2023-11-01 11:11:26.603116
383  2023-11-01 11:11:26.651000
384  2023-11-01 11:11:26.696829
385  2023-11-01 11:11:26.728740
386  2023-11-01 11:11:26.775744
387  2023-11-01 11:11:26.821661
388  2023-11-01 11:11:26.851581
389  2023-11-01 11:11:26.898456
390  2023-11-01 11:11:26.946361
391  2023-11-01 11:11:26.978275
392  2023-11-01 11:11:27.024168
393  2023-11-01 11:11:27.072177
394  2023-11-01 11:11:27.103909
395  2023-11-01 11:11:27.150781
396  2023-11-01 11:11:27.196699
397  2023-11-01 11:11:27.227624
398  2023-11-01 11:11:27.275448
399  2023-11-01 11:11:27.307398
400  2023-11-01 11:11:27.355268
401  2023-11-01 11:11:27.403140
402  2023-11-01 11:11:27.435022
403  2023-11-01 11:11:27.483044
404  2023-11-01 11:11:27.530921
405  2023-11-01 11:11:27.562843
406  2023-11-01 11:11:27.610719
407  2023-11-01 11:11:27.642620
408  2023-11-01 11:11:27.690460
409  2023-11-01 11:11:27.738364
410  2023-11-01 11:11:27.770281
411  2023-11-01 11:11:27.818390
412  2023-11-01 11:11:27.850064
413  2023-11-01 11:11:27.897958
414  2023-11-01 11:11:27.945809
415  2023-11-01 11:11:27.976746
416  2023-11-01 11:11:28.024567
417  2023-11-01 11:11:28.072678
418  2023-11-01 11:11:28.104492
419  2023-11-01 11:11:28.151339
420  2023-11-01 11:11:28.183254
421  2023-11-01 11:11:28.231329
422  2023-11-01 11:11:28.279352
423  2023-11-01 11:11:28.310302
424  2023-11-01 11:11:28.357182
425  2023-11-01 11:11:28.405092
426  2023-11-01 11:11:28.437014
427  2023-11-01 11:11:28.484841
428  2023-11-01 11:11:28.516786
429  2023-11-01 11:11:28.564658
430  2023-11-01 11:11:28.612530
431  2023-11-01 11:11:28.644452
432  2023-11-01 11:11:28.692286
433  2023-11-01 11:11:28.724201
434  2023-11-01 11:11:28.772126
435  2023-11-01 11:11:28.819945
436  2023-11-01 11:11:28.851860
437  2023-11-01 11:11:28.899764
438  2023-11-01 11:11:28.947604
439  2023-11-01 11:11:28.979554
440  2023-11-01 11:11:29.027391
441  2023-11-01 11:11:29.059339
442  2023-11-01 11:11:29.107213
443  2023-11-01 11:11:29.155050
444  2023-11-01 11:11:29.187042
445  2023-11-01 11:11:29.233886
446  2023-11-01 11:11:29.265799
447  2023-11-01 11:11:29.313656
448  2023-11-01 11:11:29.361525
449  2023-11-01 11:11:29.392451
450  2023-11-01 11:11:29.440321
451  2023-11-01 11:11:29.486165
452  2023-11-01 11:11:29.518079
453  2023-11-01 11:11:29.563985
454  2023-11-01 11:11:29.611863
455  2023-11-01 11:11:29.643774
456  2023-11-01 11:11:29.689653
457  2023-11-01 11:11:29.737538
458  2023-11-01 11:11:29.769439
459  2023-11-01 11:11:29.817315
460  2023-11-01 11:11:29.849223
461  2023-11-01 11:11:29.897130
462  2023-11-01 11:11:29.943972
463  2023-11-01 11:11:29.975907
464  2023-11-01 11:11:30.023893
465  2023-11-01 11:11:30.071848
466  2023-11-01 11:11:30.103763
467  2023-11-01 11:11:30.151701
468  2023-11-01 11:11:30.183550
469  2023-11-01 11:11:30.231400
470  2023-11-01 11:11:30.278297
471  2023-11-01 11:11:30.310221
472  2023-11-01 11:11:30.358053
473  2023-11-01 11:11:30.404960
474  2023-11-01 11:11:30.435891
475  2023-11-01 11:11:30.483763
476  2023-11-01 11:11:30.515662
477  2023-11-01 11:11:30.563530
478  2023-11-01 11:11:30.611409
479  2023-11-01 11:11:30.643325
480  2023-11-01 11:11:30.691162
481  2023-11-01 11:11:30.739067
482  2023-11-01 11:11:30.770996
483  2023-11-01 11:11:30.818929
484  2023-11-01 11:11:30.850843
485  2023-11-01 11:11:30.896751
486  2023-11-01 11:11:30.944593
487  2023-11-01 11:11:30.976539
488  2023-11-01 11:11:31.023382
489  2023-11-01 11:11:31.070291
490  2023-11-01 11:11:31.102204
491  2023-11-01 11:11:31.150044
492  2023-11-01 11:11:31.196977
493  2023-11-01 11:11:31.228835
494  2023-11-01 11:11:31.275770
495  2023-11-01 11:11:31.307672
496  2023-11-01 11:11:31.354530
497  2023-11-01 11:11:31.400411
498  2023-11-01 11:11:31.447276
499  2023-11-01 11:11:31.478217
500  2023-11-01 11:11:31.526101
501  2023-11-01 11:11:31.558033
502  2023-11-01 11:11:31.605862
503  2023-11-01 11:11:31.653739
504  2023-11-01 11:11:31.684654
505  2023-11-01 11:11:31.731694
506  2023-11-01 11:11:31.779534
507  2023-11-01 11:11:31.811484
508  2023-11-01 11:11:31.858358
509  2023-11-01 11:11:31.905484
510  2023-11-01 11:11:31.937151
511  2023-11-01 11:11:31.984985
512  2023-11-01 11:11:32.016900
513  2023-11-01 11:11:32.064772
514  2023-11-01 11:11:32.112681
515  2023-11-01 11:11:32.144589
516  2023-11-01 11:11:32.192464
517  2023-11-01 11:11:32.224381
518  2023-11-01 11:11:32.272218
519  2023-11-01 11:11:32.320090
520  2023-11-01 11:11:32.352004
521  2023-11-01 11:11:32.399877
522  2023-11-01 11:11:32.446751
523  2023-11-01 11:11:32.477721
524  2023-11-01 11:11:32.525541
525  2023-11-01 11:11:32.571463
526  2023-11-01 11:11:32.602367
527  2023-11-01 11:11:32.649258
528  2023-11-01 11:11:32.697082
529  2023-11-01 11:11:32.729027
530  2023-11-01 11:11:32.776901
531  2023-11-01 11:11:32.821830
532  2023-11-01 11:11:32.853694
533  2023-11-01 11:11:32.900539
534  2023-11-01 11:11:32.946449
535  2023-11-01 11:11:32.977364
536  2023-11-01 11:11:33.023262
537  2023-11-01 11:11:33.071124
538  2023-11-01 11:11:33.103032
539  2023-11-01 11:11:33.150870
540  2023-11-01 11:11:33.182784
541  2023-11-01 11:11:33.228700
542  2023-11-01 11:11:33.276534
543  2023-11-01 11:11:33.308449
544  2023-11-01 11:11:33.354358
545  2023-11-01 11:11:33.402233
546  2023-11-01 11:11:33.434147
547  2023-11-01 11:11:33.482015
548  2023-11-01 11:11:33.529889
549  2023-11-01 11:11:33.561818
550  2023-11-01 11:11:33.609675
551  2023-11-01 11:11:33.641590
552  2023-11-01 11:11:33.689464
553  2023-11-01 11:11:33.735357
554  2023-11-01 11:11:33.767262
555  2023-11-01 11:11:33.813132
556  2023-11-01 11:11:33.861033
557  2023-11-01 11:11:33.892889
558  2023-11-01 11:11:33.940813
559  2023-11-01 11:11:33.988760
560  2023-11-01 11:11:34.020747
561  2023-11-01 11:11:34.068577
562  2023-11-01 11:11:34.099500
563  2023-11-01 11:11:34.147367
564  2023-11-01 11:11:34.195241
565  2023-11-01 11:11:34.227155
566  2023-11-01 11:11:34.275026
567  2023-11-01 11:11:34.321869
568  2023-11-01 11:11:34.353786
569  2023-11-01 11:11:34.399698
570  2023-11-01 11:11:34.447534
571  2023-11-01 11:11:34.477484
572  2023-11-01 11:11:34.525329
573  2023-11-01 11:11:34.572200
574  2023-11-01 11:11:34.603150
575  2023-11-01 11:11:34.650990
576  2023-11-01 11:11:34.682938
577  2023-11-01 11:11:34.730777
578  2023-11-01 11:11:34.778690
579  2023-11-01 11:11:34.809708
580  2023-11-01 11:11:34.856586
581  2023-11-01 11:11:34.904473
582  2023-11-01 11:11:34.936374
583  2023-11-01 11:11:34.984245
584  2023-11-01 11:11:35.016166
585  2023-11-01 11:11:35.064045
586  2023-11-01 11:11:35.111899
587  2023-11-01 11:11:35.143930
588  2023-11-01 11:11:35.191910
589  2023-11-01 11:11:35.223828
590  2023-11-01 11:11:35.271685
591  2023-11-01 11:11:35.319526
592  2023-11-01 11:11:35.351473
593  2023-11-01 11:11:35.398350
594  2023-11-01 11:11:35.445222
595  2023-11-01 11:11:35.477143
596  2023-11-01 11:11:35.524977
597  2023-11-01 11:11:35.571921
598  2023-11-01 11:11:35.603819
599  2023-11-01 11:11:35.650702
600  2023-11-01 11:11:35.696667
601  2023-11-01 11:11:35.727711
602  2023-11-01 11:11:35.775788
603  2023-11-01 11:11:35.807697
604  2023-11-01 11:11:35.855566
605  2023-11-01 11:11:35.903404
606  2023-11-01 11:11:35.935321
607  2023-11-01 11:11:35.983190
608  2023-11-01 11:11:36.030109
609  2023-11-01 11:11:36.062013
610  2023-11-01 11:11:36.108855
611  2023-11-01 11:11:36.140827
612  2023-11-01 11:11:36.188641
613  2023-11-01 11:11:36.236546
614  2023-11-01 11:11:36.268428
615  2023-11-01 11:11:36.316474
616  2023-11-01 11:11:36.364172
617  2023-11-01 11:11:36.396087
618  2023-11-01 11:11:36.442962
619  2023-11-01 11:11:36.488870
620  2023-11-01 11:11:36.519832
621  2023-11-01 11:11:36.566724
622  2023-11-01 11:11:36.613600
623  2023-11-01 11:11:36.644505
624  2023-11-01 11:11:36.692397
625  2023-11-01 11:11:36.724255
626  2023-11-01 11:11:36.772265
627  2023-11-01 11:11:36.820088
628  2023-11-01 11:11:36.851964
629  2023-11-01 11:11:36.899832
630  2023-11-01 11:11:36.946689
631  2023-11-01 11:11:36.977620
632  2023-11-01 11:11:37.025498
633  2023-11-01 11:11:37.071368
634  2023-11-01 11:11:37.103277
635  2023-11-01 11:11:37.151114
636  2023-11-01 11:11:37.183029
637  2023-11-01 11:11:37.230901
638  2023-11-01 11:11:37.278773
639  2023-11-01 11:11:37.310688
640  2023-11-01 11:11:37.358705
641  2023-11-01 11:11:37.404437
642  2023-11-01 11:11:37.436352
643  2023-11-01 11:11:37.484347
644  2023-11-01 11:11:37.516260
645  2023-11-01 11:11:37.564178
646  2023-11-01 11:11:37.612050
647  2023-11-01 11:11:37.643964
648  2023-11-01 11:11:37.691836
649  2023-11-01 11:11:37.723752
650  2023-11-01 11:11:37.769629
651  2023-11-01 11:11:37.816852
652  2023-11-01 11:11:37.848790
653  2023-11-01 11:11:37.896651
654  2023-11-01 11:11:37.944512
655  2023-11-01 11:11:37.976431
656  2023-11-01 11:11:38.024423
657  2023-11-01 11:11:38.072294
658  2023-11-01 11:11:38.104221
659  2023-11-01 11:11:38.151079
660  2023-11-01 11:11:38.182012
661  2023-11-01 11:11:38.229875
662  2023-11-01 11:11:38.277757
663  2023-11-01 11:11:38.309658
664  2023-11-01 11:11:38.357546
665  2023-11-01 11:11:38.405503
666  2023-11-01 11:11:38.437405
667  2023-11-01 11:11:38.485273
668  2023-11-01 11:11:38.517188
669  2023-11-01 11:11:38.565063
670  2023-11-01 11:11:38.612950
671  2023-11-01 11:11:38.644862
672  2023-11-01 11:11:38.692720
673  2023-11-01 11:11:38.724781
674  2023-11-01 11:11:38.772587
675  2023-11-01 11:11:38.820549
676  2023-11-01 11:11:38.852537
677  2023-11-01 11:11:38.900492
678  2023-11-01 11:11:38.932406
679  2023-11-01 11:11:38.980372
680  2023-11-01 11:11:39.028270
681  2023-11-01 11:11:39.060142
682  2023-11-01 11:11:39.107995
683  2023-11-01 11:11:39.154995
684  2023-11-01 11:11:39.185912
685  2023-11-01 11:11:39.233777
686  2023-11-01 11:11:39.265694
687  2023-11-01 11:11:39.313523
688  2023-11-01 11:11:39.361467
689  2023-11-01 11:11:39.392347
690  2023-11-01 11:11:39.439310
691  2023-11-01 11:11:39.487181
692  2023-11-01 11:11:39.519095
693  2023-11-01 11:11:39.565972
694  2023-11-01 11:11:39.613842
695  2023-11-01 11:11:39.645757
696  2023-11-01 11:11:39.693629
697  2023-11-01 11:11:39.725544
698  2023-11-01 11:11:39.772418
699  2023-11-01 11:11:39.819293
700  2023-11-01 11:11:39.849213
701  2023-11-01 11:11:39.896159
702  2023-11-01 11:11:39.943740
703  2023-11-01 11:11:39.975651
704  2023-11-01 11:11:40.023509
705  2023-11-01 11:11:40.071348
706  2023-11-01 11:11:40.102309
707  2023-11-01 11:11:40.149212
708  2023-11-01 11:11:40.197056
709  2023-11-01 11:11:40.228962
710  2023-11-01 11:11:40.276845
711  2023-11-01 11:11:40.308764
712  2023-11-01 11:11:40.356735
713  2023-11-01 11:11:40.404619
714  2023-11-01 11:11:40.436700
715  2023-11-01 11:11:40.484395
716  2023-11-01 11:11:40.516319
717  2023-11-01 11:11:40.564296
718  2023-11-01 11:11:40.612224
719  2023-11-01 11:11:40.644215
720  2023-11-01 11:11:40.692105
721  2023-11-01 11:11:40.724077
722  2023-11-01 11:11:40.771946
723  2023-11-01 11:11:40.819806
724  2023-11-01 11:11:40.851735
725  2023-11-01 11:11:40.899676
726  2023-11-01 11:11:40.947553
727  2023-11-01 11:11:40.979439
728  2023-11-01 11:11:41.027178
729  2023-11-01 11:11:41.059093
730  2023-11-01 11:11:41.104971
731  2023-11-01 11:11:41.151922
732  2023-11-01 11:11:41.196802
733  2023-11-01 11:11:41.228717
734  2023-11-01 11:11:41.276041
735  2023-11-01 11:11:41.307022
736  2023-11-01 11:11:41.353918
737  2023-11-01 11:11:41.400793
738  2023-11-01 11:11:41.446735
739  2023-11-01 11:11:41.477826
740  2023-11-01 11:11:41.525806
741  2023-11-01 11:11:41.557747
742  2023-11-01 11:11:41.605669
743  2023-11-01 11:11:41.651925
744  2023-11-01 11:11:41.683835
745  2023-11-01 11:11:41.731796
746  2023-11-01 11:11:41.779755
747  2023-11-01 11:11:41.811679
748  2023-11-01 11:11:41.859588
749  2023-11-01 11:11:41.891503
750  2023-11-01 11:11:41.937467
751  2023-11-01 11:11:41.985341
752  2023-11-01 11:11:42.017247
753  2023-11-01 11:11:42.065181
754  2023-11-01 11:11:42.111517
755  2023-11-01 11:11:42.143412
756  2023-11-01 11:11:42.191268
757  2023-11-01 11:11:42.239169
758  2023-11-01 11:11:42.271183
759  2023-11-01 11:11:42.319100
760  2023-11-01 11:11:42.351119
761  2023-11-01 11:11:42.399032
762  2023-11-01 11:11:42.445899
763  2023-11-01 11:11:42.476939
764  2023-11-01 11:11:42.524811
765  2023-11-01 11:11:42.571686
766  2023-11-01 11:11:42.601606
767  2023-11-01 11:11:42.648481
768  2023-11-01 11:11:42.696451
769  2023-11-01 11:11:42.728366
770  2023-11-01 11:11:42.776316
771  2023-11-01 11:11:42.807400
772  2023-11-01 11:11:42.853280
773  2023-11-01 11:11:42.900179
774  2023-11-01 11:11:42.932093
775  2023-11-01 11:11:42.978967
776  2023-11-01 11:11:43.026929
777  2023-11-01 11:11:43.058844
778  2023-11-01 11:11:43.106720
779  2023-11-01 11:11:43.154541
780  2023-11-01 11:11:43.186503
781  2023-11-01 11:11:43.234505
782  2023-11-01 11:11:43.266417
783  2023-11-01 11:11:43.314295
784  2023-11-01 11:11:43.362132
785  2023-11-01 11:11:43.392200
786  2023-11-01 11:11:43.440088
787  2023-11-01 11:11:43.488911
788  2023-11-01 11:11:43.518829
789  2023-11-01 11:11:43.565735
790  2023-11-01 11:11:43.613576
791  2023-11-01 11:11:43.644493
792  2023-11-01 11:11:43.691368
793  2023-11-01 11:11:43.739240
794  2023-11-01 11:11:43.771154
795  2023-11-01 11:11:43.819121
796  2023-11-01 11:11:43.851108
797  2023-11-01 11:11:43.898051
798  2023-11-01 11:11:43.945033
799  2023-11-01 11:11:43.976948
800  2023-11-01 11:11:44.024820
801  2023-11-01 11:11:44.071696
802  2023-11-01 11:11:44.102613
803  2023-11-01 11:11:44.150486
804  2023-11-01 11:11:44.182400
805  2023-11-01 11:11:44.230555
806  2023-11-01 11:11:44.277396
807  2023-11-01 11:11:44.308411
808  2023-11-01 11:11:44.356278
809  2023-11-01 11:11:44.404152
810  2023-11-01 11:11:44.436048
811  2023-11-01 11:11:44.483930
812  2023-11-01 11:11:44.515882
813  2023-11-01 11:11:44.563828
814  2023-11-01 11:11:44.610702
815  2023-11-01 11:11:44.641631
816  2023-11-01 11:11:44.689495
817  2023-11-01 11:11:44.737424
818  2023-11-01 11:11:44.769321
819  2023-11-01 11:11:44.817196
820  2023-11-01 11:11:44.849249
821  2023-11-01 11:11:44.897115
822  2023-11-01 11:11:44.944006
823  2023-11-01 11:11:44.975815
824  2023-11-01 11:11:45.023786
825  2023-11-01 11:11:45.072604
826  2023-11-01 11:11:45.103554
827  2023-11-01 11:11:45.151397
828  2023-11-01 11:11:45.182380
829  2023-11-01 11:11:45.229184
830  2023-11-01 11:11:45.277056
831  2023-11-01 11:11:45.308971
832  2023-11-01 11:11:45.356843
833  2023-11-01 11:11:45.403717
834  2023-11-01 11:11:45.434635
835  2023-11-01 11:11:45.482607
836  2023-11-01 11:11:45.530479
837  2023-11-01 11:11:45.562394
838  2023-11-01 11:11:45.610416
839  2023-11-01 11:11:45.641183
840  2023-11-01 11:11:45.688058
841  2023-11-01 11:11:45.735930
842  2023-11-01 11:11:45.767845
843  2023-11-01 11:11:45.813755
844  2023-11-01 11:11:45.861675
845  2023-11-01 11:11:45.893631
846  2023-11-01 11:11:45.941642
847  2023-11-01 11:11:45.988531
848  2023-11-01 11:11:46.019528
849  2023-11-01 11:11:46.067402
850  2023-11-01 11:11:46.099297
851  2023-11-01 11:11:46.147170
852  2023-11-01 11:11:46.195057
853  2023-11-01 11:11:46.226959
854  2023-11-01 11:11:46.274831
855  2023-11-01 11:11:46.321718
856  2023-11-01 11:11:46.353617
857  2023-11-01 11:11:46.401506
858  2023-11-01 11:11:46.433544
859  2023-11-01 11:11:46.481465
860  2023-11-01 11:11:46.529335
861  2023-11-01 11:11:46.561234
862  2023-11-01 11:11:46.609076
863  2023-11-01 11:11:46.641376
864  2023-11-01 11:11:46.688019
865  2023-11-01 11:11:46.734913
866  2023-11-01 11:11:46.766908
867  2023-11-01 11:11:46.815818
868  2023-11-01 11:11:46.862651
869  2023-11-01 11:11:46.894663
870  2023-11-01 11:11:46.942438
871  2023-11-01 11:11:46.974418
872  2023-11-01 11:11:47.023350
873  2023-11-01 11:11:47.071266
874  2023-11-01 11:11:47.102182
875  2023-11-01 11:11:47.150040
876  2023-11-01 11:11:47.197927
877  2023-11-01 11:11:47.227810
878  2023-11-01 11:11:47.274676
879  2023-11-01 11:11:47.321672
880  2023-11-01 11:11:47.352589
881  2023-11-01 11:11:47.400462
882  2023-11-01 11:11:47.432376
883  2023-11-01 11:11:47.479251
884  2023-11-01 11:11:47.526126
885  2023-11-01 11:11:47.558086
886  2023-11-01 11:11:47.605965
887  2023-11-01 11:11:47.653785
888  2023-11-01 11:11:47.685750
889  2023-11-01 11:11:47.733624
890  2023-11-01 11:11:47.765517
891  2023-11-01 11:11:47.811399
892  2023-11-01 11:11:47.859386
893  2023-11-01 11:11:47.891267
894  2023-11-01 11:11:47.937296
895  2023-11-01 11:11:47.985135
896  2023-11-01 11:11:48.017080
897  2023-11-01 11:11:48.064957
898  2023-11-01 11:11:48.112826
899  2023-11-01 11:11:48.143747
900  2023-11-01 11:11:48.190587
901  2023-11-01 11:11:48.238502
902  2023-11-01 11:11:48.270627
903  2023-11-01 11:11:48.318287
904  2023-11-01 11:11:48.351157
905  2023-11-01 11:11:48.397034
906  2023-11-01 11:11:48.444949
907  2023-11-01 11:11:48.476899
908  2023-11-01 11:11:48.525799
909  2023-11-01 11:11:48.571673
910  2023-11-01 11:11:48.602591
911  2023-11-01 11:11:48.649465
912  2023-11-01 11:11:48.696497
913  2023-11-01 11:11:48.727402
914  2023-11-01 11:11:48.774277
915  2023-11-01 11:11:48.821199
916  2023-11-01 11:11:48.852115
917  2023-11-01 11:11:48.898976
918  2023-11-01 11:11:48.946994
919  2023-11-01 11:11:48.978902
920  2023-11-01 11:11:49.024779
921  2023-11-01 11:11:49.071848
922  2023-11-01 11:11:49.101765
923  2023-11-01 11:11:49.148743
924  2023-11-01 11:11:49.196803
925  2023-11-01 11:11:49.228751
926  2023-11-01 11:11:49.276672
927  2023-11-01 11:11:49.308556
928  2023-11-01 11:11:49.356560
929  2023-11-01 11:11:49.404429
930  2023-11-01 11:11:49.436344
931  2023-11-01 11:11:49.482221
932  2023-11-01 11:11:49.528211
933  2023-11-01 11:11:49.558169
934  2023-11-01 11:11:49.606049
935  2023-11-01 11:11:49.653920
936  2023-11-01 11:11:49.685838
937  2023-11-01 11:11:49.733860
938  2023-11-01 11:11:49.765609
939  2023-11-01 11:11:49.813479
940  2023-11-01 11:11:49.861371
941  2023-11-01 11:11:49.893235
942  2023-11-01 11:11:49.941154
943  2023-11-01 11:11:49.989013
944  2023-11-01 11:11:50.020944
945  2023-11-01 11:11:50.068812
946  2023-11-01 11:11:50.100726
947  2023-11-01 11:11:50.147603
948  2023-11-01 11:11:50.194478
949  2023-11-01 11:11:50.226438
950  2023-11-01 11:11:50.274302
951  2023-11-01 11:11:50.322231
952  2023-11-01 11:11:50.354192
953  2023-11-01 11:11:50.402172
954  2023-11-01 11:11:50.434086
955  2023-11-01 11:11:50.480012
956  2023-11-01 11:11:50.526103
957  2023-11-01 11:11:50.558000
958  2023-11-01 11:11:50.604840
959  2023-11-01 11:11:50.651918
960  2023-11-01 11:11:50.683966
961  2023-11-01 11:11:50.730806
962  2023-11-01 11:11:50.776684
963  2023-11-01 11:11:50.807601
964  2023-11-01 11:11:50.853514
965  2023-11-01 11:11:50.901398
966  2023-11-01 11:11:50.933311
967  2023-11-01 11:11:50.981188
968  2023-11-01 11:11:51.029207
969  2023-11-01 11:11:51.061021
970  2023-11-01 11:11:51.108964
971  2023-11-01 11:11:51.140866
972  2023-11-01 11:11:51.188738
973  2023-11-01 11:11:51.236610
974  2023-11-01 11:11:51.268535
975  2023-11-01 11:11:51.316384
976  2023-11-01 11:11:51.363270
977  2023-11-01 11:11:51.394182
978  2023-11-01 11:11:51.442319
979  2023-11-01 11:11:51.474249
980  2023-11-01 11:11:51.521915
981  2023-11-01 11:11:51.569831
982  2023-11-01 11:11:51.601759
983  2023-11-01 11:11:51.649618
984  2023-11-01 11:11:51.697505
985  2023-11-01 11:11:51.729404
986  2023-11-01 11:11:51.777290
987  2023-11-01 11:11:51.809199
988  2023-11-01 11:11:51.855701
989  2023-11-01 11:11:51.903688
990  2023-11-01 11:11:51.935738
991  2023-11-01 11:11:51.983771
992  2023-11-01 11:11:52.015504
993  2023-11-01 11:11:52.063347
994  2023-11-01 11:11:52.111253
995  2023-11-01 11:11:52.143170
996  2023-11-01 11:11:52.190041
997  2023-11-01 11:11:52.236883
998  2023-11-01 11:11:52.268842
999  2023-11-01 11:11:52.317668
1000  2023-11-01 11:11:52.348749
1001  2023-11-01 11:11:52.396545
1002  2023-11-01 11:11:52.444643
1003  2023-11-01 11:11:52.475621
1004  2023-11-01 11:11:52.523460
1005  2023-11-01 11:11:52.571353
1006  2023-11-01 11:11:52.603267
1007  2023-11-01 11:11:52.650094
1008  2023-11-01 11:11:52.682008
1009  2023-11-01 11:11:52.729881
1010  2023-11-01 11:11:52.777753
1011  2023-11-01 11:11:52.809667
1012  2023-11-01 11:11:52.857539
1013  2023-11-01 11:11:52.905411
1014  2023-11-01 11:11:52.936329
1015  2023-11-01 11:11:52.983204
1016  2023-11-01 11:11:53.030078
1017  2023-11-01 11:11:53.061028
1018  2023-11-01 11:11:53.108915
1019  2023-11-01 11:11:53.140816
1020  2023-11-01 11:11:53.188698
1021  2023-11-01 11:11:53.235579
1022  2023-11-01 11:11:53.266496
1023  2023-11-01 11:11:53.314366
1024  2023-11-01 11:11:53.362240
1025  2023-11-01 11:11:53.394171
1026  2023-11-01 11:11:53.442102
1027  2023-11-01 11:11:53.488981
1028  2023-11-01 11:11:53.520906
1029  2023-11-01 11:11:53.568881
1030  2023-11-01 11:11:53.600878
1031  2023-11-01 11:11:53.648751
1032  2023-11-01 11:11:53.696620
1033  2023-11-01 11:11:53.728524
1034  2023-11-01 11:11:53.776402
1035  2023-11-01 11:11:53.808308
1036  2023-11-01 11:11:53.856180
1037  2023-11-01 11:11:53.904053
1038  2023-11-01 11:11:53.935975
1039  2023-11-01 11:11:53.983839
1040  2023-11-01 11:11:54.015723
1041  2023-11-01 11:11:54.063661
1042  2023-11-01 11:11:54.111468
1043  2023-11-01 11:11:54.143381
1044  2023-11-01 11:11:54.191253
1045  2023-11-01 11:11:54.239126
1046  2023-11-01 11:11:54.271071
1047  2023-11-01 11:11:54.316997
1048  2023-11-01 11:11:54.348892
1049  2023-11-01 11:11:54.396704
1050  2023-11-01 11:11:54.442632
1051  2023-11-01 11:11:54.474549
1052  2023-11-01 11:11:54.522466
1053  2023-11-01 11:11:54.570282
1054  2023-11-01 11:11:54.602229
1055  2023-11-01 11:11:54.648180
1056  2023-11-01 11:11:54.693311
1057  2023-11-01 11:11:54.724267
1058  2023-11-01 11:11:54.770259
1059  2023-11-01 11:11:54.818107
1060  2023-11-01 11:11:54.850026
1061  2023-11-01 11:11:54.897910
1062  2023-11-01 11:11:54.945767
1063  2023-11-01 11:11:54.977684
1064  2023-11-01 11:11:55.025658
1065  2023-11-01 11:11:55.057561
1066  2023-11-01 11:11:55.105440
1067  2023-11-01 11:11:55.153302
1068  2023-11-01 11:11:55.185216
1069  2023-11-01 11:11:55.233091
1070  2023-11-01 11:11:55.279977
1071  2023-11-01 11:11:55.310891
1072  2023-11-01 11:11:55.358761
1073  2023-11-01 11:11:55.404651
1074  2023-11-01 11:11:55.436514
1075  2023-11-01 11:11:55.485423
1076  2023-11-01 11:11:55.516346
1077  2023-11-01 11:11:55.564221
1078  2023-11-01 11:11:55.613043
1079  2023-11-01 11:11:55.641966
1080  2023-11-01 11:11:55.689839
1081  2023-11-01 11:11:55.735715
1082  2023-11-01 11:11:55.767629
1083  2023-11-01 11:11:55.815502
1084  2023-11-01 11:11:55.863374
1085  2023-11-01 11:11:55.895424
1086  2023-11-01 11:11:55.943296
1087  2023-11-01 11:11:55.975335
1088  2023-11-01 11:11:56.023207
1089  2023-11-01 11:11:56.071079
1090  2023-11-01 11:11:56.102994
1091  2023-11-01 11:11:56.150866
1092  2023-11-01 11:11:56.182781
1093  2023-11-01 11:11:56.230653
1094  2023-11-01 11:11:56.278525
1095  2023-11-01 11:11:56.310440
1096  2023-11-01 11:11:56.358390
1097  2023-11-01 11:11:56.390428
1098  2023-11-01 11:11:56.438423
1099  2023-11-01 11:11:56.485773
1100  2023-11-01 11:11:56.517658
1101  2023-11-01 11:11:56.565642
1102  2023-11-01 11:11:56.613478
1103  2023-11-01 11:11:56.645460
1104  2023-11-01 11:11:56.693366
1105  2023-11-01 11:11:56.725282
1106  2023-11-01 11:11:56.772142
1107  2023-11-01 11:11:56.820013
1108  2023-11-01 11:11:56.851970
1109  2023-11-01 11:11:56.899877
1110  2023-11-01 11:11:56.946767
1111  2023-11-01 11:11:56.976676
1112  2023-11-01 11:11:57.023553
1113  2023-11-01 11:11:57.071387
1114  2023-11-01 11:11:57.102339
1115  2023-11-01 11:11:57.149211
1116  2023-11-01 11:11:57.197085
1117  2023-11-01 11:11:57.228966
1118  2023-11-01 11:11:57.276864
1119  2023-11-01 11:11:57.308806
1120  2023-11-01 11:11:57.356691
1121  2023-11-01 11:11:57.403534
1122  2023-11-01 11:11:57.435456
1123  2023-11-01 11:11:57.483334
1124  2023-11-01 11:11:57.530208
1125  2023-11-01 11:11:57.561132
1126  2023-11-01 11:11:57.608992
1127  2023-11-01 11:11:57.654828
1128  2023-11-01 11:11:57.686742
1129  2023-11-01 11:11:57.734614
1130  2023-11-01 11:11:57.766529
1131  2023-11-01 11:11:57.814403
1132  2023-11-01 11:11:57.862321
1133  2023-11-01 11:11:57.894188
1134  2023-11-01 11:11:57.942060
1135  2023-11-01 11:11:57.973975
1136  2023-11-01 11:11:58.021847
1137  2023-11-01 11:11:58.069719
1138  2023-11-01 11:11:58.101665
1139  2023-11-01 11:11:58.149538
1140  2023-11-01 11:11:58.197410
1141  2023-11-01 11:11:58.229292
1142  2023-11-01 11:11:58.277165
1143  2023-11-01 11:11:58.309110
1144  2023-11-01 11:11:58.356991
1145  2023-11-01 11:11:58.404855
1146  2023-11-01 11:11:58.436769
1147  2023-11-01 11:11:58.484642
1148  2023-11-01 11:11:58.515561
1149  2023-11-01 11:11:58.562438
1150  2023-11-01 11:11:58.610449
1151  2023-11-01 11:11:58.642189
1152  2023-11-01 11:11:58.690095
1153  2023-11-01 11:11:58.737966
1154  2023-11-01 11:11:58.769883
1155  2023-11-01 11:11:58.817757
1156  2023-11-01 11:11:58.849668
1157  2023-11-01 11:11:58.897538
1158  2023-11-01 11:11:58.945417
1159  2023-11-01 11:11:58.977329
1160  2023-11-01 11:11:59.025198
1161  2023-11-01 11:11:59.057116
1162  2023-11-01 11:11:59.104991
1163  2023-11-01 11:11:59.151829
1164  2023-11-01 11:11:59.182777
1165  2023-11-01 11:11:59.230664
1166  2023-11-01 11:11:59.276563
1167  2023-11-01 11:11:59.308438
1168  2023-11-01 11:11:59.356328
1169  2023-11-01 11:11:59.404183
1170  2023-11-01 11:11:59.436098
1171  2023-11-01 11:11:59.483970
1172  2023-11-01 11:11:59.515885
1173  2023-11-01 11:11:59.563757
1174  2023-11-01 11:11:59.609637
1175  2023-11-01 11:11:59.641552
1176  2023-11-01 11:11:59.689424
1177  2023-11-01 11:11:59.737293
1178  2023-11-01 11:11:59.769231
1179  2023-11-01 11:11:59.817049
1180  2023-11-01 11:11:59.848965
1181  2023-11-01 11:11:59.896838
1182  2023-11-01 11:11:59.942715
1183  2023-11-01 11:11:59.974628
1184  2023-11-01 11:12:00.023531
1185  2023-11-01 11:12:00.071437
1186  2023-11-01 11:12:00.102287
1187  2023-11-01 11:12:00.150159
1188  2023-11-01 11:12:00.182074
1189  2023-11-01 11:12:00.229981
1190  2023-11-01 11:12:00.277818
1191  2023-11-01 11:12:00.309766
1192  2023-11-01 11:12:00.357668
1193  2023-11-01 11:12:00.403525
1194  2023-11-01 11:12:00.435494
1195  2023-11-01 11:12:00.483366
1196  2023-11-01 11:12:00.515310
1197  2023-11-01 11:12:00.562159
1198  2023-11-01 11:12:00.608998
1199  2023-11-01 11:12:00.654908
1200  2023-11-01 11:12:00.686807
1201  2023-11-01 11:12:00.734709
1202  2023-11-01 11:12:00.766625
1203  2023-11-01 11:12:00.814483
1204  2023-11-01 11:12:00.862321
1205  2023-11-01 11:12:00.894268
1206  2023-11-01 11:12:00.941139
1207  2023-11-01 11:12:00.988025
1208  2023-11-01 11:12:01.019952
1209  2023-11-01 11:12:01.067808
1210  2023-11-01 11:12:01.099718
1211  2023-11-01 11:12:01.147631
1212  2023-11-01 11:12:01.195508
1213  2023-11-01 11:12:01.227421
1214  2023-11-01 11:12:01.275292
1215  2023-11-01 11:12:01.307206
1216  2023-11-01 11:12:01.354082
1217  2023-11-01 11:12:01.400958
1218  2023-11-01 11:12:01.432883
1219  2023-11-01 11:12:01.479751
1220  2023-11-01 11:12:01.527619
1221  2023-11-01 11:12:01.559530
1222  2023-11-01 11:12:01.606450
1223  2023-11-01 11:12:01.653327
1224  2023-11-01 11:12:01.684243
1225  2023-11-01 11:12:01.731116
1226  2023-11-01 11:12:01.778988
1227  2023-11-01 11:12:01.809873
1228  2023-11-01 11:12:01.857778
1229  2023-11-01 11:12:01.905604
1230  2023-11-01 11:12:01.937513
1231  2023-11-01 11:12:01.984356
1232  2023-11-01 11:12:02.016361
1233  2023-11-01 11:12:02.064202
1234  2023-11-01 11:12:02.112216
1235  2023-11-01 11:12:02.144108
1236  2023-11-01 11:12:02.191922
1237  2023-11-01 11:12:02.223837
1238  2023-11-01 11:12:02.271708
1239  2023-11-01 11:12:02.319582
1240  2023-11-01 11:12:02.351527
1241  2023-11-01 11:12:02.399368
1242  2023-11-01 11:12:02.447264
1243  2023-11-01 11:12:02.479155
1244  2023-11-01 11:12:02.527029
1245  2023-11-01 11:12:02.559014
1246  2023-11-01 11:12:02.605815
1247  2023-11-01 11:12:02.653688
1248  2023-11-01 11:12:02.683641
1249  2023-11-01 11:12:02.731546
1250  2023-11-01 11:12:02.779384
1251  2023-11-01 11:12:02.811301
1252  2023-11-01 11:12:02.859179
1253  2023-11-01 11:12:02.891130
1254  2023-11-01 11:12:02.939050
1255  2023-11-01 11:12:02.986906
1256  2023-11-01 11:12:03.018789
1257  2023-11-01 11:12:03.066665
1258  2023-11-01 11:12:03.113661
1259  2023-11-01 11:12:03.144566
1260  2023-11-01 11:12:03.192437
1261  2023-11-01 11:12:03.224352
1262  2023-11-01 11:12:03.271234
1263  2023-11-01 11:12:03.319113
1264  2023-11-01 11:12:03.350013
1265  2023-11-01 11:12:03.395892
1266  2023-11-01 11:12:03.442735
1267  2023-11-01 11:12:03.474650
1268  2023-11-01 11:12:03.521566
1269  2023-11-01 11:12:03.568429
1270  2023-11-01 11:12:03.600350
1271  2023-11-01 11:12:03.648217
1272  2023-11-01 11:12:03.696089
1273  2023-11-01 11:12:03.728024
1274  2023-11-01 11:12:03.775845
1275  2023-11-01 11:12:03.807759
1276  2023-11-01 11:12:03.855636
1277  2023-11-01 11:12:03.903507
1278  2023-11-01 11:12:03.934455
1279  2023-11-01 11:12:03.981297
1280  2023-11-01 11:12:04.029174
1281  2023-11-01 11:12:04.061083
1282  2023-11-01 11:12:04.107988
1283  2023-11-01 11:12:04.154868
1284  2023-11-01 11:12:04.186794
1285  2023-11-01 11:12:04.234665
1286  2023-11-01 11:12:04.266570
1287  2023-11-01 11:12:04.314440
1288  2023-11-01 11:12:04.362309
1289  2023-11-01 11:12:04.394238
1290  2023-11-01 11:12:04.441101
1291  2023-11-01 11:12:04.488979
1292  2023-11-01 11:12:04.520887
1293  2023-11-01 11:12:04.568759
1294  2023-11-01 11:12:04.600688
1295  2023-11-01 11:12:04.648551
1296  2023-11-01 11:12:04.696437
1297  2023-11-01 11:12:04.728332
1298  2023-11-01 11:12:04.776214
1299  2023-11-01 11:12:04.807123
1300  2023-11-01 11:12:04.854001
1301  2023-11-01 11:12:04.900877
1302  2023-11-01 11:12:04.946863
1303  2023-11-01 11:12:04.977802
1304  2023-11-01 11:12:05.025680
1305  2023-11-01 11:12:05.057687
1306  2023-11-01 11:12:05.105566
1307  2023-11-01 11:12:05.153427
1308  2023-11-01 11:12:05.185346
1309  2023-11-01 11:12:05.233321
1310  2023-11-01 11:12:05.280151
1311  2023-11-01 11:12:05.312076
1312  2023-11-01 11:12:05.359991
1313  2023-11-01 11:12:05.391916
1314  2023-11-01 11:12:05.439724
1315  2023-11-01 11:12:05.485627
1316  2023-11-01 11:12:05.517581
1317  2023-11-01 11:12:05.565418
1318  2023-11-01 11:12:05.613291
1319  2023-11-01 11:12:05.645176
1320  2023-11-01 11:12:05.694044
1321  2023-11-01 11:12:05.724962
1322  2023-11-01 11:12:05.770839
1323  2023-11-01 11:12:05.818711
1324  2023-11-01 11:12:05.850676
1325  2023-11-01 11:12:05.898651
1326  2023-11-01 11:12:05.946529
1327  2023-11-01 11:12:05.977544
1328  2023-11-01 11:12:06.024439
1329  2023-11-01 11:12:06.072321
1330  2023-11-01 11:12:06.104225
1331  2023-11-01 11:12:06.152097
1332  2023-11-01 11:12:06.184013
1333  2023-11-01 11:12:06.232061
1334  2023-11-01 11:12:06.279723
1335  2023-11-01 11:12:06.311672
1336  2023-11-01 11:12:06.357550
1337  2023-11-01 11:12:06.405422
1338  2023-11-01 11:12:06.437424
1339  2023-11-01 11:12:06.485294
1340  2023-11-01 11:12:06.517210
1341  2023-11-01 11:12:06.564083
1342  2023-11-01 11:12:06.611960
1343  2023-11-01 11:12:06.642921
1344  2023-11-01 11:12:06.691907
1345  2023-11-01 11:12:06.738754
1346  2023-11-01 11:12:06.771783
1347  2023-11-01 11:12:06.818769
1348  2023-11-01 11:12:06.850680
1349  2023-11-01 11:12:06.898556
1350  2023-11-01 11:12:06.944589
1351  2023-11-01 11:12:06.976508
1352  2023-11-01 11:12:07.024410
1353  2023-11-01 11:12:07.071262
1354  2023-11-01 11:12:07.102203
1355  2023-11-01 11:12:07.150072
1356  2023-11-01 11:12:07.182003
1357  2023-11-01 11:12:07.229856
1358  2023-11-01 11:12:07.277732
1359  2023-11-01 11:12:07.309615
1360  2023-11-01 11:12:07.356488
1361  2023-11-01 11:12:07.403363
1362  2023-11-01 11:12:07.435278
1363  2023-11-01 11:12:07.483253
1364  2023-11-01 11:12:07.530098
1365  2023-11-01 11:12:07.561122
1366  2023-11-01 11:12:07.609031
1367  2023-11-01 11:12:07.640975
1368  2023-11-01 11:12:07.688817
1369  2023-11-01 11:12:07.736683
1370  2023-11-01 11:12:07.768605
1371  2023-11-01 11:12:07.816490
1372  2023-11-01 11:12:07.863360
1373  2023-11-01 11:12:07.895277
1374  2023-11-01 11:12:07.943137
1375  2023-11-01 11:12:07.975049
1376  2023-11-01 11:12:08.022921
1377  2023-11-01 11:12:08.070803
1378  2023-11-01 11:12:08.102734
1379  2023-11-01 11:12:08.149583
1380  2023-11-01 11:12:08.197463
1381  2023-11-01 11:12:08.229385
1382  2023-11-01 11:12:08.277257
1383  2023-11-01 11:12:08.309214
1384  2023-11-01 11:12:08.357084
1385  2023-11-01 11:12:08.403976
1386  2023-11-01 11:12:08.435883
1387  2023-11-01 11:12:08.483749
1388  2023-11-01 11:12:08.529642
1389  2023-11-01 11:12:08.561541
1390  2023-11-01 11:12:08.608381
1391  2023-11-01 11:12:08.640296
1392  2023-11-01 11:12:08.687172
1393  2023-11-01 11:12:08.734045
1394  2023-11-01 11:12:08.765960
1395  2023-11-01 11:12:08.813832
1396  2023-11-01 11:12:08.861744
1397  2023-11-01 11:12:08.893632
1398  2023-11-01 11:12:08.941571
1399  2023-11-01 11:12:08.988497
1400  2023-11-01 11:12:09.019414
1401  2023-11-01 11:12:09.065337
1402  2023-11-01 11:12:09.113213
1403  2023-11-01 11:12:09.144124
1404  2023-11-01 11:12:09.190989
1405  2023-11-01 11:12:09.238858
1406  2023-11-01 11:12:09.269797
1407  2023-11-01 11:12:09.316759
1408  2023-11-01 11:12:09.362539
1409  2023-11-01 11:12:09.394460
1410  2023-11-01 11:12:09.441286
1411  2023-11-01 11:12:09.487275
1412  2023-11-01 11:12:09.519191
1413  2023-11-01 11:12:09.567062
1414  2023-11-01 11:12:09.598977
1415  2023-11-01 11:12:09.647902
1416  2023-11-01 11:12:09.695808
1417  2023-11-01 11:12:09.726636
1418  2023-11-01 11:12:09.774508
1419  2023-11-01 11:12:09.822394
1420  2023-11-01 11:12:09.854296
1421  2023-11-01 11:12:09.900172
1422  2023-11-01 11:12:09.932087
1423  2023-11-01 11:12:09.979959
1424  2023-11-01 11:12:10.027831
1425  2023-11-01 11:12:10.059745
1426  2023-11-01 11:12:10.107617
1427  2023-11-01 11:12:10.155489
1428  2023-11-01 11:12:10.187404
1429  2023-11-01 11:12:10.235276
1430  2023-11-01 11:12:10.267191
1431  2023-11-01 11:12:10.315162
1432  2023-11-01 11:12:10.363181
1433  2023-11-01 11:12:10.395061
1434  2023-11-01 11:12:10.442933
1435  2023-11-01 11:12:10.474947
1436  2023-11-01 11:12:10.522819
1437  2023-11-01 11:12:10.570692
1438  2023-11-01 11:12:10.602606
1439  2023-11-01 11:12:10.650478
1440  2023-11-01 11:12:10.682393
1441  2023-11-01 11:12:10.730265
1442  2023-11-01 11:12:10.776192
1443  2023-11-01 11:12:10.808094
1444  2023-11-01 11:12:10.854981
1445  2023-11-01 11:12:10.901930
1446  2023-11-01 11:12:10.932836
1447  2023-11-01 11:12:10.978727
1448  2023-11-01 11:12:11.025692
1449  2023-11-01 11:12:11.071600
1450  2023-11-01 11:12:11.103481
1451  2023-11-01 11:12:11.151467
1452  2023-11-01 11:12:11.182342
1453  2023-11-01 11:12:11.229279
1454  2023-11-01 11:12:11.277176
1455  2023-11-01 11:12:11.309090
1456  2023-11-01 11:12:11.356962
1457  2023-11-01 11:12:11.404876
1458  2023-11-01 11:12:11.437093
1459  2023-11-01 11:12:11.482811
1460  2023-11-01 11:12:11.530672
1461  2023-11-01 11:12:11.562612
1462  2023-11-01 11:12:11.610484
1463  2023-11-01 11:12:11.642399
1464  2023-11-01 11:12:11.690271
1465  2023-11-01 11:12:11.738143
1466  2023-11-01 11:12:11.770058
1467  2023-11-01 11:12:11.817930
1468  2023-11-01 11:12:11.849823
1469  2023-11-01 11:12:11.896760
1470  2023-11-01 11:12:11.943751
1471  2023-11-01 11:12:11.975640
1472  2023-11-01 11:12:12.023541
1473  2023-11-01 11:12:12.070561
1474  2023-11-01 11:12:12.101490
1475  2023-11-01 11:12:12.149363
1476  2023-11-01 11:12:12.195266
1477  2023-11-01 11:12:12.227183
1478  2023-11-01 11:12:12.275068
1479  2023-11-01 11:12:12.307020
1480  2023-11-01 11:12:12.354892
1481  2023-11-01 11:12:12.400934
1482  2023-11-01 11:12:12.432912
1483  2023-11-01 11:12:12.480891
1484  2023-11-01 11:12:12.529719
1485  2023-11-01 11:12:12.561678
1486  2023-11-01 11:12:12.608549
1487  2023-11-01 11:12:12.640420
1488  2023-11-01 11:12:12.689290
1489  2023-11-01 11:12:12.734226
1490  2023-11-01 11:12:12.766114
1491  2023-11-01 11:12:12.813992
1492  2023-11-01 11:12:12.861828
1493  2023-11-01 11:12:12.893743
1494  2023-11-01 11:12:12.940617
1495  2023-11-01 11:12:12.988489
1496  2023-11-01 11:12:13.020404
1497  2023-11-01 11:12:13.067279
1498  2023-11-01 11:12:13.114153
1499  2023-11-01 11:12:13.146068
1500  2023-11-01 11:12:13.193940
1501  2023-11-01 11:12:13.224112
1502  2023-11-01 11:12:13.271967
1503  2023-11-01 11:12:13.319844
1504  2023-11-01 11:12:13.351759
1505  2023-11-01 11:12:13.397684
1506  2023-11-01 11:12:13.445654
1507  2023-11-01 11:12:13.477503
1508  2023-11-01 11:12:13.525574
1509  2023-11-01 11:12:13.557486
1510  2023-11-01 11:12:13.605341
1511  2023-11-01 11:12:13.652231
1512  2023-11-01 11:12:13.683151
1513  2023-11-01 11:12:13.731024
1514  2023-11-01 11:12:13.778846
1515  2023-11-01 11:12:13.810796
1516  2023-11-01 11:12:13.858679
1517  2023-11-01 11:12:13.890549
1518  2023-11-01 11:12:13.936474
1519  2023-11-01 11:12:13.984337
1520  2023-11-01 11:12:14.016213
1521  2023-11-01 11:12:14.064136
1522  2023-11-01 11:12:14.111990
1523  2023-11-01 11:12:14.142873
1524  2023-11-01 11:12:14.190780
1525  2023-11-01 11:12:14.238617
1526  2023-11-01 11:12:14.270532
1527  2023-11-01 11:12:14.318404
1528  2023-11-01 11:12:14.350347
1529  2023-11-01 11:12:14.398191
1530  2023-11-01 11:12:14.444068
1531  2023-11-01 11:12:14.476131
1532  2023-11-01 11:12:14.523855
1533  2023-11-01 11:12:14.571727
1534  2023-11-01 11:12:14.603642
1535  2023-11-01 11:12:14.651517
1536  2023-11-01 11:12:14.683429
1537  2023-11-01 11:12:14.731301
1538  2023-11-01 11:12:14.778176
1539  2023-11-01 11:12:14.809093
1540  2023-11-01 11:12:14.856965
1541  2023-11-01 11:12:14.904988
1542  2023-11-01 11:12:14.936934
1543  2023-11-01 11:12:14.984775
1544  2023-11-01 11:12:15.016692
1545  2023-11-01 11:12:15.064562
1546  2023-11-01 11:12:15.112434
1547  2023-11-01 11:12:15.144348
1548  2023-11-01 11:12:15.192220
1549  2023-11-01 11:12:15.224135
1550  2023-11-01 11:12:15.270045
1551  2023-11-01 11:12:15.317918
1552  2023-11-01 11:12:15.349831
1553  2023-11-01 11:12:15.397469
1554  2023-11-01 11:12:15.445323
1555  2023-11-01 11:12:15.477249
1556  2023-11-01 11:12:15.525259
1557  2023-11-01 11:12:15.557026
1558  2023-11-01 11:12:15.604904
1559  2023-11-01 11:12:15.651821
1560  2023-11-01 11:12:15.682705
1561  2023-11-01 11:12:15.729581
1562  2023-11-01 11:12:15.776448
1563  2023-11-01 11:12:15.807375
1564  2023-11-01 11:12:15.854295
1565  2023-11-01 11:12:15.903101
1566  2023-11-01 11:12:15.935015
1567  2023-11-01 11:12:15.982930
1568  2023-11-01 11:12:16.029731
1569  2023-11-01 11:12:16.061646
1570  2023-11-01 11:12:16.109517
1571  2023-11-01 11:12:16.141432
1572  2023-11-01 11:12:16.189304
1573  2023-11-01 11:12:16.237176
1574  2023-11-01 11:12:16.269091
1575  2023-11-01 11:12:16.316963
1576  2023-11-01 11:12:16.348883
1577  2023-11-01 11:12:16.396750
1578  2023-11-01 11:12:16.442627
1579  2023-11-01 11:12:16.474542
1580  2023-11-01 11:12:16.522414
1581  2023-11-01 11:12:16.570286
1582  2023-11-01 11:12:16.602201
1583  2023-11-01 11:12:16.650073
1584  2023-11-01 11:12:16.695950
1585  2023-11-01 11:12:16.727979
1586  2023-11-01 11:12:16.775883
1587  2023-11-01 11:12:16.821811
1588  2023-11-01 11:12:16.853720
1589  2023-11-01 11:12:16.901582
1590  2023-11-01 11:12:16.933515
1591  2023-11-01 11:12:16.981334
1592  2023-11-01 11:12:17.029240
1593  2023-11-01 11:12:17.061166
1594  2023-11-01 11:12:17.109041
1595  2023-11-01 11:12:17.154916
1596  2023-11-01 11:12:17.186879
1597  2023-11-01 11:12:17.234771
1598  2023-11-01 11:12:17.266685
1599  2023-11-01 11:12:17.314544
1600  2023-11-01 11:12:17.362413
1601  2023-11-01 11:12:17.394326
1602  2023-11-01 11:12:17.442213
1603  2023-11-01 11:12:17.488102
1604  2023-11-01 11:12:17.520983
1605  2023-11-01 11:12:17.567971
1606  2023-11-01 11:12:17.599791
1607  2023-11-01 11:12:17.647671
1608  2023-11-01 11:12:17.695542
1609  2023-11-01 11:12:17.727406
1610  2023-11-01 11:12:17.774313
1611  2023-11-01 11:12:17.822184
1612  2023-11-01 11:12:17.855131
1613  2023-11-01 11:12:17.902936
1614  2023-11-01 11:12:17.934907
1615  2023-11-01 11:12:17.982775
1616  2023-11-01 11:12:18.030628
1617  2023-11-01 11:12:18.062540
1618  2023-11-01 11:12:18.110415
1619  2023-11-01 11:12:18.142339
1620  2023-11-01 11:12:18.190170
1621  2023-11-01 11:12:18.236045
1622  2023-11-01 11:12:18.266048
1623  2023-11-01 11:12:18.313001
1624  2023-11-01 11:12:18.360873
1625  2023-11-01 11:12:18.391791
1626  2023-11-01 11:12:18.438714
1627  2023-11-01 11:12:18.486538
1628  2023-11-01 11:12:18.518452
1629  2023-11-01 11:12:18.564375
1630  2023-11-01 11:12:18.612202
1631  2023-11-01 11:12:18.644148
1632  2023-11-01 11:12:18.692020
1633  2023-11-01 11:12:18.724012
1634  2023-11-01 11:12:18.771939
1635  2023-11-01 11:12:18.819820
1636  2023-11-01 11:12:18.851715
1637  2023-11-01 11:12:18.899609
1638  2023-11-01 11:12:18.947463
1639  2023-11-01 11:12:18.979343
1640  2023-11-01 11:12:19.027253
1641  2023-11-01 11:12:19.059172
1642  2023-11-01 11:12:19.107130
1643  2023-11-01 11:12:19.155076
1644  2023-11-01 11:12:19.186989
1645  2023-11-01 11:12:19.234875
1646  2023-11-01 11:12:19.266787
1647  2023-11-01 11:12:19.314785
1648  2023-11-01 11:12:19.362611
1649  2023-11-01 11:12:19.394525
1650  2023-11-01 11:12:19.441447
1651  2023-11-01 11:12:19.488372
1652  2023-11-01 11:12:19.521188
1653  2023-11-01 11:12:19.568104
1654  2023-11-01 11:12:19.601025
1655  2023-11-01 11:12:19.647849
1656  2023-11-01 11:12:19.695746
1657  2023-11-01 11:12:19.727662
1658  2023-11-01 11:12:19.774557
1659  2023-11-01 11:12:19.821573
1660  2023-11-01 11:12:19.853473
1661  2023-11-01 11:12:19.899405
1662  2023-11-01 11:12:19.946280
1663  2023-11-01 11:12:19.978195
1664  2023-11-01 11:12:20.026067
1665  2023-11-01 11:12:20.057982
1666  2023-11-01 11:12:20.105949
1667  2023-11-01 11:12:20.152824
1668  2023-11-01 11:12:20.183741
1669  2023-11-01 11:12:20.230648
1670  2023-11-01 11:12:20.277490
1671  2023-11-01 11:12:20.309521
1672  2023-11-01 11:12:20.357481
1673  2023-11-01 11:12:20.403396
1674  2023-11-01 11:12:20.435398
1675  2023-11-01 11:12:20.483272
1676  2023-11-01 11:12:20.528150
1677  2023-11-01 11:12:20.559077
1678  2023-11-01 11:12:20.606939
1679  2023-11-01 11:12:20.654870
1680  2023-11-01 11:12:20.686714
1681  2023-11-01 11:12:20.733557
1682  2023-11-01 11:12:20.781557
1683  2023-11-01 11:12:20.812501
1684  2023-11-01 11:12:20.858338
1685  2023-11-01 11:12:20.890253
1686  2023-11-01 11:12:20.938125
1687  2023-11-01 11:12:20.986160
1688  2023-11-01 11:12:21.018031
1689  2023-11-01 11:12:21.065903
1690  2023-11-01 11:12:21.113775
1691  2023-11-01 11:12:21.145690
1692  2023-11-01 11:12:21.192565
1693  2023-11-01 11:12:21.238482
1694  2023-11-01 11:12:21.269394
1695  2023-11-01 11:12:21.316267
1696  2023-11-01 11:12:21.363170
1697  2023-11-01 11:12:21.395069
1698  2023-11-01 11:12:21.442942
1699  2023-11-01 11:12:21.474847
1700  2023-11-01 11:12:21.522760
1701  2023-11-01 11:12:21.570713
1702  2023-11-01 11:12:21.602644
1703  2023-11-01 11:12:21.650502
1704  2023-11-01 11:12:21.682550
1705  2023-11-01 11:12:21.730289
1706  2023-11-01 11:12:21.777174
1707  2023-11-01 11:12:21.808092
1708  2023-11-01 11:12:21.856086
1709  2023-11-01 11:12:21.904185
1710  2023-11-01 11:12:21.937080
1711  2023-11-01 11:12:21.984025
1712  2023-11-01 11:12:22.016078
1713  2023-11-01 11:12:22.063932
1714  2023-11-01 11:12:22.111818
1715  2023-11-01 11:12:22.142741
1716  2023-11-01 11:12:22.190613
1717  2023-11-01 11:12:22.237471
1718  2023-11-01 11:12:22.268392
1719  2023-11-01 11:12:22.316267
1720  2023-11-01 11:12:22.364154
1721  2023-11-01 11:12:22.396059
1722  2023-11-01 11:12:22.443919
1723  2023-11-01 11:12:22.475833
1724  2023-11-01 11:12:22.523721
1725  2023-11-01 11:12:22.572544
1726  2023-11-01 11:12:22.603495
1727  2023-11-01 11:12:22.651334
1728  2023-11-01 11:12:22.683249
1729  2023-11-01 11:12:22.732155
1730  2023-11-01 11:12:22.780021
1731  2023-11-01 11:12:22.809950
1732  2023-11-01 11:12:22.856873
1733  2023-11-01 11:12:22.904745
1734  2023-11-01 11:12:22.936744
1735  2023-11-01 11:12:22.984616
1736  2023-11-01 11:12:23.016531
1737  2023-11-01 11:12:23.064403
1738  2023-11-01 11:12:23.112290
1739  2023-11-01 11:12:23.144190
1740  2023-11-01 11:12:23.192153
1741  2023-11-01 11:12:23.224067
1742  2023-11-01 11:12:23.269992
1743  2023-11-01 11:12:23.316820
1744  2023-11-01 11:12:23.363726
1745  2023-11-01 11:12:23.394645
1746  2023-11-01 11:12:23.441537
1747  2023-11-01 11:12:23.488363
1748  2023-11-01 11:12:23.520276
1749  2023-11-01 11:12:23.568208
1750  2023-11-01 11:12:23.600064
1751  2023-11-01 11:12:23.647979
1752  2023-11-01 11:12:23.695840
1753  2023-11-01 11:12:23.727725
1754  2023-11-01 11:12:23.774644
1755  2023-11-01 11:12:23.822470
1756  2023-11-01 11:12:23.854427
1757  2023-11-01 11:12:23.902316
1758  2023-11-01 11:12:23.934230
1759  2023-11-01 11:12:23.982084
1760  2023-11-01 11:12:24.029961
1761  2023-11-01 11:12:24.061886
1762  2023-11-01 11:12:24.109758
1763  2023-11-01 11:12:24.141774
1764  2023-11-01 11:12:24.190640
1765  2023-11-01 11:12:24.236513
1766  2023-11-01 11:12:24.268420
1767  2023-11-01 11:12:24.315309
1768  2023-11-01 11:12:24.363237
1769  2023-11-01 11:12:24.395185
1770  2023-11-01 11:12:24.441029
1771  2023-11-01 11:12:24.487903
1772  2023-11-01 11:12:24.519917
1773  2023-11-01 11:12:24.567834
1774  2023-11-01 11:12:24.599750
1775  2023-11-01 11:12:24.647576
1776  2023-11-01 11:12:24.695447
1777  2023-11-01 11:12:24.727362
1778  2023-11-01 11:12:24.775234
1779  2023-11-01 11:12:24.807209
1780  2023-11-01 11:12:24.855081
1781  2023-11-01 11:12:24.902985
1782  2023-11-01 11:12:24.933921
1783  2023-11-01 11:12:24.980745
1784  2023-11-01 11:12:25.028664
1785  2023-11-01 11:12:25.060677
1786  2023-11-01 11:12:25.108452
1787  2023-11-01 11:12:25.140404
1788  2023-11-01 11:12:25.188344
1789  2023-11-01 11:12:25.236213
1790  2023-11-01 11:12:25.268118
1791  2023-11-01 11:12:25.315956
1792  2023-11-01 11:12:25.363881
1793  2023-11-01 11:12:25.395775
1794  2023-11-01 11:12:25.443615
1795  2023-11-01 11:12:25.474533
1796  2023-11-01 11:12:25.521441
1797  2023-11-01 11:12:25.569311
1798  2023-11-01 11:12:25.601238
1799  2023-11-01 11:12:25.649231
1800  2023-11-01 11:12:25.697092
1801  2023-11-01 11:12:25.729019
1802  2023-11-01 11:12:25.775895
1803  2023-11-01 11:12:25.807907
1804  2023-11-01 11:12:25.854688
1805  2023-11-01 11:12:25.901578
1806  2023-11-01 11:12:25.933459
1807  2023-11-01 11:12:25.981311
1808  2023-11-01 11:12:26.028313
1809  2023-11-01 11:12:26.059227
1810  2023-11-01 11:12:26.107099
1811  2023-11-01 11:12:26.154926
1812  2023-11-01 11:12:26.186841
1813  2023-11-01 11:12:26.234754
1814  2023-11-01 11:12:26.266697
1815  2023-11-01 11:12:26.314549
1816  2023-11-01 11:12:26.363419
1817  2023-11-01 11:12:26.394400
1818  2023-11-01 11:12:26.443313
1819  2023-11-01 11:12:26.474366
1820  2023-11-01 11:12:26.522238
1821  2023-11-01 11:12:26.568059
1822  2023-11-01 11:12:26.599974
1823  2023-11-01 11:12:26.647846
1824  2023-11-01 11:12:26.695718
1825  2023-11-01 11:12:26.727632
1826  2023-11-01 11:12:26.775504
1827  2023-11-01 11:12:26.822379
1828  2023-11-01 11:12:26.853296
1829  2023-11-01 11:12:26.900204
1830  2023-11-01 11:12:26.932118
1831  2023-11-01 11:12:26.979958
1832  2023-11-01 11:12:27.027879
1833  2023-11-01 11:12:27.059778
1834  2023-11-01 11:12:27.105658
1835  2023-11-01 11:12:27.153527
1836  2023-11-01 11:12:27.185409
1837  2023-11-01 11:12:27.233396
1838  2023-11-01 11:12:27.265331
1839  2023-11-01 11:12:27.313150
1840  2023-11-01 11:12:27.359060
1841  2023-11-01 11:12:27.390992
1842  2023-11-01 11:12:27.438847
1843  2023-11-01 11:12:27.486725
1844  2023-11-01 11:12:27.518632
1845  2023-11-01 11:12:27.566623
1846  2023-11-01 11:12:27.613512
1847  2023-11-01 11:12:27.645412
1848  2023-11-01 11:12:27.693306
1849  2023-11-01 11:12:27.725223
1850  2023-11-01 11:12:27.773078
1851  2023-11-01 11:12:27.822006
1852  2023-11-01 11:12:27.851988
1853  2023-11-01 11:12:27.898850
1854  2023-11-01 11:12:27.946703
1855  2023-11-01 11:12:27.978679
1856  2023-11-01 11:12:28.026596
1857  2023-11-01 11:12:28.058873
1858  2023-11-01 11:12:28.106531
1859  2023-11-01 11:12:28.154368
1860  2023-11-01 11:12:28.185334
1861  2023-11-01 11:12:28.233215
1862  2023-11-01 11:12:28.279034
1863  2023-11-01 11:12:28.310949
1864  2023-11-01 11:12:28.358847
1865  2023-11-01 11:12:28.390761
1866  2023-11-01 11:12:28.438679
1867  2023-11-01 11:12:28.486505
1868  2023-11-01 11:12:28.518420
1869  2023-11-01 11:12:28.565327
1870  2023-11-01 11:12:28.613167
1871  2023-11-01 11:12:28.645083
1872  2023-11-01 11:12:28.692992
1873  2023-11-01 11:12:28.724899
1874  2023-11-01 11:12:28.772774
1875  2023-11-01 11:12:28.820614
1876  2023-11-01 11:12:28.852529
1877  2023-11-01 11:12:28.900540
1878  2023-11-01 11:12:28.932372
1879  2023-11-01 11:12:28.980323
1880  2023-11-01 11:12:29.028231
1881  2023-11-01 11:12:29.060114
1882  2023-11-01 11:12:29.106031
1883  2023-11-01 11:12:29.154041
1884  2023-11-01 11:12:29.184776
1885  2023-11-01 11:12:29.232716
1886  2023-11-01 11:12:29.279554
1887  2023-11-01 11:12:29.310475
1888  2023-11-01 11:12:29.358362
1889  2023-11-01 11:12:29.390265
1890  2023-11-01 11:12:29.438134
1891  2023-11-01 11:12:29.486019
1892  2023-11-01 11:12:29.517920
1893  2023-11-01 11:12:29.565820
1894  2023-11-01 11:12:29.613675
1895  2023-11-01 11:12:29.645578
1896  2023-11-01 11:12:29.691472
1897  2023-11-01 11:12:29.738335
1898  2023-11-01 11:12:29.769262
1899  2023-11-01 11:12:29.817136
1900  2023-11-01 11:12:29.849035
1901  2023-11-01 11:12:29.896905
1902  2023-11-01 11:12:29.944798
1903  2023-11-01 11:12:29.976722
1904  2023-11-01 11:12:30.024533
1905  2023-11-01 11:12:30.073451
1906  2023-11-01 11:12:30.104364
1907  2023-11-01 11:12:30.152233
1908  2023-11-01 11:12:30.184234
1909  2023-11-01 11:12:30.232098
1910  2023-11-01 11:12:30.279966
1911  2023-11-01 11:12:30.311896
1912  2023-11-01 11:12:30.359749
1913  2023-11-01 11:12:30.391742
1914  2023-11-01 11:12:30.439614
1915  2023-11-01 11:12:30.487644
1916  2023-11-01 11:12:30.519545
1917  2023-11-01 11:12:30.566433
1918  2023-11-01 11:12:30.613256
1919  2023-11-01 11:12:30.644174
1920  2023-11-01 11:12:30.692087
1921  2023-11-01 11:12:30.737977
1922  2023-11-01 11:12:30.768846
1923  2023-11-01 11:12:30.815814
1924  2023-11-01 11:12:30.861731
1925  2023-11-01 11:12:30.893606
1926  2023-11-01 11:12:30.941513
1927  2023-11-01 11:12:30.988398
1928  2023-11-01 11:12:31.019270
1929  2023-11-01 11:12:31.067174
1930  2023-11-01 11:12:31.099089
1931  2023-11-01 11:12:31.146992
1932  2023-11-01 11:12:31.194831
1933  2023-11-01 11:12:31.226716
1934  2023-11-01 11:12:31.274637
1935  2023-11-01 11:12:31.320499
1936  2023-11-01 11:12:31.352414
1937  2023-11-01 11:12:31.401300
1938  2023-11-01 11:12:31.433164
1939  2023-11-01 11:12:31.481079
1940  2023-11-01 11:12:31.528951
1941  2023-11-01 11:12:31.560868
1942  2023-11-01 11:12:31.608739
1943  2023-11-01 11:12:31.655708
1944  2023-11-01 11:12:31.688755
1945  2023-11-01 11:12:31.733638
1946  2023-11-01 11:12:31.765534
1947  2023-11-01 11:12:31.813372
1948  2023-11-01 11:12:31.861275
1949  2023-11-01 11:12:31.892194
1950  2023-11-01 11:12:31.939084
1951  2023-11-01 11:12:31.986908
1952  2023-11-01 11:12:32.018823
1953  2023-11-01 11:12:32.066730
1954  2023-11-01 11:12:32.113570
1955  2023-11-01 11:12:32.145485
1956  2023-11-01 11:12:32.193387
1957  2023-11-01 11:12:32.225303
1958  2023-11-01 11:12:32.273143
1959  2023-11-01 11:12:32.321047
1960  2023-11-01 11:12:32.352930
1961  2023-11-01 11:12:32.401833
1962  2023-11-01 11:12:32.432718
1963  2023-11-01 11:12:32.480746
1964  2023-11-01 11:12:32.527622
1965  2023-11-01 11:12:32.558698
1966  2023-11-01 11:12:32.606561
1967  2023-11-01 11:12:32.654534
1968  2023-11-01 11:12:32.686373
1969  2023-11-01 11:12:32.734298
1970  2023-11-01 11:12:32.766210
1971  2023-11-01 11:12:32.814033
1972  2023-11-01 11:12:32.860940
1973  2023-11-01 11:12:32.891825
1974  2023-11-01 11:12:32.937737
1975  2023-11-01 11:12:32.985623
1976  2023-11-01 11:12:33.017490
1977  2023-11-01 11:12:33.065411
1978  2023-11-01 11:12:33.113268
1979  2023-11-01 11:12:33.145193
1980  2023-11-01 11:12:33.193055
1981  2023-11-01 11:12:33.223964
1982  2023-11-01 11:12:33.271851
1983  2023-11-01 11:12:33.319761
1984  2023-11-01 11:12:33.351679
1985  2023-11-01 11:12:33.396641
1986  2023-11-01 11:12:33.444481
1987  2023-11-01 11:12:33.476395
1988  2023-11-01 11:12:33.524267
1989  2023-11-01 11:12:33.572173
1990  2023-11-01 11:12:33.604085
1991  2023-11-01 11:12:33.651926
1992  2023-11-01 11:12:33.683841
1993  2023-11-01 11:12:33.731744
1994  2023-11-01 11:12:33.779585
1995  2023-11-01 11:12:33.811500
1996  2023-11-01 11:12:33.859422
1997  2023-11-01 11:12:33.891336
1998  2023-11-01 11:12:33.939186
1999  2023-11-01 11:12:33.987139
2000  2023-11-01 11:12:34.019054
2001  2023-11-01 11:12:34.067133
2002  2023-11-01 11:12:34.098877
2003  2023-11-01 11:12:34.146712
2004  2023-11-01 11:12:34.194708
2005  2023-11-01 11:12:34.226626
2006  2023-11-01 11:12:34.274551
2007  2023-11-01 11:12:34.322423
2008  2023-11-01 11:12:34.354338
2009  2023-11-01 11:12:34.400215
2010  2023-11-01 11:12:34.432262
2011  2023-11-01 11:12:34.480102
2012  2023-11-01 11:12:34.528040
2013  2023-11-01 11:12:34.559889
2014  2023-11-01 11:12:34.607929
2015  2023-11-01 11:12:34.655668
2016  2023-11-01 11:12:34.687587
2017  2023-11-01 11:12:34.735453
2018  2023-11-01 11:12:34.767388
2019  2023-11-01 11:12:34.815331
2020  2023-11-01 11:12:34.863234
2021  2023-11-01 11:12:34.895149
2022  2023-11-01 11:12:34.940995
2023  2023-11-01 11:12:34.988901
2024  2023-11-01 11:12:35.020404
2025  2023-11-01 11:12:35.068313
2026  2023-11-01 11:12:35.100301
2027  2023-11-01 11:12:35.148149
2028  2023-11-01 11:12:35.196031
2029  2023-11-01 11:12:35.228895
2030  2023-11-01 11:12:35.275801
2031  2023-11-01 11:12:35.307731
2032  2023-11-01 11:12:35.354593
2033  2023-11-01 11:12:35.400468
2034  2023-11-01 11:12:35.447310
2035  2023-11-01 11:12:35.479227
2036  2023-11-01 11:12:35.526099
2037  2023-11-01 11:12:35.559064
2038  2023-11-01 11:12:35.606015
2039  2023-11-01 11:12:35.653904
2040  2023-11-01 11:12:35.685773
2041  2023-11-01 11:12:35.733769
2042  2023-11-01 11:12:35.765732
2043  2023-11-01 11:12:35.813530
2044  2023-11-01 11:12:35.862442
2045  2023-11-01 11:12:35.893351
2046  2023-11-01 11:12:35.941223
2047  2023-11-01 11:12:35.987065
2048  2023-11-01 11:12:36.018980
2049  2023-11-01 11:12:36.066889
2050  2023-11-01 11:12:36.113727
2051  2023-11-01 11:12:36.145755
2052  2023-11-01 11:12:36.193678
2053  2023-11-01 11:12:36.225583
2054  2023-11-01 11:12:36.271427
2055  2023-11-01 11:12:36.318294
2056  2023-11-01 11:12:36.349211
2057  2023-11-01 11:12:36.397119
2058  2023-11-01 11:12:36.444956
2059  2023-11-01 11:12:36.476902
2060  2023-11-01 11:12:36.523910
2061  2023-11-01 11:12:36.570653
2062  2023-11-01 11:12:36.602570
2063  2023-11-01 11:12:36.650406
2064  2023-11-01 11:12:36.682359
2065  2023-11-01 11:12:36.730242
2066  2023-11-01 11:12:36.777113
2067  2023-11-01 11:12:36.808017
2068  2023-11-01 11:12:36.855885
2069  2023-11-01 11:12:36.903800
2070  2023-11-01 11:12:36.934675
2071  2023-11-01 11:12:36.982545
2072  2023-11-01 11:12:37.030552
2073  2023-11-01 11:12:37.062490
2074  2023-11-01 11:12:37.110361
2075  2023-11-01 11:12:37.142235
2076  2023-11-01 11:12:37.190112
2077  2023-11-01 11:12:37.237980
2078  2023-11-01 11:12:37.269961
2079  2023-11-01 11:12:37.316768
2080  2023-11-01 11:12:37.364651
2081  2023-11-01 11:12:37.393535
2082  2023-11-01 11:12:37.439411
2083  2023-11-01 11:12:37.487283
2084  2023-11-01 11:12:37.519197
2085  2023-11-01 11:12:37.567070
2086  2023-11-01 11:12:37.612947
2087  2023-11-01 11:12:37.644861
2088  2023-11-01 11:12:37.692735
2089  2023-11-01 11:12:37.725689
2090  2023-11-01 11:12:37.772520
2091  2023-11-01 11:12:37.820393
2092  2023-11-01 11:12:37.850312
2093  2023-11-01 11:12:37.898217
2094  2023-11-01 11:12:37.946089
2095  2023-11-01 11:12:37.978005
2096  2023-11-01 11:12:38.023898
2097  2023-11-01 11:12:38.071757
2098  2023-11-01 11:12:38.103669
2099  2023-11-01 11:12:38.150546
2100  2023-11-01 11:12:38.182460
2101  2023-11-01 11:12:38.230335
2102  2023-11-01 11:12:38.278169
2103  2023-11-01 11:12:38.310118
2104  2023-11-01 11:12:38.358008
2105  2023-11-01 11:12:38.404862
2106  2023-11-01 11:12:38.435789
2107  2023-11-01 11:12:38.483660
2108  2023-11-01 11:12:38.529500
2109  2023-11-01 11:12:38.560416
2110  2023-11-01 11:12:38.607290
2111  2023-11-01 11:12:38.655218
2112  2023-11-01 11:12:38.687076
2113  2023-11-01 11:12:38.733960
2114  2023-11-01 11:12:38.779859
2115  2023-11-01 11:12:38.810746
2116  2023-11-01 11:12:38.856657
2117  2023-11-01 11:12:38.904536
2118  2023-11-01 11:12:38.936449
2119  2023-11-01 11:12:38.984350
2120  2023-11-01 11:12:39.016236
2121  2023-11-01 11:12:39.064212
2122  2023-11-01 11:12:39.112080
2123  2023-11-01 11:12:39.143979
2124  2023-11-01 11:12:39.191862
2125  2023-11-01 11:12:39.223735
2126  2023-11-01 11:12:39.270644
2127  2023-11-01 11:12:39.317517
2128  2023-11-01 11:12:39.349439
2129  2023-11-01 11:12:39.397303
2130  2023-11-01 11:12:39.444276
2131  2023-11-01 11:12:39.475157
2132  2023-11-01 11:12:39.523063
2133  2023-11-01 11:12:39.570934
2134  2023-11-01 11:12:39.602863
2135  2023-11-01 11:12:39.650734
2136  2023-11-01 11:12:39.696600
2137  2023-11-01 11:12:39.728483
2138  2023-11-01 11:12:39.776352
2139  2023-11-01 11:12:39.808267
2140  2023-11-01 11:12:39.856177
2141  2023-11-01 11:12:39.904013
2142  2023-11-01 11:12:39.934967
2143  2023-11-01 11:12:39.981803
2144  2023-11-01 11:12:40.029722
2145  2023-11-01 11:12:40.061590
2146  2023-11-01 11:12:40.109462
2147  2023-11-01 11:12:40.140379
2148  2023-11-01 11:12:40.187300
2149  2023-11-01 11:12:40.235158
2150  2023-11-01 11:12:40.267076
2151  2023-11-01 11:12:40.314948
2152  2023-11-01 11:12:40.362785
2153  2023-11-01 11:12:40.394744
2154  2023-11-01 11:12:40.442573
2155  2023-11-01 11:12:40.474534
2156  2023-11-01 11:12:40.521362
2157  2023-11-01 11:12:40.569280
2158  2023-11-01 11:12:40.601292
2159  2023-11-01 11:12:40.648181
2160  2023-11-01 11:12:40.696102
2161  2023-11-01 11:12:40.727021
2162  2023-11-01 11:12:40.773979
2163  2023-11-01 11:12:40.821853
2164  2023-11-01 11:12:40.853826
2165  2023-11-01 11:12:40.901774
2166  2023-11-01 11:12:40.933701
2167  2023-11-01 11:12:40.980600
2168  2023-11-01 11:12:41.028513
2169  2023-11-01 11:12:41.060556
2170  2023-11-01 11:12:41.108555
2171  2023-11-01 11:12:41.140453
2172  2023-11-01 11:12:41.187365
2173  2023-11-01 11:12:41.235171
2174  2023-11-01 11:12:41.280048
2175  2023-11-01 11:12:41.311963
2176  2023-11-01 11:12:41.358867
2177  2023-11-01 11:12:41.405810
2178  2023-11-01 11:12:41.437724
2179  2023-11-01 11:12:41.483603
2180  2023-11-01 11:12:41.515517
2181  2023-11-01 11:12:41.561423
2182  2023-11-01 11:12:41.609319
2183  2023-11-01 11:12:41.641296
2184  2023-11-01 11:12:41.688105
2185  2023-11-01 11:12:41.734974
2186  2023-11-01 11:12:41.766876
2187  2023-11-01 11:12:41.814759
2188  2023-11-01 11:12:41.862727
2189  2023-11-01 11:12:41.894635
2190  2023-11-01 11:12:41.942519
2191  2023-11-01 11:12:41.974419
2192  2023-11-01 11:12:42.022300
2193  2023-11-01 11:12:42.070155
2194  2023-11-01 11:12:42.102097
2195  2023-11-01 11:12:42.148958
2196  2023-11-01 11:12:42.196031
2197  2023-11-01 11:12:42.227935
2198  2023-11-01 11:12:42.275805
2199  2023-11-01 11:12:42.307740
2200  2023-11-01 11:12:42.355561
2201  2023-11-01 11:12:42.404499
2202  2023-11-01 11:12:42.435386
2203  2023-11-01 11:12:42.483272
2204  2023-11-01 11:12:42.530130
2205  2023-11-01 11:12:42.563053
2206  2023-11-01 11:12:42.610880
2207  2023-11-01 11:12:42.655795
2208  2023-11-01 11:12:42.687673
2209  2023-11-01 11:12:42.736591
2210  2023-11-01 11:12:42.767585
2211  2023-11-01 11:12:42.815452
2212  2023-11-01 11:12:42.863355
2213  2023-11-01 11:12:42.894243
2214  2023-11-01 11:12:42.942114
2215  2023-11-01 11:12:42.974029
2216  2023-11-01 11:12:43.019906
2217  2023-11-01 11:12:43.067794
2218  2023-11-01 11:12:43.099703
2219  2023-11-01 11:12:43.147565
2220  2023-11-01 11:12:43.195437
2221  2023-11-01 11:12:43.227352
2222  2023-11-01 11:12:43.275224
2223  2023-11-01 11:12:43.321274
2224  2023-11-01 11:12:43.353016
2225  2023-11-01 11:12:43.400918
2226  2023-11-01 11:12:43.432803
2227  2023-11-01 11:12:43.478710
2228  2023-11-01 11:12:43.526553
2229  2023-11-01 11:12:43.558467
2230  2023-11-01 11:12:43.606374
2231  2023-11-01 11:12:43.654250
2232  2023-11-01 11:12:43.686173
2233  2023-11-01 11:12:43.734065
2234  2023-11-01 11:12:43.766010
2235  2023-11-01 11:12:43.812718
2236  2023-11-01 11:12:43.859668
2237  2023-11-01 11:12:43.890656
2238  2023-11-01 11:12:43.939539
2239  2023-11-01 11:12:43.984720
2240  2023-11-01 11:12:44.016645
2241  2023-11-01 11:12:44.065499
2242  2023-11-01 11:12:44.111342
2243  2023-11-01 11:12:44.142347
2244  2023-11-01 11:12:44.190219
2245  2023-11-01 11:12:44.238091
2246  2023-11-01 11:12:44.270038
2247  2023-11-01 11:12:44.317878
2248  2023-11-01 11:12:44.349912
2249  2023-11-01 11:12:44.397665
2250  2023-11-01 11:12:44.445536
2251  2023-11-01 11:12:44.477451
2252  2023-11-01 11:12:44.525380
2253  2023-11-01 11:12:44.571201
2254  2023-11-01 11:12:44.603115
2255  2023-11-01 11:12:44.650987
2256  2023-11-01 11:12:44.681906
2257  2023-11-01 11:12:44.728925
2258  2023-11-01 11:12:44.776697
2259  2023-11-01 11:12:44.808614
2260  2023-11-01 11:12:44.856486
2261  2023-11-01 11:12:44.902361
2262  2023-11-01 11:12:44.934260
2263  2023-11-01 11:12:44.982102
2264  2023-11-01 11:12:45.030031
2265  2023-11-01 11:12:45.061936
2266  2023-11-01 11:12:45.109810
2267  2023-11-01 11:12:45.141714
2268  2023-11-01 11:12:45.189594
2269  2023-11-01 11:12:45.236425
2270  2023-11-01 11:12:45.267373
2271  2023-11-01 11:12:45.314248
2272  2023-11-01 11:12:45.358100
2273  2023-11-01 11:12:45.404972
2274  2023-11-01 11:12:45.435890
2275  2023-11-01 11:12:45.483762
2276  2023-11-01 11:12:45.515677
2277  2023-11-01 11:12:45.561695
2278  2023-11-01 11:12:45.609437
2279  2023-11-01 11:12:45.641341
2280  2023-11-01 11:12:45.689213
2281  2023-11-01 11:12:45.737124
2282  2023-11-01 11:12:45.768045
2283  2023-11-01 11:12:45.814909
2284  2023-11-01 11:12:45.862824
2285  2023-11-01 11:12:45.894704
2286  2023-11-01 11:12:45.942603
2287  2023-11-01 11:12:45.974508
2288  2023-11-01 11:12:46.021399
2289  2023-11-01 11:12:46.067243
2290  2023-11-01 11:12:46.114246
2291  2023-11-01 11:12:46.144167
2292  2023-11-01 11:12:46.192986
2293  2023-11-01 11:12:46.223956
2294  2023-11-01 11:12:46.272901
2295  2023-11-01 11:12:46.319822
2296  2023-11-01 11:12:46.351742
2297  2023-11-01 11:12:46.399608
2298  2023-11-01 11:12:46.447477
2299  2023-11-01 11:12:46.478386
2300  2023-11-01 11:12:46.526256
2301  2023-11-01 11:12:46.558177
2302  2023-11-01 11:12:46.606120
2303  2023-11-01 11:12:46.656022
2304  2023-11-01 11:12:46.685895
2305  2023-11-01 11:12:46.734922
2306  2023-11-01 11:12:46.765884
2307  2023-11-01 11:12:46.812712
2308  2023-11-01 11:12:46.859586
2309  2023-11-01 11:12:46.890504
2310  2023-11-01 11:12:46.936414
2311  2023-11-01 11:12:46.983256
2312  2023-11-01 11:12:47.015219
2313  2023-11-01 11:12:47.063043
2314  2023-11-01 11:12:47.110967
2315  2023-11-01 11:12:47.142862
2316  2023-11-01 11:12:47.190704
2317  2023-11-01 11:12:47.237620
2318  2023-11-01 11:12:47.267544
2319  2023-11-01 11:12:47.315400
2320  2023-11-01 11:12:47.363245
2321  2023-11-01 11:12:47.395157
2322  2023-11-01 11:12:47.443079
2323  2023-11-01 11:12:47.474977
2324  2023-11-01 11:12:47.521860
2325  2023-11-01 11:12:47.570717
2326  2023-11-01 11:12:47.599643
2327  2023-11-01 11:12:47.648526
2328  2023-11-01 11:12:47.696394
2329  2023-11-01 11:12:47.727294
2330  2023-11-01 11:12:47.775171
2331  2023-11-01 11:12:47.824043
2332  2023-11-01 11:12:47.854979
2333  2023-11-01 11:12:47.900805
2334  2023-11-01 11:12:47.946681
2335  2023-11-01 11:12:47.977599
2336  2023-11-01 11:12:48.025471
2337  2023-11-01 11:12:48.057386
2338  2023-11-01 11:12:48.105258
2339  2023-11-01 11:12:48.153130
2340  2023-11-01 11:12:48.185044
2341  2023-11-01 11:12:48.232917
2342  2023-11-01 11:12:48.279843
2343  2023-11-01 11:12:48.310742
2344  2023-11-01 11:12:48.356631
2345  2023-11-01 11:12:48.403462
2346  2023-11-01 11:12:48.435451
2347  2023-11-01 11:12:48.482401
2348  2023-11-01 11:12:48.529410
2349  2023-11-01 11:12:48.560299
2350  2023-11-01 11:12:48.608156
2351  2023-11-01 11:12:48.655054
2352  2023-11-01 11:12:48.686926
2353  2023-11-01 11:12:48.735784
2354  2023-11-01 11:12:48.767698
2355  2023-11-01 11:12:48.814605
2356  2023-11-01 11:12:48.863479
2357  2023-11-01 11:12:48.895399
2358  2023-11-01 11:12:48.942276
2359  2023-11-01 11:12:48.991131
2360  2023-11-01 11:12:49.021146
2361  2023-11-01 11:12:49.069898
2362  2023-11-01 11:12:49.100808
2363  2023-11-01 11:12:49.148804
2364  2023-11-01 11:12:49.194681
2365  2023-11-01 11:12:49.226596
2366  2023-11-01 11:12:49.272508
2367  2023-11-01 11:12:49.320346
2368  2023-11-01 11:12:49.352260
2369  2023-11-01 11:12:49.400132
2370  2023-11-01 11:12:49.432092
2371  2023-11-01 11:12:49.479950
2372  2023-11-01 11:12:49.527791
2373  2023-11-01 11:12:49.559706
2374  2023-11-01 11:12:49.605741
2375  2023-11-01 11:12:49.653455
2376  2023-11-01 11:12:49.685402
2377  2023-11-01 11:12:49.732276
2378  2023-11-01 11:12:49.779161
2379  2023-11-01 11:12:49.811089
2380  2023-11-01 11:12:49.858945
2381  2023-11-01 11:12:49.890821
2382  2023-11-01 11:12:49.938728
2383  2023-11-01 11:12:49.986600
2384  2023-11-01 11:12:50.018516
2385  2023-11-01 11:12:50.066359
2386  2023-11-01 11:12:50.113259
2387  2023-11-01 11:12:50.144177
2388  2023-11-01 11:12:50.192051
2389  2023-11-01 11:12:50.237925
2390  2023-11-01 11:12:50.269857
2391  2023-11-01 11:12:50.317730
2392  2023-11-01 11:12:50.349647
2393  2023-11-01 11:12:50.397503
2394  2023-11-01 11:12:50.446356
2395  2023-11-01 11:12:50.477289
2396  2023-11-01 11:12:50.524129
2397  2023-11-01 11:12:50.574041
2398  2023-11-01 11:12:50.604015
2399  2023-11-01 11:12:50.651887
2400  2023-11-01 11:12:50.682805
2401  2023-11-01 11:12:50.728570
2402  2023-11-01 11:12:50.775479
2403  2023-11-01 11:12:50.807408
2404  2023-11-01 11:12:50.855236
2405  2023-11-01 11:12:50.903155
2406  2023-11-01 11:12:50.935062
2407  2023-11-01 11:12:50.981893
2408  2023-11-01 11:12:51.028799
2409  2023-11-01 11:12:51.060718
2410  2023-11-01 11:12:51.108601
2411  2023-11-01 11:12:51.140515
2412  2023-11-01 11:12:51.188374
2413  2023-11-01 11:12:51.236260
2414  2023-11-01 11:12:51.268197
2415  2023-11-01 11:12:51.316071
2416  2023-11-01 11:12:51.361947
2417  2023-11-01 11:12:51.391866
2418  2023-11-01 11:12:51.439911
2419  2023-11-01 11:12:51.486736
2420  2023-11-01 11:12:51.518657
2421  2023-11-01 11:12:51.565555
2422  2023-11-01 11:12:51.613414
2423  2023-11-01 11:12:51.645329
2424  2023-11-01 11:12:51.693183
2425  2023-11-01 11:12:51.725106
2426  2023-11-01 11:12:51.772988
2427  2023-11-01 11:12:51.820863
2428  2023-11-01 11:12:51.852760
2429  2023-11-01 11:12:51.901599
2430  2023-11-01 11:12:51.947477
2431  2023-11-01 11:12:51.979387
2432  2023-11-01 11:12:52.027259
2433  2023-11-01 11:12:52.059174
2434  2023-11-01 11:12:52.107046
2435  2023-11-01 11:12:52.154918
2436  2023-11-01 11:12:52.186983
2437  2023-11-01 11:12:52.233983
2438  2023-11-01 11:12:52.279963
2439  2023-11-01 11:12:52.310913
2440  2023-11-01 11:12:52.358836
2441  2023-11-01 11:12:52.390750
2442  2023-11-01 11:12:52.436662
2443  2023-11-01 11:12:52.484500
2444  2023-11-01 11:12:52.516448
2445  2023-11-01 11:12:52.564318
2446  2023-11-01 11:12:52.612191
2447  2023-11-01 11:12:52.644110
2448  2023-11-01 11:12:52.691947
2449  2023-11-01 11:12:52.723862
2450  2023-11-01 11:12:52.771783
2451  2023-11-01 11:12:52.817655
2452  2023-11-01 11:12:52.849556
2453  2023-11-01 11:12:52.897431
2454  2023-11-01 11:12:52.945299
2455  2023-11-01 11:12:52.978182
2456  2023-11-01 11:12:53.024102
2457  2023-11-01 11:12:53.070980
2458  2023-11-01 11:12:53.103923
2459  2023-11-01 11:12:53.150853
2460  2023-11-01 11:12:53.182743
2461  2023-11-01 11:12:53.230633
2462  2023-11-01 11:12:53.278498
2463  2023-11-01 11:12:53.310403
2464  2023-11-01 11:12:53.358243
2465  2023-11-01 11:12:53.404145
2466  2023-11-01 11:12:53.437033
2467  2023-11-01 11:12:53.483954
2468  2023-11-01 11:12:53.515863
2469  2023-11-01 11:12:53.563742
2470  2023-11-01 11:12:53.609614
2471  2023-11-01 11:12:53.640529
2472  2023-11-01 11:12:53.688359
2473  2023-11-01 11:12:53.734282
2474  2023-11-01 11:12:53.766184
2475  2023-11-01 11:12:53.814280
2476  2023-11-01 11:12:53.862089
2477  2023-11-01 11:12:53.894036
2478  2023-11-01 11:12:53.941950
2479  2023-11-01 11:12:53.973870
2480  2023-11-01 11:12:54.021695
2481  2023-11-01 11:12:54.069612
2482  2023-11-01 11:12:54.099487
2483  2023-11-01 11:12:54.147391
2484  2023-11-01 11:12:54.195295
2485  2023-11-01 11:12:54.226265
2486  2023-11-01 11:12:54.272157
2487  2023-11-01 11:12:54.318020
2488  2023-11-01 11:12:54.349948
2489  2023-11-01 11:12:54.397810
2490  2023-11-01 11:12:54.445691
2491  2023-11-01 11:12:54.477592
2492  2023-11-01 11:12:54.524436
2493  2023-11-01 11:12:54.571361
2494  2023-11-01 11:12:54.603262
2495  2023-11-01 11:12:54.652233
2496  2023-11-01 11:12:54.683250
2497  2023-11-01 11:12:54.732160
2498  2023-11-01 11:12:54.777965
2499  2023-11-01 11:12:54.809880
2500  2023-11-01 11:12:54.857752
2501  2023-11-01 11:12:54.905624
2502  2023-11-01 11:12:54.937539
2503  2023-11-01 11:12:54.983609
2504  2023-11-01 11:12:55.015523
2505  2023-11-01 11:12:55.062433
2506  2023-11-01 11:12:55.109319
2507  2023-11-01 11:12:55.141234
2508  2023-11-01 11:12:55.189059
2509  2023-11-01 11:12:55.236974
2510  2023-11-01 11:12:55.268885
2511  2023-11-01 11:12:55.316718
2512  2023-11-01 11:12:55.362628
2513  2023-11-01 11:12:55.393526
2514  2023-11-01 11:12:55.441480
2515  2023-11-01 11:12:55.488357
2516  2023-11-01 11:12:55.519270
2517  2023-11-01 11:12:55.567152
2518  2023-11-01 11:12:55.599058
2519  2023-11-01 11:12:55.646930
2520  2023-11-01 11:12:55.694834
2521  2023-11-01 11:12:55.726751
2522  2023-11-01 11:12:55.774603
2523  2023-11-01 11:12:55.822465
2524  2023-11-01 11:12:55.854389
2525  2023-11-01 11:12:55.901263
2526  2023-11-01 11:12:55.933141
2527  2023-11-01 11:12:55.979051
2528  2023-11-01 11:12:56.026933
2529  2023-11-01 11:12:56.071809
2530  2023-11-01 11:12:56.103717
2531  2023-11-01 11:12:56.151549
2532  2023-11-01 11:12:56.183667
2533  2023-11-01 11:12:56.231438
2534  2023-11-01 11:12:56.277351
2535  2023-11-01 11:12:56.309276
2536  2023-11-01 11:12:56.356105
2537  2023-11-01 11:12:56.403031
2538  2023-11-01 11:12:56.434943
2539  2023-11-01 11:12:56.482766
2540  2023-11-01 11:12:56.530690
2541  2023-11-01 11:12:56.562588
2542  2023-11-01 11:12:56.610461
2543  2023-11-01 11:12:56.642390
2544  2023-11-01 11:12:56.690365
2545  2023-11-01 11:12:56.738263
2546  2023-11-01 11:12:56.770123
2547  2023-11-01 11:12:56.818040
2548  2023-11-01 11:12:56.849939
2549  2023-11-01 11:12:56.897781
2550  2023-11-01 11:12:56.945795
2551  2023-11-01 11:12:56.976681
2552  2023-11-01 11:12:57.024553
2553  2023-11-01 11:12:57.072471
2554  2023-11-01 11:12:57.104340
2555  2023-11-01 11:12:57.152242
2556  2023-11-01 11:12:57.183163
2557  2023-11-01 11:12:57.230097
2558  2023-11-01 11:12:57.277873
2559  2023-11-01 11:12:57.309860
2560  2023-11-01 11:12:57.357737
2561  2023-11-01 11:12:57.405609
2562  2023-11-01 11:12:57.437519
2563  2023-11-01 11:12:57.485406
2564  2023-11-01 11:12:57.517468
2565  2023-11-01 11:12:57.565195
2566  2023-11-01 11:12:57.613060
2567  2023-11-01 11:12:57.643965
2568  2023-11-01 11:12:57.691843
2569  2023-11-01 11:12:57.723772
2570  2023-11-01 11:12:57.772603
2571  2023-11-01 11:12:57.819526
2572  2023-11-01 11:12:57.851423
2573  2023-11-01 11:12:57.900257
2574  2023-11-01 11:12:57.947174
2575  2023-11-01 11:12:57.980092
2576  2023-11-01 11:12:58.026912
2577  2023-11-01 11:12:58.059858
2578  2023-11-01 11:12:58.105828
2579  2023-11-01 11:12:58.153798
2580  2023-11-01 11:12:58.185714
2581  2023-11-01 11:12:58.233704
2582  2023-11-01 11:12:58.281710
2583  2023-11-01 11:12:58.313578
2584  2023-11-01 11:12:58.361463
2585  2023-11-01 11:12:58.393381
2586  2023-11-01 11:12:58.440206
2587  2023-11-01 11:12:58.488137
2588  2023-11-01 11:12:58.521256
2589  2023-11-01 11:12:58.568080
2590  2023-11-01 11:12:58.612995
2591  2023-11-01 11:12:58.643908
2592  2023-11-01 11:12:58.691749
2593  2023-11-01 11:12:58.723735
2594  2023-11-01 11:12:58.771783
2595  2023-11-01 11:12:58.819479
2596  2023-11-01 11:12:58.850397
2597  2023-11-01 11:12:58.898311
2598  2023-11-01 11:12:58.946172
2599  2023-11-01 11:12:58.978086
2600  2023-11-01 11:12:59.024961
2601  2023-11-01 11:12:59.056875
2602  2023-11-01 11:12:59.104718
2603  2023-11-01 11:12:59.151624
2604  2023-11-01 11:12:59.182546
2605  2023-11-01 11:12:59.230441
2606  2023-11-01 11:12:59.278283
2607  2023-11-01 11:12:59.310169
2608  2023-11-01 11:12:59.358043
2609  2023-11-01 11:12:59.405951
2610  2023-11-01 11:12:59.436873
2611  2023-11-01 11:12:59.484703
2612  2023-11-01 11:12:59.515631
2613  2023-11-01 11:12:59.562605
2614  2023-11-01 11:12:59.609449
2615  2023-11-01 11:12:59.655323
2616  2023-11-01 11:12:59.686411
2617  2023-11-01 11:12:59.734283
2618  2023-11-01 11:12:59.766198
2619  2023-11-01 11:12:59.812229
2620  2023-11-01 11:12:59.857982
2621  2023-11-01 11:12:59.904829
2622  2023-11-01 11:12:59.935781
2623  2023-11-01 11:12:59.983621
2624  2023-11-01 11:13:00.015580
2625  2023-11-01 11:13:00.063419
2626  2023-11-01 11:13:00.109297
2627  2023-11-01 11:13:00.140213
2628  2023-11-01 11:13:00.187188
2629  2023-11-01 11:13:00.235066
2630  2023-11-01 11:13:00.266973
2631  2023-11-01 11:13:00.314861
2632  2023-11-01 11:13:00.362736
2633  2023-11-01 11:13:00.394634
2634  2023-11-01 11:13:00.442518
2635  2023-11-01 11:13:00.474430
2636  2023-11-01 11:13:00.522376
2637  2023-11-01 11:13:00.571245
2638  2023-11-01 11:13:00.602154
2639  2023-11-01 11:13:00.650996
2640  2023-11-01 11:13:00.682951
2641  2023-11-01 11:13:00.730823
2642  2023-11-01 11:13:00.776695
2643  2023-11-01 11:13:00.808604
2644  2023-11-01 11:13:00.854588
2645  2023-11-01 11:13:00.901356
2646  2023-11-01 11:13:00.933272
2647  2023-11-01 11:13:00.981144
2648  2023-11-01 11:13:01.027023
2649  2023-11-01 11:13:01.058934
2650  2023-11-01 11:13:01.105779
2651  2023-11-01 11:13:01.152653
2652  2023-11-01 11:13:01.182573
2653  2023-11-01 11:13:01.230445
2654  2023-11-01 11:13:01.276323
2655  2023-11-01 11:13:01.307274
2656  2023-11-01 11:13:01.354149
2657  2023-11-01 11:13:01.402028
2658  2023-11-01 11:13:01.431954
2659  2023-11-01 11:13:01.479810
2660  2023-11-01 11:13:01.525656
2661  2023-11-01 11:13:01.557571
2662  2023-11-01 11:13:01.604481
2663  2023-11-01 11:13:01.652318
2664  2023-11-01 11:13:01.683346
2665  2023-11-01 11:13:01.730256
2666  2023-11-01 11:13:01.778133
2667  2023-11-01 11:13:01.810038
2668  2023-11-01 11:13:01.857912
2669  2023-11-01 11:13:01.904756
2670  2023-11-01 11:13:01.936704
2671  2023-11-01 11:13:01.984542
2672  2023-11-01 11:13:02.030450
2673  2023-11-01 11:13:02.063333
2674  2023-11-01 11:13:02.109285
2675  2023-11-01 11:13:02.141164
2676  2023-11-01 11:13:02.190053
2677  2023-11-01 11:13:02.234905
2678  2023-11-01 11:13:02.265843
2679  2023-11-01 11:13:02.313697
2680  2023-11-01 11:13:02.361586
2681  2023-11-01 11:13:02.393480
2682  2023-11-01 11:13:02.439370
2683  2023-11-01 11:13:02.487236
2684  2023-11-01 11:13:02.519148
2685  2023-11-01 11:13:02.568085
2686  2023-11-01 11:13:02.599933
2687  2023-11-01 11:13:02.645806
2688  2023-11-01 11:13:02.692649
2689  2023-11-01 11:13:02.724564
2690  2023-11-01 11:13:02.772483
2691  2023-11-01 11:13:02.820308
2692  2023-11-01 11:13:02.852223
2693  2023-11-01 11:13:02.900213
2694  2023-11-01 11:13:02.932040
2695  2023-11-01 11:13:02.978919
2696  2023-11-01 11:13:03.025790
2697  2023-11-01 11:13:03.057705
2698  2023-11-01 11:13:03.105577
2699  2023-11-01 11:13:03.152421
2700  2023-11-01 11:13:03.183338
2701  2023-11-01 11:13:03.231247
2702  2023-11-01 11:13:03.280140
2703  2023-11-01 11:13:03.309070
2704  2023-11-01 11:13:03.357930
2705  2023-11-01 11:13:03.405779
2706  2023-11-01 11:13:03.436695
2707  2023-11-01 11:13:03.484565
2708  2023-11-01 11:13:03.516496
2709  2023-11-01 11:13:03.564369
2710  2023-11-01 11:13:03.612225
2711  2023-11-01 11:13:03.644153
2712  2023-11-01 11:13:03.692016
2713  2023-11-01 11:13:03.723948
2714  2023-11-01 11:13:03.771801
2715  2023-11-01 11:13:03.819674
2716  2023-11-01 11:13:03.851594
2717  2023-11-01 11:13:03.898363
2718  2023-11-01 11:13:03.946349
2719  2023-11-01 11:13:03.978240
2720  2023-11-01 11:13:04.025118
2721  2023-11-01 11:13:04.071031
2722  2023-11-01 11:13:04.102906
2723  2023-11-01 11:13:04.150780
2724  2023-11-01 11:13:04.196656
2725  2023-11-01 11:13:04.227577
2726  2023-11-01 11:13:04.275446
2727  2023-11-01 11:13:04.307364
2728  2023-11-01 11:13:04.355202
2729  2023-11-01 11:13:04.403105
2730  2023-11-01 11:13:04.435022
2731  2023-11-01 11:13:04.482870
2732  2023-11-01 11:13:04.528750
2733  2023-11-01 11:13:04.560662
2734  2023-11-01 11:13:04.608536
2735  2023-11-01 11:13:04.640449
2736  2023-11-01 11:13:04.688485
2737  2023-11-01 11:13:04.736230
2738  2023-11-01 11:13:04.767182
2739  2023-11-01 11:13:04.814022
2740  2023-11-01 11:13:04.861959
2741  2023-11-01 11:13:04.893810
2742  2023-11-01 11:13:04.941737
2743  2023-11-01 11:13:04.987634
2744  2023-11-01 11:13:05.019570
2745  2023-11-01 11:13:05.067386
2746  2023-11-01 11:13:05.113263
2747  2023-11-01 11:13:05.145178
2748  2023-11-01 11:13:05.193053
2749  2023-11-01 11:13:05.225102
2750  2023-11-01 11:13:05.273037
2751  2023-11-01 11:13:05.320855
2752  2023-11-01 11:13:05.352913
2753  2023-11-01 11:13:05.400642
2754  2023-11-01 11:13:05.432619
2755  2023-11-01 11:13:05.480492
2756  2023-11-01 11:13:05.528450
2757  2023-11-01 11:13:05.560415
2758  2023-11-01 11:13:05.606285
2759  2023-11-01 11:13:05.654165
2760  2023-11-01 11:13:05.686064
2761  2023-11-01 11:13:05.733975
2762  2023-11-01 11:13:05.765888
2763  2023-11-01 11:13:05.813763
2764  2023-11-01 11:13:05.861675
2765  2023-11-01 11:13:05.893591
2766  2023-11-01 11:13:05.939484
2767  2023-11-01 11:13:05.987470
2768  2023-11-01 11:13:06.019221
2769  2023-11-01 11:13:06.066122
2770  2023-11-01 11:13:06.113014
2771  2023-11-01 11:13:06.144919
2772  2023-11-01 11:13:06.190792
2773  2023-11-01 11:13:06.238665
2774  2023-11-01 11:13:06.270584
2775  2023-11-01 11:13:06.317469
2776  2023-11-01 11:13:06.363351
2777  2023-11-01 11:13:06.393282
2778  2023-11-01 11:13:06.440120
2779  2023-11-01 11:13:06.488047
2780  2023-11-01 11:13:06.519929
2781  2023-11-01 11:13:06.567763
2782  2023-11-01 11:13:06.599771
2783  2023-11-01 11:13:06.647738
2784  2023-11-01 11:13:06.695663
2785  2023-11-01 11:13:06.727545
2786  2023-11-01 11:13:06.774457
2787  2023-11-01 11:13:06.821329
2788  2023-11-01 11:13:06.853273
2789  2023-11-01 11:13:06.901113
2790  2023-11-01 11:13:06.934063
2791  2023-11-01 11:13:06.980898
2792  2023-11-01 11:13:07.029770
2793  2023-11-01 11:13:07.061686
2794  2023-11-01 11:13:07.109530
2795  2023-11-01 11:13:07.141446
2796  2023-11-01 11:13:07.186319
2797  2023-11-01 11:13:07.233227
2798  2023-11-01 11:13:07.280106
2799  2023-11-01 11:13:07.310004
2800  2023-11-01 11:13:07.355897
2801  2023-11-01 11:13:07.403794
2802  2023-11-01 11:13:07.435741
2803  2023-11-01 11:13:07.483581
2804  2023-11-01 11:13:07.515605
2805  2023-11-01 11:13:07.563431
2806  2023-11-01 11:13:07.611402
2807  2023-11-01 11:13:07.643318
2808  2023-11-01 11:13:07.691309
2809  2023-11-01 11:13:07.739061
2810  2023-11-01 11:13:07.770975
2811  2023-11-01 11:13:07.818846
2812  2023-11-01 11:13:07.850765
2813  2023-11-01 11:13:07.898635
2814  2023-11-01 11:13:07.944514
2815  2023-11-01 11:13:07.976428
2816  2023-11-01 11:13:08.022321
2817  2023-11-01 11:13:08.071143
2818  2023-11-01 11:13:08.103058
2819  2023-11-01 11:13:08.150969
2820  2023-11-01 11:13:08.182877
2821  2023-11-01 11:13:08.228752
2822  2023-11-01 11:13:08.276627
2823  2023-11-01 11:13:08.308542
2824  2023-11-01 11:13:08.356409
2825  2023-11-01 11:13:08.404286
2826  2023-11-01 11:13:08.436202
2827  2023-11-01 11:13:08.483071
2828  2023-11-01 11:13:08.529946
2829  2023-11-01 11:13:08.561862
2830  2023-11-01 11:13:08.608738
2831  2023-11-01 11:13:08.640650
2832  2023-11-01 11:13:08.688592
2833  2023-11-01 11:13:08.736364
2834  2023-11-01 11:13:08.768327
2835  2023-11-01 11:13:08.816151
2836  2023-11-01 11:13:08.864025
2837  2023-11-01 11:13:08.894972
2838  2023-11-01 11:13:08.941916
2839  2023-11-01 11:13:08.987821
2840  2023-11-01 11:13:09.019736
2841  2023-11-01 11:13:09.067610
2842  2023-11-01 11:13:09.099525
2843  2023-11-01 11:13:09.147398
2844  2023-11-01 11:13:09.193272
2845  2023-11-01 11:13:09.225187
2846  2023-11-01 11:13:09.273062
2847  2023-11-01 11:13:09.320936
2848  2023-11-01 11:13:09.352712
2849  2023-11-01 11:13:09.400629
2850  2023-11-01 11:13:09.432547
2851  2023-11-01 11:13:09.480416
2852  2023-11-01 11:13:09.528303
2853  2023-11-01 11:13:09.560172
2854  2023-11-01 11:13:09.607077
2855  2023-11-01 11:13:09.654965
2856  2023-11-01 11:13:09.686864
2857  2023-11-01 11:13:09.734739
2858  2023-11-01 11:13:09.766656
2859  2023-11-01 11:13:09.814522
2860  2023-11-01 11:13:09.862395
2861  2023-11-01 11:13:09.894352
2862  2023-11-01 11:13:09.942350
2863  2023-11-01 11:13:09.989363
2864  2023-11-01 11:13:10.020408
2865  2023-11-01 11:13:10.068249
2866  2023-11-01 11:13:10.113227
2867  2023-11-01 11:13:10.143900
2868  2023-11-01 11:13:10.191772
2869  2023-11-01 11:13:10.223688
2870  2023-11-01 11:13:10.269595
2871  2023-11-01 11:13:10.317473
2872  2023-11-01 11:13:10.349388
2873  2023-11-01 11:13:10.397253
2874  2023-11-01 11:13:10.445230
2875  2023-11-01 11:13:10.477332
2876  2023-11-01 11:13:10.526036
2877  2023-11-01 11:13:10.556931
2878  2023-11-01 11:13:10.602808
2879  2023-11-01 11:13:10.650680
2880  2023-11-01 11:13:10.682595
2881  2023-11-01 11:13:10.729505
2882  2023-11-01 11:13:10.776375
2883  2023-11-01 11:13:10.808261
2884  2023-11-01 11:13:10.855180
2885  2023-11-01 11:13:10.902009
2886  2023-11-01 11:13:10.933951
2887  2023-11-01 11:13:10.981829
2888  2023-11-01 11:13:11.029701
2889  2023-11-01 11:13:11.061618
2890  2023-11-01 11:13:11.109523
2891  2023-11-01 11:13:11.155453
2892  2023-11-01 11:13:11.187346
2893  2023-11-01 11:13:11.233225
2894  2023-11-01 11:13:11.278074
2895  2023-11-01 11:13:11.310022
2896  2023-11-01 11:13:11.357902
2897  2023-11-01 11:13:11.405732
2898  2023-11-01 11:13:11.437682
2899  2023-11-01 11:13:11.484521
2900  2023-11-01 11:13:11.516435
2901  2023-11-01 11:13:11.564307
2902  2023-11-01 11:13:11.612180
2903  2023-11-01 11:13:11.644094
2904  2023-11-01 11:13:11.691966
2905  2023-11-01 11:13:11.737880
2906  2023-11-01 11:13:11.769804
2907  2023-11-01 11:13:11.817705
2908  2023-11-01 11:13:11.849619
2909  2023-11-01 11:13:11.897589
2910  2023-11-01 11:13:11.945448
2911  2023-11-01 11:13:11.977364
2912  2023-11-01 11:13:12.025233
2913  2023-11-01 11:13:12.057167
2914  2023-11-01 11:13:12.105034
2915  2023-11-01 11:13:12.152892
2916  2023-11-01 11:13:12.184956
2917  2023-11-01 11:13:12.232675
2918  2023-11-01 11:13:12.280553
2919  2023-11-01 11:13:12.312468
2920  2023-11-01 11:13:12.360340
2921  2023-11-01 11:13:12.392222
2922  2023-11-01 11:13:12.440162
2923  2023-11-01 11:13:12.488103
2924  2023-11-01 11:13:12.520017
2925  2023-11-01 11:13:12.567888
2926  2023-11-01 11:13:12.599819
2927  2023-11-01 11:13:12.647675
2928  2023-11-01 11:13:12.693574
2929  2023-11-01 11:13:12.725486
2930  2023-11-01 11:13:12.773500
2931  2023-11-01 11:13:12.821221
2932  2023-11-01 11:13:12.853097
2933  2023-11-01 11:13:12.900005
2934  2023-11-01 11:13:12.946874
2935  2023-11-01 11:13:12.978803
2936  2023-11-01 11:13:13.026665
2937  2023-11-01 11:13:13.058597
2938  2023-11-01 11:13:13.107416
2939  2023-11-01 11:13:13.152296
2940  2023-11-01 11:13:13.183213
2941  2023-11-01 11:13:13.229090
2942  2023-11-01 11:13:13.277966
2943  2023-11-01 11:13:13.306919
2944  2023-11-01 11:13:13.354755
2945  2023-11-01 11:13:13.401680
2946  2023-11-01 11:13:13.446558
2947  2023-11-01 11:13:13.477475
2948  2023-11-01 11:13:13.525435
2949  2023-11-01 11:13:13.557309
2950  2023-11-01 11:13:13.604225
2951  2023-11-01 11:13:13.652239
2952  2023-11-01 11:13:13.684053
2953  2023-11-01 11:13:13.732033
2954  2023-11-01 11:13:13.780051
2955  2023-11-01 11:13:13.811932
2956  2023-11-01 11:13:13.859961
2957  2023-11-01 11:13:13.905943
2958  2023-11-01 11:13:13.935857
2959  2023-11-01 11:13:13.982924
2960  2023-11-01 11:13:14.029903
2961  2023-11-01 11:13:14.061928
2962  2023-11-01 11:13:14.109839
2963  2023-11-01 11:13:14.141861
2964  2023-11-01 11:13:14.189735
2965  2023-11-01 11:13:14.237602
2966  2023-11-01 11:13:14.269490
2967  2023-11-01 11:13:14.316365
2968  2023-11-01 11:13:14.363239
2969  2023-11-01 11:13:14.395153
2970  2023-11-01 11:13:14.441030
2971  2023-11-01 11:13:14.486954
2972  2023-11-01 11:13:14.518855
2973  2023-11-01 11:13:14.566752
2974  2023-11-01 11:13:14.598644
2975  2023-11-01 11:13:14.646527
2976  2023-11-01 11:13:14.694393
2977  2023-11-01 11:13:14.726301
2978  2023-11-01 11:13:14.774174
2979  2023-11-01 11:13:14.822045
2980  2023-11-01 11:13:14.853988
2981  2023-11-01 11:13:14.901836
2982  2023-11-01 11:13:14.933763
2983  2023-11-01 11:13:14.981620
2984  2023-11-01 11:13:15.029498
2985  2023-11-01 11:13:15.061402
2986  2023-11-01 11:13:15.109291
2987  2023-11-01 11:13:15.141205
2988  2023-11-01 11:13:15.189063
2989  2023-11-01 11:13:15.236938
2990  2023-11-01 11:13:15.268973
2991  2023-11-01 11:13:15.316692
2992  2023-11-01 11:13:15.364564
2993  2023-11-01 11:13:15.395534
2994  2023-11-01 11:13:15.441450
2995  2023-11-01 11:13:15.489364
2996  2023-11-01 11:13:15.521285
2997  2023-11-01 11:13:15.570151
2998  2023-11-01 11:13:15.599028
2999  2023-11-01 11:13:15.645952
3000  2023-11-01 11:13:15.693828
3001  2023-11-01 11:13:15.725725
3002  2023-11-01 11:13:15.772565
3003  2023-11-01 11:13:15.819441
3004  2023-11-01 11:13:15.850384
3005  2023-11-01 11:13:15.898229
3006  2023-11-01 11:13:15.946101
3007  2023-11-01 11:13:15.978046
3008  2023-11-01 11:13:16.025887
3009  2023-11-01 11:13:16.057836
3010  2023-11-01 11:13:16.105674
3011  2023-11-01 11:13:16.152549
3012  2023-11-01 11:13:16.183501
3013  2023-11-01 11:13:16.231444
3014  2023-11-01 11:13:16.279358
3015  2023-11-01 11:13:16.311268
3016  2023-11-01 11:13:16.359135
3017  2023-11-01 11:13:16.391052
3018  2023-11-01 11:13:16.436943
3019  2023-11-01 11:13:16.484811
3020  2023-11-01 11:13:16.516716
3021  2023-11-01 11:13:16.563578
3022  2023-11-01 11:13:16.611430
3023  2023-11-01 11:13:16.644311
3024  2023-11-01 11:13:16.691222
3025  2023-11-01 11:13:16.739122
3026  2023-11-01 11:13:16.771105
3027  2023-11-01 11:13:16.816984
3028  2023-11-01 11:13:16.851883
3029  2023-11-01 11:13:16.896782
3030  2023-11-01 11:13:16.944635
3031  2023-11-01 11:13:16.976536
3032  2023-11-01 11:13:17.024405
3033  2023-11-01 11:13:17.072277
3034  2023-11-01 11:13:17.105162
3035  2023-11-01 11:13:17.153032
3036  2023-11-01 11:13:17.183980
3037  2023-11-01 11:13:17.231851
3038  2023-11-01 11:13:17.280769
3039  2023-11-01 11:13:17.312650
3040  2023-11-01 11:13:17.360527
3041  2023-11-01 11:13:17.392434
3042  2023-11-01 11:13:17.438299
3043  2023-11-01 11:13:17.486142
3044  2023-11-01 11:13:17.518056
3045  2023-11-01 11:13:17.565929
3046  2023-11-01 11:13:17.611806
3047  2023-11-01 11:13:17.643721
3048  2023-11-01 11:13:17.691593
3049  2023-11-01 11:13:17.723507
3050  2023-11-01 11:13:17.770382
3051  2023-11-01 11:13:17.817257
3052  2023-11-01 11:13:17.863165
3053  2023-11-01 11:13:17.895081
3054  2023-11-01 11:13:17.942952
3055  2023-11-01 11:13:17.973880
3056  2023-11-01 11:13:18.020746
3057  2023-11-01 11:13:18.068619
3058  2023-11-01 11:13:18.100554
3059  2023-11-01 11:13:18.148405
3060  2023-11-01 11:13:18.196290
3061  2023-11-01 11:13:18.228188
3062  2023-11-01 11:13:18.276074
3063  2023-11-01 11:13:18.308004
3064  2023-11-01 11:13:18.356033
3065  2023-11-01 11:13:18.403723
3066  2023-11-01 11:13:18.435608
3067  2023-11-01 11:13:18.483522
3068  2023-11-01 11:13:18.515399
3069  2023-11-01 11:13:18.563304
3070  2023-11-01 11:13:18.611184
3071  2023-11-01 11:13:18.656042
3072  2023-11-01 11:13:18.687982
3073  2023-11-01 11:13:18.733982
3074  2023-11-01 11:13:18.779819
3075  2023-11-01 11:13:18.810736
3076  2023-11-01 11:13:18.857611
3077  2023-11-01 11:13:18.904486
3078  2023-11-01 11:13:18.936434
3079  2023-11-01 11:13:18.984273
3080  2023-11-01 11:13:19.016219
3081  2023-11-01 11:13:19.064233
3082  2023-11-01 11:13:19.111981
3083  2023-11-01 11:13:19.141899
3084  2023-11-01 11:13:19.189769
3085  2023-11-01 11:13:19.237629
3086  2023-11-01 11:13:19.269541
3087  2023-11-01 11:13:19.317353
3088  2023-11-01 11:13:19.349310
3089  2023-11-01 11:13:19.397212
3090  2023-11-01 11:13:19.445101
3091  2023-11-01 11:13:19.477005
3092  2023-11-01 11:13:19.524885
3093  2023-11-01 11:13:19.571765
3094  2023-11-01 11:13:19.601695
3095  2023-11-01 11:13:19.649507
3096  2023-11-01 11:13:19.696382
3097  2023-11-01 11:13:19.727351
3098  2023-11-01 11:13:19.775371
3099  2023-11-01 11:13:19.807274
3100  2023-11-01 11:13:19.855175
3101  2023-11-01 11:13:19.904031
3102  2023-11-01 11:13:19.935929
3103  2023-11-01 11:13:19.980778
3104  2023-11-01 11:13:20.027653
3105  2023-11-01 11:13:20.059568
3106  2023-11-01 11:13:20.107440
3107  2023-11-01 11:13:20.155312
3108  2023-11-01 11:13:20.187348
3109  2023-11-01 11:13:20.235099
3110  2023-11-01 11:13:20.267014
3111  2023-11-01 11:13:20.314931
3112  2023-11-01 11:13:20.362758
3113  2023-11-01 11:13:20.394681
3114  2023-11-01 11:13:20.442545
3115  2023-11-01 11:13:20.474459
3116  2023-11-01 11:13:20.522331
3117  2023-11-01 11:13:20.570205
3118  2023-11-01 11:13:20.602118
3119  2023-11-01 11:13:20.649990
3120  2023-11-01 11:13:20.681905
3121  2023-11-01 11:13:20.729777
3122  2023-11-01 11:13:20.777649
3123  2023-11-01 11:13:20.809564
3124  2023-11-01 11:13:20.856710
3125  2023-11-01 11:13:20.903717
3126  2023-11-01 11:13:20.935648
3127  2023-11-01 11:13:20.983512
3128  2023-11-01 11:13:21.015498
3129  2023-11-01 11:13:21.063402
3130  2023-11-01 11:13:21.111297
3131  2023-11-01 11:13:21.143285
3132  2023-11-01 11:13:21.191318
3133  2023-11-01 11:13:21.238188
3134  2023-11-01 11:13:21.269144
3135  2023-11-01 11:13:21.317126
3136  2023-11-01 11:13:21.349034
3137  2023-11-01 11:13:21.396905
3138  2023-11-01 11:13:21.444993
3139  2023-11-01 11:13:21.476785
3140  2023-11-01 11:13:21.524647
3141  2023-11-01 11:13:21.571520
3142  2023-11-01 11:13:21.602489
3143  2023-11-01 11:13:21.648448
3144  2023-11-01 11:13:21.695320
3145  2023-11-01 11:13:21.726246
3146  2023-11-01 11:13:21.774114
3147  2023-11-01 11:13:21.821997
3148  2023-11-01 11:13:21.853898
3149  2023-11-01 11:13:21.899742
3150  2023-11-01 11:13:21.946782
3151  2023-11-01 11:13:21.977699
3152  2023-11-01 11:13:22.025571
3153  2023-11-01 11:13:22.057486
3154  2023-11-01 11:13:22.105358
3155  2023-11-01 11:13:22.152265
3156  2023-11-01 11:13:22.184148
3157  2023-11-01 11:13:22.232052
3158  2023-11-01 11:13:22.279584
3159  2023-11-01 11:13:22.311538
3160  2023-11-01 11:13:22.359548
3161  2023-11-01 11:13:22.391448
3162  2023-11-01 11:13:22.439329
3163  2023-11-01 11:13:22.487206
3164  2023-11-01 11:13:22.519118
3165  2023-11-01 11:13:22.567034
3166  2023-11-01 11:13:22.599075
3167  2023-11-01 11:13:22.647028
3168  2023-11-01 11:13:22.694853
3169  2023-11-01 11:13:22.726798
3170  2023-11-01 11:13:22.773728
3171  2023-11-01 11:13:22.819606
3172  2023-11-01 11:13:22.849542
3173  2023-11-01 11:13:22.896401
3174  2023-11-01 11:13:22.944273
3175  2023-11-01 11:13:22.977215
3176  2023-11-01 11:13:23.025057
3177  2023-11-01 11:13:23.072046
3178  2023-11-01 11:13:23.104958
3179  2023-11-01 11:13:23.152843
3180  2023-11-01 11:13:23.183771
3181  2023-11-01 11:13:23.229636
3182  2023-11-01 11:13:23.277496
3183  2023-11-01 11:13:23.309409
3184  2023-11-01 11:13:23.353307
3185  2023-11-01 11:13:23.401133
3186  2023-11-01 11:13:23.433048
3187  2023-11-01 11:13:23.480920
3188  2023-11-01 11:13:23.528792
3189  2023-11-01 11:13:23.558768
3190  2023-11-01 11:13:23.604746
3191  2023-11-01 11:13:23.652619
3192  2023-11-01 11:13:23.684670
3193  2023-11-01 11:13:23.732402
3194  2023-11-01 11:13:23.780275
3195  2023-11-01 11:13:23.812199
3196  2023-11-01 11:13:23.859111
3197  2023-11-01 11:13:23.904944
3198  2023-11-01 11:13:23.936861
3199  2023-11-01 11:13:23.984846
3200  2023-11-01 11:13:24.015762
3201  2023-11-01 11:13:24.063608
3202  2023-11-01 11:13:24.112519
3203  2023-11-01 11:13:24.143608
3204  2023-11-01 11:13:24.192642
3205  2023-11-01 11:13:24.223518
3206  2023-11-01 11:13:24.272446
3207  2023-11-01 11:13:24.317338
3208  2023-11-01 11:13:24.351234
3209  2023-11-01 11:13:24.397148
3210  2023-11-01 11:13:24.445015
3211  2023-11-01 11:13:24.476930
3212  2023-11-01 11:13:24.520780
3213  2023-11-01 11:13:24.568652
3214  2023-11-01 11:13:24.600567
3215  2023-11-01 11:13:24.648439
3216  2023-11-01 11:13:24.696311
3217  2023-11-01 11:13:24.726263
3218  2023-11-01 11:13:24.772266
3219  2023-11-01 11:13:24.820141
3220  2023-11-01 11:13:24.852101
3221  2023-11-01 11:13:24.897944
3222  2023-11-01 11:13:24.944853
3223  2023-11-01 11:13:24.974782
3224  2023-11-01 11:13:25.022664
3225  2023-11-01 11:13:25.071480
3226  2023-11-01 11:13:25.100436
3227  2023-11-01 11:13:25.148308
3228  2023-11-01 11:13:25.196189
3229  2023-11-01 11:13:25.228092
3230  2023-11-01 11:13:25.276082
3231  2023-11-01 11:13:25.308005
3232  2023-11-01 11:13:25.355966
3233  2023-11-01 11:13:25.404913
3234  2023-11-01 11:13:25.435862
3235  2023-11-01 11:13:25.483746
3236  2023-11-01 11:13:25.531618
3237  2023-11-01 11:13:25.564628
3238  2023-11-01 11:13:25.611494
3239  2023-11-01 11:13:25.644401
3240  2023-11-01 11:13:25.688243
3241  2023-11-01 11:13:25.735118
3242  2023-11-01 11:13:25.766079
3243  2023-11-01 11:13:25.812950
3244  2023-11-01 11:13:25.859966
3245  2023-11-01 11:13:25.891991
3246  2023-11-01 11:13:25.939938
3247  2023-11-01 11:13:25.987919
3248  2023-11-01 11:13:26.019926
3249  2023-11-01 11:13:26.067955
3250  2023-11-01 11:13:26.099837
3251  2023-11-01 11:13:26.146857
3252  2023-11-01 11:13:26.194590
3253  2023-11-01 11:13:26.226504
3254  2023-11-01 11:13:26.274371
3255  2023-11-01 11:13:26.322254
3256  2023-11-01 11:13:26.354159
3257  2023-11-01 11:13:26.402032
3258  2023-11-01 11:13:26.433949
3259  2023-11-01 11:13:26.481816
3260  2023-11-01 11:13:26.529657
3261  2023-11-01 11:13:26.560611
3262  2023-11-01 11:13:26.607480
3263  2023-11-01 11:13:26.655356
3264  2023-11-01 11:13:26.687266
3265  2023-11-01 11:13:26.735182
3266  2023-11-01 11:13:26.766063
3267  2023-11-01 11:13:26.814055
3268  2023-11-01 11:13:26.859089
3269  2023-11-01 11:13:26.891003
3270  2023-11-01 11:13:26.938974
3271  2023-11-01 11:13:26.986849
3272  2023-11-01 11:13:27.018853
3273  2023-11-01 11:13:27.066726
3274  2023-11-01 11:13:27.111607
3275  2023-11-01 11:13:27.142664
3276  2023-11-01 11:13:27.189400
3277  2023-11-01 11:13:27.236304
3278  2023-11-01 11:13:27.267191
3279  2023-11-01 11:13:27.315063
3280  2023-11-01 11:13:27.363011
3281  2023-11-01 11:13:27.395042
3282  2023-11-01 11:13:27.442905
3283  2023-11-01 11:13:27.473787
3284  2023-11-01 11:13:27.521694
3285  2023-11-01 11:13:27.569562
3286  2023-11-01 11:13:27.601477
3287  2023-11-01 11:13:27.649319
3288  2023-11-01 11:13:27.697193
3289  2023-11-01 11:13:27.729107
3290  2023-11-01 11:13:27.775136
3291  2023-11-01 11:13:27.806921
3292  2023-11-01 11:13:27.855811
3293  2023-11-01 11:13:27.903705
3294  2023-11-01 11:13:27.934589
3295  2023-11-01 11:13:27.982459
3296  2023-11-01 11:13:28.030341
3297  2023-11-01 11:13:28.062247
3298  2023-11-01 11:13:28.110088
3299  2023-11-01 11:13:28.142054
3300  2023-11-01 11:13:28.189037
3301  2023-11-01 11:13:28.237914
3302  2023-11-01 11:13:28.268831
3303  2023-11-01 11:13:28.314707
3304  2023-11-01 11:13:28.362659
3305  2023-11-01 11:13:28.392546
3306  2023-11-01 11:13:28.440499
3307  2023-11-01 11:13:28.487374
3308  2023-11-01 11:13:28.518321
3309  2023-11-01 11:13:28.566195
3310  2023-11-01 11:13:28.613125
3311  2023-11-01 11:13:28.644030
3312  2023-11-01 11:13:28.690982
3313  2023-11-01 11:13:28.737853
3314  2023-11-01 11:13:28.769801
3315  2023-11-01 11:13:28.817714
3316  2023-11-01 11:13:28.849629
3317  2023-11-01 11:13:28.897501
3318  2023-11-01 11:13:28.945374
3319  2023-11-01 11:13:28.977288
3320  2023-11-01 11:13:29.025161
3321  2023-11-01 11:13:29.057042
3322  2023-11-01 11:13:29.104912
3323  2023-11-01 11:13:29.152827
3324  2023-11-01 11:13:29.184745
3325  2023-11-01 11:13:29.232572
3326  2023-11-01 11:13:29.280475
3327  2023-11-01 11:13:29.312419
3328  2023-11-01 11:13:29.360195
3329  2023-11-01 11:13:29.392151
3330  2023-11-01 11:13:29.440070
3331  2023-11-01 11:13:29.487911
3332  2023-11-01 11:13:29.519864
3333  2023-11-01 11:13:29.568696
3334  2023-11-01 11:13:29.599613
3335  2023-11-01 11:13:29.647592
3336  2023-11-01 11:13:29.696493
3337  2023-11-01 11:13:29.727379
3338  2023-11-01 11:13:29.774377
3339  2023-11-01 11:13:29.822249
3340  2023-11-01 11:13:29.854190
3341  2023-11-01 11:13:29.901040
3342  2023-11-01 11:13:29.932953
3343  2023-11-01 11:13:29.981793
3344  2023-11-01 11:13:30.028697
3345  2023-11-01 11:13:30.060620
3346  2023-11-01 11:13:30.108491
3347  2023-11-01 11:13:30.140396
3348  2023-11-01 11:13:30.188268
3349  2023-11-01 11:13:30.236140
3350  2023-11-01 11:13:30.268055
3351  2023-11-01 11:13:30.315947
3352  2023-11-01 11:13:30.363815
3353  2023-11-01 11:13:30.395692
3354  2023-11-01 11:13:30.443705
3355  2023-11-01 11:13:30.475625
3356  2023-11-01 11:13:30.524507
3357  2023-11-01 11:13:30.569373
3358  2023-11-01 11:13:30.601290
3359  2023-11-01 11:13:30.649175
3360  2023-11-01 11:13:30.697032
3361  2023-11-01 11:13:30.728945
3362  2023-11-01 11:13:30.776835
3363  2023-11-01 11:13:30.809741
3364  2023-11-01 11:13:30.857605
3365  2023-11-01 11:13:30.905480
3366  2023-11-01 11:13:30.937387
3367  2023-11-01 11:13:30.985356
3368  2023-11-01 11:13:31.017267
3369  2023-11-01 11:13:31.065154
3370  2023-11-01 11:13:31.111030
3371  2023-11-01 11:13:31.141978
3372  2023-11-01 11:13:31.189948
3373  2023-11-01 11:13:31.237946
3374  2023-11-01 11:13:31.269826
3375  2023-11-01 11:13:31.315809
3376  2023-11-01 11:13:31.363691
3377  2023-11-01 11:13:31.395605
3378  2023-11-01 11:13:31.443511
3379  2023-11-01 11:13:31.474429
3380  2023-11-01 11:13:31.520309
3381  2023-11-01 11:13:31.567229
3382  2023-11-01 11:13:31.599124
3383  2023-11-01 11:13:31.646968
3384  2023-11-01 11:13:31.694840
3385  2023-11-01 11:13:31.726789
3386  2023-11-01 11:13:31.773663
3387  2023-11-01 11:13:31.820544
3388  2023-11-01 11:13:31.851464
3389  2023-11-01 11:13:31.898337
3390  2023-11-01 11:13:31.946198
3391  2023-11-01 11:13:31.978241
3392  2023-11-01 11:13:32.026336
3393  2023-11-01 11:13:32.057034
3394  2023-11-01 11:13:32.104907
3395  2023-11-01 11:13:32.152886
3396  2023-11-01 11:13:32.184800
3397  2023-11-01 11:13:32.232681
3398  2023-11-01 11:13:32.280624
3399  2023-11-01 11:13:32.312519
3400  2023-11-01 11:13:32.360394
3401  2023-11-01 11:13:32.392305
3402  2023-11-01 11:13:32.440179
3403  2023-11-01 11:13:32.486025
3404  2023-11-01 11:13:32.516972
3405  2023-11-01 11:13:32.564849
3406  2023-11-01 11:13:32.612755
3407  2023-11-01 11:13:32.644646
3408  2023-11-01 11:13:32.691543
3409  2023-11-01 11:13:32.738549
3410  2023-11-01 11:13:32.770542
3411  2023-11-01 11:13:32.816432
3412  2023-11-01 11:13:32.864258
3413  2023-11-01 11:13:32.894210
3414  2023-11-01 11:13:32.942051
3415  2023-11-01 11:13:32.974157
3416  2023-11-01 11:13:33.022912
3417  2023-11-01 11:13:33.069741
3418  2023-11-01 11:13:33.100655
3419  2023-11-01 11:13:33.147533
3420  2023-11-01 11:13:33.195409
3421  2023-11-01 11:13:33.227287
3422  2023-11-01 11:13:33.275204
3423  2023-11-01 11:13:33.307293
3424  2023-11-01 11:13:33.355038
3425  2023-11-01 11:13:33.402934
3426  2023-11-01 11:13:33.434838
3427  2023-11-01 11:13:33.482725
3428  2023-11-01 11:13:33.530570
3429  2023-11-01 11:13:33.562497
3430  2023-11-01 11:13:33.610359
3431  2023-11-01 11:13:33.656203
3432  2023-11-01 11:13:33.685125
3433  2023-11-01 11:13:33.732000
3434  2023-11-01 11:13:33.779872
3435  2023-11-01 11:13:33.810790
3436  2023-11-01 11:13:33.857665
3437  2023-11-01 11:13:33.903542
3438  2023-11-01 11:13:33.935488
3439  2023-11-01 11:13:33.983376
3440  2023-11-01 11:13:34.015273
3441  2023-11-01 11:13:34.063152
3442  2023-11-01 11:13:34.111018
3443  2023-11-01 11:13:34.142935
3444  2023-11-01 11:13:34.190826
3445  2023-11-01 11:13:34.238679
3446  2023-11-01 11:13:34.269595
3447  2023-11-01 11:13:34.316509
3448  2023-11-01 11:13:34.363283
3449  2023-11-01 11:13:34.395198
3450  2023-11-01 11:13:34.443070
3451  2023-11-01 11:13:34.475984
3452  2023-11-01 11:13:34.522857
3453  2023-11-01 11:13:34.570729
3454  2023-11-01 11:13:34.602645
3455  2023-11-01 11:13:34.648553
3456  2023-11-01 11:13:34.696478
3457  2023-11-01 11:13:34.728465
3458  2023-11-01 11:13:34.775329
3459  2023-11-01 11:13:34.823208
3460  2023-11-01 11:13:34.855117
3461  2023-11-01 11:13:34.903034
3462  2023-11-01 11:13:34.935949
3463  2023-11-01 11:13:34.980819
3464  2023-11-01 11:13:35.027693
3465  2023-11-01 11:13:35.059690
3466  2023-11-01 11:13:35.107610
3467  2023-11-01 11:13:35.154450
3468  2023-11-01 11:13:35.186467
3469  2023-11-01 11:13:35.234339
3470  2023-11-01 11:13:35.266254
3471  2023-11-01 11:13:35.312132
3472  2023-11-01 11:13:35.358200
3473  2023-11-01 11:13:35.390151
3474  2023-11-01 11:13:35.437049
3475  2023-11-01 11:13:35.483868
3476  2023-11-01 11:13:35.515842
3477  2023-11-01 11:13:35.563713
3478  2023-11-01 11:13:35.611557
3479  2023-11-01 11:13:35.643470
3480  2023-11-01 11:13:35.690393
3481  2023-11-01 11:13:35.737221
3482  2023-11-01 11:13:35.769181
3483  2023-11-01 11:13:35.816062
3484  2023-11-01 11:13:35.862949
3485  2023-11-01 11:13:35.894866
3486  2023-11-01 11:13:35.942738
3487  2023-11-01 11:13:35.974648
3488  2023-11-01 11:13:36.020526
3489  2023-11-01 11:13:36.068392
3490  2023-11-01 11:13:36.100306
3491  2023-11-01 11:13:36.148186
3492  2023-11-01 11:13:36.196056
3493  2023-11-01 11:13:36.227984
3494  2023-11-01 11:13:36.275813
3495  2023-11-01 11:13:36.307759
3496  2023-11-01 11:13:36.353640
3497  2023-11-01 11:13:36.401511
3498  2023-11-01 11:13:36.432395
3499  2023-11-01 11:13:36.479330
3500  2023-11-01 11:13:36.527192
3501  2023-11-01 11:13:36.559090
3502  2023-11-01 11:13:36.606972
3503  2023-11-01 11:13:36.653803
3504  2023-11-01 11:13:36.686765
3505  2023-11-01 11:13:36.733621
3506  2023-11-01 11:13:36.765536
3507  2023-11-01 11:13:36.813377
3508  2023-11-01 11:13:36.862246
3509  2023-11-01 11:13:36.893163
3510  2023-11-01 11:13:36.942093
3511  2023-11-01 11:13:36.989938
3512  2023-11-01 11:13:37.021873
3513  2023-11-01 11:13:37.068725
3514  2023-11-01 11:13:37.099650
3515  2023-11-01 11:13:37.146524
3516  2023-11-01 11:13:37.194397
3517  2023-11-01 11:13:37.226311
3518  2023-11-01 11:13:37.274183
3519  2023-11-01 11:13:37.322243
3520  2023-11-01 11:13:37.353970
3521  2023-11-01 11:13:37.401842
3522  2023-11-01 11:13:37.433757
3523  2023-11-01 11:13:37.480674
3524  2023-11-01 11:13:37.527573
3525  2023-11-01 11:13:37.560492
3526  2023-11-01 11:13:37.606371
3527  2023-11-01 11:13:37.654247
3528  2023-11-01 11:13:37.686168
3529  2023-11-01 11:13:37.732041
3530  2023-11-01 11:13:37.779912
3531  2023-11-01 11:13:37.811870
3532  2023-11-01 11:13:37.859791
3533  2023-11-01 11:13:37.891689
3534  2023-11-01 11:13:37.939589
3535  2023-11-01 11:13:37.985313
3536  2023-11-01 11:13:38.017228
3537  2023-11-01 11:13:38.065123
3538  2023-11-01 11:13:38.112936
3539  2023-11-01 11:13:38.144888
3540  2023-11-01 11:13:38.190807
3541  2023-11-01 11:13:38.238850
3542  2023-11-01 11:13:38.270742
3543  2023-11-01 11:13:38.318682
3544  2023-11-01 11:13:38.350597
3545  2023-11-01 11:13:38.397474
3546  2023-11-01 11:13:38.444313
3547  2023-11-01 11:13:38.476255
3548  2023-11-01 11:13:38.523132
3549  2023-11-01 11:13:38.570017
3550  2023-11-01 11:13:38.601937
3551  2023-11-01 11:13:38.649764
3552  2023-11-01 11:13:38.696902
3553  2023-11-01 11:13:38.727603
3554  2023-11-01 11:13:38.775459
3555  2023-11-01 11:13:38.807376
3556  2023-11-01 11:13:38.855329
3557  2023-11-01 11:13:38.904161
3558  2023-11-01 11:13:38.935110
3559  2023-11-01 11:13:38.980990
3560  2023-11-01 11:13:39.029875
3561  2023-11-01 11:13:39.061816
