
1  2023-10-19 10:28:27.837199
2  2023-10-19 10:28:27.871107
3  2023-10-19 10:28:27.902025
4  2023-10-19 10:28:27.933939
5  2023-10-19 10:28:27.965854
6  2023-10-19 10:28:27.997768
7  2023-10-19 10:28:28.029683
8  2023-10-19 10:28:28.061597
9  2023-10-19 10:28:28.093511
10  2023-10-19 10:28:28.125426
11  2023-10-19 10:28:28.173299
12  2023-10-19 10:28:28.205213
13  2023-10-19 10:28:28.237129
14  2023-10-19 10:28:28.269042
15  2023-10-19 10:28:28.301955
16  2023-10-19 10:28:28.333869
17  2023-10-19 10:28:28.365813
18  2023-10-19 10:28:28.397698
19  2023-10-19 10:28:28.429642
20  2023-10-19 10:28:28.461527
21  2023-10-19 10:28:28.493443
22  2023-10-19 10:28:28.525356
23  2023-10-19 10:28:28.573229
24  2023-10-19 10:28:28.605143
25  2023-10-19 10:28:28.637085
26  2023-10-19 10:28:28.670004
27  2023-10-19 10:28:28.701914
28  2023-10-19 10:28:28.733799
29  2023-10-19 10:28:28.765713
30  2023-10-19 10:28:28.797628
31  2023-10-19 10:28:28.829544
32  2023-10-19 10:28:28.861487
33  2023-10-19 10:28:28.893414
34  2023-10-19 10:28:28.925286
35  2023-10-19 10:28:28.973160
36  2023-10-19 10:28:29.005074
37  2023-10-19 10:28:29.037986
38  2023-10-19 10:28:29.069901
39  2023-10-19 10:28:29.101815
40  2023-10-19 10:28:29.133729
41  2023-10-19 10:28:29.165644
42  2023-10-19 10:28:29.197559
43  2023-10-19 10:28:29.229508
44  2023-10-19 10:28:29.261441
45  2023-10-19 10:28:29.293302
46  2023-10-19 10:28:29.326216
47  2023-10-19 10:28:29.373146
48  2023-10-19 10:28:29.406028
49  2023-10-19 10:28:29.437916
50  2023-10-19 10:28:29.469861
51  2023-10-19 10:28:29.501745
52  2023-10-19 10:28:29.533697
53  2023-10-19 10:28:29.565602
54  2023-10-19 10:28:29.597488
55  2023-10-19 10:28:29.629432
56  2023-10-19 10:28:29.661355
57  2023-10-19 10:28:29.693265
58  2023-10-19 10:28:29.725147
59  2023-10-19 10:28:29.773020
60  2023-10-19 10:28:29.805931
61  2023-10-19 10:28:29.837846
62  2023-10-19 10:28:29.869760
63  2023-10-19 10:28:29.901675
64  2023-10-19 10:28:29.933590
65  2023-10-19 10:28:29.965504
66  2023-10-19 10:28:29.997419
67  2023-10-19 10:28:30.029333
68  2023-10-19 10:28:30.061248
69  2023-10-19 10:28:30.094161
70  2023-10-19 10:28:30.125077
71  2023-10-19 10:28:30.173948
72  2023-10-19 10:28:30.205862
73  2023-10-19 10:28:30.237778
74  2023-10-19 10:28:30.269691
75  2023-10-19 10:28:30.301606
76  2023-10-19 10:28:30.333521
77  2023-10-19 10:28:30.365463
78  2023-10-19 10:28:30.397351
79  2023-10-19 10:28:30.429291
80  2023-10-19 10:28:30.461205
81  2023-10-19 10:28:30.494091
82  2023-10-19 10:28:30.541963
83  2023-10-19 10:28:30.573907
84  2023-10-19 10:28:30.605821
85  2023-10-19 10:28:30.637734
86  2023-10-19 10:28:30.669650
87  2023-10-19 10:28:30.701535
88  2023-10-19 10:28:30.733450
89  2023-10-19 10:28:30.765366
90  2023-10-19 10:28:30.797279
91  2023-10-19 10:28:30.829195
92  2023-10-19 10:28:30.861109
93  2023-10-19 10:28:30.893024
94  2023-10-19 10:28:30.941893
95  2023-10-19 10:28:30.973808
96  2023-10-19 10:28:31.005722
97  2023-10-19 10:28:31.037637
98  2023-10-19 10:28:31.069552
99  2023-10-19 10:28:31.101509
100  2023-10-19 10:28:31.133413
101  2023-10-19 10:28:31.165339
102  2023-10-19 10:28:31.197239
103  2023-10-19 10:28:31.229158
104  2023-10-19 10:28:31.261066
105  2023-10-19 10:28:31.293952
106  2023-10-19 10:28:31.341861
107  2023-10-19 10:28:31.373737
108  2023-10-19 10:28:31.405681
109  2023-10-19 10:28:31.437568
110  2023-10-19 10:28:31.469517
111  2023-10-19 10:28:31.501425
112  2023-10-19 10:28:31.533339
113  2023-10-19 10:28:31.565226
114  2023-10-19 10:28:31.597177
115  2023-10-19 10:28:31.629056
116  2023-10-19 10:28:31.661995
117  2023-10-19 10:28:31.693910
118  2023-10-19 10:28:31.741783
119  2023-10-19 10:28:31.773711
120  2023-10-19 10:28:31.805613
121  2023-10-19 10:28:31.837499
122  2023-10-19 10:28:31.869451
123  2023-10-19 10:28:31.901356
124  2023-10-19 10:28:31.933243
125  2023-10-19 10:28:31.965182
126  2023-10-19 10:28:31.997104
127  2023-10-19 10:28:32.029987
128  2023-10-19 10:28:32.061928
129  2023-10-19 10:28:32.093863
130  2023-10-19 10:28:32.141685
131  2023-10-19 10:28:32.173599
132  2023-10-19 10:28:32.205514
133  2023-10-19 10:28:32.237466
134  2023-10-19 10:28:32.269343
135  2023-10-19 10:28:32.301257
136  2023-10-19 10:28:32.333200
137  2023-10-19 10:28:32.365131
138  2023-10-19 10:28:32.397027
139  2023-10-19 10:28:32.429951
140  2023-10-19 10:28:32.461866
141  2023-10-19 10:28:32.493775
142  2023-10-19 10:28:32.541643
143  2023-10-19 10:28:32.573532
144  2023-10-19 10:28:32.605481
145  2023-10-19 10:28:32.637401
146  2023-10-19 10:28:32.669274
147  2023-10-19 10:28:32.701216
148  2023-10-19 10:28:32.733139
149  2023-10-19 10:28:32.765054
150  2023-10-19 10:28:32.797957
151  2023-10-19 10:28:32.829871
152  2023-10-19 10:28:32.861759
153  2023-10-19 10:28:32.893709
154  2023-10-19 10:28:32.941573
155  2023-10-19 10:28:32.973487
156  2023-10-19 10:28:33.005403
157  2023-10-19 10:28:33.037351
158  2023-10-19 10:28:33.069229
159  2023-10-19 10:28:33.101150
160  2023-10-19 10:28:33.133058
161  2023-10-19 10:28:33.164975
162  2023-10-19 10:28:33.197900
163  2023-10-19 10:28:33.229803
164  2023-10-19 10:28:33.261689
165  2023-10-19 10:28:33.293630
166  2023-10-19 10:28:33.341476
167  2023-10-19 10:28:33.834157
168  2023-10-19 10:28:33.838147
169  2023-10-19 10:28:33.869065
170  2023-10-19 10:28:33.901976
171  2023-10-19 10:28:33.933891
172  2023-10-19 10:28:33.965805
173  2023-10-19 10:28:33.997721
174  2023-10-19 10:28:34.029636
175  2023-10-19 10:28:34.061549
176  2023-10-19 10:28:34.093464
177  2023-10-19 10:28:34.141336
178  2023-10-19 10:28:34.173250
179  2023-10-19 10:28:34.205198
180  2023-10-19 10:28:34.237113
181  2023-10-19 10:28:34.268998
182  2023-10-19 10:28:34.301906
183  2023-10-19 10:28:34.333820
184  2023-10-19 10:28:34.365736
185  2023-10-19 10:28:34.397650
186  2023-10-19 10:28:34.429564
187  2023-10-19 10:28:34.461480
188  2023-10-19 10:28:34.509352
189  2023-10-19 10:28:34.541266
190  2023-10-19 10:28:34.573181
191  2023-10-19 10:28:34.605128
192  2023-10-19 10:28:34.638008
193  2023-10-19 10:28:34.669923
194  2023-10-19 10:28:34.701837
195  2023-10-19 10:28:34.733750
196  2023-10-19 10:28:34.765665
197  2023-10-19 10:28:34.797582
198  2023-10-19 10:28:34.829495
199  2023-10-19 10:28:34.861411
200  2023-10-19 10:28:34.909282
201  2023-10-19 10:28:34.941224
202  2023-10-19 10:28:34.973138
203  2023-10-19 10:28:35.005033
204  2023-10-19 10:28:35.037964
205  2023-10-19 10:28:35.069884
206  2023-10-19 10:28:35.101804
207  2023-10-19 10:28:35.133681
208  2023-10-19 10:28:35.165596
209  2023-10-19 10:28:35.197511
210  2023-10-19 10:28:35.229454
211  2023-10-19 10:28:35.261375
212  2023-10-19 10:28:35.309212
213  2023-10-19 10:28:35.341126
214  2023-10-19 10:28:35.373040
215  2023-10-19 10:28:35.405953
216  2023-10-19 10:28:35.437869
217  2023-10-19 10:28:35.469810
218  2023-10-19 10:28:35.501697
219  2023-10-19 10:28:35.533640
220  2023-10-19 10:28:35.565526
221  2023-10-19 10:28:35.597439
222  2023-10-19 10:28:35.629355
223  2023-10-19 10:28:35.661270
224  2023-10-19 10:28:35.709143
225  2023-10-19 10:28:35.741056
226  2023-10-19 10:28:35.773969
227  2023-10-19 10:28:35.805918
228  2023-10-19 10:28:35.837829
229  2023-10-19 10:28:35.869712
230  2023-10-19 10:28:35.901627
231  2023-10-19 10:28:35.933580
232  2023-10-19 10:28:35.965494
233  2023-10-19 10:28:35.997415
234  2023-10-19 10:28:36.029285
235  2023-10-19 10:28:36.061243
236  2023-10-19 10:28:36.109099
237  2023-10-19 10:28:36.141018
238  2023-10-19 10:28:36.173936
239  2023-10-19 10:28:36.205843
240  2023-10-19 10:28:36.237766
241  2023-10-19 10:28:36.269673
242  2023-10-19 10:28:36.301600
243  2023-10-19 10:28:36.333497
244  2023-10-19 10:28:36.365425
245  2023-10-19 10:28:36.397340
246  2023-10-19 10:28:36.429216
247  2023-10-19 10:28:36.461134
248  2023-10-19 10:28:36.509041
249  2023-10-19 10:28:36.540964
250  2023-10-19 10:28:36.573865
251  2023-10-19 10:28:36.605809
252  2023-10-19 10:28:36.637702
253  2023-10-19 10:28:36.669610
254  2023-10-19 10:28:36.701521
255  2023-10-19 10:28:36.733444
256  2023-10-19 10:28:36.765352
257  2023-10-19 10:28:36.797235
258  2023-10-19 10:28:36.829182
259  2023-10-19 10:28:36.862058
260  2023-10-19 10:28:36.909931
261  2023-10-19 10:28:36.941846
262  2023-10-19 10:28:36.973785
263  2023-10-19 10:28:37.005711
264  2023-10-19 10:28:37.037635
265  2023-10-19 10:28:37.069552
266  2023-10-19 10:28:37.101469
267  2023-10-19 10:28:37.133373
268  2023-10-19 10:28:37.165282
269  2023-10-19 10:28:37.197217
270  2023-10-19 10:28:37.229109
271  2023-10-19 10:28:37.261019
272  2023-10-19 10:28:37.309922
273  2023-10-19 10:28:37.341804
274  2023-10-19 10:28:37.373689
275  2023-10-19 10:28:37.405607
276  2023-10-19 10:28:37.437558
277  2023-10-19 10:28:37.469472
278  2023-10-19 10:28:37.501351
279  2023-10-19 10:28:37.533266
280  2023-10-19 10:28:37.565215
281  2023-10-19 10:28:37.597136
282  2023-10-19 10:28:37.629075
283  2023-10-19 10:28:37.661922
284  2023-10-19 10:28:37.709809
285  2023-10-19 10:28:37.741708
286  2023-10-19 10:28:37.773653
287  2023-10-19 10:28:37.805592
288  2023-10-19 10:28:37.837476
289  2023-10-19 10:28:37.869391
290  2023-10-19 10:28:37.901318
291  2023-10-19 10:28:37.933230
292  2023-10-19 10:28:37.965133
293  2023-10-19 10:28:37.998020
294  2023-10-19 10:28:38.029935
295  2023-10-19 10:28:38.077832
296  2023-10-19 10:28:38.109758
297  2023-10-19 10:28:38.141679
298  2023-10-19 10:28:38.173600
299  2023-10-19 10:28:38.205468
300  2023-10-19 10:28:38.237414
301  2023-10-19 10:28:38.269321
302  2023-10-19 10:28:38.301243
303  2023-10-19 10:28:38.333151
304  2023-10-19 10:28:38.366036
305  2023-10-19 10:28:38.397954
306  2023-10-19 10:28:38.429914
307  2023-10-19 10:28:38.477779
308  2023-10-19 10:28:38.509687
309  2023-10-19 10:28:38.541593
310  2023-10-19 10:28:38.573480
311  2023-10-19 10:28:38.605395
312  2023-10-19 10:28:38.637340
313  2023-10-19 10:28:38.669263
314  2023-10-19 10:28:38.701181
315  2023-10-19 10:28:38.733088
316  2023-10-19 10:28:38.765005
317  2023-10-19 10:28:38.797932
318  2023-10-19 10:28:38.829837
319  2023-10-19 10:28:38.877704
320  2023-10-19 10:28:38.909581
321  2023-10-19 10:28:38.941533
322  2023-10-19 10:28:38.973446
323  2023-10-19 10:28:39.005367
324  2023-10-19 10:28:39.037243
325  2023-10-19 10:28:39.069183
326  2023-10-19 10:28:39.101101
327  2023-10-19 10:28:39.133013
328  2023-10-19 10:28:39.165900
329  2023-10-19 10:28:39.197813
330  2023-10-19 10:28:39.229725
331  2023-10-19 10:28:39.277626
332  2023-10-19 10:28:39.309511
333  2023-10-19 10:28:39.341462
334  2023-10-19 10:28:39.373367
335  2023-10-19 10:28:39.405294
336  2023-10-19 10:28:39.437170
337  2023-10-19 10:28:39.859041
338  2023-10-19 10:28:39.870012
339  2023-10-19 10:28:39.901932
340  2023-10-19 10:28:39.933867
341  2023-10-19 10:28:39.965793
342  2023-10-19 10:28:39.997718
343  2023-10-19 10:28:40.029586
344  2023-10-19 10:28:40.077489
345  2023-10-19 10:28:40.109400
346  2023-10-19 10:28:40.141323
347  2023-10-19 10:28:40.173242
348  2023-10-19 10:28:40.205161
349  2023-10-19 10:28:40.237073
350  2023-10-19 10:28:40.269942
351  2023-10-19 10:28:40.301917
352  2023-10-19 10:28:40.333805
353  2023-10-19 10:28:40.365685
354  2023-10-19 10:28:40.397639
355  2023-10-19 10:28:40.429554
356  2023-10-19 10:28:40.477427
357  2023-10-19 10:28:40.509334
358  2023-10-19 10:28:40.541246
359  2023-10-19 10:28:40.573169
360  2023-10-19 10:28:40.605073
361  2023-10-19 10:28:40.637996
362  2023-10-19 10:28:40.669873
363  2023-10-19 10:28:40.701791
364  2023-10-19 10:28:40.733737
365  2023-10-19 10:28:40.765660
366  2023-10-19 10:28:40.797560
367  2023-10-19 10:28:40.829482
368  2023-10-19 10:28:40.877355
369  2023-10-19 10:28:40.909270
370  2023-10-19 10:28:40.941190
371  2023-10-19 10:28:40.973097
372  2023-10-19 10:28:41.005014
373  2023-10-19 10:28:41.037887
374  2023-10-19 10:28:41.069828
375  2023-10-19 10:28:41.101751
376  2023-10-19 10:28:41.133669
377  2023-10-19 10:28:41.165585
378  2023-10-19 10:28:41.197462
379  2023-10-19 10:28:41.229402
380  2023-10-19 10:28:41.277275
381  2023-10-19 10:28:41.309194
382  2023-10-19 10:28:41.341130
383  2023-10-19 10:28:41.373053
384  2023-10-19 10:28:41.405937
385  2023-10-19 10:28:41.437854
386  2023-10-19 10:28:41.469769
387  2023-10-19 10:28:41.501683
388  2023-10-19 10:28:41.533614
389  2023-10-19 10:28:41.565505
390  2023-10-19 10:28:41.597432
391  2023-10-19 10:28:41.629334
392  2023-10-19 10:28:41.677205
393  2023-10-19 10:28:41.709133
394  2023-10-19 10:28:41.742005
395  2023-10-19 10:28:41.773919
396  2023-10-19 10:28:41.805868
397  2023-10-19 10:28:41.837775
398  2023-10-19 10:28:41.869669
399  2023-10-19 10:28:41.901582
400  2023-10-19 10:28:41.933527
401  2023-10-19 10:28:41.965436
402  2023-10-19 10:28:41.997321
403  2023-10-19 10:28:42.045227
404  2023-10-19 10:28:42.077170
405  2023-10-19 10:28:42.109093
406  2023-10-19 10:28:42.141973
407  2023-10-19 10:28:42.173885
408  2023-10-19 10:28:42.205768
409  2023-10-19 10:28:42.237717
410  2023-10-19 10:28:42.269643
411  2023-10-19 10:28:42.301507
412  2023-10-19 10:28:42.333456
413  2023-10-19 10:28:42.365341
414  2023-10-19 10:28:42.397316
415  2023-10-19 10:28:42.445150
416  2023-10-19 10:28:42.477082
417  2023-10-19 10:28:42.508992
418  2023-10-19 10:28:42.541870
419  2023-10-19 10:28:42.573783
420  2023-10-19 10:28:42.605722
421  2023-10-19 10:28:42.637647
422  2023-10-19 10:28:42.669552
423  2023-10-19 10:28:42.701438
424  2023-10-19 10:28:42.733407
425  2023-10-19 10:28:42.765333
426  2023-10-19 10:28:42.797212
427  2023-10-19 10:28:42.845095
428  2023-10-19 10:28:42.877030
429  2023-10-19 10:28:42.909918
430  2023-10-19 10:28:42.941840
431  2023-10-19 10:28:42.973755
432  2023-10-19 10:28:43.005654
433  2023-10-19 10:28:43.037572
434  2023-10-19 10:28:43.069491
435  2023-10-19 10:28:43.101402
436  2023-10-19 10:28:43.133320
437  2023-10-19 10:28:43.165258
438  2023-10-19 10:28:43.197138
439  2023-10-19 10:28:43.245019
440  2023-10-19 10:28:43.277954
441  2023-10-19 10:28:43.309847
442  2023-10-19 10:28:43.341764
443  2023-10-19 10:28:43.373640
444  2023-10-19 10:28:43.405559
445  2023-10-19 10:28:43.437508
446  2023-10-19 10:28:43.469421
447  2023-10-19 10:28:43.501328
448  2023-10-19 10:28:43.533242
449  2023-10-19 10:28:43.565177
450  2023-10-19 10:28:43.597096
451  2023-10-19 10:28:43.645982
452  2023-10-19 10:28:43.677892
453  2023-10-19 10:28:43.709775
454  2023-10-19 10:28:43.741693
455  2023-10-19 10:28:43.773571
456  2023-10-19 10:28:43.805520
457  2023-10-19 10:28:43.837428
458  2023-10-19 10:28:43.869344
459  2023-10-19 10:28:43.901229
460  2023-10-19 10:28:43.933170
461  2023-10-19 10:28:43.965058
462  2023-10-19 10:28:43.997999
463  2023-10-19 10:28:44.045883
464  2023-10-19 10:28:44.077787
465  2023-10-19 10:28:44.109700
466  2023-10-19 10:28:44.141627
467  2023-10-19 10:28:44.173555
468  2023-10-19 10:28:44.205449
469  2023-10-19 10:28:44.237357
470  2023-10-19 10:28:44.269292
471  2023-10-19 10:28:44.301202
472  2023-10-19 10:28:44.333100
473  2023-10-19 10:28:44.364993
474  2023-10-19 10:28:44.397928
475  2023-10-19 10:28:44.445773
476  2023-10-19 10:28:44.477748
477  2023-10-19 10:28:44.509655
478  2023-10-19 10:28:44.541545
479  2023-10-19 10:28:44.573434
480  2023-10-19 10:28:44.605381
481  2023-10-19 10:28:44.637287
482  2023-10-19 10:28:44.669210
483  2023-10-19 10:28:44.701138
484  2023-10-19 10:28:44.733038
485  2023-10-19 10:28:44.765976
486  2023-10-19 10:28:44.797856
487  2023-10-19 10:28:44.845747
488  2023-10-19 10:28:44.877664
489  2023-10-19 10:28:44.909585
490  2023-10-19 10:28:44.941488
491  2023-10-19 10:28:44.973418
492  2023-10-19 10:28:45.005302
493  2023-10-19 10:28:45.037231
494  2023-10-19 10:28:45.070102
495  2023-10-19 10:28:45.101063
496  2023-10-19 10:28:45.133932
497  2023-10-19 10:28:45.611654
498  2023-10-19 10:28:45.645564
499  2023-10-19 10:28:45.677517
500  2023-10-19 10:28:45.709427
501  2023-10-19 10:28:45.741343
502  2023-10-19 10:28:45.773259
503  2023-10-19 10:28:45.805192
504  2023-10-19 10:28:45.837085
505  2023-10-19 10:28:45.868996
506  2023-10-19 10:28:45.901944
507  2023-10-19 10:28:45.933847
508  2023-10-19 10:28:45.965750
509  2023-10-19 10:28:46.013623
510  2023-10-19 10:28:46.045493
511  2023-10-19 10:28:46.077447
512  2023-10-19 10:28:46.109363
513  2023-10-19 10:28:46.141263
514  2023-10-19 10:28:46.173178
515  2023-10-19 10:28:46.205092
516  2023-10-19 10:28:46.237978
517  2023-10-19 10:28:46.269944
518  2023-10-19 10:28:46.301848
519  2023-10-19 10:28:46.333775
520  2023-10-19 10:28:46.365639
521  2023-10-19 10:28:46.413508
522  2023-10-19 10:28:46.446422
523  2023-10-19 10:28:46.477337
524  2023-10-19 10:28:46.509257
525  2023-10-19 10:28:46.541193
526  2023-10-19 10:28:46.573081
527  2023-10-19 10:28:46.605996
528  2023-10-19 10:28:46.637915
529  2023-10-19 10:28:46.669865
530  2023-10-19 10:28:46.701765
531  2023-10-19 10:28:46.733685
532  2023-10-19 10:28:46.765599
533  2023-10-19 10:28:46.813440
534  2023-10-19 10:28:46.845352
535  2023-10-19 10:28:46.877267
536  2023-10-19 10:28:46.909181
537  2023-10-19 10:28:46.941139
538  2023-10-19 10:28:46.973015
539  2023-10-19 10:28:47.005965
540  2023-10-19 10:28:47.037880
541  2023-10-19 10:28:47.069784
542  2023-10-19 10:28:47.101668
543  2023-10-19 10:28:47.133622
544  2023-10-19 10:28:47.165541
545  2023-10-19 10:28:47.213368
546  2023-10-19 10:28:47.245282
547  2023-10-19 10:28:47.277197
548  2023-10-19 10:28:47.309112
549  2023-10-19 10:28:47.341076
550  2023-10-19 10:28:47.373992
551  2023-10-19 10:28:47.405856
552  2023-10-19 10:28:47.437803
553  2023-10-19 10:28:47.469712
554  2023-10-19 10:28:47.501625
555  2023-10-19 10:28:47.533517
556  2023-10-19 10:28:47.565429
557  2023-10-19 10:28:47.613299
558  2023-10-19 10:28:47.645213
559  2023-10-19 10:28:47.678125
560  2023-10-19 10:28:47.709042
561  2023-10-19 10:28:47.741955
562  2023-10-19 10:28:47.773912
563  2023-10-19 10:28:47.805821
564  2023-10-19 10:28:47.837739
565  2023-10-19 10:28:47.869641
566  2023-10-19 10:28:47.901563
567  2023-10-19 10:28:47.933442
568  2023-10-19 10:28:47.965384
569  2023-10-19 10:28:48.013229
570  2023-10-19 10:28:48.045143
571  2023-10-19 10:28:48.077085
572  2023-10-19 10:28:48.108972
573  2023-10-19 10:28:48.141932
574  2023-10-19 10:28:48.173836
575  2023-10-19 10:28:48.205716
576  2023-10-19 10:28:48.237659
577  2023-10-19 10:28:48.269580
578  2023-10-19 10:28:48.301490
579  2023-10-19 10:28:48.333427
580  2023-10-19 10:28:48.365321
581  2023-10-19 10:28:48.413159
582  2023-10-19 10:28:48.445073
583  2023-10-19 10:28:48.476988
584  2023-10-19 10:28:48.509900
585  2023-10-19 10:28:48.541862
586  2023-10-19 10:28:48.573760
587  2023-10-19 10:28:48.605690
588  2023-10-19 10:28:48.637559
589  2023-10-19 10:28:48.669508
590  2023-10-19 10:28:48.701418
591  2023-10-19 10:28:48.733334
592  2023-10-19 10:28:48.765245
593  2023-10-19 10:28:48.814088
594  2023-10-19 10:28:48.845003
595  2023-10-19 10:28:48.877916
596  2023-10-19 10:28:48.909831
597  2023-10-19 10:28:48.941772
598  2023-10-19 10:28:48.973698
599  2023-10-19 10:28:49.005608
600  2023-10-19 10:28:49.037518
601  2023-10-19 10:28:49.069440
602  2023-10-19 10:28:49.101318
603  2023-10-19 10:28:49.133269
604  2023-10-19 10:28:49.165191
605  2023-10-19 10:28:49.214017
606  2023-10-19 10:28:49.245931
607  2023-10-19 10:28:49.277849
608  2023-10-19 10:28:49.309761
609  2023-10-19 10:28:49.341709
610  2023-10-19 10:28:49.373623
611  2023-10-19 10:28:49.405542
612  2023-10-19 10:28:49.437466
613  2023-10-19 10:28:49.469361
614  2023-10-19 10:28:49.501283
615  2023-10-19 10:28:49.533194
616  2023-10-19 10:28:49.581035
617  2023-10-19 10:28:49.613950
618  2023-10-19 10:28:49.645862
619  2023-10-19 10:28:49.677776
620  2023-10-19 10:28:49.709691
621  2023-10-19 10:28:49.741644
622  2023-10-19 10:28:49.773557
623  2023-10-19 10:28:49.805470
624  2023-10-19 10:28:49.837377
625  2023-10-19 10:28:49.869269
626  2023-10-19 10:28:49.901210
627  2023-10-19 10:28:49.933156
628  2023-10-19 10:28:49.980965
629  2023-10-19 10:28:50.013878
630  2023-10-19 10:28:50.045791
631  2023-10-19 10:28:50.077706
632  2023-10-19 10:28:50.109621
633  2023-10-19 10:28:50.141578
634  2023-10-19 10:28:50.173450
635  2023-10-19 10:28:50.205394
636  2023-10-19 10:28:50.237320
637  2023-10-19 10:28:50.269224
638  2023-10-19 10:28:50.301146
639  2023-10-19 10:28:50.333023
640  2023-10-19 10:28:50.381895
641  2023-10-19 10:28:50.413809
642  2023-10-19 10:28:50.445723
643  2023-10-19 10:28:50.477636
644  2023-10-19 10:28:50.509551
645  2023-10-19 10:28:50.541466
646  2023-10-19 10:28:50.573417
647  2023-10-19 10:28:50.605323
648  2023-10-19 10:28:50.637238
649  2023-10-19 10:28:50.669174
650  2023-10-19 10:28:50.701075
651  2023-10-19 10:28:50.732983
652  2023-10-19 10:28:50.781864
653  2023-10-19 10:28:50.813738
654  2023-10-19 10:28:50.845652
655  2023-10-19 10:28:50.877566
656  2023-10-19 10:28:50.909510
657  2023-10-19 10:28:50.941398
658  2023-10-19 10:28:50.973311
659  2023-10-19 10:28:51.005256
660  2023-10-19 10:28:51.037187
661  2023-10-19 10:28:51.069082
662  2023-10-19 10:28:51.100999
663  2023-10-19 10:28:51.133881
664  2023-10-19 10:28:51.181753
665  2023-10-19 10:28:51.213668
666  2023-10-19 10:28:51.569717
667  2023-10-19 10:28:51.581685
668  2023-10-19 10:28:51.613600
669  2023-10-19 10:28:51.645514
670  2023-10-19 10:28:51.677429
671  2023-10-19 10:28:51.709343
672  2023-10-19 10:28:51.741293
673  2023-10-19 10:28:51.773173
674  2023-10-19 10:28:51.805088
675  2023-10-19 10:28:51.837027
676  2023-10-19 10:28:51.869954
677  2023-10-19 10:28:51.901856
678  2023-10-19 10:28:51.933781
679  2023-10-19 10:28:51.981617
680  2023-10-19 10:28:52.013533
681  2023-10-19 10:28:52.045444
682  2023-10-19 10:28:52.077408
683  2023-10-19 10:28:52.109275
684  2023-10-19 10:28:52.141189
685  2023-10-19 10:28:52.173129
686  2023-10-19 10:28:52.205055
687  2023-10-19 10:28:52.237930
688  2023-10-19 10:28:52.269875
689  2023-10-19 10:28:52.301764
690  2023-10-19 10:28:52.333701
691  2023-10-19 10:28:52.381546
692  2023-10-19 10:28:52.413507
693  2023-10-19 10:28:52.445403
694  2023-10-19 10:28:52.478314
695  2023-10-19 10:28:52.510201
696  2023-10-19 10:28:52.542117
697  2023-10-19 10:28:52.574030
698  2023-10-19 10:28:52.605945
699  2023-10-19 10:28:52.637859
700  2023-10-19 10:28:52.669774
701  2023-10-19 10:28:52.701690
702  2023-10-19 10:28:52.733604
703  2023-10-19 10:28:52.781477
704  2023-10-19 10:28:52.813394
705  2023-10-19 10:28:52.845304
706  2023-10-19 10:28:52.877219
707  2023-10-19 10:28:52.909134
708  2023-10-19 10:28:52.941048
709  2023-10-19 10:28:52.973961
710  2023-10-19 10:28:53.005905
711  2023-10-19 10:28:53.037790
712  2023-10-19 10:28:53.069705
713  2023-10-19 10:28:53.101620
714  2023-10-19 10:28:53.133535
715  2023-10-19 10:28:53.181407
716  2023-10-19 10:28:53.213320
717  2023-10-19 10:28:53.245235
718  2023-10-19 10:28:53.277151
719  2023-10-19 10:28:53.309064
720  2023-10-19 10:28:53.341032
721  2023-10-19 10:28:53.373891
722  2023-10-19 10:28:53.405806
723  2023-10-19 10:28:53.437750
724  2023-10-19 10:28:53.469645
725  2023-10-19 10:28:53.501551
726  2023-10-19 10:28:53.549448
727  2023-10-19 10:28:53.581371
728  2023-10-19 10:28:53.613252
729  2023-10-19 10:28:53.646163
730  2023-10-19 10:28:53.678104
731  2023-10-19 10:28:53.708996
732  2023-10-19 10:28:53.741906
733  2023-10-19 10:28:53.773821
734  2023-10-19 10:28:53.805737
735  2023-10-19 10:28:53.837650
736  2023-10-19 10:28:53.869594
737  2023-10-19 10:28:53.901479
738  2023-10-19 10:28:53.949352
739  2023-10-19 10:28:53.982264
740  2023-10-19 10:28:54.013201
741  2023-10-19 10:28:54.045097
742  2023-10-19 10:28:54.078007
743  2023-10-19 10:28:54.108953
744  2023-10-19 10:28:54.141837
745  2023-10-19 10:28:54.173768
746  2023-10-19 10:28:54.205666
747  2023-10-19 10:28:54.237606
748  2023-10-19 10:28:54.269533
749  2023-10-19 10:28:54.301457
750  2023-10-19 10:28:54.349283
751  2023-10-19 10:28:54.381198
752  2023-10-19 10:28:54.413112
753  2023-10-19 10:28:54.445061
754  2023-10-19 10:28:54.477939
755  2023-10-19 10:28:54.509903
756  2023-10-19 10:28:54.541804
757  2023-10-19 10:28:54.573728
758  2023-10-19 10:28:54.605596
759  2023-10-19 10:28:54.637511
760  2023-10-19 10:28:54.669429
761  2023-10-19 10:28:54.701375
762  2023-10-19 10:28:54.749213
763  2023-10-19 10:28:54.781155
764  2023-10-19 10:28:54.813042
765  2023-10-19 10:28:54.844957
766  2023-10-19 10:28:54.877900
767  2023-10-19 10:28:54.909816
768  2023-10-19 10:28:54.941729
769  2023-10-19 10:28:54.973639
770  2023-10-19 10:28:55.005572
771  2023-10-19 10:28:55.037441
772  2023-10-19 10:28:55.069396
773  2023-10-19 10:28:55.101312
774  2023-10-19 10:28:55.149142
775  2023-10-19 10:28:55.181058
776  2023-10-19 10:28:55.213011
777  2023-10-19 10:28:55.245920
778  2023-10-19 10:28:55.277834
779  2023-10-19 10:28:55.309741
780  2023-10-19 10:28:55.341671
781  2023-10-19 10:28:55.373542
782  2023-10-19 10:28:55.405457
783  2023-10-19 10:28:55.437397
784  2023-10-19 10:28:55.469338
785  2023-10-19 10:28:55.501231
786  2023-10-19 10:28:55.549112
787  2023-10-19 10:28:55.581026
788  2023-10-19 10:28:55.613938
789  2023-10-19 10:28:55.645855
790  2023-10-19 10:28:55.677767
791  2023-10-19 10:28:55.709677
792  2023-10-19 10:28:55.741558
793  2023-10-19 10:28:55.773519
794  2023-10-19 10:28:55.805429
795  2023-10-19 10:28:55.837346
796  2023-10-19 10:28:55.869251
797  2023-10-19 10:28:55.901134
798  2023-10-19 10:28:55.949033
799  2023-10-19 10:28:55.981931
800  2023-10-19 10:28:56.013830
801  2023-10-19 10:28:56.045770
802  2023-10-19 10:28:56.077695
803  2023-10-19 10:28:56.109573
804  2023-10-19 10:28:56.141525
805  2023-10-19 10:28:56.173451
806  2023-10-19 10:28:56.205355
807  2023-10-19 10:28:56.237262
808  2023-10-19 10:28:56.269172
809  2023-10-19 10:28:56.302058
810  2023-10-19 10:28:56.348974
811  2023-10-19 10:28:56.381845
812  2023-10-19 10:28:56.413760
813  2023-10-19 10:28:56.445712
814  2023-10-19 10:28:56.477590
815  2023-10-19 10:28:56.509547
816  2023-10-19 10:28:56.541466
817  2023-10-19 10:28:56.573364
818  2023-10-19 10:28:56.605285
819  2023-10-19 10:28:56.637196
820  2023-10-19 10:28:56.669112
821  2023-10-19 10:28:56.702025
822  2023-10-19 10:28:56.749899
823  2023-10-19 10:28:56.781775
824  2023-10-19 10:28:56.813691
825  2023-10-19 10:28:56.845652
826  2023-10-19 10:28:56.877551
827  2023-10-19 10:28:56.909477
828  2023-10-19 10:28:56.941385
829  2023-10-19 10:28:56.973263
830  2023-10-19 10:28:57.005211
831  2023-10-19 10:28:57.037099
832  2023-10-19 10:28:57.069010
833  2023-10-19 10:28:57.117879
834  2023-10-19 10:28:57.149834
835  2023-10-19 10:28:57.181704
836  2023-10-19 10:28:57.226584
837  2023-10-19 10:28:57.245582
838  2023-10-19 10:28:57.277480
839  2023-10-19 10:28:57.309417
840  2023-10-19 10:28:57.341321
841  2023-10-19 10:28:57.373194
842  2023-10-19 10:28:57.405142
843  2023-10-19 10:28:57.437060
844  2023-10-19 10:28:57.469986
845  2023-10-19 10:28:57.517849
846  2023-10-19 10:28:57.549755
847  2023-10-19 10:28:57.581672
848  2023-10-19 10:28:57.613585
849  2023-10-19 10:28:57.645506
850  2023-10-19 10:28:57.677409
851  2023-10-19 10:28:57.709329
852  2023-10-19 10:28:57.741242
853  2023-10-19 10:28:57.773148
854  2023-10-19 10:28:57.806068
855  2023-10-19 10:28:57.837950
856  2023-10-19 10:28:57.869865
857  2023-10-19 10:28:57.917740
858  2023-10-19 10:28:57.949683
859  2023-10-19 10:28:57.981565
860  2023-10-19 10:28:58.013481
861  2023-10-19 10:28:58.045396
862  2023-10-19 10:28:58.077311
863  2023-10-19 10:28:58.109226
864  2023-10-19 10:28:58.141139
865  2023-10-19 10:28:58.173055
866  2023-10-19 10:28:58.205964
867  2023-10-19 10:28:58.237881
868  2023-10-19 10:28:58.269820
869  2023-10-19 10:28:58.317702
870  2023-10-19 10:28:58.349632
871  2023-10-19 10:28:58.381496
872  2023-10-19 10:28:58.413411
873  2023-10-19 10:28:58.445358
874  2023-10-19 10:28:58.477275
875  2023-10-19 10:28:58.509185
876  2023-10-19 10:28:58.541101
877  2023-10-19 10:28:58.573012
878  2023-10-19 10:28:58.605923
879  2023-10-19 10:28:58.637838
880  2023-10-19 10:28:58.669773
881  2023-10-19 10:28:58.717597
882  2023-10-19 10:28:58.749554
883  2023-10-19 10:28:58.781464
884  2023-10-19 10:28:58.813384
885  2023-10-19 10:28:58.845303
886  2023-10-19 10:28:58.877204
887  2023-10-19 10:28:58.909136
888  2023-10-19 10:28:58.941998
889  2023-10-19 10:28:58.973950
890  2023-10-19 10:28:59.005853
891  2023-10-19 10:28:59.037768
892  2023-10-19 10:28:59.069702
893  2023-10-19 10:28:59.117582
894  2023-10-19 10:28:59.149480
895  2023-10-19 10:28:59.181403
896  2023-10-19 10:28:59.213310
897  2023-10-19 10:28:59.245185
898  2023-10-19 10:28:59.277128
899  2023-10-19 10:28:59.309047
900  2023-10-19 10:28:59.340976
901  2023-10-19 10:28:59.373872
902  2023-10-19 10:28:59.405791
903  2023-10-19 10:28:59.437708
904  2023-10-19 10:28:59.469586
905  2023-10-19 10:28:59.517506
906  2023-10-19 10:28:59.549423
907  2023-10-19 10:28:59.581327
908  2023-10-19 10:28:59.613246
909  2023-10-19 10:28:59.645155
910  2023-10-19 10:28:59.677063
911  2023-10-19 10:28:59.708982
912  2023-10-19 10:28:59.741912
913  2023-10-19 10:28:59.773818
914  2023-10-19 10:28:59.805724
915  2023-10-19 10:28:59.837637
916  2023-10-19 10:28:59.869544
917  2023-10-19 10:28:59.917387
918  2023-10-19 10:28:59.949318
919  2023-10-19 10:28:59.982214
920  2023-10-19 10:29:00.013132
921  2023-10-19 10:29:00.045093
922  2023-10-19 10:29:00.077958
923  2023-10-19 10:29:00.109904
924  2023-10-19 10:29:00.141827
925  2023-10-19 10:29:00.173730
926  2023-10-19 10:29:00.205647
927  2023-10-19 10:29:00.237568
928  2023-10-19 10:29:00.269480
929  2023-10-19 10:29:00.317370
930  2023-10-19 10:29:00.349277
931  2023-10-19 10:29:00.381183
932  2023-10-19 10:29:00.413098
933  2023-10-19 10:29:00.445015
934  2023-10-19 10:29:00.477931
935  2023-10-19 10:29:00.509843
936  2023-10-19 10:29:00.541717
937  2023-10-19 10:29:00.573636
938  2023-10-19 10:29:00.605586
939  2023-10-19 10:29:00.637497
940  2023-10-19 10:29:00.669414
941  2023-10-19 10:29:00.717309
942  2023-10-19 10:29:00.749197
943  2023-10-19 10:29:00.781121
944  2023-10-19 10:29:00.813988
945  2023-10-19 10:29:00.845955
946  2023-10-19 10:29:00.877860
947  2023-10-19 10:29:00.909733
948  2023-10-19 10:29:00.941648
949  2023-10-19 10:29:00.973603
950  2023-10-19 10:29:01.005484
951  2023-10-19 10:29:01.037430
952  2023-10-19 10:29:01.085264
953  2023-10-19 10:29:01.117181
954  2023-10-19 10:29:01.149124
955  2023-10-19 10:29:01.181041
956  2023-10-19 10:29:01.213921
957  2023-10-19 10:29:01.245878
958  2023-10-19 10:29:01.277797
959  2023-10-19 10:29:01.309690
960  2023-10-19 10:29:01.341616
961  2023-10-19 10:29:01.373531
962  2023-10-19 10:29:01.405436
963  2023-10-19 10:29:01.437375
964  2023-10-19 10:29:01.485222
965  2023-10-19 10:29:01.517134
966  2023-10-19 10:29:01.549049
967  2023-10-19 10:29:01.580972
968  2023-10-19 10:29:01.613849
969  2023-10-19 10:29:01.645809
970  2023-10-19 10:29:01.677715
971  2023-10-19 10:29:01.709629
972  2023-10-19 10:29:01.741512
973  2023-10-19 10:29:01.773459
974  2023-10-19 10:29:01.805363
975  2023-10-19 10:29:01.837287
976  2023-10-19 10:29:01.885157
977  2023-10-19 10:29:01.917098
978  2023-10-19 10:29:01.948981
979  2023-10-19 10:29:01.981928
980  2023-10-19 10:29:02.013795
981  2023-10-19 10:29:02.045739
982  2023-10-19 10:29:02.077646
983  2023-10-19 10:29:02.109567
984  2023-10-19 10:29:02.141501
985  2023-10-19 10:29:02.173353
986  2023-10-19 10:29:02.205271
987  2023-10-19 10:29:02.238179
988  2023-10-19 10:29:02.349883
989  2023-10-19 10:29:02.354867
990  2023-10-19 10:29:02.381831
991  2023-10-19 10:29:02.413755
992  2023-10-19 10:29:02.445667
993  2023-10-19 10:29:02.477573
994  2023-10-19 10:29:02.509490
995  2023-10-19 10:29:02.541405
996  2023-10-19 10:29:02.574323
997  2023-10-19 10:29:02.605241
998  2023-10-19 10:29:02.637145
999  2023-10-19 10:29:02.685025
1000  2023-10-19 10:29:02.717898
1001  2023-10-19 10:29:02.749846
1002  2023-10-19 10:29:02.781727
1003  2023-10-19 10:29:02.813646
1004  2023-10-19 10:29:02.845595
1005  2023-10-19 10:29:02.877501
1006  2023-10-19 10:29:02.909435
1007  2023-10-19 10:29:02.941334
1008  2023-10-19 10:29:02.973249
1009  2023-10-19 10:29:03.005172
1010  2023-10-19 10:29:03.037078
1011  2023-10-19 10:29:03.084963
1012  2023-10-19 10:29:03.117855
1013  2023-10-19 10:29:03.149771
1014  2023-10-19 10:29:03.181698
1015  2023-10-19 10:29:03.213626
1016  2023-10-19 10:29:03.245513
1017  2023-10-19 10:29:03.277426
1018  2023-10-19 10:29:03.309353
1019  2023-10-19 10:29:03.341271
1020  2023-10-19 10:29:03.373147
1021  2023-10-19 10:29:03.405063
1022  2023-10-19 10:29:03.437012
1023  2023-10-19 10:29:03.485868
1024  2023-10-19 10:29:03.517804
1025  2023-10-19 10:29:03.549672
1026  2023-10-19 10:29:03.581632
1027  2023-10-19 10:29:03.613541
1028  2023-10-19 10:29:03.645465
1029  2023-10-19 10:29:03.677376
1030  2023-10-19 10:29:03.709285
1031  2023-10-19 10:29:03.741186
1032  2023-10-19 10:29:03.773107
1033  2023-10-19 10:29:03.805987
1034  2023-10-19 10:29:03.837905
1035  2023-10-19 10:29:03.885806
1036  2023-10-19 10:29:03.917739
1037  2023-10-19 10:29:03.949656
1038  2023-10-19 10:29:03.981518
1039  2023-10-19 10:29:04.013472
1040  2023-10-19 10:29:04.045380
1041  2023-10-19 10:29:04.077295
1042  2023-10-19 10:29:04.109201
1043  2023-10-19 10:29:04.141115
1044  2023-10-19 10:29:04.173037
1045  2023-10-19 10:29:04.205956
1046  2023-10-19 10:29:04.237868
1047  2023-10-19 10:29:04.285740
1048  2023-10-19 10:29:04.317656
1049  2023-10-19 10:29:04.349532
1050  2023-10-19 10:29:04.381499
1051  2023-10-19 10:29:04.413418
1052  2023-10-19 10:29:04.445314
1053  2023-10-19 10:29:04.477235
1054  2023-10-19 10:29:04.509155
1055  2023-10-19 10:29:04.541047
1056  2023-10-19 10:29:04.573959
1057  2023-10-19 10:29:04.605887
1058  2023-10-19 10:29:04.653753
1059  2023-10-19 10:29:04.685683
1060  2023-10-19 10:29:04.717600
1061  2023-10-19 10:29:04.749503
1062  2023-10-19 10:29:04.781408
1063  2023-10-19 10:29:04.813343
1064  2023-10-19 10:29:04.845256
1065  2023-10-19 10:29:04.877121
1066  2023-10-19 10:29:04.909074
1067  2023-10-19 10:29:04.941973
1068  2023-10-19 10:29:04.973888
1069  2023-10-19 10:29:05.005804
1070  2023-10-19 10:29:05.053685
1071  2023-10-19 10:29:05.085602
1072  2023-10-19 10:29:05.117515
1073  2023-10-19 10:29:05.149431
1074  2023-10-19 10:29:05.181333
1075  2023-10-19 10:29:05.213263
1076  2023-10-19 10:29:05.245172
1077  2023-10-19 10:29:05.277088
1078  2023-10-19 10:29:05.309001
1079  2023-10-19 10:29:05.341917
1080  2023-10-19 10:29:05.373821
1081  2023-10-19 10:29:05.405735
1082  2023-10-19 10:29:05.453579
1083  2023-10-19 10:29:05.485530
1084  2023-10-19 10:29:05.517455
1085  2023-10-19 10:29:05.549378
1086  2023-10-19 10:29:05.581279
1087  2023-10-19 10:29:05.613182
1088  2023-10-19 10:29:05.645109
1089  2023-10-19 10:29:05.677029
1090  2023-10-19 10:29:05.709928
1091  2023-10-19 10:29:05.741841
1092  2023-10-19 10:29:05.773757
1093  2023-10-19 10:29:05.805666
1094  2023-10-19 10:29:05.853549
1095  2023-10-19 10:29:05.885461
1096  2023-10-19 10:29:05.917379
1097  2023-10-19 10:29:05.949254
1098  2023-10-19 10:29:05.981207
1099  2023-10-19 10:29:06.013142
1100  2023-10-19 10:29:06.045092
1101  2023-10-19 10:29:06.077006
1102  2023-10-19 10:29:06.109919
1103  2023-10-19 10:29:06.141884
1104  2023-10-19 10:29:06.173748
1105  2023-10-19 10:29:06.205690
1106  2023-10-19 10:29:06.253535
1107  2023-10-19 10:29:06.285451
1108  2023-10-19 10:29:06.317364
1109  2023-10-19 10:29:06.349287
1110  2023-10-19 10:29:06.381193
1111  2023-10-19 10:29:06.413108
1112  2023-10-19 10:29:06.446021
1113  2023-10-19 10:29:06.477934
1114  2023-10-19 10:29:06.509849
1115  2023-10-19 10:29:06.541799
1116  2023-10-19 10:29:06.573680
1117  2023-10-19 10:29:06.605626
1118  2023-10-19 10:29:06.653466
1119  2023-10-19 10:29:06.685379
1120  2023-10-19 10:29:06.717294
1121  2023-10-19 10:29:06.749208
1122  2023-10-19 10:29:06.782122
1123  2023-10-19 10:29:06.814073
1124  2023-10-19 10:29:06.845950
1125  2023-10-19 10:29:06.877867
1126  2023-10-19 10:29:06.909821
1127  2023-10-19 10:29:06.941733
1128  2023-10-19 10:29:06.973635
1129  2023-10-19 10:29:07.005550
1130  2023-10-19 10:29:07.053440
1131  2023-10-19 10:29:07.085348
1132  2023-10-19 10:29:07.117265
1133  2023-10-19 10:29:07.149183
1134  2023-10-19 10:29:07.181087
1135  2023-10-19 10:29:07.213001
1136  2023-10-19 10:29:07.245916
1137  2023-10-19 10:29:07.277841
1138  2023-10-19 10:29:07.309745
1139  2023-10-19 10:29:07.341625
1140  2023-10-19 10:29:07.373570
1141  2023-10-19 10:29:07.405458
1142  2023-10-19 10:29:07.453361
1143  2023-10-19 10:29:07.485276
1144  2023-10-19 10:29:07.517192
1145  2023-10-19 10:29:07.549120
1146  2023-10-19 10:29:07.580985
1147  2023-10-19 10:29:07.613896
1148  2023-10-19 10:29:07.645812
1149  2023-10-19 10:29:07.677759
1150  2023-10-19 10:29:07.709680
1151  2023-10-19 10:29:07.741555
1152  2023-10-19 10:29:07.773505
1153  2023-10-19 10:29:07.805412
1154  2023-10-19 10:29:07.853289
1155  2023-10-19 10:29:07.885207
1156  2023-10-19 10:29:07.917118
1157  2023-10-19 10:29:07.949998
1158  2023-10-19 10:29:07.982911
1159  2023-10-19 10:29:08.013863
1160  2023-10-19 10:29:08.045794
1161  2023-10-19 10:29:08.077685
1162  2023-10-19 10:29:08.109609
1163  2023-10-19 10:29:08.141523
1164  2023-10-19 10:29:08.173429
1165  2023-10-19 10:29:08.205343
1166  2023-10-19 10:29:08.253243
1167  2023-10-19 10:29:08.285128
1168  2023-10-19 10:29:08.317041
1169  2023-10-19 10:29:08.348963
1170  2023-10-19 10:29:08.381888
1171  2023-10-19 10:29:08.413788
1172  2023-10-19 10:29:08.445699
1173  2023-10-19 10:29:08.477626
1174  2023-10-19 10:29:08.509535
1175  2023-10-19 10:29:08.541445
1176  2023-10-19 10:29:08.573358
1177  2023-10-19 10:29:08.621236
1178  2023-10-19 10:29:08.653148
1179  2023-10-19 10:29:08.685077
1180  2023-10-19 10:29:08.716990
1181  2023-10-19 10:29:08.749874
1182  2023-10-19 10:29:08.781800
1183  2023-10-19 10:29:08.813733
1184  2023-10-19 10:29:08.845641
1185  2023-10-19 10:29:08.877559
1186  2023-10-19 10:29:08.909478
1187  2023-10-19 10:29:08.941375
1188  2023-10-19 10:29:08.973289
1189  2023-10-19 10:29:09.021163
1190  2023-10-19 10:29:09.053087
1191  2023-10-19 10:29:09.086006
1192  2023-10-19 10:29:09.117899
1193  2023-10-19 10:29:09.149787
1194  2023-10-19 10:29:09.181704
1195  2023-10-19 10:29:09.213665
1196  2023-10-19 10:29:09.245561
1197  2023-10-19 10:29:09.277481
1198  2023-10-19 10:29:09.309404
1199  2023-10-19 10:29:09.341304
1200  2023-10-19 10:29:09.373226
1201  2023-10-19 10:29:09.421095
1202  2023-10-19 10:29:09.453011
1203  2023-10-19 10:29:09.485936
1204  2023-10-19 10:29:09.517849
1205  2023-10-19 10:29:09.549719
1206  2023-10-19 10:29:09.581671
1207  2023-10-19 10:29:09.613582
1208  2023-10-19 10:29:09.645501
1209  2023-10-19 10:29:09.677409
1210  2023-10-19 10:29:09.709291
1211  2023-10-19 10:29:09.741235
1212  2023-10-19 10:29:09.773147
1213  2023-10-19 10:29:09.821042
1214  2023-10-19 10:29:09.852952
1215  2023-10-19 10:29:09.885854
1216  2023-10-19 10:29:09.917770
1217  2023-10-19 10:29:09.949685
1218  2023-10-19 10:29:09.981564
1219  2023-10-19 10:29:10.013524
1220  2023-10-19 10:29:10.045440
1221  2023-10-19 10:29:10.077356
1222  2023-10-19 10:29:10.109250
1223  2023-10-19 10:29:10.141162
1224  2023-10-19 10:29:10.173091
1225  2023-10-19 10:29:10.221964
1226  2023-10-19 10:29:10.253871
1227  2023-10-19 10:29:10.285750
1228  2023-10-19 10:29:10.317703
1229  2023-10-19 10:29:10.349641
1230  2023-10-19 10:29:10.381532
1231  2023-10-19 10:29:10.413469
1232  2023-10-19 10:29:10.445361
1233  2023-10-19 10:29:10.477266
1234  2023-10-19 10:29:10.509192
1235  2023-10-19 10:29:10.541095
1236  2023-10-19 10:29:10.573009
1237  2023-10-19 10:29:10.621880
1238  2023-10-19 10:29:10.653792
1239  2023-10-19 10:29:10.685714
1240  2023-10-19 10:29:10.717635
1241  2023-10-19 10:29:10.749550
1242  2023-10-19 10:29:10.781467
1243  2023-10-19 10:29:10.813339
1244  2023-10-19 10:29:10.845288
1245  2023-10-19 10:29:10.877207
1246  2023-10-19 10:29:10.909121
1247  2023-10-19 10:29:10.941037
1248  2023-10-19 10:29:10.973936
1249  2023-10-19 10:29:11.021817
1250  2023-10-19 10:29:11.053731
1251  2023-10-19 10:29:11.085662
1252  2023-10-19 10:29:11.117561
1253  2023-10-19 10:29:11.149511
1254  2023-10-19 10:29:11.181404
1255  2023-10-19 10:29:11.213302
1256  2023-10-19 10:29:11.245226
1257  2023-10-19 10:29:11.277134
1258  2023-10-19 10:29:11.310053
1259  2023-10-19 10:29:11.341926
1260  2023-10-19 10:29:11.373844
1261  2023-10-19 10:29:11.421752
1262  2023-10-19 10:29:11.453683
1263  2023-10-19 10:29:11.485582
1264  2023-10-19 10:29:11.518489
1265  2023-10-19 10:29:11.549369
1266  2023-10-19 10:29:11.582283
1267  2023-10-19 10:29:11.614235
1268  2023-10-19 10:29:11.646145
1269  2023-10-19 10:29:11.678052
1270  2023-10-19 10:29:11.709977
1271  2023-10-19 10:29:11.741889
1272  2023-10-19 10:29:11.773770
1273  2023-10-19 10:29:11.821662
1274  2023-10-19 10:29:11.853604
1275  2023-10-19 10:29:11.885472
1276  2023-10-19 10:29:11.917435
1277  2023-10-19 10:29:11.950331
1278  2023-10-19 10:29:11.981278
1279  2023-10-19 10:29:12.013180
1280  2023-10-19 10:29:12.046041
1281  2023-10-19 10:29:12.077956
1282  2023-10-19 10:29:12.109907
1283  2023-10-19 10:29:12.141786
1284  2023-10-19 10:29:12.189685
1285  2023-10-19 10:29:12.221572
1286  2023-10-19 10:29:12.253534
1287  2023-10-19 10:29:12.285433
1288  2023-10-19 10:29:12.317348
1289  2023-10-19 10:29:12.349276
1290  2023-10-19 10:29:12.381145
1291  2023-10-19 10:29:12.413092
1292  2023-10-19 10:29:12.445973
1293  2023-10-19 10:29:12.477888
1294  2023-10-19 10:29:12.509829
1295  2023-10-19 10:29:12.541741
1296  2023-10-19 10:29:12.589622
1297  2023-10-19 10:29:12.621531
1298  2023-10-19 10:29:12.653448
1299  2023-10-19 10:29:12.686354
1300  2023-10-19 10:29:12.718274
1301  2023-10-19 10:29:12.749160
1302  2023-10-19 10:29:12.781096
1303  2023-10-19 10:29:12.814021
1304  2023-10-19 10:29:12.845938
1305  2023-10-19 10:29:12.877817
1306  2023-10-19 10:29:12.909732
1307  2023-10-19 10:29:12.941646
1308  2023-10-19 10:29:12.989519
1309  2023-10-19 10:29:13.095267
1310  2023-10-19 10:29:13.117176
1311  2023-10-19 10:29:13.149143
1312  2023-10-19 10:29:13.181031
1313  2023-10-19 10:29:13.213951
1314  2023-10-19 10:29:13.245832
1315  2023-10-19 10:29:13.277781
1316  2023-10-19 10:29:13.309697
1317  2023-10-19 10:29:13.341611
1318  2023-10-19 10:29:13.389484
1319  2023-10-19 10:29:13.421420
1320  2023-10-19 10:29:13.453277
1321  2023-10-19 10:29:13.485191
1322  2023-10-19 10:29:13.517107
1323  2023-10-19 10:29:13.549022
1324  2023-10-19 10:29:13.580936
1325  2023-10-19 10:29:13.613880
1326  2023-10-19 10:29:13.645790
1327  2023-10-19 10:29:13.677736
1328  2023-10-19 10:29:13.709591
1329  2023-10-19 10:29:13.741551
1330  2023-10-19 10:29:13.789425
1331  2023-10-19 10:29:13.821325
1332  2023-10-19 10:29:13.853207
1333  2023-10-19 10:29:13.885148
1334  2023-10-19 10:29:13.917076
1335  2023-10-19 10:29:13.948952
1336  2023-10-19 10:29:13.981863
1337  2023-10-19 10:29:14.013817
1338  2023-10-19 10:29:14.045691
1339  2023-10-19 10:29:14.077607
1340  2023-10-19 10:29:14.109522
1341  2023-10-19 10:29:14.141475
1342  2023-10-19 10:29:14.189342
1343  2023-10-19 10:29:14.221255
1344  2023-10-19 10:29:14.253195
1345  2023-10-19 10:29:14.285085
1346  2023-10-19 10:29:14.317966
1347  2023-10-19 10:29:14.349880
1348  2023-10-19 10:29:14.381820
1349  2023-10-19 10:29:14.413760
1350  2023-10-19 10:29:14.445659
1351  2023-10-19 10:29:14.477538
1352  2023-10-19 10:29:14.509485
1353  2023-10-19 10:29:14.541395
1354  2023-10-19 10:29:14.589237
1355  2023-10-19 10:29:14.621215
1356  2023-10-19 10:29:14.653069
1357  2023-10-19 10:29:14.685028
1358  2023-10-19 10:29:14.717898
1359  2023-10-19 10:29:14.749808
1360  2023-10-19 10:29:14.781724
1361  2023-10-19 10:29:14.813640
1362  2023-10-19 10:29:14.845592
1363  2023-10-19 10:29:14.877508
1364  2023-10-19 10:29:14.909381
1365  2023-10-19 10:29:14.941338
1366  2023-10-19 10:29:14.990166
1367  2023-10-19 10:29:15.021136
1368  2023-10-19 10:29:15.053061
1369  2023-10-19 10:29:15.084913
1370  2023-10-19 10:29:15.117825
1371  2023-10-19 10:29:15.149740
1372  2023-10-19 10:29:15.181709
1373  2023-10-19 10:29:15.213603
1374  2023-10-19 10:29:15.245520
1375  2023-10-19 10:29:15.277442
1376  2023-10-19 10:29:15.309348
1377  2023-10-19 10:29:15.341269
1378  2023-10-19 10:29:15.389132
1379  2023-10-19 10:29:15.421049
1380  2023-10-19 10:29:15.452955
1381  2023-10-19 10:29:15.485875
1382  2023-10-19 10:29:15.517797
1383  2023-10-19 10:29:15.549716
1384  2023-10-19 10:29:15.581583
1385  2023-10-19 10:29:15.613537
1386  2023-10-19 10:29:15.645414
1387  2023-10-19 10:29:15.677362
1388  2023-10-19 10:29:15.709270
1389  2023-10-19 10:29:15.741174
1390  2023-10-19 10:29:15.789064
1391  2023-10-19 10:29:15.821967
1392  2023-10-19 10:29:15.853892
1393  2023-10-19 10:29:15.885805
1394  2023-10-19 10:29:15.917730
1395  2023-10-19 10:29:15.949638
1396  2023-10-19 10:29:15.981515
1397  2023-10-19 10:29:16.013430
1398  2023-10-19 10:29:16.045387
1399  2023-10-19 10:29:16.077288
1400  2023-10-19 10:29:16.109211
1401  2023-10-19 10:29:16.157048
1402  2023-10-19 10:29:16.188958
1403  2023-10-19 10:29:16.221914
1404  2023-10-19 10:29:16.253790
1405  2023-10-19 10:29:16.285759
1406  2023-10-19 10:29:16.317641
1407  2023-10-19 10:29:16.349530
1408  2023-10-19 10:29:16.381472
1409  2023-10-19 10:29:16.413392
1410  2023-10-19 10:29:16.445309
1411  2023-10-19 10:29:16.477223
1412  2023-10-19 10:29:16.509134
1413  2023-10-19 10:29:16.557039
1414  2023-10-19 10:29:16.588916
1415  2023-10-19 10:29:16.621830
1416  2023-10-19 10:29:16.653742
1417  2023-10-19 10:29:16.685659
1418  2023-10-19 10:29:16.717573
1419  2023-10-19 10:29:16.749461
1420  2023-10-19 10:29:16.781403
1421  2023-10-19 10:29:16.813335
1422  2023-10-19 10:29:16.845247
1423  2023-10-19 10:29:16.877148
1424  2023-10-19 10:29:16.909061
1425  2023-10-19 10:29:16.956961
1426  2023-10-19 10:29:16.989848
1427  2023-10-19 10:29:17.021770
1428  2023-10-19 10:29:17.053685
1429  2023-10-19 10:29:17.085591
1430  2023-10-19 10:29:17.117505
1431  2023-10-19 10:29:17.149437
1432  2023-10-19 10:29:17.181353
1433  2023-10-19 10:29:17.213248
1434  2023-10-19 10:29:17.245169
1435  2023-10-19 10:29:17.278079
1436  2023-10-19 10:29:17.308996
1437  2023-10-19 10:29:17.357860
1438  2023-10-19 10:29:17.389773
1439  2023-10-19 10:29:17.421697
1440  2023-10-19 10:29:17.453614
1441  2023-10-19 10:29:17.485544
1442  2023-10-19 10:29:17.517441
1443  2023-10-19 10:29:17.549363
1444  2023-10-19 10:29:17.581274
1445  2023-10-19 10:29:17.614195
1446  2023-10-19 10:29:17.645065
1447  2023-10-19 10:29:17.677014
1448  2023-10-19 10:29:17.709929
1449  2023-10-19 10:29:17.757793
1450  2023-10-19 10:29:17.789709
1451  2023-10-19 10:29:17.821625
1452  2023-10-19 10:29:17.853507
1453  2023-10-19 10:29:17.885454
1454  2023-10-19 10:29:17.917376
1455  2023-10-19 10:29:17.949277
1456  2023-10-19 10:29:17.981193
1457  2023-10-19 10:29:18.013080
1458  2023-10-19 10:29:18.045040
1459  2023-10-19 10:29:18.077942
1460  2023-10-19 10:29:18.109876
1461  2023-10-19 10:29:18.157729
1462  2023-10-19 10:29:18.189636
1463  2023-10-19 10:29:18.221551
1464  2023-10-19 10:29:18.253441
1465  2023-10-19 10:29:18.285390
1466  2023-10-19 10:29:18.317303
1467  2023-10-19 10:29:18.349210
1468  2023-10-19 10:29:18.381097
1469  2023-10-19 10:29:18.413039
1470  2023-10-19 10:29:18.444951
1471  2023-10-19 10:29:18.477837
1472  2023-10-19 10:29:18.509785
1473  2023-10-19 10:29:18.557624
1474  2023-10-19 10:29:18.589577
1475  2023-10-19 10:29:18.622476
1476  2023-10-19 10:29:18.653414
1477  2023-10-19 10:29:18.685282
1478  2023-10-19 10:29:18.717227
1479  2023-10-19 10:29:18.749137
1480  2023-10-19 10:29:18.781057
1481  2023-10-19 10:29:18.812966
1482  2023-10-19 10:29:18.845880
1483  2023-10-19 10:29:18.877801
1484  2023-10-19 10:29:18.909721
1485  2023-10-19 10:29:18.957585
1486  2023-10-19 10:29:18.989509
1487  2023-10-19 10:29:19.021426
1488  2023-10-19 10:29:19.053340
1489  2023-10-19 10:29:19.085245
1490  2023-10-19 10:29:19.117153
1491  2023-10-19 10:29:19.149074
1492  2023-10-19 10:29:19.181004
1493  2023-10-19 10:29:19.213894
1494  2023-10-19 10:29:19.245811
1495  2023-10-19 10:29:19.277699
1496  2023-10-19 10:29:19.309647
1497  2023-10-19 10:29:19.357485
1498  2023-10-19 10:29:19.389440
1499  2023-10-19 10:29:19.421349
1500  2023-10-19 10:29:19.453227
1501  2023-10-19 10:29:19.485145
1502  2023-10-19 10:29:19.517058
1503  2023-10-19 10:29:19.549016
1504  2023-10-19 10:29:19.581918
1505  2023-10-19 10:29:19.613825
1506  2023-10-19 10:29:19.645714
1507  2023-10-19 10:29:19.677628
1508  2023-10-19 10:29:19.709571
1509  2023-10-19 10:29:19.757451
1510  2023-10-19 10:29:19.789356
1511  2023-10-19 10:29:19.821270
1512  2023-10-19 10:29:19.853187
1513  2023-10-19 10:29:19.885073
1514  2023-10-19 10:29:19.916988
1515  2023-10-19 10:29:19.949900
1516  2023-10-19 10:29:19.981814
1517  2023-10-19 10:29:20.013757
1518  2023-10-19 10:29:20.045644
1519  2023-10-19 10:29:20.077574
1520  2023-10-19 10:29:20.125431
1521  2023-10-19 10:29:20.157345
1522  2023-10-19 10:29:20.189285
1523  2023-10-19 10:29:20.221208
1524  2023-10-19 10:29:20.253126
1525  2023-10-19 10:29:20.285032
1526  2023-10-19 10:29:20.317917
1527  2023-10-19 10:29:20.349857
1528  2023-10-19 10:29:20.381777
1529  2023-10-19 10:29:20.413697
1530  2023-10-19 10:29:20.445575
1531  2023-10-19 10:29:20.477489
1532  2023-10-19 10:29:20.525429
1533  2023-10-19 10:29:20.557275
1534  2023-10-19 10:29:20.589214
1535  2023-10-19 10:29:20.621144
1536  2023-10-19 10:29:20.653050
1537  2023-10-19 10:29:20.684934
1538  2023-10-19 10:29:20.717846
1539  2023-10-19 10:29:20.749760
1540  2023-10-19 10:29:20.781702
1541  2023-10-19 10:29:20.813626
1542  2023-10-19 10:29:20.845508
1543  2023-10-19 10:29:20.877419
1544  2023-10-19 10:29:20.925317
1545  2023-10-19 10:29:20.957205
1546  2023-10-19 10:29:20.989166
1547  2023-10-19 10:29:21.021061
1548  2023-10-19 10:29:21.052983
1549  2023-10-19 10:29:21.085861
1550  2023-10-19 10:29:21.117818
1551  2023-10-19 10:29:21.149691
1552  2023-10-19 10:29:21.181605
1553  2023-10-19 10:29:21.213547
1554  2023-10-19 10:29:21.245480
1555  2023-10-19 10:29:21.277349
1556  2023-10-19 10:29:21.325248
1557  2023-10-19 10:29:21.357136
1558  2023-10-19 10:29:21.389050
1559  2023-10-19 10:29:21.421971
1560  2023-10-19 10:29:21.453877
1561  2023-10-19 10:29:21.485792
1562  2023-10-19 10:29:21.517706
1563  2023-10-19 10:29:21.549621
1564  2023-10-19 10:29:21.581535
1565  2023-10-19 10:29:21.613450
1566  2023-10-19 10:29:21.645365
1567  2023-10-19 10:29:21.677279
1568  2023-10-19 10:29:21.725151
1569  2023-10-19 10:29:21.757066
1570  2023-10-19 10:29:21.788983
1571  2023-10-19 10:29:21.821894
1572  2023-10-19 10:29:21.853808
1573  2023-10-19 10:29:21.885723
1574  2023-10-19 10:29:21.917637
1575  2023-10-19 10:29:21.949552
1576  2023-10-19 10:29:21.981466
1577  2023-10-19 10:29:22.013380
1578  2023-10-19 10:29:22.045295
1579  2023-10-19 10:29:22.077210
1580  2023-10-19 10:29:22.125082
1581  2023-10-19 10:29:22.158028
1582  2023-10-19 10:29:22.189946
1583  2023-10-19 10:29:22.221822
1584  2023-10-19 10:29:22.253737
1585  2023-10-19 10:29:22.285683
1586  2023-10-19 10:29:22.317597
1587  2023-10-19 10:29:22.349481
1588  2023-10-19 10:29:22.381396
1589  2023-10-19 10:29:22.413340
1590  2023-10-19 10:29:22.445253
1591  2023-10-19 10:29:22.477140
1592  2023-10-19 10:29:22.525078
1593  2023-10-19 10:29:22.557924
1594  2023-10-19 10:29:22.589838
1595  2023-10-19 10:29:22.621789
1596  2023-10-19 10:29:22.653695
1597  2023-10-19 10:29:22.685582
1598  2023-10-19 10:29:22.717503
1599  2023-10-19 10:29:22.749411
1600  2023-10-19 10:29:22.781326
1601  2023-10-19 10:29:22.813240
1602  2023-10-19 10:29:22.845155
1603  2023-10-19 10:29:22.877070
1604  2023-10-19 10:29:22.924942
1605  2023-10-19 10:29:22.957854
1606  2023-10-19 10:29:22.989768
1607  2023-10-19 10:29:23.021683
1608  2023-10-19 10:29:23.053596
1609  2023-10-19 10:29:23.085511
1610  2023-10-19 10:29:23.117425
1611  2023-10-19 10:29:23.149340
1612  2023-10-19 10:29:23.181255
1613  2023-10-19 10:29:23.213169
1614  2023-10-19 10:29:23.246081
1615  2023-10-19 10:29:23.276999
1616  2023-10-19 10:29:23.325868
1617  2023-10-19 10:29:23.357783
1618  2023-10-19 10:29:23.389697
1619  2023-10-19 10:29:23.421612
1620  2023-10-19 10:29:23.453556
1621  2023-10-19 10:29:23.485479
1622  2023-10-19 10:29:23.517356
1623  2023-10-19 10:29:23.549270
1624  2023-10-19 10:29:23.581185
1625  2023-10-19 10:29:23.613128
1626  2023-10-19 10:29:23.645014
1627  2023-10-19 10:29:23.692925
1628  2023-10-19 10:29:23.725798
1629  2023-10-19 10:29:23.757713
1630  2023-10-19 10:29:23.789675
1631  2023-10-19 10:29:23.821580
1632  2023-10-19 10:29:23.853457
1633  2023-10-19 10:29:23.885371
1634  2023-10-19 10:29:23.917286
1635  2023-10-19 10:29:23.949235
1636  2023-10-19 10:29:23.981115
1637  2023-10-19 10:29:24.013030
1638  2023-10-19 10:29:24.044944
1639  2023-10-19 10:29:24.093843
1640  2023-10-19 10:29:24.125768
1641  2023-10-19 10:29:24.157684
1642  2023-10-19 10:29:24.189558
1643  2023-10-19 10:29:24.221472
1644  2023-10-19 10:29:24.276328
1645  2023-10-19 10:29:24.285331
1646  2023-10-19 10:29:24.317216
1647  2023-10-19 10:29:24.349131
1648  2023-10-19 10:29:24.381046
1649  2023-10-19 10:29:24.413996
1650  2023-10-19 10:29:24.445872
1651  2023-10-19 10:29:24.493781
1652  2023-10-19 10:29:24.525659
1653  2023-10-19 10:29:24.557573
1654  2023-10-19 10:29:24.589488
1655  2023-10-19 10:29:24.621403
1656  2023-10-19 10:29:24.653317
1657  2023-10-19 10:29:24.686230
1658  2023-10-19 10:29:24.717146
1659  2023-10-19 10:29:24.749061
1660  2023-10-19 10:29:24.781977
1661  2023-10-19 10:29:24.813924
1662  2023-10-19 10:29:24.845803
1663  2023-10-19 10:29:24.893704
1664  2023-10-19 10:29:24.925589
1665  2023-10-19 10:29:24.957503
1666  2023-10-19 10:29:24.989455
1667  2023-10-19 10:29:25.021333
1668  2023-10-19 10:29:25.053247
1669  2023-10-19 10:29:25.085162
1670  2023-10-19 10:29:25.117123
1671  2023-10-19 10:29:25.148991
1672  2023-10-19 10:29:25.181904
1673  2023-10-19 10:29:25.213818
1674  2023-10-19 10:29:25.245732
1675  2023-10-19 10:29:25.293642
1676  2023-10-19 10:29:25.325519
1677  2023-10-19 10:29:25.357434
1678  2023-10-19 10:29:25.389348
1679  2023-10-19 10:29:25.421264
1680  2023-10-19 10:29:25.453178
1681  2023-10-19 10:29:25.485094
1682  2023-10-19 10:29:25.517007
1683  2023-10-19 10:29:25.549919
1684  2023-10-19 10:29:25.581835
1685  2023-10-19 10:29:25.613748
1686  2023-10-19 10:29:25.645663
1687  2023-10-19 10:29:25.693564
1688  2023-10-19 10:29:25.725449
1689  2023-10-19 10:29:25.757364
1690  2023-10-19 10:29:25.789279
1691  2023-10-19 10:29:25.821194
1692  2023-10-19 10:29:25.853108
1693  2023-10-19 10:29:25.885022
1694  2023-10-19 10:29:25.917935
1695  2023-10-19 10:29:25.949887
1696  2023-10-19 10:29:25.981766
1697  2023-10-19 10:29:26.013678
1698  2023-10-19 10:29:26.045593
1699  2023-10-19 10:29:26.093497
1700  2023-10-19 10:29:26.125379
1701  2023-10-19 10:29:26.157335
1702  2023-10-19 10:29:26.189239
1703  2023-10-19 10:29:26.221123
1704  2023-10-19 10:29:26.253038
1705  2023-10-19 10:29:26.284980
1706  2023-10-19 10:29:26.317892
1707  2023-10-19 10:29:26.349779
1708  2023-10-19 10:29:26.381694
1709  2023-10-19 10:29:26.413651
1710  2023-10-19 10:29:26.445525
1711  2023-10-19 10:29:26.493422
1712  2023-10-19 10:29:26.525345
1713  2023-10-19 10:29:26.557224
1714  2023-10-19 10:29:26.589139
1715  2023-10-19 10:29:26.621112
1716  2023-10-19 10:29:26.652995
1717  2023-10-19 10:29:26.685881
1718  2023-10-19 10:29:26.717795
1719  2023-10-19 10:29:26.749710
1720  2023-10-19 10:29:26.781624
1721  2023-10-19 10:29:26.813539
1722  2023-10-19 10:29:26.845453
1723  2023-10-19 10:29:26.893354
1724  2023-10-19 10:29:26.925240
1725  2023-10-19 10:29:26.957165
1726  2023-10-19 10:29:26.989070
1727  2023-10-19 10:29:27.020984
1728  2023-10-19 10:29:27.053896
1729  2023-10-19 10:29:27.085810
1730  2023-10-19 10:29:27.117725
1731  2023-10-19 10:29:27.149640
1732  2023-10-19 10:29:27.181554
1733  2023-10-19 10:29:27.213469
1734  2023-10-19 10:29:27.245384
1735  2023-10-19 10:29:27.293283
1736  2023-10-19 10:29:27.325172
1737  2023-10-19 10:29:27.357085
1738  2023-10-19 10:29:27.388999
1739  2023-10-19 10:29:27.421912
1740  2023-10-19 10:29:27.453826
1741  2023-10-19 10:29:27.485741
1742  2023-10-19 10:29:27.517655
1743  2023-10-19 10:29:27.549571
1744  2023-10-19 10:29:27.581485
1745  2023-10-19 10:29:27.613430
1746  2023-10-19 10:29:27.661301
1747  2023-10-19 10:29:27.694184
1748  2023-10-19 10:29:27.725101
1749  2023-10-19 10:29:27.757015
1750  2023-10-19 10:29:27.788930
1751  2023-10-19 10:29:27.821845
1752  2023-10-19 10:29:27.853757
1753  2023-10-19 10:29:27.885672
1754  2023-10-19 10:29:27.917586
1755  2023-10-19 10:29:27.949547
1756  2023-10-19 10:29:27.981419
1757  2023-10-19 10:29:28.013330
1758  2023-10-19 10:29:28.061231
1759  2023-10-19 10:29:28.093165
1760  2023-10-19 10:29:28.125031
1761  2023-10-19 10:29:28.157943
1762  2023-10-19 10:29:28.189859
1763  2023-10-19 10:29:28.221772
1764  2023-10-19 10:29:28.253687
1765  2023-10-19 10:29:28.285630
1766  2023-10-19 10:29:28.317545
1767  2023-10-19 10:29:28.349431
1768  2023-10-19 10:29:28.381345
1769  2023-10-19 10:29:28.413288
1770  2023-10-19 10:29:28.461170
1771  2023-10-19 10:29:28.493101
1772  2023-10-19 10:29:28.525003
1773  2023-10-19 10:29:28.556917
1774  2023-10-19 10:29:28.589789
1775  2023-10-19 10:29:28.621729
1776  2023-10-19 10:29:28.653652
1777  2023-10-19 10:29:28.685568
1778  2023-10-19 10:29:28.717481
1779  2023-10-19 10:29:28.749404
1780  2023-10-19 10:29:28.781302
1781  2023-10-19 10:29:28.813230
1782  2023-10-19 10:29:28.861093
1783  2023-10-19 10:29:28.894013
1784  2023-10-19 10:29:28.925925
1785  2023-10-19 10:29:28.957840
1786  2023-10-19 10:29:28.989764
1787  2023-10-19 10:29:29.021690
1788  2023-10-19 10:29:29.053590
1789  2023-10-19 10:29:29.085519
1790  2023-10-19 10:29:29.117379
1791  2023-10-19 10:29:29.149294
1792  2023-10-19 10:29:29.181249
1793  2023-10-19 10:29:29.213165
1794  2023-10-19 10:29:29.261020
1795  2023-10-19 10:29:29.293907
1796  2023-10-19 10:29:29.325869
1797  2023-10-19 10:29:29.357769
1798  2023-10-19 10:29:29.389685
1799  2023-10-19 10:29:29.421610
1800  2023-10-19 10:29:29.453521
1801  2023-10-19 10:29:29.485428
1802  2023-10-19 10:29:29.517346
1803  2023-10-19 10:29:29.549279
1804  2023-10-19 10:29:29.581180
1805  2023-10-19 10:29:29.614082
1806  2023-10-19 10:29:29.661961
1807  2023-10-19 10:29:29.693835
1808  2023-10-19 10:29:29.725808
1809  2023-10-19 10:29:29.757701
1810  2023-10-19 10:29:29.789622
1811  2023-10-19 10:29:29.821531
1812  2023-10-19 10:29:29.854442
1813  2023-10-19 10:29:29.886347
1814  2023-10-19 10:29:29.918265
1815  2023-10-19 10:29:29.950179
1816  2023-10-19 10:29:29.982067
1817  2023-10-19 10:29:30.013979
1818  2023-10-19 10:29:30.061892
1819  2023-10-19 10:29:30.093810
1820  2023-10-19 10:29:30.125682
1821  2023-10-19 10:29:30.157594
1822  2023-10-19 10:29:30.190508
1823  2023-10-19 10:29:30.222457
1824  2023-10-19 10:29:30.254373
1825  2023-10-19 10:29:30.286289
1826  2023-10-19 10:29:30.318192
1827  2023-10-19 10:29:30.350125
1828  2023-10-19 10:29:30.382024
1829  2023-10-19 10:29:30.413911
1830  2023-10-19 10:29:30.461817
1831  2023-10-19 10:29:30.493696
1832  2023-10-19 10:29:30.525659
1833  2023-10-19 10:29:30.557527
1834  2023-10-19 10:29:30.589440
1835  2023-10-19 10:29:30.622386
1836  2023-10-19 10:29:30.653303
1837  2023-10-19 10:29:30.685199
1838  2023-10-19 10:29:30.718137
1839  2023-10-19 10:29:30.750010
1840  2023-10-19 10:29:30.781957
1841  2023-10-19 10:29:30.813886
1842  2023-10-19 10:29:30.861745
1843  2023-10-19 10:29:30.893659
1844  2023-10-19 10:29:30.925569
1845  2023-10-19 10:29:30.957485
1846  2023-10-19 10:29:30.989401
1847  2023-10-19 10:29:31.021287
1848  2023-10-19 10:29:31.053227
1849  2023-10-19 10:29:31.085140
1850  2023-10-19 10:29:31.117030
1851  2023-10-19 10:29:31.149940
1852  2023-10-19 10:29:31.181855
1853  2023-10-19 10:29:31.229772
1854  2023-10-19 10:29:31.261684
1855  2023-10-19 10:29:31.293588
1856  2023-10-19 10:29:31.325500
1857  2023-10-19 10:29:31.357423
1858  2023-10-19 10:29:31.389329
1859  2023-10-19 10:29:31.421255
1860  2023-10-19 10:29:31.454160
1861  2023-10-19 10:29:31.486042
1862  2023-10-19 10:29:31.517957
1863  2023-10-19 10:29:31.549872
1864  2023-10-19 10:29:31.581786
1865  2023-10-19 10:29:31.629686
1866  2023-10-19 10:29:31.661572
1867  2023-10-19 10:29:31.694489
1868  2023-10-19 10:29:31.726400
1869  2023-10-19 10:29:31.758341
1870  2023-10-19 10:29:31.789256
1871  2023-10-19 10:29:31.821146
1872  2023-10-19 10:29:31.854093
1873  2023-10-19 10:29:31.886023
1874  2023-10-19 10:29:31.917938
1875  2023-10-19 10:29:31.949837
1876  2023-10-19 10:29:31.981759
1877  2023-10-19 10:29:32.029621
1878  2023-10-19 10:29:32.061502
1879  2023-10-19 10:29:32.093417
1880  2023-10-19 10:29:32.125357
1881  2023-10-19 10:29:32.158288
1882  2023-10-19 10:29:32.189161
1883  2023-10-19 10:29:32.221109
1884  2023-10-19 10:29:32.254020
1885  2023-10-19 10:29:32.285902
1886  2023-10-19 10:29:32.317818
1887  2023-10-19 10:29:32.349732
1888  2023-10-19 10:29:32.381673
1889  2023-10-19 10:29:32.429546
1890  2023-10-19 10:29:32.461469
1891  2023-10-19 10:29:32.493348
1892  2023-10-19 10:29:32.525301
1893  2023-10-19 10:29:32.557184
1894  2023-10-19 10:29:32.589146
1895  2023-10-19 10:29:32.621060
1896  2023-10-19 10:29:32.652976
1897  2023-10-19 10:29:32.685887
1898  2023-10-19 10:29:32.717801
1899  2023-10-19 10:29:32.749716
1900  2023-10-19 10:29:32.781631
1901  2023-10-19 10:29:32.829502
1902  2023-10-19 10:29:32.861419
1903  2023-10-19 10:29:32.893333
1904  2023-10-19 10:29:32.925247
1905  2023-10-19 10:29:32.957162
1906  2023-10-19 10:29:32.990074
1907  2023-10-19 10:29:33.021987
1908  2023-10-19 10:29:33.053905
1909  2023-10-19 10:29:33.085818
1910  2023-10-19 10:29:33.117732
1911  2023-10-19 10:29:33.149647
1912  2023-10-19 10:29:33.181561
1913  2023-10-19 10:29:33.229434
1914  2023-10-19 10:29:33.261348
1915  2023-10-19 10:29:33.293263
1916  2023-10-19 10:29:33.325178
1917  2023-10-19 10:29:33.357092
1918  2023-10-19 10:29:33.389007
1919  2023-10-19 10:29:33.421919
1920  2023-10-19 10:29:33.453833
1921  2023-10-19 10:29:33.485748
1922  2023-10-19 10:29:33.517662
1923  2023-10-19 10:29:33.549667
1924  2023-10-19 10:29:33.581574
1925  2023-10-19 10:29:33.629442
1926  2023-10-19 10:29:33.661360
1927  2023-10-19 10:29:33.693280
1928  2023-10-19 10:29:33.725208
1929  2023-10-19 10:29:33.757071
1930  2023-10-19 10:29:33.788985
1931  2023-10-19 10:29:33.821933
1932  2023-10-19 10:29:33.853846
1933  2023-10-19 10:29:33.885767
1934  2023-10-19 10:29:33.917681
1935  2023-10-19 10:29:33.949604
1936  2023-10-19 10:29:33.981471
1937  2023-10-19 10:29:34.029342
1938  2023-10-19 10:29:34.061292
1939  2023-10-19 10:29:34.093198
1940  2023-10-19 10:29:34.125118
1941  2023-10-19 10:29:34.157029
1942  2023-10-19 10:29:34.188957
1943  2023-10-19 10:29:34.221860
1944  2023-10-19 10:29:34.253782
1945  2023-10-19 10:29:34.285704
1946  2023-10-19 10:29:34.317610
1947  2023-10-19 10:29:34.349522
1948  2023-10-19 10:29:34.381440
1949  2023-10-19 10:29:34.429316
1950  2023-10-19 10:29:34.461217
1951  2023-10-19 10:29:34.493105
1952  2023-10-19 10:29:34.525044
1953  2023-10-19 10:29:34.556976
1954  2023-10-19 10:29:34.589871
1955  2023-10-19 10:29:34.621783
1956  2023-10-19 10:29:34.653700
1957  2023-10-19 10:29:34.685625
1958  2023-10-19 10:29:34.717503
1959  2023-10-19 10:29:34.749456
1960  2023-10-19 10:29:34.781378
1961  2023-10-19 10:29:34.829202
1962  2023-10-19 10:29:34.889094
1963  2023-10-19 10:29:34.894030
1964  2023-10-19 10:29:34.924993
1965  2023-10-19 10:29:34.957889
1966  2023-10-19 10:29:34.989831
1967  2023-10-19 10:29:35.021723
1968  2023-10-19 10:29:35.053603
1969  2023-10-19 10:29:35.085561
1970  2023-10-19 10:29:35.117476
1971  2023-10-19 10:29:35.149387
1972  2023-10-19 10:29:35.198217
1973  2023-10-19 10:29:35.230132
1974  2023-10-19 10:29:35.261075
1975  2023-10-19 10:29:35.292988
1976  2023-10-19 10:29:35.325875
1977  2023-10-19 10:29:35.357790
1978  2023-10-19 10:29:35.389749
1979  2023-10-19 10:29:35.421659
1980  2023-10-19 10:29:35.453537
1981  2023-10-19 10:29:35.485449
1982  2023-10-19 10:29:35.517394
1983  2023-10-19 10:29:35.549278
1984  2023-10-19 10:29:35.597188
1985  2023-10-19 10:29:35.629067
1986  2023-10-19 10:29:35.662011
1987  2023-10-19 10:29:35.693895
1988  2023-10-19 10:29:35.725839
1989  2023-10-19 10:29:35.757719
1990  2023-10-19 10:29:35.789673
1991  2023-10-19 10:29:35.821548
1992  2023-10-19 10:29:35.853499
1993  2023-10-19 10:29:35.885410
1994  2023-10-19 10:29:35.917321
1995  2023-10-19 10:29:35.949236
1996  2023-10-19 10:29:35.998077
1997  2023-10-19 10:29:36.028994
1998  2023-10-19 10:29:36.060946
1999  2023-10-19 10:29:36.093875
2000  2023-10-19 10:29:36.125736
2001  2023-10-19 10:29:36.157683
2002  2023-10-19 10:29:36.189592
2003  2023-10-19 10:29:36.221506
2004  2023-10-19 10:29:36.253429
2005  2023-10-19 10:29:36.285353
2006  2023-10-19 10:29:36.317259
2007  2023-10-19 10:29:36.349192
2008  2023-10-19 10:29:36.397037
2009  2023-10-19 10:29:36.428956
2010  2023-10-19 10:29:36.461886
2011  2023-10-19 10:29:36.493778
2012  2023-10-19 10:29:36.525706
2013  2023-10-19 10:29:36.557609
2014  2023-10-19 10:29:36.589529
2015  2023-10-19 10:29:36.621435
2016  2023-10-19 10:29:36.653324
2017  2023-10-19 10:29:36.685275
2018  2023-10-19 10:29:36.717181
2019  2023-10-19 10:29:36.749099
2020  2023-10-19 10:29:36.796975
2021  2023-10-19 10:29:36.829881
2022  2023-10-19 10:29:36.861799
2023  2023-10-19 10:29:36.893711
2024  2023-10-19 10:29:36.925645
2025  2023-10-19 10:29:36.957536
2026  2023-10-19 10:29:36.989464
2027  2023-10-19 10:29:37.021369
2028  2023-10-19 10:29:37.053287
2029  2023-10-19 10:29:37.085207
2030  2023-10-19 10:29:37.117084
2031  2023-10-19 10:29:37.149032
2032  2023-10-19 10:29:37.197920
2033  2023-10-19 10:29:37.229817
2034  2023-10-19 10:29:37.261731
2035  2023-10-19 10:29:37.293612
2036  2023-10-19 10:29:37.325561
2037  2023-10-19 10:29:37.357475
2038  2023-10-19 10:29:37.389403
2039  2023-10-19 10:29:37.421317
2040  2023-10-19 10:29:37.453212
2041  2023-10-19 10:29:37.485144
2042  2023-10-19 10:29:37.517051
2043  2023-10-19 10:29:37.548955
2044  2023-10-19 10:29:37.597825
2045  2023-10-19 10:29:37.629752
2046  2023-10-19 10:29:37.661630
2047  2023-10-19 10:29:37.693570
2048  2023-10-19 10:29:37.725456
2049  2023-10-19 10:29:37.757410
2050  2023-10-19 10:29:37.789327
2051  2023-10-19 10:29:37.821225
2052  2023-10-19 10:29:37.853159
2053  2023-10-19 10:29:37.885070
2054  2023-10-19 10:29:37.916985
2055  2023-10-19 10:29:37.949882
2056  2023-10-19 10:29:37.997769
2057  2023-10-19 10:29:38.029681
2058  2023-10-19 10:29:38.061590
2059  2023-10-19 10:29:38.093510
2060  2023-10-19 10:29:38.125433
2061  2023-10-19 10:29:38.157335
2062  2023-10-19 10:29:38.189245
2063  2023-10-19 10:29:38.221165
2064  2023-10-19 10:29:38.253076
2065  2023-10-19 10:29:38.285956
2066  2023-10-19 10:29:38.317873
2067  2023-10-19 10:29:38.349828
2068  2023-10-19 10:29:38.397706
2069  2023-10-19 10:29:38.429600
2070  2023-10-19 10:29:38.461525
2071  2023-10-19 10:29:38.493403
2072  2023-10-19 10:29:38.525348
2073  2023-10-19 10:29:38.557281
2074  2023-10-19 10:29:38.589182
2075  2023-10-19 10:29:38.621086
2076  2023-10-19 10:29:38.653017
2077  2023-10-19 10:29:38.684997
2078  2023-10-19 10:29:38.717915
2079  2023-10-19 10:29:38.765779
2080  2023-10-19 10:29:38.797708
2081  2023-10-19 10:29:38.829579
2082  2023-10-19 10:29:38.861493
2083  2023-10-19 10:29:38.893443
2084  2023-10-19 10:29:38.925322
2085  2023-10-19 10:29:38.957292
2086  2023-10-19 10:29:38.989202
2087  2023-10-19 10:29:39.021104
2088  2023-10-19 10:29:39.053021
2089  2023-10-19 10:29:39.085892
2090  2023-10-19 10:29:39.117807
2091  2023-10-19 10:29:39.165719
2092  2023-10-19 10:29:39.197629
2093  2023-10-19 10:29:39.229539
2094  2023-10-19 10:29:39.261451
2095  2023-10-19 10:29:39.293395
2096  2023-10-19 10:29:39.325252
2097  2023-10-19 10:29:39.357166
2098  2023-10-19 10:29:39.389081
2099  2023-10-19 10:29:39.421043
2100  2023-10-19 10:29:39.452938
2101  2023-10-19 10:29:39.485856
2102  2023-10-19 10:29:39.517737
2103  2023-10-19 10:29:39.565648
2104  2023-10-19 10:29:39.597552
2105  2023-10-19 10:29:39.629466
2106  2023-10-19 10:29:39.661422
2107  2023-10-19 10:29:39.693308
2108  2023-10-19 10:29:39.725220
2109  2023-10-19 10:29:39.757138
2110  2023-10-19 10:29:39.789049
2111  2023-10-19 10:29:39.821925
2112  2023-10-19 10:29:39.853885
2113  2023-10-19 10:29:39.885792
2114  2023-10-19 10:29:39.917667
2115  2023-10-19 10:29:39.965581
2116  2023-10-19 10:29:39.997499
2117  2023-10-19 10:29:40.029429
2118  2023-10-19 10:29:40.061320
2119  2023-10-19 10:29:40.093199
2120  2023-10-19 10:29:40.125140
2121  2023-10-19 10:29:40.157056
2122  2023-10-19 10:29:40.188982
2123  2023-10-19 10:29:40.221894
2124  2023-10-19 10:29:40.253809
2125  2023-10-19 10:29:40.285725
2126  2023-10-19 10:29:40.317633
2127  2023-10-19 10:29:40.365474
2128  2023-10-19 10:29:40.397422
2129  2023-10-19 10:29:40.429301
2130  2023-10-19 10:29:40.461254
2131  2023-10-19 10:29:40.493130
2132  2023-10-19 10:29:40.564936
2133  2023-10-19 10:29:40.589870
2134  2023-10-19 10:29:40.621821
2135  2023-10-19 10:29:40.653751
2136  2023-10-19 10:29:40.685659
2137  2023-10-19 10:29:40.717529
2138  2023-10-19 10:29:40.765429
2139  2023-10-19 10:29:40.797352
2140  2023-10-19 10:29:40.829275
2141  2023-10-19 10:29:40.861191
2142  2023-10-19 10:29:40.893097
2143  2023-10-19 10:29:40.925972
2144  2023-10-19 10:29:40.957942
2145  2023-10-19 10:29:40.989801
2146  2023-10-19 10:29:41.021764
2147  2023-10-19 10:29:41.053687
2148  2023-10-19 10:29:41.085586
2149  2023-10-19 10:29:41.117487
2150  2023-10-19 10:29:41.165397
2151  2023-10-19 10:29:41.197290
2152  2023-10-19 10:29:41.229187
2153  2023-10-19 10:29:41.261109
2154  2023-10-19 10:29:41.293026
2155  2023-10-19 10:29:41.324946
2156  2023-10-19 10:29:41.357867
2157  2023-10-19 10:29:41.389765
2158  2023-10-19 10:29:41.421696
2159  2023-10-19 10:29:41.453560
2160  2023-10-19 10:29:41.485503
2161  2023-10-19 10:29:41.517388
2162  2023-10-19 10:29:41.565289
2163  2023-10-19 10:29:41.597204
2164  2023-10-19 10:29:41.629119
2165  2023-10-19 10:29:41.661007
2166  2023-10-19 10:29:41.692923
2167  2023-10-19 10:29:41.725898
2168  2023-10-19 10:29:41.757808
2169  2023-10-19 10:29:41.789665
2170  2023-10-19 10:29:41.821580
2171  2023-10-19 10:29:41.853489
2172  2023-10-19 10:29:41.885457
2173  2023-10-19 10:29:41.917361
2174  2023-10-19 10:29:41.965231
2175  2023-10-19 10:29:41.997109
2176  2023-10-19 10:29:42.029052
2177  2023-10-19 10:29:42.060934
2178  2023-10-19 10:29:42.093885
2179  2023-10-19 10:29:42.125804
2180  2023-10-19 10:29:42.157677
2181  2023-10-19 10:29:42.189638
2182  2023-10-19 10:29:42.221542
2183  2023-10-19 10:29:42.253421
2184  2023-10-19 10:29:42.285368
2185  2023-10-19 10:29:42.317276
2186  2023-10-19 10:29:42.365151
2187  2023-10-19 10:29:42.397073
2188  2023-10-19 10:29:42.428976
2189  2023-10-19 10:29:42.461889
2190  2023-10-19 10:29:42.493805
2191  2023-10-19 10:29:42.525720
2192  2023-10-19 10:29:42.557647
2193  2023-10-19 10:29:42.589520
2194  2023-10-19 10:29:42.621472
2195  2023-10-19 10:29:42.653355
2196  2023-10-19 10:29:42.685316
2197  2023-10-19 10:29:42.733189
2198  2023-10-19 10:29:42.765086
2199  2023-10-19 10:29:42.797001
2200  2023-10-19 10:29:42.828914
2201  2023-10-19 10:29:42.861823
2202  2023-10-19 10:29:42.893747
2203  2023-10-19 10:29:42.925661
2204  2023-10-19 10:29:42.957583
2205  2023-10-19 10:29:42.989495
2206  2023-10-19 10:29:43.021403
2207  2023-10-19 10:29:43.053327
2208  2023-10-19 10:29:43.085248
2209  2023-10-19 10:29:43.133096
2210  2023-10-19 10:29:43.165008
2211  2023-10-19 10:29:43.197924
2212  2023-10-19 10:29:43.229809
2213  2023-10-19 10:29:43.261758
2214  2023-10-19 10:29:43.293678
2215  2023-10-19 10:29:43.325555
2216  2023-10-19 10:29:43.357501
2217  2023-10-19 10:29:43.389428
2218  2023-10-19 10:29:43.421329
2219  2023-10-19 10:29:43.453245
2220  2023-10-19 10:29:43.485161
2221  2023-10-19 10:29:43.533039
2222  2023-10-19 10:29:43.564912
2223  2023-10-19 10:29:43.597852
2224  2023-10-19 10:29:43.629739
2225  2023-10-19 10:29:43.661706
2226  2023-10-19 10:29:43.693594
2227  2023-10-19 10:29:43.725522
2228  2023-10-19 10:29:43.757442
2229  2023-10-19 10:29:43.789312
2230  2023-10-19 10:29:43.821227
2231  2023-10-19 10:29:43.853142
2232  2023-10-19 10:29:43.885100
2233  2023-10-19 10:29:43.932954
2234  2023-10-19 10:29:43.965878
2235  2023-10-19 10:29:43.997754
2236  2023-10-19 10:29:44.029704
2237  2023-10-19 10:29:44.061623
2238  2023-10-19 10:29:44.093533
2239  2023-10-19 10:29:44.125448
2240  2023-10-19 10:29:44.157384
2241  2023-10-19 10:29:44.189276
2242  2023-10-19 10:29:44.221157
2243  2023-10-19 10:29:44.254069
2244  2023-10-19 10:29:44.285022
2245  2023-10-19 10:29:44.333856
2246  2023-10-19 10:29:44.365806
2247  2023-10-19 10:29:44.397721
2248  2023-10-19 10:29:44.429635
2249  2023-10-19 10:29:44.461565
2250  2023-10-19 10:29:44.493457
2251  2023-10-19 10:29:44.525396
2252  2023-10-19 10:29:44.557317
2253  2023-10-19 10:29:44.589215
2254  2023-10-19 10:29:44.621120
2255  2023-10-19 10:29:44.654000
2256  2023-10-19 10:29:44.685929
2257  2023-10-19 10:29:44.733786
2258  2023-10-19 10:29:44.765740
2259  2023-10-19 10:29:44.797645
2260  2023-10-19 10:29:44.829586
2261  2023-10-19 10:29:44.861475
2262  2023-10-19 10:29:44.893389
2263  2023-10-19 10:29:44.925274
2264  2023-10-19 10:29:44.957231
2265  2023-10-19 10:29:44.989146
2266  2023-10-19 10:29:45.021050
2267  2023-10-19 10:29:45.052978
2268  2023-10-19 10:29:45.084890
2269  2023-10-19 10:29:45.133751
2270  2023-10-19 10:29:45.165661
2271  2023-10-19 10:29:45.197576
2272  2023-10-19 10:29:45.229499
2273  2023-10-19 10:29:45.261407
2274  2023-10-19 10:29:45.293288
2275  2023-10-19 10:29:45.325246
2276  2023-10-19 10:29:45.357157
2277  2023-10-19 10:29:45.389098
2278  2023-10-19 10:29:45.420982
2279  2023-10-19 10:29:45.452900
2280  2023-10-19 10:29:45.485810
2281  2023-10-19 10:29:45.533683
2282  2023-10-19 10:29:45.565588
2283  2023-10-19 10:29:45.597479
2284  2023-10-19 10:29:45.629428
2285  2023-10-19 10:29:45.661355
2286  2023-10-19 10:29:45.693265
2287  2023-10-19 10:29:45.725165
2288  2023-10-19 10:29:45.757094
2289  2023-10-19 10:29:45.789028
2290  2023-10-19 10:29:45.821875
2291  2023-10-19 10:29:45.853847
2292  2023-10-19 10:29:45.885749
2293  2023-10-19 10:29:45.933618
2294  2023-10-19 10:29:45.965523
2295  2023-10-19 10:29:45.997410
2296  2023-10-19 10:29:46.029347
2297  2023-10-19 10:29:46.061238
2298  2023-10-19 10:29:46.093186
2299  2023-10-19 10:29:46.125098
2300  2023-10-19 10:29:46.157049
2301  2023-10-19 10:29:46.189925
2302  2023-10-19 10:29:46.221860
2303  2023-10-19 10:29:46.253754
2304  2023-10-19 10:29:46.285635
2305  2023-10-19 10:29:46.333544
2306  2023-10-19 10:29:46.365423
2307  2023-10-19 10:29:46.397365
2308  2023-10-19 10:29:46.429292
2309  2023-10-19 10:29:46.461204
2310  2023-10-19 10:29:46.493108
2311  2023-10-19 10:29:46.525041
2312  2023-10-19 10:29:46.556970
2313  2023-10-19 10:29:46.589886
2314  2023-10-19 10:29:46.621783
2315  2023-10-19 10:29:46.653701
2316  2023-10-19 10:29:46.701569
2317  2023-10-19 10:29:46.733440
2318  2023-10-19 10:29:46.765391
2319  2023-10-19 10:29:46.797305
2320  2023-10-19 10:29:46.829184
2321  2023-10-19 10:29:46.861099
2322  2023-10-19 10:29:46.893009
2323  2023-10-19 10:29:46.924959
2324  2023-10-19 10:29:46.957901
2325  2023-10-19 10:29:46.989807
2326  2023-10-19 10:29:47.021706
2327  2023-10-19 10:29:47.053628
2328  2023-10-19 10:29:47.101501
2329  2023-10-19 10:29:47.133405
2330  2023-10-19 10:29:47.165317
2331  2023-10-19 10:29:47.197224
2332  2023-10-19 10:29:47.229139
2333  2023-10-19 10:29:47.261063
2334  2023-10-19 10:29:47.292981
2335  2023-10-19 10:29:47.325893
2336  2023-10-19 10:29:47.357811
2337  2023-10-19 10:29:47.389714
2338  2023-10-19 10:29:47.421595
2339  2023-10-19 10:29:47.453515
2340  2023-10-19 10:29:47.501420
2341  2023-10-19 10:29:47.533334
2342  2023-10-19 10:29:47.565241
2343  2023-10-19 10:29:47.597158
2344  2023-10-19 10:29:47.629074
2345  2023-10-19 10:29:47.660987
2346  2023-10-19 10:29:47.693867
2347  2023-10-19 10:29:47.725833
2348  2023-10-19 10:29:47.757729
2349  2023-10-19 10:29:47.789647
2350  2023-10-19 10:29:47.821559
2351  2023-10-19 10:29:47.853483
2352  2023-10-19 10:29:47.901367
2353  2023-10-19 10:29:47.933256
2354  2023-10-19 10:29:47.965180
2355  2023-10-19 10:29:47.997062
2356  2023-10-19 10:29:48.028972
2357  2023-10-19 10:29:48.061886
2358  2023-10-19 10:29:48.093799
2359  2023-10-19 10:29:48.126712
2360  2023-10-19 10:29:48.158631
2361  2023-10-19 10:29:48.190578
2362  2023-10-19 10:29:48.222493
2363  2023-10-19 10:29:48.254398
2364  2023-10-19 10:29:48.302282
2365  2023-10-19 10:29:48.334184
2366  2023-10-19 10:29:48.366070
2367  2023-10-19 10:29:48.397985
2368  2023-10-19 10:29:48.430924
2369  2023-10-19 10:29:48.462838
2370  2023-10-19 10:29:48.494725
2371  2023-10-19 10:29:48.526682
2372  2023-10-19 10:29:48.558595
2373  2023-10-19 10:29:48.590532
2374  2023-10-19 10:29:48.622432
2375  2023-10-19 10:29:48.654328
2376  2023-10-19 10:29:48.702203
2377  2023-10-19 10:29:48.734086
2378  2023-10-19 10:29:48.766032
2379  2023-10-19 10:29:48.797916
2380  2023-10-19 10:29:48.829862
2381  2023-10-19 10:29:48.861773
2382  2023-10-19 10:29:48.893714
2383  2023-10-19 10:29:48.925603
2384  2023-10-19 10:29:48.957519
2385  2023-10-19 10:29:48.989434
2386  2023-10-19 10:29:49.022356
2387  2023-10-19 10:29:49.054228
2388  2023-10-19 10:29:49.102127
2389  2023-10-19 10:29:49.134078
2390  2023-10-19 10:29:49.165959
2391  2023-10-19 10:29:49.197898
2392  2023-10-19 10:29:49.229766
2393  2023-10-19 10:29:49.261700
2394  2023-10-19 10:29:49.293588
2395  2023-10-19 10:29:49.326501
2396  2023-10-19 10:29:49.357418
2397  2023-10-19 10:29:49.389363
2398  2023-10-19 10:29:49.421281
2399  2023-10-19 10:29:49.453213
2400  2023-10-19 10:29:49.501034
2401  2023-10-19 10:29:49.533945
2402  2023-10-19 10:29:49.565861
2403  2023-10-19 10:29:49.597779
2404  2023-10-19 10:29:49.629690
2405  2023-10-19 10:29:49.661611
2406  2023-10-19 10:29:49.693519
2407  2023-10-19 10:29:49.725471
2408  2023-10-19 10:29:49.757381
2409  2023-10-19 10:29:49.789311
2410  2023-10-19 10:29:49.821216
2411  2023-10-19 10:29:49.853137
2412  2023-10-19 10:29:49.900999
2413  2023-10-19 10:29:49.933876
2414  2023-10-19 10:29:49.965790
2415  2023-10-19 10:29:49.997731
2416  2023-10-19 10:29:50.029653
2417  2023-10-19 10:29:50.061564
2418  2023-10-19 10:29:50.094505
2419  2023-10-19 10:29:50.126360
2420  2023-10-19 10:29:50.158275
2421  2023-10-19 10:29:50.189237
2422  2023-10-19 10:29:50.221143
2423  2023-10-19 10:29:50.269017
2424  2023-10-19 10:29:50.300963
2425  2023-10-19 10:29:50.333807
2426  2023-10-19 10:29:50.365720
2427  2023-10-19 10:29:50.398674
2428  2023-10-19 10:29:50.429550
2429  2023-10-19 10:29:50.461465
2430  2023-10-19 10:29:50.494382
2431  2023-10-19 10:29:50.526319
2432  2023-10-19 10:29:50.558238
2433  2023-10-19 10:29:50.589156
2434  2023-10-19 10:29:50.621087
2435  2023-10-19 10:29:50.668943
2436  2023-10-19 10:29:50.701823
2437  2023-10-19 10:29:50.734739
2438  2023-10-19 10:29:50.765677
2439  2023-10-19 10:29:50.797566
2440  2023-10-19 10:29:50.829516
2441  2023-10-19 10:29:50.861443
2442  2023-10-19 10:29:50.893355
2443  2023-10-19 10:29:50.926250
2444  2023-10-19 10:29:50.958192
2445  2023-10-19 10:29:50.990085
2446  2023-10-19 10:29:51.020994
2447  2023-10-19 10:29:51.070844
2448  2023-10-19 10:29:51.101789
2449  2023-10-19 10:29:51.133704
2450  2023-10-19 10:29:51.165616
2451  2023-10-19 10:29:51.197530
2452  2023-10-19 10:29:51.229437
2453  2023-10-19 10:29:51.261362
2454  2023-10-19 10:29:51.293269
2455  2023-10-19 10:29:51.326198
2456  2023-10-19 10:29:51.357103
2457  2023-10-19 10:29:51.389042
2458  2023-10-19 10:29:51.421923
2459  2023-10-19 10:29:51.469809
2460  2023-10-19 10:29:51.501686
2461  2023-10-19 10:29:51.533597
2462  2023-10-19 10:29:51.565517
2463  2023-10-19 10:29:51.597458
2464  2023-10-19 10:29:51.629342
2465  2023-10-19 10:29:51.678210
2466  2023-10-19 10:29:51.693176
2467  2023-10-19 10:29:51.725122
2468  2023-10-19 10:29:51.757000
2469  2023-10-19 10:29:51.789912
2470  2023-10-19 10:29:51.821853
2471  2023-10-19 10:29:51.869698
2472  2023-10-19 10:29:51.901656
2473  2023-10-19 10:29:51.933566
2474  2023-10-19 10:29:51.965471
2475  2023-10-19 10:29:51.997360
2476  2023-10-19 10:29:52.030307
2477  2023-10-19 10:29:52.061214
2478  2023-10-19 10:29:52.093129
2479  2023-10-19 10:29:52.125043
2480  2023-10-19 10:29:52.157962
2481  2023-10-19 10:29:52.189876
2482  2023-10-19 10:29:52.221757
2483  2023-10-19 10:29:52.269629
2484  2023-10-19 10:29:52.301610
2485  2023-10-19 10:29:52.333457
2486  2023-10-19 10:29:52.365372
2487  2023-10-19 10:29:52.397286
2488  2023-10-19 10:29:52.429201
2489  2023-10-19 10:29:52.461115
2490  2023-10-19 10:29:52.493030
2491  2023-10-19 10:29:52.524944
2492  2023-10-19 10:29:52.556888
2493  2023-10-19 10:29:52.589772
2494  2023-10-19 10:29:52.621690
2495  2023-10-19 10:29:52.669603
2496  2023-10-19 10:29:52.701510
2497  2023-10-19 10:29:52.733424
2498  2023-10-19 10:29:52.765302
2499  2023-10-19 10:29:52.797217
2500  2023-10-19 10:29:52.829168
2501  2023-10-19 10:29:52.862043
2502  2023-10-19 10:29:52.892960
2503  2023-10-19 10:29:52.925872
2504  2023-10-19 10:29:52.957820
2505  2023-10-19 10:29:52.989701
2506  2023-10-19 10:29:53.021645
2507  2023-10-19 10:29:53.069488
2508  2023-10-19 10:29:53.101439
2509  2023-10-19 10:29:53.133356
2510  2023-10-19 10:29:53.165233
2511  2023-10-19 10:29:53.197147
2512  2023-10-19 10:29:53.229099
2513  2023-10-19 10:29:53.261006
2514  2023-10-19 10:29:53.292932
2515  2023-10-19 10:29:53.325849
2516  2023-10-19 10:29:53.357717
2517  2023-10-19 10:29:53.389667
2518  2023-10-19 10:29:53.421583
2519  2023-10-19 10:29:53.469463
2520  2023-10-19 10:29:53.501338
2521  2023-10-19 10:29:53.534246
2522  2023-10-19 10:29:53.565204
2523  2023-10-19 10:29:53.597123
2524  2023-10-19 10:29:53.629025
2525  2023-10-19 10:29:53.661904
2526  2023-10-19 10:29:53.693852
2527  2023-10-19 10:29:53.725781
2528  2023-10-19 10:29:53.757682
2529  2023-10-19 10:29:53.789562
2530  2023-10-19 10:29:53.821476
2531  2023-10-19 10:29:53.869349
2532  2023-10-19 10:29:53.901263
2533  2023-10-19 10:29:53.933178
2534  2023-10-19 10:29:53.965092
2535  2023-10-19 10:29:53.997007
2536  2023-10-19 10:29:54.028921
2537  2023-10-19 10:29:54.061834
2538  2023-10-19 10:29:54.093750
2539  2023-10-19 10:29:54.125709
2540  2023-10-19 10:29:54.157582
2541  2023-10-19 10:29:54.189521
2542  2023-10-19 10:29:54.237412
2543  2023-10-19 10:29:54.269334
2544  2023-10-19 10:29:54.301238
2545  2023-10-19 10:29:54.333135
2546  2023-10-19 10:29:54.365055
2547  2023-10-19 10:29:54.396966
2548  2023-10-19 10:29:54.429851
2549  2023-10-19 10:29:54.461768
2550  2023-10-19 10:29:54.493719
2551  2023-10-19 10:29:54.525594
2552  2023-10-19 10:29:54.557539
2553  2023-10-19 10:29:54.589452
2554  2023-10-19 10:29:54.637299
2555  2023-10-19 10:29:54.669214
2556  2023-10-19 10:29:54.701128
2557  2023-10-19 10:29:54.734037
2558  2023-10-19 10:29:54.764954
2559  2023-10-19 10:29:54.797868
2560  2023-10-19 10:29:54.829781
2561  2023-10-19 10:29:54.861698
2562  2023-10-19 10:29:54.893610
2563  2023-10-19 10:29:54.925525
2564  2023-10-19 10:29:54.957441
2565  2023-10-19 10:29:54.989354
2566  2023-10-19 10:29:55.037226
2567  2023-10-19 10:29:55.070138
2568  2023-10-19 10:29:55.101056
2569  2023-10-19 10:29:55.132970
2570  2023-10-19 10:29:55.165883
2571  2023-10-19 10:29:55.197797
2572  2023-10-19 10:29:55.229711
2573  2023-10-19 10:29:55.261627
2574  2023-10-19 10:29:55.293540
2575  2023-10-19 10:29:55.325455
2576  2023-10-19 10:29:55.357370
2577  2023-10-19 10:29:55.389284
2578  2023-10-19 10:29:55.437156
2579  2023-10-19 10:29:55.469070
2580  2023-10-19 10:29:55.500988
2581  2023-10-19 10:29:55.532901
2582  2023-10-19 10:29:55.565812
2583  2023-10-19 10:29:55.597765
2584  2023-10-19 10:29:55.629693
2585  2023-10-19 10:29:55.661556
2586  2023-10-19 10:29:55.693471
2587  2023-10-19 10:29:55.725385
2588  2023-10-19 10:29:55.757300
2589  2023-10-19 10:29:55.789214
2590  2023-10-19 10:29:55.837086
2591  2023-10-19 10:29:55.869001
2592  2023-10-19 10:29:55.900915
2593  2023-10-19 10:29:55.933827
2594  2023-10-19 10:29:55.965782
2595  2023-10-19 10:29:55.997656
2596  2023-10-19 10:29:56.029598
2597  2023-10-19 10:29:56.061539
2598  2023-10-19 10:29:56.093436
2599  2023-10-19 10:29:56.125351
2600  2023-10-19 10:29:56.158227
2601  2023-10-19 10:29:56.189193
2602  2023-10-19 10:29:56.238014
2603  2023-10-19 10:29:56.269928
2604  2023-10-19 10:29:56.301883
2605  2023-10-19 10:29:56.333794
2606  2023-10-19 10:29:56.365673
2607  2023-10-19 10:29:56.397621
2608  2023-10-19 10:29:56.429502
2609  2023-10-19 10:29:56.461443
2610  2023-10-19 10:29:56.493368
2611  2023-10-19 10:29:56.525247
2612  2023-10-19 10:29:56.557158
2613  2023-10-19 10:29:56.589112
2614  2023-10-19 10:29:56.636979
2615  2023-10-19 10:29:56.669893
2616  2023-10-19 10:29:56.701772
2617  2023-10-19 10:29:56.733691
2618  2023-10-19 10:29:56.765601
2619  2023-10-19 10:29:56.797517
2620  2023-10-19 10:29:56.829433
2621  2023-10-19 10:29:56.861349
2622  2023-10-19 10:29:56.893309
2623  2023-10-19 10:29:56.925174
2624  2023-10-19 10:29:56.957122
2625  2023-10-19 10:29:56.989005
2626  2023-10-19 10:29:57.037880
2627  2023-10-19 10:29:57.069821
2628  2023-10-19 10:29:57.101704
2629  2023-10-19 10:29:57.133666
2630  2023-10-19 10:29:57.165532
2631  2023-10-19 10:29:57.197452
2632  2023-10-19 10:29:57.229398
2633  2023-10-19 10:29:57.261308
2634  2023-10-19 10:29:57.293216
2635  2023-10-19 10:29:57.325132
2636  2023-10-19 10:29:57.357058
2637  2023-10-19 10:29:57.388969
2638  2023-10-19 10:29:57.437840
2639  2023-10-19 10:29:57.469757
2640  2023-10-19 10:29:57.501660
2641  2023-10-19 10:29:57.533576
2642  2023-10-19 10:29:57.565497
2643  2023-10-19 10:29:57.597428
2644  2023-10-19 10:29:57.629291
2645  2023-10-19 10:29:57.661210
2646  2023-10-19 10:29:57.693159
2647  2023-10-19 10:29:57.725034
2648  2023-10-19 10:29:57.756949
2649  2023-10-19 10:29:57.805821
2650  2023-10-19 10:29:57.837735
2651  2023-10-19 10:29:57.869650
2652  2023-10-19 10:29:57.901592
2653  2023-10-19 10:29:57.933518
2654  2023-10-19 10:29:57.965417
2655  2023-10-19 10:29:57.997351
2656  2023-10-19 10:29:58.029264
2657  2023-10-19 10:29:58.061173
2658  2023-10-19 10:29:58.093080
2659  2023-10-19 10:29:58.125014
2660  2023-10-19 10:29:58.157877
2661  2023-10-19 10:29:58.205753
2662  2023-10-19 10:29:58.237664
2663  2023-10-19 10:29:58.269619
2664  2023-10-19 10:29:58.301543
2665  2023-10-19 10:29:58.333437
2666  2023-10-19 10:29:58.365325
2667  2023-10-19 10:29:58.397270
2668  2023-10-19 10:29:58.429206
2669  2023-10-19 10:29:58.461071
2670  2023-10-19 10:29:58.492981
2671  2023-10-19 10:29:58.525893
2672  2023-10-19 10:29:58.557850
2673  2023-10-19 10:29:58.605680
2674  2023-10-19 10:29:58.637598
2675  2023-10-19 10:29:58.669549
2676  2023-10-19 10:29:58.701453
2677  2023-10-19 10:29:58.733372
2678  2023-10-19 10:29:58.765257
2679  2023-10-19 10:29:58.797210
2680  2023-10-19 10:29:58.829119
2681  2023-10-19 10:29:58.861028
2682  2023-10-19 10:29:58.893956
2683  2023-10-19 10:29:58.925823
2684  2023-10-19 10:29:58.957737
2685  2023-10-19 10:29:59.005637
2686  2023-10-19 10:29:59.037558
2687  2023-10-19 10:29:59.069465
2688  2023-10-19 10:29:59.101392
2689  2023-10-19 10:29:59.133306
2690  2023-10-19 10:29:59.165218
2691  2023-10-19 10:29:59.197124
2692  2023-10-19 10:29:59.229040
2693  2023-10-19 10:29:59.260926
2694  2023-10-19 10:29:59.293885
2695  2023-10-19 10:29:59.325754
2696  2023-10-19 10:29:59.357668
2697  2023-10-19 10:29:59.405604
2698  2023-10-19 10:29:59.437492
2699  2023-10-19 10:29:59.469409
2700  2023-10-19 10:29:59.501318
2701  2023-10-19 10:29:59.533200
2702  2023-10-19 10:29:59.565119
2703  2023-10-19 10:29:59.597061
2704  2023-10-19 10:29:59.629941
2705  2023-10-19 10:29:59.661885
2706  2023-10-19 10:29:59.693769
2707  2023-10-19 10:29:59.725683
2708  2023-10-19 10:29:59.757598
2709  2023-10-19 10:29:59.805471
2710  2023-10-19 10:29:59.837386
2711  2023-10-19 10:29:59.869300
2712  2023-10-19 10:29:59.901242
2713  2023-10-19 10:29:59.933169
2714  2023-10-19 10:29:59.965084
2715  2023-10-19 10:29:59.996985
2716  2023-10-19 10:30:00.029903
2717  2023-10-19 10:30:00.061833
2718  2023-10-19 10:30:00.093740
2719  2023-10-19 10:30:00.125663
2720  2023-10-19 10:30:00.157558
2721  2023-10-19 10:30:00.205430
2722  2023-10-19 10:30:00.237349
2723  2023-10-19 10:30:00.269258
2724  2023-10-19 10:30:00.301216
2725  2023-10-19 10:30:00.333063
2726  2023-10-19 10:30:00.364978
2727  2023-10-19 10:30:00.397885
2728  2023-10-19 10:30:00.429828
2729  2023-10-19 10:30:00.461761
2730  2023-10-19 10:30:00.493672
2731  2023-10-19 10:30:00.525544
2732  2023-10-19 10:30:00.557459
2733  2023-10-19 10:30:00.605381
2734  2023-10-19 10:30:00.637293
2735  2023-10-19 10:30:00.669197
2736  2023-10-19 10:30:00.701105
2737  2023-10-19 10:30:00.733015
2738  2023-10-19 10:30:00.764942
2739  2023-10-19 10:30:00.797879
2740  2023-10-19 10:30:00.829767
2741  2023-10-19 10:30:00.861646
2742  2023-10-19 10:30:00.893587
2743  2023-10-19 10:30:00.925474
2744  2023-10-19 10:30:00.957388
2745  2023-10-19 10:30:01.005298
2746  2023-10-19 10:30:01.037176
2747  2023-10-19 10:30:01.069122
2748  2023-10-19 10:30:01.101005
2749  2023-10-19 10:30:01.132949
2750  2023-10-19 10:30:01.165863
2751  2023-10-19 10:30:01.197774
2752  2023-10-19 10:30:01.229693
2753  2023-10-19 10:30:01.261576
2754  2023-10-19 10:30:01.293545
2755  2023-10-19 10:30:01.325441
2756  2023-10-19 10:30:01.357318
2757  2023-10-19 10:30:01.405227
2758  2023-10-19 10:30:01.437145
2759  2023-10-19 10:30:01.469055
2760  2023-10-19 10:30:01.500972
2761  2023-10-19 10:30:01.532855
2762  2023-10-19 10:30:01.565808
2763  2023-10-19 10:30:01.597705
2764  2023-10-19 10:30:01.629591
2765  2023-10-19 10:30:01.661535
2766  2023-10-19 10:30:01.693476
2767  2023-10-19 10:30:01.725334
2768  2023-10-19 10:30:01.773209
2769  2023-10-19 10:30:01.805123
2770  2023-10-19 10:30:01.837038
2771  2023-10-19 10:30:01.868953
2772  2023-10-19 10:30:01.901864
2773  2023-10-19 10:30:01.933778
2774  2023-10-19 10:30:01.965718
2775  2023-10-19 10:30:01.997608
2776  2023-10-19 10:30:02.029521
2777  2023-10-19 10:30:02.061436
2778  2023-10-19 10:30:02.093356
2779  2023-10-19 10:30:02.125264
2780  2023-10-19 10:30:02.173166
2781  2023-10-19 10:30:02.205102
2782  2023-10-19 10:30:02.236966
2783  2023-10-19 10:30:02.268909
2784  2023-10-19 10:30:02.301830
2785  2023-10-19 10:30:02.333709
2786  2023-10-19 10:30:02.365622
2787  2023-10-19 10:30:02.397537
2788  2023-10-19 10:30:02.429479
2789  2023-10-19 10:30:02.461410
2790  2023-10-19 10:30:02.493330
2791  2023-10-19 10:30:02.525245
2792  2023-10-19 10:30:02.573096
2793  2023-10-19 10:30:02.605008
2794  2023-10-19 10:30:02.636900
2795  2023-10-19 10:30:02.669862
2796  2023-10-19 10:30:02.701730
2797  2023-10-19 10:30:02.733642
2798  2023-10-19 10:30:02.765557
2799  2023-10-19 10:30:02.797468
2800  2023-10-19 10:30:02.829384
2801  2023-10-19 10:30:02.861298
2802  2023-10-19 10:30:02.938093
2803  2023-10-19 10:30:02.972998
2804  2023-10-19 10:30:03.004912
2805  2023-10-19 10:30:03.037842
2806  2023-10-19 10:30:03.069775
2807  2023-10-19 10:30:03.101663
2808  2023-10-19 10:30:03.133624
2809  2023-10-19 10:30:03.165518
2810  2023-10-19 10:30:03.197435
2811  2023-10-19 10:30:03.229341
2812  2023-10-19 10:30:03.261269
2813  2023-10-19 10:30:03.293210
2814  2023-10-19 10:30:03.325097
2815  2023-10-19 10:30:03.372956
2816  2023-10-19 10:30:03.405840
2817  2023-10-19 10:30:03.437755
2818  2023-10-19 10:30:03.469711
2819  2023-10-19 10:30:03.501612
2820  2023-10-19 10:30:03.533499
2821  2023-10-19 10:30:03.565443
2822  2023-10-19 10:30:03.597357
2823  2023-10-19 10:30:03.629248
2824  2023-10-19 10:30:03.661161
2825  2023-10-19 10:30:03.694070
2826  2023-10-19 10:30:03.725030
2827  2023-10-19 10:30:03.773864
2828  2023-10-19 10:30:03.805810
2829  2023-10-19 10:30:03.837686
2830  2023-10-19 10:30:03.869600
2831  2023-10-19 10:30:03.901543
2832  2023-10-19 10:30:03.933467
2833  2023-10-19 10:30:03.965389
2834  2023-10-19 10:30:03.997287
2835  2023-10-19 10:30:04.029211
2836  2023-10-19 10:30:04.061129
2837  2023-10-19 10:30:04.093032
2838  2023-10-19 10:30:04.124948
2839  2023-10-19 10:30:04.173822
2840  2023-10-19 10:30:04.205705
2841  2023-10-19 10:30:04.237649
2842  2023-10-19 10:30:04.269569
2843  2023-10-19 10:30:04.301475
2844  2023-10-19 10:30:04.333388
2845  2023-10-19 10:30:04.365333
2846  2023-10-19 10:30:04.397227
2847  2023-10-19 10:30:04.429143
2848  2023-10-19 10:30:04.461066
2849  2023-10-19 10:30:04.492963
2850  2023-10-19 10:30:04.525846
2851  2023-10-19 10:30:04.573744
2852  2023-10-19 10:30:04.605633
2853  2023-10-19 10:30:04.637582
2854  2023-10-19 10:30:04.669488
2855  2023-10-19 10:30:04.701375
2856  2023-10-19 10:30:04.733289
2857  2023-10-19 10:30:04.765237
2858  2023-10-19 10:30:04.797156
2859  2023-10-19 10:30:04.829061
2860  2023-10-19 10:30:04.861947
2861  2023-10-19 10:30:04.893861
2862  2023-10-19 10:30:04.925822
2863  2023-10-19 10:30:04.973676
2864  2023-10-19 10:30:05.005561
2865  2023-10-19 10:30:05.037514
2866  2023-10-19 10:30:05.069419
2867  2023-10-19 10:30:05.101333
2868  2023-10-19 10:30:05.133248
2869  2023-10-19 10:30:05.165169
2870  2023-10-19 10:30:05.197076
2871  2023-10-19 10:30:05.228997
2872  2023-10-19 10:30:05.261876
2873  2023-10-19 10:30:05.293790
2874  2023-10-19 10:30:05.341689
2875  2023-10-19 10:30:05.373608
2876  2023-10-19 10:30:05.405519
2877  2023-10-19 10:30:05.437455
2878  2023-10-19 10:30:05.469373
2879  2023-10-19 10:30:05.501276
2880  2023-10-19 10:30:05.533185
2881  2023-10-19 10:30:05.565093
2882  2023-10-19 10:30:05.598002
2883  2023-10-19 10:30:05.628937
2884  2023-10-19 10:30:05.661832
2885  2023-10-19 10:30:05.693751
2886  2023-10-19 10:30:05.741604
2887  2023-10-19 10:30:05.773507
2888  2023-10-19 10:30:05.805423
2889  2023-10-19 10:30:05.837337
2890  2023-10-19 10:30:05.869252
2891  2023-10-19 10:30:05.901168
2892  2023-10-19 10:30:05.933123
2893  2023-10-19 10:30:05.965038
2894  2023-10-19 10:30:05.996913
2895  2023-10-19 10:30:06.029847
2896  2023-10-19 10:30:06.061771
2897  2023-10-19 10:30:06.093678
2898  2023-10-19 10:30:06.141559
2899  2023-10-19 10:30:06.173466
2900  2023-10-19 10:30:06.205384
2901  2023-10-19 10:30:06.237295
2902  2023-10-19 10:30:06.269222
2903  2023-10-19 10:30:06.301134
2904  2023-10-19 10:30:06.333051
2905  2023-10-19 10:30:06.364953
2906  2023-10-19 10:30:06.397888
2907  2023-10-19 10:30:06.429756
2908  2023-10-19 10:30:06.461701
2909  2023-10-19 10:30:06.493584
2910  2023-10-19 10:30:06.541456
2911  2023-10-19 10:30:06.573372
2912  2023-10-19 10:30:06.605321
2913  2023-10-19 10:30:06.637230
2914  2023-10-19 10:30:06.669149
2915  2023-10-19 10:30:06.701029
2916  2023-10-19 10:30:06.732944
2917  2023-10-19 10:30:06.765853
2918  2023-10-19 10:30:06.797771
2919  2023-10-19 10:30:06.829682
2920  2023-10-19 10:30:06.861597
2921  2023-10-19 10:30:06.895554
2922  2023-10-19 10:30:06.941434
2923  2023-10-19 10:30:06.975340
2924  2023-10-19 10:30:07.005258
2925  2023-10-19 10:30:07.037156
2926  2023-10-19 10:30:07.069086
2927  2023-10-19 10:30:07.102990
2928  2023-10-19 10:30:07.134898
2929  2023-10-19 10:30:07.166808
2930  2023-10-19 10:30:07.198740
2931  2023-10-19 10:30:07.229614
2932  2023-10-19 10:30:07.262524
2933  2023-10-19 10:30:07.294438
2934  2023-10-19 10:30:07.342350
2935  2023-10-19 10:30:07.374257
2936  2023-10-19 10:30:07.407174
2937  2023-10-19 10:30:07.438099
2938  2023-10-19 10:30:07.471002
2939  2023-10-19 10:30:07.502932
2940  2023-10-19 10:30:07.534826
2941  2023-10-19 10:30:07.566739
2942  2023-10-19 10:30:07.598664
2943  2023-10-19 10:30:07.630586
2944  2023-10-19 10:30:07.662504
2945  2023-10-19 10:30:07.694374
2946  2023-10-19 10:30:07.742280
2947  2023-10-19 10:30:07.774194
2948  2023-10-19 10:30:07.806098
2949  2023-10-19 10:30:07.837986
2950  2023-10-19 10:30:07.869901
2951  2023-10-19 10:30:07.901815
2952  2023-10-19 10:30:07.933729
2953  2023-10-19 10:30:07.965643
2954  2023-10-19 10:30:07.998559
2955  2023-10-19 10:30:08.030474
2956  2023-10-19 10:30:08.062441
2957  2023-10-19 10:30:08.094348
2958  2023-10-19 10:30:08.142214
2959  2023-10-19 10:30:08.174117
2960  2023-10-19 10:30:08.206026
2961  2023-10-19 10:30:08.237950
2962  2023-10-19 10:30:08.269829
2963  2023-10-19 10:30:08.301781
2964  2023-10-19 10:30:08.333693
2965  2023-10-19 10:30:08.365617
2966  2023-10-19 10:30:08.397488
2967  2023-10-19 10:30:08.429440
2968  2023-10-19 10:30:08.473325
2969  2023-10-19 10:30:08.493238
2970  2023-10-19 10:30:08.542103
2971  2023-10-19 10:30:08.574060
2972  2023-10-19 10:30:08.605931
2973  2023-10-19 10:30:08.637887
2974  2023-10-19 10:30:08.669795
2975  2023-10-19 10:30:08.701702
2976  2023-10-19 10:30:08.733629
2977  2023-10-19 10:30:08.765533
2978  2023-10-19 10:30:08.797463
2979  2023-10-19 10:30:08.829339
2980  2023-10-19 10:30:08.861293
2981  2023-10-19 10:30:08.893163
2982  2023-10-19 10:30:08.942065
2983  2023-10-19 10:30:08.972992
2984  2023-10-19 10:30:09.004899
2985  2023-10-19 10:30:09.037813
2986  2023-10-19 10:30:09.069690
2987  2023-10-19 10:30:09.101609
2988  2023-10-19 10:30:09.133520
2989  2023-10-19 10:30:09.165438
2990  2023-10-19 10:30:09.197353
2991  2023-10-19 10:30:09.229301
2992  2023-10-19 10:30:09.261229
2993  2023-10-19 10:30:09.309087
2994  2023-10-19 10:30:09.340991
2995  2023-10-19 10:30:09.373877
2996  2023-10-19 10:30:09.405792
2997  2023-10-19 10:30:09.437707
2998  2023-10-19 10:30:09.469622
2999  2023-10-19 10:30:09.501541
3000  2023-10-19 10:30:09.534446
3001  2023-10-19 10:30:09.566419
3002  2023-10-19 10:30:09.598276
3003  2023-10-19 10:30:09.629231
3004  2023-10-19 10:30:09.661153
3005  2023-10-19 10:30:09.709009
3006  2023-10-19 10:30:09.741918
3007  2023-10-19 10:30:09.774836
3008  2023-10-19 10:30:09.806758
3009  2023-10-19 10:30:09.838666
3010  2023-10-19 10:30:09.869552
3011  2023-10-19 10:30:09.901466
3012  2023-10-19 10:30:09.934439
3013  2023-10-19 10:30:09.966328
3014  2023-10-19 10:30:09.998206
3015  2023-10-19 10:30:10.030180
3016  2023-10-19 10:30:10.062068
3017  2023-10-19 10:30:10.109907
3018  2023-10-19 10:30:10.141821
3019  2023-10-19 10:30:10.173737
3020  2023-10-19 10:30:10.205678
3021  2023-10-19 10:30:10.238608
3022  2023-10-19 10:30:10.269511
3023  2023-10-19 10:30:10.301423
3024  2023-10-19 10:30:10.333340
3025  2023-10-19 10:30:10.366263
3026  2023-10-19 10:30:10.398174
3027  2023-10-19 10:30:10.430056
3028  2023-10-19 10:30:10.460969
3029  2023-10-19 10:30:10.509838
3030  2023-10-19 10:30:10.541756
3031  2023-10-19 10:30:10.573704
3032  2023-10-19 10:30:10.605614
3033  2023-10-19 10:30:10.637558
3034  2023-10-19 10:30:10.669410
3035  2023-10-19 10:30:10.701325
3036  2023-10-19 10:30:10.733273
3037  2023-10-19 10:30:10.765159
3038  2023-10-19 10:30:10.797097
3039  2023-10-19 10:30:10.829983
3040  2023-10-19 10:30:10.861897
3041  2023-10-19 10:30:10.909769
3042  2023-10-19 10:30:10.941725
3043  2023-10-19 10:30:10.973597
3044  2023-10-19 10:30:11.005557
3045  2023-10-19 10:30:11.037455
3046  2023-10-19 10:30:11.069380
3047  2023-10-19 10:30:11.101289
3048  2023-10-19 10:30:11.133200
3049  2023-10-19 10:30:11.165115
3050  2023-10-19 10:30:11.197034
3051  2023-10-19 10:30:11.228914
3052  2023-10-19 10:30:11.261831
3053  2023-10-19 10:30:11.309743
3054  2023-10-19 10:30:11.341640
3055  2023-10-19 10:30:11.373561
3056  2023-10-19 10:30:11.405489
3057  2023-10-19 10:30:11.438355
3058  2023-10-19 10:30:11.469299
3059  2023-10-19 10:30:11.501231
3060  2023-10-19 10:30:11.534099
3061  2023-10-19 10:30:11.566012
3062  2023-10-19 10:30:11.596934
3063  2023-10-19 10:30:11.629842
3064  2023-10-19 10:30:11.661756
3065  2023-10-19 10:30:11.709629
3066  2023-10-19 10:30:11.741572
3067  2023-10-19 10:30:11.773457
3068  2023-10-19 10:30:11.805373
3069  2023-10-19 10:30:11.837287
3070  2023-10-19 10:30:11.870200
3071  2023-10-19 10:30:11.901117
3072  2023-10-19 10:30:11.933062
3073  2023-10-19 10:30:11.964949
3074  2023-10-19 10:30:11.996889
3075  2023-10-19 10:30:12.029772
3076  2023-10-19 10:30:12.061732
3077  2023-10-19 10:30:12.109597
3078  2023-10-19 10:30:12.141506
3079  2023-10-19 10:30:12.173427
3080  2023-10-19 10:30:12.205303
3081  2023-10-19 10:30:12.237217
3082  2023-10-19 10:30:12.269132
3083  2023-10-19 10:30:12.301046
3084  2023-10-19 10:30:12.332961
3085  2023-10-19 10:30:12.365874
3086  2023-10-19 10:30:12.397789
3087  2023-10-19 10:30:12.429702
3088  2023-10-19 10:30:12.461620
3089  2023-10-19 10:30:12.509531
3090  2023-10-19 10:30:12.541430
3091  2023-10-19 10:30:12.573319
3092  2023-10-19 10:30:12.605260
3093  2023-10-19 10:30:12.637183
3094  2023-10-19 10:30:12.669063
3095  2023-10-19 10:30:12.700983
3096  2023-10-19 10:30:12.732891
3097  2023-10-19 10:30:12.765842
3098  2023-10-19 10:30:12.797754
3099  2023-10-19 10:30:12.829633
3100  2023-10-19 10:30:12.877505
3101  2023-10-19 10:30:12.909422
3102  2023-10-19 10:30:12.941385
3103  2023-10-19 10:30:12.973286
3104  2023-10-19 10:30:13.005168
3105  2023-10-19 10:30:13.037078
3106  2023-10-19 10:30:13.069028
3107  2023-10-19 10:30:13.100933
3108  2023-10-19 10:30:13.133865
3109  2023-10-19 10:30:13.165735
3110  2023-10-19 10:30:13.197676
3111  2023-10-19 10:30:13.229589
3112  2023-10-19 10:30:13.277478
3113  2023-10-19 10:30:13.309384
3114  2023-10-19 10:30:13.341296
3115  2023-10-19 10:30:13.373207
3116  2023-10-19 10:30:13.406090
3117  2023-10-19 10:30:13.438006
3118  2023-10-19 10:30:13.468962
3119  2023-10-19 10:30:13.501871
3120  2023-10-19 10:30:13.533788
3121  2023-10-19 10:30:13.565664
3122  2023-10-19 10:30:13.597580
3123  2023-10-19 10:30:13.629492
3124  2023-10-19 10:30:13.677364
3125  2023-10-19 10:30:13.709318
3126  2023-10-19 10:30:13.741205
3127  2023-10-19 10:30:13.773152
3128  2023-10-19 10:30:13.805054
3129  2023-10-19 10:30:13.836987
3130  2023-10-19 10:30:13.869883
3131  2023-10-19 10:30:13.901765
3132  2023-10-19 10:30:13.933679
3133  2023-10-19 10:30:13.965631
3134  2023-10-19 10:30:13.997513
3135  2023-10-19 10:30:14.029424
3136  2023-10-19 10:30:14.077296
3137  2023-10-19 10:30:14.140128
3138  2023-10-19 10:30:14.146111
3139  2023-10-19 10:30:14.173043
3140  2023-10-19 10:30:14.205979
3141  2023-10-19 10:30:14.237892
3142  2023-10-19 10:30:14.269812
3143  2023-10-19 10:30:14.301722
3144  2023-10-19 10:30:14.333614
3145  2023-10-19 10:30:14.365528
3146  2023-10-19 10:30:14.397478
3147  2023-10-19 10:30:14.429411
3148  2023-10-19 10:30:14.477229
3149  2023-10-19 10:30:14.509172
3150  2023-10-19 10:30:14.541085
3151  2023-10-19 10:30:14.573004
3152  2023-10-19 10:30:14.605883
3153  2023-10-19 10:30:14.637831
3154  2023-10-19 10:30:14.669712
3155  2023-10-19 10:30:14.701660
3156  2023-10-19 10:30:14.733541
3157  2023-10-19 10:30:14.765495
3158  2023-10-19 10:30:14.797397
3159  2023-10-19 10:30:14.829285
3160  2023-10-19 10:30:14.877156
3161  2023-10-19 10:30:14.910069
3162  2023-10-19 10:30:14.942014
3163  2023-10-19 10:30:14.972900
3164  2023-10-19 10:30:15.005853
3165  2023-10-19 10:30:15.037726
3166  2023-10-19 10:30:15.069643
3167  2023-10-19 10:30:15.101609
3168  2023-10-19 10:30:15.133470
3169  2023-10-19 10:30:15.165422
3170  2023-10-19 10:30:15.197304
3171  2023-10-19 10:30:15.229240
3172  2023-10-19 10:30:15.277086
3173  2023-10-19 10:30:15.309028
3174  2023-10-19 10:30:15.340957
3175  2023-10-19 10:30:15.373831
3176  2023-10-19 10:30:15.405786
3177  2023-10-19 10:30:15.437685
3178  2023-10-19 10:30:15.469571
3179  2023-10-19 10:30:15.501514
3180  2023-10-19 10:30:15.533400
3181  2023-10-19 10:30:15.565318
3182  2023-10-19 10:30:15.597258
3183  2023-10-19 10:30:15.629181
3184  2023-10-19 10:30:15.677053
3185  2023-10-19 10:30:15.708965
3186  2023-10-19 10:30:15.741842
3187  2023-10-19 10:30:15.773801
3188  2023-10-19 10:30:15.805709
3189  2023-10-19 10:30:15.837629
3190  2023-10-19 10:30:15.869503
3191  2023-10-19 10:30:15.901418
3192  2023-10-19 10:30:15.933331
3193  2023-10-19 10:30:15.965246
3194  2023-10-19 10:30:15.998159
3195  2023-10-19 10:30:16.029075
3196  2023-10-19 10:30:16.076974
3197  2023-10-19 10:30:16.109891
3198  2023-10-19 10:30:16.141827
3199  2023-10-19 10:30:16.173737
3200  2023-10-19 10:30:16.205643
3201  2023-10-19 10:30:16.237546
3202  2023-10-19 10:30:16.269474
3203  2023-10-19 10:30:16.301404
3204  2023-10-19 10:30:16.333294
3205  2023-10-19 10:30:16.365239
3206  2023-10-19 10:30:16.397127
3207  2023-10-19 10:30:16.429038
3208  2023-10-19 10:30:16.477877
3209  2023-10-19 10:30:16.509820
3210  2023-10-19 10:30:16.541746
3211  2023-10-19 10:30:16.573645
3212  2023-10-19 10:30:16.605536
3213  2023-10-19 10:30:16.637477
3214  2023-10-19 10:30:16.669363
3215  2023-10-19 10:30:16.701309
3216  2023-10-19 10:30:16.733228
3217  2023-10-19 10:30:16.765136
3218  2023-10-19 10:30:16.797072
3219  2023-10-19 10:30:16.845891
3220  2023-10-19 10:30:16.877805
3221  2023-10-19 10:30:16.909721
3222  2023-10-19 10:30:16.941636
3223  2023-10-19 10:30:16.973550
3224  2023-10-19 10:30:17.005464
3225  2023-10-19 10:30:17.037377
3226  2023-10-19 10:30:17.069294
3227  2023-10-19 10:30:17.101233
3228  2023-10-19 10:30:17.133147
3229  2023-10-19 10:30:17.165072
3230  2023-10-19 10:30:17.196950
3231  2023-10-19 10:30:17.245846
3232  2023-10-19 10:30:17.277735
3233  2023-10-19 10:30:17.309650
3234  2023-10-19 10:30:17.341590
3235  2023-10-19 10:30:17.373507
3236  2023-10-19 10:30:17.405435
3237  2023-10-19 10:30:17.437351
3238  2023-10-19 10:30:17.469252
3239  2023-10-19 10:30:17.501140
3240  2023-10-19 10:30:17.533082
3241  2023-10-19 10:30:17.564994
3242  2023-10-19 10:30:17.596927
3243  2023-10-19 10:30:17.645797
3244  2023-10-19 10:30:17.677665
3245  2023-10-19 10:30:17.709579
3246  2023-10-19 10:30:17.741493
3247  2023-10-19 10:30:17.773448
3248  2023-10-19 10:30:17.805388
3249  2023-10-19 10:30:17.837280
3250  2023-10-19 10:30:17.869193
3251  2023-10-19 10:30:17.901069
3252  2023-10-19 10:30:17.932982
3253  2023-10-19 10:30:17.965898
3254  2023-10-19 10:30:17.997809
3255  2023-10-19 10:30:18.045681
3256  2023-10-19 10:30:18.077596
3257  2023-10-19 10:30:18.109510
3258  2023-10-19 10:30:18.141425
3259  2023-10-19 10:30:18.173340
3260  2023-10-19 10:30:18.205254
3261  2023-10-19 10:30:18.237196
3262  2023-10-19 10:30:18.269111
3263  2023-10-19 10:30:18.301024
3264  2023-10-19 10:30:18.333910
3265  2023-10-19 10:30:18.365829
3266  2023-10-19 10:30:18.397766
3267  2023-10-19 10:30:18.445647
3268  2023-10-19 10:30:18.477525
3269  2023-10-19 10:30:18.509441
3270  2023-10-19 10:30:18.541394
3271  2023-10-19 10:30:18.573310
3272  2023-10-19 10:30:18.605212
3273  2023-10-19 10:30:18.637128
3274  2023-10-19 10:30:18.669042
3275  2023-10-19 10:30:18.700955
3276  2023-10-19 10:30:18.732893
3277  2023-10-19 10:30:18.765753
3278  2023-10-19 10:30:18.797706
3279  2023-10-19 10:30:18.845567
3280  2023-10-19 10:30:18.877456
3281  2023-10-19 10:30:18.909371
3282  2023-10-19 10:30:18.941288
3283  2023-10-19 10:30:18.973200
3284  2023-10-19 10:30:19.005118
3285  2023-10-19 10:30:19.037033
3286  2023-10-19 10:30:19.069957
3287  2023-10-19 10:30:19.100897
3288  2023-10-19 10:30:19.133815
3289  2023-10-19 10:30:19.165685
3290  2023-10-19 10:30:19.204581
3291  2023-10-19 10:30:19.245499
3292  2023-10-19 10:30:19.277414
3293  2023-10-19 10:30:19.309301
3294  2023-10-19 10:30:19.341262
3295  2023-10-19 10:30:19.373133
3296  2023-10-19 10:30:19.405049
3297  2023-10-19 10:30:19.437007
3298  2023-10-19 10:30:19.469896
3299  2023-10-19 10:30:19.501825
3300  2023-10-19 10:30:19.533709
3301  2023-10-19 10:30:19.565655
3302  2023-10-19 10:30:19.597529
3303  2023-10-19 10:30:19.645402
3304  2023-10-19 10:30:19.677316
3305  2023-10-19 10:30:19.709231
3306  2023-10-19 10:30:19.741207
3307  2023-10-19 10:30:19.773086
3308  2023-10-19 10:30:19.805012
3309  2023-10-19 10:30:19.836915
3310  2023-10-19 10:30:19.869830
3311  2023-10-19 10:30:19.901742
3312  2023-10-19 10:30:19.933631
3313  2023-10-19 10:30:19.965548
3314  2023-10-19 10:30:19.997471
3315  2023-10-19 10:30:20.045332
3316  2023-10-19 10:30:20.077247
3317  2023-10-19 10:30:20.109162
3318  2023-10-19 10:30:20.141112
3319  2023-10-19 10:30:20.173988
3320  2023-10-19 10:30:20.205904
3321  2023-10-19 10:30:20.237820
3322  2023-10-19 10:30:20.269732
3323  2023-10-19 10:30:20.301647
3324  2023-10-19 10:30:20.333597
3325  2023-10-19 10:30:20.365479
3326  2023-10-19 10:30:20.397389
3327  2023-10-19 10:30:20.445332
3328  2023-10-19 10:30:20.477177
3329  2023-10-19 10:30:20.509092
3330  2023-10-19 10:30:20.541033
3331  2023-10-19 10:30:20.573948
3332  2023-10-19 10:30:20.605868
3333  2023-10-19 10:30:20.637746
3334  2023-10-19 10:30:20.669689
3335  2023-10-19 10:30:20.701611
3336  2023-10-19 10:30:20.733530
3337  2023-10-19 10:30:20.765447
3338  2023-10-19 10:30:20.813276
3339  2023-10-19 10:30:20.845194
3340  2023-10-19 10:30:20.877106
3341  2023-10-19 10:30:20.909020
3342  2023-10-19 10:30:20.940935
3343  2023-10-19 10:30:20.973885
3344  2023-10-19 10:30:21.005791
3345  2023-10-19 10:30:21.037726
3346  2023-10-19 10:30:21.069625
3347  2023-10-19 10:30:21.101506
3348  2023-10-19 10:30:21.133448
3349  2023-10-19 10:30:21.165339
3350  2023-10-19 10:30:21.213206
3351  2023-10-19 10:30:21.245123
3352  2023-10-19 10:30:21.277038
3353  2023-10-19 10:30:21.308952
3354  2023-10-19 10:30:21.341865
3355  2023-10-19 10:30:21.373779
3356  2023-10-19 10:30:21.405693
3357  2023-10-19 10:30:21.437607
3358  2023-10-19 10:30:21.469522
3359  2023-10-19 10:30:21.501470
3360  2023-10-19 10:30:21.533392
3361  2023-10-19 10:30:21.565308
3362  2023-10-19 10:30:21.613137
3363  2023-10-19 10:30:21.645051
3364  2023-10-19 10:30:21.676989
3365  2023-10-19 10:30:21.708881
3366  2023-10-19 10:30:21.741793
3367  2023-10-19 10:30:21.773713
3368  2023-10-19 10:30:21.805626
3369  2023-10-19 10:30:21.837538
3370  2023-10-19 10:30:21.869479
3371  2023-10-19 10:30:21.901407
3372  2023-10-19 10:30:21.933319
3373  2023-10-19 10:30:21.965227
3374  2023-10-19 10:30:22.013067
3375  2023-10-19 10:30:22.044982
3376  2023-10-19 10:30:22.076896
3377  2023-10-19 10:30:22.109809
3378  2023-10-19 10:30:22.141774
3379  2023-10-19 10:30:22.173664
3380  2023-10-19 10:30:22.205581
3381  2023-10-19 10:30:22.237467
3382  2023-10-19 10:30:22.269411
3383  2023-10-19 10:30:22.301297
3384  2023-10-19 10:30:22.333214
3385  2023-10-19 10:30:22.365131
3386  2023-10-19 10:30:22.412999
3387  2023-10-19 10:30:22.444914
3388  2023-10-19 10:30:22.477827
3389  2023-10-19 10:30:22.509739
3390  2023-10-19 10:30:22.541654
3391  2023-10-19 10:30:22.573568
3392  2023-10-19 10:30:22.605510
3393  2023-10-19 10:30:22.637428
3394  2023-10-19 10:30:22.669361
3395  2023-10-19 10:30:22.701256
3396  2023-10-19 10:30:22.734172
3397  2023-10-19 10:30:22.765089
3398  2023-10-19 10:30:22.813925
3399  2023-10-19 10:30:22.845840
3400  2023-10-19 10:30:22.877754
3401  2023-10-19 10:30:22.909670
3402  2023-10-19 10:30:22.941586
3403  2023-10-19 10:30:22.973503
3404  2023-10-19 10:30:23.005420
3405  2023-10-19 10:30:23.037400
3406  2023-10-19 10:30:23.069242
3407  2023-10-19 10:30:23.101212
3408  2023-10-19 10:30:23.133076
3409  2023-10-19 10:30:23.165021
3410  2023-10-19 10:30:23.212858
3411  2023-10-19 10:30:23.245815
3412  2023-10-19 10:30:23.277689
3413  2023-10-19 10:30:23.309600
3414  2023-10-19 10:30:23.341518
3415  2023-10-19 10:30:23.373429
3416  2023-10-19 10:30:23.405345
3417  2023-10-19 10:30:23.437260
3418  2023-10-19 10:30:23.469174
3419  2023-10-19 10:30:23.501088
3420  2023-10-19 10:30:23.534001
3421  2023-10-19 10:30:23.565914
3422  2023-10-19 10:30:23.613807
3423  2023-10-19 10:30:23.645702
3424  2023-10-19 10:30:23.677614
3425  2023-10-19 10:30:23.709529
3426  2023-10-19 10:30:23.741480
3427  2023-10-19 10:30:23.773400
3428  2023-10-19 10:30:23.805314
3429  2023-10-19 10:30:23.837233
3430  2023-10-19 10:30:23.869135
3431  2023-10-19 10:30:23.901058
3432  2023-10-19 10:30:23.932968
3433  2023-10-19 10:30:23.965888
3434  2023-10-19 10:30:24.013718
3435  2023-10-19 10:30:24.045630
3436  2023-10-19 10:30:24.077576
3437  2023-10-19 10:30:24.109495
3438  2023-10-19 10:30:24.141403
3439  2023-10-19 10:30:24.173332
3440  2023-10-19 10:30:24.205234
3441  2023-10-19 10:30:24.237122
3442  2023-10-19 10:30:24.269062
3443  2023-10-19 10:30:24.300952
3444  2023-10-19 10:30:24.333865
3445  2023-10-19 10:30:24.381731
3446  2023-10-19 10:30:24.413646
3447  2023-10-19 10:30:24.445560
3448  2023-10-19 10:30:24.477475
3449  2023-10-19 10:30:24.509390
3450  2023-10-19 10:30:24.541347
3451  2023-10-19 10:30:24.573219
3452  2023-10-19 10:30:24.606132
3453  2023-10-19 10:30:24.637049
3454  2023-10-19 10:30:24.668963
3455  2023-10-19 10:30:24.701877
3456  2023-10-19 10:30:24.733790
3457  2023-10-19 10:30:24.781663
3458  2023-10-19 10:30:24.885385
3459  2023-10-19 10:30:24.911315
3460  2023-10-19 10:30:24.941240
3461  2023-10-19 10:30:24.973193
3462  2023-10-19 10:30:25.005101
3463  2023-10-19 10:30:25.036983
3464  2023-10-19 10:30:25.069890
3465  2023-10-19 10:30:25.101849
3466  2023-10-19 10:30:25.133770
3467  2023-10-19 10:30:25.181591
3468  2023-10-19 10:30:25.213506
3469  2023-10-19 10:30:25.245461
3470  2023-10-19 10:30:25.277371
3471  2023-10-19 10:30:25.309250
3472  2023-10-19 10:30:25.341194
3473  2023-10-19 10:30:25.373116
3474  2023-10-19 10:30:25.405036
3475  2023-10-19 10:30:25.437907
3476  2023-10-19 10:30:25.469822
3477  2023-10-19 10:30:25.501735
3478  2023-10-19 10:30:25.533651
3479  2023-10-19 10:30:25.581522
3480  2023-10-19 10:30:25.613438
3481  2023-10-19 10:30:25.645351
3482  2023-10-19 10:30:25.677266
3483  2023-10-19 10:30:25.709180
3484  2023-10-19 10:30:25.741099
3485  2023-10-19 10:30:25.773049
3486  2023-10-19 10:30:25.804925
3487  2023-10-19 10:30:25.836887
3488  2023-10-19 10:30:25.869757
3489  2023-10-19 10:30:25.901707
3490  2023-10-19 10:30:25.933581
3491  2023-10-19 10:30:25.981452
3492  2023-10-19 10:30:26.013366
3493  2023-10-19 10:30:26.045282
3494  2023-10-19 10:30:26.077196
3495  2023-10-19 10:30:26.109110
3496  2023-10-19 10:30:26.141059
3497  2023-10-19 10:30:26.172967
3498  2023-10-19 10:30:26.205881
3499  2023-10-19 10:30:26.237804
3500  2023-10-19 10:30:26.271723
3501  2023-10-19 10:30:26.302622
3502  2023-10-19 10:30:26.334508
3503  2023-10-19 10:30:26.383409
3504  2023-10-19 10:30:26.415323
3505  2023-10-19 10:30:26.447236
3506  2023-10-19 10:30:26.477126
3507  2023-10-19 10:30:26.511036
3508  2023-10-19 10:30:26.542950
3509  2023-10-19 10:30:26.574865
3510  2023-10-19 10:30:26.606780
3511  2023-10-19 10:30:26.638694
3512  2023-10-19 10:30:26.670609
3513  2023-10-19 10:30:26.703521
3514  2023-10-19 10:30:26.734439
3515  2023-10-19 10:30:26.783347
3516  2023-10-19 10:30:26.815251
3517  2023-10-19 10:30:26.846171
3518  2023-10-19 10:30:26.879051
3519  2023-10-19 10:30:26.910995
3520  2023-10-19 10:30:26.942886
3521  2023-10-19 10:30:26.974832
3522  2023-10-19 10:30:27.006738
3523  2023-10-19 10:30:27.038659
3524  2023-10-19 10:30:27.070575
3525  2023-10-19 10:30:27.102521
3526  2023-10-19 10:30:27.134416
3527  2023-10-19 10:30:27.182281
3528  2023-10-19 10:30:27.214201
3529  2023-10-19 10:30:27.246101
3530  2023-10-19 10:30:27.278023
3531  2023-10-19 10:30:27.309940
3532  2023-10-19 10:30:27.341863
3533  2023-10-19 10:30:27.374731
3534  2023-10-19 10:30:27.406645
3535  2023-10-19 10:30:27.438583
3536  2023-10-19 10:30:27.470474
3537  2023-10-19 10:30:27.502389
3538  2023-10-19 10:30:27.534299
3539  2023-10-19 10:30:27.582171
3540  2023-10-19 10:30:27.615121
3541  2023-10-19 10:30:27.646037
3542  2023-10-19 10:30:27.677915
3543  2023-10-19 10:30:27.709829
3544  2023-10-19 10:30:27.742741
3545  2023-10-19 10:30:27.773706
3546  2023-10-19 10:30:27.805602
3547  2023-10-19 10:30:27.837526
3548  2023-10-19 10:30:27.869433
3549  2023-10-19 10:30:27.901349
3550  2023-10-19 10:30:27.934262
3551  2023-10-19 10:30:27.982101
3552  2023-10-19 10:30:28.014043
3553  2023-10-19 10:30:28.045931
3554  2023-10-19 10:30:28.077872
3555  2023-10-19 10:30:28.109799
3556  2023-10-19 10:30:28.141715
3557  2023-10-19 10:30:28.173639
3558  2023-10-19 10:30:28.205504
3559  2023-10-19 10:30:28.237449
3560  2023-10-19 10:30:28.269364
3561  2023-10-19 10:30:28.301290
