
1  2023-11-30 15:15:28.020206
2  2023-11-30 15:15:28.052220
3  2023-11-30 15:15:28.098538
4  2023-11-30 15:15:28.144885
5  2023-11-30 15:15:28.176064
6  2023-11-30 15:15:28.223226
7  2023-11-30 15:15:28.270662
8  2023-11-30 15:15:28.302867
9  2023-11-30 15:15:28.350118
10  2023-11-30 15:15:28.396340
11  2023-11-30 15:15:28.427007
12  2023-11-30 15:15:28.472484
13  2023-11-30 15:15:28.519845
14  2023-11-30 15:15:28.551948
15  2023-11-30 15:15:28.599236
16  2023-11-30 15:15:28.646333
17  2023-11-30 15:15:28.678369
18  2023-11-30 15:15:28.724103
19  2023-11-30 15:15:28.770865
20  2023-11-30 15:15:28.802035
21  2023-11-30 15:15:28.847582
22  2023-11-30 15:15:28.894091
23  2023-11-30 15:15:28.925747
24  2023-11-30 15:15:28.973036
25  2023-11-30 15:15:29.019605
26  2023-11-30 15:15:29.051575
27  2023-11-30 15:15:29.098941
28  2023-11-30 15:15:29.145764
29  2023-11-30 15:15:29.176404
30  2023-11-30 15:15:29.223284
31  2023-11-30 15:15:29.269372
32  2023-11-30 15:15:29.300330
33  2023-11-30 15:15:29.347255
34  2023-11-30 15:15:29.394978
35  2023-11-30 15:15:29.426245
36  2023-11-30 15:15:29.472916
37  2023-11-30 15:15:29.519866
38  2023-11-30 15:15:29.550616
39  2023-11-30 15:15:29.597171
40  2023-11-30 15:15:29.644198
41  2023-11-30 15:15:29.675529
42  2023-11-30 15:15:29.722146
43  2023-11-30 15:15:29.769244
44  2023-11-30 15:15:29.801233
45  2023-11-30 15:15:29.847433
46  2023-11-30 15:15:29.895187
47  2023-11-30 15:15:29.925228
48  2023-11-30 15:15:29.971038
49  2023-11-30 15:15:30.019786
50  2023-11-30 15:15:30.050361
51  2023-11-30 15:15:30.095458
52  2023-11-30 15:15:30.142151
53  2023-11-30 15:15:30.172987
54  2023-11-30 15:15:30.220158
55  2023-11-30 15:15:30.268040
56  2023-11-30 15:15:30.298181
57  2023-11-30 15:15:30.345049
58  2023-11-30 15:15:30.392052
59  2023-11-30 15:15:30.423282
60  2023-11-30 15:15:30.470959
61  2023-11-30 15:15:30.516965
62  2023-11-30 15:15:30.547907
63  2023-11-30 15:15:30.593871
64  2023-11-30 15:15:30.640938
65  2023-11-30 15:15:30.687233
66  2023-11-30 15:15:30.717390
67  2023-11-30 15:15:30.764175
68  2023-11-30 15:15:30.812631
69  2023-11-30 15:15:30.843418
70  2023-11-30 15:15:30.891216
71  2023-11-30 15:15:30.936233
72  2023-11-30 15:15:30.966424
73  2023-11-30 15:15:31.012150
74  2023-11-30 15:15:31.057904
75  2023-11-30 15:15:31.089652
76  2023-11-30 15:15:31.136557
77  2023-11-30 15:15:31.183930
78  2023-11-30 15:15:31.216276
79  2023-11-30 15:15:31.262050
80  2023-11-30 15:15:31.307988
81  2023-11-30 15:15:31.339567
82  2023-11-30 15:15:31.387317
83  2023-11-30 15:15:31.434328
84  2023-11-30 15:15:31.465200
85  2023-11-30 15:15:31.511429
86  2023-11-30 15:15:31.558114
87  2023-11-30 15:15:31.604086
88  2023-11-30 15:15:31.634265
89  2023-11-30 15:15:31.681293
90  2023-11-30 15:15:31.728077
91  2023-11-30 15:15:31.758557
92  2023-11-30 15:15:31.806557
93  2023-11-30 15:15:31.853226
94  2023-11-30 15:15:31.884591
95  2023-11-30 15:15:31.931202
96  2023-11-30 15:15:31.978784
97  2023-11-30 15:15:32.009877
98  2023-11-30 15:15:32.056187
99  2023-11-30 15:15:32.103092
100  2023-11-30 15:15:32.134235
101  2023-11-30 15:15:32.180217
102  2023-11-30 15:15:32.227001
103  2023-11-30 15:15:32.257753
104  2023-11-30 15:15:32.304354
105  2023-11-30 15:15:32.350848
106  2023-11-30 15:15:32.382057
107  2023-11-30 15:15:32.428368
108  2023-11-30 15:15:32.475985
109  2023-11-30 15:15:32.508259
110  2023-11-30 15:15:32.553792
111  2023-11-30 15:15:32.600359
112  2023-11-30 15:15:32.631359
113  2023-11-30 15:15:32.678255
114  2023-11-30 15:15:32.726192
115  2023-11-30 15:15:32.757112
116  2023-11-30 15:15:32.804352
117  2023-11-30 15:15:32.853192
118  2023-11-30 15:15:32.884213
119  2023-11-30 15:15:32.930521
120  2023-11-30 15:15:32.976793
121  2023-11-30 15:15:33.007247
122  2023-11-30 15:15:33.053658
123  2023-11-30 15:15:33.100791
124  2023-11-30 15:15:33.132003
125  2023-11-30 15:15:33.178037
126  2023-11-30 15:15:33.225215
127  2023-11-30 15:15:33.270513
128  2023-11-30 15:15:33.302586
129  2023-11-30 15:15:33.350245
130  2023-11-30 15:15:33.381446
131  2023-11-30 15:15:33.428970
132  2023-11-30 15:15:33.475907
133  2023-11-30 15:15:33.506919
134  2023-11-30 15:15:33.552678
135  2023-11-30 15:15:33.599792
136  2023-11-30 15:15:33.645851
137  2023-11-30 15:15:33.676735
138  2023-11-30 15:15:33.723354
139  2023-11-30 15:15:33.770099
140  2023-11-30 15:15:33.801141
141  2023-11-30 15:15:33.848310
142  2023-11-30 15:15:33.896190
143  2023-11-30 15:15:33.925549
144  2023-11-30 15:15:33.972337
145  2023-11-30 15:15:34.019532
146  2023-11-30 15:15:34.049249
147  2023-11-30 15:15:34.095628
148  2023-11-30 15:15:34.141399
149  2023-11-30 15:15:34.187299
150  2023-11-30 15:15:34.218833
151  2023-11-30 15:15:34.266394
152  2023-11-30 15:15:34.312004
153  2023-11-30 15:15:34.343232
154  2023-11-30 15:15:34.390320
155  2023-11-30 15:15:34.437266
156  2023-11-30 15:15:34.467647
157  2023-11-30 15:15:34.514811
158  2023-11-30 15:15:34.561272
159  2023-11-30 15:15:34.592679
160  2023-11-30 15:15:34.638614
161  2023-11-30 15:15:34.685146
162  2023-11-30 15:15:34.715820
163  2023-11-30 15:15:34.762172
164  2023-11-30 15:15:34.809036
165  2023-11-30 15:15:34.840020
166  2023-11-30 15:15:34.887222
167  2023-11-30 15:15:34.933703
168  2023-11-30 15:15:34.965684
169  2023-11-30 15:15:35.012225
170  2023-11-30 15:15:35.058421
171  2023-11-30 15:15:35.090298
172  2023-11-30 15:15:35.136077
173  2023-11-30 15:15:35.182448
174  2023-11-30 15:15:35.229279
175  2023-11-30 15:15:35.260666
176  2023-11-30 15:15:35.306259
177  2023-11-30 15:15:35.354416
178  2023-11-30 15:15:35.386201
179  2023-11-30 15:15:35.433416
180  2023-11-30 15:15:35.478927
181  2023-11-30 15:15:35.510345
182  2023-11-30 15:15:35.557189
183  2023-11-30 15:15:35.603972
184  2023-11-30 15:15:35.634275
185  2023-11-30 15:15:35.681847
186  2023-11-30 15:15:35.727916
187  2023-11-30 15:15:35.759209
188  2023-11-30 15:15:35.805074
189  2023-11-30 15:15:35.851305
190  2023-11-30 15:15:35.882898
191  2023-11-30 15:15:35.928526
192  2023-11-30 15:15:35.976062
193  2023-11-30 15:15:36.006599
194  2023-11-30 15:15:36.053550
195  2023-11-30 15:15:36.101229
196  2023-11-30 15:15:36.133190
197  2023-11-30 15:15:36.179373
198  2023-11-30 15:15:36.226236
199  2023-11-30 15:15:36.256720
200  2023-11-30 15:15:36.303543
201  2023-11-30 15:15:36.349400
202  2023-11-30 15:15:36.396708
203  2023-11-30 15:15:36.427537
204  2023-11-30 15:15:36.471972
205  2023-11-30 15:15:36.519188
206  2023-11-30 15:15:36.550923
207  2023-11-30 15:15:36.598142
208  2023-11-30 15:15:36.646188
209  2023-11-30 15:15:36.678239
210  2023-11-30 15:15:36.726695
211  2023-11-30 15:15:36.758113
212  2023-11-30 15:15:36.804087
213  2023-11-30 15:15:36.849478
214  2023-11-30 15:15:36.881132
215  2023-11-30 15:15:36.927162
216  2023-11-30 15:15:36.973396
217  2023-11-30 15:15:37.020606
218  2023-11-30 15:15:37.051430
219  2023-11-30 15:15:37.099203
220  2023-11-30 15:15:37.145323
221  2023-11-30 15:15:37.177077
222  2023-11-30 15:15:37.223403
223  2023-11-30 15:15:37.270486
224  2023-11-30 15:15:37.301880
225  2023-11-30 15:15:37.348184
226  2023-11-30 15:15:37.396212
227  2023-11-30 15:15:37.425855
228  2023-11-30 15:15:37.472105
229  2023-11-30 15:15:37.518514
230  2023-11-30 15:15:37.548840
231  2023-11-30 15:15:37.595401
232  2023-11-30 15:15:37.641579
233  2023-11-30 15:15:37.673184
234  2023-11-30 15:15:37.721168
235  2023-11-30 15:15:37.767137
236  2023-11-30 15:15:37.799146
237  2023-11-30 15:15:37.846191
238  2023-11-30 15:15:37.894654
239  2023-11-30 15:15:37.925180
240  2023-11-30 15:15:37.970831
241  2023-11-30 15:15:38.017546
242  2023-11-30 15:15:38.049144
243  2023-11-30 15:15:38.094891
244  2023-11-30 15:15:38.141719
245  2023-11-30 15:15:38.173573
246  2023-11-30 15:15:38.219929
247  2023-11-30 15:15:38.267151
248  2023-11-30 15:15:38.298797
249  2023-11-30 15:15:38.345740
250  2023-11-30 15:15:38.392214
251  2023-11-30 15:15:38.423224
252  2023-11-30 15:15:38.470056
253  2023-11-30 15:15:38.516190
254  2023-11-30 15:15:38.562255
255  2023-11-30 15:15:38.593900
256  2023-11-30 15:15:38.639938
257  2023-11-30 15:15:38.686376
258  2023-11-30 15:15:38.717919
259  2023-11-30 15:15:38.765128
260  2023-11-30 15:15:38.812091
261  2023-11-30 15:15:38.844315
262  2023-11-30 15:15:38.891809
263  2023-11-30 15:15:38.938014
264  2023-11-30 15:15:38.969530
265  2023-11-30 15:15:39.015895
266  2023-11-30 15:15:39.062392
267  2023-11-30 15:15:39.094181
268  2023-11-30 15:15:39.142060
269  2023-11-30 15:15:39.173203
270  2023-11-30 15:15:39.220084
271  2023-11-30 15:15:39.269236
272  2023-11-30 15:15:39.300261
273  2023-11-30 15:15:39.348228
274  2023-11-30 15:15:39.395182
275  2023-11-30 15:15:39.426810
276  2023-11-30 15:15:39.473295
277  2023-11-30 15:15:39.519235
278  2023-11-30 15:15:39.550407
279  2023-11-30 15:15:39.596620
280  2023-11-30 15:15:39.643887
281  2023-11-30 15:15:39.675586
282  2023-11-30 15:15:39.722093
283  2023-11-30 15:15:39.769950
284  2023-11-30 15:15:39.801223
285  2023-11-30 15:15:39.848232
286  2023-11-30 15:15:39.894513
287  2023-11-30 15:15:39.925597
288  2023-11-30 15:15:39.972779
289  2023-11-30 15:15:40.021152
290  2023-11-30 15:15:40.051254
291  2023-11-30 15:15:40.097425
292  2023-11-30 15:15:40.144123
293  2023-11-30 15:15:40.175633
294  2023-11-30 15:15:40.221328
295  2023-11-30 15:15:40.268134
296  2023-11-30 15:15:40.299142
297  2023-11-30 15:15:40.346110
298  2023-11-30 15:15:40.392302
299  2023-11-30 15:15:40.423071
300  2023-11-30 15:15:40.470423
301  2023-11-30 15:15:40.517150
302  2023-11-30 15:15:40.548205
303  2023-11-30 15:15:40.596040
304  2023-11-30 15:15:40.644204
305  2023-11-30 15:15:40.674308
306  2023-11-30 15:15:40.721668
307  2023-11-30 15:15:40.769534
308  2023-11-30 15:15:40.799929
309  2023-11-30 15:15:40.846450
310  2023-11-30 15:15:40.892276
311  2023-11-30 15:15:40.923919
312  2023-11-30 15:15:40.971209
313  2023-11-30 15:15:41.017553
314  2023-11-30 15:15:41.048281
315  2023-11-30 15:15:41.094499
316  2023-11-30 15:15:41.140805
317  2023-11-30 15:15:41.172746
318  2023-11-30 15:15:41.220810
319  2023-11-30 15:15:41.266920
320  2023-11-30 15:15:41.298335
321  2023-11-30 15:15:41.344912
322  2023-11-30 15:15:41.392246
323  2023-11-30 15:15:41.423895
324  2023-11-30 15:15:41.469078
325  2023-11-30 15:15:41.515302
326  2023-11-30 15:15:41.562251
327  2023-11-30 15:15:41.593134
328  2023-11-30 15:15:41.639429
329  2023-11-30 15:15:41.685368
330  2023-11-30 15:15:41.716916
331  2023-11-30 15:15:41.764210
332  2023-11-30 15:15:41.812222
333  2023-11-30 15:15:41.843085
334  2023-11-30 15:15:41.890984
335  2023-11-30 15:15:41.935876
336  2023-11-30 15:15:41.966734
337  2023-11-30 15:15:42.012672
338  2023-11-30 15:15:42.059590
339  2023-11-30 15:15:42.090537
340  2023-11-30 15:15:42.138115
341  2023-11-30 15:15:42.184998
342  2023-11-30 15:15:42.215685
343  2023-11-30 15:15:42.262859
344  2023-11-30 15:15:42.309422
345  2023-11-30 15:15:42.340389
346  2023-11-30 15:15:42.387867
347  2023-11-30 15:15:42.434832
348  2023-11-30 15:15:42.466286
349  2023-11-30 15:15:42.514288
350  2023-11-30 15:15:42.562336
351  2023-11-30 15:15:42.593765
352  2023-11-30 15:15:42.640354
353  2023-11-30 15:15:42.687632
354  2023-11-30 15:15:42.718844
355  2023-11-30 15:15:42.764186
356  2023-11-30 15:15:42.811118
357  2023-11-30 15:15:42.842185
358  2023-11-30 15:15:42.887972
359  2023-11-30 15:15:42.935254
360  2023-11-30 15:15:42.967228
361  2023-11-30 15:15:43.013794
362  2023-11-30 15:15:43.062087
363  2023-11-30 15:15:43.091644
364  2023-11-30 15:15:43.138484
365  2023-11-30 15:15:43.185896
366  2023-11-30 15:15:43.216989
367  2023-11-30 15:15:43.263944
368  2023-11-30 15:15:43.310905
369  2023-11-30 15:15:43.341764
370  2023-11-30 15:15:43.387457
371  2023-11-30 15:15:43.435159
372  2023-11-30 15:15:43.465775
373  2023-11-30 15:15:43.511922
374  2023-11-30 15:15:43.557616
375  2023-11-30 15:15:43.589503
376  2023-11-30 15:15:43.635421
377  2023-11-30 15:15:43.681771
378  2023-11-30 15:15:43.729269
379  2023-11-30 15:15:43.760451
380  2023-11-30 15:15:43.806783
381  2023-11-30 15:15:43.852713
382  2023-11-30 15:15:43.883244
383  2023-11-30 15:15:43.930019
384  2023-11-30 15:15:43.977249
385  2023-11-30 15:15:44.008547
386  2023-11-30 15:15:44.054828
387  2023-11-30 15:15:44.103173
388  2023-11-30 15:15:44.133232
389  2023-11-30 15:15:44.179197
390  2023-11-30 15:15:44.225787
391  2023-11-30 15:15:44.257827
392  2023-11-30 15:15:44.305829
393  2023-11-30 15:15:44.352732
394  2023-11-30 15:15:44.383580
395  2023-11-30 15:15:44.429691
396  2023-11-30 15:15:44.476217
397  2023-11-30 15:15:44.507205
398  2023-11-30 15:15:44.554337
399  2023-11-30 15:15:44.600231
400  2023-11-30 15:15:44.631412
401  2023-11-30 15:15:44.678330
402  2023-11-30 15:15:44.725142
403  2023-11-30 15:15:44.756178
404  2023-11-30 15:15:44.802610
405  2023-11-30 15:15:44.850132
406  2023-11-30 15:15:44.881613
407  2023-11-30 15:15:44.928239
408  2023-11-30 15:15:44.974623
409  2023-11-30 15:15:45.006418
410  2023-11-30 15:15:45.052742
411  2023-11-30 15:15:45.099193
412  2023-11-30 15:15:45.146254
413  2023-11-30 15:15:45.177363
414  2023-11-30 15:15:45.224243
415  2023-11-30 15:15:45.256228
416  2023-11-30 15:15:45.302177
417  2023-11-30 15:15:45.350261
418  2023-11-30 15:15:45.395800
419  2023-11-30 15:15:45.426274
420  2023-11-30 15:15:45.473561
421  2023-11-30 15:15:45.520116
422  2023-11-30 15:15:45.551747
423  2023-11-30 15:15:45.598800
424  2023-11-30 15:15:45.644223
425  2023-11-30 15:15:45.675288
426  2023-11-30 15:15:45.721337
427  2023-11-30 15:15:45.768050
428  2023-11-30 15:15:45.799221
429  2023-11-30 15:15:45.845242
430  2023-11-30 15:15:45.891181
431  2023-11-30 15:15:45.938082
432  2023-11-30 15:15:45.970109
433  2023-11-30 15:15:46.016615
434  2023-11-30 15:15:46.048420
435  2023-11-30 15:15:46.096369
436  2023-11-30 15:15:46.143183
437  2023-11-30 15:15:46.175351
438  2023-11-30 15:15:46.222473
439  2023-11-30 15:15:46.269048
440  2023-11-30 15:15:46.300384
441  2023-11-30 15:15:46.346352
442  2023-11-30 15:15:46.391937
443  2023-11-30 15:15:46.422645
444  2023-11-30 15:15:46.470757
445  2023-11-30 15:15:46.517525
446  2023-11-30 15:15:46.549159
447  2023-11-30 15:15:46.596186
448  2023-11-30 15:15:46.641966
449  2023-11-30 15:15:46.687235
450  2023-11-30 15:15:46.719734
451  2023-11-30 15:15:46.765823
452  2023-11-30 15:15:46.812872
453  2023-11-30 15:15:46.843364
454  2023-11-30 15:15:46.890189
455  2023-11-30 15:15:46.937164
456  2023-11-30 15:15:46.968528
457  2023-11-30 15:15:47.015082
458  2023-11-30 15:15:47.062337
459  2023-11-30 15:15:47.094173
460  2023-11-30 15:15:47.140809
461  2023-11-30 15:15:47.172899
462  2023-11-30 15:15:47.219346
463  2023-11-30 15:15:47.265090
464  2023-11-30 15:15:47.311156
465  2023-11-30 15:15:47.342567
466  2023-11-30 15:15:47.390523
467  2023-11-30 15:15:47.436632
468  2023-11-30 15:15:47.467874
469  2023-11-30 15:15:47.514169
470  2023-11-30 15:15:47.559451
471  2023-11-30 15:15:47.591357
472  2023-11-30 15:15:47.638651
473  2023-11-30 15:15:47.684749
474  2023-11-30 15:15:47.715243
475  2023-11-30 15:15:47.762049
476  2023-11-30 15:15:47.807815
477  2023-11-30 15:15:47.853971
478  2023-11-30 15:15:47.886166
479  2023-11-30 15:15:47.933185
480  2023-11-30 15:15:47.979191
481  2023-11-30 15:15:48.010195
482  2023-11-30 15:15:48.056408
483  2023-11-30 15:15:48.103185
484  2023-11-30 15:15:48.134163
485  2023-11-30 15:15:48.181390
486  2023-11-30 15:15:48.228424
487  2023-11-30 15:15:48.259100
488  2023-11-30 15:15:48.306112
489  2023-11-30 15:15:48.353566
490  2023-11-30 15:15:48.384438
491  2023-11-30 15:15:48.430748
492  2023-11-30 15:15:48.477592
493  2023-11-30 15:15:48.509439
494  2023-11-30 15:15:48.556725
495  2023-11-30 15:15:48.603072
496  2023-11-30 15:15:48.634359
497  2023-11-30 15:15:48.680399
498  2023-11-30 15:15:48.726327
499  2023-11-30 15:15:48.758852
500  2023-11-30 15:15:48.804146
501  2023-11-30 15:15:48.850598
502  2023-11-30 15:15:48.881841
503  2023-11-30 15:15:48.928352
504  2023-11-30 15:15:48.975528
505  2023-11-30 15:15:49.020851
506  2023-11-30 15:15:49.051409
507  2023-11-30 15:15:49.097329
508  2023-11-30 15:15:49.143690
509  2023-11-30 15:15:49.175171
510  2023-11-30 15:15:49.222277
511  2023-11-30 15:15:49.269616
512  2023-11-30 15:15:49.301532
513  2023-11-30 15:15:49.348380
514  2023-11-30 15:15:49.395017
515  2023-11-30 15:15:49.425572
516  2023-11-30 15:15:49.471870
517  2023-11-30 15:15:49.518039
518  2023-11-30 15:15:49.548867
519  2023-11-30 15:15:49.596641
520  2023-11-30 15:15:49.643464
521  2023-11-30 15:15:49.674194
522  2023-11-30 15:15:49.720819
523  2023-11-30 15:15:49.767416
524  2023-11-30 15:15:49.798910
525  2023-11-30 15:15:49.846250
526  2023-11-30 15:15:49.893168
527  2023-11-30 15:15:49.924177
528  2023-11-30 15:15:49.970872
529  2023-11-30 15:15:50.018018
530  2023-11-30 15:15:50.048781
531  2023-11-30 15:15:50.095256
532  2023-11-30 15:15:50.142151
533  2023-11-30 15:15:50.172926
534  2023-11-30 15:15:50.218680
535  2023-11-30 15:15:50.266160
536  2023-11-30 15:15:50.312423
537  2023-11-30 15:15:50.344157
538  2023-11-30 15:15:50.389613
539  2023-11-30 15:15:50.436200
540  2023-11-30 15:15:50.466555
541  2023-11-30 15:15:50.512933
542  2023-11-30 15:15:50.559168
543  2023-11-30 15:15:50.590677
544  2023-11-30 15:15:50.637226
545  2023-11-30 15:15:50.684077
546  2023-11-30 15:15:50.715632
547  2023-11-30 15:15:50.763301
548  2023-11-30 15:15:50.810163
549  2023-11-30 15:15:50.841388
550  2023-11-30 15:15:50.889075
551  2023-11-30 15:15:50.936284
552  2023-11-30 15:15:50.967376
553  2023-11-30 15:15:51.013450
554  2023-11-30 15:15:51.060416
555  2023-11-30 15:15:51.092342
556  2023-11-30 15:15:51.138834
557  2023-11-30 15:15:51.184327
558  2023-11-30 15:15:51.215142
559  2023-11-30 15:15:51.261592
560  2023-11-30 15:15:51.308432
561  2023-11-30 15:15:51.354024
562  2023-11-30 15:15:51.386030
563  2023-11-30 15:15:51.433320
564  2023-11-30 15:15:51.479624
565  2023-11-30 15:15:51.510464
566  2023-11-30 15:15:51.557960
567  2023-11-30 15:15:51.589493
568  2023-11-30 15:15:51.636186
569  2023-11-30 15:15:51.683251
570  2023-11-30 15:15:51.728349
571  2023-11-30 15:15:51.759067
572  2023-11-30 15:15:51.805254
573  2023-11-30 15:15:51.852297
574  2023-11-30 15:15:51.883721
575  2023-11-30 15:15:51.930084
576  2023-11-30 15:15:51.976040
577  2023-11-30 15:15:52.007362
578  2023-11-30 15:15:52.054209
579  2023-11-30 15:15:52.101326
580  2023-11-30 15:15:52.132233
581  2023-11-30 15:15:52.178319
582  2023-11-30 15:15:52.223842
583  2023-11-30 15:15:52.270816
584  2023-11-30 15:15:52.301473
585  2023-11-30 15:15:52.347659
586  2023-11-30 15:15:52.393455
587  2023-11-30 15:15:52.425045
588  2023-11-30 15:15:52.472442
589  2023-11-30 15:15:52.519382
590  2023-11-30 15:15:52.551141
591  2023-11-30 15:15:52.598202
592  2023-11-30 15:15:52.645267
593  2023-11-30 15:15:52.675667
594  2023-11-30 15:15:52.723214
595  2023-11-30 15:15:52.769380
596  2023-11-30 15:15:52.800387
597  2023-11-30 15:15:52.847126
598  2023-11-30 15:15:52.894145
599  2023-11-30 15:15:52.925394
600  2023-11-30 15:15:52.970471
601  2023-11-30 15:15:53.016840
602  2023-11-30 15:15:53.048038
603  2023-11-30 15:15:53.095827
604  2023-11-30 15:15:53.143218
605  2023-11-30 15:15:53.174850
606  2023-11-30 15:15:53.221673
607  2023-11-30 15:15:53.268475
608  2023-11-30 15:15:53.300203
609  2023-11-30 15:15:53.348174
610  2023-11-30 15:15:53.394528
611  2023-11-30 15:15:53.425741
612  2023-11-30 15:15:53.471595
613  2023-11-30 15:15:53.518002
614  2023-11-30 15:15:53.549261
615  2023-11-30 15:15:53.596932
616  2023-11-30 15:15:53.643256
617  2023-11-30 15:15:53.673898
618  2023-11-30 15:15:53.720866
619  2023-11-30 15:15:53.768608
620  2023-11-30 15:15:53.799403
621  2023-11-30 15:15:53.846223
622  2023-11-30 15:15:53.893173
623  2023-11-30 15:15:53.925167
624  2023-11-30 15:15:53.972175
625  2023-11-30 15:15:54.020318
626  2023-11-30 15:15:54.050946
627  2023-11-30 15:15:54.096898
628  2023-11-30 15:15:54.144486
629  2023-11-30 15:15:54.176485
630  2023-11-30 15:15:54.221966
631  2023-11-30 15:15:54.269076
632  2023-11-30 15:15:54.299984
633  2023-11-30 15:15:54.347253
634  2023-11-30 15:15:54.393477
635  2023-11-30 15:15:54.425430
636  2023-11-30 15:15:54.472122
637  2023-11-30 15:15:54.520966
638  2023-11-30 15:15:54.551167
639  2023-11-30 15:15:54.598938
640  2023-11-30 15:15:54.646173
641  2023-11-30 15:15:54.677048
642  2023-11-30 15:15:54.724256
643  2023-11-30 15:15:54.771049
644  2023-11-30 15:15:54.802736
645  2023-11-30 15:15:54.849673
646  2023-11-30 15:15:54.896231
647  2023-11-30 15:15:54.926964
648  2023-11-30 15:15:54.974194
649  2023-11-30 15:15:55.019726
650  2023-11-30 15:15:55.050673
651  2023-11-30 15:15:55.097578
652  2023-11-30 15:15:55.144466
653  2023-11-30 15:15:55.175203
654  2023-11-30 15:15:55.221614
655  2023-11-30 15:15:55.269171
656  2023-11-30 15:15:55.301241
657  2023-11-30 15:15:55.349226
658  2023-11-30 15:15:55.395381
659  2023-11-30 15:15:55.427475
660  2023-11-30 15:15:55.474921
661  2023-11-30 15:15:55.520984
662  2023-11-30 15:15:55.551717
663  2023-11-30 15:15:55.599409
664  2023-11-30 15:15:55.645962
665  2023-11-30 15:15:55.676624
666  2023-11-30 15:15:55.724025
667  2023-11-30 15:15:55.770841
668  2023-11-30 15:15:55.802459
669  2023-11-30 15:15:55.848668
670  2023-11-30 15:15:55.896154
671  2023-11-30 15:15:55.927401
672  2023-11-30 15:15:55.974205
673  2023-11-30 15:15:56.006214
674  2023-11-30 15:15:56.052985
675  2023-11-30 15:15:56.099512
676  2023-11-30 15:15:56.146169
677  2023-11-30 15:15:56.176342
678  2023-11-30 15:15:56.222367
679  2023-11-30 15:15:56.269338
680  2023-11-30 15:15:56.300118
681  2023-11-30 15:15:56.346508
682  2023-11-30 15:15:56.393076
683  2023-11-30 15:15:56.424451
684  2023-11-30 15:15:56.470412
685  2023-11-30 15:15:56.518406
686  2023-11-30 15:15:56.551229
687  2023-11-30 15:15:56.597580
688  2023-11-30 15:15:56.645179
689  2023-11-30 15:15:56.676189
690  2023-11-30 15:15:56.723042
691  2023-11-30 15:15:56.769101
692  2023-11-30 15:15:56.800202
693  2023-11-30 15:15:56.845906
694  2023-11-30 15:15:56.892761
695  2023-11-30 15:15:56.924003
696  2023-11-30 15:15:56.970229
697  2023-11-30 15:15:57.017324
698  2023-11-30 15:15:57.047961
699  2023-11-30 15:15:57.094472
700  2023-11-30 15:15:57.142194
701  2023-11-30 15:15:57.174177
702  2023-11-30 15:15:57.221617
703  2023-11-30 15:15:57.267378
704  2023-11-30 15:15:57.298184
705  2023-11-30 15:15:57.345210
706  2023-11-30 15:15:57.391727
707  2023-11-30 15:15:57.423637
708  2023-11-30 15:15:57.470313
709  2023-11-30 15:15:57.517165
710  2023-11-30 15:15:57.548082
711  2023-11-30 15:15:57.594674
712  2023-11-30 15:15:57.641136
713  2023-11-30 15:15:57.687741
714  2023-11-30 15:15:57.719151
715  2023-11-30 15:15:57.766478
716  2023-11-30 15:15:57.797771
717  2023-11-30 15:15:57.845309
718  2023-11-30 15:15:57.892258
719  2023-11-30 15:15:57.925277
720  2023-11-30 15:15:57.972245
721  2023-11-30 15:15:58.017227
722  2023-11-30 15:15:58.048775
723  2023-11-30 15:15:58.094968
724  2023-11-30 15:15:58.141300
725  2023-11-30 15:15:58.187965
726  2023-11-30 15:15:58.218885
727  2023-11-30 15:15:58.265353
728  2023-11-30 15:15:58.312945
729  2023-11-30 15:15:58.343919
730  2023-11-30 15:15:58.391201
731  2023-11-30 15:15:58.437146
732  2023-11-30 15:15:58.468511
733  2023-11-30 15:15:58.514045
734  2023-11-30 15:15:58.560164
735  2023-11-30 15:15:58.590786
736  2023-11-30 15:15:58.637847
737  2023-11-30 15:15:58.683058
738  2023-11-30 15:15:58.729573
739  2023-11-30 15:15:58.761937
740  2023-11-30 15:15:58.808431
741  2023-11-30 15:15:58.839917
742  2023-11-30 15:15:58.886937
743  2023-11-30 15:15:58.933478
744  2023-11-30 15:15:58.965412
745  2023-11-30 15:15:59.013811
746  2023-11-30 15:15:59.060770
747  2023-11-30 15:15:59.092172
748  2023-11-30 15:15:59.137881
749  2023-11-30 15:15:59.185153
750  2023-11-30 15:15:59.215687
751  2023-11-30 15:15:59.262209
752  2023-11-30 15:15:59.308978
753  2023-11-30 15:15:59.339505
754  2023-11-30 15:15:59.385468
755  2023-11-30 15:15:59.433124
756  2023-11-30 15:15:59.479200
757  2023-11-30 15:15:59.511049
758  2023-11-30 15:15:59.557653
759  2023-11-30 15:15:59.589294
760  2023-11-30 15:15:59.635943
761  2023-11-30 15:15:59.683748
762  2023-11-30 15:15:59.729057
763  2023-11-30 15:15:59.760339
764  2023-11-30 15:15:59.805829
765  2023-11-30 15:15:59.853436
766  2023-11-30 15:15:59.884221
767  2023-11-30 15:15:59.931713
768  2023-11-30 15:15:59.977856
769  2023-11-30 15:16:00.008942
770  2023-11-30 15:16:00.055910
771  2023-11-30 15:16:00.103541
772  2023-11-30 15:16:00.135351
773  2023-11-30 15:16:00.182450
774  2023-11-30 15:16:00.228752
775  2023-11-30 15:16:00.260734
776  2023-11-30 15:16:00.307661
777  2023-11-30 15:16:00.339743
778  2023-11-30 15:16:00.386215
779  2023-11-30 15:16:00.433195
780  2023-11-30 15:16:00.464232
781  2023-11-30 15:16:00.510317
782  2023-11-30 15:16:00.557913
783  2023-11-30 15:16:00.604504
784  2023-11-30 15:16:00.635670
785  2023-11-30 15:16:00.682625
786  2023-11-30 15:16:00.714266
787  2023-11-30 15:16:00.761588
788  2023-11-30 15:16:00.807724
789  2023-11-30 15:16:00.853900
790  2023-11-30 15:16:00.884351
791  2023-11-30 15:16:00.931885
792  2023-11-30 15:16:00.978941
793  2023-11-30 15:16:01.009546
794  2023-11-30 15:16:01.056785
795  2023-11-30 15:16:01.103040
796  2023-11-30 15:16:01.134472
797  2023-11-30 15:16:01.181187
798  2023-11-30 15:16:01.227989
799  2023-11-30 15:16:01.259958
800  2023-11-30 15:16:01.306994
801  2023-11-30 15:16:01.353341
802  2023-11-30 15:16:01.385328
803  2023-11-30 15:16:01.431338
804  2023-11-30 15:16:01.478729
805  2023-11-30 15:16:01.510171
806  2023-11-30 15:16:01.557274
807  2023-11-30 15:16:01.604202
808  2023-11-30 15:16:01.636235
809  2023-11-30 15:16:01.683490
810  2023-11-30 15:16:01.729059
811  2023-11-30 15:16:01.759969
812  2023-11-30 15:16:01.805796
813  2023-11-30 15:16:01.852285
814  2023-11-30 15:16:01.883352
815  2023-11-30 15:16:01.931248
816  2023-11-30 15:16:01.976188
817  2023-11-30 15:16:02.007226
818  2023-11-30 15:16:02.054878
819  2023-11-30 15:16:02.101234
820  2023-11-30 15:16:02.132111
821  2023-11-30 15:16:02.180225
822  2023-11-30 15:16:02.226521
823  2023-11-30 15:16:02.256880
824  2023-11-30 15:16:02.304345
825  2023-11-30 15:16:02.351106
826  2023-11-30 15:16:02.381806
827  2023-11-30 15:16:02.427880
828  2023-11-30 15:16:02.474355
829  2023-11-30 15:16:02.520459
830  2023-11-30 15:16:02.551930
831  2023-11-30 15:16:02.599179
832  2023-11-30 15:16:02.646196
833  2023-11-30 15:16:02.678190
834  2023-11-30 15:16:02.724941
835  2023-11-30 15:16:02.770931
836  2023-11-30 15:16:02.802216
837  2023-11-30 15:16:02.850462
838  2023-11-30 15:16:02.881008
839  2023-11-30 15:16:02.927465
840  2023-11-30 15:16:02.974554
841  2023-11-30 15:16:03.019953
842  2023-11-30 15:16:03.051169
843  2023-11-30 15:16:03.097827
844  2023-11-30 15:16:03.144193
845  2023-11-30 15:16:03.175288
846  2023-11-30 15:16:03.223974
847  2023-11-30 15:16:03.270316
848  2023-11-30 15:16:03.301176
849  2023-11-30 15:16:03.348363
850  2023-11-30 15:16:03.395586
851  2023-11-30 15:16:03.426099
852  2023-11-30 15:16:03.472623
853  2023-11-30 15:16:03.519985
854  2023-11-30 15:16:03.551159
855  2023-11-30 15:16:03.596970
856  2023-11-30 15:16:03.643907
857  2023-11-30 15:16:03.674447
858  2023-11-30 15:16:03.720686
859  2023-11-30 15:16:03.766842
860  2023-11-30 15:16:03.798333
861  2023-11-30 15:16:03.844967
862  2023-11-30 15:16:03.892161
863  2023-11-30 15:16:03.924227
864  2023-11-30 15:16:03.972107
865  2023-11-30 15:16:04.017906
866  2023-11-30 15:16:04.048431
867  2023-11-30 15:16:04.095388
868  2023-11-30 15:16:04.141620
869  2023-11-30 15:16:04.173007
870  2023-11-30 15:16:04.220423
871  2023-11-30 15:16:04.267211
872  2023-11-30 15:16:04.298240
873  2023-11-30 15:16:04.344228
874  2023-11-30 15:16:04.390931
875  2023-11-30 15:16:04.423927
876  2023-11-30 15:16:04.470380
877  2023-11-30 15:16:04.517392
878  2023-11-30 15:16:04.549262
879  2023-11-30 15:16:04.596180
880  2023-11-30 15:16:04.642428
881  2023-11-30 15:16:04.673207
882  2023-11-30 15:16:04.718802
883  2023-11-30 15:16:04.765124
884  2023-11-30 15:16:04.811364
885  2023-11-30 15:16:04.842580
886  2023-11-30 15:16:04.888843
887  2023-11-30 15:16:04.936204
888  2023-11-30 15:16:04.967822
889  2023-11-30 15:16:05.015392
890  2023-11-30 15:16:05.062410
891  2023-11-30 15:16:05.094455
892  2023-11-30 15:16:05.142176
893  2023-11-30 15:16:05.172600
894  2023-11-30 15:16:05.220144
895  2023-11-30 15:16:05.266856
896  2023-11-30 15:16:05.297664
897  2023-11-30 15:16:05.345154
898  2023-11-30 15:16:05.391286
899  2023-11-30 15:16:05.423256
900  2023-11-30 15:16:05.469850
901  2023-11-30 15:16:05.516345
902  2023-11-30 15:16:05.548037
903  2023-11-30 15:16:05.595008
904  2023-11-30 15:16:05.642107
905  2023-11-30 15:16:05.673530
906  2023-11-30 15:16:05.719945
907  2023-11-30 15:16:05.766797
908  2023-11-30 15:16:05.812164
909  2023-11-30 15:16:05.842978
910  2023-11-30 15:16:05.889337
911  2023-11-30 15:16:05.934922
912  2023-11-30 15:16:05.966326
913  2023-11-30 15:16:06.012844
914  2023-11-30 15:16:06.058598
915  2023-11-30 15:16:06.089553
916  2023-11-30 15:16:06.137113
917  2023-11-30 15:16:06.183885
918  2023-11-30 15:16:06.215156
919  2023-11-30 15:16:06.261299
920  2023-11-30 15:16:06.308191
921  2023-11-30 15:16:06.339542
922  2023-11-30 15:16:06.385405
923  2023-11-30 15:16:06.432402
924  2023-11-30 15:16:06.464729
925  2023-11-30 15:16:06.511215
926  2023-11-30 15:16:06.559244
927  2023-11-30 15:16:06.591189
928  2023-11-30 15:16:06.637877
929  2023-11-30 15:16:06.684557
930  2023-11-30 15:16:06.715416
931  2023-11-30 15:16:06.761848
932  2023-11-30 15:16:06.808448
933  2023-11-30 15:16:06.839407
934  2023-11-30 15:16:06.886652
935  2023-11-30 15:16:06.933207
936  2023-11-30 15:16:06.964236
937  2023-11-30 15:16:07.010425
938  2023-11-30 15:16:07.056087
939  2023-11-30 15:16:07.103816
940  2023-11-30 15:16:07.134747
941  2023-11-30 15:16:07.181319
942  2023-11-30 15:16:07.228094
943  2023-11-30 15:16:07.260562
944  2023-11-30 15:16:07.305922
945  2023-11-30 15:16:07.353644
946  2023-11-30 15:16:07.384622
947  2023-11-30 15:16:07.431407
948  2023-11-30 15:16:07.479223
949  2023-11-30 15:16:07.511153
950  2023-11-30 15:16:07.557193
951  2023-11-30 15:16:07.604536
952  2023-11-30 15:16:07.636235
953  2023-11-30 15:16:07.682891
954  2023-11-30 15:16:07.729143
955  2023-11-30 15:16:07.760109
956  2023-11-30 15:16:07.806556
957  2023-11-30 15:16:07.854173
958  2023-11-30 15:16:07.885379
959  2023-11-30 15:16:07.933090
960  2023-11-30 15:16:07.980185
961  2023-11-30 15:16:08.010423
962  2023-11-30 15:16:08.058556
963  2023-11-30 15:16:08.090268
964  2023-11-30 15:16:08.136220
965  2023-11-30 15:16:08.184533
966  2023-11-30 15:16:08.216186
967  2023-11-30 15:16:08.261034
968  2023-11-30 15:16:08.308070
969  2023-11-30 15:16:08.339726
970  2023-11-30 15:16:08.386082
971  2023-11-30 15:16:08.432345
972  2023-11-30 15:16:08.478297
973  2023-11-30 15:16:08.509658
974  2023-11-30 15:16:08.556765
975  2023-11-30 15:16:08.604221
976  2023-11-30 15:16:08.635263
977  2023-11-30 15:16:08.682156
978  2023-11-30 15:16:08.729075
979  2023-11-30 15:16:08.760464
980  2023-11-30 15:16:08.807532
981  2023-11-30 15:16:08.839489
982  2023-11-30 15:16:08.887019
983  2023-11-30 15:16:08.933132
984  2023-11-30 15:16:08.964767
985  2023-11-30 15:16:09.012154
986  2023-11-30 15:16:09.059055
987  2023-11-30 15:16:09.089785
988  2023-11-30 15:16:09.136692
989  2023-11-30 15:16:09.182476
990  2023-11-30 15:16:09.229148
991  2023-11-30 15:16:09.261112
992  2023-11-30 15:16:09.308910
993  2023-11-30 15:16:09.341018
994  2023-11-30 15:16:09.388537
995  2023-11-30 15:16:09.435894
996  2023-11-30 15:16:09.466720
997  2023-11-30 15:16:09.513181
998  2023-11-30 15:16:09.560151
999  2023-11-30 15:16:09.591400
1000  2023-11-30 15:16:09.639115
1001  2023-11-30 15:16:09.686847
1002  2023-11-30 15:16:09.718444
1003  2023-11-30 15:16:09.765217
1004  2023-11-30 15:16:09.812166
1005  2023-11-30 15:16:09.842494
1006  2023-11-30 15:16:09.889345
1007  2023-11-30 15:16:09.936476
1008  2023-11-30 15:16:09.967713
1009  2023-11-30 15:16:10.013403
1010  2023-11-30 15:16:10.059360
1011  2023-11-30 15:16:10.091257
1012  2023-11-30 15:16:10.138125
1013  2023-11-30 15:16:10.184157
1014  2023-11-30 15:16:10.216394
1015  2023-11-30 15:16:10.263464
1016  2023-11-30 15:16:10.310401
1017  2023-11-30 15:16:10.342296
1018  2023-11-30 15:16:10.389967
1019  2023-11-30 15:16:10.436254
1020  2023-11-30 15:16:10.467330
1021  2023-11-30 15:16:10.513961
1022  2023-11-30 15:16:10.560025
1023  2023-11-30 15:16:10.590912
1024  2023-11-30 15:16:10.637866
1025  2023-11-30 15:16:10.683925
1026  2023-11-30 15:16:10.715731
1027  2023-11-30 15:16:10.763866
1028  2023-11-30 15:16:10.811952
1029  2023-11-30 15:16:10.841939
1030  2023-11-30 15:16:10.890080
1031  2023-11-30 15:16:10.936383
1032  2023-11-30 15:16:10.968355
1033  2023-11-30 15:16:11.015275
1034  2023-11-30 15:16:11.062293
1035  2023-11-30 15:16:11.093951
1036  2023-11-30 15:16:11.140706
1037  2023-11-30 15:16:11.186809
1038  2023-11-30 15:16:11.218357
1039  2023-11-30 15:16:11.265097
1040  2023-11-30 15:16:11.311541
1041  2023-11-30 15:16:11.342322
1042  2023-11-30 15:16:11.388262
1043  2023-11-30 15:16:11.436099
1044  2023-11-30 15:16:11.468045
1045  2023-11-30 15:16:11.514900
1046  2023-11-30 15:16:11.560822
1047  2023-11-30 15:16:11.592464
1048  2023-11-30 15:16:11.639505
1049  2023-11-30 15:16:11.687202
1050  2023-11-30 15:16:11.719087
1051  2023-11-30 15:16:11.766304
1052  2023-11-30 15:16:11.812851
1053  2023-11-30 15:16:11.844373
1054  2023-11-30 15:16:11.891375
1055  2023-11-30 15:16:11.938001
1056  2023-11-30 15:16:11.969131
1057  2023-11-30 15:16:12.015554
1058  2023-11-30 15:16:12.061677
1059  2023-11-30 15:16:12.093130
1060  2023-11-30 15:16:12.140230
1061  2023-11-30 15:16:12.187308
1062  2023-11-30 15:16:12.218242
1063  2023-11-30 15:16:12.265426
1064  2023-11-30 15:16:12.313269
1065  2023-11-30 15:16:12.342943
1066  2023-11-30 15:16:12.389970
1067  2023-11-30 15:16:12.436512
1068  2023-11-30 15:16:12.468162
1069  2023-11-30 15:16:12.514856
1070  2023-11-30 15:16:12.560812
1071  2023-11-30 15:16:12.591338
1072  2023-11-30 15:16:12.637710
1073  2023-11-30 15:16:12.683824
1074  2023-11-30 15:16:12.715367
1075  2023-11-30 15:16:12.761586
1076  2023-11-30 15:16:12.807779
1077  2023-11-30 15:16:12.840149
1078  2023-11-30 15:16:12.886151
1079  2023-11-30 15:16:12.934176
1080  2023-11-30 15:16:12.965920
1081  2023-11-30 15:16:13.012663
1082  2023-11-30 15:16:13.061178
1083  2023-11-30 15:16:13.092346
1084  2023-11-30 15:16:13.140128
1085  2023-11-30 15:16:13.188008
1086  2023-11-30 15:16:13.219143
1087  2023-11-30 15:16:13.265685
1088  2023-11-30 15:16:13.312940
1089  2023-11-30 15:16:13.343616
1090  2023-11-30 15:16:13.389552
1091  2023-11-30 15:16:13.435820
1092  2023-11-30 15:16:13.466363
1093  2023-11-30 15:16:13.513139
1094  2023-11-30 15:16:13.559174
1095  2023-11-30 15:16:13.592013
1096  2023-11-30 15:16:13.639980
1097  2023-11-30 15:16:13.685321
1098  2023-11-30 15:16:13.717284
1099  2023-11-30 15:16:13.764231
1100  2023-11-30 15:16:13.810290
1101  2023-11-30 15:16:13.842073
1102  2023-11-30 15:16:13.889560
1103  2023-11-30 15:16:13.935767
1104  2023-11-30 15:16:13.968434
1105  2023-11-30 15:16:14.014216
1106  2023-11-30 15:16:14.059966
1107  2023-11-30 15:16:14.090793
1108  2023-11-30 15:16:14.136999
1109  2023-11-30 15:16:14.183436
1110  2023-11-30 15:16:14.215156
1111  2023-11-30 15:16:14.262536
1112  2023-11-30 15:16:14.309182
1113  2023-11-30 15:16:14.340838
1114  2023-11-30 15:16:14.387053
1115  2023-11-30 15:16:14.434148
1116  2023-11-30 15:16:14.464406
1117  2023-11-30 15:16:14.511225
1118  2023-11-30 15:16:14.557375
1119  2023-11-30 15:16:14.603745
1120  2023-11-30 15:16:14.634651
1121  2023-11-30 15:16:14.681334
1122  2023-11-30 15:16:14.728562
1123  2023-11-30 15:16:14.760296
1124  2023-11-30 15:16:14.807300
1125  2023-11-30 15:16:14.853357
1126  2023-11-30 15:16:14.886317
1127  2023-11-30 15:16:14.931550
1128  2023-11-30 15:16:14.977414
1129  2023-11-30 15:16:15.009236
1130  2023-11-30 15:16:15.055487
1131  2023-11-30 15:16:15.102419
1132  2023-11-30 15:16:15.133055
1133  2023-11-30 15:16:15.179301
1134  2023-11-30 15:16:15.226133
1135  2023-11-30 15:16:15.257547
1136  2023-11-30 15:16:15.304477
1137  2023-11-30 15:16:15.352344
1138  2023-11-30 15:16:15.383367
1139  2023-11-30 15:16:15.431140
1140  2023-11-30 15:16:15.478163
1141  2023-11-30 15:16:15.508158
1142  2023-11-30 15:16:15.554893
1143  2023-11-30 15:16:15.601675
1144  2023-11-30 15:16:15.632587
1145  2023-11-30 15:16:15.679251
1146  2023-11-30 15:16:15.724707
1147  2023-11-30 15:16:15.756130
1148  2023-11-30 15:16:15.803195
1149  2023-11-30 15:16:15.850100
1150  2023-11-30 15:16:15.880922
1151  2023-11-30 15:16:15.927495
1152  2023-11-30 15:16:15.974074
1153  2023-11-30 15:16:16.005965
1154  2023-11-30 15:16:16.052168
1155  2023-11-30 15:16:16.099358
1156  2023-11-30 15:16:16.145755
1157  2023-11-30 15:16:16.176575
1158  2023-11-30 15:16:16.223996
1159  2023-11-30 15:16:16.270652
1160  2023-11-30 15:16:16.302288
1161  2023-11-30 15:16:16.349094
1162  2023-11-30 15:16:16.396050
1163  2023-11-30 15:16:16.427994
1164  2023-11-30 15:16:16.474671
1165  2023-11-30 15:16:16.521142
1166  2023-11-30 15:16:16.553440
1167  2023-11-30 15:16:16.598964
1168  2023-11-30 15:16:16.645461
1169  2023-11-30 15:16:16.677692
1170  2023-11-30 15:16:16.725001
1171  2023-11-30 15:16:16.770301
1172  2023-11-30 15:16:16.802068
1173  2023-11-30 15:16:16.847780
1174  2023-11-30 15:16:16.894358
1175  2023-11-30 15:16:16.925682
1176  2023-11-30 15:16:16.973243
1177  2023-11-30 15:16:17.019366
1178  2023-11-30 15:16:17.050477
1179  2023-11-30 15:16:17.097951
1180  2023-11-30 15:16:17.143849
1181  2023-11-30 15:16:17.175343
1182  2023-11-30 15:16:17.220858
1183  2023-11-30 15:16:17.268165
1184  2023-11-30 15:16:17.299759
1185  2023-11-30 15:16:17.349184
1186  2023-11-30 15:16:17.395009
1187  2023-11-30 15:16:17.425615
1188  2023-11-30 15:16:17.472828
1189  2023-11-30 15:16:17.518834
1190  2023-11-30 15:16:17.549769
1191  2023-11-30 15:16:17.597075
1192  2023-11-30 15:16:17.643780
1193  2023-11-30 15:16:17.674647
1194  2023-11-30 15:16:17.720388
1195  2023-11-30 15:16:17.766806
1196  2023-11-30 15:16:17.797865
1197  2023-11-30 15:16:17.845186
1198  2023-11-30 15:16:17.893789
1199  2023-11-30 15:16:17.924272
1200  2023-11-30 15:16:17.972320
1201  2023-11-30 15:16:18.020987
1202  2023-11-30 15:16:18.051599
1203  2023-11-30 15:16:18.098127
1204  2023-11-30 15:16:18.144550
1205  2023-11-30 15:16:18.175960
1206  2023-11-30 15:16:18.222036
1207  2023-11-30 15:16:18.268598
1208  2023-11-30 15:16:18.299929
1209  2023-11-30 15:16:18.346802
1210  2023-11-30 15:16:18.393094
1211  2023-11-30 15:16:18.425110
1212  2023-11-30 15:16:18.473041
1213  2023-11-30 15:16:18.520009
1214  2023-11-30 15:16:18.550325
1215  2023-11-30 15:16:18.597363
1216  2023-11-30 15:16:18.644831
1217  2023-11-30 15:16:18.676717
1218  2023-11-30 15:16:18.723224
1219  2023-11-30 15:16:18.771005
1220  2023-11-30 15:16:18.801233
1221  2023-11-30 15:16:18.848359
1222  2023-11-30 15:16:18.895639
1223  2023-11-30 15:16:18.925202
1224  2023-11-30 15:16:18.971853
1225  2023-11-30 15:16:19.017928
1226  2023-11-30 15:16:19.048820
1227  2023-11-30 15:16:19.096212
1228  2023-11-30 15:16:19.143396
1229  2023-11-30 15:16:19.174900
1230  2023-11-30 15:16:19.221358
1231  2023-11-30 15:16:19.267368
1232  2023-11-30 15:16:19.299427
1233  2023-11-30 15:16:19.345262
1234  2023-11-30 15:16:19.391606
1235  2023-11-30 15:16:19.437302
1236  2023-11-30 15:16:19.468193
1237  2023-11-30 15:16:19.514574
1238  2023-11-30 15:16:19.561835
1239  2023-11-30 15:16:19.592447
1240  2023-11-30 15:16:19.640242
1241  2023-11-30 15:16:19.687413
1242  2023-11-30 15:16:19.719184
1243  2023-11-30 15:16:19.765673
1244  2023-11-30 15:16:19.813826
1245  2023-11-30 15:16:19.843235
1246  2023-11-30 15:16:19.889797
1247  2023-11-30 15:16:19.938353
1248  2023-11-30 15:16:19.967576
1249  2023-11-30 15:16:20.014519
1250  2023-11-30 15:16:20.061125
1251  2023-11-30 15:16:20.091541
1252  2023-11-30 15:16:20.138653
1253  2023-11-30 15:16:20.184851
1254  2023-11-30 15:16:20.216804
1255  2023-11-30 15:16:20.263872
1256  2023-11-30 15:16:20.311347
1257  2023-11-30 15:16:20.343184
1258  2023-11-30 15:16:20.389777
1259  2023-11-30 15:16:20.436352
1260  2023-11-30 15:16:20.466613
1261  2023-11-30 15:16:20.514285
1262  2023-11-30 15:16:20.561354
1263  2023-11-30 15:16:20.591470
1264  2023-11-30 15:16:20.638539
1265  2023-11-30 15:16:20.684449
1266  2023-11-30 15:16:20.715117
1267  2023-11-30 15:16:20.762906
1268  2023-11-30 15:16:20.809306
1269  2023-11-30 15:16:20.840143
1270  2023-11-30 15:16:20.885880
1271  2023-11-30 15:16:20.932182
1272  2023-11-30 15:16:20.978301
1273  2023-11-30 15:16:21.010278
1274  2023-11-30 15:16:21.057929
1275  2023-11-30 15:16:21.103885
1276  2023-11-30 15:16:21.134421
1277  2023-11-30 15:16:21.181214
1278  2023-11-30 15:16:21.227504
1279  2023-11-30 15:16:21.258344
1280  2023-11-30 15:16:21.305476
1281  2023-11-30 15:16:21.352510
1282  2023-11-30 15:16:21.383897
1283  2023-11-30 15:16:21.430928
1284  2023-11-30 15:16:21.477191
1285  2023-11-30 15:16:21.508137
1286  2023-11-30 15:16:21.555720
1287  2023-11-30 15:16:21.602797
1288  2023-11-30 15:16:21.633094
1289  2023-11-30 15:16:21.679795
1290  2023-11-30 15:16:21.726152
1291  2023-11-30 15:16:21.757615
1292  2023-11-30 15:16:21.803407
1293  2023-11-30 15:16:21.851088
1294  2023-11-30 15:16:21.882558
1295  2023-11-30 15:16:21.929717
1296  2023-11-30 15:16:21.976298
1297  2023-11-30 15:16:22.007128
1298  2023-11-30 15:16:22.054688
1299  2023-11-30 15:16:22.101283
1300  2023-11-30 15:16:22.132612
1301  2023-11-30 15:16:22.178183
1302  2023-11-30 15:16:22.225882
1303  2023-11-30 15:16:22.257042
1304  2023-11-30 15:16:22.304123
1305  2023-11-30 15:16:22.348646
1306  2023-11-30 15:16:22.396141
1307  2023-11-30 15:16:22.426875
1308  2023-11-30 15:16:22.474453
1309  2023-11-30 15:16:22.521077
1310  2023-11-30 15:16:22.551898
1311  2023-11-30 15:16:22.598335
1312  2023-11-30 15:16:22.645187
1313  2023-11-30 15:16:22.677207
1314  2023-11-30 15:16:22.723750
1315  2023-11-30 15:16:22.770682
1316  2023-11-30 15:16:22.801340
1317  2023-11-30 15:16:22.849619
1318  2023-11-30 15:16:22.895484
1319  2023-11-30 15:16:22.927467
1320  2023-11-30 15:16:22.972836
1321  2023-11-30 15:16:23.018894
1322  2023-11-30 15:16:23.049389
1323  2023-11-30 15:16:23.095928
1324  2023-11-30 15:16:23.143678
1325  2023-11-30 15:16:23.174213
1326  2023-11-30 15:16:23.221200
1327  2023-11-30 15:16:23.268205
1328  2023-11-30 15:16:23.299362
1329  2023-11-30 15:16:23.346328
1330  2023-11-30 15:16:23.392868
1331  2023-11-30 15:16:23.423174
1332  2023-11-30 15:16:23.470230
1333  2023-11-30 15:16:23.516517
1334  2023-11-30 15:16:23.562683
1335  2023-11-30 15:16:23.593731
1336  2023-11-30 15:16:23.641143
1337  2023-11-30 15:16:23.687928
1338  2023-11-30 15:16:23.720241
1339  2023-11-30 15:16:23.765425
1340  2023-11-30 15:16:23.812218
1341  2023-11-30 15:16:23.844194
1342  2023-11-30 15:16:23.891617
1343  2023-11-30 15:16:23.937328
1344  2023-11-30 15:16:23.967406
1345  2023-11-30 15:16:24.014723
1346  2023-11-30 15:16:24.060971
1347  2023-11-30 15:16:24.092345
1348  2023-11-30 15:16:24.138807
1349  2023-11-30 15:16:24.186050
1350  2023-11-30 15:16:24.218126
1351  2023-11-30 15:16:24.264924
1352  2023-11-30 15:16:24.310708
1353  2023-11-30 15:16:24.342360
1354  2023-11-30 15:16:24.389686
1355  2023-11-30 15:16:24.435423
1356  2023-11-30 15:16:24.465969
1357  2023-11-30 15:16:24.512898
1358  2023-11-30 15:16:24.558696
1359  2023-11-30 15:16:24.589825
1360  2023-11-30 15:16:24.635620
1361  2023-11-30 15:16:24.681811
1362  2023-11-30 15:16:24.729555
1363  2023-11-30 15:16:24.760667
1364  2023-11-30 15:16:24.806411
1365  2023-11-30 15:16:24.852363
1366  2023-11-30 15:16:24.884322
1367  2023-11-30 15:16:24.930139
1368  2023-11-30 15:16:24.976689
1369  2023-11-30 15:16:25.007292
1370  2023-11-30 15:16:25.053611
1371  2023-11-30 15:16:25.100779
1372  2023-11-30 15:16:25.131649
1373  2023-11-30 15:16:25.177838
1374  2023-11-30 15:16:25.224149
1375  2023-11-30 15:16:25.269813
1376  2023-11-30 15:16:25.301219
1377  2023-11-30 15:16:25.347654
1378  2023-11-30 15:16:25.393953
1379  2023-11-30 15:16:25.425623
1380  2023-11-30 15:16:25.472200
1381  2023-11-30 15:16:25.519313
1382  2023-11-30 15:16:25.551322
1383  2023-11-30 15:16:25.596902
1384  2023-11-30 15:16:25.643363
1385  2023-11-30 15:16:25.673238
1386  2023-11-30 15:16:25.719936
1387  2023-11-30 15:16:25.767388
1388  2023-11-30 15:16:25.798296
1389  2023-11-30 15:16:25.845065
1390  2023-11-30 15:16:25.890178
1391  2023-11-30 15:16:25.936951
1392  2023-11-30 15:16:25.968064
1393  2023-11-30 15:16:26.014939
1394  2023-11-30 15:16:26.062858
1395  2023-11-30 15:16:26.094827
1396  2023-11-30 15:16:26.141711
1397  2023-11-30 15:16:26.187555
1398  2023-11-30 15:16:26.219277
1399  2023-11-30 15:16:26.265807
1400  2023-11-30 15:16:26.297607
1401  2023-11-30 15:16:26.345115
1402  2023-11-30 15:16:26.390778
1403  2023-11-30 15:16:26.437302
1404  2023-11-30 15:16:26.468894
1405  2023-11-30 15:16:26.515153
1406  2023-11-30 15:16:26.561673
1407  2023-11-30 15:16:26.592659
1408  2023-11-30 15:16:26.638469
1409  2023-11-30 15:16:26.686383
1410  2023-11-30 15:16:26.717528
1411  2023-11-30 15:16:26.764384
1412  2023-11-30 15:16:26.812140
1413  2023-11-30 15:16:26.842798
1414  2023-11-30 15:16:26.889149
1415  2023-11-30 15:16:26.934904
1416  2023-11-30 15:16:26.966597
1417  2023-11-30 15:16:27.013015
1418  2023-11-30 15:16:27.059382
1419  2023-11-30 15:16:27.089938
1420  2023-11-30 15:16:27.136764
1421  2023-11-30 15:16:27.183054
1422  2023-11-30 15:16:27.214827
1423  2023-11-30 15:16:27.261150
1424  2023-11-30 15:16:27.308197
1425  2023-11-30 15:16:27.354449
1426  2023-11-30 15:16:27.385574
1427  2023-11-30 15:16:27.431626
1428  2023-11-30 15:16:27.479088
1429  2023-11-30 15:16:27.510372
1430  2023-11-30 15:16:27.557758
1431  2023-11-30 15:16:27.589201
1432  2023-11-30 15:16:27.636277
1433  2023-11-30 15:16:27.682652
1434  2023-11-30 15:16:27.728828
1435  2023-11-30 15:16:27.759324
1436  2023-11-30 15:16:27.806443
1437  2023-11-30 15:16:27.853074
1438  2023-11-30 15:16:27.883904
1439  2023-11-30 15:16:27.931040
1440  2023-11-30 15:16:27.976771
1441  2023-11-30 15:16:28.007883
1442  2023-11-30 15:16:28.054135
1443  2023-11-30 15:16:28.102338
1444  2023-11-30 15:16:28.132858
1445  2023-11-30 15:16:28.178840
1446  2023-11-30 15:16:28.224660
1447  2023-11-30 15:16:28.270863
1448  2023-11-30 15:16:28.302741
1449  2023-11-30 15:16:28.350061
1450  2023-11-30 15:16:28.381004
1451  2023-11-30 15:16:28.427192
1452  2023-11-30 15:16:28.473504
1453  2023-11-30 15:16:28.519180
1454  2023-11-30 15:16:28.550438
1455  2023-11-30 15:16:28.597296
1456  2023-11-30 15:16:28.644851
1457  2023-11-30 15:16:28.676079
1458  2023-11-30 15:16:28.721995
1459  2023-11-30 15:16:28.767589
1460  2023-11-30 15:16:28.798860
1461  2023-11-30 15:16:28.846303
1462  2023-11-30 15:16:28.893369
1463  2023-11-30 15:16:28.925200
1464  2023-11-30 15:16:28.970228
1465  2023-11-30 15:16:29.015963
1466  2023-11-30 15:16:29.063092
1467  2023-11-30 15:16:29.095225
1468  2023-11-30 15:16:29.142403
1469  2023-11-30 15:16:29.175190
1470  2023-11-30 15:16:29.223145
1471  2023-11-30 15:16:29.270190
1472  2023-11-30 15:16:29.301417
1473  2023-11-30 15:16:29.347034
1474  2023-11-30 15:16:29.394241
1475  2023-11-30 15:16:29.424760
1476  2023-11-30 15:16:29.470741
1477  2023-11-30 15:16:29.517648
1478  2023-11-30 15:16:29.549110
1479  2023-11-30 15:16:29.596573
1480  2023-11-30 15:16:29.643521
1481  2023-11-30 15:16:29.674224
1482  2023-11-30 15:16:29.723268
1483  2023-11-30 15:16:29.770829
1484  2023-11-30 15:16:29.799357
1485  2023-11-30 15:16:29.847245
1486  2023-11-30 15:16:29.894150
1487  2023-11-30 15:16:29.925517
1488  2023-11-30 15:16:29.972653
1489  2023-11-30 15:16:30.018385
1490  2023-11-30 15:16:30.048664
1491  2023-11-30 15:16:30.094954
1492  2023-11-30 15:16:30.141729
1493  2023-11-30 15:16:30.187084
1494  2023-11-30 15:16:30.218175
1495  2023-11-30 15:16:30.266256
1496  2023-11-30 15:16:30.297921
1497  2023-11-30 15:16:30.346277
1498  2023-11-30 15:16:30.392819
1499  2023-11-30 15:16:30.423077
1500  2023-11-30 15:16:30.469899
1501  2023-11-30 15:16:30.517733
1502  2023-11-30 15:16:30.548889
1503  2023-11-30 15:16:30.594412
1504  2023-11-30 15:16:30.640259
1505  2023-11-30 15:16:30.686912
1506  2023-11-30 15:16:30.718079
1507  2023-11-30 15:16:30.764137
1508  2023-11-30 15:16:30.811970
1509  2023-11-30 15:16:30.843957
1510  2023-11-30 15:16:30.889139
1511  2023-11-30 15:16:30.937306
1512  2023-11-30 15:16:30.967425
1513  2023-11-30 15:16:31.014303
1514  2023-11-30 15:16:31.061586
1515  2023-11-30 15:16:31.092338
1516  2023-11-30 15:16:31.138652
1517  2023-11-30 15:16:31.185267
1518  2023-11-30 15:16:31.216607
1519  2023-11-30 15:16:31.263442
1520  2023-11-30 15:16:31.310182
1521  2023-11-30 15:16:31.340346
1522  2023-11-30 15:16:31.386958
1523  2023-11-30 15:16:31.435176
1524  2023-11-30 15:16:31.465221
1525  2023-11-30 15:16:31.514743
1526  2023-11-30 15:16:31.559872
1527  2023-11-30 15:16:31.590334
1528  2023-11-30 15:16:31.637196
1529  2023-11-30 15:16:31.683178
1530  2023-11-30 15:16:31.714890
1531  2023-11-30 15:16:31.760669
1532  2023-11-30 15:16:31.807681
1533  2023-11-30 15:16:31.854151
1534  2023-11-30 15:16:31.884761
1535  2023-11-30 15:16:31.932289
1536  2023-11-30 15:16:31.978959
1537  2023-11-30 15:16:32.010976
1538  2023-11-30 15:16:32.057028
1539  2023-11-30 15:16:32.102401
1540  2023-11-30 15:16:32.134297
1541  2023-11-30 15:16:32.180302
1542  2023-11-30 15:16:32.227036
1543  2023-11-30 15:16:32.257883
1544  2023-11-30 15:16:32.305193
1545  2023-11-30 15:16:32.351100
1546  2023-11-30 15:16:32.383142
1547  2023-11-30 15:16:32.429448
1548  2023-11-30 15:16:32.477053
1549  2023-11-30 15:16:32.508037
1550  2023-11-30 15:16:32.555150
1551  2023-11-30 15:16:32.601482
1552  2023-11-30 15:16:32.632704
1553  2023-11-30 15:16:32.680148
1554  2023-11-30 15:16:32.725167
1555  2023-11-30 15:16:32.756306
1556  2023-11-30 15:16:32.802812
1557  2023-11-30 15:16:32.849240
1558  2023-11-30 15:16:32.895976
1559  2023-11-30 15:16:32.926123
1560  2023-11-30 15:16:32.973395
1561  2023-11-30 15:16:33.019041
1562  2023-11-30 15:16:33.049719
1563  2023-11-30 15:16:33.096630
1564  2023-11-30 15:16:33.144033
1565  2023-11-30 15:16:33.175392
1566  2023-11-30 15:16:33.224276
1567  2023-11-30 15:16:33.268300
1568  2023-11-30 15:16:33.300173
1569  2023-11-30 15:16:33.346548
1570  2023-11-30 15:16:33.393415
1571  2023-11-30 15:16:33.423961
1572  2023-11-30 15:16:33.470578
1573  2023-11-30 15:16:33.517373
1574  2023-11-30 15:16:33.549301
1575  2023-11-30 15:16:33.594991
1576  2023-11-30 15:16:33.642338
1577  2023-11-30 15:16:33.674083
1578  2023-11-30 15:16:33.721149
1579  2023-11-30 15:16:33.769005
1580  2023-11-30 15:16:33.800758
1581  2023-11-30 15:16:33.848405
1582  2023-11-30 15:16:33.896348
1583  2023-11-30 15:16:33.927167
1584  2023-11-30 15:16:33.974429
1585  2023-11-30 15:16:34.021151
1586  2023-11-30 15:16:34.052188
1587  2023-11-30 15:16:34.098903
1588  2023-11-30 15:16:34.144852
1589  2023-11-30 15:16:34.175944
1590  2023-11-30 15:16:34.222247
1591  2023-11-30 15:16:34.269879
1592  2023-11-30 15:16:34.301256
1593  2023-11-30 15:16:34.347376
1594  2023-11-30 15:16:34.395349
1595  2023-11-30 15:16:34.424588
1596  2023-11-30 15:16:34.471292
1597  2023-11-30 15:16:34.520113
1598  2023-11-30 15:16:34.550580
1599  2023-11-30 15:16:34.597375
1600  2023-11-30 15:16:34.644152
1601  2023-11-30 15:16:34.675070
1602  2023-11-30 15:16:34.721471
1603  2023-11-30 15:16:34.768363
1604  2023-11-30 15:16:34.799855
1605  2023-11-30 15:16:34.847063
1606  2023-11-30 15:16:34.893738
1607  2023-11-30 15:16:34.924436
1608  2023-11-30 15:16:34.971768
1609  2023-11-30 15:16:35.018681
1610  2023-11-30 15:16:35.050078
1611  2023-11-30 15:16:35.097227
1612  2023-11-30 15:16:35.143108
1613  2023-11-30 15:16:35.175217
1614  2023-11-30 15:16:35.222576
1615  2023-11-30 15:16:35.269188
1616  2023-11-30 15:16:35.301032
1617  2023-11-30 15:16:35.347412
1618  2023-11-30 15:16:35.395073
1619  2023-11-30 15:16:35.424852
1620  2023-11-30 15:16:35.472349
1621  2023-11-30 15:16:35.517969
1622  2023-11-30 15:16:35.549439
1623  2023-11-30 15:16:35.596252
1624  2023-11-30 15:16:35.643784
1625  2023-11-30 15:16:35.674586
1626  2023-11-30 15:16:35.722109
1627  2023-11-30 15:16:35.767857
1628  2023-11-30 15:16:35.799624
1629  2023-11-30 15:16:35.846293
1630  2023-11-30 15:16:35.894480
1631  2023-11-30 15:16:35.925195
1632  2023-11-30 15:16:35.972858
1633  2023-11-30 15:16:36.019074
1634  2023-11-30 15:16:36.049775
1635  2023-11-30 15:16:36.096653
1636  2023-11-30 15:16:36.143174
1637  2023-11-30 15:16:36.174642
1638  2023-11-30 15:16:36.220730
1639  2023-11-30 15:16:36.267550
1640  2023-11-30 15:16:36.298280
1641  2023-11-30 15:16:36.346324
1642  2023-11-30 15:16:36.394414
1643  2023-11-30 15:16:36.424650
1644  2023-11-30 15:16:36.471965
1645  2023-11-30 15:16:36.519458
1646  2023-11-30 15:16:36.551416
1647  2023-11-30 15:16:36.597036
1648  2023-11-30 15:16:36.644642
1649  2023-11-30 15:16:36.676862
1650  2023-11-30 15:16:36.721455
1651  2023-11-30 15:16:36.767743
1652  2023-11-30 15:16:36.798339
1653  2023-11-30 15:16:36.845472
1654  2023-11-30 15:16:36.891285
1655  2023-11-30 15:16:36.937218
1656  2023-11-30 15:16:36.968347
1657  2023-11-30 15:16:37.016300
1658  2023-11-30 15:16:37.048395
1659  2023-11-30 15:16:37.094064
1660  2023-11-30 15:16:37.141700
1661  2023-11-30 15:16:37.189103
1662  2023-11-30 15:16:37.217856
1663  2023-11-30 15:16:37.263783
1664  2023-11-30 15:16:37.310113
1665  2023-11-30 15:16:37.340256
1666  2023-11-30 15:16:37.388098
1667  2023-11-30 15:16:37.434051
1668  2023-11-30 15:16:37.464989
1669  2023-11-30 15:16:37.511994
1670  2023-11-30 15:16:37.559236
1671  2023-11-30 15:16:37.591024
1672  2023-11-30 15:16:37.637997
1673  2023-11-30 15:16:37.687009
1674  2023-11-30 15:16:37.716844
1675  2023-11-30 15:16:37.764808
1676  2023-11-30 15:16:37.811428
1677  2023-11-30 15:16:37.841299
1678  2023-11-30 15:16:37.887583
1679  2023-11-30 15:16:37.934494
1680  2023-11-30 15:16:37.964793
1681  2023-11-30 15:16:38.011082
1682  2023-11-30 15:16:38.057773
1683  2023-11-30 15:16:38.089781
1684  2023-11-30 15:16:38.137370
1685  2023-11-30 15:16:38.183430
1686  2023-11-30 15:16:38.214805
1687  2023-11-30 15:16:38.262791
1688  2023-11-30 15:16:38.307660
1689  2023-11-30 15:16:38.355049
1690  2023-11-30 15:16:38.384588
1691  2023-11-30 15:16:38.431275
1692  2023-11-30 15:16:38.477554
1693  2023-11-30 15:16:38.509065
1694  2023-11-30 15:16:38.555190
1695  2023-11-30 15:16:38.601805
1696  2023-11-30 15:16:38.632954
1697  2023-11-30 15:16:38.679801
1698  2023-11-30 15:16:38.727422
1699  2023-11-30 15:16:38.757032
1700  2023-11-30 15:16:38.805009
1701  2023-11-30 15:16:38.851889
1702  2023-11-30 15:16:38.882838
1703  2023-11-30 15:16:38.927883
1704  2023-11-30 15:16:38.973998
1705  2023-11-30 15:16:39.020142
1706  2023-11-30 15:16:39.050729
1707  2023-11-30 15:16:39.097425
1708  2023-11-30 15:16:39.143859
1709  2023-11-30 15:16:39.174992
1710  2023-11-30 15:16:39.221834
1711  2023-11-30 15:16:39.268714
1712  2023-11-30 15:16:39.299979
1713  2023-11-30 15:16:39.347739
1714  2023-11-30 15:16:39.394107
1715  2023-11-30 15:16:39.426295
1716  2023-11-30 15:16:39.473234
1717  2023-11-30 15:16:39.520276
1718  2023-11-30 15:16:39.551470
1719  2023-11-30 15:16:39.598111
1720  2023-11-30 15:16:39.644781
1721  2023-11-30 15:16:39.675996
1722  2023-11-30 15:16:39.722955
1723  2023-11-30 15:16:39.770402
1724  2023-11-30 15:16:39.801246
1725  2023-11-30 15:16:39.847440
1726  2023-11-30 15:16:39.893894
1727  2023-11-30 15:16:39.925867
1728  2023-11-30 15:16:39.972942
1729  2023-11-30 15:16:40.019189
1730  2023-11-30 15:16:40.053026
1731  2023-11-30 15:16:40.098163
1732  2023-11-30 15:16:40.145966
1733  2023-11-30 15:16:40.174804
1734  2023-11-30 15:16:40.221112
1735  2023-11-30 15:16:40.268187
1736  2023-11-30 15:16:40.299356
1737  2023-11-30 15:16:40.345409
1738  2023-11-30 15:16:40.392409
1739  2023-11-30 15:16:40.423710
1740  2023-11-30 15:16:40.470157
1741  2023-11-30 15:16:40.516736
1742  2023-11-30 15:16:40.548187
1743  2023-11-30 15:16:40.594609
1744  2023-11-30 15:16:40.641400
1745  2023-11-30 15:16:40.672902
1746  2023-11-30 15:16:40.721124
1747  2023-11-30 15:16:40.766453
1748  2023-11-30 15:16:40.812878
1749  2023-11-30 15:16:40.843489
1750  2023-11-30 15:16:40.891027
1751  2023-11-30 15:16:40.937486
1752  2023-11-30 15:16:40.968313
1753  2023-11-30 15:16:41.015239
1754  2023-11-30 15:16:41.061303
1755  2023-11-30 15:16:41.091723
1756  2023-11-30 15:16:41.138393
1757  2023-11-30 15:16:41.185892
1758  2023-11-30 15:16:41.217211
1759  2023-11-30 15:16:41.261076
1760  2023-11-30 15:16:41.307482
1761  2023-11-30 15:16:41.354210
1762  2023-11-30 15:16:41.386188
1763  2023-11-30 15:16:41.433088
1764  2023-11-30 15:16:41.479319
1765  2023-11-30 15:16:41.511362
1766  2023-11-30 15:16:41.557504
1767  2023-11-30 15:16:41.589116
1768  2023-11-30 15:16:41.635728
1769  2023-11-30 15:16:41.682971
1770  2023-11-30 15:16:41.728838
1771  2023-11-30 15:16:41.760494
1772  2023-11-30 15:16:41.806158
1773  2023-11-30 15:16:41.853086
1774  2023-11-30 15:16:41.883560
1775  2023-11-30 15:16:41.930646
1776  2023-11-30 15:16:41.976918
1777  2023-11-30 15:16:42.008717
1778  2023-11-30 15:16:42.054487
1779  2023-11-30 15:16:42.101260
1780  2023-11-30 15:16:42.133336
1781  2023-11-30 15:16:42.180339
1782  2023-11-30 15:16:42.227162
1783  2023-11-30 15:16:42.258350
1784  2023-11-30 15:16:42.305544
1785  2023-11-30 15:16:42.352759
1786  2023-11-30 15:16:42.384928
1787  2023-11-30 15:16:42.430607
1788  2023-11-30 15:16:42.477496
1789  2023-11-30 15:16:42.507949
1790  2023-11-30 15:16:42.554969
1791  2023-11-30 15:16:42.600514
1792  2023-11-30 15:16:42.631577
1793  2023-11-30 15:16:42.678818
1794  2023-11-30 15:16:42.726332
1795  2023-11-30 15:16:42.756221
1796  2023-11-30 15:16:42.802762
1797  2023-11-30 15:16:42.850027
1798  2023-11-30 15:16:42.895796
1799  2023-11-30 15:16:42.927649
1800  2023-11-30 15:16:42.973152
1801  2023-11-30 15:16:43.020983
1802  2023-11-30 15:16:43.052018
1803  2023-11-30 15:16:43.099010
1804  2023-11-30 15:16:43.145269
1805  2023-11-30 15:16:43.176365
1806  2023-11-30 15:16:43.223105
1807  2023-11-30 15:16:43.270212
1808  2023-11-30 15:16:43.301789
1809  2023-11-30 15:16:43.348327
1810  2023-11-30 15:16:43.394641
1811  2023-11-30 15:16:43.425342
1812  2023-11-30 15:16:43.472331
1813  2023-11-30 15:16:43.521094
1814  2023-11-30 15:16:43.551977
1815  2023-11-30 15:16:43.598999
1816  2023-11-30 15:16:43.646334
1817  2023-11-30 15:16:43.676882
1818  2023-11-30 15:16:43.723157
1819  2023-11-30 15:16:43.769577
1820  2023-11-30 15:16:43.800418
1821  2023-11-30 15:16:43.847358
1822  2023-11-30 15:16:43.893131
1823  2023-11-30 15:16:43.924159
1824  2023-11-30 15:16:43.970470
1825  2023-11-30 15:16:44.016088
1826  2023-11-30 15:16:44.062889
1827  2023-11-30 15:16:44.094087
1828  2023-11-30 15:16:44.140155
1829  2023-11-30 15:16:44.186871
1830  2023-11-30 15:16:44.218070
1831  2023-11-30 15:16:44.263822
1832  2023-11-30 15:16:44.310357
1833  2023-11-30 15:16:44.342266
1834  2023-11-30 15:16:44.389495
1835  2023-11-30 15:16:44.436185
1836  2023-11-30 15:16:44.467762
1837  2023-11-30 15:16:44.514530
1838  2023-11-30 15:16:44.560639
1839  2023-11-30 15:16:44.591043
1840  2023-11-30 15:16:44.638956
1841  2023-11-30 15:16:44.685049
1842  2023-11-30 15:16:44.717962
1843  2023-11-30 15:16:44.762439
1844  2023-11-30 15:16:44.809245
1845  2023-11-30 15:16:44.840558
1846  2023-11-30 15:16:44.887978
1847  2023-11-30 15:16:44.934313
1848  2023-11-30 15:16:44.965708
1849  2023-11-30 15:16:45.011838
1850  2023-11-30 15:16:45.058087
1851  2023-11-30 15:16:45.089294
1852  2023-11-30 15:16:45.137039
1853  2023-11-30 15:16:45.184245
1854  2023-11-30 15:16:45.215990
1855  2023-11-30 15:16:45.262755
1856  2023-11-30 15:16:45.309722
1857  2023-11-30 15:16:45.342342
1858  2023-11-30 15:16:45.386139
1859  2023-11-30 15:16:45.432833
1860  2023-11-30 15:16:45.465015
1861  2023-11-30 15:16:45.510619
1862  2023-11-30 15:16:45.557504
1863  2023-11-30 15:16:45.603395
1864  2023-11-30 15:16:45.634595
1865  2023-11-30 15:16:45.681353
1866  2023-11-30 15:16:45.727296
1867  2023-11-30 15:16:45.759289
1868  2023-11-30 15:16:45.806372
1869  2023-11-30 15:16:45.854675
1870  2023-11-30 15:16:45.885431
1871  2023-11-30 15:16:45.932607
1872  2023-11-30 15:16:45.979335
1873  2023-11-30 15:16:46.010369
1874  2023-11-30 15:16:46.057322
1875  2023-11-30 15:16:46.103364
1876  2023-11-30 15:16:46.135377
1877  2023-11-30 15:16:46.181587
1878  2023-11-30 15:16:46.227269
1879  2023-11-30 15:16:46.258558
1880  2023-11-30 15:16:46.304867
1881  2023-11-30 15:16:46.350999
1882  2023-11-30 15:16:46.383008
1883  2023-11-30 15:16:46.429806
1884  2023-11-30 15:16:46.476794
1885  2023-11-30 15:16:46.508756
1886  2023-11-30 15:16:46.555148
1887  2023-11-30 15:16:46.600794
1888  2023-11-30 15:16:46.632612
1889  2023-11-30 15:16:46.679543
1890  2023-11-30 15:16:46.727045
1891  2023-11-30 15:16:46.756773
1892  2023-11-30 15:16:46.803312
1893  2023-11-30 15:16:46.850563
1894  2023-11-30 15:16:46.881766
1895  2023-11-30 15:16:46.928401
1896  2023-11-30 15:16:46.974933
1897  2023-11-30 15:16:47.020209
1898  2023-11-30 15:16:47.053057
1899  2023-11-30 15:16:47.100105
1900  2023-11-30 15:16:47.131030
1901  2023-11-30 15:16:47.179149
1902  2023-11-30 15:16:47.223700
1903  2023-11-30 15:16:47.270670
1904  2023-11-30 15:16:47.301134
1905  2023-11-30 15:16:47.348193
1906  2023-11-30 15:16:47.395298
1907  2023-11-30 15:16:47.426341
1908  2023-11-30 15:16:47.472216
1909  2023-11-30 15:16:47.519566
1910  2023-11-30 15:16:47.550792
1911  2023-11-30 15:16:47.596767
1912  2023-11-30 15:16:47.644810
1913  2023-11-30 15:16:47.675702
1914  2023-11-30 15:16:47.723000
1915  2023-11-30 15:16:47.771281
1916  2023-11-30 15:16:47.799727
1917  2023-11-30 15:16:47.846319
1918  2023-11-30 15:16:47.894194
1919  2023-11-30 15:16:47.924698
1920  2023-11-30 15:16:47.971349
1921  2023-11-30 15:16:48.017641
1922  2023-11-30 15:16:48.049611
1923  2023-11-30 15:16:48.097472
1924  2023-11-30 15:16:48.143346
1925  2023-11-30 15:16:48.175222
1926  2023-11-30 15:16:48.223134
1927  2023-11-30 15:16:48.269991
1928  2023-11-30 15:16:48.300511
1929  2023-11-30 15:16:48.347280
1930  2023-11-30 15:16:48.394493
1931  2023-11-30 15:16:48.427243
1932  2023-11-30 15:16:48.473688
1933  2023-11-30 15:16:48.520723
1934  2023-11-30 15:16:48.551149
1935  2023-11-30 15:16:48.598343
1936  2023-11-30 15:16:48.644124
1937  2023-11-30 15:16:48.675264
1938  2023-11-30 15:16:48.722341
1939  2023-11-30 15:16:48.768925
1940  2023-11-30 15:16:48.800281
1941  2023-11-30 15:16:48.847016
1942  2023-11-30 15:16:48.893034
1943  2023-11-30 15:16:48.924661
1944  2023-11-30 15:16:48.971550
1945  2023-11-30 15:16:49.019422
1946  2023-11-30 15:16:49.051337
1947  2023-11-30 15:16:49.099158
1948  2023-11-30 15:16:49.146174
1949  2023-11-30 15:16:49.178017
1950  2023-11-30 15:16:49.223775
1951  2023-11-30 15:16:49.270084
1952  2023-11-30 15:16:49.301712
1953  2023-11-30 15:16:49.349017
1954  2023-11-30 15:16:49.394693
1955  2023-11-30 15:16:49.425105
1956  2023-11-30 15:16:49.470915
1957  2023-11-30 15:16:49.517945
1958  2023-11-30 15:16:49.548678
1959  2023-11-30 15:16:49.595656
1960  2023-11-30 15:16:49.642700
1961  2023-11-30 15:16:49.674327
1962  2023-11-30 15:16:49.723708
1963  2023-11-30 15:16:49.770550
1964  2023-11-30 15:16:49.800172
1965  2023-11-30 15:16:49.847126
1966  2023-11-30 15:16:49.895081
1967  2023-11-30 15:16:49.925144
1968  2023-11-30 15:16:49.970719
1969  2023-11-30 15:16:50.016161
1970  2023-11-30 15:16:50.047477
1971  2023-11-30 15:16:50.094441
1972  2023-11-30 15:16:50.140702
1973  2023-11-30 15:16:50.187798
1974  2023-11-30 15:16:50.218890
1975  2023-11-30 15:16:50.265895
1976  2023-11-30 15:16:50.314017
1977  2023-11-30 15:16:50.345130
1978  2023-11-30 15:16:50.390406
1979  2023-11-30 15:16:50.437332
1980  2023-11-30 15:16:50.469790
1981  2023-11-30 15:16:50.516199
1982  2023-11-30 15:16:50.563068
1983  2023-11-30 15:16:50.593087
1984  2023-11-30 15:16:50.641161
1985  2023-11-30 15:16:50.687260
1986  2023-11-30 15:16:50.717714
1987  2023-11-30 15:16:50.764238
1988  2023-11-30 15:16:50.810658
1989  2023-11-30 15:16:50.842604
1990  2023-11-30 15:16:50.890283
1991  2023-11-30 15:16:50.936791
1992  2023-11-30 15:16:50.967509
1993  2023-11-30 15:16:51.014208
1994  2023-11-30 15:16:51.061040
1995  2023-11-30 15:16:51.091146
1996  2023-11-30 15:16:51.137915
1997  2023-11-30 15:16:51.185601
1998  2023-11-30 15:16:51.216970
1999  2023-11-30 15:16:51.263527
2000  2023-11-30 15:16:51.309180
2001  2023-11-30 15:16:51.340528
2002  2023-11-30 15:16:51.387080
2003  2023-11-30 15:16:51.434099
2004  2023-11-30 15:16:51.464856
2005  2023-11-30 15:16:51.513183
2006  2023-11-30 15:16:51.557244
2007  2023-11-30 15:16:51.604148
2008  2023-11-30 15:16:51.635863
2009  2023-11-30 15:16:51.682519
2010  2023-11-30 15:16:51.728625
2011  2023-11-30 15:16:51.760531
2012  2023-11-30 15:16:51.806831
2013  2023-11-30 15:16:51.853707
2014  2023-11-30 15:16:51.884986
2015  2023-11-30 15:16:51.932030
2016  2023-11-30 15:16:51.978111
2017  2023-11-30 15:16:52.009004
2018  2023-11-30 15:16:52.056800
2019  2023-11-30 15:16:52.104580
2020  2023-11-30 15:16:52.134965
2021  2023-11-30 15:16:52.179289
2022  2023-11-30 15:16:52.226081
2023  2023-11-30 15:16:52.257230
2024  2023-11-30 15:16:52.304056
2025  2023-11-30 15:16:52.350502
2026  2023-11-30 15:16:52.381711
2027  2023-11-30 15:16:52.429108
2028  2023-11-30 15:16:52.475403
2029  2023-11-30 15:16:52.506877
2030  2023-11-30 15:16:52.552936
2031  2023-11-30 15:16:52.600274
2032  2023-11-30 15:16:52.631478
2033  2023-11-30 15:16:52.680483
2034  2023-11-30 15:16:52.727952
2035  2023-11-30 15:16:52.759480
2036  2023-11-30 15:16:52.805757
2037  2023-11-30 15:16:52.854285
2038  2023-11-30 15:16:52.884525
2039  2023-11-30 15:16:52.930703
2040  2023-11-30 15:16:52.978198
2041  2023-11-30 15:16:53.008838
2042  2023-11-30 15:16:53.054847
2043  2023-11-30 15:16:53.101914
2044  2023-11-30 15:16:53.132584
2045  2023-11-30 15:16:53.179588
2046  2023-11-30 15:16:53.226304
2047  2023-11-30 15:16:53.257319
2048  2023-11-30 15:16:53.305976
2049  2023-11-30 15:16:53.351881
2050  2023-11-30 15:16:53.383371
2051  2023-11-30 15:16:53.429154
2052  2023-11-30 15:16:53.476125
2053  2023-11-30 15:16:53.505840
2054  2023-11-30 15:16:53.552848
2055  2023-11-30 15:16:53.600615
2056  2023-11-30 15:16:53.631565
2057  2023-11-30 15:16:53.677986
2058  2023-11-30 15:16:53.724600
2059  2023-11-30 15:16:53.755945
2060  2023-11-30 15:16:53.802325
2061  2023-11-30 15:16:53.849201
2062  2023-11-30 15:16:53.895416
2063  2023-11-30 15:16:53.926498
2064  2023-11-30 15:16:53.973918
2065  2023-11-30 15:16:54.020109
2066  2023-11-30 15:16:54.050354
2067  2023-11-30 15:16:54.097052
2068  2023-11-30 15:16:54.144027
2069  2023-11-30 15:16:54.175755
2070  2023-11-30 15:16:54.220941
2071  2023-11-30 15:16:54.268063
2072  2023-11-30 15:16:54.299284
2073  2023-11-30 15:16:54.345846
2074  2023-11-30 15:16:54.393305
2075  2023-11-30 15:16:54.424293
2076  2023-11-30 15:16:54.471826
2077  2023-11-30 15:16:54.518312
2078  2023-11-30 15:16:54.551199
2079  2023-11-30 15:16:54.598107
2080  2023-11-30 15:16:54.645989
2081  2023-11-30 15:16:54.677908
2082  2023-11-30 15:16:54.725726
2083  2023-11-30 15:16:54.757049
2084  2023-11-30 15:16:54.803155
2085  2023-11-30 15:16:54.849737
2086  2023-11-30 15:16:54.880891
2087  2023-11-30 15:16:54.926722
2088  2023-11-30 15:16:54.973048
2089  2023-11-30 15:16:55.019615
2090  2023-11-30 15:16:55.050608
2091  2023-11-30 15:16:55.098113
2092  2023-11-30 15:16:55.144377
2093  2023-11-30 15:16:55.175112
2094  2023-11-30 15:16:55.222090
2095  2023-11-30 15:16:55.268050
2096  2023-11-30 15:16:55.298360
2097  2023-11-30 15:16:55.344982
2098  2023-11-30 15:16:55.390573
2099  2023-11-30 15:16:55.436557
2100  2023-11-30 15:16:55.468289
2101  2023-11-30 15:16:55.514244
2102  2023-11-30 15:16:55.561594
2103  2023-11-30 15:16:55.592319
2104  2023-11-30 15:16:55.639127
2105  2023-11-30 15:16:55.685924
2106  2023-11-30 15:16:55.717311
2107  2023-11-30 15:16:55.764481
2108  2023-11-30 15:16:55.812688
2109  2023-11-30 15:16:55.841998
2110  2023-11-30 15:16:55.887918
2111  2023-11-30 15:16:55.934679
2112  2023-11-30 15:16:55.965686
2113  2023-11-30 15:16:56.012497
2114  2023-11-30 15:16:56.060461
2115  2023-11-30 15:16:56.091347
2116  2023-11-30 15:16:56.139251
2117  2023-11-30 15:16:56.185563
2118  2023-11-30 15:16:56.216506
2119  2023-11-30 15:16:56.264080
2120  2023-11-30 15:16:56.310401
2121  2023-11-30 15:16:56.340946
2122  2023-11-30 15:16:56.388315
2123  2023-11-30 15:16:56.436074
2124  2023-11-30 15:16:56.467961
2125  2023-11-30 15:16:56.516929
2126  2023-11-30 15:16:56.547956
2127  2023-11-30 15:16:56.596151
2128  2023-11-30 15:16:56.641233
2129  2023-11-30 15:16:56.672541
2130  2023-11-30 15:16:56.718612
2131  2023-11-30 15:16:56.766087
2132  2023-11-30 15:16:56.812230
2133  2023-11-30 15:16:56.844145
2134  2023-11-30 15:16:56.888904
2135  2023-11-30 15:16:56.936305
2136  2023-11-30 15:16:56.966075
2137  2023-11-30 15:16:57.012514
2138  2023-11-30 15:16:57.059812
2139  2023-11-30 15:16:57.092371
2140  2023-11-30 15:16:57.136654
2141  2023-11-30 15:16:57.183373
2142  2023-11-30 15:16:57.215205
2143  2023-11-30 15:16:57.262238
2144  2023-11-30 15:16:57.308729
2145  2023-11-30 15:16:57.339276
2146  2023-11-30 15:16:57.385611
2147  2023-11-30 15:16:57.431636
2148  2023-11-30 15:16:57.478068
2149  2023-11-30 15:16:57.510168
2150  2023-11-30 15:16:57.557249
2151  2023-11-30 15:16:57.605388
2152  2023-11-30 15:16:57.635260
2153  2023-11-30 15:16:57.683891
2154  2023-11-30 15:16:57.728724
2155  2023-11-30 15:16:57.760248
2156  2023-11-30 15:16:57.807405
2157  2023-11-30 15:16:57.839315
2158  2023-11-30 15:16:57.887234
2159  2023-11-30 15:16:57.933316
2160  2023-11-30 15:16:57.964975
2161  2023-11-30 15:16:58.011511
2162  2023-11-30 15:16:58.057676
2163  2023-11-30 15:16:58.104054
2164  2023-11-30 15:16:58.135421
2165  2023-11-30 15:16:58.182185
2166  2023-11-30 15:16:58.214285
2167  2023-11-30 15:16:58.261850
2168  2023-11-30 15:16:58.308846
2169  2023-11-30 15:16:58.340732
2170  2023-11-30 15:16:58.388496
2171  2023-11-30 15:16:58.435722
2172  2023-11-30 15:16:58.466685
2173  2023-11-30 15:16:58.512280
2174  2023-11-30 15:16:58.558106
2175  2023-11-30 15:16:58.589281
2176  2023-11-30 15:16:58.635554
2177  2023-11-30 15:16:58.682335
2178  2023-11-30 15:16:58.728111
2179  2023-11-30 15:16:58.758994
2180  2023-11-30 15:16:58.806778
2181  2023-11-30 15:16:58.853387
2182  2023-11-30 15:16:58.884382
2183  2023-11-30 15:16:58.932030
2184  2023-11-30 15:16:58.979292
2185  2023-11-30 15:16:59.010089
2186  2023-11-30 15:16:59.055697
2187  2023-11-30 15:16:59.102565
2188  2023-11-30 15:16:59.133456
2189  2023-11-30 15:16:59.180452
2190  2023-11-30 15:16:59.226572
2191  2023-11-30 15:16:59.258193
2192  2023-11-30 15:16:59.304572
2193  2023-11-30 15:16:59.352398
2194  2023-11-30 15:16:59.383478
2195  2023-11-30 15:16:59.430434
2196  2023-11-30 15:16:59.477385
2197  2023-11-30 15:16:59.508501
2198  2023-11-30 15:16:59.556654
2199  2023-11-30 15:16:59.602770
2200  2023-11-30 15:16:59.634751
2201  2023-11-30 15:16:59.681571
2202  2023-11-30 15:16:59.726812
2203  2023-11-30 15:16:59.758150
2204  2023-11-30 15:16:59.805109
2205  2023-11-30 15:16:59.851800
2206  2023-11-30 15:16:59.883889
2207  2023-11-30 15:16:59.929348
2208  2023-11-30 15:16:59.975698
2209  2023-11-30 15:17:00.006419
2210  2023-11-30 15:17:00.054341
2211  2023-11-30 15:17:00.100192
2212  2023-11-30 15:17:00.131194
2213  2023-11-30 15:17:00.178191
2214  2023-11-30 15:17:00.226239
2215  2023-11-30 15:17:00.257074
2216  2023-11-30 15:17:00.304763
2217  2023-11-30 15:17:00.349797
2218  2023-11-30 15:17:00.395984
2219  2023-11-30 15:17:00.427974
2220  2023-11-30 15:17:00.475327
2221  2023-11-30 15:17:00.506038
2222  2023-11-30 15:17:00.553484
2223  2023-11-30 15:17:00.599161
2224  2023-11-30 15:17:00.646380
2225  2023-11-30 15:17:00.676931
2226  2023-11-30 15:17:00.723794
2227  2023-11-30 15:17:00.769423
2228  2023-11-30 15:17:00.802394
2229  2023-11-30 15:17:00.850317
2230  2023-11-30 15:17:00.896778
2231  2023-11-30 15:17:00.927477
2232  2023-11-30 15:17:00.975466
2233  2023-11-30 15:17:01.005823
2234  2023-11-30 15:17:01.053458
2235  2023-11-30 15:17:01.100632
2236  2023-11-30 15:17:01.131544
2237  2023-11-30 15:17:01.177977
2238  2023-11-30 15:17:01.224363
2239  2023-11-30 15:17:01.271045
2240  2023-11-30 15:17:01.302248
2241  2023-11-30 15:17:01.348328
2242  2023-11-30 15:17:01.394731
2243  2023-11-30 15:17:01.424935
2244  2023-11-30 15:17:01.472930
2245  2023-11-30 15:17:01.520877
2246  2023-11-30 15:17:01.551715
2247  2023-11-30 15:17:01.596981
2248  2023-11-30 15:17:01.643717
2249  2023-11-30 15:17:01.675371
2250  2023-11-30 15:17:01.721830
2251  2023-11-30 15:17:01.768525
2252  2023-11-30 15:17:01.799284
2253  2023-11-30 15:17:01.844923
2254  2023-11-30 15:17:01.892147
2255  2023-11-30 15:17:01.922898
2256  2023-11-30 15:17:01.969887
2257  2023-11-30 15:17:02.017019
2258  2023-11-30 15:17:02.047937
2259  2023-11-30 15:17:02.095815
2260  2023-11-30 15:17:02.142616
2261  2023-11-30 15:17:02.174874
2262  2023-11-30 15:17:02.220181
2263  2023-11-30 15:17:02.265765
2264  2023-11-30 15:17:02.312232
2265  2023-11-30 15:17:02.342868
2266  2023-11-30 15:17:02.390392
2267  2023-11-30 15:17:02.437184
2268  2023-11-30 15:17:02.469277
2269  2023-11-30 15:17:02.515288
2270  2023-11-30 15:17:02.562985
2271  2023-11-30 15:17:02.594170
2272  2023-11-30 15:17:02.640171
2273  2023-11-30 15:17:02.687205
2274  2023-11-30 15:17:02.719837
2275  2023-11-30 15:17:02.766190
2276  2023-11-30 15:17:02.811222
2277  2023-11-30 15:17:02.842068
2278  2023-11-30 15:17:02.888592
2279  2023-11-30 15:17:02.935020
2280  2023-11-30 15:17:02.965779
2281  2023-11-30 15:17:03.012428
2282  2023-11-30 15:17:03.060300
2283  2023-11-30 15:17:03.092214
2284  2023-11-30 15:17:03.138882
2285  2023-11-30 15:17:03.185578
2286  2023-11-30 15:17:03.216506
2287  2023-11-30 15:17:03.264419
2288  2023-11-30 15:17:03.310704
2289  2023-11-30 15:17:03.342621
2290  2023-11-30 15:17:03.390244
2291  2023-11-30 15:17:03.436464
2292  2023-11-30 15:17:03.467281
2293  2023-11-30 15:17:03.514190
2294  2023-11-30 15:17:03.560440
2295  2023-11-30 15:17:03.591141
2296  2023-11-30 15:17:03.638665
2297  2023-11-30 15:17:03.685519
2298  2023-11-30 15:17:03.717300
2299  2023-11-30 15:17:03.764146
2300  2023-11-30 15:17:03.810583
2301  2023-11-30 15:17:03.841857
2302  2023-11-30 15:17:03.888279
2303  2023-11-30 15:17:03.935109
2304  2023-11-30 15:17:03.966944
2305  2023-11-30 15:17:04.014899
2306  2023-11-30 15:17:04.062811
2307  2023-11-30 15:17:04.094690
2308  2023-11-30 15:17:04.143556
2309  2023-11-30 15:17:04.174594
2310  2023-11-30 15:17:04.220971
2311  2023-11-30 15:17:04.266724
2312  2023-11-30 15:17:04.297891
2313  2023-11-30 15:17:04.344361
2314  2023-11-30 15:17:04.391002
2315  2023-11-30 15:17:04.437182
2316  2023-11-30 15:17:04.469279
2317  2023-11-30 15:17:04.516313
2318  2023-11-30 15:17:04.562451
2319  2023-11-30 15:17:04.592987
2320  2023-11-30 15:17:04.640766
2321  2023-11-30 15:17:04.672610
2322  2023-11-30 15:17:04.719739
2323  2023-11-30 15:17:04.767181
2324  2023-11-30 15:17:04.799272
2325  2023-11-30 15:17:04.846453
2326  2023-11-30 15:17:04.892528
2327  2023-11-30 15:17:04.922590
2328  2023-11-30 15:17:04.969353
2329  2023-11-30 15:17:05.015528
2330  2023-11-30 15:17:05.061719
2331  2023-11-30 15:17:05.092181
2332  2023-11-30 15:17:05.139072
2333  2023-11-30 15:17:05.186049
2334  2023-11-30 15:17:05.218221
2335  2023-11-30 15:17:05.266117
2336  2023-11-30 15:17:05.313007
2337  2023-11-30 15:17:05.344189
2338  2023-11-30 15:17:05.391645
2339  2023-11-30 15:17:05.423707
2340  2023-11-30 15:17:05.469846
2341  2023-11-30 15:17:05.518031
2342  2023-11-30 15:17:05.549819
2343  2023-11-30 15:17:05.597682
2344  2023-11-30 15:17:05.644642
2345  2023-11-30 15:17:05.676325
2346  2023-11-30 15:17:05.722113
2347  2023-11-30 15:17:05.767783
2348  2023-11-30 15:17:05.799019
2349  2023-11-30 15:17:05.846267
2350  2023-11-30 15:17:05.892884
2351  2023-11-30 15:17:05.924133
2352  2023-11-30 15:17:05.970209
2353  2023-11-30 15:17:06.017188
2354  2023-11-30 15:17:06.049098
2355  2023-11-30 15:17:06.095906
2356  2023-11-30 15:17:06.143836
2357  2023-11-30 15:17:06.175401
2358  2023-11-30 15:17:06.222212
2359  2023-11-30 15:17:06.269544
2360  2023-11-30 15:17:06.300782
2361  2023-11-30 15:17:06.348734
2362  2023-11-30 15:17:06.395211
2363  2023-11-30 15:17:06.427456
2364  2023-11-30 15:17:06.472680
2365  2023-11-30 15:17:06.518628
2366  2023-11-30 15:17:06.549339
2367  2023-11-30 15:17:06.596183
2368  2023-11-30 15:17:06.642407
2369  2023-11-30 15:17:06.672682
2370  2023-11-30 15:17:06.718811
2371  2023-11-30 15:17:06.765722
2372  2023-11-30 15:17:06.797776
2373  2023-11-30 15:17:06.845762
2374  2023-11-30 15:17:06.893130
2375  2023-11-30 15:17:06.924559
2376  2023-11-30 15:17:06.972590
2377  2023-11-30 15:17:07.018951
2378  2023-11-30 15:17:07.051237
2379  2023-11-30 15:17:07.095476
2380  2023-11-30 15:17:07.142387
2381  2023-11-30 15:17:07.173743
2382  2023-11-30 15:17:07.220170
2383  2023-11-30 15:17:07.267696
2384  2023-11-30 15:17:07.299370
2385  2023-11-30 15:17:07.344923
2386  2023-11-30 15:17:07.391384
2387  2023-11-30 15:17:07.423430
2388  2023-11-30 15:17:07.470463
2389  2023-11-30 15:17:07.517396
2390  2023-11-30 15:17:07.563988
2391  2023-11-30 15:17:07.593854
2392  2023-11-30 15:17:07.640706
2393  2023-11-30 15:17:07.672651
2394  2023-11-30 15:17:07.718745
2395  2023-11-30 15:17:07.765118
2396  2023-11-30 15:17:07.810709
2397  2023-11-30 15:17:07.842102
2398  2023-11-30 15:17:07.888602
2399  2023-11-30 15:17:07.936397
2400  2023-11-30 15:17:07.967582
2401  2023-11-30 15:17:08.014748
2402  2023-11-30 15:17:08.061747
2403  2023-11-30 15:17:08.092269
2404  2023-11-30 15:17:08.140270
2405  2023-11-30 15:17:08.185992
2406  2023-11-30 15:17:08.219207
2407  2023-11-30 15:17:08.264326
2408  2023-11-30 15:17:08.311023
2409  2023-11-30 15:17:08.341691
2410  2023-11-30 15:17:08.389300
2411  2023-11-30 15:17:08.434203
2412  2023-11-30 15:17:08.465897
2413  2023-11-30 15:17:08.513458
2414  2023-11-30 15:17:08.560333
2415  2023-11-30 15:17:08.590843
2416  2023-11-30 15:17:08.638138
2417  2023-11-30 15:17:08.684310
2418  2023-11-30 15:17:08.716834
2419  2023-11-30 15:17:08.763880
2420  2023-11-30 15:17:08.810118
2421  2023-11-30 15:17:08.843031
2422  2023-11-30 15:17:08.889153
2423  2023-11-30 15:17:08.937289
2424  2023-11-30 15:17:08.966981
2425  2023-11-30 15:17:09.015162
2426  2023-11-30 15:17:09.062516
2427  2023-11-30 15:17:09.093334
2428  2023-11-30 15:17:09.139679
2429  2023-11-30 15:17:09.185707
2430  2023-11-30 15:17:09.217756
2431  2023-11-30 15:17:09.264377
2432  2023-11-30 15:17:09.311339
2433  2023-11-30 15:17:09.341986
2434  2023-11-30 15:17:09.387286
2435  2023-11-30 15:17:09.434086
2436  2023-11-30 15:17:09.466024
2437  2023-11-30 15:17:09.513490
2438  2023-11-30 15:17:09.560381
2439  2023-11-30 15:17:09.590785
2440  2023-11-30 15:17:09.637204
2441  2023-11-30 15:17:09.684119
2442  2023-11-30 15:17:09.715168
2443  2023-11-30 15:17:09.763187
2444  2023-11-30 15:17:09.809133
2445  2023-11-30 15:17:09.839831
2446  2023-11-30 15:17:09.885857
2447  2023-11-30 15:17:09.932917
2448  2023-11-30 15:17:09.978864
2449  2023-11-30 15:17:10.010054
2450  2023-11-30 15:17:10.057316
2451  2023-11-30 15:17:10.105448
2452  2023-11-30 15:17:10.136071
2453  2023-11-30 15:17:10.184746
2454  2023-11-30 15:17:10.214448
2455  2023-11-30 15:17:10.261185
2456  2023-11-30 15:17:10.307707
2457  2023-11-30 15:17:10.339464
2458  2023-11-30 15:17:10.385783
2459  2023-11-30 15:17:10.432798
2460  2023-11-30 15:17:10.464347
2461  2023-11-30 15:17:10.510649
2462  2023-11-30 15:17:10.558214
2463  2023-11-30 15:17:10.589599
2464  2023-11-30 15:17:10.637385
2465  2023-11-30 15:17:10.683582
2466  2023-11-30 15:17:10.715254
2467  2023-11-30 15:17:10.760747
2468  2023-11-30 15:17:10.808126
2469  2023-11-30 15:17:10.853693
2470  2023-11-30 15:17:10.884111
2471  2023-11-30 15:17:10.931602
2472  2023-11-30 15:17:10.977504
2473  2023-11-30 15:17:11.007847
2474  2023-11-30 15:17:11.054062
2475  2023-11-30 15:17:11.100758
2476  2023-11-30 15:17:11.131719
2477  2023-11-30 15:17:11.179893
2478  2023-11-30 15:17:11.226517
2479  2023-11-30 15:17:11.258683
2480  2023-11-30 15:17:11.305155
2481  2023-11-30 15:17:11.352177
2482  2023-11-30 15:17:11.383989
2483  2023-11-30 15:17:11.430113
2484  2023-11-30 15:17:11.475299
2485  2023-11-30 15:17:11.506177
2486  2023-11-30 15:17:11.552533
2487  2023-11-30 15:17:11.598068
2488  2023-11-30 15:17:11.644743
2489  2023-11-30 15:17:11.676237
2490  2023-11-30 15:17:11.722389
2491  2023-11-30 15:17:11.769151
2492  2023-11-30 15:17:11.799003
2493  2023-11-30 15:17:11.846876
2494  2023-11-30 15:17:11.895163
2495  2023-11-30 15:17:11.927691
2496  2023-11-30 15:17:11.972889
2497  2023-11-30 15:17:12.019178
2498  2023-11-30 15:17:12.050023
2499  2023-11-30 15:17:12.095540
2500  2023-11-30 15:17:12.141608
2501  2023-11-30 15:17:12.172697
2502  2023-11-30 15:17:12.219673
2503  2023-11-30 15:17:12.266357
2504  2023-11-30 15:17:12.313743
2505  2023-11-30 15:17:12.343866
2506  2023-11-30 15:17:12.393107
2507  2023-11-30 15:17:12.439038
2508  2023-11-30 15:17:12.468306
2509  2023-11-30 15:17:12.515130
2510  2023-11-30 15:17:12.561844
2511  2023-11-30 15:17:12.593011
2512  2023-11-30 15:17:12.638971
2513  2023-11-30 15:17:12.685660
2514  2023-11-30 15:17:12.715984
2515  2023-11-30 15:17:12.762729
2516  2023-11-30 15:17:12.810349
2517  2023-11-30 15:17:12.842335
2518  2023-11-30 15:17:12.888138
2519  2023-11-30 15:17:12.936327
2520  2023-11-30 15:17:12.966347
2521  2023-11-30 15:17:13.015187
2522  2023-11-30 15:17:13.064069
2523  2023-11-30 15:17:13.091355
2524  2023-11-30 15:17:13.138336
2525  2023-11-30 15:17:13.184352
2526  2023-11-30 15:17:13.214696
2527  2023-11-30 15:17:13.261934
2528  2023-11-30 15:17:13.308018
2529  2023-11-30 15:17:13.340181
2530  2023-11-30 15:17:13.387000
2531  2023-11-30 15:17:13.432585
2532  2023-11-30 15:17:13.478209
2533  2023-11-30 15:17:13.509857
2534  2023-11-30 15:17:13.555957
2535  2023-11-30 15:17:13.602040
2536  2023-11-30 15:17:13.632954
2537  2023-11-30 15:17:13.679055
2538  2023-11-30 15:17:13.725224
2539  2023-11-30 15:17:13.756259
2540  2023-11-30 15:17:13.802958
2541  2023-11-30 15:17:13.850777
2542  2023-11-30 15:17:13.881652
2543  2023-11-30 15:17:13.929521
2544  2023-11-30 15:17:13.977396
2545  2023-11-30 15:17:14.008086
2546  2023-11-30 15:17:14.054375
2547  2023-11-30 15:17:14.102370
2548  2023-11-30 15:17:14.134771
2549  2023-11-30 15:17:14.178273
2550  2023-11-30 15:17:14.225635
2551  2023-11-30 15:17:14.257021
2552  2023-11-30 15:17:14.303382
2553  2023-11-30 15:17:14.350228
2554  2023-11-30 15:17:14.381561
2555  2023-11-30 15:17:14.427986
2556  2023-11-30 15:17:14.475284
2557  2023-11-30 15:17:14.507173
2558  2023-11-30 15:17:14.554063
2559  2023-11-30 15:17:14.601225
2560  2023-11-30 15:17:14.634233
2561  2023-11-30 15:17:14.679853
2562  2023-11-30 15:17:14.726325
2563  2023-11-30 15:17:14.758265
2564  2023-11-30 15:17:14.805171
2565  2023-11-30 15:17:14.852590
2566  2023-11-30 15:17:14.884477
2567  2023-11-30 15:17:14.931975
2568  2023-11-30 15:17:14.977819
2569  2023-11-30 15:17:15.009123
2570  2023-11-30 15:17:15.056155
2571  2023-11-30 15:17:15.102236
2572  2023-11-30 15:17:15.133644
2573  2023-11-30 15:17:15.179713
2574  2023-11-30 15:17:15.226113
2575  2023-11-30 15:17:15.257394
2576  2023-11-30 15:17:15.304662
2577  2023-11-30 15:17:15.350949
2578  2023-11-30 15:17:15.383292
2579  2023-11-30 15:17:15.429139
2580  2023-11-30 15:17:15.476623
2581  2023-11-30 15:17:15.520742
2582  2023-11-30 15:17:15.551877
2583  2023-11-30 15:17:15.598325
2584  2023-11-30 15:17:15.645558
2585  2023-11-30 15:17:15.676259
2586  2023-11-30 15:17:15.722284
2587  2023-11-30 15:17:15.769470
2588  2023-11-30 15:17:15.800859
2589  2023-11-30 15:17:15.846380
2590  2023-11-30 15:17:15.893963
2591  2023-11-30 15:17:15.925877
2592  2023-11-30 15:17:15.973609
2593  2023-11-30 15:17:16.020052
2594  2023-11-30 15:17:16.051292
2595  2023-11-30 15:17:16.095720
2596  2023-11-30 15:17:16.143265
2597  2023-11-30 15:17:16.175503
2598  2023-11-30 15:17:16.222805
2599  2023-11-30 15:17:16.269029
2600  2023-11-30 15:17:16.299822
2601  2023-11-30 15:17:16.345671
2602  2023-11-30 15:17:16.392586
2603  2023-11-30 15:17:16.423709
2604  2023-11-30 15:17:16.470685
2605  2023-11-30 15:17:16.517672
2606  2023-11-30 15:17:16.549545
2607  2023-11-30 15:17:16.596708
2608  2023-11-30 15:17:16.643665
2609  2023-11-30 15:17:16.675081
2610  2023-11-30 15:17:16.723177
2611  2023-11-30 15:17:16.768543
2612  2023-11-30 15:17:16.799242
2613  2023-11-30 15:17:16.846026
2614  2023-11-30 15:17:16.893709
2615  2023-11-30 15:17:16.925413
2616  2023-11-30 15:17:16.972243
2617  2023-11-30 15:17:17.018765
2618  2023-11-30 15:17:17.049309
2619  2023-11-30 15:17:17.096099
2620  2023-11-30 15:17:17.142350
2621  2023-11-30 15:17:17.173881
2622  2023-11-30 15:17:17.221255
2623  2023-11-30 15:17:17.268128
2624  2023-11-30 15:17:17.298859
2625  2023-11-30 15:17:17.346379
2626  2023-11-30 15:17:17.391925
2627  2023-11-30 15:17:17.422942
2628  2023-11-30 15:17:17.470489
2629  2023-11-30 15:17:17.517748
2630  2023-11-30 15:17:17.548723
2631  2023-11-30 15:17:17.594948
2632  2023-11-30 15:17:17.642336
2633  2023-11-30 15:17:17.674038
2634  2023-11-30 15:17:17.721350
2635  2023-11-30 15:17:17.768485
2636  2023-11-30 15:17:17.800497
2637  2023-11-30 15:17:17.846475
2638  2023-11-30 15:17:17.893295
2639  2023-11-30 15:17:17.923497
2640  2023-11-30 15:17:17.971766
2641  2023-11-30 15:17:18.019307
2642  2023-11-30 15:17:18.051074
2643  2023-11-30 15:17:18.096119
2644  2023-11-30 15:17:18.142620
2645  2023-11-30 15:17:18.172818
2646  2023-11-30 15:17:18.218633
2647  2023-11-30 15:17:18.266013
2648  2023-11-30 15:17:18.312615
2649  2023-11-30 15:17:18.344412
2650  2023-11-30 15:17:18.391059
2651  2023-11-30 15:17:18.422755
2652  2023-11-30 15:17:18.470226
2653  2023-11-30 15:17:18.515795
2654  2023-11-30 15:17:18.562017
2655  2023-11-30 15:17:18.594666
2656  2023-11-30 15:17:18.639522
2657  2023-11-30 15:17:18.686115
2658  2023-11-30 15:17:18.716553
2659  2023-11-30 15:17:18.763117
2660  2023-11-30 15:17:18.809466
2661  2023-11-30 15:17:18.841106
2662  2023-11-30 15:17:18.887860
2663  2023-11-30 15:17:18.934314
2664  2023-11-30 15:17:18.966228
2665  2023-11-30 15:17:19.014102
2666  2023-11-30 15:17:19.061147
2667  2023-11-30 15:17:19.092237
2668  2023-11-30 15:17:19.139479
2669  2023-11-30 15:17:19.188163
2670  2023-11-30 15:17:19.218376
2671  2023-11-30 15:17:19.266175
2672  2023-11-30 15:17:19.313072
2673  2023-11-30 15:17:19.342888
2674  2023-11-30 15:17:19.389366
2675  2023-11-30 15:17:19.435176
2676  2023-11-30 15:17:19.466597
2677  2023-11-30 15:17:19.512702
2678  2023-11-30 15:17:19.559772
2679  2023-11-30 15:17:19.591166
2680  2023-11-30 15:17:19.637838
2681  2023-11-30 15:17:19.685055
2682  2023-11-30 15:17:19.715940
2683  2023-11-30 15:17:19.763152
2684  2023-11-30 15:17:19.808984
2685  2023-11-30 15:17:19.840603
2686  2023-11-30 15:17:19.886258
2687  2023-11-30 15:17:19.933134
2688  2023-11-30 15:17:19.964357
2689  2023-11-30 15:17:20.011306
2690  2023-11-30 15:17:20.056534
2691  2023-11-30 15:17:20.102164
2692  2023-11-30 15:17:20.134042
2693  2023-11-30 15:17:20.179795
2694  2023-11-30 15:17:20.228102
2695  2023-11-30 15:17:20.258783
2696  2023-11-30 15:17:20.305945
2697  2023-11-30 15:17:20.353542
2698  2023-11-30 15:17:20.384559
2699  2023-11-30 15:17:20.433569
2700  2023-11-30 15:17:20.480018
2701  2023-11-30 15:17:20.510080
2702  2023-11-30 15:17:20.556610
2703  2023-11-30 15:17:20.602862
2704  2023-11-30 15:17:20.634224
2705  2023-11-30 15:17:20.679326
2706  2023-11-30 15:17:20.726477
2707  2023-11-30 15:17:20.757125
2708  2023-11-30 15:17:20.804235
2709  2023-11-30 15:17:20.852290
2710  2023-11-30 15:17:20.882082
2711  2023-11-30 15:17:20.929726
2712  2023-11-30 15:17:20.975933
2713  2023-11-30 15:17:21.006797
2714  2023-11-30 15:17:21.055609
2715  2023-11-30 15:17:21.100060
2716  2023-11-30 15:17:21.131001
2717  2023-11-30 15:17:21.178331
2718  2023-11-30 15:17:21.225634
2719  2023-11-30 15:17:21.257410
2720  2023-11-30 15:17:21.304166
2721  2023-11-30 15:17:21.351538
2722  2023-11-30 15:17:21.383461
2723  2023-11-30 15:17:21.430909
2724  2023-11-30 15:17:21.476536
2725  2023-11-30 15:17:21.508455
2726  2023-11-30 15:17:21.556380
2727  2023-11-30 15:17:21.604212
2728  2023-11-30 15:17:21.634314
2729  2023-11-30 15:17:21.682191
2730  2023-11-30 15:17:21.714154
2731  2023-11-30 15:17:21.762026
2732  2023-11-30 15:17:21.808715
2733  2023-11-30 15:17:21.840125
2734  2023-11-30 15:17:21.887300
2735  2023-11-30 15:17:21.931434
2736  2023-11-30 15:17:21.978132
2737  2023-11-30 15:17:22.009289
2738  2023-11-30 15:17:22.056376
2739  2023-11-30 15:17:22.103612
2740  2023-11-30 15:17:22.135187
2741  2023-11-30 15:17:22.183479
2742  2023-11-30 15:17:22.214781
2743  2023-11-30 15:17:22.261328
2744  2023-11-30 15:17:22.308060
2745  2023-11-30 15:17:22.340611
2746  2023-11-30 15:17:22.386673
2747  2023-11-30 15:17:22.433785
2748  2023-11-30 15:17:22.478706
2749  2023-11-30 15:17:22.510342
2750  2023-11-30 15:17:22.555474
2751  2023-11-30 15:17:22.602450
2752  2023-11-30 15:17:22.634405
2753  2023-11-30 15:17:22.682258
2754  2023-11-30 15:17:22.728737
2755  2023-11-30 15:17:22.760315
2756  2023-11-30 15:17:22.807179
2757  2023-11-30 15:17:22.854189
2758  2023-11-30 15:17:22.886289
2759  2023-11-30 15:17:22.932166
2760  2023-11-30 15:17:22.964166
2761  2023-11-30 15:17:23.011308
2762  2023-11-30 15:17:23.058295
2763  2023-11-30 15:17:23.104622
2764  2023-11-30 15:17:23.136655
2765  2023-11-30 15:17:23.183053
2766  2023-11-30 15:17:23.214801
2767  2023-11-30 15:17:23.263264
2768  2023-11-30 15:17:23.311115
2769  2023-11-30 15:17:23.343517
2770  2023-11-30 15:17:23.389533
2771  2023-11-30 15:17:23.437308
2772  2023-11-30 15:17:23.469193
2773  2023-11-30 15:17:23.518427
2774  2023-11-30 15:17:23.560639
2775  2023-11-30 15:17:23.591328
2776  2023-11-30 15:17:23.639507
2777  2023-11-30 15:17:23.687456
2778  2023-11-30 15:17:23.719451
2779  2023-11-30 15:17:23.766271
2780  2023-11-30 15:17:23.798278
2781  2023-11-30 15:17:23.845295
2782  2023-11-30 15:17:23.891576
2783  2023-11-30 15:17:23.922867
2784  2023-11-30 15:17:23.969045
2785  2023-11-30 15:17:24.016477
2786  2023-11-30 15:17:24.048306
2787  2023-11-30 15:17:24.096184
2788  2023-11-30 15:17:24.143827
2789  2023-11-30 15:17:24.174441
2790  2023-11-30 15:17:24.223193
2791  2023-11-30 15:17:24.268869
2792  2023-11-30 15:17:24.300929
2793  2023-11-30 15:17:24.348704
2794  2023-11-30 15:17:24.393724
2795  2023-11-30 15:17:24.424616
2796  2023-11-30 15:17:24.471297
2797  2023-11-30 15:17:24.519469
2798  2023-11-30 15:17:24.550364
2799  2023-11-30 15:17:24.598303
2800  2023-11-30 15:17:24.645217
2801  2023-11-30 15:17:24.676545
2802  2023-11-30 15:17:24.723252
2803  2023-11-30 15:17:24.770730
2804  2023-11-30 15:17:24.801479
2805  2023-11-30 15:17:24.847617
2806  2023-11-30 15:17:24.895486
2807  2023-11-30 15:17:24.927301
2808  2023-11-30 15:17:24.974466
2809  2023-11-30 15:17:25.021264
2810  2023-11-30 15:17:25.053185
2811  2023-11-30 15:17:25.102506
2812  2023-11-30 15:17:25.133421
2813  2023-11-30 15:17:25.181046
2814  2023-11-30 15:17:25.227467
2815  2023-11-30 15:17:25.257954
2816  2023-11-30 15:17:25.305533
2817  2023-11-30 15:17:25.352191
2818  2023-11-30 15:17:25.383119
2819  2023-11-30 15:17:25.430293
2820  2023-11-30 15:17:25.476467
2821  2023-11-30 15:17:25.507991
2822  2023-11-30 15:17:25.555160
2823  2023-11-30 15:17:25.602271
2824  2023-11-30 15:17:25.633225
2825  2023-11-30 15:17:25.680660
2826  2023-11-30 15:17:25.726879
2827  2023-11-30 15:17:25.757960
2828  2023-11-30 15:17:25.805209
2829  2023-11-30 15:17:25.851769
2830  2023-11-30 15:17:25.884660
2831  2023-11-30 15:17:25.929671
2832  2023-11-30 15:17:25.975398
2833  2023-11-30 15:17:26.007178
2834  2023-11-30 15:17:26.054221
2835  2023-11-30 15:17:26.101133
2836  2023-11-30 15:17:26.132150
2837  2023-11-30 15:17:26.178372
2838  2023-11-30 15:17:26.224780
2839  2023-11-30 15:17:26.270613
2840  2023-11-30 15:17:26.302335
2841  2023-11-30 15:17:26.349573
2842  2023-11-30 15:17:26.396352
2843  2023-11-30 15:17:26.427584
2844  2023-11-30 15:17:26.475678
2845  2023-11-30 15:17:26.520713
2846  2023-11-30 15:17:26.552631
2847  2023-11-30 15:17:26.600535
2848  2023-11-30 15:17:26.632073
2849  2023-11-30 15:17:26.679268
2850  2023-11-30 15:17:26.725186
2851  2023-11-30 15:17:26.757120
2852  2023-11-30 15:17:26.805157
2853  2023-11-30 15:17:26.851185
2854  2023-11-30 15:17:26.882892
2855  2023-11-30 15:17:26.929016
2856  2023-11-30 15:17:26.975849
2857  2023-11-30 15:17:27.006886
2858  2023-11-30 15:17:27.054551
2859  2023-11-30 15:17:27.101705
2860  2023-11-30 15:17:27.132744
2861  2023-11-30 15:17:27.180518
2862  2023-11-30 15:17:27.226560
2863  2023-11-30 15:17:27.259439
2864  2023-11-30 15:17:27.306707
2865  2023-11-30 15:17:27.351870
2866  2023-11-30 15:17:27.383843
2867  2023-11-30 15:17:27.431296
2868  2023-11-30 15:17:27.477609
2869  2023-11-30 15:17:27.509149
2870  2023-11-30 15:17:27.556137
2871  2023-11-30 15:17:27.604104
2872  2023-11-30 15:17:27.634373
2873  2023-11-30 15:17:27.680518
2874  2023-11-30 15:17:27.727361
2875  2023-11-30 15:17:27.758435
2876  2023-11-30 15:17:27.804256
2877  2023-11-30 15:17:27.853571
2878  2023-11-30 15:17:27.884257
2879  2023-11-30 15:17:27.931072
2880  2023-11-30 15:17:27.977966
2881  2023-11-30 15:17:28.011876
2882  2023-11-30 15:17:28.057753
2883  2023-11-30 15:17:28.103682
2884  2023-11-30 15:17:28.135266
2885  2023-11-30 15:17:28.181496
2886  2023-11-30 15:17:28.229158
2887  2023-11-30 15:17:28.259296
2888  2023-11-30 15:17:28.305487
2889  2023-11-30 15:17:28.351729
2890  2023-11-30 15:17:28.382931
2891  2023-11-30 15:17:28.430815
2892  2023-11-30 15:17:28.476687
2893  2023-11-30 15:17:28.507918
2894  2023-11-30 15:17:28.556365
2895  2023-11-30 15:17:28.603374
2896  2023-11-30 15:17:28.631846
2897  2023-11-30 15:17:28.678124
2898  2023-11-30 15:17:28.723970
2899  2023-11-30 15:17:28.770859
2900  2023-11-30 15:17:28.801648
2901  2023-11-30 15:17:28.847551
2902  2023-11-30 15:17:28.894229
2903  2023-11-30 15:17:28.925245
2904  2023-11-30 15:17:28.971164
2905  2023-11-30 15:17:29.019036
2906  2023-11-30 15:17:29.050950
2907  2023-11-30 15:17:29.098822
2908  2023-11-30 15:17:29.130738
2909  2023-11-30 15:17:29.177931
2910  2023-11-30 15:17:29.224329
2911  2023-11-30 15:17:29.271214
2912  2023-11-30 15:17:29.303276
2913  2023-11-30 15:17:29.349183
2914  2023-11-30 15:17:29.394639
2915  2023-11-30 15:17:29.425468
2916  2023-11-30 15:17:29.472245
2917  2023-11-30 15:17:29.518935
2918  2023-11-30 15:17:29.549589
2919  2023-11-30 15:17:29.596344
2920  2023-11-30 15:17:29.643382
2921  2023-11-30 15:17:29.673899
2922  2023-11-30 15:17:29.721535
2923  2023-11-30 15:17:29.770127
2924  2023-11-30 15:17:29.798350
2925  2023-11-30 15:17:29.845601
2926  2023-11-30 15:17:29.891312
2927  2023-11-30 15:17:29.937428
2928  2023-11-30 15:17:29.967936
2929  2023-11-30 15:17:30.014550
2930  2023-11-30 15:17:30.059787
2931  2023-11-30 15:17:30.090687
2932  2023-11-30 15:17:30.137479
2933  2023-11-30 15:17:30.184992
2934  2023-11-30 15:17:30.216699
2935  2023-11-30 15:17:30.265022
2936  2023-11-30 15:17:30.308714
2937  2023-11-30 15:17:30.340007
2938  2023-11-30 15:17:30.387312
2939  2023-11-30 15:17:30.434436
2940  2023-11-30 15:17:30.464648
2941  2023-11-30 15:17:30.511558
2942  2023-11-30 15:17:30.559207
2943  2023-11-30 15:17:30.590321
2944  2023-11-30 15:17:30.637716
2945  2023-11-30 15:17:30.685029
2946  2023-11-30 15:17:30.715976
2947  2023-11-30 15:17:30.763282
2948  2023-11-30 15:17:30.810603
2949  2023-11-30 15:17:30.844008
2950  2023-11-30 15:17:30.888216
2951  2023-11-30 15:17:30.935013
2952  2023-11-30 15:17:30.968039
2953  2023-11-30 15:17:31.015279
2954  2023-11-30 15:17:31.063878
2955  2023-11-30 15:17:31.095153
2956  2023-11-30 15:17:31.141080
2957  2023-11-30 15:17:31.172655
2958  2023-11-30 15:17:31.219364
2959  2023-11-30 15:17:31.264920
2960  2023-11-30 15:17:31.312322
2961  2023-11-30 15:17:31.343959
2962  2023-11-30 15:17:31.390043
2963  2023-11-30 15:17:31.436755
2964  2023-11-30 15:17:31.467927
2965  2023-11-30 15:17:31.515219
2966  2023-11-30 15:17:31.562581
2967  2023-11-30 15:17:31.593201
2968  2023-11-30 15:17:31.639325
2969  2023-11-30 15:17:31.685859
2970  2023-11-30 15:17:31.718950
2971  2023-11-30 15:17:31.763164
2972  2023-11-30 15:17:31.809527
2973  2023-11-30 15:17:31.839511
2974  2023-11-30 15:17:31.885233
2975  2023-11-30 15:17:31.932307
2976  2023-11-30 15:17:31.978112
2977  2023-11-30 15:17:32.009666
2978  2023-11-30 15:17:32.056573
2979  2023-11-30 15:17:32.104620
2980  2023-11-30 15:17:32.134145
2981  2023-11-30 15:17:32.183284
2982  2023-11-30 15:17:32.227227
2983  2023-11-30 15:17:32.259176
2984  2023-11-30 15:17:32.306679
2985  2023-11-30 15:17:32.354017
2986  2023-11-30 15:17:32.384476
2987  2023-11-30 15:17:32.431504
2988  2023-11-30 15:17:32.478211
2989  2023-11-30 15:17:32.509268
2990  2023-11-30 15:17:32.555509
2991  2023-11-30 15:17:32.602276
2992  2023-11-30 15:17:32.635085
2993  2023-11-30 15:17:32.680691
2994  2023-11-30 15:17:32.727337
2995  2023-11-30 15:17:32.759057
2996  2023-11-30 15:17:32.805011
2997  2023-11-30 15:17:32.851120
2998  2023-11-30 15:17:32.881963
2999  2023-11-30 15:17:32.928995
3000  2023-11-30 15:17:32.974366
3001  2023-11-30 15:17:33.021150
3002  2023-11-30 15:17:33.053087
3003  2023-11-30 15:17:33.099454
3004  2023-11-30 15:17:33.131398
3005  2023-11-30 15:17:33.178164
3006  2023-11-30 15:17:33.226179
3007  2023-11-30 15:17:33.258147
3008  2023-11-30 15:17:33.303638
3009  2023-11-30 15:17:33.349786
3010  2023-11-30 15:17:33.395406
3011  2023-11-30 15:17:33.425871
3012  2023-11-30 15:17:33.471906
3013  2023-11-30 15:17:33.518496
3014  2023-11-30 15:17:33.549105
3015  2023-11-30 15:17:33.595873
3016  2023-11-30 15:17:33.642473
3017  2023-11-30 15:17:33.674242
3018  2023-11-30 15:17:33.721344
3019  2023-11-30 15:17:33.769262
3020  2023-11-30 15:17:33.801078
3021  2023-11-30 15:17:33.848385
3022  2023-11-30 15:17:33.896134
3023  2023-11-30 15:17:33.926129
3024  2023-11-30 15:17:33.976870
3025  2023-11-30 15:17:34.020864
3026  2023-11-30 15:17:34.052739
3027  2023-11-30 15:17:34.099897
3028  2023-11-30 15:17:34.144933
3029  2023-11-30 15:17:34.176569
3030  2023-11-30 15:17:34.222445
3031  2023-11-30 15:17:34.269049
3032  2023-11-30 15:17:34.300263
3033  2023-11-30 15:17:34.347873
3034  2023-11-30 15:17:34.394124
3035  2023-11-30 15:17:34.426027
3036  2023-11-30 15:17:34.472291
3037  2023-11-30 15:17:34.520333
3038  2023-11-30 15:17:34.551619
3039  2023-11-30 15:17:34.599074
3040  2023-11-30 15:17:34.646327
3041  2023-11-30 15:17:34.677083
3042  2023-11-30 15:17:34.724227
3043  2023-11-30 15:17:34.756141
3044  2023-11-30 15:17:34.804399
3045  2023-11-30 15:17:34.849646
3046  2023-11-30 15:17:34.881527
3047  2023-11-30 15:17:34.929428
3048  2023-11-30 15:17:34.975221
3049  2023-11-30 15:17:35.006831
3050  2023-11-30 15:17:35.053665
3051  2023-11-30 15:17:35.100746
3052  2023-11-30 15:17:35.131037
3053  2023-11-30 15:17:35.177886
3054  2023-11-30 15:17:35.224050
3055  2023-11-30 15:17:35.255829
3056  2023-11-30 15:17:35.302790
3057  2023-11-30 15:17:35.349587
3058  2023-11-30 15:17:35.381743
3059  2023-11-30 15:17:35.428793
3060  2023-11-30 15:17:35.476494
3061  2023-11-30 15:17:35.507419
3062  2023-11-30 15:17:35.555515
3063  2023-11-30 15:17:35.603355
3064  2023-11-30 15:17:35.635268
3065  2023-11-30 15:17:35.683146
3066  2023-11-30 15:17:35.715004
3067  2023-11-30 15:17:35.762876
3068  2023-11-30 15:17:35.807932
3069  2023-11-30 15:17:35.854428
3070  2023-11-30 15:17:35.886373
3071  2023-11-30 15:17:35.933216
3072  2023-11-30 15:17:35.964133
3073  2023-11-30 15:17:36.011037
3074  2023-11-30 15:17:36.057961
3075  2023-11-30 15:17:36.103405
3076  2023-11-30 15:17:36.134895
3077  2023-11-30 15:17:36.182021
3078  2023-11-30 15:17:36.229057
3079  2023-11-30 15:17:36.260980
3080  2023-11-30 15:17:36.307684
3081  2023-11-30 15:17:36.354651
3082  2023-11-30 15:17:36.386461
3083  2023-11-30 15:17:36.431734
3084  2023-11-30 15:17:36.479079
3085  2023-11-30 15:17:36.510056
3086  2023-11-30 15:17:36.557204
3087  2023-11-30 15:17:36.602936
3088  2023-11-30 15:17:36.634468
3089  2023-11-30 15:17:36.680364
3090  2023-11-30 15:17:36.728164
3091  2023-11-30 15:17:36.759851
3092  2023-11-30 15:17:36.806675
3093  2023-11-30 15:17:36.853879
3094  2023-11-30 15:17:36.884795
3095  2023-11-30 15:17:36.932667
3096  2023-11-30 15:17:36.980538
3097  2023-11-30 15:17:37.012453
3098  2023-11-30 15:17:37.059467
3099  2023-11-30 15:17:37.092240
3100  2023-11-30 15:17:37.139155
3101  2023-11-30 15:17:37.186548
3102  2023-11-30 15:17:37.217778
3103  2023-11-30 15:17:37.265373
3104  2023-11-30 15:17:37.313517
3105  2023-11-30 15:17:37.343716
3106  2023-11-30 15:17:37.389923
3107  2023-11-30 15:17:37.436765
3108  2023-11-30 15:17:37.467588
3109  2023-11-30 15:17:37.513511
3110  2023-11-30 15:17:37.559900
3111  2023-11-30 15:17:37.591427
3112  2023-11-30 15:17:37.638873
3113  2023-11-30 15:17:37.686543
3114  2023-11-30 15:17:37.718471
3115  2023-11-30 15:17:37.764850
3116  2023-11-30 15:17:37.812704
3117  2023-11-30 15:17:37.842844
3118  2023-11-30 15:17:37.889139
3119  2023-11-30 15:17:37.937345
3120  2023-11-30 15:17:37.967585
3121  2023-11-30 15:17:38.013330
3122  2023-11-30 15:17:38.060155
3123  2023-11-30 15:17:38.091286
3124  2023-11-30 15:17:38.138332
3125  2023-11-30 15:17:38.184731
3126  2023-11-30 15:17:38.216678
3127  2023-11-30 15:17:38.263364
3128  2023-11-30 15:17:38.309995
3129  2023-11-30 15:17:38.340690
3130  2023-11-30 15:17:38.387420
3131  2023-11-30 15:17:38.436448
3132  2023-11-30 15:17:38.467395
3133  2023-11-30 15:17:38.514175
3134  2023-11-30 15:17:38.564337
3135  2023-11-30 15:17:38.593691
3136  2023-11-30 15:17:38.641022
3137  2023-11-30 15:17:38.688943
3138  2023-11-30 15:17:38.719898
3139  2023-11-30 15:17:38.765938
3140  2023-11-30 15:17:38.811676
3141  2023-11-30 15:17:38.842791
3142  2023-11-30 15:17:38.889472
3143  2023-11-30 15:17:38.936396
3144  2023-11-30 15:17:38.968040
3145  2023-11-30 15:17:39.015706
3146  2023-11-30 15:17:39.062279
3147  2023-11-30 15:17:39.092630
3148  2023-11-30 15:17:39.139389
3149  2023-11-30 15:17:39.185777
3150  2023-11-30 15:17:39.217212
3151  2023-11-30 15:17:39.264551
3152  2023-11-30 15:17:39.312235
3153  2023-11-30 15:17:39.342226
3154  2023-11-30 15:17:39.388652
3155  2023-11-30 15:17:39.434456
3156  2023-11-30 15:17:39.465066
3157  2023-11-30 15:17:39.512160
3158  2023-11-30 15:17:39.558379
3159  2023-11-30 15:17:39.591284
3160  2023-11-30 15:17:39.638220
3161  2023-11-30 15:17:39.683980
3162  2023-11-30 15:17:39.728938
3163  2023-11-30 15:17:39.761928
3164  2023-11-30 15:17:39.807755
3165  2023-11-30 15:17:39.855275
3166  2023-11-30 15:17:39.885485
3167  2023-11-30 15:17:39.931599
3168  2023-11-30 15:17:39.978113
3169  2023-11-30 15:17:40.009632
3170  2023-11-30 15:17:40.056709
3171  2023-11-30 15:17:40.103279
3172  2023-11-30 15:17:40.134722
3173  2023-11-30 15:17:40.182245
3174  2023-11-30 15:17:40.228606
3175  2023-11-30 15:17:40.259563
3176  2023-11-30 15:17:40.306446
3177  2023-11-30 15:17:40.353640
3178  2023-11-30 15:17:40.385394
3179  2023-11-30 15:17:40.433326
3180  2023-11-30 15:17:40.479419
3181  2023-11-30 15:17:40.512241
3182  2023-11-30 15:17:40.558911
3183  2023-11-30 15:17:40.604436
3184  2023-11-30 15:17:40.635606
3185  2023-11-30 15:17:40.683532
3186  2023-11-30 15:17:40.715410
3187  2023-11-30 15:17:40.760702
3188  2023-11-30 15:17:40.807509
3189  2023-11-30 15:17:40.839304
3190  2023-11-30 15:17:40.887336
3191  2023-11-30 15:17:40.934254
3192  2023-11-30 15:17:40.966275
3193  2023-11-30 15:17:41.012761
3194  2023-11-30 15:17:41.060050
3195  2023-11-30 15:17:41.091206
3196  2023-11-30 15:17:41.138367
3197  2023-11-30 15:17:41.185651
3198  2023-11-30 15:17:41.215932
3199  2023-11-30 15:17:41.263976
3200  2023-11-30 15:17:41.311205
3201  2023-11-30 15:17:41.343521
3202  2023-11-30 15:17:41.391861
3203  2023-11-30 15:17:41.435303
3204  2023-11-30 15:17:41.466449
3205  2023-11-30 15:17:41.513488
3206  2023-11-30 15:17:41.560211
3207  2023-11-30 15:17:41.591445
3208  2023-11-30 15:17:41.638923
3209  2023-11-30 15:17:41.686239
3210  2023-11-30 15:17:41.718153
3211  2023-11-30 15:17:41.766194
3212  2023-11-30 15:17:41.798112
3213  2023-11-30 15:17:41.846213
3214  2023-11-30 15:17:41.892224
3215  2023-11-30 15:17:41.922800
3216  2023-11-30 15:17:41.969984
3217  2023-11-30 15:17:42.017501
3218  2023-11-30 15:17:42.049428
3219  2023-11-30 15:17:42.097777
3220  2023-11-30 15:17:42.142188
3221  2023-11-30 15:17:42.174463
3222  2023-11-30 15:17:42.222243
3223  2023-11-30 15:17:42.269826
3224  2023-11-30 15:17:42.301881
3225  2023-11-30 15:17:42.349621
3226  2023-11-30 15:17:42.381789
3227  2023-11-30 15:17:42.427442
3228  2023-11-30 15:17:42.473389
3229  2023-11-30 15:17:42.520988
3230  2023-11-30 15:17:42.552231
3231  2023-11-30 15:17:42.599297
3232  2023-11-30 15:17:42.645247
3233  2023-11-30 15:17:42.676123
3234  2023-11-30 15:17:42.724121
3235  2023-11-30 15:17:42.756039
3236  2023-11-30 15:17:42.802811
3237  2023-11-30 15:17:42.848087
3238  2023-11-30 15:17:42.894133
3239  2023-11-30 15:17:42.925522
3240  2023-11-30 15:17:42.973634
3241  2023-11-30 15:17:43.018477
3242  2023-11-30 15:17:43.049521
3243  2023-11-30 15:17:43.096748
3244  2023-11-30 15:17:43.143387
3245  2023-11-30 15:17:43.174283
3246  2023-11-30 15:17:43.222027
3247  2023-11-30 15:17:43.269139
3248  2023-11-30 15:17:43.300140
3249  2023-11-30 15:17:43.346148
3250  2023-11-30 15:17:43.392530
3251  2023-11-30 15:17:43.422803
3252  2023-11-30 15:17:43.470672
3253  2023-11-30 15:17:43.517031
3254  2023-11-30 15:17:43.548603
3255  2023-11-30 15:17:43.597050
3256  2023-11-30 15:17:43.641746
3257  2023-11-30 15:17:43.687862
3258  2023-11-30 15:17:43.718486
3259  2023-11-30 15:17:43.766291
3260  2023-11-30 15:17:43.811285
3261  2023-11-30 15:17:43.843101
3262  2023-11-30 15:17:43.889099
3263  2023-11-30 15:17:43.935710
3264  2023-11-30 15:17:43.967206
3265  2023-11-30 15:17:44.013506
3266  2023-11-30 15:17:44.063467
3267  2023-11-30 15:17:44.092430
3268  2023-11-30 15:17:44.140238
3269  2023-11-30 15:17:44.187900
3270  2023-11-30 15:17:44.220204
3271  2023-11-30 15:17:44.265019
3272  2023-11-30 15:17:44.311286
3273  2023-11-30 15:17:44.342771
3274  2023-11-30 15:17:44.390287
3275  2023-11-30 15:17:44.437102
3276  2023-11-30 15:17:44.468122
3277  2023-11-30 15:17:44.513589
3278  2023-11-30 15:17:44.560597
3279  2023-11-30 15:17:44.591484
3280  2023-11-30 15:17:44.637362
3281  2023-11-30 15:17:44.686358
3282  2023-11-30 15:17:44.715221
3283  2023-11-30 15:17:44.763559
3284  2023-11-30 15:17:44.809247
3285  2023-11-30 15:17:44.840048
3286  2023-11-30 15:17:44.886875
3287  2023-11-30 15:17:44.934256
3288  2023-11-30 15:17:44.965560
3289  2023-11-30 15:17:45.011134
3290  2023-11-30 15:17:45.058426
3291  2023-11-30 15:17:45.090025
3292  2023-11-30 15:17:45.135851
3293  2023-11-30 15:17:45.182493
3294  2023-11-30 15:17:45.229391
3295  2023-11-30 15:17:45.261975
3296  2023-11-30 15:17:45.307355
3297  2023-11-30 15:17:45.339265
3298  2023-11-30 15:17:45.387044
3299  2023-11-30 15:17:45.432367
3300  2023-11-30 15:17:45.479016
3301  2023-11-30 15:17:45.510595
3302  2023-11-30 15:17:45.558370
3303  2023-11-30 15:17:45.589385
3304  2023-11-30 15:17:45.636103
3305  2023-11-30 15:17:45.684101
3306  2023-11-30 15:17:45.715011
3307  2023-11-30 15:17:45.761823
3308  2023-11-30 15:17:45.808758
3309  2023-11-30 15:17:45.839644
3310  2023-11-30 15:17:45.887545
3311  2023-11-30 15:17:45.935522
3312  2023-11-30 15:17:45.967271
3313  2023-11-30 15:17:46.012703
3314  2023-11-30 15:17:46.060389
3315  2023-11-30 15:17:46.091796
3316  2023-11-30 15:17:46.138316
3317  2023-11-30 15:17:46.183236
3318  2023-11-30 15:17:46.215204
3319  2023-11-30 15:17:46.263068
3320  2023-11-30 15:17:46.310716
3321  2023-11-30 15:17:46.342154
3322  2023-11-30 15:17:46.389342
3323  2023-11-30 15:17:46.436562
3324  2023-11-30 15:17:46.468138
3325  2023-11-30 15:17:46.513813
3326  2023-11-30 15:17:46.560649
3327  2023-11-30 15:17:46.591911
3328  2023-11-30 15:17:46.639110
3329  2023-11-30 15:17:46.685289
3330  2023-11-30 15:17:46.717195
3331  2023-11-30 15:17:46.764171
3332  2023-11-30 15:17:46.809591
3333  2023-11-30 15:17:46.842313
3334  2023-11-30 15:17:46.886445
3335  2023-11-30 15:17:46.933190
3336  2023-11-30 15:17:46.964322
3337  2023-11-30 15:17:47.010400
3338  2023-11-30 15:17:47.056893
3339  2023-11-30 15:17:47.103412
3340  2023-11-30 15:17:47.134436
3341  2023-11-30 15:17:47.182293
3342  2023-11-30 15:17:47.229403
3343  2023-11-30 15:17:47.260827
3344  2023-11-30 15:17:47.308580
3345  2023-11-30 15:17:47.339329
3346  2023-11-30 15:17:47.385415
3347  2023-11-30 15:17:47.434711
3348  2023-11-30 15:17:47.464793
3349  2023-11-30 15:17:47.513659
3350  2023-11-30 15:17:47.561418
3351  2023-11-30 15:17:47.591126
3352  2023-11-30 15:17:47.637071
3353  2023-11-30 15:17:47.685159
3354  2023-11-30 15:17:47.715305
3355  2023-11-30 15:17:47.762090
3356  2023-11-30 15:17:47.807656
3357  2023-11-30 15:17:47.839227
3358  2023-11-30 15:17:47.885791
3359  2023-11-30 15:17:47.932957
3360  2023-11-30 15:17:47.964224
3361  2023-11-30 15:17:48.010560
3362  2023-11-30 15:17:48.057951
3363  2023-11-30 15:17:48.104798
3364  2023-11-30 15:17:48.137482
3365  2023-11-30 15:17:48.182393
3366  2023-11-30 15:17:48.229275
3367  2023-11-30 15:17:48.259134
3368  2023-11-30 15:17:48.305700
3369  2023-11-30 15:17:48.352371
3370  2023-11-30 15:17:48.383526
3371  2023-11-30 15:17:48.430290
3372  2023-11-30 15:17:48.476912
3373  2023-11-30 15:17:48.508811
3374  2023-11-30 15:17:48.556310
3375  2023-11-30 15:17:48.604261
3376  2023-11-30 15:17:48.636616
3377  2023-11-30 15:17:48.683009
3378  2023-11-30 15:17:48.728231
3379  2023-11-30 15:17:48.761042
3380  2023-11-30 15:17:48.810098
3381  2023-11-30 15:17:48.840624
3382  2023-11-30 15:17:48.888372
3383  2023-11-30 15:17:48.935915
3384  2023-11-30 15:17:48.965166
3385  2023-11-30 15:17:49.011831
3386  2023-11-30 15:17:49.058378
3387  2023-11-30 15:17:49.089267
3388  2023-11-30 15:17:49.135347
3389  2023-11-30 15:17:49.182433
3390  2023-11-30 15:17:49.229718
3391  2023-11-30 15:17:49.260982
3392  2023-11-30 15:17:49.308124
3393  2023-11-30 15:17:49.354268
3394  2023-11-30 15:17:49.385743
3395  2023-11-30 15:17:49.432928
3396  2023-11-30 15:17:49.479906
3397  2023-11-30 15:17:49.509745
3398  2023-11-30 15:17:49.556246
3399  2023-11-30 15:17:49.603108
3400  2023-11-30 15:17:49.634990
3401  2023-11-30 15:17:49.681832
3402  2023-11-30 15:17:49.728551
3403  2023-11-30 15:17:49.759615
3404  2023-11-30 15:17:49.807267
3405  2023-11-30 15:17:49.853871
3406  2023-11-30 15:17:49.885075
3407  2023-11-30 15:17:49.931444
3408  2023-11-30 15:17:49.977567
3409  2023-11-30 15:17:50.009257
3410  2023-11-30 15:17:50.057332
3411  2023-11-30 15:17:50.089785
3412  2023-11-30 15:17:50.136423
3413  2023-11-30 15:17:50.183554
3414  2023-11-30 15:17:50.230069
3415  2023-11-30 15:17:50.265092
3416  2023-11-30 15:17:50.307513
3417  2023-11-30 15:17:50.353942
3418  2023-11-30 15:17:50.384897
3419  2023-11-30 15:17:50.432015
3420  2023-11-30 15:17:50.478275
3421  2023-11-30 15:17:50.509350
3422  2023-11-30 15:17:50.557013
3423  2023-11-30 15:17:50.603427
3424  2023-11-30 15:17:50.634374
3425  2023-11-30 15:17:50.681169
3426  2023-11-30 15:17:50.727246
3427  2023-11-30 15:17:50.758565
3428  2023-11-30 15:17:50.806156
3429  2023-11-30 15:17:50.854301
3430  2023-11-30 15:17:50.886332
3431  2023-11-30 15:17:50.932132
3432  2023-11-30 15:17:50.964120
3433  2023-11-30 15:17:51.011039
3434  2023-11-30 15:17:51.057817
3435  2023-11-30 15:17:51.103393
3436  2023-11-30 15:17:51.135308
3437  2023-11-30 15:17:51.183356
3438  2023-11-30 15:17:51.214654
3439  2023-11-30 15:17:51.262556
3440  2023-11-30 15:17:51.309288
3441  2023-11-30 15:17:51.340122
3442  2023-11-30 15:17:51.388029
3443  2023-11-30 15:17:51.434468
3444  2023-11-30 15:17:51.464812
3445  2023-11-30 15:17:51.514625
3446  2023-11-30 15:17:51.558159
3447  2023-11-30 15:17:51.590356
3448  2023-11-30 15:17:51.639108
3449  2023-11-30 15:17:51.684320
3450  2023-11-30 15:17:51.729110
3451  2023-11-30 15:17:51.760303
3452  2023-11-30 15:17:51.807368
3453  2023-11-30 15:17:51.853571
3454  2023-11-30 15:17:51.884217
3455  2023-11-30 15:17:51.931452
3456  2023-11-30 15:17:51.979392
3457  2023-11-30 15:17:52.008824
3458  2023-11-30 15:17:52.057773
3459  2023-11-30 15:17:52.105759
3460  2023-11-30 15:17:52.134397
3461  2023-11-30 15:17:52.183731
3462  2023-11-30 15:17:52.229942
3463  2023-11-30 15:17:52.258901
3464  2023-11-30 15:17:52.306741
3465  2023-11-30 15:17:52.353224
3466  2023-11-30 15:17:52.384144
3467  2023-11-30 15:17:52.431175
3468  2023-11-30 15:17:52.476527
3469  2023-11-30 15:17:52.508122
3470  2023-11-30 15:17:52.554056
3471  2023-11-30 15:17:52.600899
3472  2023-11-30 15:17:52.633313
3473  2023-11-30 15:17:52.679202
3474  2023-11-30 15:17:52.725229
3475  2023-11-30 15:17:52.757311
3476  2023-11-30 15:17:52.804710
3477  2023-11-30 15:17:52.853035
3478  2023-11-30 15:17:52.882366
3479  2023-11-30 15:17:52.928896
3480  2023-11-30 15:17:52.976180
3481  2023-11-30 15:17:53.007118
3482  2023-11-30 15:17:53.054999
3483  2023-11-30 15:17:53.101344
3484  2023-11-30 15:17:53.132243
3485  2023-11-30 15:17:53.178788
3486  2023-11-30 15:17:53.225244
3487  2023-11-30 15:17:53.256221
3488  2023-11-30 15:17:53.304094
3489  2023-11-30 15:17:53.351121
3490  2023-11-30 15:17:53.382202
3491  2023-11-30 15:17:53.429092
3492  2023-11-30 15:17:53.476239
3493  2023-11-30 15:17:53.509061
3494  2023-11-30 15:17:53.554080
3495  2023-11-30 15:17:53.601454
3496  2023-11-30 15:17:53.631953
3497  2023-11-30 15:17:53.679488
3498  2023-11-30 15:17:53.724694
3499  2023-11-30 15:17:53.770310
3500  2023-11-30 15:17:53.802027
3501  2023-11-30 15:17:53.847813
3502  2023-11-30 15:17:53.894919
3503  2023-11-30 15:17:53.927735
3504  2023-11-30 15:17:53.975638
3505  2023-11-30 15:17:54.023777
3506  2023-11-30 15:17:54.053783
3507  2023-11-30 15:17:54.097589
3508  2023-11-30 15:17:54.143847
3509  2023-11-30 15:17:54.175120
3510  2023-11-30 15:17:54.221050
3511  2023-11-30 15:17:54.268925
3512  2023-11-30 15:17:54.300149
3513  2023-11-30 15:17:54.347061
3514  2023-11-30 15:17:54.394704
3515  2023-11-30 15:17:54.426626
3516  2023-11-30 15:17:54.473821
3517  2023-11-30 15:17:54.519771
3518  2023-11-30 15:17:54.551702
3519  2023-11-30 15:17:54.599731
3520  2023-11-30 15:17:54.646613
3521  2023-11-30 15:17:54.677343
3522  2023-11-30 15:17:54.724328
3523  2023-11-30 15:17:54.772216
3524  2023-11-30 15:17:54.800064
3525  2023-11-30 15:17:54.846411
3526  2023-11-30 15:17:54.893749
3527  2023-11-30 15:17:54.924055
3528  2023-11-30 15:17:54.970265
3529  2023-11-30 15:17:55.018452
3530  2023-11-30 15:17:55.049190
3531  2023-11-30 15:17:55.096212
3532  2023-11-30 15:17:55.143162
3533  2023-11-30 15:17:55.174128
3534  2023-11-30 15:17:55.221894
3535  2023-11-30 15:17:55.268814
3536  2023-11-30 15:17:55.301435
3537  2023-11-30 15:17:55.348322
3538  2023-11-30 15:17:55.394819
3539  2023-11-30 15:17:55.427148
3540  2023-11-30 15:17:55.471153
3541  2023-11-30 15:17:55.517737
3542  2023-11-30 15:17:55.549871
3543  2023-11-30 15:17:55.595865
3544  2023-11-30 15:17:55.642261
3545  2023-11-30 15:17:55.674182
3546  2023-11-30 15:17:55.720941
3547  2023-11-30 15:17:55.767538
3548  2023-11-30 15:17:55.799356
3549  2023-11-30 15:17:55.846615
3550  2023-11-30 15:17:55.893163
3551  2023-11-30 15:17:55.923394
3552  2023-11-30 15:17:55.971553
3553  2023-11-30 15:17:56.018521
3554  2023-11-30 15:17:56.051355
3555  2023-11-30 15:17:56.098243
3556  2023-11-30 15:17:56.146234
3557  2023-11-30 15:17:56.174967
3558  2023-11-30 15:17:56.221053
3559  2023-11-30 15:17:56.267072
3560  2023-11-30 15:17:56.298992
3561  2023-11-30 15:17:56.345867
