
1  2023-12-01 10:47:51.888295
2  2023-12-01 10:47:51.934321
3  2023-12-01 10:47:51.980861
4  2023-12-01 10:47:52.011262
5  2023-12-01 10:47:52.057237
6  2023-12-01 10:47:52.103766
7  2023-12-01 10:47:52.134627
8  2023-12-01 10:47:52.180993
9  2023-12-01 10:47:52.227532
10  2023-12-01 10:47:52.258285
11  2023-12-01 10:47:52.305624
12  2023-12-01 10:47:52.352349
13  2023-12-01 10:47:52.384098
14  2023-12-01 10:47:52.430331
15  2023-12-01 10:47:52.477548
16  2023-12-01 10:47:52.509334
17  2023-12-01 10:47:52.555404
18  2023-12-01 10:47:52.602452
19  2023-12-01 10:47:52.632550
20  2023-12-01 10:47:52.679029
21  2023-12-01 10:47:52.724988
22  2023-12-01 10:47:52.771406
23  2023-12-01 10:47:52.802108
24  2023-12-01 10:47:52.848658
25  2023-12-01 10:47:52.896322
26  2023-12-01 10:47:52.927306
27  2023-12-01 10:47:52.974740
28  2023-12-01 10:47:53.020667
29  2023-12-01 10:47:53.052582
30  2023-12-01 10:47:53.100527
31  2023-12-01 10:47:53.146597
32  2023-12-01 10:47:53.177909
33  2023-12-01 10:47:53.224384
34  2023-12-01 10:47:53.272628
35  2023-12-01 10:47:53.304017
36  2023-12-01 10:47:53.349305
37  2023-12-01 10:47:53.396405
38  2023-12-01 10:47:53.427539
39  2023-12-01 10:47:53.474821
40  2023-12-01 10:47:53.521460
41  2023-12-01 10:47:53.552960
42  2023-12-01 10:47:53.599618
43  2023-12-01 10:47:53.646445
44  2023-12-01 10:47:53.677696
45  2023-12-01 10:47:53.724707
46  2023-12-01 10:47:53.771462
47  2023-12-01 10:47:53.803749
48  2023-12-01 10:47:53.848869
49  2023-12-01 10:47:53.895264
50  2023-12-01 10:47:53.925373
51  2023-12-01 10:47:53.972594
52  2023-12-01 10:47:54.020084
53  2023-12-01 10:47:54.051393
54  2023-12-01 10:47:54.098947
55  2023-12-01 10:47:54.145057
56  2023-12-01 10:47:54.176561
57  2023-12-01 10:47:54.222404
58  2023-12-01 10:47:54.270947
59  2023-12-01 10:47:54.300407
60  2023-12-01 10:47:54.346702
61  2023-12-01 10:47:54.393496
62  2023-12-01 10:47:54.439078
63  2023-12-01 10:47:54.470216
64  2023-12-01 10:47:54.516827
65  2023-12-01 10:47:54.563697
66  2023-12-01 10:47:54.594514
67  2023-12-01 10:47:54.640387
68  2023-12-01 10:47:54.687094
69  2023-12-01 10:47:54.717818
70  2023-12-01 10:47:54.764368
71  2023-12-01 10:47:54.810583
72  2023-12-01 10:47:54.842042
73  2023-12-01 10:47:54.888367
74  2023-12-01 10:47:54.934336
75  2023-12-01 10:47:54.965482
76  2023-12-01 10:47:55.011621
77  2023-12-01 10:47:55.058849
78  2023-12-01 10:47:55.090654
79  2023-12-01 10:47:55.137840
80  2023-12-01 10:47:55.183445
81  2023-12-01 10:47:55.229667
82  2023-12-01 10:47:55.259659
83  2023-12-01 10:47:55.306413
84  2023-12-01 10:47:55.353364
85  2023-12-01 10:47:55.384092
86  2023-12-01 10:47:55.430746
87  2023-12-01 10:47:55.476919
88  2023-12-01 10:47:55.508258
89  2023-12-01 10:47:55.554572
90  2023-12-01 10:47:55.601561
91  2023-12-01 10:47:55.632503
92  2023-12-01 10:47:55.678594
93  2023-12-01 10:47:55.725028
94  2023-12-01 10:47:55.770911
95  2023-12-01 10:47:55.802401
96  2023-12-01 10:47:55.849386
97  2023-12-01 10:47:55.896524
98  2023-12-01 10:47:55.927368
99  2023-12-01 10:47:55.973398
100  2023-12-01 10:47:56.019515
101  2023-12-01 10:47:56.051506
102  2023-12-01 10:47:56.098764
103  2023-12-01 10:47:56.145120
104  2023-12-01 10:47:56.176545
105  2023-12-01 10:47:56.223033
106  2023-12-01 10:47:56.269043
107  2023-12-01 10:47:56.300004
108  2023-12-01 10:47:56.345939
109  2023-12-01 10:47:56.393358
110  2023-12-01 10:47:56.424562
111  2023-12-01 10:47:56.470810
112  2023-12-01 10:47:56.516922
113  2023-12-01 10:47:56.563721
114  2023-12-01 10:47:56.594335
115  2023-12-01 10:47:56.641754
116  2023-12-01 10:47:56.688619
117  2023-12-01 10:47:56.719282
118  2023-12-01 10:47:56.765471
119  2023-12-01 10:47:56.811577
120  2023-12-01 10:47:56.842416
121  2023-12-01 10:47:56.889396
122  2023-12-01 10:47:56.935678
123  2023-12-01 10:47:56.966138
124  2023-12-01 10:47:57.012581
125  2023-12-01 10:47:57.058989
126  2023-12-01 10:47:57.090679
127  2023-12-01 10:47:57.138149
128  2023-12-01 10:47:57.183478
129  2023-12-01 10:47:57.230332
130  2023-12-01 10:47:57.262469
131  2023-12-01 10:47:57.309476
132  2023-12-01 10:47:57.355366
133  2023-12-01 10:47:57.386916
134  2023-12-01 10:47:57.433417
135  2023-12-01 10:47:57.479202
136  2023-12-01 10:47:57.510035
137  2023-12-01 10:47:57.556286
138  2023-12-01 10:47:57.602686
139  2023-12-01 10:47:57.633421
140  2023-12-01 10:47:57.680468
141  2023-12-01 10:47:57.727160
142  2023-12-01 10:47:57.758032
143  2023-12-01 10:47:57.805249
144  2023-12-01 10:47:57.851500
145  2023-12-01 10:47:57.896554
146  2023-12-01 10:47:57.928464
147  2023-12-01 10:47:57.975010
148  2023-12-01 10:47:58.020302
149  2023-12-01 10:47:58.050985
150  2023-12-01 10:47:58.096730
151  2023-12-01 10:47:58.143479
152  2023-12-01 10:47:58.175379
153  2023-12-01 10:47:58.220929
154  2023-12-01 10:47:58.267383
155  2023-12-01 10:47:58.314009
156  2023-12-01 10:47:58.344973
157  2023-12-01 10:47:58.391159
158  2023-12-01 10:47:58.437383
159  2023-12-01 10:47:58.468440
160  2023-12-01 10:47:58.514531
161  2023-12-01 10:47:58.561633
162  2023-12-01 10:47:58.593792
163  2023-12-01 10:47:58.642263
164  2023-12-01 10:47:58.688663
165  2023-12-01 10:47:58.719642
166  2023-12-01 10:47:58.767360
167  2023-12-01 10:47:58.798507
168  2023-12-01 10:47:58.845485
169  2023-12-01 10:47:58.892585
170  2023-12-01 10:47:58.938905
171  2023-12-01 10:47:58.970060
172  2023-12-01 10:47:59.016284
173  2023-12-01 10:47:59.062289
174  2023-12-01 10:47:59.093283
175  2023-12-01 10:47:59.140386
176  2023-12-01 10:47:59.186351
177  2023-12-01 10:47:59.217190
178  2023-12-01 10:47:59.265169
179  2023-12-01 10:47:59.313435
180  2023-12-01 10:47:59.343732
181  2023-12-01 10:47:59.389647
182  2023-12-01 10:47:59.437339
183  2023-12-01 10:47:59.469000
184  2023-12-01 10:47:59.515170
185  2023-12-01 10:47:59.561493
186  2023-12-01 10:47:59.593352
187  2023-12-01 10:47:59.639567
188  2023-12-01 10:47:59.685764
189  2023-12-01 10:47:59.717108
190  2023-12-01 10:47:59.763773
191  2023-12-01 10:47:59.810177
192  2023-12-01 10:47:59.841351
193  2023-12-01 10:47:59.888373
194  2023-12-01 10:47:59.936339
195  2023-12-01 10:47:59.968546
196  2023-12-01 10:48:00.014102
197  2023-12-01 10:48:00.060055
198  2023-12-01 10:48:00.091109
199  2023-12-01 10:48:00.137340
200  2023-12-01 10:48:00.184512
201  2023-12-01 10:48:00.230573
202  2023-12-01 10:48:00.260956
203  2023-12-01 10:48:00.307350
204  2023-12-01 10:48:00.354384
205  2023-12-01 10:48:00.385575
206  2023-12-01 10:48:00.431974
207  2023-12-01 10:48:00.479319
208  2023-12-01 10:48:00.510243
209  2023-12-01 10:48:00.557352
210  2023-12-01 10:48:00.602630
211  2023-12-01 10:48:00.634378
212  2023-12-01 10:48:00.679405
213  2023-12-01 10:48:00.726085
214  2023-12-01 10:48:00.757086
215  2023-12-01 10:48:00.803600
216  2023-12-01 10:48:00.850538
217  2023-12-01 10:48:00.897219
218  2023-12-01 10:48:00.927483
219  2023-12-01 10:48:00.974372
220  2023-12-01 10:48:01.020569
221  2023-12-01 10:48:01.051760
222  2023-12-01 10:48:01.098069
223  2023-12-01 10:48:01.144207
224  2023-12-01 10:48:01.174665
225  2023-12-01 10:48:01.220528
226  2023-12-01 10:48:01.267709
227  2023-12-01 10:48:01.299279
228  2023-12-01 10:48:01.345782
229  2023-12-01 10:48:01.392387
230  2023-12-01 10:48:01.424267
231  2023-12-01 10:48:01.472239
232  2023-12-01 10:48:01.520582
233  2023-12-01 10:48:01.550738
234  2023-12-01 10:48:01.599737
235  2023-12-01 10:48:01.644999
236  2023-12-01 10:48:01.675982
237  2023-12-01 10:48:01.722350
238  2023-12-01 10:48:01.768193
239  2023-12-01 10:48:01.799454
240  2023-12-01 10:48:01.846005
241  2023-12-01 10:48:01.891990
242  2023-12-01 10:48:01.938585
243  2023-12-01 10:48:01.970049
244  2023-12-01 10:48:02.017089
245  2023-12-01 10:48:02.062939
246  2023-12-01 10:48:02.094419
247  2023-12-01 10:48:02.141689
248  2023-12-01 10:48:02.188115
249  2023-12-01 10:48:02.218938
250  2023-12-01 10:48:02.266428
251  2023-12-01 10:48:02.312517
252  2023-12-01 10:48:02.344607
253  2023-12-01 10:48:02.390407
254  2023-12-01 10:48:02.437170
255  2023-12-01 10:48:02.468105
256  2023-12-01 10:48:02.514061
257  2023-12-01 10:48:02.561373
258  2023-12-01 10:48:02.592463
259  2023-12-01 10:48:02.638700
260  2023-12-01 10:48:02.685848
261  2023-12-01 10:48:02.716725
262  2023-12-01 10:48:02.762355
263  2023-12-01 10:48:02.809173
264  2023-12-01 10:48:02.840476
265  2023-12-01 10:48:02.886648
266  2023-12-01 10:48:02.933899
267  2023-12-01 10:48:02.979861
268  2023-12-01 10:48:03.011317
269  2023-12-01 10:48:03.058312
270  2023-12-01 10:48:03.105366
271  2023-12-01 10:48:03.135647
272  2023-12-01 10:48:03.182913
273  2023-12-01 10:48:03.229946
274  2023-12-01 10:48:03.260895
275  2023-12-01 10:48:03.307147
276  2023-12-01 10:48:03.354407
277  2023-12-01 10:48:03.384596
278  2023-12-01 10:48:03.432500
279  2023-12-01 10:48:03.479666
280  2023-12-01 10:48:03.510434
281  2023-12-01 10:48:03.556402
282  2023-12-01 10:48:03.604127
283  2023-12-01 10:48:03.634750
284  2023-12-01 10:48:03.682031
285  2023-12-01 10:48:03.727974
286  2023-12-01 10:48:03.759675
287  2023-12-01 10:48:03.805992
288  2023-12-01 10:48:03.852166
289  2023-12-01 10:48:03.883389
290  2023-12-01 10:48:03.931352
291  2023-12-01 10:48:03.977499
292  2023-12-01 10:48:04.008688
293  2023-12-01 10:48:04.055018
294  2023-12-01 10:48:04.101570
295  2023-12-01 10:48:04.132715
296  2023-12-01 10:48:04.178958
297  2023-12-01 10:48:04.225055
298  2023-12-01 10:48:04.271308
299  2023-12-01 10:48:04.303645
300  2023-12-01 10:48:04.350282
301  2023-12-01 10:48:04.396509
302  2023-12-01 10:48:04.428668
303  2023-12-01 10:48:04.474636
304  2023-12-01 10:48:04.520151
305  2023-12-01 10:48:04.552017
306  2023-12-01 10:48:04.597076
307  2023-12-01 10:48:04.644293
308  2023-12-01 10:48:04.674706
309  2023-12-01 10:48:04.720623
310  2023-12-01 10:48:04.768342
311  2023-12-01 10:48:04.798827
312  2023-12-01 10:48:04.846771
313  2023-12-01 10:48:04.892381
314  2023-12-01 10:48:04.938436
315  2023-12-01 10:48:04.969979
316  2023-12-01 10:48:05.017358
317  2023-12-01 10:48:05.064362
318  2023-12-01 10:48:05.094548
319  2023-12-01 10:48:05.140700
320  2023-12-01 10:48:05.187129
321  2023-12-01 10:48:05.217370
322  2023-12-01 10:48:05.264873
323  2023-12-01 10:48:05.311346
324  2023-12-01 10:48:05.342511
325  2023-12-01 10:48:05.390192
326  2023-12-01 10:48:05.436317
327  2023-12-01 10:48:05.467498
328  2023-12-01 10:48:05.513462
329  2023-12-01 10:48:05.561698
330  2023-12-01 10:48:05.591415
331  2023-12-01 10:48:05.636950
332  2023-12-01 10:48:05.683343
333  2023-12-01 10:48:05.715279
334  2023-12-01 10:48:05.761344
335  2023-12-01 10:48:05.808281
336  2023-12-01 10:48:05.854549
337  2023-12-01 10:48:05.885827
338  2023-12-01 10:48:05.932776
339  2023-12-01 10:48:05.978207
340  2023-12-01 10:48:06.009595
341  2023-12-01 10:48:06.055408
342  2023-12-01 10:48:06.101588
343  2023-12-01 10:48:06.132968
344  2023-12-01 10:48:06.178767
345  2023-12-01 10:48:06.224865
346  2023-12-01 10:48:06.271337
347  2023-12-01 10:48:06.303120
348  2023-12-01 10:48:06.349056
349  2023-12-01 10:48:06.396351
350  2023-12-01 10:48:06.426816
351  2023-12-01 10:48:06.474754
352  2023-12-01 10:48:06.522197
353  2023-12-01 10:48:06.552536
354  2023-12-01 10:48:06.599368
355  2023-12-01 10:48:06.646154
356  2023-12-01 10:48:06.677094
357  2023-12-01 10:48:06.722981
358  2023-12-01 10:48:06.769749
359  2023-12-01 10:48:06.800380
360  2023-12-01 10:48:06.847391
361  2023-12-01 10:48:06.894460
362  2023-12-01 10:48:06.925756
363  2023-12-01 10:48:06.972079
364  2023-12-01 10:48:07.019437
365  2023-12-01 10:48:07.050082
366  2023-12-01 10:48:07.098407
367  2023-12-01 10:48:07.144899
368  2023-12-01 10:48:07.175529
369  2023-12-01 10:48:07.220924
370  2023-12-01 10:48:07.267027
371  2023-12-01 10:48:07.313184
372  2023-12-01 10:48:07.343501
373  2023-12-01 10:48:07.390499
374  2023-12-01 10:48:07.437636
375  2023-12-01 10:48:07.466967
376  2023-12-01 10:48:07.514604
377  2023-12-01 10:48:07.561965
378  2023-12-01 10:48:07.594347
379  2023-12-01 10:48:07.639706
380  2023-12-01 10:48:07.685862
381  2023-12-01 10:48:07.716238
382  2023-12-01 10:48:07.762860
383  2023-12-01 10:48:07.808807
384  2023-12-01 10:48:07.855916
385  2023-12-01 10:48:07.887638
386  2023-12-01 10:48:07.934652
387  2023-12-01 10:48:07.965355
388  2023-12-01 10:48:08.012070
389  2023-12-01 10:48:08.058575
390  2023-12-01 10:48:08.106035
391  2023-12-01 10:48:08.136039
392  2023-12-01 10:48:08.182345
393  2023-12-01 10:48:08.228962
394  2023-12-01 10:48:08.260547
395  2023-12-01 10:48:08.307517
396  2023-12-01 10:48:08.354651
397  2023-12-01 10:48:08.385120
398  2023-12-01 10:48:08.432475
399  2023-12-01 10:48:08.478791
400  2023-12-01 10:48:08.510385
401  2023-12-01 10:48:08.556015
402  2023-12-01 10:48:08.601669
403  2023-12-01 10:48:08.632750
404  2023-12-01 10:48:08.678062
405  2023-12-01 10:48:08.724427
406  2023-12-01 10:48:08.770377
407  2023-12-01 10:48:08.801718
408  2023-12-01 10:48:08.849214
409  2023-12-01 10:48:08.896395
410  2023-12-01 10:48:08.927361
411  2023-12-01 10:48:08.973336
412  2023-12-01 10:48:09.021646
413  2023-12-01 10:48:09.051341
414  2023-12-01 10:48:09.097450
415  2023-12-01 10:48:09.143405
416  2023-12-01 10:48:09.175293
417  2023-12-01 10:48:09.223165
418  2023-12-01 10:48:09.268463
419  2023-12-01 10:48:09.300382
420  2023-12-01 10:48:09.348276
421  2023-12-01 10:48:09.394059
422  2023-12-01 10:48:09.425581
423  2023-12-01 10:48:09.472262
424  2023-12-01 10:48:09.518141
425  2023-12-01 10:48:09.548919
426  2023-12-01 10:48:09.595846
427  2023-12-01 10:48:09.642400
428  2023-12-01 10:48:09.688236
429  2023-12-01 10:48:09.719124
430  2023-12-01 10:48:09.766449
431  2023-12-01 10:48:09.812698
432  2023-12-01 10:48:09.842888
433  2023-12-01 10:48:09.889505
434  2023-12-01 10:48:09.936324
435  2023-12-01 10:48:09.966584
436  2023-12-01 10:48:10.013852
437  2023-12-01 10:48:10.060721
438  2023-12-01 10:48:10.091980
439  2023-12-01 10:48:10.137424
440  2023-12-01 10:48:10.183527
441  2023-12-01 10:48:10.229499
442  2023-12-01 10:48:10.260487
443  2023-12-01 10:48:10.306866
444  2023-12-01 10:48:10.354492
445  2023-12-01 10:48:10.384978
446  2023-12-01 10:48:10.431296
447  2023-12-01 10:48:10.478841
448  2023-12-01 10:48:10.510178
449  2023-12-01 10:48:10.556811
450  2023-12-01 10:48:10.601630
451  2023-12-01 10:48:10.632516
452  2023-12-01 10:48:10.678910
453  2023-12-01 10:48:10.726370
454  2023-12-01 10:48:10.772093
455  2023-12-01 10:48:10.802823
456  2023-12-01 10:48:10.849715
457  2023-12-01 10:48:10.896261
458  2023-12-01 10:48:10.926593
459  2023-12-01 10:48:10.973727
460  2023-12-01 10:48:11.021577
461  2023-12-01 10:48:11.052350
462  2023-12-01 10:48:11.099363
463  2023-12-01 10:48:11.146380
464  2023-12-01 10:48:11.178385
465  2023-12-01 10:48:11.225504
466  2023-12-01 10:48:11.270932
467  2023-12-01 10:48:11.301848
468  2023-12-01 10:48:11.348270
469  2023-12-01 10:48:11.394897
470  2023-12-01 10:48:11.426355
471  2023-12-01 10:48:11.472138
472  2023-12-01 10:48:11.519580
473  2023-12-01 10:48:11.550581
474  2023-12-01 10:48:11.597612
475  2023-12-01 10:48:11.644476
476  2023-12-01 10:48:11.676409
477  2023-12-01 10:48:11.723265
478  2023-12-01 10:48:11.769817
479  2023-12-01 10:48:11.800526
480  2023-12-01 10:48:11.846423
481  2023-12-01 10:48:11.892892
482  2023-12-01 10:48:11.923476
483  2023-12-01 10:48:11.970954
484  2023-12-01 10:48:12.017865
485  2023-12-01 10:48:12.049153
486  2023-12-01 10:48:12.095261
487  2023-12-01 10:48:12.142401
488  2023-12-01 10:48:12.187951
489  2023-12-01 10:48:12.219280
490  2023-12-01 10:48:12.265525
491  2023-12-01 10:48:12.311877
492  2023-12-01 10:48:12.342223
493  2023-12-01 10:48:12.388520
494  2023-12-01 10:48:12.435447
495  2023-12-01 10:48:12.466644
496  2023-12-01 10:48:12.511486
497  2023-12-01 10:48:12.558530
498  2023-12-01 10:48:12.604535
499  2023-12-01 10:48:12.636097
500  2023-12-01 10:48:12.683669
501  2023-12-01 10:48:12.730492
502  2023-12-01 10:48:12.761527
503  2023-12-01 10:48:12.807446
504  2023-12-01 10:48:12.853772
505  2023-12-01 10:48:12.884320
506  2023-12-01 10:48:12.931022
507  2023-12-01 10:48:12.976569
508  2023-12-01 10:48:13.007574
509  2023-12-01 10:48:13.053576
510  2023-12-01 10:48:13.099570
511  2023-12-01 10:48:13.145765
512  2023-12-01 10:48:13.176604
513  2023-12-01 10:48:13.223397
514  2023-12-01 10:48:13.270427
515  2023-12-01 10:48:13.301705
516  2023-12-01 10:48:13.348045
517  2023-12-01 10:48:13.394340
518  2023-12-01 10:48:13.425114
519  2023-12-01 10:48:13.472082
520  2023-12-01 10:48:13.517399
521  2023-12-01 10:48:13.563665
522  2023-12-01 10:48:13.595780
523  2023-12-01 10:48:13.643796
524  2023-12-01 10:48:13.675261
525  2023-12-01 10:48:13.722452
526  2023-12-01 10:48:13.767445
527  2023-12-01 10:48:13.798581
528  2023-12-01 10:48:13.845081
529  2023-12-01 10:48:13.891431
530  2023-12-01 10:48:13.937274
531  2023-12-01 10:48:13.968864
532  2023-12-01 10:48:14.015455
533  2023-12-01 10:48:14.061013
534  2023-12-01 10:48:14.092441
535  2023-12-01 10:48:14.138695
536  2023-12-01 10:48:14.184695
537  2023-12-01 10:48:14.215972
538  2023-12-01 10:48:14.262108
539  2023-12-01 10:48:14.308017
540  2023-12-01 10:48:14.354259
541  2023-12-01 10:48:14.385163
542  2023-12-01 10:48:14.431794
543  2023-12-01 10:48:14.478576
544  2023-12-01 10:48:14.509908
545  2023-12-01 10:48:14.556127
546  2023-12-01 10:48:14.603660
547  2023-12-01 10:48:14.634097
548  2023-12-01 10:48:14.680967
549  2023-12-01 10:48:14.728055
550  2023-12-01 10:48:14.758891
551  2023-12-01 10:48:14.805090
552  2023-12-01 10:48:14.851682
553  2023-12-01 10:48:14.882140
554  2023-12-01 10:48:14.928778
555  2023-12-01 10:48:14.974660
556  2023-12-01 10:48:15.020784
557  2023-12-01 10:48:15.051982
558  2023-12-01 10:48:15.099076
559  2023-12-01 10:48:15.145618
560  2023-12-01 10:48:15.177011
561  2023-12-01 10:48:15.222944
562  2023-12-01 10:48:15.269825
563  2023-12-01 10:48:15.300706
564  2023-12-01 10:48:15.346771
565  2023-12-01 10:48:15.393569
566  2023-12-01 10:48:15.424525
567  2023-12-01 10:48:15.470654
568  2023-12-01 10:48:15.516816
569  2023-12-01 10:48:15.563063
570  2023-12-01 10:48:15.596019
571  2023-12-01 10:48:15.642304
572  2023-12-01 10:48:15.674219
573  2023-12-01 10:48:15.721107
574  2023-12-01 10:48:15.767988
575  2023-12-01 10:48:15.799896
576  2023-12-01 10:48:15.847769
577  2023-12-01 10:48:15.895069
578  2023-12-01 10:48:15.926359
579  2023-12-01 10:48:15.972548
580  2023-12-01 10:48:16.022411
581  2023-12-01 10:48:16.049367
582  2023-12-01 10:48:16.102198
583  2023-12-01 10:48:16.152064
584  2023-12-01 10:48:16.175409
585  2023-12-01 10:48:16.223197
586  2023-12-01 10:48:16.270072
587  2023-12-01 10:48:16.300993
588  2023-12-01 10:48:16.348892
589  2023-12-01 10:48:16.396733
590  2023-12-01 10:48:16.428730
591  2023-12-01 10:48:16.476520
592  2023-12-01 10:48:16.507371
593  2023-12-01 10:48:16.554631
594  2023-12-01 10:48:16.601502
595  2023-12-01 10:48:16.632420
596  2023-12-01 10:48:16.681322
597  2023-12-01 10:48:16.727165
598  2023-12-01 10:48:16.757933
599  2023-12-01 10:48:16.804808
600  2023-12-01 10:48:16.850801
601  2023-12-01 10:48:16.895566
602  2023-12-01 10:48:16.926514
603  2023-12-01 10:48:16.973357
604  2023-12-01 10:48:17.021229
605  2023-12-01 10:48:17.051150
606  2023-12-01 10:48:17.099022
607  2023-12-01 10:48:17.146894
608  2023-12-01 10:48:17.178016
609  2023-12-01 10:48:17.225051
610  2023-12-01 10:48:17.269589
611  2023-12-01 10:48:17.300849
612  2023-12-01 10:48:17.347897
613  2023-12-01 10:48:17.395423
614  2023-12-01 10:48:17.426259
615  2023-12-01 10:48:17.474109
616  2023-12-01 10:48:17.520870
617  2023-12-01 10:48:17.551473
618  2023-12-01 10:48:17.598326
619  2023-12-01 10:48:17.644727
620  2023-12-01 10:48:17.675516
621  2023-12-01 10:48:17.722393
622  2023-12-01 10:48:17.769663
623  2023-12-01 10:48:17.800532
624  2023-12-01 10:48:17.847171
625  2023-12-01 10:48:17.893992
626  2023-12-01 10:48:17.924612
627  2023-12-01 10:48:17.971574
628  2023-12-01 10:48:18.019269
629  2023-12-01 10:48:18.050428
630  2023-12-01 10:48:18.097210
631  2023-12-01 10:48:18.144005
632  2023-12-01 10:48:18.175562
633  2023-12-01 10:48:18.222219
634  2023-12-01 10:48:18.267627
635  2023-12-01 10:48:18.299270
636  2023-12-01 10:48:18.346276
637  2023-12-01 10:48:18.394548
638  2023-12-01 10:48:18.424386
639  2023-12-01 10:48:18.471525
640  2023-12-01 10:48:18.517503
641  2023-12-01 10:48:18.563781
642  2023-12-01 10:48:18.594971
643  2023-12-01 10:48:18.640129
644  2023-12-01 10:48:18.686724
645  2023-12-01 10:48:18.717544
646  2023-12-01 10:48:18.763681
647  2023-12-01 10:48:18.810526
648  2023-12-01 10:48:18.841534
649  2023-12-01 10:48:18.888401
650  2023-12-01 10:48:18.934946
651  2023-12-01 10:48:18.965664
652  2023-12-01 10:48:19.011940
653  2023-12-01 10:48:19.058522
654  2023-12-01 10:48:19.105769
655  2023-12-01 10:48:19.136232
656  2023-12-01 10:48:19.183411
657  2023-12-01 10:48:19.229480
658  2023-12-01 10:48:19.260602
659  2023-12-01 10:48:19.307407
660  2023-12-01 10:48:19.354769
661  2023-12-01 10:48:19.386028
662  2023-12-01 10:48:19.432619
663  2023-12-01 10:48:19.478507
664  2023-12-01 10:48:19.509856
665  2023-12-01 10:48:19.559280
666  2023-12-01 10:48:19.603194
667  2023-12-01 10:48:19.634119
668  2023-12-01 10:48:19.681952
669  2023-12-01 10:48:19.729505
670  2023-12-01 10:48:19.760079
671  2023-12-01 10:48:19.806852
672  2023-12-01 10:48:19.853426
673  2023-12-01 10:48:19.884653
674  2023-12-01 10:48:19.930700
675  2023-12-01 10:48:19.977545
676  2023-12-01 10:48:20.008913
677  2023-12-01 10:48:20.054369
678  2023-12-01 10:48:20.101153
679  2023-12-01 10:48:20.133104
680  2023-12-01 10:48:20.179844
681  2023-12-01 10:48:20.226573
682  2023-12-01 10:48:20.257365
683  2023-12-01 10:48:20.303603
684  2023-12-01 10:48:20.350583
685  2023-12-01 10:48:20.397006
686  2023-12-01 10:48:20.428369
687  2023-12-01 10:48:20.474844
688  2023-12-01 10:48:20.520783
689  2023-12-01 10:48:20.552398
690  2023-12-01 10:48:20.597300
691  2023-12-01 10:48:20.643257
692  2023-12-01 10:48:20.674325
693  2023-12-01 10:48:20.720693
694  2023-12-01 10:48:20.767635
695  2023-12-01 10:48:20.798598
696  2023-12-01 10:48:20.844952
697  2023-12-01 10:48:20.891146
698  2023-12-01 10:48:20.937216
699  2023-12-01 10:48:20.968756
700  2023-12-01 10:48:21.016009
701  2023-12-01 10:48:21.061473
702  2023-12-01 10:48:21.092980
703  2023-12-01 10:48:21.138910
704  2023-12-01 10:48:21.185320
705  2023-12-01 10:48:21.216849
706  2023-12-01 10:48:21.263891
707  2023-12-01 10:48:21.310567
708  2023-12-01 10:48:21.341481
709  2023-12-01 10:48:21.387789
710  2023-12-01 10:48:21.433363
711  2023-12-01 10:48:21.480678
712  2023-12-01 10:48:21.512261
713  2023-12-01 10:48:21.559506
714  2023-12-01 10:48:21.604878
715  2023-12-01 10:48:21.636450
716  2023-12-01 10:48:21.683610
717  2023-12-01 10:48:21.729500
718  2023-12-01 10:48:21.761966
719  2023-12-01 10:48:21.808049
720  2023-12-01 10:48:21.854540
721  2023-12-01 10:48:21.886176
722  2023-12-01 10:48:21.932119
723  2023-12-01 10:48:21.978887
724  2023-12-01 10:48:22.010129
725  2023-12-01 10:48:22.057063
726  2023-12-01 10:48:22.104056
727  2023-12-01 10:48:22.135817
728  2023-12-01 10:48:22.183196
729  2023-12-01 10:48:22.228336
730  2023-12-01 10:48:22.258885
731  2023-12-01 10:48:22.305364
732  2023-12-01 10:48:22.352036
733  2023-12-01 10:48:22.383523
734  2023-12-01 10:48:22.429454
735  2023-12-01 10:48:22.477161
736  2023-12-01 10:48:22.508452
737  2023-12-01 10:48:22.555140
738  2023-12-01 10:48:22.601776
739  2023-12-01 10:48:22.632659
740  2023-12-01 10:48:22.680098
741  2023-12-01 10:48:22.726306
742  2023-12-01 10:48:22.757053
743  2023-12-01 10:48:22.802671
744  2023-12-01 10:48:22.849120
745  2023-12-01 10:48:22.895903
746  2023-12-01 10:48:22.927651
747  2023-12-01 10:48:22.973617
748  2023-12-01 10:48:23.019753
749  2023-12-01 10:48:23.050867
750  2023-12-01 10:48:23.097828
751  2023-12-01 10:48:23.144783
752  2023-12-01 10:48:23.175999
753  2023-12-01 10:48:23.222305
754  2023-12-01 10:48:23.268724
755  2023-12-01 10:48:23.299254
756  2023-12-01 10:48:23.345390
757  2023-12-01 10:48:23.391810
758  2023-12-01 10:48:23.438564
759  2023-12-01 10:48:23.470189
760  2023-12-01 10:48:23.517583
761  2023-12-01 10:48:23.563141
762  2023-12-01 10:48:23.593958
763  2023-12-01 10:48:23.640543
764  2023-12-01 10:48:23.687504
765  2023-12-01 10:48:23.720607
766  2023-12-01 10:48:23.766097
767  2023-12-01 10:48:23.812729
768  2023-12-01 10:48:23.843745
769  2023-12-01 10:48:23.890304
770  2023-12-01 10:48:23.936927
771  2023-12-01 10:48:23.967672
772  2023-12-01 10:48:24.014546
773  2023-12-01 10:48:24.061269
774  2023-12-01 10:48:24.091994
775  2023-12-01 10:48:24.138254
776  2023-12-01 10:48:24.185169
777  2023-12-01 10:48:24.216002
778  2023-12-01 10:48:24.262418
779  2023-12-01 10:48:24.308233
780  2023-12-01 10:48:24.354429
781  2023-12-01 10:48:24.385744
782  2023-12-01 10:48:24.433521
783  2023-12-01 10:48:24.465812
784  2023-12-01 10:48:24.512679
785  2023-12-01 10:48:24.558529
786  2023-12-01 10:48:24.604420
787  2023-12-01 10:48:24.635317
788  2023-12-01 10:48:24.683129
789  2023-12-01 10:48:24.729844
790  2023-12-01 10:48:24.760872
791  2023-12-01 10:48:24.807145
792  2023-12-01 10:48:24.855131
793  2023-12-01 10:48:24.886279
794  2023-12-01 10:48:24.932039
795  2023-12-01 10:48:24.978930
796  2023-12-01 10:48:25.010737
797  2023-12-01 10:48:25.056961
798  2023-12-01 10:48:25.103493
799  2023-12-01 10:48:25.134637
800  2023-12-01 10:48:25.180221
801  2023-12-01 10:48:25.227099
802  2023-12-01 10:48:25.257737
803  2023-12-01 10:48:25.303914
804  2023-12-01 10:48:25.350833
805  2023-12-01 10:48:25.382900
806  2023-12-01 10:48:25.430555
807  2023-12-01 10:48:25.476874
808  2023-12-01 10:48:25.507239
809  2023-12-01 10:48:25.554535
810  2023-12-01 10:48:25.601953
811  2023-12-01 10:48:25.633176
812  2023-12-01 10:48:25.679632
813  2023-12-01 10:48:25.727531
814  2023-12-01 10:48:25.757384
815  2023-12-01 10:48:25.803894
816  2023-12-01 10:48:25.851065
817  2023-12-01 10:48:25.896668
818  2023-12-01 10:48:25.927637
819  2023-12-01 10:48:25.975742
820  2023-12-01 10:48:26.023331
821  2023-12-01 10:48:26.054301
822  2023-12-01 10:48:26.101379
823  2023-12-01 10:48:26.146770
824  2023-12-01 10:48:26.177570
825  2023-12-01 10:48:26.223559
826  2023-12-01 10:48:26.270199
827  2023-12-01 10:48:26.301420
828  2023-12-01 10:48:26.348443
829  2023-12-01 10:48:26.394364
830  2023-12-01 10:48:26.425385
831  2023-12-01 10:48:26.472478
832  2023-12-01 10:48:26.518555
833  2023-12-01 10:48:26.550601
834  2023-12-01 10:48:26.596035
835  2023-12-01 10:48:26.641989
836  2023-12-01 10:48:26.673923
837  2023-12-01 10:48:26.719990
838  2023-12-01 10:48:26.766497
839  2023-12-01 10:48:26.812474
840  2023-12-01 10:48:26.843773
841  2023-12-01 10:48:26.890592
842  2023-12-01 10:48:26.937393
843  2023-12-01 10:48:26.968607
844  2023-12-01 10:48:27.016429
845  2023-12-01 10:48:27.048854
846  2023-12-01 10:48:27.095032
847  2023-12-01 10:48:27.142668
848  2023-12-01 10:48:27.173888
849  2023-12-01 10:48:27.221085
850  2023-12-01 10:48:27.267255
851  2023-12-01 10:48:27.313679
852  2023-12-01 10:48:27.345466
853  2023-12-01 10:48:27.391528
854  2023-12-01 10:48:27.437413
855  2023-12-01 10:48:27.469118
856  2023-12-01 10:48:27.515674
857  2023-12-01 10:48:27.561529
858  2023-12-01 10:48:27.592382
859  2023-12-01 10:48:27.639002
860  2023-12-01 10:48:27.686298
861  2023-12-01 10:48:27.718815
862  2023-12-01 10:48:27.764019
863  2023-12-01 10:48:27.811597
864  2023-12-01 10:48:27.842334
865  2023-12-01 10:48:27.888181
866  2023-12-01 10:48:27.934505
867  2023-12-01 10:48:27.966515
868  2023-12-01 10:48:28.013284
869  2023-12-01 10:48:28.059065
870  2023-12-01 10:48:28.105335
871  2023-12-01 10:48:28.135069
872  2023-12-01 10:48:28.181639
873  2023-12-01 10:48:28.228070
874  2023-12-01 10:48:28.259325
875  2023-12-01 10:48:28.305588
876  2023-12-01 10:48:28.352238
877  2023-12-01 10:48:28.383621
878  2023-12-01 10:48:28.429109
879  2023-12-01 10:48:28.475572
880  2023-12-01 10:48:28.521273
881  2023-12-01 10:48:28.552907
882  2023-12-01 10:48:28.599458
883  2023-12-01 10:48:28.646557
884  2023-12-01 10:48:28.676675
885  2023-12-01 10:48:28.724007
886  2023-12-01 10:48:28.769922
887  2023-12-01 10:48:28.800447
888  2023-12-01 10:48:28.847519
889  2023-12-01 10:48:28.893402
890  2023-12-01 10:48:28.924908
891  2023-12-01 10:48:28.971325
892  2023-12-01 10:48:29.018739
893  2023-12-01 10:48:29.050593
894  2023-12-01 10:48:29.097256
895  2023-12-01 10:48:29.144464
896  2023-12-01 10:48:29.176497
897  2023-12-01 10:48:29.222530
898  2023-12-01 10:48:29.269344
899  2023-12-01 10:48:29.300555
900  2023-12-01 10:48:29.347208
901  2023-12-01 10:48:29.393315
902  2023-12-01 10:48:29.423792
903  2023-12-01 10:48:29.471334
904  2023-12-01 10:48:29.518520
905  2023-12-01 10:48:29.550609
906  2023-12-01 10:48:29.596494
907  2023-12-01 10:48:29.642537
908  2023-12-01 10:48:29.673909
909  2023-12-01 10:48:29.719553
910  2023-12-01 10:48:29.766383
911  2023-12-01 10:48:29.813438
912  2023-12-01 10:48:29.843532
913  2023-12-01 10:48:29.890126
914  2023-12-01 10:48:29.937067
915  2023-12-01 10:48:29.969203
916  2023-12-01 10:48:30.015687
917  2023-12-01 10:48:30.060974
918  2023-12-01 10:48:30.092032
919  2023-12-01 10:48:30.138450
920  2023-12-01 10:48:30.185659
921  2023-12-01 10:48:30.216619
922  2023-12-01 10:48:30.262755
923  2023-12-01 10:48:30.310269
924  2023-12-01 10:48:30.341402
925  2023-12-01 10:48:30.389301
926  2023-12-01 10:48:30.435116
927  2023-12-01 10:48:30.466405
928  2023-12-01 10:48:30.511801
929  2023-12-01 10:48:30.558407
930  2023-12-01 10:48:30.604835
931  2023-12-01 10:48:30.636395
932  2023-12-01 10:48:30.682469
933  2023-12-01 10:48:30.729210
934  2023-12-01 10:48:30.760412
935  2023-12-01 10:48:30.806350
936  2023-12-01 10:48:30.853863
937  2023-12-01 10:48:30.884713
938  2023-12-01 10:48:30.932523
939  2023-12-01 10:48:30.978661
940  2023-12-01 10:48:31.008765
941  2023-12-01 10:48:31.054610
942  2023-12-01 10:48:31.102063
943  2023-12-01 10:48:31.132211
944  2023-12-01 10:48:31.178288
945  2023-12-01 10:48:31.225134
946  2023-12-01 10:48:31.271650
947  2023-12-01 10:48:31.303063
948  2023-12-01 10:48:31.348967
949  2023-12-01 10:48:31.396797
950  2023-12-01 10:48:31.429308
951  2023-12-01 10:48:31.476524
952  2023-12-01 10:48:31.507524
953  2023-12-01 10:48:31.555780
954  2023-12-01 10:48:31.601223
955  2023-12-01 10:48:31.632135
956  2023-12-01 10:48:31.677476
957  2023-12-01 10:48:31.722913
958  2023-12-01 10:48:31.769653
959  2023-12-01 10:48:31.801242
960  2023-12-01 10:48:31.847651
961  2023-12-01 10:48:31.894581
962  2023-12-01 10:48:31.926491
963  2023-12-01 10:48:31.973295
964  2023-12-01 10:48:32.019779
965  2023-12-01 10:48:32.050461
966  2023-12-01 10:48:32.096486
967  2023-12-01 10:48:32.143578
968  2023-12-01 10:48:32.174663
969  2023-12-01 10:48:32.221377
970  2023-12-01 10:48:32.268221
971  2023-12-01 10:48:32.299107
972  2023-12-01 10:48:32.345341
973  2023-12-01 10:48:32.391742
974  2023-12-01 10:48:32.438312
975  2023-12-01 10:48:32.469102
976  2023-12-01 10:48:32.514847
977  2023-12-01 10:48:32.561758
978  2023-12-01 10:48:32.592460
979  2023-12-01 10:48:32.638388
980  2023-12-01 10:48:32.685253
981  2023-12-01 10:48:32.715410
982  2023-12-01 10:48:32.761328
983  2023-12-01 10:48:32.807533
984  2023-12-01 10:48:32.854200
985  2023-12-01 10:48:32.885711
986  2023-12-01 10:48:32.933057
987  2023-12-01 10:48:32.965251
988  2023-12-01 10:48:33.013015
989  2023-12-01 10:48:33.060942
990  2023-12-01 10:48:33.092163
991  2023-12-01 10:48:33.137829
992  2023-12-01 10:48:33.183688
993  2023-12-01 10:48:33.229228
994  2023-12-01 10:48:33.260307
995  2023-12-01 10:48:33.306677
996  2023-12-01 10:48:33.353067
997  2023-12-01 10:48:33.384347
998  2023-12-01 10:48:33.432380
999  2023-12-01 10:48:33.478310
1000  2023-12-01 10:48:33.509796
1001  2023-12-01 10:48:33.556100
1002  2023-12-01 10:48:33.603643
1003  2023-12-01 10:48:33.634759
1004  2023-12-01 10:48:33.681404
1005  2023-12-01 10:48:33.727561
1006  2023-12-01 10:48:33.758596
1007  2023-12-01 10:48:33.806521
1008  2023-12-01 10:48:33.853349
1009  2023-12-01 10:48:33.883416
1010  2023-12-01 10:48:33.930647
1011  2023-12-01 10:48:33.978491
1012  2023-12-01 10:48:34.008672
1013  2023-12-01 10:48:34.054113
1014  2023-12-01 10:48:34.101431
1015  2023-12-01 10:48:34.146641
1016  2023-12-01 10:48:34.178331
1017  2023-12-01 10:48:34.224796
1018  2023-12-01 10:48:34.271946
1019  2023-12-01 10:48:34.302233
1020  2023-12-01 10:48:34.348442
1021  2023-12-01 10:48:34.394858
1022  2023-12-01 10:48:34.425935
1023  2023-12-01 10:48:34.471694
1024  2023-12-01 10:48:34.517615
1025  2023-12-01 10:48:34.549139
1026  2023-12-01 10:48:34.596551
1027  2023-12-01 10:48:34.643333
1028  2023-12-01 10:48:34.674059
1029  2023-12-01 10:48:34.721678
1030  2023-12-01 10:48:34.769302
1031  2023-12-01 10:48:34.800167
1032  2023-12-01 10:48:34.847527
1033  2023-12-01 10:48:34.894440
1034  2023-12-01 10:48:34.926539
1035  2023-12-01 10:48:34.972563
1036  2023-12-01 10:48:35.020699
1037  2023-12-01 10:48:35.050153
1038  2023-12-01 10:48:35.096971
1039  2023-12-01 10:48:35.144142
1040  2023-12-01 10:48:35.175786
1041  2023-12-01 10:48:35.222983
1042  2023-12-01 10:48:35.269453
1043  2023-12-01 10:48:35.300898
1044  2023-12-01 10:48:35.346897
1045  2023-12-01 10:48:35.394566
1046  2023-12-01 10:48:35.426778
1047  2023-12-01 10:48:35.474232
1048  2023-12-01 10:48:35.519927
1049  2023-12-01 10:48:35.551383
1050  2023-12-01 10:48:35.597849
1051  2023-12-01 10:48:35.645390
1052  2023-12-01 10:48:35.676587
1053  2023-12-01 10:48:35.723583
1054  2023-12-01 10:48:35.769577
1055  2023-12-01 10:48:35.800650
1056  2023-12-01 10:48:35.846172
1057  2023-12-01 10:48:35.893096
1058  2023-12-01 10:48:35.925149
1059  2023-12-01 10:48:35.971689
1060  2023-12-01 10:48:36.018026
1061  2023-12-01 10:48:36.049370
1062  2023-12-01 10:48:36.097036
1063  2023-12-01 10:48:36.142438
1064  2023-12-01 10:48:36.187946
1065  2023-12-01 10:48:36.219863
1066  2023-12-01 10:48:36.267098
1067  2023-12-01 10:48:36.313656
1068  2023-12-01 10:48:36.344524
1069  2023-12-01 10:48:36.390389
1070  2023-12-01 10:48:36.437785
1071  2023-12-01 10:48:36.469614
1072  2023-12-01 10:48:36.516212
1073  2023-12-01 10:48:36.563488
1074  2023-12-01 10:48:36.593979
1075  2023-12-01 10:48:36.639384
1076  2023-12-01 10:48:36.686253
1077  2023-12-01 10:48:36.717536
1078  2023-12-01 10:48:36.764204
1079  2023-12-01 10:48:36.810942
1080  2023-12-01 10:48:36.841657
1081  2023-12-01 10:48:36.889255
1082  2023-12-01 10:48:36.935465
1083  2023-12-01 10:48:36.966664
1084  2023-12-01 10:48:37.012693
1085  2023-12-01 10:48:37.058536
1086  2023-12-01 10:48:37.106193
1087  2023-12-01 10:48:37.135690
1088  2023-12-01 10:48:37.182613
1089  2023-12-01 10:48:37.229438
1090  2023-12-01 10:48:37.260090
1091  2023-12-01 10:48:37.307121
1092  2023-12-01 10:48:37.354113
1093  2023-12-01 10:48:37.384786
1094  2023-12-01 10:48:37.432399
1095  2023-12-01 10:48:37.478972
1096  2023-12-01 10:48:37.509170
1097  2023-12-01 10:48:37.556290
1098  2023-12-01 10:48:37.602954
1099  2023-12-01 10:48:37.635190
1100  2023-12-01 10:48:37.681217
1101  2023-12-01 10:48:37.726566
1102  2023-12-01 10:48:37.756943
1103  2023-12-01 10:48:37.803545
1104  2023-12-01 10:48:37.849696
1105  2023-12-01 10:48:37.896621
1106  2023-12-01 10:48:37.926988
1107  2023-12-01 10:48:37.974190
1108  2023-12-01 10:48:38.020901
1109  2023-12-01 10:48:38.051829
1110  2023-12-01 10:48:38.097359
1111  2023-12-01 10:48:38.143590
1112  2023-12-01 10:48:38.175461
1113  2023-12-01 10:48:38.220910
1114  2023-12-01 10:48:38.267028
1115  2023-12-01 10:48:38.314134
1116  2023-12-01 10:48:38.344789
1117  2023-12-01 10:48:38.392004
1118  2023-12-01 10:48:38.438386
1119  2023-12-01 10:48:38.468991
1120  2023-12-01 10:48:38.515681
1121  2023-12-01 10:48:38.562699
1122  2023-12-01 10:48:38.593360
1123  2023-12-01 10:48:38.639386
1124  2023-12-01 10:48:38.685619
1125  2023-12-01 10:48:38.716999
1126  2023-12-01 10:48:38.762686
1127  2023-12-01 10:48:38.809598
1128  2023-12-01 10:48:38.840365
1129  2023-12-01 10:48:38.887757
1130  2023-12-01 10:48:38.935030
1131  2023-12-01 10:48:38.965303
1132  2023-12-01 10:48:39.011410
1133  2023-12-01 10:48:39.058957
1134  2023-12-01 10:48:39.104486
1135  2023-12-01 10:48:39.135982
1136  2023-12-01 10:48:39.182884
1137  2023-12-01 10:48:39.229435
1138  2023-12-01 10:48:39.259927
1139  2023-12-01 10:48:39.306191
1140  2023-12-01 10:48:39.352292
1141  2023-12-01 10:48:39.384509
1142  2023-12-01 10:48:39.430941
1143  2023-12-01 10:48:39.476968
1144  2023-12-01 10:48:39.507792
1145  2023-12-01 10:48:39.554182
1146  2023-12-01 10:48:39.602290
1147  2023-12-01 10:48:39.632358
1148  2023-12-01 10:48:39.678420
1149  2023-12-01 10:48:39.724652
1150  2023-12-01 10:48:39.770927
1151  2023-12-01 10:48:39.801265
1152  2023-12-01 10:48:39.847310
1153  2023-12-01 10:48:39.894548
1154  2023-12-01 10:48:39.925400
1155  2023-12-01 10:48:39.971554
1156  2023-12-01 10:48:40.017987
1157  2023-12-01 10:48:40.049713
1158  2023-12-01 10:48:40.096056
1159  2023-12-01 10:48:40.142556
1160  2023-12-01 10:48:40.188728
1161  2023-12-01 10:48:40.220001
1162  2023-12-01 10:48:40.266842
1163  2023-12-01 10:48:40.313638
1164  2023-12-01 10:48:40.343911
1165  2023-12-01 10:48:40.389651
1166  2023-12-01 10:48:40.435442
1167  2023-12-01 10:48:40.467762
1168  2023-12-01 10:48:40.512712
1169  2023-12-01 10:48:40.560648
1170  2023-12-01 10:48:40.592979
1171  2023-12-01 10:48:40.637397
1172  2023-12-01 10:48:40.684061
1173  2023-12-01 10:48:40.715608
1174  2023-12-01 10:48:40.762145
1175  2023-12-01 10:48:40.809446
1176  2023-12-01 10:48:40.840396
1177  2023-12-01 10:48:40.887338
1178  2023-12-01 10:48:40.933363
1179  2023-12-01 10:48:40.979987
1180  2023-12-01 10:48:41.010705
1181  2023-12-01 10:48:41.057677
1182  2023-12-01 10:48:41.105012
1183  2023-12-01 10:48:41.136580
1184  2023-12-01 10:48:41.182450
1185  2023-12-01 10:48:41.228452
1186  2023-12-01 10:48:41.259464
1187  2023-12-01 10:48:41.305517
1188  2023-12-01 10:48:41.352517
1189  2023-12-01 10:48:41.384575
1190  2023-12-01 10:48:41.430632
1191  2023-12-01 10:48:41.477029
1192  2023-12-01 10:48:41.507399
1193  2023-12-01 10:48:41.554603
1194  2023-12-01 10:48:41.600721
1195  2023-12-01 10:48:41.632534
1196  2023-12-01 10:48:41.679484
1197  2023-12-01 10:48:41.724564
1198  2023-12-01 10:48:41.770419
1199  2023-12-01 10:48:41.802556
1200  2023-12-01 10:48:41.849670
1201  2023-12-01 10:48:41.895402
1202  2023-12-01 10:48:41.926557
1203  2023-12-01 10:48:41.972374
1204  2023-12-01 10:48:42.018539
1205  2023-12-01 10:48:42.049280
1206  2023-12-01 10:48:42.096531
1207  2023-12-01 10:48:42.143543
1208  2023-12-01 10:48:42.174542
1209  2023-12-01 10:48:42.220861
1210  2023-12-01 10:48:42.267061
1211  2023-12-01 10:48:42.313694
1212  2023-12-01 10:48:42.344701
1213  2023-12-01 10:48:42.391594
1214  2023-12-01 10:48:42.437685
1215  2023-12-01 10:48:42.469439
1216  2023-12-01 10:48:42.514964
1217  2023-12-01 10:48:42.561449
1218  2023-12-01 10:48:42.592363
1219  2023-12-01 10:48:42.639395
1220  2023-12-01 10:48:42.686561
1221  2023-12-01 10:48:42.717995
1222  2023-12-01 10:48:42.764199
1223  2023-12-01 10:48:42.810697
1224  2023-12-01 10:48:42.841462
1225  2023-12-01 10:48:42.888368
1226  2023-12-01 10:48:42.934334
1227  2023-12-01 10:48:42.965927
1228  2023-12-01 10:48:43.012140
1229  2023-12-01 10:48:43.058394
1230  2023-12-01 10:48:43.105090
1231  2023-12-01 10:48:43.136910
1232  2023-12-01 10:48:43.183458
1233  2023-12-01 10:48:43.231679
1234  2023-12-01 10:48:43.262658
1235  2023-12-01 10:48:43.307943
1236  2023-12-01 10:48:43.354658
1237  2023-12-01 10:48:43.385708
1238  2023-12-01 10:48:43.432530
1239  2023-12-01 10:48:43.480519
1240  2023-12-01 10:48:43.512601
1241  2023-12-01 10:48:43.558776
1242  2023-12-01 10:48:43.605894
1243  2023-12-01 10:48:43.636559
1244  2023-12-01 10:48:43.683348
1245  2023-12-01 10:48:43.729897
1246  2023-12-01 10:48:43.760264
1247  2023-12-01 10:48:43.807944
1248  2023-12-01 10:48:43.855594
1249  2023-12-01 10:48:43.886736
1250  2023-12-01 10:48:43.933600
1251  2023-12-01 10:48:43.979786
1252  2023-12-01 10:48:44.010649
1253  2023-12-01 10:48:44.057568
1254  2023-12-01 10:48:44.104405
1255  2023-12-01 10:48:44.135419
1256  2023-12-01 10:48:44.181708
1257  2023-12-01 10:48:44.228539
1258  2023-12-01 10:48:44.259697
1259  2023-12-01 10:48:44.305458
1260  2023-12-01 10:48:44.352599
1261  2023-12-01 10:48:44.383641
1262  2023-12-01 10:48:44.431435
1263  2023-12-01 10:48:44.478297
1264  2023-12-01 10:48:44.509951
1265  2023-12-01 10:48:44.556150
1266  2023-12-01 10:48:44.602721
1267  2023-12-01 10:48:44.634018
1268  2023-12-01 10:48:44.680792
1269  2023-12-01 10:48:44.728475
1270  2023-12-01 10:48:44.760982
1271  2023-12-01 10:48:44.807161
1272  2023-12-01 10:48:44.852751
1273  2023-12-01 10:48:44.884774
1274  2023-12-01 10:48:44.931545
1275  2023-12-01 10:48:44.979342
1276  2023-12-01 10:48:45.010091
1277  2023-12-01 10:48:45.057427
1278  2023-12-01 10:48:45.104802
1279  2023-12-01 10:48:45.137081
1280  2023-12-01 10:48:45.181949
1281  2023-12-01 10:48:45.228563
1282  2023-12-01 10:48:45.260154
1283  2023-12-01 10:48:45.304720
1284  2023-12-01 10:48:45.350867
1285  2023-12-01 10:48:45.396765
1286  2023-12-01 10:48:45.427792
1287  2023-12-01 10:48:45.474273
1288  2023-12-01 10:48:45.520349
1289  2023-12-01 10:48:45.551171
1290  2023-12-01 10:48:45.599391
1291  2023-12-01 10:48:45.643582
1292  2023-12-01 10:48:45.674685
1293  2023-12-01 10:48:45.721667
1294  2023-12-01 10:48:45.768602
1295  2023-12-01 10:48:45.799481
1296  2023-12-01 10:48:45.846081
1297  2023-12-01 10:48:45.893426
1298  2023-12-01 10:48:45.924502
1299  2023-12-01 10:48:45.972093
1300  2023-12-01 10:48:46.019663
1301  2023-12-01 10:48:46.050567
1302  2023-12-01 10:48:46.096645
1303  2023-12-01 10:48:46.142617
1304  2023-12-01 10:48:46.174395
1305  2023-12-01 10:48:46.219105
1306  2023-12-01 10:48:46.265610
1307  2023-12-01 10:48:46.312681
1308  2023-12-01 10:48:46.343437
1309  2023-12-01 10:48:46.389922
1310  2023-12-01 10:48:46.436643
1311  2023-12-01 10:48:46.467689
1312  2023-12-01 10:48:46.514350
1313  2023-12-01 10:48:46.560512
1314  2023-12-01 10:48:46.592349
1315  2023-12-01 10:48:46.640684
1316  2023-12-01 10:48:46.688418
1317  2023-12-01 10:48:46.718829
1318  2023-12-01 10:48:46.765313
1319  2023-12-01 10:48:46.811973
1320  2023-12-01 10:48:46.843421
1321  2023-12-01 10:48:46.889882
1322  2023-12-01 10:48:46.936609
1323  2023-12-01 10:48:46.968565
1324  2023-12-01 10:48:47.014991
1325  2023-12-01 10:48:47.061276
1326  2023-12-01 10:48:47.092566
1327  2023-12-01 10:48:47.139686
1328  2023-12-01 10:48:47.185730
1329  2023-12-01 10:48:47.217091
1330  2023-12-01 10:48:47.263348
1331  2023-12-01 10:48:47.310264
1332  2023-12-01 10:48:47.341277
1333  2023-12-01 10:48:47.387273
1334  2023-12-01 10:48:47.433612
1335  2023-12-01 10:48:47.465345
1336  2023-12-01 10:48:47.511671
1337  2023-12-01 10:48:47.556976
1338  2023-12-01 10:48:47.603891
1339  2023-12-01 10:48:47.634513
1340  2023-12-01 10:48:47.681096
1341  2023-12-01 10:48:47.727237
1342  2023-12-01 10:48:47.759299
1343  2023-12-01 10:48:47.807194
1344  2023-12-01 10:48:47.853421
1345  2023-12-01 10:48:47.885612
1346  2023-12-01 10:48:47.930497
1347  2023-12-01 10:48:47.976462
1348  2023-12-01 10:48:48.007279
1349  2023-12-01 10:48:48.054095
1350  2023-12-01 10:48:48.099924
1351  2023-12-01 10:48:48.146655
1352  2023-12-01 10:48:48.177864
1353  2023-12-01 10:48:48.224118
1354  2023-12-01 10:48:48.271121
1355  2023-12-01 10:48:48.302091
1356  2023-12-01 10:48:48.349239
1357  2023-12-01 10:48:48.395435
1358  2023-12-01 10:48:48.426658
1359  2023-12-01 10:48:48.472440
1360  2023-12-01 10:48:48.518393
1361  2023-12-01 10:48:48.549648
1362  2023-12-01 10:48:48.595852
1363  2023-12-01 10:48:48.642109
1364  2023-12-01 10:48:48.688224
1365  2023-12-01 10:48:48.719626
1366  2023-12-01 10:48:48.765833
1367  2023-12-01 10:48:48.813733
1368  2023-12-01 10:48:48.845424
1369  2023-12-01 10:48:48.892506
1370  2023-12-01 10:48:48.937715
1371  2023-12-01 10:48:48.969168
1372  2023-12-01 10:48:49.015593
1373  2023-12-01 10:48:49.061844
1374  2023-12-01 10:48:49.092060
1375  2023-12-01 10:48:49.138646
1376  2023-12-01 10:48:49.185846
1377  2023-12-01 10:48:49.216011
1378  2023-12-01 10:48:49.262598
1379  2023-12-01 10:48:49.310983
1380  2023-12-01 10:48:49.341684
1381  2023-12-01 10:48:49.389431
1382  2023-12-01 10:48:49.433468
1383  2023-12-01 10:48:49.480484
1384  2023-12-01 10:48:49.510584
1385  2023-12-01 10:48:49.557102
1386  2023-12-01 10:48:49.603322
1387  2023-12-01 10:48:49.634805
1388  2023-12-01 10:48:49.681255
1389  2023-12-01 10:48:49.728333
1390  2023-12-01 10:48:49.760214
1391  2023-12-01 10:48:49.807235
1392  2023-12-01 10:48:49.855099
1393  2023-12-01 10:48:49.885006
1394  2023-12-01 10:48:49.932882
1395  2023-12-01 10:48:49.978886
1396  2023-12-01 10:48:50.008505
1397  2023-12-01 10:48:50.054832
1398  2023-12-01 10:48:50.101201
1399  2023-12-01 10:48:50.132016
1400  2023-12-01 10:48:50.179579
1401  2023-12-01 10:48:50.225277
1402  2023-12-01 10:48:50.272326
1403  2023-12-01 10:48:50.303885
1404  2023-12-01 10:48:50.350025
1405  2023-12-01 10:48:50.381976
1406  2023-12-01 10:48:50.428710
1407  2023-12-01 10:48:50.473926
1408  2023-12-01 10:48:50.521402
1409  2023-12-01 10:48:50.551444
1410  2023-12-01 10:48:50.598141
1411  2023-12-01 10:48:50.645254
1412  2023-12-01 10:48:50.675386
1413  2023-12-01 10:48:50.721478
1414  2023-12-01 10:48:50.767668
1415  2023-12-01 10:48:50.798719
1416  2023-12-01 10:48:50.845864
1417  2023-12-01 10:48:50.891683
1418  2023-12-01 10:48:50.939672
1419  2023-12-01 10:48:50.968633
1420  2023-12-01 10:48:51.014858
1421  2023-12-01 10:48:51.061086
1422  2023-12-01 10:48:51.092721
1423  2023-12-01 10:48:51.138829
1424  2023-12-01 10:48:51.184854
1425  2023-12-01 10:48:51.215892
1426  2023-12-01 10:48:51.262323
1427  2023-12-01 10:48:51.309224
1428  2023-12-01 10:48:51.340713
1429  2023-12-01 10:48:51.387207
1430  2023-12-01 10:48:51.433185
1431  2023-12-01 10:48:51.479668
1432  2023-12-01 10:48:51.511038
1433  2023-12-01 10:48:51.557871
1434  2023-12-01 10:48:51.603329
1435  2023-12-01 10:48:51.634538
1436  2023-12-01 10:48:51.680557
1437  2023-12-01 10:48:51.727350
1438  2023-12-01 10:48:51.758747
1439  2023-12-01 10:48:51.804682
1440  2023-12-01 10:48:51.851229
1441  2023-12-01 10:48:51.883167
1442  2023-12-01 10:48:51.929090
1443  2023-12-01 10:48:51.975470
1444  2023-12-01 10:48:52.021973
1445  2023-12-01 10:48:52.052789
1446  2023-12-01 10:48:52.098614
1447  2023-12-01 10:48:52.146052
1448  2023-12-01 10:48:52.177532
1449  2023-12-01 10:48:52.223734
1450  2023-12-01 10:48:52.271601
1451  2023-12-01 10:48:52.302190
1452  2023-12-01 10:48:52.349126
1453  2023-12-01 10:48:52.396184
1454  2023-12-01 10:48:52.427972
1455  2023-12-01 10:48:52.473824
1456  2023-12-01 10:48:52.520444
1457  2023-12-01 10:48:52.550750
1458  2023-12-01 10:48:52.597171
1459  2023-12-01 10:48:52.644640
1460  2023-12-01 10:48:52.675762
1461  2023-12-01 10:48:52.721952
1462  2023-12-01 10:48:52.768044
1463  2023-12-01 10:48:52.798940
1464  2023-12-01 10:48:52.845073
1465  2023-12-01 10:48:52.893164
1466  2023-12-01 10:48:52.939665
1467  2023-12-01 10:48:52.970601
1468  2023-12-01 10:48:53.016692
1469  2023-12-01 10:48:53.048670
1470  2023-12-01 10:48:53.094749
1471  2023-12-01 10:48:53.140123
1472  2023-12-01 10:48:53.185900
1473  2023-12-01 10:48:53.217227
1474  2023-12-01 10:48:53.262348
1475  2023-12-01 10:48:53.308407
1476  2023-12-01 10:48:53.356674
1477  2023-12-01 10:48:53.387909
1478  2023-12-01 10:48:53.433597
1479  2023-12-01 10:48:53.480019
1480  2023-12-01 10:48:53.510260
1481  2023-12-01 10:48:53.557610
1482  2023-12-01 10:48:53.604142
1483  2023-12-01 10:48:53.633761
1484  2023-12-01 10:48:53.680078
1485  2023-12-01 10:48:53.725816
1486  2023-12-01 10:48:53.757828
1487  2023-12-01 10:48:53.803408
1488  2023-12-01 10:48:53.850479
1489  2023-12-01 10:48:53.896596
1490  2023-12-01 10:48:53.927540
1491  2023-12-01 10:48:53.974343
1492  2023-12-01 10:48:54.020380
1493  2023-12-01 10:48:54.052298
1494  2023-12-01 10:48:54.098460
1495  2023-12-01 10:48:54.145125
1496  2023-12-01 10:48:54.176639
1497  2023-12-01 10:48:54.223369
1498  2023-12-01 10:48:54.269877
1499  2023-12-01 10:48:54.299931
1500  2023-12-01 10:48:54.346607
1501  2023-12-01 10:48:54.392685
1502  2023-12-01 10:48:54.424378
1503  2023-12-01 10:48:54.471773
1504  2023-12-01 10:48:54.518452
1505  2023-12-01 10:48:54.550081
1506  2023-12-01 10:48:54.597348
1507  2023-12-01 10:48:54.643442
1508  2023-12-01 10:48:54.674530
1509  2023-12-01 10:48:54.720320
1510  2023-12-01 10:48:54.766588
1511  2023-12-01 10:48:54.812680
1512  2023-12-01 10:48:54.844912
1513  2023-12-01 10:48:54.890377
1514  2023-12-01 10:48:54.936798
1515  2023-12-01 10:48:54.967151
1516  2023-12-01 10:48:55.014271
1517  2023-12-01 10:48:55.061055
1518  2023-12-01 10:48:55.091442
1519  2023-12-01 10:48:55.139506
1520  2023-12-01 10:48:55.185858
1521  2023-12-01 10:48:55.217005
1522  2023-12-01 10:48:55.263110
1523  2023-12-01 10:48:55.310464
1524  2023-12-01 10:48:55.340664
1525  2023-12-01 10:48:55.386986
1526  2023-12-01 10:48:55.433410
1527  2023-12-01 10:48:55.479450
1528  2023-12-01 10:48:55.510341
1529  2023-12-01 10:48:55.555706
1530  2023-12-01 10:48:55.603187
1531  2023-12-01 10:48:55.633933
1532  2023-12-01 10:48:55.681229
1533  2023-12-01 10:48:55.728733
1534  2023-12-01 10:48:55.759592
1535  2023-12-01 10:48:55.806828
1536  2023-12-01 10:48:55.853758
1537  2023-12-01 10:48:55.885240
1538  2023-12-01 10:48:55.931505
1539  2023-12-01 10:48:55.978720
1540  2023-12-01 10:48:56.009879
1541  2023-12-01 10:48:56.054315
1542  2023-12-01 10:48:56.101734
1543  2023-12-01 10:48:56.132605
1544  2023-12-01 10:48:56.179463
1545  2023-12-01 10:48:56.225660
1546  2023-12-01 10:48:56.271693
1547  2023-12-01 10:48:56.302521
1548  2023-12-01 10:48:56.349019
1549  2023-12-01 10:48:56.396844
1550  2023-12-01 10:48:56.427917
1551  2023-12-01 10:48:56.476254
1552  2023-12-01 10:48:56.507595
1553  2023-12-01 10:48:56.553669
1554  2023-12-01 10:48:56.599583
1555  2023-12-01 10:48:56.646341
1556  2023-12-01 10:48:56.676816
1557  2023-12-01 10:48:56.723709
1558  2023-12-01 10:48:56.770072
1559  2023-12-01 10:48:56.800844
1560  2023-12-01 10:48:56.846887
1561  2023-12-01 10:48:56.893287
1562  2023-12-01 10:48:56.924604
1563  2023-12-01 10:48:56.972090
1564  2023-12-01 10:48:57.018472
1565  2023-12-01 10:48:57.049362
1566  2023-12-01 10:48:57.096444
1567  2023-12-01 10:48:57.143002
1568  2023-12-01 10:48:57.174229
1569  2023-12-01 10:48:57.220978
1570  2023-12-01 10:48:57.266257
1571  2023-12-01 10:48:57.312775
1572  2023-12-01 10:48:57.344188
1573  2023-12-01 10:48:57.390732
1574  2023-12-01 10:48:57.437523
1575  2023-12-01 10:48:57.468532
1576  2023-12-01 10:48:57.515649
1577  2023-12-01 10:48:57.561378
1578  2023-12-01 10:48:57.592433
1579  2023-12-01 10:48:57.638557
1580  2023-12-01 10:48:57.684944
1581  2023-12-01 10:48:57.716086
1582  2023-12-01 10:48:57.762902
1583  2023-12-01 10:48:57.808974
1584  2023-12-01 10:48:57.840985
1585  2023-12-01 10:48:57.888802
1586  2023-12-01 10:48:57.935140
1587  2023-12-01 10:48:57.966475
1588  2023-12-01 10:48:58.012983
1589  2023-12-01 10:48:58.060222
1590  2023-12-01 10:48:58.092302
1591  2023-12-01 10:48:58.138632
1592  2023-12-01 10:48:58.185184
1593  2023-12-01 10:48:58.217429
1594  2023-12-01 10:48:58.261719
1595  2023-12-01 10:48:58.308325
1596  2023-12-01 10:48:58.354470
1597  2023-12-01 10:48:58.385502
1598  2023-12-01 10:48:58.432707
1599  2023-12-01 10:48:58.478907
1600  2023-12-01 10:48:58.509858
1601  2023-12-01 10:48:58.556680
1602  2023-12-01 10:48:58.602699
1603  2023-12-01 10:48:58.633643
1604  2023-12-01 10:48:58.681140
1605  2023-12-01 10:48:58.727099
1606  2023-12-01 10:48:58.757691
1607  2023-12-01 10:48:58.803939
1608  2023-12-01 10:48:58.850330
1609  2023-12-01 10:48:58.896903
1610  2023-12-01 10:48:58.928431
1611  2023-12-01 10:48:58.974465
1612  2023-12-01 10:48:59.020782
1613  2023-12-01 10:48:59.051464
1614  2023-12-01 10:48:59.098937
1615  2023-12-01 10:48:59.144645
1616  2023-12-01 10:48:59.175101
1617  2023-12-01 10:48:59.221893
1618  2023-12-01 10:48:59.268789
1619  2023-12-01 10:48:59.299114
1620  2023-12-01 10:48:59.345132
1621  2023-12-01 10:48:59.391122
1622  2023-12-01 10:48:59.437426
1623  2023-12-01 10:48:59.468419
1624  2023-12-01 10:48:59.514468
1625  2023-12-01 10:48:59.560298
1626  2023-12-01 10:48:59.590777
1627  2023-12-01 10:48:59.637603
1628  2023-12-01 10:48:59.683982
1629  2023-12-01 10:48:59.715206
1630  2023-12-01 10:48:59.761241
1631  2023-12-01 10:48:59.808684
1632  2023-12-01 10:48:59.854398
1633  2023-12-01 10:48:59.885163
1634  2023-12-01 10:48:59.931629
1635  2023-12-01 10:48:59.978672
1636  2023-12-01 10:49:00.010127
1637  2023-12-01 10:49:00.058428
1638  2023-12-01 10:49:00.103812
1639  2023-12-01 10:49:00.134646
1640  2023-12-01 10:49:00.182008
1641  2023-12-01 10:49:00.227971
1642  2023-12-01 10:49:00.258671
1643  2023-12-01 10:49:00.304569
1644  2023-12-01 10:49:00.351759
1645  2023-12-01 10:49:00.382779
1646  2023-12-01 10:49:00.428980
1647  2023-12-01 10:49:00.475780
1648  2023-12-01 10:49:00.521511
1649  2023-12-01 10:49:00.553420
1650  2023-12-01 10:49:00.600743
1651  2023-12-01 10:49:00.646824
1652  2023-12-01 10:49:00.677861
1653  2023-12-01 10:49:00.724185
1654  2023-12-01 10:49:00.770513
1655  2023-12-01 10:49:00.801652
1656  2023-12-01 10:49:00.848544
1657  2023-12-01 10:49:00.894619
1658  2023-12-01 10:49:00.925413
1659  2023-12-01 10:49:00.971697
1660  2023-12-01 10:49:01.018755
1661  2023-12-01 10:49:01.051136
1662  2023-12-01 10:49:01.097976
1663  2023-12-01 10:49:01.145847
1664  2023-12-01 10:49:01.177349
1665  2023-12-01 10:49:01.224274
1666  2023-12-01 10:49:01.272096
1667  2023-12-01 10:49:01.301391
1668  2023-12-01 10:49:01.348065
1669  2023-12-01 10:49:01.393839
1670  2023-12-01 10:49:01.424996
1671  2023-12-01 10:49:01.470855
1672  2023-12-01 10:49:01.516659
1673  2023-12-01 10:49:01.562908
1674  2023-12-01 10:49:01.593349
1675  2023-12-01 10:49:01.640768
1676  2023-12-01 10:49:01.688173
1677  2023-12-01 10:49:01.718033
1678  2023-12-01 10:49:01.764080
1679  2023-12-01 10:49:01.810913
1680  2023-12-01 10:49:01.842055
1681  2023-12-01 10:49:01.888952
1682  2023-12-01 10:49:01.936689
1683  2023-12-01 10:49:01.967166
1684  2023-12-01 10:49:02.014535
1685  2023-12-01 10:49:02.061438
1686  2023-12-01 10:49:02.092671
1687  2023-12-01 10:49:02.139344
1688  2023-12-01 10:49:02.186490
1689  2023-12-01 10:49:02.218810
1690  2023-12-01 10:49:02.265659
1691  2023-12-01 10:49:02.311643
1692  2023-12-01 10:49:02.341655
1693  2023-12-01 10:49:02.387416
1694  2023-12-01 10:49:02.433747
1695  2023-12-01 10:49:02.480331
1696  2023-12-01 10:49:02.511692
1697  2023-12-01 10:49:02.557538
1698  2023-12-01 10:49:02.604382
1699  2023-12-01 10:49:02.635415
1700  2023-12-01 10:49:02.682442
1701  2023-12-01 10:49:02.729613
1702  2023-12-01 10:49:02.760373
1703  2023-12-01 10:49:02.809382
1704  2023-12-01 10:49:02.840265
1705  2023-12-01 10:49:02.888152
1706  2023-12-01 10:49:02.932082
1707  2023-12-01 10:49:02.979248
1708  2023-12-01 10:49:03.010205
1709  2023-12-01 10:49:03.055874
1710  2023-12-01 10:49:03.103189
1711  2023-12-01 10:49:03.134425
1712  2023-12-01 10:49:03.180372
1713  2023-12-01 10:49:03.227044
1714  2023-12-01 10:49:03.258662
1715  2023-12-01 10:49:03.305079
1716  2023-12-01 10:49:03.351934
1717  2023-12-01 10:49:03.381887
1718  2023-12-01 10:49:03.428241
1719  2023-12-01 10:49:03.474898
1720  2023-12-01 10:49:03.506780
1721  2023-12-01 10:49:03.553299
1722  2023-12-01 10:49:03.600919
1723  2023-12-01 10:49:03.646428
1724  2023-12-01 10:49:03.676833
1725  2023-12-01 10:49:03.723795
1726  2023-12-01 10:49:03.770030
1727  2023-12-01 10:49:03.801020
1728  2023-12-01 10:49:03.848629
1729  2023-12-01 10:49:03.894984
1730  2023-12-01 10:49:03.927060
1731  2023-12-01 10:49:03.971808
1732  2023-12-01 10:49:04.018386
1733  2023-12-01 10:49:04.049699
1734  2023-12-01 10:49:04.095613
1735  2023-12-01 10:49:04.142615
1736  2023-12-01 10:49:04.174700
1737  2023-12-01 10:49:04.220039
1738  2023-12-01 10:49:04.266962
1739  2023-12-01 10:49:04.299017
1740  2023-12-01 10:49:04.346732
1741  2023-12-01 10:49:04.392789
1742  2023-12-01 10:49:04.425073
1743  2023-12-01 10:49:04.472419
1744  2023-12-01 10:49:04.519576
1745  2023-12-01 10:49:04.549198
1746  2023-12-01 10:49:04.595158
1747  2023-12-01 10:49:04.642234
1748  2023-12-01 10:49:04.687880
1749  2023-12-01 10:49:04.719570
1750  2023-12-01 10:49:04.765443
1751  2023-12-01 10:49:04.811456
1752  2023-12-01 10:49:04.842658
1753  2023-12-01 10:49:04.889699
1754  2023-12-01 10:49:04.936356
1755  2023-12-01 10:49:04.967970
1756  2023-12-01 10:49:05.013123
1757  2023-12-01 10:49:05.059478
1758  2023-12-01 10:49:05.090350
1759  2023-12-01 10:49:05.137040
1760  2023-12-01 10:49:05.183613
1761  2023-12-01 10:49:05.229618
1762  2023-12-01 10:49:05.260233
1763  2023-12-01 10:49:05.306201
1764  2023-12-01 10:49:05.352794
1765  2023-12-01 10:49:05.384434
1766  2023-12-01 10:49:05.430871
1767  2023-12-01 10:49:05.478866
1768  2023-12-01 10:49:05.509883
1769  2023-12-01 10:49:05.556780
1770  2023-12-01 10:49:05.603524
1771  2023-12-01 10:49:05.634827
1772  2023-12-01 10:49:05.681542
1773  2023-12-01 10:49:05.729046
1774  2023-12-01 10:49:05.760110
1775  2023-12-01 10:49:05.807586
1776  2023-12-01 10:49:05.854171
1777  2023-12-01 10:49:05.885024
1778  2023-12-01 10:49:05.931093
1779  2023-12-01 10:49:05.979107
1780  2023-12-01 10:49:06.010055
1781  2023-12-01 10:49:06.057126
1782  2023-12-01 10:49:06.103977
1783  2023-12-01 10:49:06.136100
1784  2023-12-01 10:49:06.182234
1785  2023-12-01 10:49:06.227951
1786  2023-12-01 10:49:06.258687
1787  2023-12-01 10:49:06.304720
1788  2023-12-01 10:49:06.351660
1789  2023-12-01 10:49:06.382693
1790  2023-12-01 10:49:06.428293
1791  2023-12-01 10:49:06.474560
1792  2023-12-01 10:49:06.521001
1793  2023-12-01 10:49:06.552022
1794  2023-12-01 10:49:06.598985
1795  2023-12-01 10:49:06.645523
1796  2023-12-01 10:49:06.677564
1797  2023-12-01 10:49:06.722365
1798  2023-12-01 10:49:06.768544
1799  2023-12-01 10:49:06.799065
1800  2023-12-01 10:49:06.844761
1801  2023-12-01 10:49:06.891714
1802  2023-12-01 10:49:06.937300
1803  2023-12-01 10:49:06.968267
1804  2023-12-01 10:49:07.015715
1805  2023-12-01 10:49:07.063213
1806  2023-12-01 10:49:07.095754
1807  2023-12-01 10:49:07.143642
1808  2023-12-01 10:49:07.188430
1809  2023-12-01 10:49:07.220177
1810  2023-12-01 10:49:07.265747
1811  2023-12-01 10:49:07.313847
1812  2023-12-01 10:49:07.344062
1813  2023-12-01 10:49:07.390610
1814  2023-12-01 10:49:07.437272
1815  2023-12-01 10:49:07.468365
1816  2023-12-01 10:49:07.514632
1817  2023-12-01 10:49:07.561916
1818  2023-12-01 10:49:07.592908
1819  2023-12-01 10:49:07.639310
1820  2023-12-01 10:49:07.685408
1821  2023-12-01 10:49:07.718370
1822  2023-12-01 10:49:07.762228
1823  2023-12-01 10:49:07.808510
1824  2023-12-01 10:49:07.854041
1825  2023-12-01 10:49:07.884821
1826  2023-12-01 10:49:07.931869
1827  2023-12-01 10:49:07.977707
1828  2023-12-01 10:49:08.008700
1829  2023-12-01 10:49:08.055972
1830  2023-12-01 10:49:08.101955
1831  2023-12-01 10:49:08.135020
1832  2023-12-01 10:49:08.181896
1833  2023-12-01 10:49:08.227275
1834  2023-12-01 10:49:08.258750
1835  2023-12-01 10:49:08.304677
1836  2023-12-01 10:49:08.351796
1837  2023-12-01 10:49:08.382970
1838  2023-12-01 10:49:08.428458
1839  2023-12-01 10:49:08.475777
1840  2023-12-01 10:49:08.522267
1841  2023-12-01 10:49:08.554287
1842  2023-12-01 10:49:08.600729
1843  2023-12-01 10:49:08.632192
1844  2023-12-01 10:49:08.679717
1845  2023-12-01 10:49:08.725453
1846  2023-12-01 10:49:08.772972
1847  2023-12-01 10:49:08.803308
1848  2023-12-01 10:49:08.849881
1849  2023-12-01 10:49:08.895735
1850  2023-12-01 10:49:08.926671
1851  2023-12-01 10:49:08.973062
1852  2023-12-01 10:49:09.020148
1853  2023-12-01 10:49:09.051750
1854  2023-12-01 10:49:09.096532
1855  2023-12-01 10:49:09.143234
1856  2023-12-01 10:49:09.174139
1857  2023-12-01 10:49:09.221406
1858  2023-12-01 10:49:09.268873
1859  2023-12-01 10:49:09.299257
1860  2023-12-01 10:49:09.345396
1861  2023-12-01 10:49:09.390616
1862  2023-12-01 10:49:09.436375
1863  2023-12-01 10:49:09.467004
1864  2023-12-01 10:49:09.513604
1865  2023-12-01 10:49:09.559801
1866  2023-12-01 10:49:09.591317
1867  2023-12-01 10:49:09.638323
1868  2023-12-01 10:49:09.686721
1869  2023-12-01 10:49:09.718509
1870  2023-12-01 10:49:09.765857
1871  2023-12-01 10:49:09.812482
1872  2023-12-01 10:49:09.843249
1873  2023-12-01 10:49:09.889997
1874  2023-12-01 10:49:09.936642
1875  2023-12-01 10:49:09.968697
1876  2023-12-01 10:49:10.014915
1877  2023-12-01 10:49:10.060650
1878  2023-12-01 10:49:10.091163
1879  2023-12-01 10:49:10.137498
1880  2023-12-01 10:49:10.184425
1881  2023-12-01 10:49:10.215578
1882  2023-12-01 10:49:10.263049
1883  2023-12-01 10:49:10.309170
1884  2023-12-01 10:49:10.340964
1885  2023-12-01 10:49:10.386504
1886  2023-12-01 10:49:10.433123
1887  2023-12-01 10:49:10.479704
1888  2023-12-01 10:49:10.509703
1889  2023-12-01 10:49:10.556728
1890  2023-12-01 10:49:10.602027
1891  2023-12-01 10:49:10.633474
1892  2023-12-01 10:49:10.680470
1893  2023-12-01 10:49:10.727766
1894  2023-12-01 10:49:10.758318
1895  2023-12-01 10:49:10.805663
1896  2023-12-01 10:49:10.854172
1897  2023-12-01 10:49:10.883596
1898  2023-12-01 10:49:10.929991
1899  2023-12-01 10:49:10.976628
1900  2023-12-01 10:49:11.007935
1901  2023-12-01 10:49:11.054613
1902  2023-12-01 10:49:11.100637
1903  2023-12-01 10:49:11.146709
1904  2023-12-01 10:49:11.178516
1905  2023-12-01 10:49:11.225783
1906  2023-12-01 10:49:11.257179
1907  2023-12-01 10:49:11.304090
1908  2023-12-01 10:49:11.350933
1909  2023-12-01 10:49:11.382474
1910  2023-12-01 10:49:11.429137
1911  2023-12-01 10:49:11.476898
1912  2023-12-01 10:49:11.509291
1913  2023-12-01 10:49:11.556059
1914  2023-12-01 10:49:11.602164
1915  2023-12-01 10:49:11.633002
1916  2023-12-01 10:49:11.679710
1917  2023-12-01 10:49:11.725501
1918  2023-12-01 10:49:11.771957
1919  2023-12-01 10:49:11.802631
1920  2023-12-01 10:49:11.849561
1921  2023-12-01 10:49:11.896514
1922  2023-12-01 10:49:11.927117
1923  2023-12-01 10:49:11.973864
1924  2023-12-01 10:49:12.020661
1925  2023-12-01 10:49:12.052456
1926  2023-12-01 10:49:12.098231
1927  2023-12-01 10:49:12.145414
1928  2023-12-01 10:49:12.175704
1929  2023-12-01 10:49:12.220973
1930  2023-12-01 10:49:12.267591
1931  2023-12-01 10:49:12.298720
1932  2023-12-01 10:49:12.346180
1933  2023-12-01 10:49:12.391794
1934  2023-12-01 10:49:12.437944
1935  2023-12-01 10:49:12.469412
1936  2023-12-01 10:49:12.516292
1937  2023-12-01 10:49:12.563233
1938  2023-12-01 10:49:12.594098
1939  2023-12-01 10:49:12.640739
1940  2023-12-01 10:49:12.687864
1941  2023-12-01 10:49:12.718931
1942  2023-12-01 10:49:12.765489
1943  2023-12-01 10:49:12.811813
1944  2023-12-01 10:49:12.842722
1945  2023-12-01 10:49:12.889018
1946  2023-12-01 10:49:12.935473
1947  2023-12-01 10:49:12.966469
1948  2023-12-01 10:49:13.014014
1949  2023-12-01 10:49:13.059712
1950  2023-12-01 10:49:13.091347
1951  2023-12-01 10:49:13.136746
1952  2023-12-01 10:49:13.183498
1953  2023-12-01 10:49:13.229460
1954  2023-12-01 10:49:13.259960
1955  2023-12-01 10:49:13.305545
1956  2023-12-01 10:49:13.352268
1957  2023-12-01 10:49:13.383228
1958  2023-12-01 10:49:13.430187
1959  2023-12-01 10:49:13.477841
1960  2023-12-01 10:49:13.509797
1961  2023-12-01 10:49:13.556826
1962  2023-12-01 10:49:13.603805
1963  2023-12-01 10:49:13.635234
1964  2023-12-01 10:49:13.680573
1965  2023-12-01 10:49:13.727344
1966  2023-12-01 10:49:13.758680
1967  2023-12-01 10:49:13.804572
1968  2023-12-01 10:49:13.851055
1969  2023-12-01 10:49:13.896620
1970  2023-12-01 10:49:13.927619
1971  2023-12-01 10:49:13.974533
1972  2023-12-01 10:49:14.021147
1973  2023-12-01 10:49:14.052979
1974  2023-12-01 10:49:14.099204
1975  2023-12-01 10:49:14.145259
1976  2023-12-01 10:49:14.175916
1977  2023-12-01 10:49:14.221516
1978  2023-12-01 10:49:14.268435
1979  2023-12-01 10:49:14.299744
1980  2023-12-01 10:49:14.346425
1981  2023-12-01 10:49:14.392558
1982  2023-12-01 10:49:14.424625
1983  2023-12-01 10:49:14.470519
1984  2023-12-01 10:49:14.517940
1985  2023-12-01 10:49:14.549350
1986  2023-12-01 10:49:14.596726
1987  2023-12-01 10:49:14.642794
1988  2023-12-01 10:49:14.673659
1989  2023-12-01 10:49:14.720999
1990  2023-12-01 10:49:14.768922
1991  2023-12-01 10:49:14.799144
1992  2023-12-01 10:49:14.845556
1993  2023-12-01 10:49:14.892301
1994  2023-12-01 10:49:14.938819
1995  2023-12-01 10:49:14.968809
1996  2023-12-01 10:49:15.014996
1997  2023-12-01 10:49:15.062277
1998  2023-12-01 10:49:15.092576
1999  2023-12-01 10:49:15.140639
2000  2023-12-01 10:49:15.188379
2001  2023-12-01 10:49:15.218234
2002  2023-12-01 10:49:15.264303
2003  2023-12-01 10:49:15.310776
2004  2023-12-01 10:49:15.341334
2005  2023-12-01 10:49:15.387993
2006  2023-12-01 10:49:15.434678
2007  2023-12-01 10:49:15.466847
2008  2023-12-01 10:49:15.513803
2009  2023-12-01 10:49:15.561029
2010  2023-12-01 10:49:15.591493
2011  2023-12-01 10:49:15.639297
2012  2023-12-01 10:49:15.686882
2013  2023-12-01 10:49:15.717916
2014  2023-12-01 10:49:15.765483
2015  2023-12-01 10:49:15.811949
2016  2023-12-01 10:49:15.843306
2017  2023-12-01 10:49:15.889961
2018  2023-12-01 10:49:15.936792
2019  2023-12-01 10:49:15.967874
2020  2023-12-01 10:49:16.014691
2021  2023-12-01 10:49:16.061349
2022  2023-12-01 10:49:16.092318
2023  2023-12-01 10:49:16.138067
2024  2023-12-01 10:49:16.184563
2025  2023-12-01 10:49:16.216487
2026  2023-12-01 10:49:16.262551
2027  2023-12-01 10:49:16.309456
2028  2023-12-01 10:49:16.340574
2029  2023-12-01 10:49:16.387265
2030  2023-12-01 10:49:16.434104
2031  2023-12-01 10:49:16.480071
2032  2023-12-01 10:49:16.511696
2033  2023-12-01 10:49:16.557474
2034  2023-12-01 10:49:16.604305
2035  2023-12-01 10:49:16.635483
2036  2023-12-01 10:49:16.681653
2037  2023-12-01 10:49:16.728045
2038  2023-12-01 10:49:16.759990
2039  2023-12-01 10:49:16.806739
2040  2023-12-01 10:49:16.853370
2041  2023-12-01 10:49:16.885180
2042  2023-12-01 10:49:16.931983
2043  2023-12-01 10:49:16.979442
2044  2023-12-01 10:49:17.009951
2045  2023-12-01 10:49:17.055349
2046  2023-12-01 10:49:17.101663
2047  2023-12-01 10:49:17.146482
2048  2023-12-01 10:49:17.177628
2049  2023-12-01 10:49:17.224432
2050  2023-12-01 10:49:17.270965
2051  2023-12-01 10:49:17.302934
2052  2023-12-01 10:49:17.350130
2053  2023-12-01 10:49:17.395480
2054  2023-12-01 10:49:17.427884
2055  2023-12-01 10:49:17.475577
2056  2023-12-01 10:49:17.519975
2057  2023-12-01 10:49:17.551626
2058  2023-12-01 10:49:17.597493
2059  2023-12-01 10:49:17.643924
2060  2023-12-01 10:49:17.675235
2061  2023-12-01 10:49:17.721807
2062  2023-12-01 10:49:17.769550
2063  2023-12-01 10:49:17.799942
2064  2023-12-01 10:49:17.848290
2065  2023-12-01 10:49:17.893868
2066  2023-12-01 10:49:17.924868
2067  2023-12-01 10:49:17.972603
2068  2023-12-01 10:49:18.018324
2069  2023-12-01 10:49:18.049518
2070  2023-12-01 10:49:18.096935
2071  2023-12-01 10:49:18.142692
2072  2023-12-01 10:49:18.188774
2073  2023-12-01 10:49:18.219948
2074  2023-12-01 10:49:18.266369
2075  2023-12-01 10:49:18.312680
2076  2023-12-01 10:49:18.343906
2077  2023-12-01 10:49:18.390635
2078  2023-12-01 10:49:18.438313
2079  2023-12-01 10:49:18.469560
2080  2023-12-01 10:49:18.516444
2081  2023-12-01 10:49:18.563351
2082  2023-12-01 10:49:18.595596
2083  2023-12-01 10:49:18.640900
2084  2023-12-01 10:49:18.687747
2085  2023-12-01 10:49:18.718673
2086  2023-12-01 10:49:18.765488
2087  2023-12-01 10:49:18.811904
2088  2023-12-01 10:49:18.843826
2089  2023-12-01 10:49:18.889832
2090  2023-12-01 10:49:18.936973
2091  2023-12-01 10:49:18.968528
2092  2023-12-01 10:49:19.014791
2093  2023-12-01 10:49:19.060734
2094  2023-12-01 10:49:19.092541
2095  2023-12-01 10:49:19.137644
2096  2023-12-01 10:49:19.186040
2097  2023-12-01 10:49:19.230488
2098  2023-12-01 10:49:19.260641
2099  2023-12-01 10:49:19.307235
2100  2023-12-01 10:49:19.353646
2101  2023-12-01 10:49:19.384487
2102  2023-12-01 10:49:19.430010
2103  2023-12-01 10:49:19.477847
2104  2023-12-01 10:49:19.508330
2105  2023-12-01 10:49:19.554914
2106  2023-12-01 10:49:19.601905
2107  2023-12-01 10:49:19.634854
2108  2023-12-01 10:49:19.681015
2109  2023-12-01 10:49:19.728827
2110  2023-12-01 10:49:19.759194
2111  2023-12-01 10:49:19.805130
2112  2023-12-01 10:49:19.850988
2113  2023-12-01 10:49:19.882381
2114  2023-12-01 10:49:19.928495
2115  2023-12-01 10:49:19.976606
2116  2023-12-01 10:49:20.021546
2117  2023-12-01 10:49:20.052363
2118  2023-12-01 10:49:20.098726
2119  2023-12-01 10:49:20.147595
2120  2023-12-01 10:49:20.178726
2121  2023-12-01 10:49:20.225605
2122  2023-12-01 10:49:20.270657
2123  2023-12-01 10:49:20.302571
2124  2023-12-01 10:49:20.348468
2125  2023-12-01 10:49:20.394594
2126  2023-12-01 10:49:20.426049
2127  2023-12-01 10:49:20.472416
2128  2023-12-01 10:49:20.520704
2129  2023-12-01 10:49:20.551068
2130  2023-12-01 10:49:20.597272
2131  2023-12-01 10:49:20.644568
2132  2023-12-01 10:49:20.676789
2133  2023-12-01 10:49:20.723037
2134  2023-12-01 10:49:20.770366
2135  2023-12-01 10:49:20.801306
2136  2023-12-01 10:49:20.849008
2137  2023-12-01 10:49:20.894575
2138  2023-12-01 10:49:20.925120
2139  2023-12-01 10:49:20.971327
2140  2023-12-01 10:49:21.017943
2141  2023-12-01 10:49:21.049083
2142  2023-12-01 10:49:21.094630
2143  2023-12-01 10:49:21.142555
2144  2023-12-01 10:49:21.187995
2145  2023-12-01 10:49:21.219208
2146  2023-12-01 10:49:21.265349
2147  2023-12-01 10:49:21.312490
2148  2023-12-01 10:49:21.342458
2149  2023-12-01 10:49:21.388483
2150  2023-12-01 10:49:21.434754
2151  2023-12-01 10:49:21.465909
2152  2023-12-01 10:49:21.512390
2153  2023-12-01 10:49:21.557846
2154  2023-12-01 10:49:21.604239
2155  2023-12-01 10:49:21.635653
2156  2023-12-01 10:49:21.682129
2157  2023-12-01 10:49:21.729056
2158  2023-12-01 10:49:21.760902
2159  2023-12-01 10:49:21.808268
2160  2023-12-01 10:49:21.854292
2161  2023-12-01 10:49:21.884517
2162  2023-12-01 10:49:21.930700
2163  2023-12-01 10:49:21.977939
2164  2023-12-01 10:49:22.008455
2165  2023-12-01 10:49:22.054236
2166  2023-12-01 10:49:22.100268
2167  2023-12-01 10:49:22.146553
2168  2023-12-01 10:49:22.177875
2169  2023-12-01 10:49:22.225752
2170  2023-12-01 10:49:22.257897
2171  2023-12-01 10:49:22.305316
2172  2023-12-01 10:49:22.352232
2173  2023-12-01 10:49:22.382492
2174  2023-12-01 10:49:22.428572
2175  2023-12-01 10:49:22.474218
2176  2023-12-01 10:49:22.520501
2177  2023-12-01 10:49:22.551289
2178  2023-12-01 10:49:22.598162
2179  2023-12-01 10:49:22.645176
2180  2023-12-01 10:49:22.675659
2181  2023-12-01 10:49:22.723527
2182  2023-12-01 10:49:22.769715
2183  2023-12-01 10:49:22.801095
2184  2023-12-01 10:49:22.848064
2185  2023-12-01 10:49:22.892850
2186  2023-12-01 10:49:22.923733
2187  2023-12-01 10:49:22.970181
2188  2023-12-01 10:49:23.016648
2189  2023-12-01 10:49:23.063328
2190  2023-12-01 10:49:23.093184
2191  2023-12-01 10:49:23.139819
2192  2023-12-01 10:49:23.186725
2193  2023-12-01 10:49:23.218649
2194  2023-12-01 10:49:23.265736
2195  2023-12-01 10:49:23.312133
2196  2023-12-01 10:49:23.344006
2197  2023-12-01 10:49:23.389031
2198  2023-12-01 10:49:23.435806
2199  2023-12-01 10:49:23.467924
2200  2023-12-01 10:49:23.513695
2201  2023-12-01 10:49:23.560721
2202  2023-12-01 10:49:23.592699
2203  2023-12-01 10:49:23.640249
2204  2023-12-01 10:49:23.685797
2205  2023-12-01 10:49:23.717091
2206  2023-12-01 10:49:23.762520
2207  2023-12-01 10:49:23.810163
2208  2023-12-01 10:49:23.841684
2209  2023-12-01 10:49:23.888120
2210  2023-12-01 10:49:23.935639
2211  2023-12-01 10:49:23.965428
2212  2023-12-01 10:49:24.012927
2213  2023-12-01 10:49:24.059643
2214  2023-12-01 10:49:24.091400
2215  2023-12-01 10:49:24.139295
2216  2023-12-01 10:49:24.184632
2217  2023-12-01 10:49:24.229995
2218  2023-12-01 10:49:24.261207
2219  2023-12-01 10:49:24.308352
2220  2023-12-01 10:49:24.354901
2221  2023-12-01 10:49:24.385370
2222  2023-12-01 10:49:24.431825
2223  2023-12-01 10:49:24.479487
2224  2023-12-01 10:49:24.511510
2225  2023-12-01 10:49:24.559488
2226  2023-12-01 10:49:24.604538
2227  2023-12-01 10:49:24.635525
2228  2023-12-01 10:49:24.682969
2229  2023-12-01 10:49:24.729591
2230  2023-12-01 10:49:24.759626
2231  2023-12-01 10:49:24.807041
2232  2023-12-01 10:49:24.853917
2233  2023-12-01 10:49:24.885024
2234  2023-12-01 10:49:24.931173
2235  2023-12-01 10:49:24.978259
2236  2023-12-01 10:49:25.008795
2237  2023-12-01 10:49:25.055283
2238  2023-12-01 10:49:25.103657
2239  2023-12-01 10:49:25.136683
2240  2023-12-01 10:49:25.180633
2241  2023-12-01 10:49:25.227229
2242  2023-12-01 10:49:25.259327
2243  2023-12-01 10:49:25.305661
2244  2023-12-01 10:49:25.352411
2245  2023-12-01 10:49:25.382656
2246  2023-12-01 10:49:25.428787
2247  2023-12-01 10:49:25.475614
2248  2023-12-01 10:49:25.507975
2249  2023-12-01 10:49:25.554316
2250  2023-12-01 10:49:25.601665
2251  2023-12-01 10:49:25.632645
2252  2023-12-01 10:49:25.679527
2253  2023-12-01 10:49:25.727124
2254  2023-12-01 10:49:25.756774
2255  2023-12-01 10:49:25.803320
2256  2023-12-01 10:49:25.849214
2257  2023-12-01 10:49:25.896527
2258  2023-12-01 10:49:25.928636
2259  2023-12-01 10:49:25.974485
2260  2023-12-01 10:49:26.020277
2261  2023-12-01 10:49:26.051490
2262  2023-12-01 10:49:26.098955
2263  2023-12-01 10:49:26.145583
2264  2023-12-01 10:49:26.177261
2265  2023-12-01 10:49:26.225189
2266  2023-12-01 10:49:26.271645
2267  2023-12-01 10:49:26.302612
2268  2023-12-01 10:49:26.347786
2269  2023-12-01 10:49:26.395820
2270  2023-12-01 10:49:26.426413
2271  2023-12-01 10:49:26.472879
2272  2023-12-01 10:49:26.519583
2273  2023-12-01 10:49:26.550515
2274  2023-12-01 10:49:26.596212
2275  2023-12-01 10:49:26.642561
2276  2023-12-01 10:49:26.674666
2277  2023-12-01 10:49:26.721243
2278  2023-12-01 10:49:26.767589
2279  2023-12-01 10:49:26.799544
2280  2023-12-01 10:49:26.844763
2281  2023-12-01 10:49:26.890897
2282  2023-12-01 10:49:26.936854
2283  2023-12-01 10:49:26.968551
2284  2023-12-01 10:49:27.016687
2285  2023-12-01 10:49:27.062159
2286  2023-12-01 10:49:27.092555
2287  2023-12-01 10:49:27.140529
2288  2023-12-01 10:49:27.185793
2289  2023-12-01 10:49:27.217010
2290  2023-12-01 10:49:27.264583
2291  2023-12-01 10:49:27.310937
2292  2023-12-01 10:49:27.342657
2293  2023-12-01 10:49:27.390936
2294  2023-12-01 10:49:27.435632
2295  2023-12-01 10:49:27.466749
2296  2023-12-01 10:49:27.514165
2297  2023-12-01 10:49:27.561672
2298  2023-12-01 10:49:27.591537
2299  2023-12-01 10:49:27.638708
2300  2023-12-01 10:49:27.684920
2301  2023-12-01 10:49:27.715511
2302  2023-12-01 10:49:27.762162
2303  2023-12-01 10:49:27.808657
2304  2023-12-01 10:49:27.855920
2305  2023-12-01 10:49:27.886572
2306  2023-12-01 10:49:27.932070
2307  2023-12-01 10:49:27.977645
2308  2023-12-01 10:49:28.008627
2309  2023-12-01 10:49:28.055760
2310  2023-12-01 10:49:28.102718
2311  2023-12-01 10:49:28.133774
2312  2023-12-01 10:49:28.180615
2313  2023-12-01 10:49:28.226385
2314  2023-12-01 10:49:28.257909
2315  2023-12-01 10:49:28.304557
2316  2023-12-01 10:49:28.351528
2317  2023-12-01 10:49:28.383491
2318  2023-12-01 10:49:28.431386
2319  2023-12-01 10:49:28.479091
2320  2023-12-01 10:49:28.509965
2321  2023-12-01 10:49:28.556261
2322  2023-12-01 10:49:28.603224
2323  2023-12-01 10:49:28.635198
2324  2023-12-01 10:49:28.680611
2325  2023-12-01 10:49:28.726497
2326  2023-12-01 10:49:28.757990
2327  2023-12-01 10:49:28.805243
2328  2023-12-01 10:49:28.852315
2329  2023-12-01 10:49:28.897026
2330  2023-12-01 10:49:28.928744
2331  2023-12-01 10:49:28.974040
2332  2023-12-01 10:49:29.022298
2333  2023-12-01 10:49:29.051765
2334  2023-12-01 10:49:29.097763
2335  2023-12-01 10:49:29.145105
2336  2023-12-01 10:49:29.175976
2337  2023-12-01 10:49:29.221863
2338  2023-12-01 10:49:29.268921
2339  2023-12-01 10:49:29.299048
2340  2023-12-01 10:49:29.345963
2341  2023-12-01 10:49:29.393102
2342  2023-12-01 10:49:29.424180
2343  2023-12-01 10:49:29.471071
2344  2023-12-01 10:49:29.518832
2345  2023-12-01 10:49:29.548998
2346  2023-12-01 10:49:29.595211
2347  2023-12-01 10:49:29.641913
2348  2023-12-01 10:49:29.673803
2349  2023-12-01 10:49:29.720723
2350  2023-12-01 10:49:29.766982
2351  2023-12-01 10:49:29.799220
2352  2023-12-01 10:49:29.844525
2353  2023-12-01 10:49:29.891215
2354  2023-12-01 10:49:29.937859
2355  2023-12-01 10:49:29.968923
2356  2023-12-01 10:49:30.016855
2357  2023-12-01 10:49:30.062953
2358  2023-12-01 10:49:30.094503
2359  2023-12-01 10:49:30.140748
2360  2023-12-01 10:49:30.187146
2361  2023-12-01 10:49:30.219061
2362  2023-12-01 10:49:30.266298
2363  2023-12-01 10:49:30.312781
2364  2023-12-01 10:49:30.344532
2365  2023-12-01 10:49:30.389222
2366  2023-12-01 10:49:30.436150
2367  2023-12-01 10:49:30.467474
2368  2023-12-01 10:49:30.514135
2369  2023-12-01 10:49:30.560011
2370  2023-12-01 10:49:30.592046
2371  2023-12-01 10:49:30.639828
2372  2023-12-01 10:49:30.685859
2373  2023-12-01 10:49:30.716996
2374  2023-12-01 10:49:30.763059
2375  2023-12-01 10:49:30.809028
2376  2023-12-01 10:49:30.855012
2377  2023-12-01 10:49:30.886142
2378  2023-12-01 10:49:30.932277
2379  2023-12-01 10:49:30.978385
2380  2023-12-01 10:49:31.009726
2381  2023-12-01 10:49:31.056950
2382  2023-12-01 10:49:31.103330
2383  2023-12-01 10:49:31.136373
2384  2023-12-01 10:49:31.181432
2385  2023-12-01 10:49:31.229036
2386  2023-12-01 10:49:31.260715
2387  2023-12-01 10:49:31.308405
2388  2023-12-01 10:49:31.353679
2389  2023-12-01 10:49:31.384800
2390  2023-12-01 10:49:31.430812
2391  2023-12-01 10:49:31.478221
2392  2023-12-01 10:49:31.509867
2393  2023-12-01 10:49:31.556157
2394  2023-12-01 10:49:31.602983
2395  2023-12-01 10:49:31.634635
2396  2023-12-01 10:49:31.680692
2397  2023-12-01 10:49:31.727922
2398  2023-12-01 10:49:31.758321
2399  2023-12-01 10:49:31.805791
2400  2023-12-01 10:49:31.854540
2401  2023-12-01 10:49:31.885700
2402  2023-12-01 10:49:31.932504
2403  2023-12-01 10:49:31.978042
2404  2023-12-01 10:49:32.008483
2405  2023-12-01 10:49:32.054647
2406  2023-12-01 10:49:32.100396
2407  2023-12-01 10:49:32.146677
2408  2023-12-01 10:49:32.177806
2409  2023-12-01 10:49:32.223743
2410  2023-12-01 10:49:32.271815
2411  2023-12-01 10:49:32.300985
2412  2023-12-01 10:49:32.348336
2413  2023-12-01 10:49:32.396775
2414  2023-12-01 10:49:32.427263
2415  2023-12-01 10:49:32.472355
2416  2023-12-01 10:49:32.518523
2417  2023-12-01 10:49:32.549304
2418  2023-12-01 10:49:32.595374
2419  2023-12-01 10:49:32.641723
2420  2023-12-01 10:49:32.688677
2421  2023-12-01 10:49:32.719420
2422  2023-12-01 10:49:32.765150
2423  2023-12-01 10:49:32.812480
2424  2023-12-01 10:49:32.842522
2425  2023-12-01 10:49:32.888568
2426  2023-12-01 10:49:32.936657
2427  2023-12-01 10:49:32.968635
2428  2023-12-01 10:49:33.014371
2429  2023-12-01 10:49:33.060869
2430  2023-12-01 10:49:33.090942
2431  2023-12-01 10:49:33.137345
2432  2023-12-01 10:49:33.183294
2433  2023-12-01 10:49:33.231097
2434  2023-12-01 10:49:33.260853
2435  2023-12-01 10:49:33.307960
2436  2023-12-01 10:49:33.352899
2437  2023-12-01 10:49:33.384502
2438  2023-12-01 10:49:33.430483
2439  2023-12-01 10:49:33.477532
2440  2023-12-01 10:49:33.508655
2441  2023-12-01 10:49:33.554750
2442  2023-12-01 10:49:33.602648
2443  2023-12-01 10:49:33.634194
2444  2023-12-01 10:49:33.680285
2445  2023-12-01 10:49:33.727740
2446  2023-12-01 10:49:33.759153
2447  2023-12-01 10:49:33.804035
2448  2023-12-01 10:49:33.851662
2449  2023-12-01 10:49:33.883878
2450  2023-12-01 10:49:33.931702
2451  2023-12-01 10:49:33.975335
2452  2023-12-01 10:49:34.021757
2453  2023-12-01 10:49:34.051987
2454  2023-12-01 10:49:34.098023
2455  2023-12-01 10:49:34.143971
2456  2023-12-01 10:49:34.176108
2457  2023-12-01 10:49:34.222953
2458  2023-12-01 10:49:34.270706
2459  2023-12-01 10:49:34.300694
2460  2023-12-01 10:49:34.347779
2461  2023-12-01 10:49:34.393324
2462  2023-12-01 10:49:34.424462
2463  2023-12-01 10:49:34.471440
2464  2023-12-01 10:49:34.517896
2465  2023-12-01 10:49:34.549738
2466  2023-12-01 10:49:34.596044
2467  2023-12-01 10:49:34.642918
2468  2023-12-01 10:49:34.673893
2469  2023-12-01 10:49:34.720311
2470  2023-12-01 10:49:34.767456
2471  2023-12-01 10:49:34.798734
2472  2023-12-01 10:49:34.845651
2473  2023-12-01 10:49:34.893488
2474  2023-12-01 10:49:34.938960
2475  2023-12-01 10:49:34.971504
2476  2023-12-01 10:49:35.015391
2477  2023-12-01 10:49:35.061692
2478  2023-12-01 10:49:35.093174
2479  2023-12-01 10:49:35.139655
2480  2023-12-01 10:49:35.185762
2481  2023-12-01 10:49:35.216658
2482  2023-12-01 10:49:35.263172
2483  2023-12-01 10:49:35.310735
2484  2023-12-01 10:49:35.341387
2485  2023-12-01 10:49:35.389258
2486  2023-12-01 10:49:35.436538
2487  2023-12-01 10:49:35.467499
2488  2023-12-01 10:49:35.515249
2489  2023-12-01 10:49:35.562961
2490  2023-12-01 10:49:35.594923
2491  2023-12-01 10:49:35.641898
2492  2023-12-01 10:49:35.688052
2493  2023-12-01 10:49:35.719268
2494  2023-12-01 10:49:35.766000
2495  2023-12-01 10:49:35.812100
2496  2023-12-01 10:49:35.843011
2497  2023-12-01 10:49:35.890010
2498  2023-12-01 10:49:35.936650
2499  2023-12-01 10:49:35.968522
2500  2023-12-01 10:49:36.014897
2501  2023-12-01 10:49:36.060806
2502  2023-12-01 10:49:36.092107
2503  2023-12-01 10:49:36.138730
2504  2023-12-01 10:49:36.187515
2505  2023-12-01 10:49:36.218738
2506  2023-12-01 10:49:36.263730
2507  2023-12-01 10:49:36.309354
2508  2023-12-01 10:49:36.341602
2509  2023-12-01 10:49:36.387996
2510  2023-12-01 10:49:36.434172
2511  2023-12-01 10:49:36.465641
2512  2023-12-01 10:49:36.512587
2513  2023-12-01 10:49:36.559311
2514  2023-12-01 10:49:36.604022
2515  2023-12-01 10:49:36.636862
2516  2023-12-01 10:49:36.682502
2517  2023-12-01 10:49:36.727501
2518  2023-12-01 10:49:36.758763
2519  2023-12-01 10:49:36.805206
2520  2023-12-01 10:49:36.851691
2521  2023-12-01 10:49:36.882792
2522  2023-12-01 10:49:36.928625
2523  2023-12-01 10:49:36.974772
2524  2023-12-01 10:49:37.021744
2525  2023-12-01 10:49:37.051935
2526  2023-12-01 10:49:37.098893
2527  2023-12-01 10:49:37.146508
2528  2023-12-01 10:49:37.177837
2529  2023-12-01 10:49:37.224529
2530  2023-12-01 10:49:37.270454
2531  2023-12-01 10:49:37.301544
2532  2023-12-01 10:49:37.348336
2533  2023-12-01 10:49:37.394237
2534  2023-12-01 10:49:37.425086
2535  2023-12-01 10:49:37.471709
2536  2023-12-01 10:49:37.518598
2537  2023-12-01 10:49:37.549659
2538  2023-12-01 10:49:37.596612
2539  2023-12-01 10:49:37.643016
2540  2023-12-01 10:49:37.676594
2541  2023-12-01 10:49:37.721857
2542  2023-12-01 10:49:37.768344
2543  2023-12-01 10:49:37.799239
2544  2023-12-01 10:49:37.846212
2545  2023-12-01 10:49:37.891484
2546  2023-12-01 10:49:37.938037
2547  2023-12-01 10:49:37.969084
2548  2023-12-01 10:49:38.015952
2549  2023-12-01 10:49:38.062012
2550  2023-12-01 10:49:38.092978
2551  2023-12-01 10:49:38.140743
2552  2023-12-01 10:49:38.186645
2553  2023-12-01 10:49:38.216768
2554  2023-12-01 10:49:38.263005
2555  2023-12-01 10:49:38.309516
2556  2023-12-01 10:49:38.340374
2557  2023-12-01 10:49:38.386476
2558  2023-12-01 10:49:38.434015
2559  2023-12-01 10:49:38.465386
2560  2023-12-01 10:49:38.512223
2561  2023-12-01 10:49:38.558631
2562  2023-12-01 10:49:38.604683
2563  2023-12-01 10:49:38.636528
2564  2023-12-01 10:49:38.682719
2565  2023-12-01 10:49:38.731965
2566  2023-12-01 10:49:38.762944
2567  2023-12-01 10:49:38.810061
2568  2023-12-01 10:49:38.841152
2569  2023-12-01 10:49:38.887079
2570  2023-12-01 10:49:38.934807
2571  2023-12-01 10:49:38.965973
2572  2023-12-01 10:49:39.011968
2573  2023-12-01 10:49:39.057934
2574  2023-12-01 10:49:39.104075
2575  2023-12-01 10:49:39.135041
2576  2023-12-01 10:49:39.180505
2577  2023-12-01 10:49:39.227638
2578  2023-12-01 10:49:39.258333
2579  2023-12-01 10:49:39.305034
2580  2023-12-01 10:49:39.353735
2581  2023-12-01 10:49:39.385583
2582  2023-12-01 10:49:39.430699
2583  2023-12-01 10:49:39.476837
2584  2023-12-01 10:49:39.507692
2585  2023-12-01 10:49:39.556132
2586  2023-12-01 10:49:39.601786
2587  2023-12-01 10:49:39.633229
2588  2023-12-01 10:49:39.680038
2589  2023-12-01 10:49:39.726284
2590  2023-12-01 10:49:39.757439
2591  2023-12-01 10:49:39.804261
2592  2023-12-01 10:49:39.851421
2593  2023-12-01 10:49:39.883221
2594  2023-12-01 10:49:39.930209
2595  2023-12-01 10:49:39.977400
2596  2023-12-01 10:49:40.007167
2597  2023-12-01 10:49:40.053508
2598  2023-12-01 10:49:40.099188
2599  2023-12-01 10:49:40.146153
2600  2023-12-01 10:49:40.177667
2601  2023-12-01 10:49:40.223457
2602  2023-12-01 10:49:40.270538
2603  2023-12-01 10:49:40.301710
2604  2023-12-01 10:49:40.347728
2605  2023-12-01 10:49:40.395518
2606  2023-12-01 10:49:40.428490
2607  2023-12-01 10:49:40.475512
2608  2023-12-01 10:49:40.521502
2609  2023-12-01 10:49:40.550398
2610  2023-12-01 10:49:40.597188
2611  2023-12-01 10:49:40.643314
2612  2023-12-01 10:49:40.673707
2613  2023-12-01 10:49:40.720587
2614  2023-12-01 10:49:40.767511
2615  2023-12-01 10:49:40.798439
2616  2023-12-01 10:49:40.844828
2617  2023-12-01 10:49:40.892077
2618  2023-12-01 10:49:40.924741
2619  2023-12-01 10:49:40.971750
2620  2023-12-01 10:49:41.017652
2621  2023-12-01 10:49:41.048685
2622  2023-12-01 10:49:41.096680
2623  2023-12-01 10:49:41.141559
2624  2023-12-01 10:49:41.187094
2625  2023-12-01 10:49:41.218654
2626  2023-12-01 10:49:41.264806
2627  2023-12-01 10:49:41.311708
2628  2023-12-01 10:49:41.343617
2629  2023-12-01 10:49:41.390708
2630  2023-12-01 10:49:41.437573
2631  2023-12-01 10:49:41.468127
2632  2023-12-01 10:49:41.515415
2633  2023-12-01 10:49:41.562728
2634  2023-12-01 10:49:41.593635
2635  2023-12-01 10:49:41.640798
2636  2023-12-01 10:49:41.689047
2637  2023-12-01 10:49:41.717734
2638  2023-12-01 10:49:41.763783
2639  2023-12-01 10:49:41.810655
2640  2023-12-01 10:49:41.841787
2641  2023-12-01 10:49:41.887554
2642  2023-12-01 10:49:41.933698
2643  2023-12-01 10:49:41.980790
2644  2023-12-01 10:49:42.012291
2645  2023-12-01 10:49:42.059463
2646  2023-12-01 10:49:42.091400
2647  2023-12-01 10:49:42.137943
2648  2023-12-01 10:49:42.184510
2649  2023-12-01 10:49:42.216740
2650  2023-12-01 10:49:42.261368
2651  2023-12-01 10:49:42.307888
2652  2023-12-01 10:49:42.354758
2653  2023-12-01 10:49:42.386178
2654  2023-12-01 10:49:42.432236
2655  2023-12-01 10:49:42.478834
2656  2023-12-01 10:49:42.508522
2657  2023-12-01 10:49:42.554429
2658  2023-12-01 10:49:42.601985
2659  2023-12-01 10:49:42.633308
2660  2023-12-01 10:49:42.680027
2661  2023-12-01 10:49:42.725862
2662  2023-12-01 10:49:42.771510
2663  2023-12-01 10:49:42.802762
2664  2023-12-01 10:49:42.849821
2665  2023-12-01 10:49:42.895736
2666  2023-12-01 10:49:42.926794
2667  2023-12-01 10:49:42.973480
2668  2023-12-01 10:49:43.019511
2669  2023-12-01 10:49:43.050403
2670  2023-12-01 10:49:43.098362
2671  2023-12-01 10:49:43.145775
2672  2023-12-01 10:49:43.176342
2673  2023-12-01 10:49:43.221367
2674  2023-12-01 10:49:43.267550
2675  2023-12-01 10:49:43.313630
2676  2023-12-01 10:49:43.344681
2677  2023-12-01 10:49:43.391383
2678  2023-12-01 10:49:43.438094
2679  2023-12-01 10:49:43.468507
2680  2023-12-01 10:49:43.515678
2681  2023-12-01 10:49:43.562019
2682  2023-12-01 10:49:43.593415
2683  2023-12-01 10:49:43.640235
2684  2023-12-01 10:49:43.687937
2685  2023-12-01 10:49:43.720065
2686  2023-12-01 10:49:43.765851
2687  2023-12-01 10:49:43.812998
2688  2023-12-01 10:49:43.843524
2689  2023-12-01 10:49:43.890499
2690  2023-12-01 10:49:43.937072
2691  2023-12-01 10:49:43.968128
2692  2023-12-01 10:49:44.015680
2693  2023-12-01 10:49:44.062205
2694  2023-12-01 10:49:44.094018
2695  2023-12-01 10:49:44.139775
2696  2023-12-01 10:49:44.186843
2697  2023-12-01 10:49:44.217648
2698  2023-12-01 10:49:44.265760
2699  2023-12-01 10:49:44.312513
2700  2023-12-01 10:49:44.345190
2701  2023-12-01 10:49:44.392021
2702  2023-12-01 10:49:44.439133
2703  2023-12-01 10:49:44.468990
2704  2023-12-01 10:49:44.515512
2705  2023-12-01 10:49:44.561861
2706  2023-12-01 10:49:44.592961
2707  2023-12-01 10:49:44.639122
2708  2023-12-01 10:49:44.685599
2709  2023-12-01 10:49:44.717385
2710  2023-12-01 10:49:44.762994
2711  2023-12-01 10:49:44.809033
2712  2023-12-01 10:49:44.856048
2713  2023-12-01 10:49:44.889110
2714  2023-12-01 10:49:44.931952
2715  2023-12-01 10:49:44.978627
2716  2023-12-01 10:49:45.009199
2717  2023-12-01 10:49:45.055344
2718  2023-12-01 10:49:45.101764
2719  2023-12-01 10:49:45.132784
2720  2023-12-01 10:49:45.179880
2721  2023-12-01 10:49:45.225734
2722  2023-12-01 10:49:45.257692
2723  2023-12-01 10:49:45.305188
2724  2023-12-01 10:49:45.351711
2725  2023-12-01 10:49:45.383289
2726  2023-12-01 10:49:45.429136
2727  2023-12-01 10:49:45.475594
2728  2023-12-01 10:49:45.521558
2729  2023-12-01 10:49:45.552684
2730  2023-12-01 10:49:45.599881
2731  2023-12-01 10:49:45.645641
2732  2023-12-01 10:49:45.677586
2733  2023-12-01 10:49:45.723638
2734  2023-12-01 10:49:45.769424
2735  2023-12-01 10:49:45.800877
2736  2023-12-01 10:49:45.848136
2737  2023-12-01 10:49:45.895250
2738  2023-12-01 10:49:45.928319
2739  2023-12-01 10:49:45.977212
2740  2023-12-01 10:49:46.022502
2741  2023-12-01 10:49:46.052638
2742  2023-12-01 10:49:46.098444
2743  2023-12-01 10:49:46.145371
2744  2023-12-01 10:49:46.175653
2745  2023-12-01 10:49:46.222301
2746  2023-12-01 10:49:46.269007
2747  2023-12-01 10:49:46.300055
2748  2023-12-01 10:49:46.347436
2749  2023-12-01 10:49:46.394637
2750  2023-12-01 10:49:46.425487
2751  2023-12-01 10:49:46.471152
2752  2023-12-01 10:49:46.519140
2753  2023-12-01 10:49:46.551126
2754  2023-12-01 10:49:46.599153
2755  2023-12-01 10:49:46.648071
2756  2023-12-01 10:49:46.679397
2757  2023-12-01 10:49:46.726846
2758  2023-12-01 10:49:46.771662
2759  2023-12-01 10:49:46.802653
2760  2023-12-01 10:49:46.848793
2761  2023-12-01 10:49:46.895650
2762  2023-12-01 10:49:46.926736
2763  2023-12-01 10:49:46.974696
2764  2023-12-01 10:49:47.021409
2765  2023-12-01 10:49:47.052934
2766  2023-12-01 10:49:47.099926
2767  2023-12-01 10:49:47.146211
2768  2023-12-01 10:49:47.177896
2769  2023-12-01 10:49:47.223866
2770  2023-12-01 10:49:47.270784
2771  2023-12-01 10:49:47.302304
2772  2023-12-01 10:49:47.347073
2773  2023-12-01 10:49:47.394320
2774  2023-12-01 10:49:47.424412
2775  2023-12-01 10:49:47.472626
2776  2023-12-01 10:49:47.519261
2777  2023-12-01 10:49:47.549643
2778  2023-12-01 10:49:47.596228
2779  2023-12-01 10:49:47.644306
2780  2023-12-01 10:49:47.675445
2781  2023-12-01 10:49:47.722636
2782  2023-12-01 10:49:47.769483
2783  2023-12-01 10:49:47.801889
2784  2023-12-01 10:49:47.848619
2785  2023-12-01 10:49:47.896614
2786  2023-12-01 10:49:47.927550
2787  2023-12-01 10:49:47.973640
2788  2023-12-01 10:49:48.022162
2789  2023-12-01 10:49:48.053781
2790  2023-12-01 10:49:48.099129
2791  2023-12-01 10:49:48.145732
2792  2023-12-01 10:49:48.176774
2793  2023-12-01 10:49:48.222720
2794  2023-12-01 10:49:48.268860
2795  2023-12-01 10:49:48.300246
2796  2023-12-01 10:49:48.346340
2797  2023-12-01 10:49:48.394013
2798  2023-12-01 10:49:48.424587
2799  2023-12-01 10:49:48.471469
2800  2023-12-01 10:49:48.519352
2801  2023-12-01 10:49:48.549313
2802  2023-12-01 10:49:48.597135
2803  2023-12-01 10:49:48.643238
2804  2023-12-01 10:49:48.674278
2805  2023-12-01 10:49:48.720689
2806  2023-12-01 10:49:48.767432
2807  2023-12-01 10:49:48.798658
2808  2023-12-01 10:49:48.845593
2809  2023-12-01 10:49:48.892173
2810  2023-12-01 10:49:48.938195
2811  2023-12-01 10:49:48.969204
2812  2023-12-01 10:49:49.017789
2813  2023-12-01 10:49:49.063107
2814  2023-12-01 10:49:49.093702
2815  2023-12-01 10:49:49.141567
2816  2023-12-01 10:49:49.187252
2817  2023-12-01 10:49:49.217726
2818  2023-12-01 10:49:49.264618
2819  2023-12-01 10:49:49.311724
2820  2023-12-01 10:49:49.342754
2821  2023-12-01 10:49:49.388814
2822  2023-12-01 10:49:49.434659
2823  2023-12-01 10:49:49.465712
2824  2023-12-01 10:49:49.512697
2825  2023-12-01 10:49:49.559972
2826  2023-12-01 10:49:49.590825
2827  2023-12-01 10:49:49.639841
2828  2023-12-01 10:49:49.684966
2829  2023-12-01 10:49:49.716869
2830  2023-12-01 10:49:49.761232
2831  2023-12-01 10:49:49.806514
2832  2023-12-01 10:49:49.853545
2833  2023-12-01 10:49:49.883969
2834  2023-12-01 10:49:49.929978
2835  2023-12-01 10:49:49.978053
2836  2023-12-01 10:49:50.010202
2837  2023-12-01 10:49:50.056806
2838  2023-12-01 10:49:50.103916
2839  2023-12-01 10:49:50.136150
2840  2023-12-01 10:49:50.181717
2841  2023-12-01 10:49:50.228761
2842  2023-12-01 10:49:50.261415
2843  2023-12-01 10:49:50.305901
2844  2023-12-01 10:49:50.352900
2845  2023-12-01 10:49:50.384517
2846  2023-12-01 10:49:50.431084
2847  2023-12-01 10:49:50.478572
2848  2023-12-01 10:49:50.510549
2849  2023-12-01 10:49:50.557506
2850  2023-12-01 10:49:50.603147
2851  2023-12-01 10:49:50.634735
2852  2023-12-01 10:49:50.681558
2853  2023-12-01 10:49:50.729618
2854  2023-12-01 10:49:50.761609
2855  2023-12-01 10:49:50.807692
2856  2023-12-01 10:49:50.855521
2857  2023-12-01 10:49:50.887507
2858  2023-12-01 10:49:50.934534
2859  2023-12-01 10:49:50.966836
2860  2023-12-01 10:49:51.012650
2861  2023-12-01 10:49:51.058318
2862  2023-12-01 10:49:51.103731
2863  2023-12-01 10:49:51.134949
2864  2023-12-01 10:49:51.182691
2865  2023-12-01 10:49:51.229254
2866  2023-12-01 10:49:51.261171
2867  2023-12-01 10:49:51.307638
2868  2023-12-01 10:49:51.353703
2869  2023-12-01 10:49:51.384586
2870  2023-12-01 10:49:51.432264
2871  2023-12-01 10:49:51.480067
2872  2023-12-01 10:49:51.511207
2873  2023-12-01 10:49:51.557252
2874  2023-12-01 10:49:51.604687
2875  2023-12-01 10:49:51.633782
2876  2023-12-01 10:49:51.680721
2877  2023-12-01 10:49:51.726401
2878  2023-12-01 10:49:51.757234
2879  2023-12-01 10:49:51.804950
2880  2023-12-01 10:49:51.851271
2881  2023-12-01 10:49:51.882398
2882  2023-12-01 10:49:51.928938
2883  2023-12-01 10:49:51.975534
2884  2023-12-01 10:49:52.020879
2885  2023-12-01 10:49:52.053004
2886  2023-12-01 10:49:52.100734
2887  2023-12-01 10:49:52.146289
2888  2023-12-01 10:49:52.177122
2889  2023-12-01 10:49:52.223444
2890  2023-12-01 10:49:52.268831
2891  2023-12-01 10:49:52.299751
2892  2023-12-01 10:49:52.346714
2893  2023-12-01 10:49:52.392428
2894  2023-12-01 10:49:52.424570
2895  2023-12-01 10:49:52.470789
2896  2023-12-01 10:49:52.517720
2897  2023-12-01 10:49:52.551785
2898  2023-12-01 10:49:52.597654
2899  2023-12-01 10:49:52.645592
2900  2023-12-01 10:49:52.676345
2901  2023-12-01 10:49:52.722322
2902  2023-12-01 10:49:52.768630
2903  2023-12-01 10:49:52.800655
2904  2023-12-01 10:49:52.846855
2905  2023-12-01 10:49:52.893426
2906  2023-12-01 10:49:52.923835
2907  2023-12-01 10:49:52.971131
2908  2023-12-01 10:49:53.017610
2909  2023-12-01 10:49:53.048731
2910  2023-12-01 10:49:53.096488
2911  2023-12-01 10:49:53.143644
2912  2023-12-01 10:49:53.174868
2913  2023-12-01 10:49:53.222109
2914  2023-12-01 10:49:53.267354
2915  2023-12-01 10:49:53.313920
2916  2023-12-01 10:49:53.344071
2917  2023-12-01 10:49:53.392617
2918  2023-12-01 10:49:53.438338
2919  2023-12-01 10:49:53.468845
2920  2023-12-01 10:49:53.515395
2921  2023-12-01 10:49:53.562914
2922  2023-12-01 10:49:53.593181
2923  2023-12-01 10:49:53.639950
2924  2023-12-01 10:49:53.687307
2925  2023-12-01 10:49:53.717249
2926  2023-12-01 10:49:53.764025
2927  2023-12-01 10:49:53.810022
2928  2023-12-01 10:49:53.840360
2929  2023-12-01 10:49:53.886518
2930  2023-12-01 10:49:53.934816
2931  2023-12-01 10:49:53.980463
2932  2023-12-01 10:49:54.012006
2933  2023-12-01 10:49:54.058792
2934  2023-12-01 10:49:54.105155
2935  2023-12-01 10:49:54.136522
2936  2023-12-01 10:49:54.183432
2937  2023-12-01 10:49:54.230141
2938  2023-12-01 10:49:54.261111
2939  2023-12-01 10:49:54.309905
2940  2023-12-01 10:49:54.341431
2941  2023-12-01 10:49:54.388046
2942  2023-12-01 10:49:54.435422
2943  2023-12-01 10:49:54.467481
2944  2023-12-01 10:49:54.513362
2945  2023-12-01 10:49:54.559941
2946  2023-12-01 10:49:54.590705
2947  2023-12-01 10:49:54.637367
2948  2023-12-01 10:49:54.683273
2949  2023-12-01 10:49:54.729655
2950  2023-12-01 10:49:54.760134
2951  2023-12-01 10:49:54.806732
2952  2023-12-01 10:49:54.852825
2953  2023-12-01 10:49:54.885685
2954  2023-12-01 10:49:54.931808
2955  2023-12-01 10:49:54.979476
2956  2023-12-01 10:49:55.011521
2957  2023-12-01 10:49:55.058727
2958  2023-12-01 10:49:55.103676
2959  2023-12-01 10:49:55.134486
2960  2023-12-01 10:49:55.181005
2961  2023-12-01 10:49:55.226641
2962  2023-12-01 10:49:55.257193
2963  2023-12-01 10:49:55.304096
2964  2023-12-01 10:49:55.351123
2965  2023-12-01 10:49:55.381972
2966  2023-12-01 10:49:55.430364
2967  2023-12-01 10:49:55.477272
2968  2023-12-01 10:49:55.524908
2969  2023-12-01 10:49:55.552864
2970  2023-12-01 10:49:55.600232
2971  2023-12-01 10:49:55.631727
2972  2023-12-01 10:49:55.679053
2973  2023-12-01 10:49:55.725531
2974  2023-12-01 10:49:55.756818
2975  2023-12-01 10:49:55.802655
2976  2023-12-01 10:49:55.849630
2977  2023-12-01 10:49:55.896777
2978  2023-12-01 10:49:55.927423
2979  2023-12-01 10:49:55.973733
2980  2023-12-01 10:49:56.020672
2981  2023-12-01 10:49:56.051803
2982  2023-12-01 10:49:56.099960
2983  2023-12-01 10:49:56.146832
2984  2023-12-01 10:49:56.176872
2985  2023-12-01 10:49:56.222638
2986  2023-12-01 10:49:56.268850
2987  2023-12-01 10:49:56.299833
2988  2023-12-01 10:49:56.346436
2989  2023-12-01 10:49:56.392634
2990  2023-12-01 10:49:56.438755
2991  2023-12-01 10:49:56.469239
2992  2023-12-01 10:49:56.518173
2993  2023-12-01 10:49:56.564987
2994  2023-12-01 10:49:56.594387
2995  2023-12-01 10:49:56.642415
2996  2023-12-01 10:49:56.687499
2997  2023-12-01 10:49:56.718644
2998  2023-12-01 10:49:56.765534
2999  2023-12-01 10:49:56.811167
3000  2023-12-01 10:49:56.841878
3001  2023-12-01 10:49:56.888451
3002  2023-12-01 10:49:56.934329
3003  2023-12-01 10:49:56.965969
3004  2023-12-01 10:49:57.013250
3005  2023-12-01 10:49:57.060971
3006  2023-12-01 10:49:57.090900
3007  2023-12-01 10:49:57.139666
3008  2023-12-01 10:49:57.183851
3009  2023-12-01 10:49:57.215853
3010  2023-12-01 10:49:57.260720
3011  2023-12-01 10:49:57.308212
3012  2023-12-01 10:49:57.355247
3013  2023-12-01 10:49:57.386017
3014  2023-12-01 10:49:57.432156
3015  2023-12-01 10:49:57.478695
3016  2023-12-01 10:49:57.510374
3017  2023-12-01 10:49:57.557847
3018  2023-12-01 10:49:57.603792
3019  2023-12-01 10:49:57.636681
3020  2023-12-01 10:49:57.683054
3021  2023-12-01 10:49:57.730157
3022  2023-12-01 10:49:57.762631
3023  2023-12-01 10:49:57.807084
3024  2023-12-01 10:49:57.852473
3025  2023-12-01 10:49:57.883412
3026  2023-12-01 10:49:57.929759
3027  2023-12-01 10:49:57.976519
3028  2023-12-01 10:49:58.007847
3029  2023-12-01 10:49:58.054244
3030  2023-12-01 10:49:58.100881
3031  2023-12-01 10:49:58.131914
3032  2023-12-01 10:49:58.177669
3033  2023-12-01 10:49:58.224034
3034  2023-12-01 10:49:58.270530
3035  2023-12-01 10:49:58.301531
3036  2023-12-01 10:49:58.348613
3037  2023-12-01 10:49:58.395019
3038  2023-12-01 10:49:58.426104
3039  2023-12-01 10:49:58.471928
3040  2023-12-01 10:49:58.518155
3041  2023-12-01 10:49:58.549117
3042  2023-12-01 10:49:58.595829
3043  2023-12-01 10:49:58.641968
3044  2023-12-01 10:49:58.674682
3045  2023-12-01 10:49:58.721924
3046  2023-12-01 10:49:58.770623
3047  2023-12-01 10:49:58.799400
3048  2023-12-01 10:49:58.845997
3049  2023-12-01 10:49:58.892108
3050  2023-12-01 10:49:58.937970
3051  2023-12-01 10:49:58.968884
3052  2023-12-01 10:49:59.015128
3053  2023-12-01 10:49:59.061330
3054  2023-12-01 10:49:59.092220
3055  2023-12-01 10:49:59.140525
3056  2023-12-01 10:49:59.185880
3057  2023-12-01 10:49:59.217962
3058  2023-12-01 10:49:59.265687
3059  2023-12-01 10:49:59.310778
3060  2023-12-01 10:49:59.341502
3061  2023-12-01 10:49:59.387554
3062  2023-12-01 10:49:59.434661
3063  2023-12-01 10:49:59.465793
3064  2023-12-01 10:49:59.512738
3065  2023-12-01 10:49:59.558866
3066  2023-12-01 10:49:59.590658
3067  2023-12-01 10:49:59.638058
3068  2023-12-01 10:49:59.684246
3069  2023-12-01 10:49:59.715749
3070  2023-12-01 10:49:59.764267
3071  2023-12-01 10:49:59.811695
3072  2023-12-01 10:49:59.843403
3073  2023-12-01 10:49:59.890589
3074  2023-12-01 10:49:59.937922
3075  2023-12-01 10:49:59.968944
3076  2023-12-01 10:50:00.014305
3077  2023-12-01 10:50:00.060703
3078  2023-12-01 10:50:00.090835
3079  2023-12-01 10:50:00.136689
3080  2023-12-01 10:50:00.183067
3081  2023-12-01 10:50:00.229325
3082  2023-12-01 10:50:00.260635
3083  2023-12-01 10:50:00.307965
3084  2023-12-01 10:50:00.353136
3085  2023-12-01 10:50:00.384964
3086  2023-12-01 10:50:00.430489
3087  2023-12-01 10:50:00.476413
3088  2023-12-01 10:50:00.507208
3089  2023-12-01 10:50:00.553528
3090  2023-12-01 10:50:00.599318
3091  2023-12-01 10:50:00.646334
3092  2023-12-01 10:50:00.677035
3093  2023-12-01 10:50:00.723618
3094  2023-12-01 10:50:00.771691
3095  2023-12-01 10:50:00.803644
3096  2023-12-01 10:50:00.850849
3097  2023-12-01 10:50:00.898199
3098  2023-12-01 10:50:00.928357
3099  2023-12-01 10:50:00.974060
3100  2023-12-01 10:50:01.019792
3101  2023-12-01 10:50:01.051113
3102  2023-12-01 10:50:01.097161
3103  2023-12-01 10:50:01.143818
3104  2023-12-01 10:50:01.175587
3105  2023-12-01 10:50:01.222504
3106  2023-12-01 10:50:01.270368
3107  2023-12-01 10:50:01.301921
3108  2023-12-01 10:50:01.348878
3109  2023-12-01 10:50:01.395618
3110  2023-12-01 10:50:01.427226
3111  2023-12-01 10:50:01.473249
3112  2023-12-01 10:50:01.520931
3113  2023-12-01 10:50:01.550653
3114  2023-12-01 10:50:01.597501
3115  2023-12-01 10:50:01.642824
3116  2023-12-01 10:50:01.673881
3117  2023-12-01 10:50:01.721051
3118  2023-12-01 10:50:01.768631
3119  2023-12-01 10:50:01.799226
3120  2023-12-01 10:50:01.845915
3121  2023-12-01 10:50:01.893019
3122  2023-12-01 10:50:01.940014
3123  2023-12-01 10:50:01.968712
3124  2023-12-01 10:50:02.014627
3125  2023-12-01 10:50:02.060986
3126  2023-12-01 10:50:02.091825
3127  2023-12-01 10:50:02.139778
3128  2023-12-01 10:50:02.185915
3129  2023-12-01 10:50:02.218034
3130  2023-12-01 10:50:02.262787
3131  2023-12-01 10:50:02.309073
3132  2023-12-01 10:50:02.355081
3133  2023-12-01 10:50:02.387946
3134  2023-12-01 10:50:02.432693
3135  2023-12-01 10:50:02.480574
3136  2023-12-01 10:50:02.510258
3137  2023-12-01 10:50:02.556292
3138  2023-12-01 10:50:02.602776
3139  2023-12-01 10:50:02.633666
3140  2023-12-01 10:50:02.680529
3141  2023-12-01 10:50:02.726263
3142  2023-12-01 10:50:02.757665
3143  2023-12-01 10:50:02.803668
3144  2023-12-01 10:50:02.851803
3145  2023-12-01 10:50:02.883058
3146  2023-12-01 10:50:02.931851
3147  2023-12-01 10:50:02.976644
3148  2023-12-01 10:50:03.008331
3149  2023-12-01 10:50:03.054153
3150  2023-12-01 10:50:03.101192
3151  2023-12-01 10:50:03.147250
3152  2023-12-01 10:50:03.178199
3153  2023-12-01 10:50:03.225184
3154  2023-12-01 10:50:03.271460
3155  2023-12-01 10:50:03.301980
3156  2023-12-01 10:50:03.348841
3157  2023-12-01 10:50:03.395536
3158  2023-12-01 10:50:03.427347
3159  2023-12-01 10:50:03.472826
3160  2023-12-01 10:50:03.517631
3161  2023-12-01 10:50:03.548879
3162  2023-12-01 10:50:03.594724
3163  2023-12-01 10:50:03.641323
3164  2023-12-01 10:50:03.688923
3165  2023-12-01 10:50:03.719753
3166  2023-12-01 10:50:03.766248
3167  2023-12-01 10:50:03.812886
3168  2023-12-01 10:50:03.843735
3169  2023-12-01 10:50:03.890404
3170  2023-12-01 10:50:03.937839
3171  2023-12-01 10:50:03.968704
3172  2023-12-01 10:50:04.013493
3173  2023-12-01 10:50:04.059851
3174  2023-12-01 10:50:04.090549
3175  2023-12-01 10:50:04.136740
3176  2023-12-01 10:50:04.183885
3177  2023-12-01 10:50:04.229754
3178  2023-12-01 10:50:04.260661
3179  2023-12-01 10:50:04.306827
3180  2023-12-01 10:50:04.353776
3181  2023-12-01 10:50:04.386109
3182  2023-12-01 10:50:04.432587
3183  2023-12-01 10:50:04.476232
3184  2023-12-01 10:50:04.507529
3185  2023-12-01 10:50:04.553528
3186  2023-12-01 10:50:04.600551
3187  2023-12-01 10:50:04.632572
3188  2023-12-01 10:50:04.680224
3189  2023-12-01 10:50:04.728128
3190  2023-12-01 10:50:04.760803
3191  2023-12-01 10:50:04.806411
3192  2023-12-01 10:50:04.852489
3193  2023-12-01 10:50:04.883625
3194  2023-12-01 10:50:04.929301
3195  2023-12-01 10:50:04.975979
3196  2023-12-01 10:50:05.024094
3197  2023-12-01 10:50:05.053348
3198  2023-12-01 10:50:05.099655
3199  2023-12-01 10:50:05.145739
3200  2023-12-01 10:50:05.176743
3201  2023-12-01 10:50:05.222895
3202  2023-12-01 10:50:05.269251
3203  2023-12-01 10:50:05.299688
3204  2023-12-01 10:50:05.345902
3205  2023-12-01 10:50:05.392112
3206  2023-12-01 10:50:05.423993
3207  2023-12-01 10:50:05.471980
3208  2023-12-01 10:50:05.519516
3209  2023-12-01 10:50:05.563065
3210  2023-12-01 10:50:05.593869
3211  2023-12-01 10:50:05.641636
3212  2023-12-01 10:50:05.686912
3213  2023-12-01 10:50:05.718144
3214  2023-12-01 10:50:05.764363
3215  2023-12-01 10:50:05.811843
3216  2023-12-01 10:50:05.843753
3217  2023-12-01 10:50:05.890619
3218  2023-12-01 10:50:05.938438
3219  2023-12-01 10:50:05.970561
3220  2023-12-01 10:50:06.016354
3221  2023-12-01 10:50:06.063527
3222  2023-12-01 10:50:06.092305
3223  2023-12-01 10:50:06.138974
3224  2023-12-01 10:50:06.185503
3225  2023-12-01 10:50:06.216571
3226  2023-12-01 10:50:06.263251
3227  2023-12-01 10:50:06.309432
3228  2023-12-01 10:50:06.340778
3229  2023-12-01 10:50:06.387097
3230  2023-12-01 10:50:06.434094
3231  2023-12-01 10:50:06.480415
3232  2023-12-01 10:50:06.511809
3233  2023-12-01 10:50:06.558503
3234  2023-12-01 10:50:06.604869
3235  2023-12-01 10:50:06.634872
3236  2023-12-01 10:50:06.681676
3237  2023-12-01 10:50:06.728738
3238  2023-12-01 10:50:06.759311
3239  2023-12-01 10:50:06.805463
3240  2023-12-01 10:50:06.852615
3241  2023-12-01 10:50:06.882891
3242  2023-12-01 10:50:06.929513
3243  2023-12-01 10:50:06.976619
3244  2023-12-01 10:50:07.009199
3245  2023-12-01 10:50:07.055793
3246  2023-12-01 10:50:07.100193
3247  2023-12-01 10:50:07.146906
3248  2023-12-01 10:50:07.177681
3249  2023-12-01 10:50:07.224655
3250  2023-12-01 10:50:07.270824
3251  2023-12-01 10:50:07.301808
3252  2023-12-01 10:50:07.348208
3253  2023-12-01 10:50:07.395762
3254  2023-12-01 10:50:07.427568
3255  2023-12-01 10:50:07.473655
3256  2023-12-01 10:50:07.520930
3257  2023-12-01 10:50:07.550890
3258  2023-12-01 10:50:07.598952
3259  2023-12-01 10:50:07.647803
3260  2023-12-01 10:50:07.675797
3261  2023-12-01 10:50:07.722640
3262  2023-12-01 10:50:07.769153
3263  2023-12-01 10:50:07.800560
3264  2023-12-01 10:50:07.846788
3265  2023-12-01 10:50:07.892100
3266  2023-12-01 10:50:07.923380
3267  2023-12-01 10:50:07.970663
3268  2023-12-01 10:50:08.017396
3269  2023-12-01 10:50:08.063674
3270  2023-12-01 10:50:08.094667
3271  2023-12-01 10:50:08.140288
3272  2023-12-01 10:50:08.186552
3273  2023-12-01 10:50:08.217256
3274  2023-12-01 10:50:08.264753
3275  2023-12-01 10:50:08.312724
3276  2023-12-01 10:50:08.344621
3277  2023-12-01 10:50:08.390371
3278  2023-12-01 10:50:08.437966
3279  2023-12-01 10:50:08.468462
3280  2023-12-01 10:50:08.515001
3281  2023-12-01 10:50:08.561382
3282  2023-12-01 10:50:08.592684
3283  2023-12-01 10:50:08.640042
3284  2023-12-01 10:50:08.686581
3285  2023-12-01 10:50:08.718996
3286  2023-12-01 10:50:08.764076
3287  2023-12-01 10:50:08.810289
3288  2023-12-01 10:50:08.840768
3289  2023-12-01 10:50:08.886973
3290  2023-12-01 10:50:08.933678
3291  2023-12-01 10:50:08.980319
3292  2023-12-01 10:50:09.011887
3293  2023-12-01 10:50:09.059441
3294  2023-12-01 10:50:09.090721
3295  2023-12-01 10:50:09.138450
3296  2023-12-01 10:50:09.185325
3297  2023-12-01 10:50:09.216117
3298  2023-12-01 10:50:09.262428
3299  2023-12-01 10:50:09.308159
3300  2023-12-01 10:50:09.355479
3301  2023-12-01 10:50:09.386834
3302  2023-12-01 10:50:09.432775
3303  2023-12-01 10:50:09.479717
3304  2023-12-01 10:50:09.510746
3305  2023-12-01 10:50:09.556873
3306  2023-12-01 10:50:09.604334
3307  2023-12-01 10:50:09.635096
3308  2023-12-01 10:50:09.681133
3309  2023-12-01 10:50:09.729140
3310  2023-12-01 10:50:09.758956
3311  2023-12-01 10:50:09.805942
3312  2023-12-01 10:50:09.851116
3313  2023-12-01 10:50:09.882529
3314  2023-12-01 10:50:09.928665
3315  2023-12-01 10:50:09.976706
3316  2023-12-01 10:50:10.007001
3317  2023-12-01 10:50:10.053686
3318  2023-12-01 10:50:10.099994
3319  2023-12-01 10:50:10.147301
3320  2023-12-01 10:50:10.178020
3321  2023-12-01 10:50:10.225506
3322  2023-12-01 10:50:10.271965
3323  2023-12-01 10:50:10.303905
3324  2023-12-01 10:50:10.351573
3325  2023-12-01 10:50:10.383036
3326  2023-12-01 10:50:10.430947
3327  2023-12-01 10:50:10.477808
3328  2023-12-01 10:50:10.510147
3329  2023-12-01 10:50:10.555169
3330  2023-12-01 10:50:10.602081
3331  2023-12-01 10:50:10.633440
3332  2023-12-01 10:50:10.679473
3333  2023-12-01 10:50:10.726055
3334  2023-12-01 10:50:10.757906
3335  2023-12-01 10:50:10.805135
3336  2023-12-01 10:50:10.850370
3337  2023-12-01 10:50:10.881842
3338  2023-12-01 10:50:10.929676
3339  2023-12-01 10:50:10.975650
3340  2023-12-01 10:50:11.008771
3341  2023-12-01 10:50:11.053629
3342  2023-12-01 10:50:11.101602
3343  2023-12-01 10:50:11.133715
3344  2023-12-01 10:50:11.181148
3345  2023-12-01 10:50:11.228936
3346  2023-12-01 10:50:11.261337
3347  2023-12-01 10:50:11.305532
3348  2023-12-01 10:50:11.351905
3349  2023-12-01 10:50:11.383371
3350  2023-12-01 10:50:11.429747
3351  2023-12-01 10:50:11.476465
3352  2023-12-01 10:50:11.507335
3353  2023-12-01 10:50:11.553322
3354  2023-12-01 10:50:11.600751
3355  2023-12-01 10:50:11.648341
3356  2023-12-01 10:50:11.677645
3357  2023-12-01 10:50:11.725367
3358  2023-12-01 10:50:11.770649
3359  2023-12-01 10:50:11.802615
3360  2023-12-01 10:50:11.847606
3361  2023-12-01 10:50:11.893839
3362  2023-12-01 10:50:11.925155
3363  2023-12-01 10:50:11.971640
3364  2023-12-01 10:50:12.017274
3365  2023-12-01 10:50:12.048764
3366  2023-12-01 10:50:12.095418
3367  2023-12-01 10:50:12.141777
3368  2023-12-01 10:50:12.190700
3369  2023-12-01 10:50:12.220891
3370  2023-12-01 10:50:12.266824
3371  2023-12-01 10:50:12.313091
3372  2023-12-01 10:50:12.343813
3373  2023-12-01 10:50:12.390216
3374  2023-12-01 10:50:12.436707
3375  2023-12-01 10:50:12.467751
3376  2023-12-01 10:50:12.513527
3377  2023-12-01 10:50:12.560181
3378  2023-12-01 10:50:12.590711
3379  2023-12-01 10:50:12.638127
3380  2023-12-01 10:50:12.687017
3381  2023-12-01 10:50:12.717069
3382  2023-12-01 10:50:12.764702
3383  2023-12-01 10:50:12.809393
3384  2023-12-01 10:50:12.840495
3385  2023-12-01 10:50:12.887525
3386  2023-12-01 10:50:12.933580
3387  2023-12-01 10:50:12.979721
3388  2023-12-01 10:50:13.010086
3389  2023-12-01 10:50:13.056640
3390  2023-12-01 10:50:13.103672
3391  2023-12-01 10:50:13.133981
3392  2023-12-01 10:50:13.180966
3393  2023-12-01 10:50:13.228784
3394  2023-12-01 10:50:13.260843
3395  2023-12-01 10:50:13.308258
3396  2023-12-01 10:50:13.354436
3397  2023-12-01 10:50:13.385556
3398  2023-12-01 10:50:13.433485
3399  2023-12-01 10:50:13.466311
3400  2023-12-01 10:50:13.512733
3401  2023-12-01 10:50:13.558330
3402  2023-12-01 10:50:13.605020
3403  2023-12-01 10:50:13.636692
3404  2023-12-01 10:50:13.683613
3405  2023-12-01 10:50:13.730578
3406  2023-12-01 10:50:13.761499
3407  2023-12-01 10:50:13.809160
3408  2023-12-01 10:50:13.841253
3409  2023-12-01 10:50:13.887148
3410  2023-12-01 10:50:13.932527
3411  2023-12-01 10:50:13.980431
3412  2023-12-01 10:50:14.012584
3413  2023-12-01 10:50:14.058228
3414  2023-12-01 10:50:14.104681
3415  2023-12-01 10:50:14.135422
3416  2023-12-01 10:50:14.182063
3417  2023-12-01 10:50:14.228901
3418  2023-12-01 10:50:14.259727
3419  2023-12-01 10:50:14.306085
3420  2023-12-01 10:50:14.352382
3421  2023-12-01 10:50:14.382805
3422  2023-12-01 10:50:14.428821
3423  2023-12-01 10:50:14.476167
3424  2023-12-01 10:50:14.508226
3425  2023-12-01 10:50:14.556454
3426  2023-12-01 10:50:14.600731
3427  2023-12-01 10:50:14.632123
3428  2023-12-01 10:50:14.679055
3429  2023-12-01 10:50:14.724712
3430  2023-12-01 10:50:14.756729
3431  2023-12-01 10:50:14.803699
3432  2023-12-01 10:50:14.850277
3433  2023-12-01 10:50:14.896983
3434  2023-12-01 10:50:14.928130
3435  2023-12-01 10:50:14.973781
3436  2023-12-01 10:50:15.021705
3437  2023-12-01 10:50:15.052680
3438  2023-12-01 10:50:15.100699
3439  2023-12-01 10:50:15.144974
3440  2023-12-01 10:50:15.176284
3441  2023-12-01 10:50:15.222302
3442  2023-12-01 10:50:15.268565
3443  2023-12-01 10:50:15.299352
3444  2023-12-01 10:50:15.345111
3445  2023-12-01 10:50:15.391021
3446  2023-12-01 10:50:15.440017
3447  2023-12-01 10:50:15.471844
3448  2023-12-01 10:50:15.517898
3449  2023-12-01 10:50:15.564575
3450  2023-12-01 10:50:15.596530
3451  2023-12-01 10:50:15.640527
3452  2023-12-01 10:50:15.686796
3453  2023-12-01 10:50:15.717264
3454  2023-12-01 10:50:15.763434
3455  2023-12-01 10:50:15.809683
3456  2023-12-01 10:50:15.840755
3457  2023-12-01 10:50:15.886726
3458  2023-12-01 10:50:15.932688
3459  2023-12-01 10:50:15.979859
3460  2023-12-01 10:50:16.010832
3461  2023-12-01 10:50:16.057079
3462  2023-12-01 10:50:16.103170
3463  2023-12-01 10:50:16.134597
3464  2023-12-01 10:50:16.182162
3465  2023-12-01 10:50:16.227778
3466  2023-12-01 10:50:16.258538
3467  2023-12-01 10:50:16.305348
3468  2023-12-01 10:50:16.352361
3469  2023-12-01 10:50:16.382665
3470  2023-12-01 10:50:16.430335
3471  2023-12-01 10:50:16.478769
3472  2023-12-01 10:50:16.509950
3473  2023-12-01 10:50:16.558820
3474  2023-12-01 10:50:16.606693
3475  2023-12-01 10:50:16.636610
3476  2023-12-01 10:50:16.680535
3477  2023-12-01 10:50:16.727238
3478  2023-12-01 10:50:16.758624
3479  2023-12-01 10:50:16.805697
3480  2023-12-01 10:50:16.851554
3481  2023-12-01 10:50:16.882182
3482  2023-12-01 10:50:16.928359
3483  2023-12-01 10:50:16.975378
3484  2023-12-01 10:50:17.021468
3485  2023-12-01 10:50:17.052352
3486  2023-12-01 10:50:17.098756
3487  2023-12-01 10:50:17.146959
3488  2023-12-01 10:50:17.179093
3489  2023-12-01 10:50:17.227488
3490  2023-12-01 10:50:17.271158
3491  2023-12-01 10:50:17.302456
3492  2023-12-01 10:50:17.348734
3493  2023-12-01 10:50:17.396232
3494  2023-12-01 10:50:17.427208
3495  2023-12-01 10:50:17.473693
3496  2023-12-01 10:50:17.520831
3497  2023-12-01 10:50:17.551779
3498  2023-12-01 10:50:17.599042
3499  2023-12-01 10:50:17.645828
3500  2023-12-01 10:50:17.677673
3501  2023-12-01 10:50:17.725478
3502  2023-12-01 10:50:17.757949
3503  2023-12-01 10:50:17.803675
3504  2023-12-01 10:50:17.850841
3505  2023-12-01 10:50:17.896713
3506  2023-12-01 10:50:17.927241
3507  2023-12-01 10:50:17.973420
3508  2023-12-01 10:50:18.019748
3509  2023-12-01 10:50:18.050936
3510  2023-12-01 10:50:18.097894
3511  2023-12-01 10:50:18.145055
3512  2023-12-01 10:50:18.175874
3513  2023-12-01 10:50:18.222531
3514  2023-12-01 10:50:18.270242
3515  2023-12-01 10:50:18.299873
3516  2023-12-01 10:50:18.348771
3517  2023-12-01 10:50:18.395673
3518  2023-12-01 10:50:18.427417
3519  2023-12-01 10:50:18.472370
3520  2023-12-01 10:50:18.518683
3521  2023-12-01 10:50:18.549508
3522  2023-12-01 10:50:18.595709
3523  2023-12-01 10:50:18.642810
3524  2023-12-01 10:50:18.688096
3525  2023-12-01 10:50:18.719824
3526  2023-12-01 10:50:18.767627
3527  2023-12-01 10:50:18.798706
3528  2023-12-01 10:50:18.845138
3529  2023-12-01 10:50:18.891710
3530  2023-12-01 10:50:18.938498
3531  2023-12-01 10:50:18.968405
3532  2023-12-01 10:50:19.014437
3533  2023-12-01 10:50:19.060931
3534  2023-12-01 10:50:19.091748
3535  2023-12-01 10:50:19.136873
3536  2023-12-01 10:50:19.182727
3537  2023-12-01 10:50:19.229832
3538  2023-12-01 10:50:19.261316
3539  2023-12-01 10:50:19.307133
3540  2023-12-01 10:50:19.354648
3541  2023-12-01 10:50:19.386024
3542  2023-12-01 10:50:19.434712
3543  2023-12-01 10:50:19.477866
3544  2023-12-01 10:50:19.508884
3545  2023-12-01 10:50:19.555082
3546  2023-12-01 10:50:19.602128
3547  2023-12-01 10:50:19.632733
3548  2023-12-01 10:50:19.679451
3549  2023-12-01 10:50:19.727125
3550  2023-12-01 10:50:19.758159
3551  2023-12-01 10:50:19.804745
3552  2023-12-01 10:50:19.851152
3553  2023-12-01 10:50:19.883149
3554  2023-12-01 10:50:19.930733
3555  2023-12-01 10:50:19.978513
3556  2023-12-01 10:50:20.010637
3557  2023-12-01 10:50:20.054658
3558  2023-12-01 10:50:20.101047
3559  2023-12-01 10:50:20.132049
3560  2023-12-01 10:50:20.178790
3561  2023-12-01 10:50:20.224847
