
1  2023-11-30 11:56:03.657424
2  2023-11-30 11:56:03.689664
3  2023-11-30 11:56:03.721796
4  2023-11-30 11:56:03.754650
5  2023-11-30 11:56:03.785697
6  2023-11-30 11:56:03.833703
7  2023-11-30 11:56:03.866679
8  2023-11-30 11:56:03.897937
9  2023-11-30 11:56:03.929282
10  2023-11-30 11:56:03.960901
11  2023-11-30 11:56:03.993804
12  2023-11-30 11:56:04.025781
13  2023-11-30 11:56:04.057493
14  2023-11-30 11:56:04.090331
15  2023-11-30 11:56:04.122483
16  2023-11-30 11:56:04.153651
17  2023-11-30 11:56:04.185660
18  2023-11-30 11:56:04.233609
19  2023-11-30 11:56:04.266547
20  2023-11-30 11:56:04.297588
21  2023-11-30 11:56:04.330640
22  2023-11-30 11:56:04.362407
23  2023-11-30 11:56:04.394458
24  2023-11-30 11:56:04.426050
25  2023-11-30 11:56:04.457931
26  2023-11-30 11:56:04.490026
27  2023-11-30 11:56:04.522453
28  2023-11-30 11:56:04.553560
29  2023-11-30 11:56:04.585713
30  2023-11-30 11:56:04.633263
31  2023-11-30 11:56:04.665162
32  2023-11-30 11:56:04.696985
33  2023-11-30 11:56:04.728898
34  2023-11-30 11:56:04.760720
35  2023-11-30 11:56:04.792840
36  2023-11-30 11:56:04.824944
37  2023-11-30 11:56:04.858162
38  2023-11-30 11:56:04.889775
39  2023-11-30 11:56:04.921457
40  2023-11-30 11:56:04.953856
41  2023-11-30 11:56:04.985884
42  2023-11-30 11:56:05.033555
43  2023-11-30 11:56:05.064913
44  2023-11-30 11:56:05.098003
45  2023-11-30 11:56:05.129463
46  2023-11-30 11:56:05.161604
47  2023-11-30 11:56:05.193722
48  2023-11-30 11:56:05.225623
49  2023-11-30 11:56:05.257944
50  2023-11-30 11:56:05.289000
51  2023-11-30 11:56:05.320998
52  2023-11-30 11:56:05.353604
53  2023-11-30 11:56:05.385905
54  2023-11-30 11:56:05.433867
55  2023-11-30 11:56:05.466425
56  2023-11-30 11:56:05.498196
57  2023-11-30 11:56:05.529294
58  2023-11-30 11:56:05.562245
59  2023-11-30 11:56:05.593341
60  2023-11-30 11:56:05.625311
61  2023-11-30 11:56:05.657757
62  2023-11-30 11:56:05.689449
63  2023-11-30 11:56:05.721599
64  2023-11-30 11:56:05.753092
65  2023-11-30 11:56:05.785565
66  2023-11-30 11:56:05.833491
67  2023-11-30 11:56:05.865358
68  2023-11-30 11:56:05.897812
69  2023-11-30 11:56:05.930509
70  2023-11-30 11:56:05.962895
71  2023-11-30 11:56:05.993868
72  2023-11-30 11:56:06.025404
73  2023-11-30 11:56:06.058276
74  2023-11-30 11:56:06.089529
75  2023-11-30 11:56:06.121901
76  2023-11-30 11:56:06.153963
77  2023-11-30 11:56:06.186160
78  2023-11-30 11:56:06.233460
79  2023-11-30 11:56:06.266800
80  2023-11-30 11:56:06.297698
81  2023-11-30 11:56:06.328515
82  2023-11-30 11:56:06.361739
83  2023-11-30 11:56:06.393039
84  2023-11-30 11:56:06.425564
85  2023-11-30 11:56:06.457962
86  2023-11-30 11:56:06.489589
87  2023-11-30 11:56:06.520892
88  2023-11-30 11:56:06.554224
89  2023-11-30 11:56:06.585522
90  2023-11-30 11:56:06.633737
91  2023-11-30 11:56:06.664967
92  2023-11-30 11:56:06.697804
93  2023-11-30 11:56:06.729941
94  2023-11-30 11:56:06.761754
95  2023-11-30 11:56:06.794253
96  2023-11-30 11:56:06.825947
97  2023-11-30 11:56:06.857105
98  2023-11-30 11:56:06.888996
99  2023-11-30 11:56:06.920554
100  2023-11-30 11:56:06.953406
101  2023-11-30 11:56:06.985440
102  2023-11-30 11:56:07.034611
103  2023-11-30 11:56:07.065706
104  2023-11-30 11:56:07.097823
105  2023-11-30 11:56:07.129862
106  2023-11-30 11:56:07.161860
107  2023-11-30 11:56:07.193829
108  2023-11-30 11:56:07.225892
109  2023-11-30 11:56:07.258360
110  2023-11-30 11:56:07.290158
111  2023-11-30 11:56:07.321867
112  2023-11-30 11:56:07.354444
113  2023-11-30 11:56:07.385416
114  2023-11-30 11:56:07.432788
115  2023-11-30 11:56:07.465618
116  2023-11-30 11:56:07.497809
117  2023-11-30 11:56:07.530116
118  2023-11-30 11:56:07.561658
119  2023-11-30 11:56:07.594044
120  2023-11-30 11:56:07.626110
121  2023-11-30 11:56:07.657065
122  2023-11-30 11:56:07.689075
123  2023-11-30 11:56:07.721960
124  2023-11-30 11:56:07.753672
125  2023-11-30 11:56:07.786141
126  2023-11-30 11:56:07.834053
127  2023-11-30 11:56:07.865461
128  2023-11-30 11:56:07.897852
129  2023-11-30 11:56:07.928875
130  2023-11-30 11:56:07.961536
131  2023-11-30 11:56:07.993741
132  2023-11-30 11:56:08.025281
133  2023-11-30 11:56:08.056969
134  2023-11-30 11:56:08.089847
135  2023-11-30 11:56:08.121850
136  2023-11-30 11:56:08.153851
137  2023-11-30 11:56:08.185504
138  2023-11-30 11:56:08.233974
139  2023-11-30 11:56:08.265782
140  2023-11-30 11:56:08.297858
141  2023-11-30 11:56:08.330452
142  2023-11-30 11:56:08.360813
143  2023-11-30 11:56:08.394362
144  2023-11-30 11:56:08.425704
145  2023-11-30 11:56:08.458128
146  2023-11-30 11:56:08.489409
147  2023-11-30 11:56:08.521025
148  2023-11-30 11:56:08.553618
149  2023-11-30 11:56:08.586338
150  2023-11-30 11:56:08.633859
151  2023-11-30 11:56:08.664838
152  2023-11-30 11:56:08.697910
153  2023-11-30 11:56:08.728800
154  2023-11-30 11:56:08.761946
155  2023-11-30 11:56:08.793957
156  2023-11-30 11:56:08.825810
157  2023-11-30 11:56:08.857395
158  2023-11-30 11:56:08.889449
159  2023-11-30 11:56:08.922017
160  2023-11-30 11:56:08.953890
161  2023-11-30 11:56:08.986256
162  2023-11-30 11:56:09.032754
163  2023-11-30 11:56:09.064944
164  2023-11-30 11:56:09.097879
165  2023-11-30 11:56:09.128875
166  2023-11-30 11:56:09.161859
167  2023-11-30 11:56:09.192974
168  2023-11-30 11:56:09.225701
169  2023-11-30 11:56:09.257960
170  2023-11-30 11:56:09.289609
171  2023-11-30 11:56:09.321975
172  2023-11-30 11:56:09.353923
173  2023-11-30 11:56:09.386077
174  2023-11-30 11:56:09.433847
175  2023-11-30 11:56:09.465558
176  2023-11-30 11:56:09.497401
177  2023-11-30 11:56:09.529593
178  2023-11-30 11:56:09.561753
179  2023-11-30 11:56:09.592948
180  2023-11-30 11:56:09.624938
181  2023-11-30 11:56:09.657694
182  2023-11-30 11:56:09.689015
183  2023-11-30 11:56:09.721789
184  2023-11-30 11:56:09.753870
185  2023-11-30 11:56:09.786098
186  2023-11-30 11:56:09.834102
187  2023-11-30 11:56:09.866346
188  2023-11-30 11:56:09.897851
189  2023-11-30 11:56:09.929851
190  2023-11-30 11:56:09.961842
191  2023-11-30 11:56:09.993853
192  2023-11-30 11:56:10.025578
193  2023-11-30 11:56:10.057844
194  2023-11-30 11:56:10.089605
195  2023-11-30 11:56:10.121516
196  2023-11-30 11:56:10.153128
197  2023-11-30 11:56:10.186711
198  2023-11-30 11:56:10.233838
199  2023-11-30 11:56:10.266396
200  2023-11-30 11:56:10.298381
201  2023-11-30 11:56:10.329679
202  2023-11-30 11:56:10.361513
203  2023-11-30 11:56:10.393241
204  2023-11-30 11:56:10.426529
205  2023-11-30 11:56:10.458041
206  2023-11-30 11:56:10.489692
207  2023-11-30 11:56:10.521581
208  2023-11-30 11:56:10.554311
209  2023-11-30 11:56:10.586060
210  2023-11-30 11:56:10.633853
211  2023-11-30 11:56:10.664767
212  2023-11-30 11:56:10.696943
213  2023-11-30 11:56:10.729876
214  2023-11-30 11:56:10.762039
215  2023-11-30 11:56:10.794317
216  2023-11-30 11:56:10.826269
217  2023-11-30 11:56:10.857592
218  2023-11-30 11:56:10.889499
219  2023-11-30 11:56:10.922215
220  2023-11-30 11:56:10.953952
221  2023-11-30 11:56:10.986033
222  2023-11-30 11:56:11.033962
223  2023-11-30 11:56:11.065853
224  2023-11-30 11:56:11.098685
225  2023-11-30 11:56:11.130045
226  2023-11-30 11:56:11.162277
227  2023-11-30 11:56:11.192825
228  2023-11-30 11:56:11.224671
229  2023-11-30 11:56:11.256938
230  2023-11-30 11:56:11.290123
231  2023-11-30 11:56:11.321705
232  2023-11-30 11:56:11.353843
233  2023-11-30 11:56:11.386366
234  2023-11-30 11:56:11.433891
235  2023-11-30 11:56:11.465886
236  2023-11-30 11:56:11.497754
237  2023-11-30 11:56:11.529774
238  2023-11-30 11:56:11.562263
239  2023-11-30 11:56:11.593852
240  2023-11-30 11:56:11.625997
241  2023-11-30 11:56:11.657922
242  2023-11-30 11:56:11.688988
243  2023-11-30 11:56:11.721572
244  2023-11-30 11:56:11.753216
245  2023-11-30 11:56:11.784812
246  2023-11-30 11:56:11.832746
247  2023-11-30 11:56:11.866055
248  2023-11-30 11:56:11.896873
249  2023-11-30 11:56:11.930849
250  2023-11-30 11:56:11.961961
251  2023-11-30 11:56:11.993645
252  2023-11-30 11:56:12.026385
253  2023-11-30 11:56:12.058396
254  2023-11-30 11:56:12.090391
255  2023-11-30 11:56:12.121785
256  2023-11-30 11:56:12.153845
257  2023-11-30 11:56:12.185659
258  2023-11-30 11:56:12.233883
259  2023-11-30 11:56:12.265211
260  2023-11-30 11:56:12.297162
261  2023-11-30 11:56:12.329936
262  2023-11-30 11:56:12.361509
263  2023-11-30 11:56:12.393874
264  2023-11-30 11:56:12.425857
265  2023-11-30 11:56:12.457849
266  2023-11-30 11:56:12.489817
267  2023-11-30 11:56:12.522058
268  2023-11-30 11:56:12.553672
269  2023-11-30 11:56:12.586170
270  2023-11-30 11:56:12.634387
271  2023-11-30 11:56:12.666384
272  2023-11-30 11:56:12.697017
273  2023-11-30 11:56:12.730750
274  2023-11-30 11:56:12.761703
275  2023-11-30 11:56:12.794191
276  2023-11-30 11:56:12.824543
277  2023-11-30 11:56:12.857538
278  2023-11-30 11:56:12.889613
279  2023-11-30 11:56:12.922497
280  2023-11-30 11:56:12.953616
281  2023-11-30 11:56:12.985870
282  2023-11-30 11:56:13.034109
283  2023-11-30 11:56:13.065932
284  2023-11-30 11:56:13.097850
285  2023-11-30 11:56:13.130845
286  2023-11-30 11:56:13.161852
287  2023-11-30 11:56:13.194090
288  2023-11-30 11:56:13.225850
289  2023-11-30 11:56:13.257856
290  2023-11-30 11:56:13.289846
291  2023-11-30 11:56:13.322025
292  2023-11-30 11:56:13.352995
293  2023-11-30 11:56:13.384910
294  2023-11-30 11:56:13.434089
295  2023-11-30 11:56:13.466261
296  2023-11-30 11:56:13.498306
297  2023-11-30 11:56:13.529557
298  2023-11-30 11:56:13.561139
299  2023-11-30 11:56:13.592980
300  2023-11-30 11:56:13.626518
301  2023-11-30 11:56:13.658291
302  2023-11-30 11:56:13.689771
303  2023-11-30 11:56:13.721909
304  2023-11-30 11:56:13.754392
305  2023-11-30 11:56:13.785508
306  2023-11-30 11:56:13.833415
307  2023-11-30 11:56:13.865863
308  2023-11-30 11:56:13.896845
309  2023-11-30 11:56:13.928935
310  2023-11-30 11:56:13.961849
311  2023-11-30 11:56:13.994036
312  2023-11-30 11:56:14.025353
313  2023-11-30 11:56:14.057798
314  2023-11-30 11:56:14.090055
315  2023-11-30 11:56:14.121853
316  2023-11-30 11:56:14.153734
317  2023-11-30 11:56:14.186510
318  2023-11-30 11:56:14.232923
319  2023-11-30 11:56:14.264807
320  2023-11-30 11:56:14.297761
321  2023-11-30 11:56:14.329859
322  2023-11-30 11:56:14.361809
323  2023-11-30 11:56:14.393819
324  2023-11-30 11:56:14.425182
325  2023-11-30 11:56:14.456745
326  2023-11-30 11:56:14.489843
327  2023-11-30 11:56:14.521935
328  2023-11-30 11:56:14.553576
329  2023-11-30 11:56:14.585865
330  2023-11-30 11:56:14.633635
331  2023-11-30 11:56:14.665985
332  2023-11-30 11:56:14.697833
333  2023-11-30 11:56:14.729851
334  2023-11-30 11:56:14.761735
335  2023-11-30 11:56:14.794197
336  2023-11-30 11:56:14.826111
337  2023-11-30 11:56:14.858120
338  2023-11-30 11:56:14.889854
339  2023-11-30 11:56:14.921843
340  2023-11-30 11:56:14.953423
341  2023-11-30 11:56:14.985376
342  2023-11-30 11:56:15.033333
343  2023-11-30 11:56:15.065432
344  2023-11-30 11:56:15.098754
345  2023-11-30 11:56:15.130249
346  2023-11-30 11:56:15.161928
347  2023-11-30 11:56:15.193534
348  2023-11-30 11:56:15.225679
349  2023-11-30 11:56:15.258392
350  2023-11-30 11:56:15.289437
351  2023-11-30 11:56:15.321924
352  2023-11-30 11:56:15.353867
353  2023-11-30 11:56:15.385754
354  2023-11-30 11:56:15.433842
355  2023-11-30 11:56:15.465689
356  2023-11-30 11:56:15.497850
357  2023-11-30 11:56:15.528899
358  2023-11-30 11:56:15.560916
359  2023-11-30 11:56:15.592727
360  2023-11-30 11:56:15.624643
361  2023-11-30 11:56:15.657220
362  2023-11-30 11:56:15.689840
363  2023-11-30 11:56:15.722332
364  2023-11-30 11:56:15.754043
365  2023-11-30 11:56:15.784967
366  2023-11-30 11:56:15.834239
367  2023-11-30 11:56:15.865503
368  2023-11-30 11:56:15.897410
369  2023-11-30 11:56:15.929478
370  2023-11-30 11:56:15.961857
371  2023-11-30 11:56:15.994367
372  2023-11-30 11:56:16.025796
373  2023-11-30 11:56:16.056521
374  2023-11-30 11:56:16.089403
375  2023-11-30 11:56:16.121871
376  2023-11-30 11:56:16.153971
377  2023-11-30 11:56:16.185720
378  2023-11-30 11:56:16.233783
379  2023-11-30 11:56:16.265074
380  2023-11-30 11:56:16.297832
381  2023-11-30 11:56:16.329989
382  2023-11-30 11:56:16.362109
383  2023-11-30 11:56:16.393010
384  2023-11-30 11:56:16.425826
385  2023-11-30 11:56:16.457527
386  2023-11-30 11:56:16.489856
387  2023-11-30 11:56:16.520949
388  2023-11-30 11:56:16.553088
389  2023-11-30 11:56:16.585644
390  2023-11-30 11:56:16.632861
391  2023-11-30 11:56:16.665605
392  2023-11-30 11:56:16.697835
393  2023-11-30 11:56:16.728858
394  2023-11-30 11:56:16.761851
395  2023-11-30 11:56:16.794156
396  2023-11-30 11:56:16.826081
397  2023-11-30 11:56:16.857844
398  2023-11-30 11:56:16.889030
399  2023-11-30 11:56:16.921842
400  2023-11-30 11:56:16.954179
401  2023-11-30 11:56:16.985697
402  2023-11-30 11:56:17.033867
403  2023-11-30 11:56:17.065536
404  2023-11-30 11:56:17.098387
405  2023-11-30 11:56:17.129994
406  2023-11-30 11:56:17.160929
407  2023-11-30 11:56:17.193508
408  2023-11-30 11:56:17.225470
409  2023-11-30 11:56:17.257976
410  2023-11-30 11:56:17.289772
411  2023-11-30 11:56:17.321751
412  2023-11-30 11:56:17.353783
413  2023-11-30 11:56:17.385801
414  2023-11-30 11:56:17.433841
415  2023-11-30 11:56:17.466873
416  2023-11-30 11:56:17.498057
417  2023-11-30 11:56:17.530299
418  2023-11-30 11:56:17.561635
419  2023-11-30 11:56:17.594131
420  2023-11-30 11:56:17.625430
421  2023-11-30 11:56:17.657311
422  2023-11-30 11:56:17.688913
423  2023-11-30 11:56:17.721095
424  2023-11-30 11:56:17.753686
425  2023-11-30 11:56:17.785510
426  2023-11-30 11:56:17.833996
427  2023-11-30 11:56:17.866499
428  2023-11-30 11:56:17.897849
429  2023-11-30 11:56:17.929843
430  2023-11-30 11:56:17.962297
431  2023-11-30 11:56:17.994125
432  2023-11-30 11:56:18.025916
433  2023-11-30 11:56:18.057651
434  2023-11-30 11:56:18.088973
435  2023-11-30 11:56:18.121587
436  2023-11-30 11:56:18.153725
437  2023-11-30 11:56:18.184850
438  2023-11-30 11:56:18.233279
439  2023-11-30 11:56:18.264917
440  2023-11-30 11:56:18.297031
441  2023-11-30 11:56:18.329955
442  2023-11-30 11:56:18.361852
443  2023-11-30 11:56:18.393997
444  2023-11-30 11:56:18.425930
445  2023-11-30 11:56:18.457004
446  2023-11-30 11:56:18.490051
447  2023-11-30 11:56:18.521914
448  2023-11-30 11:56:18.553452
449  2023-11-30 11:56:18.585873
450  2023-11-30 11:56:18.634570
451  2023-11-30 11:56:18.665728
452  2023-11-30 11:56:18.697351
453  2023-11-30 11:56:18.730398
454  2023-11-30 11:56:18.762385
455  2023-11-30 11:56:18.793375
456  2023-11-30 11:56:18.825591
457  2023-11-30 11:56:18.857810
458  2023-11-30 11:56:18.889915
459  2023-11-30 11:56:18.921833
460  2023-11-30 11:56:18.953862
461  2023-11-30 11:56:18.985088
462  2023-11-30 11:56:19.034392
463  2023-11-30 11:56:19.065537
464  2023-11-30 11:56:19.098122
465  2023-11-30 11:56:19.129965
466  2023-11-30 11:56:19.161516
467  2023-11-30 11:56:19.193999
468  2023-11-30 11:56:19.225901
469  2023-11-30 11:56:19.258213
470  2023-11-30 11:56:19.290658
471  2023-11-30 11:56:19.320961
472  2023-11-30 11:56:19.353327
473  2023-11-30 11:56:19.386300
474  2023-11-30 11:56:19.433460
475  2023-11-30 11:56:19.465755
476  2023-11-30 11:56:19.498260
477  2023-11-30 11:56:19.530059
478  2023-11-30 11:56:19.561741
479  2023-11-30 11:56:19.593470
480  2023-11-30 11:56:19.625915
481  2023-11-30 11:56:19.657157
482  2023-11-30 11:56:19.689851
483  2023-11-30 11:56:19.721847
484  2023-11-30 11:56:19.754272
485  2023-11-30 11:56:19.785990
486  2023-11-30 11:56:19.832757
487  2023-11-30 11:56:19.864628
488  2023-11-30 11:56:19.896544
489  2023-11-30 11:56:19.929078
490  2023-11-30 11:56:19.962103
491  2023-11-30 11:56:19.993058
492  2023-11-30 11:56:20.024819
493  2023-11-30 11:56:20.057362
494  2023-11-30 11:56:20.090304
495  2023-11-30 11:56:20.121450
496  2023-11-30 11:56:20.154058
497  2023-11-30 11:56:20.185602
498  2023-11-30 11:56:20.233774
499  2023-11-30 11:56:20.265554
500  2023-11-30 11:56:20.297883
501  2023-11-30 11:56:20.330048
502  2023-11-30 11:56:20.361891
503  2023-11-30 11:56:20.393073
504  2023-11-30 11:56:20.425144
505  2023-11-30 11:56:20.457845
506  2023-11-30 11:56:20.489936
507  2023-11-30 11:56:20.521294
508  2023-11-30 11:56:20.553234
509  2023-11-30 11:56:20.584788
510  2023-11-30 11:56:20.634470
511  2023-11-30 11:56:20.665825
512  2023-11-30 11:56:20.697701
513  2023-11-30 11:56:20.729171
514  2023-11-30 11:56:20.760892
515  2023-11-30 11:56:20.793821
516  2023-11-30 11:56:20.826341
517  2023-11-30 11:56:20.857967
518  2023-11-30 11:56:20.889818
519  2023-11-30 11:56:20.922357
520  2023-11-30 11:56:20.953310
521  2023-11-30 11:56:20.984989
522  2023-11-30 11:56:21.033843
523  2023-11-30 11:56:21.065568
524  2023-11-30 11:56:21.098118
525  2023-11-30 11:56:21.129813
526  2023-11-30 11:56:21.161871
527  2023-11-30 11:56:21.193804
528  2023-11-30 11:56:21.225713
529  2023-11-30 11:56:21.258002
530  2023-11-30 11:56:21.289099
531  2023-11-30 11:56:21.321840
532  2023-11-30 11:56:21.353711
533  2023-11-30 11:56:21.386034
534  2023-11-30 11:56:21.433813
535  2023-11-30 11:56:21.466028
536  2023-11-30 11:56:21.497496
537  2023-11-30 11:56:21.529299
538  2023-11-30 11:56:21.561820
539  2023-11-30 11:56:21.593841
540  2023-11-30 11:56:21.627155
541  2023-11-30 11:56:21.658023
542  2023-11-30 11:56:21.690848
543  2023-11-30 11:56:21.721796
544  2023-11-30 11:56:21.753832
545  2023-11-30 11:56:21.785957
546  2023-11-30 11:56:21.833868
547  2023-11-30 11:56:21.865579
548  2023-11-30 11:56:21.898440
549  2023-11-30 11:56:21.929394
550  2023-11-30 11:56:21.962065
551  2023-11-30 11:56:21.994846
552  2023-11-30 11:56:22.025395
553  2023-11-30 11:56:22.057307
554  2023-11-30 11:56:22.089539
555  2023-11-30 11:56:22.121865
556  2023-11-30 11:56:22.154065
557  2023-11-30 11:56:22.185566
558  2023-11-30 11:56:22.233560
559  2023-11-30 11:56:22.267603
560  2023-11-30 11:56:22.298642
561  2023-11-30 11:56:22.330879
562  2023-11-30 11:56:22.361841
563  2023-11-30 11:56:22.393872
564  2023-11-30 11:56:22.426098
565  2023-11-30 11:56:22.458834
566  2023-11-30 11:56:22.489832
567  2023-11-30 11:56:22.522019
568  2023-11-30 11:56:22.553966
569  2023-11-30 11:56:22.585386
570  2023-11-30 11:56:22.633021
571  2023-11-30 11:56:22.665846
572  2023-11-30 11:56:22.697839
573  2023-11-30 11:56:22.729137
574  2023-11-30 11:56:22.761850
575  2023-11-30 11:56:22.793844
576  2023-11-30 11:56:22.825832
577  2023-11-30 11:56:22.857852
578  2023-11-30 11:56:22.889842
579  2023-11-30 11:56:22.921058
580  2023-11-30 11:56:22.954055
581  2023-11-30 11:56:22.985019
582  2023-11-30 11:56:23.032641
583  2023-11-30 11:56:23.065789
584  2023-11-30 11:56:23.098713
585  2023-11-30 11:56:23.129066
586  2023-11-30 11:56:23.160792
587  2023-11-30 11:56:23.193420
588  2023-11-30 11:56:23.225786
589  2023-11-30 11:56:23.257830
590  2023-11-30 11:56:23.289817
591  2023-11-30 11:56:23.321621
592  2023-11-30 11:56:23.352844
593  2023-11-30 11:56:23.385914
594  2023-11-30 11:56:23.432948
595  2023-11-30 11:56:23.465462
596  2023-11-30 11:56:23.497819
597  2023-11-30 11:56:23.530153
598  2023-11-30 11:56:23.561534
599  2023-11-30 11:56:23.594761
600  2023-11-30 11:56:23.626365
601  2023-11-30 11:56:23.657585
602  2023-11-30 11:56:23.688724
603  2023-11-30 11:56:23.721041
604  2023-11-30 11:56:23.753505
605  2023-11-30 11:56:23.785565
606  2023-11-30 11:56:23.834511
607  2023-11-30 11:56:23.866134
608  2023-11-30 11:56:23.897757
609  2023-11-30 11:56:23.929705
610  2023-11-30 11:56:23.962517
611  2023-11-30 11:56:23.994411
612  2023-11-30 11:56:24.024636
613  2023-11-30 11:56:24.057051
614  2023-11-30 11:56:24.090277
615  2023-11-30 11:56:24.121249
616  2023-11-30 11:56:24.153219
617  2023-11-30 11:56:24.186351
618  2023-11-30 11:56:24.233373
619  2023-11-30 11:56:24.266702
620  2023-11-30 11:56:24.297436
621  2023-11-30 11:56:24.330083
622  2023-11-30 11:56:24.362054
623  2023-11-30 11:56:24.393975
624  2023-11-30 11:56:24.426940
625  2023-11-30 11:56:24.459024
626  2023-11-30 11:56:24.491069
627  2023-11-30 11:56:24.521660
628  2023-11-30 11:56:24.553888
629  2023-11-30 11:56:24.585860
630  2023-11-30 11:56:24.634012
631  2023-11-30 11:56:24.665593
632  2023-11-30 11:56:24.696906
633  2023-11-30 11:56:24.729832
634  2023-11-30 11:56:24.760631
635  2023-11-30 11:56:24.793685
636  2023-11-30 11:56:24.825276
637  2023-11-30 11:56:24.857794
638  2023-11-30 11:56:24.890017
639  2023-11-30 11:56:24.921691
640  2023-11-30 11:56:24.953666
641  2023-11-30 11:56:24.985574
642  2023-11-30 11:56:25.033855
643  2023-11-30 11:56:25.064812
644  2023-11-30 11:56:25.096875
645  2023-11-30 11:56:25.130045
646  2023-11-30 11:56:25.161603
647  2023-11-30 11:56:25.193556
648  2023-11-30 11:56:25.226042
649  2023-11-30 11:56:25.257374
650  2023-11-30 11:56:25.289653
651  2023-11-30 11:56:25.321185
652  2023-11-30 11:56:25.353059
653  2023-11-30 11:56:25.385276
654  2023-11-30 11:56:25.434324
655  2023-11-30 11:56:25.465702
656  2023-11-30 11:56:25.498223
657  2023-11-30 11:56:25.529376
658  2023-11-30 11:56:25.561859
659  2023-11-30 11:56:25.593683
660  2023-11-30 11:56:25.625879
661  2023-11-30 11:56:25.657750
662  2023-11-30 11:56:25.689816
663  2023-11-30 11:56:25.721660
664  2023-11-30 11:56:25.753875
665  2023-11-30 11:56:25.785990
666  2023-11-30 11:56:25.834382
667  2023-11-30 11:56:25.865405
668  2023-11-30 11:56:25.896877
669  2023-11-30 11:56:25.928976
670  2023-11-30 11:56:25.961491
671  2023-11-30 11:56:25.993938
672  2023-11-30 11:56:26.025444
673  2023-11-30 11:56:26.058730
674  2023-11-30 11:56:26.089582
675  2023-11-30 11:56:26.121617
676  2023-11-30 11:56:26.153573
677  2023-11-30 11:56:26.185120
678  2023-11-30 11:56:26.234135
679  2023-11-30 11:56:26.266571
680  2023-11-30 11:56:26.298133
681  2023-11-30 11:56:26.329608
682  2023-11-30 11:56:26.362048
683  2023-11-30 11:56:26.392632
684  2023-11-30 11:56:26.425508
685  2023-11-30 11:56:26.457789
686  2023-11-30 11:56:26.488849
687  2023-11-30 11:56:26.521598
688  2023-11-30 11:56:26.554076
689  2023-11-30 11:56:26.584907
690  2023-11-30 11:56:26.634368
691  2023-11-30 11:56:26.666152
692  2023-11-30 11:56:26.697798
693  2023-11-30 11:56:26.729810
694  2023-11-30 11:56:26.762163
695  2023-11-30 11:56:26.793849
696  2023-11-30 11:56:26.825494
697  2023-11-30 11:56:26.857296
698  2023-11-30 11:56:26.889313
699  2023-11-30 11:56:26.922002
700  2023-11-30 11:56:26.952971
701  2023-11-30 11:56:26.984908
702  2023-11-30 11:56:27.033805
703  2023-11-30 11:56:27.065725
704  2023-11-30 11:56:27.097579
705  2023-11-30 11:56:27.129845
706  2023-11-30 11:56:27.161414
707  2023-11-30 11:56:27.193776
708  2023-11-30 11:56:27.226318
709  2023-11-30 11:56:27.257661
710  2023-11-30 11:56:27.289537
711  2023-11-30 11:56:27.321678
712  2023-11-30 11:56:27.353448
713  2023-11-30 11:56:27.385545
714  2023-11-30 11:56:27.433682
715  2023-11-30 11:56:27.466318
716  2023-11-30 11:56:27.496714
717  2023-11-30 11:56:27.528923
718  2023-11-30 11:56:27.561695
719  2023-11-30 11:56:27.593701
720  2023-11-30 11:56:27.625988
721  2023-11-30 11:56:27.657895
722  2023-11-30 11:56:27.688834
723  2023-11-30 11:56:27.720994
724  2023-11-30 11:56:27.752862
725  2023-11-30 11:56:27.785439
726  2023-11-30 11:56:27.833741
727  2023-11-30 11:56:27.866785
728  2023-11-30 11:56:27.897956
729  2023-11-30 11:56:27.929871
730  2023-11-30 11:56:27.961890
731  2023-11-30 11:56:27.992953
732  2023-11-30 11:56:28.025616
733  2023-11-30 11:56:28.057365
734  2023-11-30 11:56:28.089537
735  2023-11-30 11:56:28.121608
736  2023-11-30 11:56:28.152960
737  2023-11-30 11:56:28.185545
738  2023-11-30 11:56:28.232957
739  2023-11-30 11:56:28.264848
740  2023-11-30 11:56:28.297864
741  2023-11-30 11:56:28.329833
742  2023-11-30 11:56:28.360839
743  2023-11-30 11:56:28.393844
744  2023-11-30 11:56:28.426043
745  2023-11-30 11:56:28.458038
746  2023-11-30 11:56:28.489579
747  2023-11-30 11:56:28.521478
748  2023-11-30 11:56:28.554068
749  2023-11-30 11:56:28.585365
750  2023-11-30 11:56:28.633146
751  2023-11-30 11:56:28.665846
752  2023-11-30 11:56:28.697808
753  2023-11-30 11:56:28.729883
754  2023-11-30 11:56:28.761021
755  2023-11-30 11:56:28.794373
756  2023-11-30 11:56:28.826037
757  2023-11-30 11:56:28.857512
758  2023-11-30 11:56:28.889839
759  2023-11-30 11:56:28.921825
760  2023-11-30 11:56:28.953724
761  2023-11-30 11:56:28.984998
762  2023-11-30 11:56:29.033773
763  2023-11-30 11:56:29.065975
764  2023-11-30 11:56:29.097552
765  2023-11-30 11:56:29.128999
766  2023-11-30 11:56:29.161462
767  2023-11-30 11:56:29.192978
768  2023-11-30 11:56:29.225677
769  2023-11-30 11:56:29.257961
770  2023-11-30 11:56:29.289993
771  2023-11-30 11:56:29.321713
772  2023-11-30 11:56:29.353279
773  2023-11-30 11:56:29.385975
774  2023-11-30 11:56:29.433621
775  2023-11-30 11:56:29.466048
776  2023-11-30 11:56:29.498131
777  2023-11-30 11:56:29.529876
778  2023-11-30 11:56:29.561865
779  2023-11-30 11:56:29.593827
780  2023-11-30 11:56:29.626320
781  2023-11-30 11:56:29.657393
782  2023-11-30 11:56:29.689342
783  2023-11-30 11:56:29.721147
784  2023-11-30 11:56:29.753158
785  2023-11-30 11:56:29.784902
786  2023-11-30 11:56:29.834129
787  2023-11-30 11:56:29.864882
788  2023-11-30 11:56:29.897839
789  2023-11-30 11:56:29.929736
790  2023-11-30 11:56:29.962148
791  2023-11-30 11:56:29.993763
792  2023-11-30 11:56:30.025066
793  2023-11-30 11:56:30.057608
794  2023-11-30 11:56:30.089488
795  2023-11-30 11:56:30.121868
796  2023-11-30 11:56:30.152985
797  2023-11-30 11:56:30.184849
798  2023-11-30 11:56:30.233458
799  2023-11-30 11:56:30.265787
800  2023-11-30 11:56:30.297085
801  2023-11-30 11:56:30.329691
802  2023-11-30 11:56:30.361826
803  2023-11-30 11:56:30.393097
804  2023-11-30 11:56:30.426167
805  2023-11-30 11:56:30.457676
806  2023-11-30 11:56:30.488839
807  2023-11-30 11:56:30.520941
808  2023-11-30 11:56:30.553832
809  2023-11-30 11:56:30.585062
810  2023-11-30 11:56:30.634134
811  2023-11-30 11:56:30.666000
812  2023-11-30 11:56:30.698163
813  2023-11-30 11:56:30.728905
814  2023-11-30 11:56:30.760828
815  2023-11-30 11:56:30.793989
816  2023-11-30 11:56:30.825840
817  2023-11-30 11:56:30.857060
818  2023-11-30 11:56:30.888886
819  2023-11-30 11:56:30.921532
820  2023-11-30 11:56:30.953258
821  2023-11-30 11:56:30.985445
822  2023-11-30 11:56:31.033916
823  2023-11-30 11:56:31.066601
824  2023-11-30 11:56:31.098073
825  2023-11-30 11:56:31.129841
826  2023-11-30 11:56:31.161685
827  2023-11-30 11:56:31.194012
828  2023-11-30 11:56:31.225816
829  2023-11-30 11:56:31.257339
830  2023-11-30 11:56:31.289067
831  2023-11-30 11:56:31.321627
832  2023-11-30 11:56:31.353366
833  2023-11-30 11:56:31.385841
834  2023-11-30 11:56:31.433964
835  2023-11-30 11:56:31.464844
836  2023-11-30 11:56:31.498306
837  2023-11-30 11:56:31.529835
838  2023-11-30 11:56:31.561725
839  2023-11-30 11:56:31.593632
840  2023-11-30 11:56:31.625241
841  2023-11-30 11:56:31.657803
842  2023-11-30 11:56:31.688979
843  2023-11-30 11:56:31.721673
844  2023-11-30 11:56:31.752991
845  2023-11-30 11:56:31.785826
846  2023-11-30 11:56:31.832867
847  2023-11-30 11:56:31.865471
848  2023-11-30 11:56:31.897221
849  2023-11-30 11:56:31.930295
850  2023-11-30 11:56:31.961490
851  2023-11-30 11:56:31.993777
852  2023-11-30 11:56:32.025258
853  2023-11-30 11:56:32.057662
854  2023-11-30 11:56:32.089714
855  2023-11-30 11:56:32.121682
856  2023-11-30 11:56:32.153061
857  2023-11-30 11:56:32.185675
858  2023-11-30 11:56:32.233726
859  2023-11-30 11:56:32.265730
860  2023-11-30 11:56:32.298189
861  2023-11-30 11:56:32.329829
862  2023-11-30 11:56:32.360515
863  2023-11-30 11:56:32.393207
864  2023-11-30 11:56:32.425752
865  2023-11-30 11:56:32.457785
866  2023-11-30 11:56:32.489820
867  2023-11-30 11:56:32.521644
868  2023-11-30 11:56:32.553569
869  2023-11-30 11:56:32.585654
870  2023-11-30 11:56:32.634492
871  2023-11-30 11:56:32.665874
872  2023-11-30 11:56:32.697262
873  2023-11-30 11:56:32.730093
874  2023-11-30 11:56:32.761545
875  2023-11-30 11:56:32.793836
876  2023-11-30 11:56:32.826031
877  2023-11-30 11:56:32.857840
878  2023-11-30 11:56:32.888610
879  2023-11-30 11:56:32.920573
880  2023-11-30 11:56:32.952861
881  2023-11-30 11:56:32.984980
882  2023-11-30 11:56:33.033826
883  2023-11-30 11:56:33.065654
884  2023-11-30 11:56:33.097831
885  2023-11-30 11:56:33.129834
886  2023-11-30 11:56:33.162017
887  2023-11-30 11:56:33.193381
888  2023-11-30 11:56:33.225629
889  2023-11-30 11:56:33.257855
890  2023-11-30 11:56:33.289297
891  2023-11-30 11:56:33.321767
892  2023-11-30 11:56:33.353586
893  2023-11-30 11:56:33.385470
894  2023-11-30 11:56:33.433456
895  2023-11-30 11:56:33.465413
896  2023-11-30 11:56:33.497525
897  2023-11-30 11:56:33.529843
898  2023-11-30 11:56:33.561824
899  2023-11-30 11:56:33.593832
900  2023-11-30 11:56:33.625509
901  2023-11-30 11:56:33.657776
902  2023-11-30 11:56:33.688799
903  2023-11-30 11:56:33.721551
904  2023-11-30 11:56:33.753829
905  2023-11-30 11:56:33.785850
906  2023-11-30 11:56:33.833974
907  2023-11-30 11:56:33.865878
908  2023-11-30 11:56:33.897835
909  2023-11-30 11:56:33.930229
910  2023-11-30 11:56:33.961397
911  2023-11-30 11:56:33.993349
912  2023-11-30 11:56:34.025527
913  2023-11-30 11:56:34.057260
914  2023-11-30 11:56:34.089639
915  2023-11-30 11:56:34.121681
916  2023-11-30 11:56:34.153763
917  2023-11-30 11:56:34.185431
918  2023-11-30 11:56:34.233759
919  2023-11-30 11:56:34.265720
920  2023-11-30 11:56:34.297321
921  2023-11-30 11:56:34.329425
922  2023-11-30 11:56:34.361990
923  2023-11-30 11:56:34.392797
924  2023-11-30 11:56:34.425833
925  2023-11-30 11:56:34.457417
926  2023-11-30 11:56:34.489347
927  2023-11-30 11:56:34.521465
928  2023-11-30 11:56:34.553142
929  2023-11-30 11:56:34.585716
930  2023-11-30 11:56:34.633607
931  2023-11-30 11:56:34.665999
932  2023-11-30 11:56:34.697197
933  2023-11-30 11:56:34.729772
934  2023-11-30 11:56:34.762129
935  2023-11-30 11:56:34.793801
936  2023-11-30 11:56:34.825898
937  2023-11-30 11:56:34.857802
938  2023-11-30 11:56:34.889786
939  2023-11-30 11:56:34.921550
940  2023-11-30 11:56:34.953988
941  2023-11-30 11:56:34.985562
942  2023-11-30 11:56:35.033706
943  2023-11-30 11:56:35.064732
944  2023-11-30 11:56:35.096758
945  2023-11-30 11:56:35.129183
946  2023-11-30 11:56:35.161937
947  2023-11-30 11:56:35.194084
948  2023-11-30 11:56:35.225355
949  2023-11-30 11:56:35.257983
950  2023-11-30 11:56:35.289797
951  2023-11-30 11:56:35.321916
952  2023-11-30 11:56:35.352910
953  2023-11-30 11:56:35.384944
954  2023-11-30 11:56:35.433759
955  2023-11-30 11:56:35.465964
956  2023-11-30 11:56:35.497270
957  2023-11-30 11:56:35.529839
958  2023-11-30 11:56:35.561678
959  2023-11-30 11:56:35.594286
960  2023-11-30 11:56:35.625282
961  2023-11-30 11:56:35.656965
962  2023-11-30 11:56:35.689401
963  2023-11-30 11:56:35.721824
964  2023-11-30 11:56:35.754106
965  2023-11-30 11:56:35.784978
966  2023-11-30 11:56:35.833760
967  2023-11-30 11:56:35.865696
968  2023-11-30 11:56:35.897376
969  2023-11-30 11:56:35.929837
970  2023-11-30 11:56:35.961820
971  2023-11-30 11:56:35.993930
972  2023-11-30 11:56:36.024865
973  2023-11-30 11:56:36.057107
974  2023-11-30 11:56:36.089732
975  2023-11-30 11:56:36.121852
976  2023-11-30 11:56:36.153575
977  2023-11-30 11:56:36.185315
978  2023-11-30 11:56:36.233656
979  2023-11-30 11:56:36.265826
980  2023-11-30 11:56:36.298217
981  2023-11-30 11:56:36.329681
982  2023-11-30 11:56:36.360708
983  2023-11-30 11:56:36.394510
984  2023-11-30 11:56:36.425021
985  2023-11-30 11:56:36.457634
986  2023-11-30 11:56:36.489837
987  2023-11-30 11:56:36.521696
988  2023-11-30 11:56:36.553642
989  2023-11-30 11:56:36.584544
990  2023-11-30 11:56:36.633817
991  2023-11-30 11:56:36.666137
992  2023-11-30 11:56:36.697275
993  2023-11-30 11:56:36.729242
994  2023-11-30 11:56:36.761042
995  2023-11-30 11:56:36.794086
996  2023-11-30 11:56:36.825838
997  2023-11-30 11:56:36.857027
998  2023-11-30 11:56:36.889158
999  2023-11-30 11:56:36.921159
1000  2023-11-30 11:56:36.953568
1001  2023-11-30 11:56:36.985762
1002  2023-11-30 11:56:37.034353
1003  2023-11-30 11:56:37.065598
1004  2023-11-30 11:56:37.097606
1005  2023-11-30 11:56:37.129830
1006  2023-11-30 11:56:37.162504
1007  2023-11-30 11:56:37.193782
1008  2023-11-30 11:56:37.225807
1009  2023-11-30 11:56:37.257011
1010  2023-11-30 11:56:37.288911
1011  2023-11-30 11:56:37.321370
1012  2023-11-30 11:56:37.353780
1013  2023-11-30 11:56:37.385381
1014  2023-11-30 11:56:37.434127
1015  2023-11-30 11:56:37.466367
1016  2023-11-30 11:56:37.497540
1017  2023-11-30 11:56:37.530026
1018  2023-11-30 11:56:37.561821
1019  2023-11-30 11:56:37.594041
1020  2023-11-30 11:56:37.625860
1021  2023-11-30 11:56:37.657768
1022  2023-11-30 11:56:37.689672
1023  2023-11-30 11:56:37.722065
1024  2023-11-30 11:56:37.752912
1025  2023-11-30 11:56:37.784787
1026  2023-11-30 11:56:37.833008
1027  2023-11-30 11:56:37.865848
1028  2023-11-30 11:56:37.897333
1029  2023-11-30 11:56:37.929680
1030  2023-11-30 11:56:37.962388
1031  2023-11-30 11:56:37.993833
1032  2023-11-30 11:56:38.025620
1033  2023-11-30 11:56:38.057108
1034  2023-11-30 11:56:38.089825
1035  2023-11-30 11:56:38.121937
1036  2023-11-30 11:56:38.152838
1037  2023-11-30 11:56:38.185623
1038  2023-11-30 11:56:38.233721
1039  2023-11-30 11:56:38.266166
1040  2023-11-30 11:56:38.297539
1041  2023-11-30 11:56:38.329430
1042  2023-11-30 11:56:38.360934
1043  2023-11-30 11:56:38.393054
1044  2023-11-30 11:56:38.425285
1045  2023-11-30 11:56:38.458011
1046  2023-11-30 11:56:38.489216
1047  2023-11-30 11:56:38.520806
1048  2023-11-30 11:56:38.553096
1049  2023-11-30 11:56:38.585781
1050  2023-11-30 11:56:38.633814
1051  2023-11-30 11:56:38.666297
1052  2023-11-30 11:56:38.697564
1053  2023-11-30 11:56:38.729828
1054  2023-11-30 11:56:38.762418
1055  2023-11-30 11:56:38.793867
1056  2023-11-30 11:56:38.825839
1057  2023-11-30 11:56:38.856965
1058  2023-11-30 11:56:38.888987
1059  2023-11-30 11:56:38.921862
1060  2023-11-30 11:56:38.953839
1061  2023-11-30 11:56:38.984848
1062  2023-11-30 11:56:39.033821
1063  2023-11-30 11:56:39.066108
1064  2023-11-30 11:56:39.097983
1065  2023-11-30 11:56:39.129311
1066  2023-11-30 11:56:39.162544
1067  2023-11-30 11:56:39.193818
1068  2023-11-30 11:56:39.225661
1069  2023-11-30 11:56:39.257927
1070  2023-11-30 11:56:39.289817
1071  2023-11-30 11:56:39.321895
1072  2023-11-30 11:56:39.353737
1073  2023-11-30 11:56:39.386012
1074  2023-11-30 11:56:39.432843
1075  2023-11-30 11:56:39.465826
1076  2023-11-30 11:56:39.497334
1077  2023-11-30 11:56:39.529827
1078  2023-11-30 11:56:39.562289
1079  2023-11-30 11:56:39.593728
1080  2023-11-30 11:56:39.625915
1081  2023-11-30 11:56:39.657884
1082  2023-11-30 11:56:39.689548
1083  2023-11-30 11:56:39.721729
1084  2023-11-30 11:56:39.754115
1085  2023-11-30 11:56:39.785052
1086  2023-11-30 11:56:39.833679
1087  2023-11-30 11:56:39.865956
1088  2023-11-30 11:56:39.897373
1089  2023-11-30 11:56:39.930112
1090  2023-11-30 11:56:39.961098
1091  2023-11-30 11:56:39.993012
1092  2023-11-30 11:56:40.026337
1093  2023-11-30 11:56:40.057814
1094  2023-11-30 11:56:40.088938
1095  2023-11-30 11:56:40.121769
1096  2023-11-30 11:56:40.153684
1097  2023-11-30 11:56:40.185763
1098  2023-11-30 11:56:40.233881
1099  2023-11-30 11:56:40.265687
1100  2023-11-30 11:56:40.297342
1101  2023-11-30 11:56:40.329824
1102  2023-11-30 11:56:40.361797
1103  2023-11-30 11:56:40.393678
1104  2023-11-30 11:56:40.425833
1105  2023-11-30 11:56:40.457763
1106  2023-11-30 11:56:40.488706
1107  2023-11-30 11:56:40.520621
1108  2023-11-30 11:56:40.553028
1109  2023-11-30 11:56:40.585657
1110  2023-11-30 11:56:40.633937
1111  2023-11-30 11:56:40.666277
1112  2023-11-30 11:56:40.697143
1113  2023-11-30 11:56:40.729286
1114  2023-11-30 11:56:40.761348
1115  2023-11-30 11:56:40.792907
1116  2023-11-30 11:56:40.825848
1117  2023-11-30 11:56:40.857517
1118  2023-11-30 11:56:40.889508
1119  2023-11-30 11:56:40.921825
1120  2023-11-30 11:56:40.953004
1121  2023-11-30 11:56:40.985636
1122  2023-11-30 11:56:41.032804
1123  2023-11-30 11:56:41.064751
1124  2023-11-30 11:56:41.097632
1125  2023-11-30 11:56:41.129408
1126  2023-11-30 11:56:41.161846
1127  2023-11-30 11:56:41.193798
1128  2023-11-30 11:56:41.225132
1129  2023-11-30 11:56:41.258846
1130  2023-11-30 11:56:41.288894
1131  2023-11-30 11:56:41.321833
1132  2023-11-30 11:56:41.353464
1133  2023-11-30 11:56:41.386879
1134  2023-11-30 11:56:41.435732
1135  2023-11-30 11:56:41.466000
1136  2023-11-30 11:56:41.498362
1137  2023-11-30 11:56:41.530815
1138  2023-11-30 11:56:41.560968
1139  2023-11-30 11:56:41.593927
1140  2023-11-30 11:56:41.625829
1141  2023-11-30 11:56:41.658066
1142  2023-11-30 11:56:41.689757
1143  2023-11-30 11:56:41.721817
1144  2023-11-30 11:56:41.754023
1145  2023-11-30 11:56:41.785999
1146  2023-11-30 11:56:41.835270
1147  2023-11-30 11:56:41.866462
1148  2023-11-30 11:56:41.898415
1149  2023-11-30 11:56:41.931013
1150  2023-11-30 11:56:41.961932
1151  2023-11-30 11:56:41.994146
1152  2023-11-30 11:56:42.025847
1153  2023-11-30 11:56:42.057795
1154  2023-11-30 11:56:42.089445
1155  2023-11-30 11:56:42.121348
1156  2023-11-30 11:56:42.153778
1157  2023-11-30 11:56:42.185767
1158  2023-11-30 11:56:42.233966
1159  2023-11-30 11:56:42.265771
1160  2023-11-30 11:56:42.298370
1161  2023-11-30 11:56:42.330013
1162  2023-11-30 11:56:42.361970
1163  2023-11-30 11:56:42.392910
1164  2023-11-30 11:56:42.425595
1165  2023-11-30 11:56:42.457636
1166  2023-11-30 11:56:42.489747
1167  2023-11-30 11:56:42.521584
1168  2023-11-30 11:56:42.553572
1169  2023-11-30 11:56:42.585673
1170  2023-11-30 11:56:42.633917
1171  2023-11-30 11:56:42.664963
1172  2023-11-30 11:56:42.697185
1173  2023-11-30 11:56:42.729961
1174  2023-11-30 11:56:42.761138
1175  2023-11-30 11:56:42.793533
1176  2023-11-30 11:56:42.825458
1177  2023-11-30 11:56:42.857191
1178  2023-11-30 11:56:42.889407
1179  2023-11-30 11:56:42.921144
1180  2023-11-30 11:56:42.953148
1181  2023-11-30 11:56:42.984635
1182  2023-11-30 11:56:43.033353
1183  2023-11-30 11:56:43.065373
1184  2023-11-30 11:56:43.098270
1185  2023-11-30 11:56:43.130166
1186  2023-11-30 11:56:43.161342
1187  2023-11-30 11:56:43.193365
1188  2023-11-30 11:56:43.224963
1189  2023-11-30 11:56:43.257106
1190  2023-11-30 11:56:43.289939
1191  2023-11-30 11:56:43.320841
1192  2023-11-30 11:56:43.352830
1193  2023-11-30 11:56:43.385184
1194  2023-11-30 11:56:43.433749
1195  2023-11-30 11:56:43.466203
1196  2023-11-30 11:56:43.497487
1197  2023-11-30 11:56:43.529900
1198  2023-11-30 11:56:43.560776
1199  2023-11-30 11:56:43.593966
1200  2023-11-30 11:56:43.624782
1201  2023-11-30 11:56:43.656927
1202  2023-11-30 11:56:43.689955
1203  2023-11-30 11:56:43.720890
1204  2023-11-30 11:56:43.752926
1205  2023-11-30 11:56:43.784529
1206  2023-11-30 11:56:43.833617
1207  2023-11-30 11:56:43.866072
1208  2023-11-30 11:56:43.899605
1209  2023-11-30 11:56:43.930121
1210  2023-11-30 11:56:43.961376
1211  2023-11-30 11:56:43.992967
1212  2023-11-30 11:56:44.025708
1213  2023-11-30 11:56:44.057050
1214  2023-11-30 11:56:44.089671
1215  2023-11-30 11:56:44.121606
1216  2023-11-30 11:56:44.153733
1217  2023-11-30 11:56:44.185781
1218  2023-11-30 11:56:44.233466
1219  2023-11-30 11:56:44.265506
1220  2023-11-30 11:56:44.297429
1221  2023-11-30 11:56:44.329325
1222  2023-11-30 11:56:44.361551
1223  2023-11-30 11:56:44.392810
1224  2023-11-30 11:56:44.425155
1225  2023-11-30 11:56:44.457191
1226  2023-11-30 11:56:44.489385
1227  2023-11-30 11:56:44.521106
1228  2023-11-30 11:56:44.553056
1229  2023-11-30 11:56:44.584771
1230  2023-11-30 11:56:44.634740
1231  2023-11-30 11:56:44.666758
1232  2023-11-30 11:56:44.697897
1233  2023-11-30 11:56:44.730042
1234  2023-11-30 11:56:44.761366
1235  2023-11-30 11:56:44.793662
1236  2023-11-30 11:56:44.824976
1237  2023-11-30 11:56:44.857406
1238  2023-11-30 11:56:44.889444
1239  2023-11-30 11:56:44.921797
1240  2023-11-30 11:56:44.953748
1241  2023-11-30 11:56:44.985602
1242  2023-11-30 11:56:45.033916
1243  2023-11-30 11:56:45.065771
1244  2023-11-30 11:56:45.099850
1245  2023-11-30 11:56:45.129658
1246  2023-11-30 11:56:45.161780
1247  2023-11-30 11:56:45.193696
1248  2023-11-30 11:56:45.225615
1249  2023-11-30 11:56:45.257887
1250  2023-11-30 11:56:45.288887
1251  2023-11-30 11:56:45.321791
1252  2023-11-30 11:56:45.353618
1253  2023-11-30 11:56:45.385447
1254  2023-11-30 11:56:45.433588
1255  2023-11-30 11:56:45.466014
1256  2023-11-30 11:56:45.497406
1257  2023-11-30 11:56:45.528735
1258  2023-11-30 11:56:45.560869
1259  2023-11-30 11:56:45.593980
1260  2023-11-30 11:56:45.625453
1261  2023-11-30 11:56:45.657098
1262  2023-11-30 11:56:45.689678
1263  2023-11-30 11:56:45.721214
1264  2023-11-30 11:56:45.752646
1265  2023-11-30 11:56:45.785773
1266  2023-11-30 11:56:45.833598
1267  2023-11-30 11:56:45.865871
1268  2023-11-30 11:56:45.897369
1269  2023-11-30 11:56:45.929282
1270  2023-11-30 11:56:45.960996
1271  2023-11-30 11:56:45.993779
1272  2023-11-30 11:56:46.025700
1273  2023-11-30 11:56:46.056841
1274  2023-11-30 11:56:46.089785
1275  2023-11-30 11:56:46.121770
1276  2023-11-30 11:56:46.153653
1277  2023-11-30 11:56:46.185564
1278  2023-11-30 11:56:46.233636
1279  2023-11-30 11:56:46.265394
1280  2023-11-30 11:56:46.298703
1281  2023-11-30 11:56:46.329592
1282  2023-11-30 11:56:46.361250
1283  2023-11-30 11:56:46.393480
1284  2023-11-30 11:56:46.425200
1285  2023-11-30 11:56:46.457260
1286  2023-11-30 11:56:46.488902
1287  2023-11-30 11:56:46.521397
1288  2023-11-30 11:56:46.553049
1289  2023-11-30 11:56:46.585607
1290  2023-11-30 11:56:46.634002
1291  2023-11-30 11:56:46.665222
1292  2023-11-30 11:56:46.698533
1293  2023-11-30 11:56:46.728742
1294  2023-11-30 11:56:46.761145
1295  2023-11-30 11:56:46.793121
1296  2023-11-30 11:56:46.825849
1297  2023-11-30 11:56:46.857193
1298  2023-11-30 11:56:46.888843
1299  2023-11-30 11:56:46.921050
1300  2023-11-30 11:56:46.953872
1301  2023-11-30 11:56:46.985633
1302  2023-11-30 11:56:47.033388
1303  2023-11-30 11:56:47.065055
1304  2023-11-30 11:56:47.097979
1305  2023-11-30 11:56:47.128835
1306  2023-11-30 11:56:47.161756
1307  2023-11-30 11:56:47.193810
1308  2023-11-30 11:56:47.224979
1309  2023-11-30 11:56:47.256963
1310  2023-11-30 11:56:47.289583
1311  2023-11-30 11:56:47.321494
1312  2023-11-30 11:56:47.353730
1313  2023-11-30 11:56:47.385861
1314  2023-11-30 11:56:47.433814
1315  2023-11-30 11:56:47.465360
1316  2023-11-30 11:56:47.498334
1317  2023-11-30 11:56:47.528793
1318  2023-11-30 11:56:47.561493
1319  2023-11-30 11:56:47.593524
1320  2023-11-30 11:56:47.625493
1321  2023-11-30 11:56:47.657630
1322  2023-11-30 11:56:47.689027
1323  2023-11-30 11:56:47.721012
1324  2023-11-30 11:56:47.753768
1325  2023-11-30 11:56:47.785856
1326  2023-11-30 11:56:47.833689
1327  2023-11-30 11:56:47.865775
1328  2023-11-30 11:56:47.897516
1329  2023-11-30 11:56:47.929708
1330  2023-11-30 11:56:47.961603
1331  2023-11-30 11:56:47.992998
1332  2023-11-30 11:56:48.025483
1333  2023-11-30 11:56:48.057705
1334  2023-11-30 11:56:48.088759
1335  2023-11-30 11:56:48.120872
1336  2023-11-30 11:56:48.153422
1337  2023-11-30 11:56:48.184989
1338  2023-11-30 11:56:48.233808
1339  2023-11-30 11:56:48.265686
1340  2023-11-30 11:56:48.296914
1341  2023-11-30 11:56:48.328589
1342  2023-11-30 11:56:48.361682
1343  2023-11-30 11:56:48.393613
1344  2023-11-30 11:56:48.425707
1345  2023-11-30 11:56:48.457499
1346  2023-11-30 11:56:48.489692
1347  2023-11-30 11:56:48.521683
1348  2023-11-30 11:56:48.552859
1349  2023-11-30 11:56:48.585701
1350  2023-11-30 11:56:48.632933
1351  2023-11-30 11:56:48.665834
1352  2023-11-30 11:56:48.697541
1353  2023-11-30 11:56:48.729038
1354  2023-11-30 11:56:48.761143
1355  2023-11-30 11:56:48.793649
1356  2023-11-30 11:56:48.825766
1357  2023-11-30 11:56:48.857818
1358  2023-11-30 11:56:48.888817
1359  2023-11-30 11:56:48.921682
1360  2023-11-30 11:56:48.953585
1361  2023-11-30 11:56:48.985543
1362  2023-11-30 11:56:49.033599
1363  2023-11-30 11:56:49.065588
1364  2023-11-30 11:56:49.097868
1365  2023-11-30 11:56:49.129685
1366  2023-11-30 11:56:49.160668
1367  2023-11-30 11:56:49.193485
1368  2023-11-30 11:56:49.225576
1369  2023-11-30 11:56:49.257849
1370  2023-11-30 11:56:49.289707
1371  2023-11-30 11:56:49.321498
1372  2023-11-30 11:56:49.353530
1373  2023-11-30 11:56:49.385147
1374  2023-11-30 11:56:49.433612
1375  2023-11-30 11:56:49.465350
1376  2023-11-30 11:56:49.497554
1377  2023-11-30 11:56:49.529726
1378  2023-11-30 11:56:49.561455
1379  2023-11-30 11:56:49.593810
1380  2023-11-30 11:56:49.625924
1381  2023-11-30 11:56:49.657814
1382  2023-11-30 11:56:49.689375
1383  2023-11-30 11:56:49.721461
1384  2023-11-30 11:56:49.753607
1385  2023-11-30 11:56:49.785794
1386  2023-11-30 11:56:49.833814
1387  2023-11-30 11:56:49.865812
1388  2023-11-30 11:56:49.897566
1389  2023-11-30 11:56:49.929469
1390  2023-11-30 11:56:49.961652
1391  2023-11-30 11:56:49.992954
1392  2023-11-30 11:56:50.025758
1393  2023-11-30 11:56:50.057174
1394  2023-11-30 11:56:50.089126
1395  2023-11-30 11:56:50.121628
1396  2023-11-30 11:56:50.153710
1397  2023-11-30 11:56:50.185670
1398  2023-11-30 11:56:50.233696
1399  2023-11-30 11:56:50.264690
1400  2023-11-30 11:56:50.297611
1401  2023-11-30 11:56:50.329758
1402  2023-11-30 11:56:50.361463
1403  2023-11-30 11:56:50.393026
1404  2023-11-30 11:56:50.425338
1405  2023-11-30 11:56:50.457858
1406  2023-11-30 11:56:50.489712
1407  2023-11-30 11:56:50.521519
1408  2023-11-30 11:56:50.552936
1409  2023-11-30 11:56:50.585693
1410  2023-11-30 11:56:50.634115
1411  2023-11-30 11:56:50.665826
1412  2023-11-30 11:56:50.697006
1413  2023-11-30 11:56:50.728895
1414  2023-11-30 11:56:50.760818
1415  2023-11-30 11:56:50.792680
1416  2023-11-30 11:56:50.825498
1417  2023-11-30 11:56:50.857494
1418  2023-11-30 11:56:50.889608
1419  2023-11-30 11:56:50.921770
1420  2023-11-30 11:56:50.953457
1421  2023-11-30 11:56:50.985685
1422  2023-11-30 11:56:51.033503
1423  2023-11-30 11:56:51.065231
1424  2023-11-30 11:56:51.097224
1425  2023-11-30 11:56:51.129259
1426  2023-11-30 11:56:51.161638
1427  2023-11-30 11:56:51.193768
1428  2023-11-30 11:56:51.224844
1429  2023-11-30 11:56:51.257754
1430  2023-11-30 11:56:51.288876
1431  2023-11-30 11:56:51.321448
1432  2023-11-30 11:56:51.352879
1433  2023-11-30 11:56:51.385605
1434  2023-11-30 11:56:51.433146
1435  2023-11-30 11:56:51.464820
1436  2023-11-30 11:56:51.497559
1437  2023-11-30 11:56:51.529801
1438  2023-11-30 11:56:51.561381
1439  2023-11-30 11:56:51.593972
1440  2023-11-30 11:56:51.625140
1441  2023-11-30 11:56:51.657663
1442  2023-11-30 11:56:51.689065
1443  2023-11-30 11:56:51.721432
1444  2023-11-30 11:56:51.753800
1445  2023-11-30 11:56:51.784808
1446  2023-11-30 11:56:51.833640
1447  2023-11-30 11:56:51.864485
1448  2023-11-30 11:56:51.896545
1449  2023-11-30 11:56:51.929644
1450  2023-11-30 11:56:51.961686
1451  2023-11-30 11:56:51.992923
1452  2023-11-30 11:56:52.025602
1453  2023-11-30 11:56:52.057808
1454  2023-11-30 11:56:52.089818
1455  2023-11-30 11:56:52.121437
1456  2023-11-30 11:56:52.152816
1457  2023-11-30 11:56:52.185496
1458  2023-11-30 11:56:52.233904
1459  2023-11-30 11:56:52.266072
1460  2023-11-30 11:56:52.297620
1461  2023-11-30 11:56:52.329716
1462  2023-11-30 11:56:52.361915
1463  2023-11-30 11:56:52.393103
1464  2023-11-30 11:56:52.424642
1465  2023-11-30 11:56:52.457771
1466  2023-11-30 11:56:52.489754
1467  2023-11-30 11:56:52.521586
1468  2023-11-30 11:56:52.553722
1469  2023-11-30 11:56:52.585121
1470  2023-11-30 11:56:52.634236
1471  2023-11-30 11:56:52.665807
1472  2023-11-30 11:56:52.696612
1473  2023-11-30 11:56:52.730047
1474  2023-11-30 11:56:52.761208
1475  2023-11-30 11:56:52.793767
1476  2023-11-30 11:56:52.825869
1477  2023-11-30 11:56:52.858047
1478  2023-11-30 11:56:52.889629
1479  2023-11-30 11:56:52.921016
1480  2023-11-30 11:56:52.952969
1481  2023-11-30 11:56:52.984964
1482  2023-11-30 11:56:53.033634
1483  2023-11-30 11:56:53.064768
1484  2023-11-30 11:56:53.097613
1485  2023-11-30 11:56:53.129713
1486  2023-11-30 11:56:53.161919
1487  2023-11-30 11:56:53.193365
1488  2023-11-30 11:56:53.225846
1489  2023-11-30 11:56:53.257200
1490  2023-11-30 11:56:53.290005
1491  2023-11-30 11:56:53.321867
1492  2023-11-30 11:56:53.353703
1493  2023-11-30 11:56:53.385620
1494  2023-11-30 11:56:53.433734
1495  2023-11-30 11:56:53.465778
1496  2023-11-30 11:56:53.497503
1497  2023-11-30 11:56:53.528891
1498  2023-11-30 11:56:53.560832
1499  2023-11-30 11:56:53.593540
1500  2023-11-30 11:56:53.625486
1501  2023-11-30 11:56:53.657723
1502  2023-11-30 11:56:53.689633
1503  2023-11-30 11:56:53.721557
1504  2023-11-30 11:56:53.753215
1505  2023-11-30 11:56:53.785015
1506  2023-11-30 11:56:53.833292
1507  2023-11-30 11:56:53.865788
1508  2023-11-30 11:56:53.897184
1509  2023-11-30 11:56:53.928905
1510  2023-11-30 11:56:53.961677
1511  2023-11-30 11:56:53.993575
1512  2023-11-30 11:56:54.025236
1513  2023-11-30 11:56:54.057160
1514  2023-11-30 11:56:54.089507
1515  2023-11-30 11:56:54.121574
1516  2023-11-30 11:56:54.152913
1517  2023-11-30 11:56:54.185584
1518  2023-11-30 11:56:54.233178
1519  2023-11-30 11:56:54.265658
1520  2023-11-30 11:56:54.297512
1521  2023-11-30 11:56:54.328925
1522  2023-11-30 11:56:54.361515
1523  2023-11-30 11:56:54.392778
1524  2023-11-30 11:56:54.425625
1525  2023-11-30 11:56:54.457606
1526  2023-11-30 11:56:54.489705
1527  2023-11-30 11:56:54.520762
1528  2023-11-30 11:56:54.552941
1529  2023-11-30 11:56:54.585191
1530  2023-11-30 11:56:54.634134
1531  2023-11-30 11:56:54.665415
1532  2023-11-30 11:56:54.697631
1533  2023-11-30 11:56:54.728825
1534  2023-11-30 11:56:54.760800
1535  2023-11-30 11:56:54.793015
1536  2023-11-30 11:56:54.825010
1537  2023-11-30 11:56:54.857473
1538  2023-11-30 11:56:54.889091
1539  2023-11-30 11:56:54.921575
1540  2023-11-30 11:56:54.952949
1541  2023-11-30 11:56:54.985401
1542  2023-11-30 11:56:55.034181
1543  2023-11-30 11:56:55.065454
1544  2023-11-30 11:56:55.096715
1545  2023-11-30 11:56:55.129372
1546  2023-11-30 11:56:55.161487
1547  2023-11-30 11:56:55.193476
1548  2023-11-30 11:56:55.225501
1549  2023-11-30 11:56:55.257597
1550  2023-11-30 11:56:55.289261
1551  2023-11-30 11:56:55.320824
1552  2023-11-30 11:56:55.353648
1553  2023-11-30 11:56:55.384847
1554  2023-11-30 11:56:55.433809
1555  2023-11-30 11:56:55.465651
1556  2023-11-30 11:56:55.497084
1557  2023-11-30 11:56:55.529790
1558  2023-11-30 11:56:55.561026
1559  2023-11-30 11:56:55.592886
1560  2023-11-30 11:56:55.625717
1561  2023-11-30 11:56:55.656823
1562  2023-11-30 11:56:55.689230
1563  2023-11-30 11:56:55.720746
1564  2023-11-30 11:56:55.753583
1565  2023-11-30 11:56:55.785984
1566  2023-11-30 11:56:55.833730
1567  2023-11-30 11:56:55.865593
1568  2023-11-30 11:56:55.897660
1569  2023-11-30 11:56:55.929614
1570  2023-11-30 11:56:55.961564
1571  2023-11-30 11:56:55.993464
1572  2023-11-30 11:56:56.024939
1573  2023-11-30 11:56:56.056872
1574  2023-11-30 11:56:56.089802
1575  2023-11-30 11:56:56.121842
1576  2023-11-30 11:56:56.153776
1577  2023-11-30 11:56:56.184946
1578  2023-11-30 11:56:56.233461
1579  2023-11-30 11:56:56.264746
1580  2023-11-30 11:56:56.297672
1581  2023-11-30 11:56:56.329421
1582  2023-11-30 11:56:56.361361
1583  2023-11-30 11:56:56.392883
1584  2023-11-30 11:56:56.425732
1585  2023-11-30 11:56:56.456940
1586  2023-11-30 11:56:56.489476
1587  2023-11-30 11:56:56.521660
1588  2023-11-30 11:56:56.553671
1589  2023-11-30 11:56:56.584854
1590  2023-11-30 11:56:56.632857
1591  2023-11-30 11:56:56.664998
1592  2023-11-30 11:56:56.696736
1593  2023-11-30 11:56:56.729182
1594  2023-11-30 11:56:56.761175
1595  2023-11-30 11:56:56.792759
1596  2023-11-30 11:56:56.825695
1597  2023-11-30 11:56:56.856889
1598  2023-11-30 11:56:56.888744
1599  2023-11-30 11:56:56.921655
1600  2023-11-30 11:56:56.953636
1601  2023-11-30 11:56:56.985317
1602  2023-11-30 11:56:57.034061
1603  2023-11-30 11:56:57.065404
1604  2023-11-30 11:56:57.097674
1605  2023-11-30 11:56:57.129743
1606  2023-11-30 11:56:57.162044
1607  2023-11-30 11:56:57.193449
1608  2023-11-30 11:56:57.224840
1609  2023-11-30 11:56:57.257157
1610  2023-11-30 11:56:57.288990
1611  2023-11-30 11:56:57.320705
1612  2023-11-30 11:56:57.353165
1613  2023-11-30 11:56:57.385432
1614  2023-11-30 11:56:57.432802
1615  2023-11-30 11:56:57.465755
1616  2023-11-30 11:56:57.497698
1617  2023-11-30 11:56:57.529731
1618  2023-11-30 11:56:57.561558
1619  2023-11-30 11:56:57.593635
1620  2023-11-30 11:56:57.625810
1621  2023-11-30 11:56:57.657802
1622  2023-11-30 11:56:57.688813
1623  2023-11-30 11:56:57.721787
1624  2023-11-30 11:56:57.753172
1625  2023-11-30 11:56:57.785540
1626  2023-11-30 11:56:57.833296
1627  2023-11-30 11:56:57.865402
1628  2023-11-30 11:56:57.896974
1629  2023-11-30 11:56:57.929231
1630  2023-11-30 11:56:57.961003
1631  2023-11-30 11:56:57.993778
1632  2023-11-30 11:56:58.024892
1633  2023-11-30 11:56:58.057690
1634  2023-11-30 11:56:58.089685
1635  2023-11-30 11:56:58.121906
1636  2023-11-30 11:56:58.153762
1637  2023-11-30 11:56:58.185791
1638  2023-11-30 11:56:58.233941
1639  2023-11-30 11:56:58.265710
1640  2023-11-30 11:56:58.297673
1641  2023-11-30 11:56:58.328644
1642  2023-11-30 11:56:58.361444
1643  2023-11-30 11:56:58.393754
1644  2023-11-30 11:56:58.425334
1645  2023-11-30 11:56:58.458031
1646  2023-11-30 11:56:58.488825
1647  2023-11-30 11:56:58.520902
1648  2023-11-30 11:56:58.553705
1649  2023-11-30 11:56:58.585948
1650  2023-11-30 11:56:58.633433
1651  2023-11-30 11:56:58.665665
1652  2023-11-30 11:56:58.697791
1653  2023-11-30 11:56:58.729255
1654  2023-11-30 11:56:58.761755
1655  2023-11-30 11:56:58.793811
1656  2023-11-30 11:56:58.825916
1657  2023-11-30 11:56:58.856843
1658  2023-11-30 11:56:58.889294
1659  2023-11-30 11:56:58.921953
1660  2023-11-30 11:56:58.953812
1661  2023-11-30 11:56:58.984870
1662  2023-11-30 11:56:59.033759
1663  2023-11-30 11:56:59.064834
1664  2023-11-30 11:56:59.097628
1665  2023-11-30 11:56:59.128969
1666  2023-11-30 11:56:59.161730
1667  2023-11-30 11:56:59.193421
1668  2023-11-30 11:56:59.225745
1669  2023-11-30 11:56:59.257893
1670  2023-11-30 11:56:59.289866
1671  2023-11-30 11:56:59.321885
1672  2023-11-30 11:56:59.353494
1673  2023-11-30 11:56:59.386791
1674  2023-11-30 11:56:59.432669
1675  2023-11-30 11:56:59.465782
1676  2023-11-30 11:56:59.497791
1677  2023-11-30 11:56:59.528775
1678  2023-11-30 11:56:59.561825
1679  2023-11-30 11:56:59.593376
1680  2023-11-30 11:56:59.625320
1681  2023-11-30 11:56:59.657495
1682  2023-11-30 11:56:59.689732
1683  2023-11-30 11:56:59.721219
1684  2023-11-30 11:56:59.753972
1685  2023-11-30 11:56:59.785794
1686  2023-11-30 11:56:59.833705
1687  2023-11-30 11:56:59.865614
1688  2023-11-30 11:56:59.896802
1689  2023-11-30 11:56:59.929480
1690  2023-11-30 11:56:59.960620
1691  2023-11-30 11:56:59.992815
1692  2023-11-30 11:57:00.025514
1693  2023-11-30 11:57:00.057142
1694  2023-11-30 11:57:00.090160
1695  2023-11-30 11:57:00.120998
1696  2023-11-30 11:57:00.153710
1697  2023-11-30 11:57:00.185795
1698  2023-11-30 11:57:00.232715
1699  2023-11-30 11:57:00.265123
1700  2023-11-30 11:57:00.298012
1701  2023-11-30 11:57:00.328765
1702  2023-11-30 11:57:00.361500
1703  2023-11-30 11:57:00.393470
1704  2023-11-30 11:57:00.425801
1705  2023-11-30 11:57:00.457828
1706  2023-11-30 11:57:00.489812
1707  2023-11-30 11:57:00.520601
1708  2023-11-30 11:57:00.552916
1709  2023-11-30 11:57:00.588004
1710  2023-11-30 11:57:00.635718
1711  2023-11-30 11:57:00.666763
1712  2023-11-30 11:57:00.697785
1713  2023-11-30 11:57:00.728816
1714  2023-11-30 11:57:00.762827
1715  2023-11-30 11:57:00.794833
1716  2023-11-30 11:57:00.826544
1717  2023-11-30 11:57:00.858685
1718  2023-11-30 11:57:00.889753
1719  2023-11-30 11:57:00.922178
1720  2023-11-30 11:57:00.954026
1721  2023-11-30 11:57:00.986827
1722  2023-11-30 11:57:01.033794
1723  2023-11-30 11:57:01.066024
1724  2023-11-30 11:57:01.097244
1725  2023-11-30 11:57:01.129861
1726  2023-11-30 11:57:01.162866
1727  2023-11-30 11:57:01.193810
1728  2023-11-30 11:57:01.226864
1729  2023-11-30 11:57:01.258770
1730  2023-11-30 11:57:01.289748
1731  2023-11-30 11:57:01.322802
1732  2023-11-30 11:57:01.353914
1733  2023-11-30 11:57:01.387821
1734  2023-11-30 11:57:01.434483
1735  2023-11-30 11:57:01.466529
1736  2023-11-30 11:57:01.498680
1737  2023-11-30 11:57:01.529716
1738  2023-11-30 11:57:01.561858
1739  2023-11-30 11:57:01.592775
1740  2023-11-30 11:57:01.625637
1741  2023-11-30 11:57:01.657753
1742  2023-11-30 11:57:01.689761
1743  2023-11-30 11:57:01.721759
1744  2023-11-30 11:57:01.753728
1745  2023-11-30 11:57:01.786771
1746  2023-11-30 11:57:01.833679
1747  2023-11-30 11:57:01.865715
1748  2023-11-30 11:57:01.897718
1749  2023-11-30 11:57:01.929802
1750  2023-11-30 11:57:01.961712
1751  2023-11-30 11:57:01.993624
1752  2023-11-30 11:57:02.025690
1753  2023-11-30 11:57:02.058206
1754  2023-11-30 11:57:02.089431
1755  2023-11-30 11:57:02.121259
1756  2023-11-30 11:57:02.153044
1757  2023-11-30 11:57:02.187067
1758  2023-11-30 11:57:02.233710
1759  2023-11-30 11:57:02.264903
1760  2023-11-30 11:57:02.297295
1761  2023-11-30 11:57:02.329231
1762  2023-11-30 11:57:02.361294
1763  2023-11-30 11:57:02.393226
1764  2023-11-30 11:57:02.425200
1765  2023-11-30 11:57:02.457222
1766  2023-11-30 11:57:02.489245
1767  2023-11-30 11:57:02.521163
1768  2023-11-30 11:57:02.552988
1769  2023-11-30 11:57:02.586006
1770  2023-11-30 11:57:02.633951
1771  2023-11-30 11:57:02.665730
1772  2023-11-30 11:57:02.697594
1773  2023-11-30 11:57:02.729259
1774  2023-11-30 11:57:02.761401
1775  2023-11-30 11:57:02.793874
1776  2023-11-30 11:57:02.825041
1777  2023-11-30 11:57:02.857695
1778  2023-11-30 11:57:02.889836
1779  2023-11-30 11:57:02.920748
1780  2023-11-30 11:57:02.953736
1781  2023-11-30 11:57:02.985609
1782  2023-11-30 11:57:03.033264
1783  2023-11-30 11:57:03.065400
1784  2023-11-30 11:57:03.098646
1785  2023-11-30 11:57:03.130650
1786  2023-11-30 11:57:03.161559
1787  2023-11-30 11:57:03.192579
1788  2023-11-30 11:57:03.225542
1789  2023-11-30 11:57:03.257530
1790  2023-11-30 11:57:03.289401
1791  2023-11-30 11:57:03.321284
1792  2023-11-30 11:57:03.353313
1793  2023-11-30 11:57:03.385382
1794  2023-11-30 11:57:03.433265
1795  2023-11-30 11:57:03.465277
1796  2023-11-30 11:57:03.498241
1797  2023-11-30 11:57:03.530188
1798  2023-11-30 11:57:03.561340
1799  2023-11-30 11:57:03.593852
1800  2023-11-30 11:57:03.627355
1801  2023-11-30 11:57:03.657014
1802  2023-11-30 11:57:03.689129
1803  2023-11-30 11:57:03.721358
1804  2023-11-30 11:57:03.753313
1805  2023-11-30 11:57:03.785842
1806  2023-11-30 11:57:03.833703
1807  2023-11-30 11:57:03.866955
1808  2023-11-30 11:57:03.897627
1809  2023-11-30 11:57:03.929860
1810  2023-11-30 11:57:03.960854
1811  2023-11-30 11:57:03.993918
1812  2023-11-30 11:57:04.024808
1813  2023-11-30 11:57:04.056729
1814  2023-11-30 11:57:04.090767
1815  2023-11-30 11:57:04.121867
1816  2023-11-30 11:57:04.153756
1817  2023-11-30 11:57:04.187312
1818  2023-11-30 11:57:04.233448
1819  2023-11-30 11:57:04.265035
1820  2023-11-30 11:57:04.297019
1821  2023-11-30 11:57:04.328907
1822  2023-11-30 11:57:04.361707
1823  2023-11-30 11:57:04.393258
1824  2023-11-30 11:57:04.426448
1825  2023-11-30 11:57:04.458392
1826  2023-11-30 11:57:04.490440
1827  2023-11-30 11:57:04.521600
1828  2023-11-30 11:57:04.553406
1829  2023-11-30 11:57:04.585764
1830  2023-11-30 11:57:04.633707
1831  2023-11-30 11:57:04.665692
1832  2023-11-30 11:57:04.697152
1833  2023-11-30 11:57:04.729263
1834  2023-11-30 11:57:04.762174
1835  2023-11-30 11:57:04.793220
1836  2023-11-30 11:57:04.825217
1837  2023-11-30 11:57:04.857397
1838  2023-11-30 11:57:04.889014
1839  2023-11-30 11:57:04.920945
1840  2023-11-30 11:57:04.953272
1841  2023-11-30 11:57:04.986092
1842  2023-11-30 11:57:05.033531
1843  2023-11-30 11:57:05.065606
1844  2023-11-30 11:57:05.097531
1845  2023-11-30 11:57:05.129374
1846  2023-11-30 11:57:05.161567
1847  2023-11-30 11:57:05.192827
1848  2023-11-30 11:57:05.225643
1849  2023-11-30 11:57:05.257250
1850  2023-11-30 11:57:05.289478
1851  2023-11-30 11:57:05.320686
1852  2023-11-30 11:57:05.352816
1853  2023-11-30 11:57:05.385497
1854  2023-11-30 11:57:05.432746
1855  2023-11-30 11:57:05.465592
1856  2023-11-30 11:57:05.497539
1857  2023-11-30 11:57:05.529741
1858  2023-11-30 11:57:05.561539
1859  2023-11-30 11:57:05.592983
1860  2023-11-30 11:57:05.625848
1861  2023-11-30 11:57:05.657476
1862  2023-11-30 11:57:05.688860
1863  2023-11-30 11:57:05.721515
1864  2023-11-30 11:57:05.754028
1865  2023-11-30 11:57:05.785686
1866  2023-11-30 11:57:05.832924
1867  2023-11-30 11:57:05.865611
1868  2023-11-30 11:57:05.896633
1869  2023-11-30 11:57:05.928879
1870  2023-11-30 11:57:05.960779
1871  2023-11-30 11:57:05.992848
1872  2023-11-30 11:57:06.025690
1873  2023-11-30 11:57:06.057208
1874  2023-11-30 11:57:06.089393
1875  2023-11-30 11:57:06.121589
1876  2023-11-30 11:57:06.153737
1877  2023-11-30 11:57:06.185187
1878  2023-11-30 11:57:06.233462
1879  2023-11-30 11:57:06.265849
1880  2023-11-30 11:57:06.296835
1881  2023-11-30 11:57:06.329621
1882  2023-11-30 11:57:06.361648
1883  2023-11-30 11:57:06.392909
1884  2023-11-30 11:57:06.424536
1885  2023-11-30 11:57:06.456471
1886  2023-11-30 11:57:06.489449
1887  2023-11-30 11:57:06.521614
1888  2023-11-30 11:57:06.553812
1889  2023-11-30 11:57:06.585851
1890  2023-11-30 11:57:06.633725
1891  2023-11-30 11:57:06.665703
1892  2023-11-30 11:57:06.697280
1893  2023-11-30 11:57:06.729473
1894  2023-11-30 11:57:06.761076
1895  2023-11-30 11:57:06.793585
1896  2023-11-30 11:57:06.825709
1897  2023-11-30 11:57:06.857615
1898  2023-11-30 11:57:06.890137
1899  2023-11-30 11:57:06.921722
1900  2023-11-30 11:57:06.953042
1901  2023-11-30 11:57:06.985012
1902  2023-11-30 11:57:07.033650
1903  2023-11-30 11:57:07.065795
1904  2023-11-30 11:57:07.096827
1905  2023-11-30 11:57:07.129712
1906  2023-11-30 11:57:07.161521
1907  2023-11-30 11:57:07.193490
1908  2023-11-30 11:57:07.225794
1909  2023-11-30 11:57:07.258048
1910  2023-11-30 11:57:07.289146
1911  2023-11-30 11:57:07.321631
1912  2023-11-30 11:57:07.354099
1913  2023-11-30 11:57:07.386168
1914  2023-11-30 11:57:07.434079
1915  2023-11-30 11:57:07.465408
1916  2023-11-30 11:57:07.497797
1917  2023-11-30 11:57:07.529183
1918  2023-11-30 11:57:07.561030
1919  2023-11-30 11:57:07.592689
1920  2023-11-30 11:57:07.625816
1921  2023-11-30 11:57:07.657645
1922  2023-11-30 11:57:07.688658
1923  2023-11-30 11:57:07.721241
1924  2023-11-30 11:57:07.753878
1925  2023-11-30 11:57:07.786024
1926  2023-11-30 11:57:07.833611
1927  2023-11-30 11:57:07.865536
1928  2023-11-30 11:57:07.897818
1929  2023-11-30 11:57:07.929791
1930  2023-11-30 11:57:07.961461
1931  2023-11-30 11:57:07.993391
1932  2023-11-30 11:57:08.024487
1933  2023-11-30 11:57:08.057449
1934  2023-11-30 11:57:08.089775
1935  2023-11-30 11:57:08.121433
1936  2023-11-30 11:57:08.153347
1937  2023-11-30 11:57:08.185578
1938  2023-11-30 11:57:08.233468
1939  2023-11-30 11:57:08.265516
1940  2023-11-30 11:57:08.297848
1941  2023-11-30 11:57:08.329604
1942  2023-11-30 11:57:08.360747
1943  2023-11-30 11:57:08.393405
1944  2023-11-30 11:57:08.425737
1945  2023-11-30 11:57:08.457592
1946  2023-11-30 11:57:08.489596
1947  2023-11-30 11:57:08.521692
1948  2023-11-30 11:57:08.553759
1949  2023-11-30 11:57:08.584708
1950  2023-11-30 11:57:08.632812
1951  2023-11-30 11:57:08.665785
1952  2023-11-30 11:57:08.697811
1953  2023-11-30 11:57:08.730051
1954  2023-11-30 11:57:08.761338
1955  2023-11-30 11:57:08.792653
1956  2023-11-30 11:57:08.825446
1957  2023-11-30 11:57:08.857359
1958  2023-11-30 11:57:08.889083
1959  2023-11-30 11:57:08.921759
1960  2023-11-30 11:57:08.953856
1961  2023-11-30 11:57:08.985956
1962  2023-11-30 11:57:09.032877
1963  2023-11-30 11:57:09.065673
1964  2023-11-30 11:57:09.096798
1965  2023-11-30 11:57:09.128962
1966  2023-11-30 11:57:09.161010
1967  2023-11-30 11:57:09.193566
1968  2023-11-30 11:57:09.225091
1969  2023-11-30 11:57:09.257973
1970  2023-11-30 11:57:09.289596
1971  2023-11-30 11:57:09.321376
1972  2023-11-30 11:57:09.352988
1973  2023-11-30 11:57:09.386600
1974  2023-11-30 11:57:09.433207
1975  2023-11-30 11:57:09.465534
1976  2023-11-30 11:57:09.496826
1977  2023-11-30 11:57:09.529223
1978  2023-11-30 11:57:09.561488
1979  2023-11-30 11:57:09.592720
1980  2023-11-30 11:57:09.625809
1981  2023-11-30 11:57:09.656608
1982  2023-11-30 11:57:09.688569
1983  2023-11-30 11:57:09.720794
1984  2023-11-30 11:57:09.753598
1985  2023-11-30 11:57:09.785597
1986  2023-11-30 11:57:09.832947
1987  2023-11-30 11:57:09.864855
1988  2023-11-30 11:57:09.896793
1989  2023-11-30 11:57:09.929644
1990  2023-11-30 11:57:09.961598
1991  2023-11-30 11:57:09.993807
1992  2023-11-30 11:57:10.025510
1993  2023-11-30 11:57:10.056972
1994  2023-11-30 11:57:10.089675
1995  2023-11-30 11:57:10.121664
1996  2023-11-30 11:57:10.153859
1997  2023-11-30 11:57:10.185486
1998  2023-11-30 11:57:10.232662
1999  2023-11-30 11:57:10.264792
2000  2023-11-30 11:57:10.297483
2001  2023-11-30 11:57:10.330032
2002  2023-11-30 11:57:10.361807
2003  2023-11-30 11:57:10.393259
2004  2023-11-30 11:57:10.425702
2005  2023-11-30 11:57:10.457806
2006  2023-11-30 11:57:10.489399
2007  2023-11-30 11:57:10.521362
2008  2023-11-30 11:57:10.553558
2009  2023-11-30 11:57:10.585733
2010  2023-11-30 11:57:10.633769
2011  2023-11-30 11:57:10.665540
2012  2023-11-30 11:57:10.697654
2013  2023-11-30 11:57:10.729541
2014  2023-11-30 11:57:10.761256
2015  2023-11-30 11:57:10.793474
2016  2023-11-30 11:57:10.825473
2017  2023-11-30 11:57:10.857565
2018  2023-11-30 11:57:10.890003
2019  2023-11-30 11:57:10.920992
2020  2023-11-30 11:57:10.952977
2021  2023-11-30 11:57:10.986027
2022  2023-11-30 11:57:11.033489
2023  2023-11-30 11:57:11.065094
2024  2023-11-30 11:57:11.097282
2025  2023-11-30 11:57:11.128884
2026  2023-11-30 11:57:11.161684
2027  2023-11-30 11:57:11.192686
2028  2023-11-30 11:57:11.225345
2029  2023-11-30 11:57:11.256926
2030  2023-11-30 11:57:11.288838
2031  2023-11-30 11:57:11.320758
2032  2023-11-30 11:57:11.352994
2033  2023-11-30 11:57:11.385466
2034  2023-11-30 11:57:11.432751
2035  2023-11-30 11:57:11.464890
2036  2023-11-30 11:57:11.497770
2037  2023-11-30 11:57:11.529640
2038  2023-11-30 11:57:11.560795
2039  2023-11-30 11:57:11.594122
2040  2023-11-30 11:57:11.625567
2041  2023-11-30 11:57:11.657691
2042  2023-11-30 11:57:11.689159
2043  2023-11-30 11:57:11.721657
2044  2023-11-30 11:57:11.753944
2045  2023-11-30 11:57:11.785539
2046  2023-11-30 11:57:11.833098
2047  2023-11-30 11:57:11.865012
2048  2023-11-30 11:57:11.896837
2049  2023-11-30 11:57:11.928813
2050  2023-11-30 11:57:11.961775
2051  2023-11-30 11:57:11.993498
2052  2023-11-30 11:57:12.024919
2053  2023-11-30 11:57:12.057584
2054  2023-11-30 11:57:12.089782
2055  2023-11-30 11:57:12.122130
2056  2023-11-30 11:57:12.152960
2057  2023-11-30 11:57:12.185375
2058  2023-11-30 11:57:12.233420
2059  2023-11-30 11:57:12.265245
2060  2023-11-30 11:57:12.297467
2061  2023-11-30 11:57:12.329690
2062  2023-11-30 11:57:12.361821
2063  2023-11-30 11:57:12.392911
2064  2023-11-30 11:57:12.425405
2065  2023-11-30 11:57:12.457566
2066  2023-11-30 11:57:12.490374
2067  2023-11-30 11:57:12.521658
2068  2023-11-30 11:57:12.553471
2069  2023-11-30 11:57:12.586039
2070  2023-11-30 11:57:12.633804
2071  2023-11-30 11:57:12.664851
2072  2023-11-30 11:57:12.696851
2073  2023-11-30 11:57:12.729014
2074  2023-11-30 11:57:12.761658
2075  2023-11-30 11:57:12.793592
2076  2023-11-30 11:57:12.825094
2077  2023-11-30 11:57:12.857699
2078  2023-11-30 11:57:12.888761
2079  2023-11-30 11:57:12.922107
2080  2023-11-30 11:57:12.953293
2081  2023-11-30 11:57:12.985373
2082  2023-11-30 11:57:13.033550
2083  2023-11-30 11:57:13.064931
2084  2023-11-30 11:57:13.096919
2085  2023-11-30 11:57:13.129602
2086  2023-11-30 11:57:13.161530
2087  2023-11-30 11:57:13.193384
2088  2023-11-30 11:57:13.225720
2089  2023-11-30 11:57:13.257746
2090  2023-11-30 11:57:13.289792
2091  2023-11-30 11:57:13.322011
2092  2023-11-30 11:57:13.353008
2093  2023-11-30 11:57:13.384871
2094  2023-11-30 11:57:13.434371
2095  2023-11-30 11:57:13.465082
2096  2023-11-30 11:57:13.497027
2097  2023-11-30 11:57:13.529456
2098  2023-11-30 11:57:13.561687
2099  2023-11-30 11:57:13.593374
2100  2023-11-30 11:57:13.625911
2101  2023-11-30 11:57:13.657716
2102  2023-11-30 11:57:13.689765
2103  2023-11-30 11:57:13.721642
2104  2023-11-30 11:57:13.754223
2105  2023-11-30 11:57:13.785977
2106  2023-11-30 11:57:13.833542
2107  2023-11-30 11:57:13.864860
2108  2023-11-30 11:57:13.896866
2109  2023-11-30 11:57:13.928792
2110  2023-11-30 11:57:13.961551
2111  2023-11-30 11:57:13.992918
2112  2023-11-30 11:57:14.024656
2113  2023-11-30 11:57:14.056869
2114  2023-11-30 11:57:14.089048
2115  2023-11-30 11:57:14.122067
2116  2023-11-30 11:57:14.153865
2117  2023-11-30 11:57:14.184707
2118  2023-11-30 11:57:14.233748
2119  2023-11-30 11:57:14.264415
2120  2023-11-30 11:57:14.296903
2121  2023-11-30 11:57:14.329548
2122  2023-11-30 11:57:14.361794
2123  2023-11-30 11:57:14.392725
2124  2023-11-30 11:57:14.426006
2125  2023-11-30 11:57:14.457778
2126  2023-11-30 11:57:14.489786
2127  2023-11-30 11:57:14.521994
2128  2023-11-30 11:57:14.553481
2129  2023-11-30 11:57:14.584654
2130  2023-11-30 11:57:14.633454
2131  2023-11-30 11:57:14.665563
2132  2023-11-30 11:57:14.696978
2133  2023-11-30 11:57:14.729436
2134  2023-11-30 11:57:14.761651
2135  2023-11-30 11:57:14.793908
2136  2023-11-30 11:57:14.825710
2137  2023-11-30 11:57:14.857780
2138  2023-11-30 11:57:14.889781
2139  2023-11-30 11:57:14.921838
2140  2023-11-30 11:57:14.953891
2141  2023-11-30 11:57:14.984724
2142  2023-11-30 11:57:15.033688
2143  2023-11-30 11:57:15.065779
2144  2023-11-30 11:57:15.097288
2145  2023-11-30 11:57:15.129287
2146  2023-11-30 11:57:15.161121
2147  2023-11-30 11:57:15.193524
2148  2023-11-30 11:57:15.225555
2149  2023-11-30 11:57:15.258285
2150  2023-11-30 11:57:15.289667
2151  2023-11-30 11:57:15.321554
2152  2023-11-30 11:57:15.353607
2153  2023-11-30 11:57:15.385842
2154  2023-11-30 11:57:15.433511
2155  2023-11-30 11:57:15.465651
2156  2023-11-30 11:57:15.497805
2157  2023-11-30 11:57:15.528627
2158  2023-11-30 11:57:15.561253
2159  2023-11-30 11:57:15.593606
2160  2023-11-30 11:57:15.624902
2161  2023-11-30 11:57:15.657407
2162  2023-11-30 11:57:15.689356
2163  2023-11-30 11:57:15.721539
2164  2023-11-30 11:57:15.753655
2165  2023-11-30 11:57:15.785882
2166  2023-11-30 11:57:15.833532
2167  2023-11-30 11:57:15.865699
2168  2023-11-30 11:57:15.896849
2169  2023-11-30 11:57:15.929800
2170  2023-11-30 11:57:15.961787
2171  2023-11-30 11:57:15.993761
2172  2023-11-30 11:57:16.025353
2173  2023-11-30 11:57:16.057792
2174  2023-11-30 11:57:16.089732
2175  2023-11-30 11:57:16.122010
2176  2023-11-30 11:57:16.152981
2177  2023-11-30 11:57:16.184955
2178  2023-11-30 11:57:16.233131
2179  2023-11-30 11:57:16.264848
2180  2023-11-30 11:57:16.297149
2181  2023-11-30 11:57:16.329992
2182  2023-11-30 11:57:16.361687
2183  2023-11-30 11:57:16.392895
2184  2023-11-30 11:57:16.425462
2185  2023-11-30 11:57:16.456967
2186  2023-11-30 11:57:16.489367
2187  2023-11-30 11:57:16.521732
2188  2023-11-30 11:57:16.553997
2189  2023-11-30 11:57:16.585241
2190  2023-11-30 11:57:16.632428
2191  2023-11-30 11:57:16.665438
2192  2023-11-30 11:57:16.697816
2193  2023-11-30 11:57:16.729440
2194  2023-11-30 11:57:16.760580
2195  2023-11-30 11:57:16.792993
2196  2023-11-30 11:57:16.825812
2197  2023-11-30 11:57:16.857805
2198  2023-11-30 11:57:16.889949
2199  2023-11-30 11:57:16.921804
2200  2023-11-30 11:57:16.953965
2201  2023-11-30 11:57:16.985817
2202  2023-11-30 11:57:17.033407
2203  2023-11-30 11:57:17.065553
2204  2023-11-30 11:57:17.096795
2205  2023-11-30 11:57:17.128655
2206  2023-11-30 11:57:17.161545
2207  2023-11-30 11:57:17.193860
2208  2023-11-30 11:57:17.225604
2209  2023-11-30 11:57:17.258183
2210  2023-11-30 11:57:17.289552
2211  2023-11-30 11:57:17.320469
2212  2023-11-30 11:57:17.353452
2213  2023-11-30 11:57:17.385161
2214  2023-11-30 11:57:17.433682
2215  2023-11-30 11:57:17.465718
2216  2023-11-30 11:57:17.498082
2217  2023-11-30 11:57:17.528826
2218  2023-11-30 11:57:17.562082
2219  2023-11-30 11:57:17.593752
2220  2023-11-30 11:57:17.625564
2221  2023-11-30 11:57:17.656975
2222  2023-11-30 11:57:17.689637
2223  2023-11-30 11:57:17.721559
2224  2023-11-30 11:57:17.753840
2225  2023-11-30 11:57:17.785726
2226  2023-11-30 11:57:17.832783
2227  2023-11-30 11:57:17.865060
2228  2023-11-30 11:57:17.896721
2229  2023-11-30 11:57:17.929439
2230  2023-11-30 11:57:17.961830
2231  2023-11-30 11:57:17.993785
2232  2023-11-30 11:57:18.025762
2233  2023-11-30 11:57:18.057688
2234  2023-11-30 11:57:18.090004
2235  2023-11-30 11:57:18.121781
2236  2023-11-30 11:57:18.152896
2237  2023-11-30 11:57:18.185023
2238  2023-11-30 11:57:18.233674
2239  2023-11-30 11:57:18.265890
2240  2023-11-30 11:57:18.297090
2241  2023-11-30 11:57:18.329821
2242  2023-11-30 11:57:18.360857
2243  2023-11-30 11:57:18.392761
2244  2023-11-30 11:57:18.425445
2245  2023-11-30 11:57:18.457744
2246  2023-11-30 11:57:18.489404
2247  2023-11-30 11:57:18.521451
2248  2023-11-30 11:57:18.553430
2249  2023-11-30 11:57:18.585597
2250  2023-11-30 11:57:18.633501
2251  2023-11-30 11:57:18.665523
2252  2023-11-30 11:57:18.696813
2253  2023-11-30 11:57:18.728891
2254  2023-11-30 11:57:18.760978
2255  2023-11-30 11:57:18.793996
2256  2023-11-30 11:57:18.825858
2257  2023-11-30 11:57:18.857683
2258  2023-11-30 11:57:18.889763
2259  2023-11-30 11:57:18.920712
2260  2023-11-30 11:57:18.953036
2261  2023-11-30 11:57:18.984878
2262  2023-11-30 11:57:19.032944
2263  2023-11-30 11:57:19.065365
2264  2023-11-30 11:57:19.098518
2265  2023-11-30 11:57:19.129494
2266  2023-11-30 11:57:19.161723
2267  2023-11-30 11:57:19.193450
2268  2023-11-30 11:57:19.224911
2269  2023-11-30 11:57:19.257689
2270  2023-11-30 11:57:19.289680
2271  2023-11-30 11:57:19.320757
2272  2023-11-30 11:57:19.352948
2273  2023-11-30 11:57:19.385577
2274  2023-11-30 11:57:19.433776
2275  2023-11-30 11:57:19.464778
2276  2023-11-30 11:57:19.496889
2277  2023-11-30 11:57:19.529524
2278  2023-11-30 11:57:19.561793
2279  2023-11-30 11:57:19.593816
2280  2023-11-30 11:57:19.628043
2281  2023-11-30 11:57:19.657940
2282  2023-11-30 11:57:19.689066
2283  2023-11-30 11:57:19.723820
2284  2023-11-30 11:57:19.753330
2285  2023-11-30 11:57:19.787928
2286  2023-11-30 11:57:19.835810
2287  2023-11-30 11:57:19.864795
2288  2023-11-30 11:57:19.899150
2289  2023-11-30 11:57:19.928861
2290  2023-11-30 11:57:19.963061
2291  2023-11-30 11:57:19.992735
2292  2023-11-30 11:57:20.025779
2293  2023-11-30 11:57:20.057969
2294  2023-11-30 11:57:20.091773
2295  2023-11-30 11:57:20.123814
2296  2023-11-30 11:57:20.154887
2297  2023-11-30 11:57:20.186839
2298  2023-11-30 11:57:20.234819
2299  2023-11-30 11:57:20.267808
2300  2023-11-30 11:57:20.298877
2301  2023-11-30 11:57:20.330535
2302  2023-11-30 11:57:20.362812
2303  2023-11-30 11:57:20.395801
2304  2023-11-30 11:57:20.427151
2305  2023-11-30 11:57:20.459424
2306  2023-11-30 11:57:20.490970
2307  2023-11-30 11:57:20.521943
2308  2023-11-30 11:57:20.553921
2309  2023-11-30 11:57:20.586703
2310  2023-11-30 11:57:20.634908
2311  2023-11-30 11:57:20.666080
2312  2023-11-30 11:57:20.698655
2313  2023-11-30 11:57:20.729513
2314  2023-11-30 11:57:20.761920
2315  2023-11-30 11:57:20.794680
2316  2023-11-30 11:57:20.827879
2317  2023-11-30 11:57:20.858513
2318  2023-11-30 11:57:20.891170
2319  2023-11-30 11:57:20.923569
2320  2023-11-30 11:57:20.954575
2321  2023-11-30 11:57:20.986663
2322  2023-11-30 11:57:21.033918
2323  2023-11-30 11:57:21.064990
2324  2023-11-30 11:57:21.097314
2325  2023-11-30 11:57:21.129641
2326  2023-11-30 11:57:21.161456
2327  2023-11-30 11:57:21.193477
2328  2023-11-30 11:57:21.226095
2329  2023-11-30 11:57:21.259436
2330  2023-11-30 11:57:21.290420
2331  2023-11-30 11:57:21.322115
2332  2023-11-30 11:57:21.354397
2333  2023-11-30 11:57:21.385347
2334  2023-11-30 11:57:21.434204
2335  2023-11-30 11:57:21.465902
2336  2023-11-30 11:57:21.497908
2337  2023-11-30 11:57:21.529820
2338  2023-11-30 11:57:21.561333
2339  2023-11-30 11:57:21.592966
2340  2023-11-30 11:57:21.625219
2341  2023-11-30 11:57:21.657672
2342  2023-11-30 11:57:21.688773
2343  2023-11-30 11:57:21.721112
2344  2023-11-30 11:57:21.753975
2345  2023-11-30 11:57:21.784824
2346  2023-11-30 11:57:21.832526
2347  2023-11-30 11:57:21.865435
2348  2023-11-30 11:57:21.897386
2349  2023-11-30 11:57:21.929411
2350  2023-11-30 11:57:21.960915
2351  2023-11-30 11:57:21.992351
2352  2023-11-30 11:57:22.025457
2353  2023-11-30 11:57:22.058169
2354  2023-11-30 11:57:22.090853
2355  2023-11-30 11:57:22.120822
2356  2023-11-30 11:57:22.153182
2357  2023-11-30 11:57:22.186332
2358  2023-11-30 11:57:22.233454
2359  2023-11-30 11:57:22.265466
2360  2023-11-30 11:57:22.297478
2361  2023-11-30 11:57:22.330429
2362  2023-11-30 11:57:22.361465
2363  2023-11-30 11:57:22.393347
2364  2023-11-30 11:57:22.425514
2365  2023-11-30 11:57:22.458109
2366  2023-11-30 11:57:22.490059
2367  2023-11-30 11:57:22.521488
2368  2023-11-30 11:57:22.553295
2369  2023-11-30 11:57:22.587038
2370  2023-11-30 11:57:22.633563
2371  2023-11-30 11:57:22.665509
2372  2023-11-30 11:57:22.697475
2373  2023-11-30 11:57:22.729266
2374  2023-11-30 11:57:22.760912
2375  2023-11-30 11:57:22.792749
2376  2023-11-30 11:57:22.825919
2377  2023-11-30 11:57:22.857995
2378  2023-11-30 11:57:22.889274
2379  2023-11-30 11:57:22.921451
2380  2023-11-30 11:57:22.952999
2381  2023-11-30 11:57:22.987961
2382  2023-11-30 11:57:23.033543
2383  2023-11-30 11:57:23.066635
2384  2023-11-30 11:57:23.096800
2385  2023-11-30 11:57:23.129611
2386  2023-11-30 11:57:23.161423
2387  2023-11-30 11:57:23.192601
2388  2023-11-30 11:57:23.224727
2389  2023-11-30 11:57:23.257867
2390  2023-11-30 11:57:23.289820
2391  2023-11-30 11:57:23.321841
2392  2023-11-30 11:57:23.353656
2393  2023-11-30 11:57:23.385610
2394  2023-11-30 11:57:23.433026
2395  2023-11-30 11:57:23.467486
2396  2023-11-30 11:57:23.498113
2397  2023-11-30 11:57:23.529517
2398  2023-11-30 11:57:23.560522
2399  2023-11-30 11:57:23.593471
2400  2023-11-30 11:57:23.625431
2401  2023-11-30 11:57:23.657332
2402  2023-11-30 11:57:23.688943
2403  2023-11-30 11:57:23.721359
2404  2023-11-30 11:57:23.752900
2405  2023-11-30 11:57:23.785102
2406  2023-11-30 11:57:23.832753
2407  2023-11-30 11:57:23.864770
2408  2023-11-30 11:57:23.897303
2409  2023-11-30 11:57:23.930937
2410  2023-11-30 11:57:23.962169
2411  2023-11-30 11:57:23.994139
2412  2023-11-30 11:57:24.025180
2413  2023-11-30 11:57:24.059049
2414  2023-11-30 11:57:24.090246
2415  2023-11-30 11:57:24.121996
2416  2023-11-30 11:57:24.153493
2417  2023-11-30 11:57:24.185464
2418  2023-11-30 11:57:24.232797
2419  2023-11-30 11:57:24.265435
2420  2023-11-30 11:57:24.296420
2421  2023-11-30 11:57:24.328867
2422  2023-11-30 11:57:24.360979
2423  2023-11-30 11:57:24.393681
2424  2023-11-30 11:57:24.424744
2425  2023-11-30 11:57:24.458520
2426  2023-11-30 11:57:24.490860
2427  2023-11-30 11:57:24.522831
2428  2023-11-30 11:57:24.554584
2429  2023-11-30 11:57:24.585547
2430  2023-11-30 11:57:24.633059
2431  2023-11-30 11:57:24.664999
2432  2023-11-30 11:57:24.696884
2433  2023-11-30 11:57:24.728804
2434  2023-11-30 11:57:24.760759
2435  2023-11-30 11:57:24.792657
2436  2023-11-30 11:57:24.824546
2437  2023-11-30 11:57:24.856637
2438  2023-11-30 11:57:24.889088
2439  2023-11-30 11:57:24.922596
2440  2023-11-30 11:57:24.953676
2441  2023-11-30 11:57:24.985217
2442  2023-11-30 11:57:25.032774
2443  2023-11-30 11:57:25.065281
2444  2023-11-30 11:57:25.098111
2445  2023-11-30 11:57:25.129239
2446  2023-11-30 11:57:25.161214
2447  2023-11-30 11:57:25.193460
2448  2023-11-30 11:57:25.224998
2449  2023-11-30 11:57:25.258260
2450  2023-11-30 11:57:25.291977
2451  2023-11-30 11:57:25.321642
2452  2023-11-30 11:57:25.352721
2453  2023-11-30 11:57:25.385381
2454  2023-11-30 11:57:25.433487
2455  2023-11-30 11:57:25.465504
2456  2023-11-30 11:57:25.497609
2457  2023-11-30 11:57:25.528857
2458  2023-11-30 11:57:25.561465
2459  2023-11-30 11:57:25.592892
2460  2023-11-30 11:57:25.624907
2461  2023-11-30 11:57:25.656791
2462  2023-11-30 11:57:25.688760
2463  2023-11-30 11:57:25.721675
2464  2023-11-30 11:57:25.753348
2465  2023-11-30 11:57:25.785745
2466  2023-11-30 11:57:25.833347
2467  2023-11-30 11:57:25.865498
2468  2023-11-30 11:57:25.896679
2469  2023-11-30 11:57:25.929061
2470  2023-11-30 11:57:25.961457
2471  2023-11-30 11:57:25.993959
2472  2023-11-30 11:57:26.025095
2473  2023-11-30 11:57:26.057471
2474  2023-11-30 11:57:26.089397
2475  2023-11-30 11:57:26.121443
2476  2023-11-30 11:57:26.153568
2477  2023-11-30 11:57:26.184943
2478  2023-11-30 11:57:26.233190
2479  2023-11-30 11:57:26.264965
2480  2023-11-30 11:57:26.297277
2481  2023-11-30 11:57:26.329275
2482  2023-11-30 11:57:26.361429
2483  2023-11-30 11:57:26.393882
2484  2023-11-30 11:57:26.425215
2485  2023-11-30 11:57:26.456594
2486  2023-11-30 11:57:26.489487
2487  2023-11-30 11:57:26.521007
2488  2023-11-30 11:57:26.553197
2489  2023-11-30 11:57:26.585411
2490  2023-11-30 11:57:26.632574
2491  2023-11-30 11:57:26.665602
2492  2023-11-30 11:57:26.697003
2493  2023-11-30 11:57:26.728717
2494  2023-11-30 11:57:26.761943
2495  2023-11-30 11:57:26.793614
2496  2023-11-30 11:57:26.825609
2497  2023-11-30 11:57:26.856883
2498  2023-11-30 11:57:26.889571
2499  2023-11-30 11:57:26.921393
2500  2023-11-30 11:57:26.953437
2501  2023-11-30 11:57:26.985390
2502  2023-11-30 11:57:27.033440
2503  2023-11-30 11:57:27.065540
2504  2023-11-30 11:57:27.097566
2505  2023-11-30 11:57:27.128786
2506  2023-11-30 11:57:27.161220
2507  2023-11-30 11:57:27.193600
2508  2023-11-30 11:57:27.225545
2509  2023-11-30 11:57:27.257958
2510  2023-11-30 11:57:27.289507
2511  2023-11-30 11:57:27.321486
2512  2023-11-30 11:57:27.353896
2513  2023-11-30 11:57:27.385635
2514  2023-11-30 11:57:27.432852
2515  2023-11-30 11:57:27.464948
2516  2023-11-30 11:57:27.497776
2517  2023-11-30 11:57:27.528732
2518  2023-11-30 11:57:27.561681
2519  2023-11-30 11:57:27.593374
2520  2023-11-30 11:57:27.625809
2521  2023-11-30 11:57:27.657812
2522  2023-11-30 11:57:27.689632
2523  2023-11-30 11:57:27.720768
2524  2023-11-30 11:57:27.753801
2525  2023-11-30 11:57:27.785781
2526  2023-11-30 11:57:27.833656
2527  2023-11-30 11:57:27.865007
2528  2023-11-30 11:57:27.896846
2529  2023-11-30 11:57:27.928618
2530  2023-11-30 11:57:27.960839
2531  2023-11-30 11:57:27.992772
2532  2023-11-30 11:57:28.024716
2533  2023-11-30 11:57:28.056640
2534  2023-11-30 11:57:28.089705
2535  2023-11-30 11:57:28.121724
2536  2023-11-30 11:57:28.153606
2537  2023-11-30 11:57:28.184984
2538  2023-11-30 11:57:28.233518
2539  2023-11-30 11:57:28.265366
2540  2023-11-30 11:57:28.297793
2541  2023-11-30 11:57:28.328917
2542  2023-11-30 11:57:28.361698
2543  2023-11-30 11:57:28.392799
2544  2023-11-30 11:57:28.426178
2545  2023-11-30 11:57:28.458008
2546  2023-11-30 11:57:28.489756
2547  2023-11-30 11:57:28.520949
2548  2023-11-30 11:57:28.553459
2549  2023-11-30 11:57:28.585375
2550  2023-11-30 11:57:28.633169
2551  2023-11-30 11:57:28.664811
2552  2023-11-30 11:57:28.697798
2553  2023-11-30 11:57:28.729366
2554  2023-11-30 11:57:28.761397
2555  2023-11-30 11:57:28.792506
2556  2023-11-30 11:57:28.824891
2557  2023-11-30 11:57:28.857731
2558  2023-11-30 11:57:28.888544
2559  2023-11-30 11:57:28.920733
2560  2023-11-30 11:57:28.953566
2561  2023-11-30 11:57:28.984959
2562  2023-11-30 11:57:29.033063
2563  2023-11-30 11:57:29.065267
2564  2023-11-30 11:57:29.096823
2565  2023-11-30 11:57:29.129005
2566  2023-11-30 11:57:29.161465
2567  2023-11-30 11:57:29.193618
2568  2023-11-30 11:57:29.225310
2569  2023-11-30 11:57:29.257914
2570  2023-11-30 11:57:29.289041
2571  2023-11-30 11:57:29.321454
2572  2023-11-30 11:57:29.352934
2573  2023-11-30 11:57:29.385500
2574  2023-11-30 11:57:29.433280
2575  2023-11-30 11:57:29.466045
2576  2023-11-30 11:57:29.497172
2577  2023-11-30 11:57:29.529925
2578  2023-11-30 11:57:29.561537
2579  2023-11-30 11:57:29.593543
2580  2023-11-30 11:57:29.625560
2581  2023-11-30 11:57:29.657305
2582  2023-11-30 11:57:29.688643
2583  2023-11-30 11:57:29.721481
2584  2023-11-30 11:57:29.752779
2585  2023-11-30 11:57:29.785006
2586  2023-11-30 11:57:29.832960
2587  2023-11-30 11:57:29.864874
2588  2023-11-30 11:57:29.896698
2589  2023-11-30 11:57:29.928624
2590  2023-11-30 11:57:29.961413
2591  2023-11-30 11:57:29.993626
2592  2023-11-30 11:57:30.025932
2593  2023-11-30 11:57:30.057799
2594  2023-11-30 11:57:30.089752
2595  2023-11-30 11:57:30.121878
2596  2023-11-30 11:57:30.152937
2597  2023-11-30 11:57:30.184608
2598  2023-11-30 11:57:30.232597
2599  2023-11-30 11:57:30.265613
2600  2023-11-30 11:57:30.296739
2601  2023-11-30 11:57:30.329786
2602  2023-11-30 11:57:30.361575
2603  2023-11-30 11:57:30.392816
2604  2023-11-30 11:57:30.425840
2605  2023-11-30 11:57:30.457872
2606  2023-11-30 11:57:30.489882
2607  2023-11-30 11:57:30.521201
2608  2023-11-30 11:57:30.553410
2609  2023-11-30 11:57:30.585157
2610  2023-11-30 11:57:30.632735
2611  2023-11-30 11:57:30.664979
2612  2023-11-30 11:57:30.697264
2613  2023-11-30 11:57:30.729178
2614  2023-11-30 11:57:30.761095
2615  2023-11-30 11:57:30.793452
2616  2023-11-30 11:57:30.825792
2617  2023-11-30 11:57:30.856889
2618  2023-11-30 11:57:30.888964
2619  2023-11-30 11:57:30.921455
2620  2023-11-30 11:57:30.953878
2621  2023-11-30 11:57:30.985608
2622  2023-11-30 11:57:31.033432
2623  2023-11-30 11:57:31.064989
2624  2023-11-30 11:57:31.097182
2625  2023-11-30 11:57:31.129549
2626  2023-11-30 11:57:31.161721
2627  2023-11-30 11:57:31.193589
2628  2023-11-30 11:57:31.225516
2629  2023-11-30 11:57:31.257478
2630  2023-11-30 11:57:31.289088
2631  2023-11-30 11:57:31.320838
2632  2023-11-30 11:57:31.353381
2633  2023-11-30 11:57:31.385819
2634  2023-11-30 11:57:31.433423
2635  2023-11-30 11:57:31.465418
2636  2023-11-30 11:57:31.496828
2637  2023-11-30 11:57:31.529272
2638  2023-11-30 11:57:31.561424
2639  2023-11-30 11:57:31.593758
2640  2023-11-30 11:57:31.625234
2641  2023-11-30 11:57:31.657647
2642  2023-11-30 11:57:31.689388
2643  2023-11-30 11:57:31.720976
2644  2023-11-30 11:57:31.752893
2645  2023-11-30 11:57:31.784807
2646  2023-11-30 11:57:31.832710
2647  2023-11-30 11:57:31.865483
2648  2023-11-30 11:57:31.897066
2649  2023-11-30 11:57:31.929287
2650  2023-11-30 11:57:31.961757
2651  2023-11-30 11:57:31.993510
2652  2023-11-30 11:57:32.025420
2653  2023-11-30 11:57:32.057161
2654  2023-11-30 11:57:32.089707
2655  2023-11-30 11:57:32.122129
2656  2023-11-30 11:57:32.153651
2657  2023-11-30 11:57:32.185553
2658  2023-11-30 11:57:32.233400
2659  2023-11-30 11:57:32.265066
2660  2023-11-30 11:57:32.297681
2661  2023-11-30 11:57:32.329665
2662  2023-11-30 11:57:32.360587
2663  2023-11-30 11:57:32.392909
2664  2023-11-30 11:57:32.425276
2665  2023-11-30 11:57:32.457436
2666  2023-11-30 11:57:32.489173
2667  2023-11-30 11:57:32.521094
2668  2023-11-30 11:57:32.552972
2669  2023-11-30 11:57:32.584509
2670  2023-11-30 11:57:32.633016
2671  2023-11-30 11:57:32.665374
2672  2023-11-30 11:57:32.696798
2673  2023-11-30 11:57:32.729420
2674  2023-11-30 11:57:32.761318
2675  2023-11-30 11:57:32.792907
2676  2023-11-30 11:57:32.825779
2677  2023-11-30 11:57:32.857451
2678  2023-11-30 11:57:32.888951
2679  2023-11-30 11:57:32.920970
2680  2023-11-30 11:57:32.953039
2681  2023-11-30 11:57:32.984703
2682  2023-11-30 11:57:33.032966
2683  2023-11-30 11:57:33.064651
2684  2023-11-30 11:57:33.097591
2685  2023-11-30 11:57:33.129589
2686  2023-11-30 11:57:33.161657
2687  2023-11-30 11:57:33.193469
2688  2023-11-30 11:57:33.224695
2689  2023-11-30 11:57:33.257656
2690  2023-11-30 11:57:33.289935
2691  2023-11-30 11:57:33.321831
2692  2023-11-30 11:57:33.353527
2693  2023-11-30 11:57:33.385886
2694  2023-11-30 11:57:33.433439
2695  2023-11-30 11:57:33.464654
2696  2023-11-30 11:57:33.496846
2697  2023-11-30 11:57:33.528761
2698  2023-11-30 11:57:33.560609
2699  2023-11-30 11:57:33.592845
2700  2023-11-30 11:57:33.625198
2701  2023-11-30 11:57:33.657009
2702  2023-11-30 11:57:33.688923
2703  2023-11-30 11:57:33.721951
2704  2023-11-30 11:57:33.752808
2705  2023-11-30 11:57:33.785648
2706  2023-11-30 11:57:33.832836
2707  2023-11-30 11:57:33.864651
2708  2023-11-30 11:57:33.896715
2709  2023-11-30 11:57:33.929356
2710  2023-11-30 11:57:33.961773
2711  2023-11-30 11:57:33.992593
2712  2023-11-30 11:57:34.024841
2713  2023-11-30 11:57:34.057527
2714  2023-11-30 11:57:34.088994
2715  2023-11-30 11:57:34.121839
2716  2023-11-30 11:57:34.152914
2717  2023-11-30 11:57:34.185175
2718  2023-11-30 11:57:34.233572
2719  2023-11-30 11:57:34.264790
2720  2023-11-30 11:57:34.297788
2721  2023-11-30 11:57:34.329847
2722  2023-11-30 11:57:34.362075
2723  2023-11-30 11:57:34.393441
2724  2023-11-30 11:57:34.425706
2725  2023-11-30 11:57:34.457800
2726  2023-11-30 11:57:34.489808
2727  2023-11-30 11:57:34.521536
2728  2023-11-30 11:57:34.553264
2729  2023-11-30 11:57:34.585213
2730  2023-11-30 11:57:34.632836
2731  2023-11-30 11:57:34.664752
2732  2023-11-30 11:57:34.696703
2733  2023-11-30 11:57:34.729713
2734  2023-11-30 11:57:34.761784
2735  2023-11-30 11:57:34.793199
2736  2023-11-30 11:57:34.825108
2737  2023-11-30 11:57:34.857232
2738  2023-11-30 11:57:34.889933
2739  2023-11-30 11:57:34.921744
2740  2023-11-30 11:57:34.953719
2741  2023-11-30 11:57:34.985796
2742  2023-11-30 11:57:35.032775
2743  2023-11-30 11:57:35.065115
2744  2023-11-30 11:57:35.096483
2745  2023-11-30 11:57:35.128436
2746  2023-11-30 11:57:35.161572
2747  2023-11-30 11:57:35.193415
2748  2023-11-30 11:57:35.225518
2749  2023-11-30 11:57:35.257849
2750  2023-11-30 11:57:35.289958
2751  2023-11-30 11:57:35.322014
2752  2023-11-30 11:57:35.353682
2753  2023-11-30 11:57:35.385785
2754  2023-11-30 11:57:35.433385
2755  2023-11-30 11:57:35.465135
2756  2023-11-30 11:57:35.497575
2757  2023-11-30 11:57:35.529737
2758  2023-11-30 11:57:35.562238
2759  2023-11-30 11:57:35.592533
2760  2023-11-30 11:57:35.624649
2761  2023-11-30 11:57:35.657029
2762  2023-11-30 11:57:35.688885
2763  2023-11-30 11:57:35.721255
2764  2023-11-30 11:57:35.752446
2765  2023-11-30 11:57:35.785240
2766  2023-11-30 11:57:35.833706
2767  2023-11-30 11:57:35.865374
2768  2023-11-30 11:57:35.897499
2769  2023-11-30 11:57:35.929414
2770  2023-11-30 11:57:35.962201
2771  2023-11-30 11:57:35.993936
2772  2023-11-30 11:57:36.025616
2773  2023-11-30 11:57:36.057820
2774  2023-11-30 11:57:36.089719
2775  2023-11-30 11:57:36.121929
2776  2023-11-30 11:57:36.152975
2777  2023-11-30 11:57:36.184892
2778  2023-11-30 11:57:36.232878
2779  2023-11-30 11:57:36.265232
2780  2023-11-30 11:57:36.298175
2781  2023-11-30 11:57:36.328707
2782  2023-11-30 11:57:36.361692
2783  2023-11-30 11:57:36.394033
2784  2023-11-30 11:57:36.425894
2785  2023-11-30 11:57:36.457953
2786  2023-11-30 11:57:36.489429
2787  2023-11-30 11:57:36.521147
2788  2023-11-30 11:57:36.553497
2789  2023-11-30 11:57:36.586292
2790  2023-11-30 11:57:36.633046
2791  2023-11-30 11:57:36.665143
2792  2023-11-30 11:57:36.697432
2793  2023-11-30 11:57:36.729384
2794  2023-11-30 11:57:36.760742
2795  2023-11-30 11:57:36.793976
2796  2023-11-30 11:57:36.825828
2797  2023-11-30 11:57:36.858008
2798  2023-11-30 11:57:36.889823
2799  2023-11-30 11:57:36.921894
2800  2023-11-30 11:57:36.953523
2801  2023-11-30 11:57:36.985924
2802  2023-11-30 11:57:37.033311
2803  2023-11-30 11:57:37.065551
2804  2023-11-30 11:57:37.097423
2805  2023-11-30 11:57:37.129906
2806  2023-11-30 11:57:37.161724
2807  2023-11-30 11:57:37.193640
2808  2023-11-30 11:57:37.225908
2809  2023-11-30 11:57:37.256995
2810  2023-11-30 11:57:37.288897
2811  2023-11-30 11:57:37.321836
2812  2023-11-30 11:57:37.353733
2813  2023-11-30 11:57:37.385761
2814  2023-11-30 11:57:37.433760
2815  2023-11-30 11:57:37.465135
2816  2023-11-30 11:57:37.497138
2817  2023-11-30 11:57:37.529229
2818  2023-11-30 11:57:37.561762
2819  2023-11-30 11:57:37.593681
2820  2023-11-30 11:57:37.625114
2821  2023-11-30 11:57:37.657328
2822  2023-11-30 11:57:37.689453
2823  2023-11-30 11:57:37.721592
2824  2023-11-30 11:57:37.753493
2825  2023-11-30 11:57:37.784668
2826  2023-11-30 11:57:37.833586
2827  2023-11-30 11:57:37.865411
2828  2023-11-30 11:57:37.896765
2829  2023-11-30 11:57:37.930767
2830  2023-11-30 11:57:37.961063
2831  2023-11-30 11:57:37.994475
2832  2023-11-30 11:57:38.025398
2833  2023-11-30 11:57:38.058484
2834  2023-11-30 11:57:38.089014
2835  2023-11-30 11:57:38.121688
2836  2023-11-30 11:57:38.153749
2837  2023-11-30 11:57:38.184669
2838  2023-11-30 11:57:38.232854
2839  2023-11-30 11:57:38.264854
2840  2023-11-30 11:57:38.296760
2841  2023-11-30 11:57:38.328797
2842  2023-11-30 11:57:38.360770
2843  2023-11-30 11:57:38.392783
2844  2023-11-30 11:57:38.425262
2845  2023-11-30 11:57:38.456714
2846  2023-11-30 11:57:38.488659
2847  2023-11-30 11:57:38.520571
2848  2023-11-30 11:57:38.552455
2849  2023-11-30 11:57:38.585412
2850  2023-11-30 11:57:38.633403
2851  2023-11-30 11:57:38.665596
2852  2023-11-30 11:57:38.700771
2853  2023-11-30 11:57:38.728877
2854  2023-11-30 11:57:38.761429
2855  2023-11-30 11:57:38.793673
2856  2023-11-30 11:57:38.825013
2857  2023-11-30 11:57:38.857377
2858  2023-11-30 11:57:38.889353
2859  2023-11-30 11:57:38.921382
2860  2023-11-30 11:57:38.952791
2861  2023-11-30 11:57:38.984944
2862  2023-11-30 11:57:39.033475
2863  2023-11-30 11:57:39.065375
2864  2023-11-30 11:57:39.096678
2865  2023-11-30 11:57:39.128899
2866  2023-11-30 11:57:39.161268
2867  2023-11-30 11:57:39.192541
2868  2023-11-30 11:57:39.225917
2869  2023-11-30 11:57:39.260057
2870  2023-11-30 11:57:39.292091
2871  2023-11-30 11:57:39.320560
2872  2023-11-30 11:57:39.352477
2873  2023-11-30 11:57:39.385373
2874  2023-11-30 11:57:39.432825
2875  2023-11-30 11:57:39.469034
2876  2023-11-30 11:57:39.500316
2877  2023-11-30 11:57:39.531196
2878  2023-11-30 11:57:39.564151
2879  2023-11-30 11:57:39.595158
2880  2023-11-30 11:57:39.627792
2881  2023-11-30 11:57:39.659067
2882  2023-11-30 11:57:39.689861
2883  2023-11-30 11:57:39.721699
2884  2023-11-30 11:57:39.754991
2885  2023-11-30 11:57:39.788780
2886  2023-11-30 11:57:39.834789
2887  2023-11-30 11:57:39.866505
2888  2023-11-30 11:57:39.898844
2889  2023-11-30 11:57:39.932703
2890  2023-11-30 11:57:39.961639
2891  2023-11-30 11:57:39.994686
2892  2023-11-30 11:57:40.026541
2893  2023-11-30 11:57:40.059456
2894  2023-11-30 11:57:40.089669
2895  2023-11-30 11:57:40.122703
2896  2023-11-30 11:57:40.154747
2897  2023-11-30 11:57:40.188041
2898  2023-11-30 11:57:40.234145
2899  2023-11-30 11:57:40.266091
2900  2023-11-30 11:57:40.297914
2901  2023-11-30 11:57:40.329681
2902  2023-11-30 11:57:40.362539
2903  2023-11-30 11:57:40.394673
2904  2023-11-30 11:57:40.427705
2905  2023-11-30 11:57:40.458652
2906  2023-11-30 11:57:40.489602
2907  2023-11-30 11:57:40.521288
2908  2023-11-30 11:57:40.555253
2909  2023-11-30 11:57:40.587466
2910  2023-11-30 11:57:40.634949
2911  2023-11-30 11:57:40.666930
2912  2023-11-30 11:57:40.698432
2913  2023-11-30 11:57:40.730979
2914  2023-11-30 11:57:40.762397
2915  2023-11-30 11:57:40.795357
2916  2023-11-30 11:57:40.826464
2917  2023-11-30 11:57:40.858325
2918  2023-11-30 11:57:40.890064
2919  2023-11-30 11:57:40.922369
2920  2023-11-30 11:57:40.953991
2921  2023-11-30 11:57:40.985064
2922  2023-11-30 11:57:41.033055
2923  2023-11-30 11:57:41.064699
2924  2023-11-30 11:57:41.096787
2925  2023-11-30 11:57:41.128718
2926  2023-11-30 11:57:41.160755
2927  2023-11-30 11:57:41.193030
2928  2023-11-30 11:57:41.225254
2929  2023-11-30 11:57:41.257162
2930  2023-11-30 11:57:41.288739
2931  2023-11-30 11:57:41.320847
2932  2023-11-30 11:57:41.353446
2933  2023-11-30 11:57:41.385951
2934  2023-11-30 11:57:41.434387
2935  2023-11-30 11:57:41.466347
2936  2023-11-30 11:57:41.496758
2937  2023-11-30 11:57:41.529755
2938  2023-11-30 11:57:41.561286
2939  2023-11-30 11:57:41.593250
2940  2023-11-30 11:57:41.624714
2941  2023-11-30 11:57:41.656623
2942  2023-11-30 11:57:41.689036
2943  2023-11-30 11:57:41.721590
2944  2023-11-30 11:57:41.754216
2945  2023-11-30 11:57:41.785990
2946  2023-11-30 11:57:41.833984
2947  2023-11-30 11:57:41.865681
2948  2023-11-30 11:57:41.897532
2949  2023-11-30 11:57:41.930593
2950  2023-11-30 11:57:41.962577
2951  2023-11-30 11:57:41.994504
2952  2023-11-30 11:57:42.025467
2953  2023-11-30 11:57:42.057506
2954  2023-11-30 11:57:42.089380
2955  2023-11-30 11:57:42.121303
2956  2023-11-30 11:57:42.153220
2957  2023-11-30 11:57:42.186186
2958  2023-11-30 11:57:42.232686
2959  2023-11-30 11:57:42.266180
2960  2023-11-30 11:57:42.298070
2961  2023-11-30 11:57:42.329064
2962  2023-11-30 11:57:42.361187
2963  2023-11-30 11:57:42.393211
2964  2023-11-30 11:57:42.424947
2965  2023-11-30 11:57:42.456983
2966  2023-11-30 11:57:42.489811
2967  2023-11-30 11:57:42.521735
2968  2023-11-30 11:57:42.553725
2969  2023-11-30 11:57:42.585144
2970  2023-11-30 11:57:42.634898
2971  2023-11-30 11:57:42.664910
2972  2023-11-30 11:57:42.697893
2973  2023-11-30 11:57:42.729816
2974  2023-11-30 11:57:42.760799
2975  2023-11-30 11:57:42.792810
2976  2023-11-30 11:57:42.825608
2977  2023-11-30 11:57:42.857855
2978  2023-11-30 11:57:42.889667
2979  2023-11-30 11:57:42.921617
2980  2023-11-30 11:57:42.953712
2981  2023-11-30 11:57:42.986891
2982  2023-11-30 11:57:43.033268
2983  2023-11-30 11:57:43.065190
2984  2023-11-30 11:57:43.097500
2985  2023-11-30 11:57:43.129415
2986  2023-11-30 11:57:43.161450
2987  2023-11-30 11:57:43.192743
2988  2023-11-30 11:57:43.224673
2989  2023-11-30 11:57:43.257626
2990  2023-11-30 11:57:43.289602
2991  2023-11-30 11:57:43.321278
2992  2023-11-30 11:57:43.353161
2993  2023-11-30 11:57:43.385346
2994  2023-11-30 11:57:43.433619
2995  2023-11-30 11:57:43.465366
2996  2023-11-30 11:57:43.498252
2997  2023-11-30 11:57:43.531223
2998  2023-11-30 11:57:43.563189
2999  2023-11-30 11:57:43.592774
3000  2023-11-30 11:57:43.625017
3001  2023-11-30 11:57:43.659083
3002  2023-11-30 11:57:43.691122
3003  2023-11-30 11:57:43.723294
3004  2023-11-30 11:57:43.752683
3005  2023-11-30 11:57:43.785445
3006  2023-11-30 11:57:43.833939
3007  2023-11-30 11:57:43.865823
3008  2023-11-30 11:57:43.899214
3009  2023-11-30 11:57:43.930949
3010  2023-11-30 11:57:43.964569
3011  2023-11-30 11:57:43.993638
3012  2023-11-30 11:57:44.025512
3013  2023-11-30 11:57:44.057220
3014  2023-11-30 11:57:44.089716
3015  2023-11-30 11:57:44.120632
3016  2023-11-30 11:57:44.152506
3017  2023-11-30 11:57:44.184750
3018  2023-11-30 11:57:44.233687
3019  2023-11-30 11:57:44.265602
3020  2023-11-30 11:57:44.297518
3021  2023-11-30 11:57:44.329478
3022  2023-11-30 11:57:44.361526
3023  2023-11-30 11:57:44.393349
3024  2023-11-30 11:57:44.425823
3025  2023-11-30 11:57:44.458362
3026  2023-11-30 11:57:44.491373
3027  2023-11-30 11:57:44.522835
3028  2023-11-30 11:57:44.552858
3029  2023-11-30 11:57:44.585642
3030  2023-11-30 11:57:44.632740
3031  2023-11-30 11:57:44.665396
3032  2023-11-30 11:57:44.697196
3033  2023-11-30 11:57:44.729105
3034  2023-11-30 11:57:44.760812
3035  2023-11-30 11:57:44.792956
3036  2023-11-30 11:57:44.825088
3037  2023-11-30 11:57:44.856716
3038  2023-11-30 11:57:44.890186
3039  2023-11-30 11:57:44.921467
3040  2023-11-30 11:57:44.953419
3041  2023-11-30 11:57:44.985464
3042  2023-11-30 11:57:45.032760
3043  2023-11-30 11:57:45.065135
3044  2023-11-30 11:57:45.097893
3045  2023-11-30 11:57:45.128809
3046  2023-11-30 11:57:45.160865
3047  2023-11-30 11:57:45.193607
3048  2023-11-30 11:57:45.225565
3049  2023-11-30 11:57:45.256713
3050  2023-11-30 11:57:45.288686
3051  2023-11-30 11:57:45.320690
3052  2023-11-30 11:57:45.353457
3053  2023-11-30 11:57:45.384807
3054  2023-11-30 11:57:45.433502
3055  2023-11-30 11:57:45.465443
3056  2023-11-30 11:57:45.497335
3057  2023-11-30 11:57:45.528959
3058  2023-11-30 11:57:45.561506
3059  2023-11-30 11:57:45.593170
3060  2023-11-30 11:57:45.625403
3061  2023-11-30 11:57:45.657904
3062  2023-11-30 11:57:45.689465
3063  2023-11-30 11:57:45.723492
3064  2023-11-30 11:57:45.753821
3065  2023-11-30 11:57:45.785772
3066  2023-11-30 11:57:45.833485
3067  2023-11-30 11:57:45.865390
3068  2023-11-30 11:57:45.896590
3069  2023-11-30 11:57:45.929489
3070  2023-11-30 11:57:45.960762
3071  2023-11-30 11:57:45.993709
3072  2023-11-30 11:57:46.024515
3073  2023-11-30 11:57:46.057394
3074  2023-11-30 11:57:46.089144
3075  2023-11-30 11:57:46.120954
3076  2023-11-30 11:57:46.152875
3077  2023-11-30 11:57:46.184789
3078  2023-11-30 11:57:46.232699
3079  2023-11-30 11:57:46.265625
3080  2023-11-30 11:57:46.297609
3081  2023-11-30 11:57:46.329374
3082  2023-11-30 11:57:46.360791
3083  2023-11-30 11:57:46.392783
3084  2023-11-30 11:57:46.425569
3085  2023-11-30 11:57:46.457344
3086  2023-11-30 11:57:46.489450
3087  2023-11-30 11:57:46.521449
3088  2023-11-30 11:57:46.554363
3089  2023-11-30 11:57:46.585701
3090  2023-11-30 11:57:46.634961
3091  2023-11-30 11:57:46.665429
3092  2023-11-30 11:57:46.697425
3093  2023-11-30 11:57:46.729606
3094  2023-11-30 11:57:46.760904
3095  2023-11-30 11:57:46.792817
3096  2023-11-30 11:57:46.825468
3097  2023-11-30 11:57:46.857420
3098  2023-11-30 11:57:46.889381
3099  2023-11-30 11:57:46.921464
3100  2023-11-30 11:57:46.953116
3101  2023-11-30 11:57:46.984982
3102  2023-11-30 11:57:47.032912
3103  2023-11-30 11:57:47.065114
3104  2023-11-30 11:57:47.098366
3105  2023-11-30 11:57:47.129247
3106  2023-11-30 11:57:47.161416
3107  2023-11-30 11:57:47.193094
3108  2023-11-30 11:57:47.224774
3109  2023-11-30 11:57:47.257601
3110  2023-11-30 11:57:47.288816
3111  2023-11-30 11:57:47.321580
3112  2023-11-30 11:57:47.352887
3113  2023-11-30 11:57:47.385500
3114  2023-11-30 11:57:47.432749
3115  2023-11-30 11:57:47.465218
3116  2023-11-30 11:57:47.497172
3117  2023-11-30 11:57:47.528830
3118  2023-11-30 11:57:47.560829
3119  2023-11-30 11:57:47.592722
3120  2023-11-30 11:57:47.624881
3121  2023-11-30 11:57:47.657571
3122  2023-11-30 11:57:47.689815
3123  2023-11-30 11:57:47.722370
3124  2023-11-30 11:57:47.753257
3125  2023-11-30 11:57:47.784899
3126  2023-11-30 11:57:47.832771
3127  2023-11-30 11:57:47.864359
3128  2023-11-30 11:57:47.896607
3129  2023-11-30 11:57:47.929154
3130  2023-11-30 11:57:47.961436
3131  2023-11-30 11:57:47.993687
3132  2023-11-30 11:57:48.024767
3133  2023-11-30 11:57:48.056692
3134  2023-11-30 11:57:48.089716
3135  2023-11-30 11:57:48.121474
3136  2023-11-30 11:57:48.153492
3137  2023-11-30 11:57:48.184811
3138  2023-11-30 11:57:48.233466
3139  2023-11-30 11:57:48.265429
3140  2023-11-30 11:57:48.297765
3141  2023-11-30 11:57:48.328754
3142  2023-11-30 11:57:48.361470
3143  2023-11-30 11:57:48.393130
3144  2023-11-30 11:57:48.424996
3145  2023-11-30 11:57:48.457461
3146  2023-11-30 11:57:48.489572
3147  2023-11-30 11:57:48.521339
3148  2023-11-30 11:57:48.553465
3149  2023-11-30 11:57:48.585377
3150  2023-11-30 11:57:48.633698
3151  2023-11-30 11:57:48.665444
3152  2023-11-30 11:57:48.697774
3153  2023-11-30 11:57:48.728823
3154  2023-11-30 11:57:48.760737
3155  2023-11-30 11:57:48.793452
3156  2023-11-30 11:57:48.825370
3157  2023-11-30 11:57:48.856774
3158  2023-11-30 11:57:48.890798
3159  2023-11-30 11:57:48.921516
3160  2023-11-30 11:57:48.953459
3161  2023-11-30 11:57:48.984876
3162  2023-11-30 11:57:49.033552
3163  2023-11-30 11:57:49.064503
3164  2023-11-30 11:57:49.097138
3165  2023-11-30 11:57:49.129442
3166  2023-11-30 11:57:49.161475
3167  2023-11-30 11:57:49.193485
3168  2023-11-30 11:57:49.226176
3169  2023-11-30 11:57:49.257427
3170  2023-11-30 11:57:49.289680
3171  2023-11-30 11:57:49.321657
3172  2023-11-30 11:57:49.353959
3173  2023-11-30 11:57:49.384710
3174  2023-11-30 11:57:49.432580
3175  2023-11-30 11:57:49.464495
3176  2023-11-30 11:57:49.496917
3177  2023-11-30 11:57:49.528832
3178  2023-11-30 11:57:49.560836
3179  2023-11-30 11:57:49.593755
3180  2023-11-30 11:57:49.624828
3181  2023-11-30 11:57:49.657440
3182  2023-11-30 11:57:49.689103
3183  2023-11-30 11:57:49.721749
3184  2023-11-30 11:57:49.753820
3185  2023-11-30 11:57:49.785187
3186  2023-11-30 11:57:49.833761
3187  2023-11-30 11:57:49.864586
3188  2023-11-30 11:57:49.896962
3189  2023-11-30 11:57:49.928715
3190  2023-11-30 11:57:49.961449
3191  2023-11-30 11:57:49.993410
3192  2023-11-30 11:57:50.025192
3193  2023-11-30 11:57:50.056748
3194  2023-11-30 11:57:50.089829
3195  2023-11-30 11:57:50.121472
3196  2023-11-30 11:57:50.153439
3197  2023-11-30 11:57:50.185402
3198  2023-11-30 11:57:50.233518
3199  2023-11-30 11:57:50.265484
3200  2023-11-30 11:57:50.297427
3201  2023-11-30 11:57:50.329658
3202  2023-11-30 11:57:50.360782
3203  2023-11-30 11:57:50.392645
3204  2023-11-30 11:57:50.425297
3205  2023-11-30 11:57:50.457065
3206  2023-11-30 11:57:50.489010
3207  2023-11-30 11:57:50.520925
3208  2023-11-30 11:57:50.552814
3209  2023-11-30 11:57:50.584683
3210  2023-11-30 11:57:50.633538
3211  2023-11-30 11:57:50.665498
3212  2023-11-30 11:57:50.697390
3213  2023-11-30 11:57:50.728555
3214  2023-11-30 11:57:50.761420
3215  2023-11-30 11:57:50.793488
3216  2023-11-30 11:57:50.825558
3217  2023-11-30 11:57:50.857182
3218  2023-11-30 11:57:50.889233
3219  2023-11-30 11:57:50.921215
3220  2023-11-30 11:57:50.953463
3221  2023-11-30 11:57:50.985543
3222  2023-11-30 11:57:51.033390
3223  2023-11-30 11:57:51.064719
3224  2023-11-30 11:57:51.096719
3225  2023-11-30 11:57:51.129481
3226  2023-11-30 11:57:51.161825
3227  2023-11-30 11:57:51.193187
3228  2023-11-30 11:57:51.225433
3229  2023-11-30 11:57:51.257334
3230  2023-11-30 11:57:51.289428
3231  2023-11-30 11:57:51.321763
3232  2023-11-30 11:57:51.353572
3233  2023-11-30 11:57:51.384748
3234  2023-11-30 11:57:51.433187
3235  2023-11-30 11:57:51.465433
3236  2023-11-30 11:57:51.497327
3237  2023-11-30 11:57:51.529192
3238  2023-11-30 11:57:51.560391
3239  2023-11-30 11:57:51.592945
3240  2023-11-30 11:57:51.625420
3241  2023-11-30 11:57:51.657546
3242  2023-11-30 11:57:51.689570
3243  2023-11-30 11:57:51.721536
3244  2023-11-30 11:57:51.752889
3245  2023-11-30 11:57:51.785340
3246  2023-11-30 11:57:51.833382
3247  2023-11-30 11:57:51.864625
3248  2023-11-30 11:57:51.897591
3249  2023-11-30 11:57:51.930016
3250  2023-11-30 11:57:51.962039
3251  2023-11-30 11:57:51.993525
3252  2023-11-30 11:57:52.025811
3253  2023-11-30 11:57:52.057679
3254  2023-11-30 11:57:52.088993
3255  2023-11-30 11:57:52.121719
3256  2023-11-30 11:57:52.153398
3257  2023-11-30 11:57:52.184721
3258  2023-11-30 11:57:52.233333
3259  2023-11-30 11:57:52.265540
3260  2023-11-30 11:57:52.297378
3261  2023-11-30 11:57:52.329382
3262  2023-11-30 11:57:52.361431
3263  2023-11-30 11:57:52.393411
3264  2023-11-30 11:57:52.425888
3265  2023-11-30 11:57:52.457470
3266  2023-11-30 11:57:52.489421
3267  2023-11-30 11:57:52.521560
3268  2023-11-30 11:57:52.553801
3269  2023-11-30 11:57:52.584914
3270  2023-11-30 11:57:52.633579
3271  2023-11-30 11:57:52.665590
3272  2023-11-30 11:57:52.697423
3273  2023-11-30 11:57:52.729036
3274  2023-11-30 11:57:52.761554
3275  2023-11-30 11:57:52.793905
3276  2023-11-30 11:57:52.825687
3277  2023-11-30 11:57:52.857448
3278  2023-11-30 11:57:52.889177
3279  2023-11-30 11:57:52.921124
3280  2023-11-30 11:57:52.952856
3281  2023-11-30 11:57:52.986028
3282  2023-11-30 11:57:53.033512
3283  2023-11-30 11:57:53.064567
3284  2023-11-30 11:57:53.096769
3285  2023-11-30 11:57:53.129514
3286  2023-11-30 11:57:53.161470
3287  2023-11-30 11:57:53.193918
3288  2023-11-30 11:57:53.225267
3289  2023-11-30 11:57:53.257497
3290  2023-11-30 11:57:53.289739
3291  2023-11-30 11:57:53.321836
3292  2023-11-30 11:57:53.352463
3293  2023-11-30 11:57:53.385419
3294  2023-11-30 11:57:53.432950
3295  2023-11-30 11:57:53.464836
3296  2023-11-30 11:57:53.496863
3297  2023-11-30 11:57:53.528786
3298  2023-11-30 11:57:53.561400
3299  2023-11-30 11:57:53.594031
3300  2023-11-30 11:57:53.625982
3301  2023-11-30 11:57:53.657886
3302  2023-11-30 11:57:53.688966
3303  2023-11-30 11:57:53.721970
3304  2023-11-30 11:57:53.753749
3305  2023-11-30 11:57:53.784734
3306  2023-11-30 11:57:53.833435
3307  2023-11-30 11:57:53.864707
3308  2023-11-30 11:57:53.896669
3309  2023-11-30 11:57:53.928829
3310  2023-11-30 11:57:53.960742
3311  2023-11-30 11:57:53.992691
3312  2023-11-30 11:57:54.024721
3313  2023-11-30 11:57:54.057465
3314  2023-11-30 11:57:54.089761
3315  2023-11-30 11:57:54.121466
3316  2023-11-30 11:57:54.153324
3317  2023-11-30 11:57:54.184629
3318  2023-11-30 11:57:54.232652
3319  2023-11-30 11:57:54.265595
3320  2023-11-30 11:57:54.297602
3321  2023-11-30 11:57:54.329944
3322  2023-11-30 11:57:54.361946
3323  2023-11-30 11:57:54.393001
3324  2023-11-30 11:57:54.424917
3325  2023-11-30 11:57:54.457569
3326  2023-11-30 11:57:54.489671
3327  2023-11-30 11:57:54.521395
3328  2023-11-30 11:57:54.553339
3329  2023-11-30 11:57:54.585383
3330  2023-11-30 11:57:54.633333
3331  2023-11-30 11:57:54.665608
3332  2023-11-30 11:57:54.697585
3333  2023-11-30 11:57:54.729416
3334  2023-11-30 11:57:54.761869
3335  2023-11-30 11:57:54.793703
3336  2023-11-30 11:57:54.825742
3337  2023-11-30 11:57:54.857602
3338  2023-11-30 11:57:54.889081
3339  2023-11-30 11:57:54.920818
3340  2023-11-30 11:57:54.952773
3341  2023-11-30 11:57:54.984676
3342  2023-11-30 11:57:55.033451
3343  2023-11-30 11:57:55.065603
3344  2023-11-30 11:57:55.096519
3345  2023-11-30 11:57:55.129330
3346  2023-11-30 11:57:55.161681
3347  2023-11-30 11:57:55.193722
3348  2023-11-30 11:57:55.225780
3349  2023-11-30 11:57:55.256731
3350  2023-11-30 11:57:55.289789
3351  2023-11-30 11:57:55.321196
3352  2023-11-30 11:57:55.353463
3353  2023-11-30 11:57:55.385580
3354  2023-11-30 11:57:55.433403
3355  2023-11-30 11:57:55.465631
3356  2023-11-30 11:57:55.497706
3357  2023-11-30 11:57:55.529790
3358  2023-11-30 11:57:55.561619
3359  2023-11-30 11:57:55.593739
3360  2023-11-30 11:57:55.624884
3361  2023-11-30 11:57:55.656812
3362  2023-11-30 11:57:55.688902
3363  2023-11-30 11:57:55.721188
3364  2023-11-30 11:57:55.752944
3365  2023-11-30 11:57:55.785590
3366  2023-11-30 11:57:55.833389
3367  2023-11-30 11:57:55.865599
3368  2023-11-30 11:57:55.896994
3369  2023-11-30 11:57:55.929105
3370  2023-11-30 11:57:55.960644
3371  2023-11-30 11:57:55.993480
3372  2023-11-30 11:57:56.025582
3373  2023-11-30 11:57:56.056601
3374  2023-11-30 11:57:56.088957
3375  2023-11-30 11:57:56.120846
3376  2023-11-30 11:57:56.153681
3377  2023-11-30 11:57:56.184721
3378  2023-11-30 11:57:56.232588
3379  2023-11-30 11:57:56.265346
3380  2023-11-30 11:57:56.296846
3381  2023-11-30 11:57:56.328930
3382  2023-11-30 11:57:56.361450
3383  2023-11-30 11:57:56.392978
3384  2023-11-30 11:57:56.424911
3385  2023-11-30 11:57:56.457776
3386  2023-11-30 11:57:56.488987
3387  2023-11-30 11:57:56.521150
3388  2023-11-30 11:57:56.552984
3389  2023-11-30 11:57:56.584898
3390  2023-11-30 11:57:56.633730
3391  2023-11-30 11:57:56.665668
3392  2023-11-30 11:57:56.697792
3393  2023-11-30 11:57:56.728749
3394  2023-11-30 11:57:56.761434
3395  2023-11-30 11:57:56.793312
3396  2023-11-30 11:57:56.825793
3397  2023-11-30 11:57:56.856744
3398  2023-11-30 11:57:56.888688
3399  2023-11-30 11:57:56.920946
3400  2023-11-30 11:57:56.952677
3401  2023-11-30 11:57:56.984756
3402  2023-11-30 11:57:57.033477
3403  2023-11-30 11:57:57.065520
3404  2023-11-30 11:57:57.098004
3405  2023-11-30 11:57:57.129445
3406  2023-11-30 11:57:57.161591
3407  2023-11-30 11:57:57.193572
3408  2023-11-30 11:57:57.225676
3409  2023-11-30 11:57:57.257583
3410  2023-11-30 11:57:57.288854
3411  2023-11-30 11:57:57.321027
3412  2023-11-30 11:57:57.353497
3413  2023-11-30 11:57:57.385541
3414  2023-11-30 11:57:57.433613
3415  2023-11-30 11:57:57.465662
3416  2023-11-30 11:57:57.497567
3417  2023-11-30 11:57:57.529647
3418  2023-11-30 11:57:57.561658
3419  2023-11-30 11:57:57.593003
3420  2023-11-30 11:57:57.625821
3421  2023-11-30 11:57:57.657351
3422  2023-11-30 11:57:57.688866
3423  2023-11-30 11:57:57.720833
3424  2023-11-30 11:57:57.753483
3425  2023-11-30 11:57:57.785578
3426  2023-11-30 11:57:57.832413
3427  2023-11-30 11:57:57.864661
3428  2023-11-30 11:57:57.896917
3429  2023-11-30 11:57:57.929773
3430  2023-11-30 11:57:57.961852
3431  2023-11-30 11:57:57.993930
3432  2023-11-30 11:57:58.024980
3433  2023-11-30 11:57:58.057692
3434  2023-11-30 11:57:58.093711
3435  2023-11-30 11:57:58.121596
3436  2023-11-30 11:57:58.154957
3437  2023-11-30 11:57:58.184847
3438  2023-11-30 11:57:58.233047
3439  2023-11-30 11:57:58.265224
3440  2023-11-30 11:57:58.297138
3441  2023-11-30 11:57:58.330782
3442  2023-11-30 11:57:58.361450
3443  2023-11-30 11:57:58.394428
3444  2023-11-30 11:57:58.424637
3445  2023-11-30 11:57:58.458928
3446  2023-11-30 11:57:58.490800
3447  2023-11-30 11:57:58.522750
3448  2023-11-30 11:57:58.555010
3449  2023-11-30 11:57:58.586686
3450  2023-11-30 11:57:58.634804
3451  2023-11-30 11:57:58.667655
3452  2023-11-30 11:57:58.699940
3453  2023-11-30 11:57:58.730949
3454  2023-11-30 11:57:58.761917
3455  2023-11-30 11:57:58.795931
3456  2023-11-30 11:57:58.828649
3457  2023-11-30 11:57:58.859727
3458  2023-11-30 11:57:58.892706
3459  2023-11-30 11:57:58.921845
3460  2023-11-30 11:57:58.953797
3461  2023-11-30 11:57:58.986178
3462  2023-11-30 11:57:59.035183
3463  2023-11-30 11:57:59.067023
3464  2023-11-30 11:57:59.098938
3465  2023-11-30 11:57:59.129855
3466  2023-11-30 11:57:59.161815
3467  2023-11-30 11:57:59.193687
3468  2023-11-30 11:57:59.226054
3469  2023-11-30 11:57:59.257592
3470  2023-11-30 11:57:59.290766
3471  2023-11-30 11:57:59.321526
3472  2023-11-30 11:57:59.354045
3473  2023-11-30 11:57:59.386029
3474  2023-11-30 11:57:59.435220
3475  2023-11-30 11:57:59.466414
3476  2023-11-30 11:57:59.497393
3477  2023-11-30 11:57:59.530033
3478  2023-11-30 11:57:59.562281
3479  2023-11-30 11:57:59.594388
3480  2023-11-30 11:57:59.627382
3481  2023-11-30 11:57:59.659434
3482  2023-11-30 11:57:59.689313
3483  2023-11-30 11:57:59.721745
3484  2023-11-30 11:57:59.754407
3485  2023-11-30 11:57:59.786492
3486  2023-11-30 11:57:59.834355
3487  2023-11-30 11:57:59.867041
3488  2023-11-30 11:57:59.897978
3489  2023-11-30 11:57:59.929877
3490  2023-11-30 11:57:59.963013
3491  2023-11-30 11:57:59.993922
3492  2023-11-30 11:58:00.026933
3493  2023-11-30 11:58:00.056817
3494  2023-11-30 11:58:00.088403
3495  2023-11-30 11:58:00.121797
3496  2023-11-30 11:58:00.153580
3497  2023-11-30 11:58:00.184753
3498  2023-11-30 11:58:00.232775
3499  2023-11-30 11:58:00.264736
3500  2023-11-30 11:58:00.298418
3501  2023-11-30 11:58:00.330190
3502  2023-11-30 11:58:00.361351
3503  2023-11-30 11:58:00.393776
3504  2023-11-30 11:58:00.426462
3505  2023-11-30 11:58:00.458540
3506  2023-11-30 11:58:00.489550
3507  2023-11-30 11:58:00.521372
3508  2023-11-30 11:58:00.553405
3509  2023-11-30 11:58:00.585456
3510  2023-11-30 11:58:00.632750
3511  2023-11-30 11:58:00.665513
3512  2023-11-30 11:58:00.697395
3513  2023-11-30 11:58:00.729394
3514  2023-11-30 11:58:00.761334
3515  2023-11-30 11:58:00.793219
3516  2023-11-30 11:58:00.826368
3517  2023-11-30 11:58:00.858231
3518  2023-11-30 11:58:00.889262
3519  2023-11-30 11:58:00.921224
3520  2023-11-30 11:58:00.953036
3521  2023-11-30 11:58:00.985158
3522  2023-11-30 11:58:01.033708
3523  2023-11-30 11:58:01.065970
3524  2023-11-30 11:58:01.099029
3525  2023-11-30 11:58:01.129526
3526  2023-11-30 11:58:01.160441
3527  2023-11-30 11:58:01.192683
3528  2023-11-30 11:58:01.225619
3529  2023-11-30 11:58:01.258529
3530  2023-11-30 11:58:01.290484
3531  2023-11-30 11:58:01.320448
3532  2023-11-30 11:58:01.352857
3533  2023-11-30 11:58:01.386448
3534  2023-11-30 11:58:01.433752
3535  2023-11-30 11:58:01.465874
3536  2023-11-30 11:58:01.497672
3537  2023-11-30 11:58:01.529490
3538  2023-11-30 11:58:01.561172
3539  2023-11-30 11:58:01.593483
3540  2023-11-30 11:58:01.626775
3541  2023-11-30 11:58:01.656867
3542  2023-11-30 11:58:01.688686
3543  2023-11-30 11:58:01.721571
3544  2023-11-30 11:58:01.753400
3545  2023-11-30 11:58:01.785389
3546  2023-11-30 11:58:01.833423
3547  2023-11-30 11:58:01.865444
3548  2023-11-30 11:58:01.898364
3549  2023-11-30 11:58:01.930370
3550  2023-11-30 11:58:01.961387
3551  2023-11-30 11:58:01.993908
3552  2023-11-30 11:58:02.025340
3553  2023-11-30 11:58:02.057681
3554  2023-11-30 11:58:02.090171
3555  2023-11-30 11:58:02.121167
3556  2023-11-30 11:58:02.153306
3557  2023-11-30 11:58:02.184559
3558  2023-11-30 11:58:02.232778
3559  2023-11-30 11:58:02.264686
3560  2023-11-30 11:58:02.299064
3561  2023-11-30 11:58:02.330047
