
1  2023-11-28 13:01:09.213618
2  2023-11-28 13:01:09.245588
3  2023-11-28 13:01:09.277503
4  2023-11-28 13:01:09.310417
5  2023-11-28 13:01:09.342329
6  2023-11-28 13:01:09.389499
7  2023-11-28 13:01:09.421413
8  2023-11-28 13:01:09.453469
9  2023-11-28 13:01:09.485418
10  2023-11-28 13:01:09.518328
11  2023-11-28 13:01:09.550243
12  2023-11-28 13:01:09.582157
13  2023-11-28 13:01:09.614072
14  2023-11-28 13:01:09.646026
15  2023-11-28 13:01:09.677942
16  2023-11-28 13:01:09.709862
17  2023-11-28 13:01:09.741771
18  2023-11-28 13:01:09.789669
19  2023-11-28 13:01:09.821558
20  2023-11-28 13:01:09.853472
21  2023-11-28 13:01:09.886384
22  2023-11-28 13:01:09.918300
23  2023-11-28 13:01:09.950213
24  2023-11-28 13:01:09.982129
25  2023-11-28 13:01:10.014076
26  2023-11-28 13:01:10.045990
27  2023-11-28 13:01:10.077905
28  2023-11-28 13:01:10.109928
29  2023-11-28 13:01:10.142266
30  2023-11-28 13:01:10.190100
31  2023-11-28 13:01:10.222016
32  2023-11-28 13:01:10.253929
33  2023-11-28 13:01:10.285844
34  2023-11-28 13:01:10.317758
35  2023-11-28 13:01:10.349677
36  2023-11-28 13:01:10.381663
37  2023-11-28 13:01:10.413575
38  2023-11-28 13:01:10.445460
39  2023-11-28 13:01:10.478372
40  2023-11-28 13:01:10.510287
41  2023-11-28 13:01:10.542201
42  2023-11-28 13:01:10.590073
43  2023-11-28 13:01:10.621989
44  2023-11-28 13:01:10.653904
45  2023-11-28 13:01:10.685818
46  2023-11-28 13:01:10.717733
47  2023-11-28 13:01:10.749679
48  2023-11-28 13:01:10.781898
49  2023-11-28 13:01:10.813808
50  2023-11-28 13:01:10.845818
51  2023-11-28 13:01:10.877724
52  2023-11-28 13:01:10.909642
53  2023-11-28 13:01:10.942521
54  2023-11-28 13:01:10.989483
55  2023-11-28 13:01:11.022405
56  2023-11-28 13:01:11.054304
57  2023-11-28 13:01:11.086219
58  2023-11-28 13:01:11.118100
59  2023-11-28 13:01:11.150014
60  2023-11-28 13:01:11.181929
61  2023-11-28 13:01:11.213844
62  2023-11-28 13:01:11.245758
63  2023-11-28 13:01:11.278671
64  2023-11-28 13:01:11.310586
65  2023-11-28 13:01:11.358473
66  2023-11-28 13:01:11.390414
67  2023-11-28 13:01:11.422286
68  2023-11-28 13:01:11.454306
69  2023-11-28 13:01:11.486184
70  2023-11-28 13:01:11.518100
71  2023-11-28 13:01:11.550046
72  2023-11-28 13:01:11.581958
73  2023-11-28 13:01:11.640772
74  2023-11-28 13:01:11.645757
75  2023-11-28 13:01:11.677757
76  2023-11-28 13:01:11.709672
77  2023-11-28 13:01:11.757544
78  2023-11-28 13:01:11.789459
79  2023-11-28 13:01:11.822389
80  2023-11-28 13:01:11.854287
81  2023-11-28 13:01:11.886200
82  2023-11-28 13:01:11.918140
83  2023-11-28 13:01:11.950062
84  2023-11-28 13:01:11.981944
85  2023-11-28 13:01:12.013859
86  2023-11-28 13:01:12.045773
87  2023-11-28 13:01:12.077688
88  2023-11-28 13:01:12.109603
89  2023-11-28 13:01:12.157475
90  2023-11-28 13:01:12.189431
91  2023-11-28 13:01:12.222355
92  2023-11-28 13:01:12.254252
93  2023-11-28 13:01:12.286166
94  2023-11-28 13:01:12.318078
95  2023-11-28 13:01:12.349960
96  2023-11-28 13:01:12.381875
97  2023-11-28 13:01:12.413789
98  2023-11-28 13:01:12.445704
99  2023-11-28 13:01:12.477619
100  2023-11-28 13:01:12.510531
101  2023-11-28 13:01:12.558406
102  2023-11-28 13:01:12.590318
103  2023-11-28 13:01:12.622233
104  2023-11-28 13:01:12.654137
105  2023-11-28 13:01:12.686054
106  2023-11-28 13:01:12.747889
107  2023-11-28 13:01:12.751877
108  2023-11-28 13:01:12.781837
109  2023-11-28 13:01:12.813794
110  2023-11-28 13:01:12.845708
111  2023-11-28 13:01:12.877623
112  2023-11-28 13:01:12.909537
113  2023-11-28 13:01:12.957461
114  2023-11-28 13:01:12.990354
115  2023-11-28 13:01:13.022268
116  2023-11-28 13:01:13.054151
117  2023-11-28 13:01:13.086098
118  2023-11-28 13:01:13.118011
119  2023-11-28 13:01:13.149926
120  2023-11-28 13:01:13.181809
121  2023-11-28 13:01:13.213724
122  2023-11-28 13:01:13.245639
123  2023-11-28 13:01:13.277595
124  2023-11-28 13:01:13.309468
125  2023-11-28 13:01:13.357372
126  2023-11-28 13:01:13.390254
127  2023-11-28 13:01:13.422198
128  2023-11-28 13:01:13.454082
129  2023-11-28 13:01:13.486028
130  2023-11-28 13:01:13.517912
131  2023-11-28 13:01:13.549826
132  2023-11-28 13:01:13.581740
133  2023-11-28 13:01:13.613738
134  2023-11-28 13:01:13.645682
135  2023-11-28 13:01:13.677597
136  2023-11-28 13:01:13.709556
137  2023-11-28 13:01:13.757429
138  2023-11-28 13:01:13.790340
139  2023-11-28 13:01:13.845194
140  2023-11-28 13:01:13.854195
141  2023-11-28 13:01:13.886084
142  2023-11-28 13:01:13.918030
143  2023-11-28 13:01:13.949913
144  2023-11-28 13:01:13.981828
145  2023-11-28 13:01:14.013743
146  2023-11-28 13:01:14.056630
147  2023-11-28 13:01:14.078569
148  2023-11-28 13:01:14.110484
149  2023-11-28 13:01:14.158356
150  2023-11-28 13:01:14.190271
151  2023-11-28 13:01:14.222166
152  2023-11-28 13:01:14.254088
153  2023-11-28 13:01:14.286240
154  2023-11-28 13:01:14.318123
155  2023-11-28 13:01:14.350086
156  2023-11-28 13:01:14.381952
157  2023-11-28 13:01:14.413867
158  2023-11-28 13:01:14.445833
159  2023-11-28 13:01:14.477729
160  2023-11-28 13:01:14.509611
161  2023-11-28 13:01:14.557514
162  2023-11-28 13:01:14.590395
163  2023-11-28 13:01:14.622309
164  2023-11-28 13:01:14.654269
165  2023-11-28 13:01:14.686176
166  2023-11-28 13:01:14.718053
167  2023-11-28 13:01:14.749968
168  2023-11-28 13:01:14.781918
169  2023-11-28 13:01:14.813834
170  2023-11-28 13:01:14.845712
171  2023-11-28 13:01:14.877627
172  2023-11-28 13:01:14.937530
173  2023-11-28 13:01:14.958411
174  2023-11-28 13:01:14.990327
175  2023-11-28 13:01:15.022241
176  2023-11-28 13:01:15.054225
177  2023-11-28 13:01:15.086070
178  2023-11-28 13:01:15.118015
179  2023-11-28 13:01:15.149899
180  2023-11-28 13:01:15.181830
181  2023-11-28 13:01:15.213728
182  2023-11-28 13:01:15.245643
183  2023-11-28 13:01:15.277558
184  2023-11-28 13:01:15.326431
185  2023-11-28 13:01:15.358374
186  2023-11-28 13:01:15.390288
187  2023-11-28 13:01:15.422171
188  2023-11-28 13:01:15.454117
189  2023-11-28 13:01:15.486033
190  2023-11-28 13:01:15.517948
191  2023-11-28 13:01:15.549830
192  2023-11-28 13:01:15.581754
193  2023-11-28 13:01:15.613659
194  2023-11-28 13:01:15.645574
195  2023-11-28 13:01:15.677488
196  2023-11-28 13:01:15.726399
197  2023-11-28 13:01:15.758315
198  2023-11-28 13:01:15.790222
199  2023-11-28 13:01:15.822136
200  2023-11-28 13:01:15.854017
201  2023-11-28 13:01:15.885932
202  2023-11-28 13:01:15.917847
203  2023-11-28 13:01:15.949761
204  2023-11-28 13:01:15.982682
205  2023-11-28 13:01:16.014600
206  2023-11-28 13:01:16.045505
207  2023-11-28 13:01:16.078417
208  2023-11-28 13:01:16.126321
209  2023-11-28 13:01:16.158203
210  2023-11-28 13:01:16.190155
211  2023-11-28 13:01:16.222033
212  2023-11-28 13:01:16.253973
213  2023-11-28 13:01:16.285863
214  2023-11-28 13:01:16.317793
215  2023-11-28 13:01:16.349707
216  2023-11-28 13:01:16.381664
217  2023-11-28 13:01:16.413611
218  2023-11-28 13:01:16.445575
219  2023-11-28 13:01:16.477518
220  2023-11-28 13:01:16.526358
221  2023-11-28 13:01:16.557438
222  2023-11-28 13:01:16.590304
223  2023-11-28 13:01:16.622251
224  2023-11-28 13:01:16.654161
225  2023-11-28 13:01:16.686107
226  2023-11-28 13:01:16.717454
227  2023-11-28 13:01:16.750334
228  2023-11-28 13:01:16.782249
229  2023-11-28 13:01:16.814163
230  2023-11-28 13:01:16.846078
231  2023-11-28 13:01:16.878112
232  2023-11-28 13:01:16.925985
233  2023-11-28 13:01:16.957899
234  2023-11-28 13:01:16.989852
235  2023-11-28 13:01:17.021816
236  2023-11-28 13:01:17.053700
237  2023-11-28 13:01:17.085670
238  2023-11-28 13:01:17.117623
239  2023-11-28 13:01:17.149624
240  2023-11-28 13:01:17.181539
241  2023-11-28 13:01:17.214451
242  2023-11-28 13:01:17.246379
243  2023-11-28 13:01:17.278280
244  2023-11-28 13:01:17.326152
245  2023-11-28 13:01:17.358106
246  2023-11-28 13:01:17.390014
247  2023-11-28 13:01:17.421968
248  2023-11-28 13:01:17.453913
249  2023-11-28 13:01:17.485831
250  2023-11-28 13:01:17.517751
251  2023-11-28 13:01:17.549626
252  2023-11-28 13:01:17.581540
253  2023-11-28 13:01:17.614453
254  2023-11-28 13:01:17.646376
255  2023-11-28 13:01:17.678282
256  2023-11-28 13:01:17.726186
257  2023-11-28 13:01:17.758104
258  2023-11-28 13:01:17.790017
259  2023-11-28 13:01:17.821929
260  2023-11-28 13:01:17.854810
261  2023-11-28 13:01:17.885778
262  2023-11-28 13:01:17.917676
263  2023-11-28 13:01:17.949557
264  2023-11-28 13:01:18.012389
265  2023-11-28 13:01:18.019371
266  2023-11-28 13:01:18.046298
267  2023-11-28 13:01:18.078213
268  2023-11-28 13:01:18.126086
269  2023-11-28 13:01:18.158032
270  2023-11-28 13:01:18.189948
271  2023-11-28 13:01:18.221861
272  2023-11-28 13:01:18.253776
273  2023-11-28 13:01:18.285692
274  2023-11-28 13:01:18.317607
275  2023-11-28 13:01:18.349561
276  2023-11-28 13:01:18.381466
277  2023-11-28 13:01:18.414347
278  2023-11-28 13:01:18.446358
279  2023-11-28 13:01:18.478272
280  2023-11-28 13:01:18.526244
281  2023-11-28 13:01:18.558281
282  2023-11-28 13:01:18.590308
283  2023-11-28 13:01:18.622212
284  2023-11-28 13:01:18.654135
285  2023-11-28 13:01:18.686017
286  2023-11-28 13:01:18.717966
287  2023-11-28 13:01:18.749848
288  2023-11-28 13:01:18.781761
289  2023-11-28 13:01:18.813675
290  2023-11-28 13:01:18.845590
291  2023-11-28 13:01:18.877504
292  2023-11-28 13:01:18.925413
293  2023-11-28 13:01:18.958331
294  2023-11-28 13:01:18.990242
295  2023-11-28 13:01:19.022149
296  2023-11-28 13:01:19.054064
297  2023-11-28 13:01:19.085947
298  2023-11-28 13:01:19.127870
299  2023-11-28 13:01:19.149777
300  2023-11-28 13:01:19.182690
301  2023-11-28 13:01:19.213606
302  2023-11-28 13:01:19.246518
303  2023-11-28 13:01:19.293395
304  2023-11-28 13:01:19.326305
305  2023-11-28 13:01:19.358266
306  2023-11-28 13:01:19.390134
307  2023-11-28 13:01:19.422073
308  2023-11-28 13:01:19.453964
309  2023-11-28 13:01:19.485879
310  2023-11-28 13:01:19.517843
311  2023-11-28 13:01:19.549708
312  2023-11-28 13:01:19.581733
313  2023-11-28 13:01:19.613777
314  2023-11-28 13:01:19.645692
315  2023-11-28 13:01:19.694563
316  2023-11-28 13:01:19.726508
317  2023-11-28 13:01:19.757446
318  2023-11-28 13:01:19.790338
319  2023-11-28 13:01:19.822256
320  2023-11-28 13:01:19.854179
321  2023-11-28 13:01:19.886050
322  2023-11-28 13:01:19.917964
323  2023-11-28 13:01:19.949861
324  2023-11-28 13:01:19.981862
325  2023-11-28 13:01:20.013726
326  2023-11-28 13:01:20.045641
327  2023-11-28 13:01:20.093513
328  2023-11-28 13:01:20.125886
329  2023-11-28 13:01:20.157828
330  2023-11-28 13:01:20.214677
331  2023-11-28 13:01:20.221667
332  2023-11-28 13:01:20.253574
333  2023-11-28 13:01:20.286510
334  2023-11-28 13:01:20.317404
335  2023-11-28 13:01:20.350314
336  2023-11-28 13:01:20.382234
337  2023-11-28 13:01:20.414262
338  2023-11-28 13:01:20.446058
339  2023-11-28 13:01:20.493931
340  2023-11-28 13:01:20.526005
341  2023-11-28 13:01:20.557897
342  2023-11-28 13:01:20.589799
343  2023-11-28 13:01:20.621870
344  2023-11-28 13:01:20.653756
345  2023-11-28 13:01:20.685759
346  2023-11-28 13:01:20.717662
347  2023-11-28 13:01:20.749598
348  2023-11-28 13:01:20.781513
349  2023-11-28 13:01:20.814425
350  2023-11-28 13:01:20.846389
351  2023-11-28 13:01:20.894212
352  2023-11-28 13:01:20.926127
353  2023-11-28 13:01:20.958074
354  2023-11-28 13:01:20.989958
355  2023-11-28 13:01:21.021907
356  2023-11-28 13:01:21.053786
357  2023-11-28 13:01:21.085742
358  2023-11-28 13:01:21.117663
359  2023-11-28 13:01:21.149583
360  2023-11-28 13:01:21.182442
361  2023-11-28 13:01:21.214356
362  2023-11-28 13:01:21.246270
363  2023-11-28 13:01:21.294142
364  2023-11-28 13:01:21.326091
365  2023-11-28 13:01:21.358005
366  2023-11-28 13:01:21.390066
367  2023-11-28 13:01:21.421969
368  2023-11-28 13:01:21.453891
369  2023-11-28 13:01:21.485920
370  2023-11-28 13:01:21.517825
371  2023-11-28 13:01:21.549706
372  2023-11-28 13:01:21.581765
373  2023-11-28 13:01:21.613650
374  2023-11-28 13:01:21.645662
375  2023-11-28 13:01:21.694484
376  2023-11-28 13:01:21.726452
377  2023-11-28 13:01:21.758327
378  2023-11-28 13:01:21.790374
379  2023-11-28 13:01:21.822272
380  2023-11-28 13:01:21.854186
381  2023-11-28 13:01:21.886072
382  2023-11-28 13:01:21.917983
383  2023-11-28 13:01:21.949933
384  2023-11-28 13:01:21.981859
385  2023-11-28 13:01:22.014779
386  2023-11-28 13:01:22.045737
387  2023-11-28 13:01:22.093619
388  2023-11-28 13:01:22.125648
389  2023-11-28 13:01:22.158581
390  2023-11-28 13:01:22.190465
391  2023-11-28 13:01:22.222435
392  2023-11-28 13:01:22.254412
393  2023-11-28 13:01:22.286288
394  2023-11-28 13:01:22.341178
395  2023-11-28 13:01:22.350156
396  2023-11-28 13:01:22.382085
397  2023-11-28 13:01:22.414041
398  2023-11-28 13:01:22.446004
399  2023-11-28 13:01:22.493830
400  2023-11-28 13:01:22.525744
401  2023-11-28 13:01:22.557658
402  2023-11-28 13:01:22.589574
403  2023-11-28 13:01:22.622522
404  2023-11-28 13:01:22.653413
405  2023-11-28 13:01:22.686364
406  2023-11-28 13:01:22.718229
407  2023-11-28 13:01:22.750178
408  2023-11-28 13:01:22.782058
409  2023-11-28 13:01:22.813982
410  2023-11-28 13:01:22.861856
411  2023-11-28 13:01:22.893800
412  2023-11-28 13:01:22.926710
413  2023-11-28 13:01:22.957589
414  2023-11-28 13:01:22.989504
415  2023-11-28 13:01:23.022518
416  2023-11-28 13:01:23.054572
417  2023-11-28 13:01:23.086483
418  2023-11-28 13:01:23.118509
419  2023-11-28 13:01:23.150370
420  2023-11-28 13:01:23.182274
421  2023-11-28 13:01:23.214245
422  2023-11-28 13:01:23.262230
423  2023-11-28 13:01:23.294130
424  2023-11-28 13:01:23.326105
425  2023-11-28 13:01:23.358138
426  2023-11-28 13:01:23.390019
427  2023-11-28 13:01:23.436894
428  2023-11-28 13:01:23.453849
429  2023-11-28 13:01:23.485764
430  2023-11-28 13:01:23.517680
431  2023-11-28 13:01:23.549592
432  2023-11-28 13:01:23.581505
433  2023-11-28 13:01:23.614418
434  2023-11-28 13:01:23.662322
435  2023-11-28 13:01:23.694213
436  2023-11-28 13:01:23.726119
437  2023-11-28 13:01:23.758035
438  2023-11-28 13:01:23.789968
439  2023-11-28 13:01:23.821864
440  2023-11-28 13:01:23.853825
441  2023-11-28 13:01:23.885776
442  2023-11-28 13:01:23.917689
443  2023-11-28 13:01:23.949781
444  2023-11-28 13:01:23.981675
445  2023-11-28 13:01:24.013588
446  2023-11-28 13:01:24.062430
447  2023-11-28 13:01:24.094345
448  2023-11-28 13:01:24.126406
449  2023-11-28 13:01:24.158345
450  2023-11-28 13:01:24.190261
451  2023-11-28 13:01:24.222171
452  2023-11-28 13:01:24.254237
453  2023-11-28 13:01:24.286096
454  2023-11-28 13:01:24.318050
455  2023-11-28 13:01:24.350009
456  2023-11-28 13:01:24.381870
457  2023-11-28 13:01:24.413817
458  2023-11-28 13:01:24.461815
459  2023-11-28 13:01:24.493708
460  2023-11-28 13:01:24.531607
461  2023-11-28 13:01:24.558544
462  2023-11-28 13:01:24.590475
463  2023-11-28 13:01:24.622409
464  2023-11-28 13:01:24.654308
465  2023-11-28 13:01:24.686194
466  2023-11-28 13:01:24.718108
467  2023-11-28 13:01:24.750023
468  2023-11-28 13:01:24.781971
469  2023-11-28 13:01:24.813896
470  2023-11-28 13:01:24.861765
471  2023-11-28 13:01:24.893640
472  2023-11-28 13:01:24.925594
473  2023-11-28 13:01:24.958502
474  2023-11-28 13:01:24.990382
475  2023-11-28 13:01:25.021564
476  2023-11-28 13:01:25.054448
477  2023-11-28 13:01:25.086404
478  2023-11-28 13:01:25.118319
479  2023-11-28 13:01:25.150335
480  2023-11-28 13:01:25.182254
481  2023-11-28 13:01:25.214137
482  2023-11-28 13:01:25.262022
483  2023-11-28 13:01:25.293926
484  2023-11-28 13:01:25.325893
485  2023-11-28 13:01:25.357756
486  2023-11-28 13:01:25.389709
487  2023-11-28 13:01:25.421647
488  2023-11-28 13:01:25.453529
489  2023-11-28 13:01:25.486411
490  2023-11-28 13:01:25.518360
491  2023-11-28 13:01:25.550238
492  2023-11-28 13:01:25.610135
493  2023-11-28 13:01:25.614101
494  2023-11-28 13:01:25.661941
495  2023-11-28 13:01:25.693893
496  2023-11-28 13:01:25.725859
497  2023-11-28 13:01:25.757818
498  2023-11-28 13:01:25.789769
499  2023-11-28 13:01:25.822335
500  2023-11-28 13:01:25.854371
501  2023-11-28 13:01:25.886285
502  2023-11-28 13:01:25.918199
503  2023-11-28 13:01:25.950115
504  2023-11-28 13:01:25.982103
505  2023-11-28 13:01:26.013986
506  2023-11-28 13:01:26.061969
507  2023-11-28 13:01:26.093882
508  2023-11-28 13:01:26.125799
509  2023-11-28 13:01:26.157809
510  2023-11-28 13:01:26.189690
511  2023-11-28 13:01:26.221606
512  2023-11-28 13:01:26.254552
513  2023-11-28 13:01:26.286490
514  2023-11-28 13:01:26.317533
515  2023-11-28 13:01:26.349487
516  2023-11-28 13:01:26.381783
517  2023-11-28 13:01:26.413658
518  2023-11-28 13:01:26.461567
519  2023-11-28 13:01:26.493583
520  2023-11-28 13:01:26.526491
521  2023-11-28 13:01:26.558441
522  2023-11-28 13:01:26.590321
523  2023-11-28 13:01:26.622271
524  2023-11-28 13:01:26.654165
525  2023-11-28 13:01:26.703020
526  2023-11-28 13:01:26.717982
527  2023-11-28 13:01:26.749938
528  2023-11-28 13:01:26.781967
529  2023-11-28 13:01:26.829808
530  2023-11-28 13:01:26.861788
531  2023-11-28 13:01:26.893716
532  2023-11-28 13:01:26.925620
533  2023-11-28 13:01:26.957625
534  2023-11-28 13:01:26.989533
535  2023-11-28 13:01:27.021454
536  2023-11-28 13:01:27.054360
537  2023-11-28 13:01:27.086275
538  2023-11-28 13:01:27.118193
539  2023-11-28 13:01:27.150103
540  2023-11-28 13:01:27.182018
541  2023-11-28 13:01:27.229908
542  2023-11-28 13:01:27.261807
543  2023-11-28 13:01:27.293734
544  2023-11-28 13:01:27.325632
545  2023-11-28 13:01:27.357547
546  2023-11-28 13:01:27.390459
547  2023-11-28 13:01:27.422393
548  2023-11-28 13:01:27.454287
549  2023-11-28 13:01:27.486209
550  2023-11-28 13:01:27.518121
551  2023-11-28 13:01:27.550031
552  2023-11-28 13:01:27.581945
553  2023-11-28 13:01:27.629833
554  2023-11-28 13:01:27.661741
555  2023-11-28 13:01:27.693617
556  2023-11-28 13:01:27.725587
557  2023-11-28 13:01:27.788364
558  2023-11-28 13:01:27.793351
559  2023-11-28 13:01:27.822321
560  2023-11-28 13:01:27.854217
561  2023-11-28 13:01:27.886135
562  2023-11-28 13:01:27.918051
563  2023-11-28 13:01:27.949965
564  2023-11-28 13:01:27.981885
565  2023-11-28 13:01:28.029759
566  2023-11-28 13:01:28.062662
567  2023-11-28 13:01:28.093600
568  2023-11-28 13:01:28.125463
569  2023-11-28 13:01:28.158421
570  2023-11-28 13:01:28.190328
571  2023-11-28 13:01:28.222284
572  2023-11-28 13:01:28.254277
573  2023-11-28 13:01:28.286192
574  2023-11-28 13:01:28.318165
575  2023-11-28 13:01:28.350078
576  2023-11-28 13:01:28.381993
577  2023-11-28 13:01:28.429881
578  2023-11-28 13:01:28.461878
579  2023-11-28 13:01:28.493747
580  2023-11-28 13:01:28.525658
581  2023-11-28 13:01:28.557603
582  2023-11-28 13:01:28.589523
583  2023-11-28 13:01:28.621447
584  2023-11-28 13:01:28.654348
585  2023-11-28 13:01:28.686262
586  2023-11-28 13:01:28.718178
587  2023-11-28 13:01:28.750161
588  2023-11-28 13:01:28.782152
589  2023-11-28 13:01:28.830077
590  2023-11-28 13:01:28.861985
591  2023-11-28 13:01:28.893892
592  2023-11-28 13:01:28.925856
593  2023-11-28 13:01:28.957837
594  2023-11-28 13:01:28.989747
595  2023-11-28 13:01:29.021632
596  2023-11-28 13:01:29.053575
597  2023-11-28 13:01:29.085491
598  2023-11-28 13:01:29.117405
599  2023-11-28 13:01:29.150285
600  2023-11-28 13:01:29.182232
601  2023-11-28 13:01:29.230104
602  2023-11-28 13:01:29.262018
603  2023-11-28 13:01:29.294092
604  2023-11-28 13:01:29.326050
605  2023-11-28 13:01:29.357926
606  2023-11-28 13:01:29.389893
607  2023-11-28 13:01:29.421801
608  2023-11-28 13:01:29.453717
609  2023-11-28 13:01:29.486583
610  2023-11-28 13:01:29.518529
611  2023-11-28 13:01:29.549447
612  2023-11-28 13:01:29.582326
613  2023-11-28 13:01:29.630230
614  2023-11-28 13:01:29.662148
615  2023-11-28 13:01:29.694031
616  2023-11-28 13:01:29.725991
617  2023-11-28 13:01:29.757884
618  2023-11-28 13:01:29.789806
619  2023-11-28 13:01:29.821742
620  2023-11-28 13:01:29.853643
621  2023-11-28 13:01:29.885548
622  2023-11-28 13:01:29.917642
623  2023-11-28 13:01:29.982439
624  2023-11-28 13:01:30.030357
625  2023-11-28 13:01:30.062253
626  2023-11-28 13:01:30.094139
627  2023-11-28 13:01:30.126085
628  2023-11-28 13:01:30.157999
629  2023-11-28 13:01:30.189948
630  2023-11-28 13:01:30.221828
631  2023-11-28 13:01:30.253816
632  2023-11-28 13:01:30.285813
633  2023-11-28 13:01:30.317738
634  2023-11-28 13:01:30.349648
635  2023-11-28 13:01:30.397604
636  2023-11-28 13:01:30.429508
637  2023-11-28 13:01:30.461422
638  2023-11-28 13:01:30.494332
639  2023-11-28 13:01:30.526154
640  2023-11-28 13:01:30.558175
641  2023-11-28 13:01:30.590089
642  2023-11-28 13:01:30.622004
643  2023-11-28 13:01:30.653925
644  2023-11-28 13:01:30.685802
645  2023-11-28 13:01:30.717752
646  2023-11-28 13:01:30.749673
647  2023-11-28 13:01:30.798500
648  2023-11-28 13:01:30.830416
649  2023-11-28 13:01:30.862364
650  2023-11-28 13:01:30.894277
651  2023-11-28 13:01:30.926193
652  2023-11-28 13:01:30.958113
653  2023-11-28 13:01:30.990006
654  2023-11-28 13:01:31.021903
655  2023-11-28 13:01:31.073800
656  2023-11-28 13:01:31.086757
657  2023-11-28 13:01:31.117690
658  2023-11-28 13:01:31.149609
659  2023-11-28 13:01:31.197435
660  2023-11-28 13:01:31.230388
661  2023-11-28 13:01:31.262291
662  2023-11-28 13:01:31.294206
663  2023-11-28 13:01:31.326117
664  2023-11-28 13:01:31.358036
665  2023-11-28 13:01:31.389955
666  2023-11-28 13:01:31.421869
667  2023-11-28 13:01:31.453797
668  2023-11-28 13:01:31.485677
669  2023-11-28 13:01:31.517768
670  2023-11-28 13:01:31.549723
671  2023-11-28 13:01:31.597642
672  2023-11-28 13:01:31.629553
673  2023-11-28 13:01:31.661471
674  2023-11-28 13:01:31.694377
675  2023-11-28 13:01:31.726263
676  2023-11-28 13:01:31.758208
677  2023-11-28 13:01:31.790125
678  2023-11-28 13:01:31.822037
679  2023-11-28 13:01:31.853953
680  2023-11-28 13:01:31.885883
681  2023-11-28 13:01:31.917784
682  2023-11-28 13:01:31.949702
683  2023-11-28 13:01:31.997570
684  2023-11-28 13:01:32.029483
685  2023-11-28 13:01:32.062400
686  2023-11-28 13:01:32.094312
687  2023-11-28 13:01:32.126195
688  2023-11-28 13:01:32.166123
689  2023-11-28 13:01:32.190057
690  2023-11-28 13:01:32.222046
691  2023-11-28 13:01:32.253960
692  2023-11-28 13:01:32.285916
693  2023-11-28 13:01:32.317912
694  2023-11-28 13:01:32.349832
695  2023-11-28 13:01:32.397757
696  2023-11-28 13:01:32.429775
697  2023-11-28 13:01:32.461760
698  2023-11-28 13:01:32.493672
699  2023-11-28 13:01:32.525600
700  2023-11-28 13:01:32.557468
701  2023-11-28 13:01:32.589417
702  2023-11-28 13:01:32.622405
703  2023-11-28 13:01:32.654287
704  2023-11-28 13:01:32.686202
705  2023-11-28 13:01:32.718153
706  2023-11-28 13:01:32.750143
707  2023-11-28 13:01:32.797974
708  2023-11-28 13:01:32.829967
709  2023-11-28 13:01:32.861964
710  2023-11-28 13:01:32.893968
711  2023-11-28 13:01:32.925939
712  2023-11-28 13:01:32.957827
713  2023-11-28 13:01:32.989754
714  2023-11-28 13:01:33.021674
715  2023-11-28 13:01:33.053574
716  2023-11-28 13:01:33.085499
717  2023-11-28 13:01:33.118404
718  2023-11-28 13:01:33.150321
719  2023-11-28 13:01:33.198154
720  2023-11-28 13:01:33.259041
721  2023-11-28 13:01:33.264019
722  2023-11-28 13:01:33.293939
723  2023-11-28 13:01:33.325849
724  2023-11-28 13:01:33.357774
725  2023-11-28 13:01:33.389687
726  2023-11-28 13:01:33.421746
727  2023-11-28 13:01:33.453655
728  2023-11-28 13:01:33.485562
729  2023-11-28 13:01:33.518440
730  2023-11-28 13:01:33.550354
731  2023-11-28 13:01:33.598259
732  2023-11-28 13:01:33.630173
733  2023-11-28 13:01:33.662094
734  2023-11-28 13:01:33.694152
735  2023-11-28 13:01:33.726134
736  2023-11-28 13:01:33.758109
737  2023-11-28 13:01:33.790136
738  2023-11-28 13:01:33.822051
739  2023-11-28 13:01:33.853934
740  2023-11-28 13:01:33.885851
741  2023-11-28 13:01:33.917813
742  2023-11-28 13:01:33.949678
743  2023-11-28 13:01:33.997605
744  2023-11-28 13:01:34.029510
745  2023-11-28 13:01:34.061421
746  2023-11-28 13:01:34.094324
747  2023-11-28 13:01:34.126238
748  2023-11-28 13:01:34.158174
749  2023-11-28 13:01:34.190088
750  2023-11-28 13:01:34.222000
751  2023-11-28 13:01:34.253909
752  2023-11-28 13:01:34.285815
753  2023-11-28 13:01:34.406458
754  2023-11-28 13:01:34.429401
755  2023-11-28 13:01:34.462313
756  2023-11-28 13:01:34.494254
757  2023-11-28 13:01:34.526173
758  2023-11-28 13:01:34.558084
759  2023-11-28 13:01:34.589967
760  2023-11-28 13:01:34.621907
761  2023-11-28 13:01:34.653829
762  2023-11-28 13:01:34.685758
763  2023-11-28 13:01:34.717656
764  2023-11-28 13:01:34.765569
765  2023-11-28 13:01:34.797443
766  2023-11-28 13:01:34.830370
767  2023-11-28 13:01:34.862241
768  2023-11-28 13:01:34.894188
769  2023-11-28 13:01:34.926099
770  2023-11-28 13:01:34.958017
771  2023-11-28 13:01:34.989933
772  2023-11-28 13:01:35.021923
773  2023-11-28 13:01:35.053887
774  2023-11-28 13:01:35.085834
775  2023-11-28 13:01:35.117751
776  2023-11-28 13:01:35.165624
777  2023-11-28 13:01:35.197550
778  2023-11-28 13:01:35.230413
779  2023-11-28 13:01:35.262355
780  2023-11-28 13:01:35.294273
781  2023-11-28 13:01:35.326193
782  2023-11-28 13:01:35.358111
783  2023-11-28 13:01:35.390017
784  2023-11-28 13:01:35.421942
785  2023-11-28 13:01:35.453865
786  2023-11-28 13:01:35.485782
787  2023-11-28 13:01:35.517681
788  2023-11-28 13:01:35.566539
789  2023-11-28 13:01:35.598432
790  2023-11-28 13:01:35.630383
791  2023-11-28 13:01:35.662260
792  2023-11-28 13:01:35.694175
793  2023-11-28 13:01:35.726090
794  2023-11-28 13:01:35.758034
795  2023-11-28 13:01:35.789963
796  2023-11-28 13:01:35.821868
797  2023-11-28 13:01:35.853786
798  2023-11-28 13:01:35.885697
799  2023-11-28 13:01:35.917577
800  2023-11-28 13:01:35.965489
801  2023-11-28 13:01:35.998360
802  2023-11-28 13:01:36.030276
803  2023-11-28 13:01:36.062191
804  2023-11-28 13:01:36.094136
805  2023-11-28 13:01:36.126054
806  2023-11-28 13:01:36.157972
807  2023-11-28 13:01:36.189850
808  2023-11-28 13:01:36.221763
809  2023-11-28 13:01:36.253728
810  2023-11-28 13:01:36.285627
811  2023-11-28 13:01:36.317542
812  2023-11-28 13:01:36.366409
813  2023-11-28 13:01:36.398299
814  2023-11-28 13:01:36.430206
815  2023-11-28 13:01:36.462171
816  2023-11-28 13:01:36.494066
817  2023-11-28 13:01:36.525952
818  2023-11-28 13:01:36.557866
819  2023-11-28 13:01:36.621696
820  2023-11-28 13:01:36.627712
821  2023-11-28 13:01:36.653643
822  2023-11-28 13:01:36.685525
823  2023-11-28 13:01:36.718435
824  2023-11-28 13:01:36.765467
825  2023-11-28 13:01:36.798383
826  2023-11-28 13:01:36.830291
827  2023-11-28 13:01:36.862207
828  2023-11-28 13:01:36.894120
829  2023-11-28 13:01:36.926144
830  2023-11-28 13:01:36.958105
831  2023-11-28 13:01:36.990154
832  2023-11-28 13:01:37.022067
833  2023-11-28 13:01:37.053984
834  2023-11-28 13:01:37.085949
835  2023-11-28 13:01:37.117868
836  2023-11-28 13:01:37.165786
837  2023-11-28 13:01:37.197728
838  2023-11-28 13:01:37.230698
839  2023-11-28 13:01:37.261652
840  2023-11-28 13:01:37.293658
841  2023-11-28 13:01:37.326558
842  2023-11-28 13:01:37.358443
843  2023-11-28 13:01:37.390308
844  2023-11-28 13:01:37.422247
845  2023-11-28 13:01:37.454167
846  2023-11-28 13:01:37.487096
847  2023-11-28 13:01:37.517966
848  2023-11-28 13:01:37.565840
849  2023-11-28 13:01:37.597788
850  2023-11-28 13:01:37.629669
851  2023-11-28 13:01:37.662581
852  2023-11-28 13:01:37.729403
853  2023-11-28 13:01:37.758359
854  2023-11-28 13:01:37.790240
855  2023-11-28 13:01:37.822154
856  2023-11-28 13:01:37.854068
857  2023-11-28 13:01:37.886042
858  2023-11-28 13:01:37.933914
859  2023-11-28 13:01:37.965835
860  2023-11-28 13:01:37.997758
861  2023-11-28 13:01:38.029814
862  2023-11-28 13:01:38.062725
863  2023-11-28 13:01:38.093735
864  2023-11-28 13:01:38.125709
865  2023-11-28 13:01:38.158430
866  2023-11-28 13:01:38.190335
867  2023-11-28 13:01:38.222336
868  2023-11-28 13:01:38.254269
869  2023-11-28 13:01:38.286274
870  2023-11-28 13:01:38.334229
871  2023-11-28 13:01:38.366176
872  2023-11-28 13:01:38.398150
873  2023-11-28 13:01:38.430114
874  2023-11-28 13:01:38.461994
875  2023-11-28 13:01:38.493945
876  2023-11-28 13:01:38.525979
877  2023-11-28 13:01:38.557988
878  2023-11-28 13:01:38.589871
879  2023-11-28 13:01:38.621830
880  2023-11-28 13:01:38.653737
881  2023-11-28 13:01:38.685649
882  2023-11-28 13:01:38.733488
883  2023-11-28 13:01:38.766399
884  2023-11-28 13:01:38.821252
885  2023-11-28 13:01:38.830229
886  2023-11-28 13:01:38.862146
887  2023-11-28 13:01:38.894059
888  2023-11-28 13:01:38.925975
889  2023-11-28 13:01:38.957923
890  2023-11-28 13:01:38.989851
891  2023-11-28 13:01:39.021767
892  2023-11-28 13:01:39.053662
893  2023-11-28 13:01:39.085591
894  2023-11-28 13:01:39.133417
895  2023-11-28 13:01:39.166375
896  2023-11-28 13:01:39.198274
897  2023-11-28 13:01:39.230189
898  2023-11-28 13:01:39.262104
899  2023-11-28 13:01:39.294002
900  2023-11-28 13:01:39.325938
901  2023-11-28 13:01:39.358458
902  2023-11-28 13:01:39.390422
903  2023-11-28 13:01:39.422370
904  2023-11-28 13:01:39.454284
905  2023-11-28 13:01:39.486221
906  2023-11-28 13:01:39.534106
907  2023-11-28 13:01:39.566022
908  2023-11-28 13:01:39.597936
909  2023-11-28 13:01:39.629889
910  2023-11-28 13:01:39.661799
911  2023-11-28 13:01:39.693841
912  2023-11-28 13:01:39.725827
913  2023-11-28 13:01:39.757787
914  2023-11-28 13:01:39.789698
915  2023-11-28 13:01:39.821706
916  2023-11-28 13:01:39.853578
917  2023-11-28 13:01:39.921437
918  2023-11-28 13:01:39.934397
919  2023-11-28 13:01:39.966277
920  2023-11-28 13:01:39.998330
921  2023-11-28 13:01:40.030246
922  2023-11-28 13:01:40.062262
923  2023-11-28 13:01:40.094210
924  2023-11-28 13:01:40.126096
925  2023-11-28 13:01:40.158073
926  2023-11-28 13:01:40.190101
927  2023-11-28 13:01:40.222112
928  2023-11-28 13:01:40.254131
929  2023-11-28 13:01:40.286122
930  2023-11-28 13:01:40.333969
931  2023-11-28 13:01:40.365993
932  2023-11-28 13:01:40.397891
933  2023-11-28 13:01:40.429909
934  2023-11-28 13:01:40.461905
935  2023-11-28 13:01:40.493811
936  2023-11-28 13:01:40.525726
937  2023-11-28 13:01:40.557677
938  2023-11-28 13:01:40.589592
939  2023-11-28 13:01:40.621474
940  2023-11-28 13:01:40.654427
941  2023-11-28 13:01:40.686332
942  2023-11-28 13:01:40.734172
943  2023-11-28 13:01:40.766121
944  2023-11-28 13:01:40.798162
945  2023-11-28 13:01:40.830072
946  2023-11-28 13:01:40.861990
947  2023-11-28 13:01:40.893871
948  2023-11-28 13:01:40.925833
949  2023-11-28 13:01:40.957699
950  2023-11-28 13:01:41.023525
951  2023-11-28 13:01:41.054442
952  2023-11-28 13:01:41.086407
953  2023-11-28 13:01:41.134227
954  2023-11-28 13:01:41.166235
955  2023-11-28 13:01:41.198249
956  2023-11-28 13:01:41.229882
957  2023-11-28 13:01:41.261727
958  2023-11-28 13:01:41.293642
959  2023-11-28 13:01:41.325555
960  2023-11-28 13:01:41.358504
961  2023-11-28 13:01:41.390385
962  2023-11-28 13:01:41.422333
963  2023-11-28 13:01:41.454295
964  2023-11-28 13:01:41.486235
965  2023-11-28 13:01:41.534105
966  2023-11-28 13:01:41.566015
967  2023-11-28 13:01:41.597963
968  2023-11-28 13:01:41.629878
969  2023-11-28 13:01:41.661794
970  2023-11-28 13:01:41.694757
971  2023-11-28 13:01:41.725673
972  2023-11-28 13:01:41.757646
973  2023-11-28 13:01:41.789503
974  2023-11-28 13:01:41.822458
975  2023-11-28 13:01:41.854362
976  2023-11-28 13:01:41.902238
977  2023-11-28 13:01:41.934116
978  2023-11-28 13:01:41.966156
979  2023-11-28 13:01:41.998076
980  2023-11-28 13:01:42.030025
981  2023-11-28 13:01:42.061981
982  2023-11-28 13:01:42.134788
983  2023-11-28 13:01:42.157760
984  2023-11-28 13:01:42.189641
985  2023-11-28 13:01:42.221555
986  2023-11-28 13:01:42.253470
987  2023-11-28 13:01:42.301419
988  2023-11-28 13:01:42.334331
989  2023-11-28 13:01:42.366245
990  2023-11-28 13:01:42.398198
991  2023-11-28 13:01:42.430075
992  2023-11-28 13:01:42.462025
993  2023-11-28 13:01:42.493946
994  2023-11-28 13:01:42.525867
995  2023-11-28 13:01:42.557788
996  2023-11-28 13:01:42.589684
997  2023-11-28 13:01:42.621732
998  2023-11-28 13:01:42.653596
999  2023-11-28 13:01:42.701467
1000  2023-11-28 13:01:42.734380
1001  2023-11-28 13:01:42.766311
1002  2023-11-28 13:01:42.798211
1003  2023-11-28 13:01:42.830177
1004  2023-11-28 13:01:42.862151
1005  2023-11-28 13:01:42.894053
1006  2023-11-28 13:01:42.926003
1007  2023-11-28 13:01:42.957924
1008  2023-11-28 13:01:42.989919
1009  2023-11-28 13:01:43.021819
1010  2023-11-28 13:01:43.053790
1011  2023-11-28 13:01:43.101580
1012  2023-11-28 13:01:43.134492
1013  2023-11-28 13:01:43.166407
1014  2023-11-28 13:01:43.244199
1015  2023-11-28 13:01:43.262152
1016  2023-11-28 13:01:43.294067
1017  2023-11-28 13:01:43.326026
1018  2023-11-28 13:01:43.357895
1019  2023-11-28 13:01:43.389844
1020  2023-11-28 13:01:43.421758
1021  2023-11-28 13:01:43.453641
1022  2023-11-28 13:01:43.501511
1023  2023-11-28 13:01:43.533426
1024  2023-11-28 13:01:43.566373
1025  2023-11-28 13:01:43.598289
1026  2023-11-28 13:01:43.630203
1027  2023-11-28 13:01:43.662082
1028  2023-11-28 13:01:43.693998
1029  2023-11-28 13:01:43.725938
1030  2023-11-28 13:01:43.757871
1031  2023-11-28 13:01:43.789824
1032  2023-11-28 13:01:43.821783
1033  2023-11-28 13:01:43.853655
1034  2023-11-28 13:01:43.901559
1035  2023-11-28 13:01:43.933439
1036  2023-11-28 13:01:43.966351
1037  2023-11-28 13:01:43.998315
1038  2023-11-28 13:01:44.030308
1039  2023-11-28 13:01:44.062219
1040  2023-11-28 13:01:44.094108
1041  2023-11-28 13:01:44.126051
1042  2023-11-28 13:01:44.157971
1043  2023-11-28 13:01:44.189848
1044  2023-11-28 13:01:44.221798
1045  2023-11-28 13:01:44.253712
1046  2023-11-28 13:01:44.302546
1047  2023-11-28 13:01:44.365410
1048  2023-11-28 13:01:44.370364
1049  2023-11-28 13:01:44.399333
1050  2023-11-28 13:01:44.430360
1051  2023-11-28 13:01:44.462270
1052  2023-11-28 13:01:44.494205
1053  2023-11-28 13:01:44.526222
1054  2023-11-28 13:01:44.559122
1055  2023-11-28 13:01:44.590028
1056  2023-11-28 13:01:44.622944
1057  2023-11-28 13:01:44.654880
1058  2023-11-28 13:01:44.702856
1059  2023-11-28 13:01:44.734877
1060  2023-11-28 13:01:44.766831
1061  2023-11-28 13:01:44.798742
1062  2023-11-28 13:01:44.830652
1063  2023-11-28 13:01:44.862609
1064  2023-11-28 13:01:44.894530
1065  2023-11-28 13:01:44.926449
1066  2023-11-28 13:01:44.958311
1067  2023-11-28 13:01:44.990381
1068  2023-11-28 13:01:45.022258
1069  2023-11-28 13:01:45.054280
1070  2023-11-28 13:01:45.102344
1071  2023-11-28 13:01:45.134385
1072  2023-11-28 13:01:45.166294
1073  2023-11-28 13:01:45.198181
1074  2023-11-28 13:01:45.230097
1075  2023-11-28 13:01:45.262038
1076  2023-11-28 13:01:45.293927
1077  2023-11-28 13:01:45.325881
1078  2023-11-28 13:01:45.357754
1079  2023-11-28 13:01:45.419590
1080  2023-11-28 13:01:45.504362
1081  2023-11-28 13:01:45.534283
1082  2023-11-28 13:01:45.566198
1083  2023-11-28 13:01:45.598113
1084  2023-11-28 13:01:45.630062
1085  2023-11-28 13:01:45.661992
1086  2023-11-28 13:01:45.693927
1087  2023-11-28 13:01:45.726755
1088  2023-11-28 13:01:45.757673
1089  2023-11-28 13:01:45.789640
1090  2023-11-28 13:01:45.821606
1091  2023-11-28 13:01:45.869547
1092  2023-11-28 13:01:45.901510
1093  2023-11-28 13:01:45.934423
1094  2023-11-28 13:01:45.966381
1095  2023-11-28 13:01:45.998288
1096  2023-11-28 13:01:46.030320
1097  2023-11-28 13:01:46.062219
1098  2023-11-28 13:01:46.094111
1099  2023-11-28 13:01:46.126025
1100  2023-11-28 13:01:46.157940
1101  2023-11-28 13:01:46.190883
1102  2023-11-28 13:01:46.222800
1103  2023-11-28 13:01:46.270670
1104  2023-11-28 13:01:46.301557
1105  2023-11-28 13:01:46.334468
1106  2023-11-28 13:01:46.366382
1107  2023-11-28 13:01:46.398297
1108  2023-11-28 13:01:46.430268
1109  2023-11-28 13:01:46.462169
1110  2023-11-28 13:01:46.494978
1111  2023-11-28 13:01:46.527038
1112  2023-11-28 13:01:46.558878
1113  2023-11-28 13:01:46.589829
1114  2023-11-28 13:01:46.621745
1115  2023-11-28 13:01:46.669622
1116  2023-11-28 13:01:46.701497
1117  2023-11-28 13:01:46.734408
1118  2023-11-28 13:01:46.765560
1119  2023-11-28 13:01:46.798474
1120  2023-11-28 13:01:46.830441
1121  2023-11-28 13:01:46.862335
1122  2023-11-28 13:01:46.894218
1123  2023-11-28 13:01:46.926133
1124  2023-11-28 13:01:46.958079
1125  2023-11-28 13:01:46.990447
1126  2023-11-28 13:01:47.022392
1127  2023-11-28 13:01:47.070265
1128  2023-11-28 13:01:47.102147
1129  2023-11-28 13:01:47.134063
1130  2023-11-28 13:01:47.166008
1131  2023-11-28 13:01:47.197922
1132  2023-11-28 13:01:47.229843
1133  2023-11-28 13:01:47.261909
1134  2023-11-28 13:01:47.294788
1135  2023-11-28 13:01:47.325706
1136  2023-11-28 13:01:47.358668
1137  2023-11-28 13:01:47.389536
1138  2023-11-28 13:01:47.422498
1139  2023-11-28 13:01:47.470316
1140  2023-11-28 13:01:47.592989
1141  2023-11-28 13:01:47.600006
1142  2023-11-28 13:01:47.629891
1143  2023-11-28 13:01:47.661954
1144  2023-11-28 13:01:47.694915
1145  2023-11-28 13:01:47.726798
1146  2023-11-28 13:01:47.757723
1147  2023-11-28 13:01:47.789707
1148  2023-11-28 13:01:47.821620
1149  2023-11-28 13:01:47.869534
1150  2023-11-28 13:01:47.901548
1151  2023-11-28 13:01:47.933471
1152  2023-11-28 13:01:47.965484
1153  2023-11-28 13:01:47.998443
1154  2023-11-28 13:01:48.030386
1155  2023-11-28 13:01:48.062308
1156  2023-11-28 13:01:48.094219
1157  2023-11-28 13:01:48.126131
1158  2023-11-28 13:01:48.158039
1159  2023-11-28 13:01:48.189995
1160  2023-11-28 13:01:48.222018
1161  2023-11-28 13:01:48.269902
1162  2023-11-28 13:01:48.301814
1163  2023-11-28 13:01:48.333694
1164  2023-11-28 13:01:48.365639
1165  2023-11-28 13:01:48.398522
1166  2023-11-28 13:01:48.430437
1167  2023-11-28 13:01:48.462372
1168  2023-11-28 13:01:48.494299
1169  2023-11-28 13:01:48.526213
1170  2023-11-28 13:01:48.558126
1171  2023-11-28 13:01:48.590044
1172  2023-11-28 13:01:48.621974
1173  2023-11-28 13:01:48.669827
1174  2023-11-28 13:01:48.701769
1175  2023-11-28 13:01:48.733658
1176  2023-11-28 13:01:48.765651
1177  2023-11-28 13:01:48.797634
1178  2023-11-28 13:01:48.829724
1179  2023-11-28 13:01:48.861628
1180  2023-11-28 13:01:48.894540
1181  2023-11-28 13:01:48.926452
1182  2023-11-28 13:01:48.958374
1183  2023-11-28 13:01:48.990249
1184  2023-11-28 13:01:49.022324
1185  2023-11-28 13:01:49.070066
1186  2023-11-28 13:01:49.101975
1187  2023-11-28 13:01:49.133875
1188  2023-11-28 13:01:49.165826
1189  2023-11-28 13:01:49.198726
1190  2023-11-28 13:01:49.229609
1191  2023-11-28 13:01:49.261823
1192  2023-11-28 13:01:49.293749
1193  2023-11-28 13:01:49.326672
1194  2023-11-28 13:01:49.358634
1195  2023-11-28 13:01:49.389551
1196  2023-11-28 13:01:49.438426
1197  2023-11-28 13:01:49.470363
1198  2023-11-28 13:01:49.502298
1199  2023-11-28 13:01:49.534288
1200  2023-11-28 13:01:49.566204
1201  2023-11-28 13:01:49.598121
1202  2023-11-28 13:01:49.630113
1203  2023-11-28 13:01:49.662071
1204  2023-11-28 13:01:49.693951
1205  2023-11-28 13:01:49.725904
1206  2023-11-28 13:01:49.757819
1207  2023-11-28 13:01:49.789720
1208  2023-11-28 13:01:49.837661
1209  2023-11-28 13:01:49.869646
1210  2023-11-28 13:01:49.901562
1211  2023-11-28 13:01:49.933488
1212  2023-11-28 13:01:49.965502
1213  2023-11-28 13:01:49.998371
1214  2023-11-28 13:01:50.030287
1215  2023-11-28 13:01:50.061582
1216  2023-11-28 13:01:50.094606
1217  2023-11-28 13:01:50.126568
1218  2023-11-28 13:01:50.158521
1219  2023-11-28 13:01:50.190434
1220  2023-11-28 13:01:50.238301
1221  2023-11-28 13:01:50.270220
1222  2023-11-28 13:01:50.302130
1223  2023-11-28 13:01:50.334180
1224  2023-11-28 13:01:50.366157
1225  2023-11-28 13:01:50.399085
1226  2023-11-28 13:01:50.429952
1227  2023-11-28 13:01:50.461866
1228  2023-11-28 13:01:50.493817
1229  2023-11-28 13:01:50.525748
1230  2023-11-28 13:01:50.557735
1231  2023-11-28 13:01:50.590649
1232  2023-11-28 13:01:50.637558
1233  2023-11-28 13:01:50.669494
1234  2023-11-28 13:01:50.702348
1235  2023-11-28 13:01:50.734319
1236  2023-11-28 13:01:50.766209
1237  2023-11-28 13:01:50.798093
1238  2023-11-28 13:01:50.830007
1239  2023-11-28 13:01:50.862955
1240  2023-11-28 13:01:50.893848
1241  2023-11-28 13:01:50.925790
1242  2023-11-28 13:01:50.957589
1243  2023-11-28 13:01:50.990712
1244  2023-11-28 13:01:51.037674
1245  2023-11-28 13:01:51.069543
1246  2023-11-28 13:01:51.101460
1247  2023-11-28 13:01:51.134422
1248  2023-11-28 13:01:51.166367
1249  2023-11-28 13:01:51.198354
1250  2023-11-28 13:01:51.230407
1251  2023-11-28 13:01:51.262308
1252  2023-11-28 13:01:51.294285
1253  2023-11-28 13:01:51.326280
1254  2023-11-28 13:01:51.358243
1255  2023-11-28 13:01:51.390153
1256  2023-11-28 13:01:51.438029
1257  2023-11-28 13:01:51.470003
1258  2023-11-28 13:01:51.501918
1259  2023-11-28 13:01:51.533934
1260  2023-11-28 13:01:51.565841
1261  2023-11-28 13:01:51.597750
1262  2023-11-28 13:01:51.629633
1263  2023-11-28 13:01:51.661589
1264  2023-11-28 13:01:51.694501
1265  2023-11-28 13:01:51.725532
1266  2023-11-28 13:01:51.758439
1267  2023-11-28 13:01:51.790369
1268  2023-11-28 13:01:51.838235
1269  2023-11-28 13:01:51.870236
1270  2023-11-28 13:01:51.902210
1271  2023-11-28 13:01:51.934134
1272  2023-11-28 13:01:51.966016
1273  2023-11-28 13:01:51.997970
1274  2023-11-28 13:01:52.029876
1275  2023-11-28 13:01:52.061789
1276  2023-11-28 13:01:52.093704
1277  2023-11-28 13:01:52.125616
1278  2023-11-28 13:01:52.157506
1279  2023-11-28 13:01:52.190460
1280  2023-11-28 13:01:52.238322
1281  2023-11-28 13:01:52.270231
1282  2023-11-28 13:01:52.302150
1283  2023-11-28 13:01:52.334066
1284  2023-11-28 13:01:52.365989
1285  2023-11-28 13:01:52.397953
1286  2023-11-28 13:01:52.429949
1287  2023-11-28 13:01:52.461869
1288  2023-11-28 13:01:52.493796
1289  2023-11-28 13:01:52.525689
1290  2023-11-28 13:01:52.557606
1291  2023-11-28 13:01:52.589524
1292  2023-11-28 13:01:52.638388
1293  2023-11-28 13:01:52.670273
1294  2023-11-28 13:01:52.702188
1295  2023-11-28 13:01:52.734101
1296  2023-11-28 13:01:52.766016
1297  2023-11-28 13:01:52.797955
1298  2023-11-28 13:01:52.829889
1299  2023-11-28 13:01:52.861793
1300  2023-11-28 13:01:52.894673
1301  2023-11-28 13:01:52.925623
1302  2023-11-28 13:01:52.957552
1303  2023-11-28 13:01:53.006383
1304  2023-11-28 13:01:53.038321
1305  2023-11-28 13:01:53.070236
1306  2023-11-28 13:01:53.102172
1307  2023-11-28 13:01:53.134032
1308  2023-11-28 13:01:53.165947
1309  2023-11-28 13:01:53.197898
1310  2023-11-28 13:01:53.229777
1311  2023-11-28 13:01:53.261692
1312  2023-11-28 13:01:53.294631
1313  2023-11-28 13:01:53.325547
1314  2023-11-28 13:01:53.358531
1315  2023-11-28 13:01:53.405521
1316  2023-11-28 13:01:53.437555
1317  2023-11-28 13:01:53.469475
1318  2023-11-28 13:01:53.501474
1319  2023-11-28 13:01:53.534354
1320  2023-11-28 13:01:53.566305
1321  2023-11-28 13:01:53.598215
1322  2023-11-28 13:01:53.630292
1323  2023-11-28 13:01:53.662294
1324  2023-11-28 13:01:53.694203
1325  2023-11-28 13:01:53.726117
1326  2023-11-28 13:01:53.758033
1327  2023-11-28 13:01:53.805911
1328  2023-11-28 13:01:53.837821
1329  2023-11-28 13:01:53.869734
1330  2023-11-28 13:01:53.901647
1331  2023-11-28 13:01:53.933665
1332  2023-11-28 13:01:53.965547
1333  2023-11-28 13:01:53.997554
1334  2023-11-28 13:01:54.030466
1335  2023-11-28 13:01:54.062439
1336  2023-11-28 13:01:54.094296
1337  2023-11-28 13:01:54.126279
1338  2023-11-28 13:01:54.158197
1339  2023-11-28 13:01:54.206068
1340  2023-11-28 13:01:54.237993
1341  2023-11-28 13:01:54.270024
1342  2023-11-28 13:01:54.301938
1343  2023-11-28 13:01:54.333873
1344  2023-11-28 13:01:54.365769
1345  2023-11-28 13:01:54.397699
1346  2023-11-28 13:01:54.429591
1347  2023-11-28 13:01:54.461552
1348  2023-11-28 13:01:54.494426
1349  2023-11-28 13:01:54.526342
1350  2023-11-28 13:01:54.558252
1351  2023-11-28 13:01:54.606123
1352  2023-11-28 13:01:54.638006
1353  2023-11-28 13:01:54.669950
1354  2023-11-28 13:01:54.701881
1355  2023-11-28 13:01:54.733795
1356  2023-11-28 13:01:54.765768
1357  2023-11-28 13:01:54.797757
1358  2023-11-28 13:01:54.829631
1359  2023-11-28 13:01:54.861512
1360  2023-11-28 13:01:54.893457
1361  2023-11-28 13:01:54.926386
1362  2023-11-28 13:01:54.958286
1363  2023-11-28 13:01:55.006125
1364  2023-11-28 13:01:55.038040
1365  2023-11-28 13:01:55.069989
1366  2023-11-28 13:01:55.101907
1367  2023-11-28 13:01:55.133821
1368  2023-11-28 13:01:55.165699
1369  2023-11-28 13:01:55.197621
1370  2023-11-28 13:01:55.229562
1371  2023-11-28 13:01:55.261477
1372  2023-11-28 13:01:55.294398
1373  2023-11-28 13:01:55.326301
1374  2023-11-28 13:01:55.358184
1375  2023-11-28 13:01:55.406056
1376  2023-11-28 13:01:55.438144
1377  2023-11-28 13:01:55.470089
1378  2023-11-28 13:01:55.502004
1379  2023-11-28 13:01:55.533928
1380  2023-11-28 13:01:55.565843
1381  2023-11-28 13:01:55.597720
1382  2023-11-28 13:01:55.629661
1383  2023-11-28 13:01:55.662577
1384  2023-11-28 13:01:55.694465
1385  2023-11-28 13:01:55.726373
1386  2023-11-28 13:01:55.758368
1387  2023-11-28 13:01:55.806314
1388  2023-11-28 13:01:55.838229
1389  2023-11-28 13:01:55.870143
1390  2023-11-28 13:01:55.902089
1391  2023-11-28 13:01:55.934004
1392  2023-11-28 13:01:55.965888
1393  2023-11-28 13:01:55.997837
1394  2023-11-28 13:01:56.029753
1395  2023-11-28 13:01:56.061674
1396  2023-11-28 13:01:56.093694
1397  2023-11-28 13:01:56.125600
1398  2023-11-28 13:01:56.157509
1399  2023-11-28 13:01:56.206337
1400  2023-11-28 13:01:56.238283
1401  2023-11-28 13:01:56.270203
1402  2023-11-28 13:01:56.302081
1403  2023-11-28 13:01:56.333996
1404  2023-11-28 13:01:56.365910
1405  2023-11-28 13:01:56.397889
1406  2023-11-28 13:01:56.430783
1407  2023-11-28 13:01:56.461655
1408  2023-11-28 13:01:56.493603
1409  2023-11-28 13:01:56.525606
1410  2023-11-28 13:01:56.557643
1411  2023-11-28 13:01:56.605514
1412  2023-11-28 13:01:56.638380
1413  2023-11-28 13:01:56.670295
1414  2023-11-28 13:01:56.702210
1415  2023-11-28 13:01:56.734157
1416  2023-11-28 13:01:56.766074
1417  2023-11-28 13:01:56.797992
1418  2023-11-28 13:01:56.829911
1419  2023-11-28 13:01:56.861786
1420  2023-11-28 13:01:56.894734
1421  2023-11-28 13:01:56.925637
1422  2023-11-28 13:01:56.973484
1423  2023-11-28 13:01:57.005423
1424  2023-11-28 13:01:57.038311
1425  2023-11-28 13:01:57.070259
1426  2023-11-28 13:01:57.102141
1427  2023-11-28 13:01:57.134055
1428  2023-11-28 13:01:57.165970
1429  2023-11-28 13:01:57.197926
1430  2023-11-28 13:01:57.229801
1431  2023-11-28 13:01:57.261748
1432  2023-11-28 13:01:57.293655
1433  2023-11-28 13:01:57.325577
1434  2023-11-28 13:01:57.374412
1435  2023-11-28 13:01:57.406327
1436  2023-11-28 13:01:57.438242
1437  2023-11-28 13:01:57.470157
1438  2023-11-28 13:01:57.502071
1439  2023-11-28 13:01:57.533986
1440  2023-11-28 13:01:57.565901
1441  2023-11-28 13:01:57.597850
1442  2023-11-28 13:01:57.629909
1443  2023-11-28 13:01:57.661804
1444  2023-11-28 13:01:57.693721
1445  2023-11-28 13:01:57.725636
1446  2023-11-28 13:01:57.773596
1447  2023-11-28 13:01:57.806508
1448  2023-11-28 13:01:57.837425
1449  2023-11-28 13:01:57.870337
1450  2023-11-28 13:01:57.902252
1451  2023-11-28 13:01:57.934167
1452  2023-11-28 13:01:57.966081
1453  2023-11-28 13:01:57.998022
1454  2023-11-28 13:01:58.029912
1455  2023-11-28 13:01:58.062824
1456  2023-11-28 13:01:58.093775
1457  2023-11-28 13:01:58.125712
1458  2023-11-28 13:01:58.173527
1459  2023-11-28 13:01:58.205442
1460  2023-11-28 13:01:58.238384
1461  2023-11-28 13:01:58.270320
1462  2023-11-28 13:01:58.302183
1463  2023-11-28 13:01:58.334098
1464  2023-11-28 13:01:58.366045
1465  2023-11-28 13:01:58.397959
1466  2023-11-28 13:01:58.429884
1467  2023-11-28 13:01:58.461808
1468  2023-11-28 13:01:58.493713
1469  2023-11-28 13:01:58.525633
1470  2023-11-28 13:01:58.573495
1471  2023-11-28 13:01:58.606370
1472  2023-11-28 13:01:58.638357
1473  2023-11-28 13:01:58.670281
1474  2023-11-28 13:01:58.702222
1475  2023-11-28 13:01:58.734154
1476  2023-11-28 13:01:58.766016
1477  2023-11-28 13:01:58.797961
1478  2023-11-28 13:01:58.829846
1479  2023-11-28 13:01:58.861796
1480  2023-11-28 13:01:58.893736
1481  2023-11-28 13:01:58.925590
1482  2023-11-28 13:01:58.973461
1483  2023-11-28 13:01:59.006373
1484  2023-11-28 13:01:59.038288
1485  2023-11-28 13:01:59.070202
1486  2023-11-28 13:01:59.102117
1487  2023-11-28 13:01:59.134032
1488  2023-11-28 13:01:59.165946
1489  2023-11-28 13:01:59.197872
1490  2023-11-28 13:01:59.229818
1491  2023-11-28 13:01:59.261723
1492  2023-11-28 13:01:59.293648
1493  2023-11-28 13:01:59.325526
1494  2023-11-28 13:01:59.374389
1495  2023-11-28 13:01:59.406304
1496  2023-11-28 13:01:59.438218
1497  2023-11-28 13:01:59.470133
1498  2023-11-28 13:01:59.502048
1499  2023-11-28 13:01:59.533963
1500  2023-11-28 13:01:59.565877
1501  2023-11-28 13:01:59.597838
1502  2023-11-28 13:01:59.629762
1503  2023-11-28 13:01:59.661729
1504  2023-11-28 13:01:59.693606
1505  2023-11-28 13:01:59.725518
1506  2023-11-28 13:01:59.774387
1507  2023-11-28 13:01:59.805395
1508  2023-11-28 13:01:59.838307
1509  2023-11-28 13:01:59.870222
1510  2023-11-28 13:01:59.902137
1511  2023-11-28 13:01:59.934052
1512  2023-11-28 13:01:59.965966
1513  2023-11-28 13:01:59.997911
1514  2023-11-28 13:02:00.029830
1515  2023-11-28 13:02:00.062733
1516  2023-11-28 13:02:00.095756
1517  2023-11-28 13:02:00.125644
1518  2023-11-28 13:02:00.173515
1519  2023-11-28 13:02:00.206440
1520  2023-11-28 13:02:00.238343
1521  2023-11-28 13:02:00.270257
1522  2023-11-28 13:02:00.302171
1523  2023-11-28 13:02:00.334086
1524  2023-11-28 13:02:00.366001
1525  2023-11-28 13:02:00.398913
1526  2023-11-28 13:02:00.429831
1527  2023-11-28 13:02:00.461792
1528  2023-11-28 13:02:00.493704
1529  2023-11-28 13:02:00.541531
1530  2023-11-28 13:02:00.573529
1531  2023-11-28 13:02:00.605483
1532  2023-11-28 13:02:00.638356
1533  2023-11-28 13:02:00.670271
1534  2023-11-28 13:02:00.702186
1535  2023-11-28 13:02:00.734131
1536  2023-11-28 13:02:00.766015
1537  2023-11-28 13:02:00.797976
1538  2023-11-28 13:02:00.829846
1539  2023-11-28 13:02:00.861760
1540  2023-11-28 13:02:00.893674
1541  2023-11-28 13:02:00.941546
1542  2023-11-28 13:02:00.973460
1543  2023-11-28 13:02:01.005375
1544  2023-11-28 13:02:01.038287
1545  2023-11-28 13:02:01.070202
1546  2023-11-28 13:02:01.102116
1547  2023-11-28 13:02:01.134031
1548  2023-11-28 13:02:01.165946
1549  2023-11-28 13:02:01.197896
1550  2023-11-28 13:02:01.229829
1551  2023-11-28 13:02:01.261726
1552  2023-11-28 13:02:01.293606
1553  2023-11-28 13:02:01.341476
1554  2023-11-28 13:02:01.374388
1555  2023-11-28 13:02:01.406303
1556  2023-11-28 13:02:01.438218
1557  2023-11-28 13:02:01.470133
1558  2023-11-28 13:02:01.502047
1559  2023-11-28 13:02:01.533962
1560  2023-11-28 13:02:01.565877
1561  2023-11-28 13:02:01.597841
1562  2023-11-28 13:02:01.629711
1563  2023-11-28 13:02:01.661621
1564  2023-11-28 13:02:01.693643
1565  2023-11-28 13:02:01.741513
1566  2023-11-28 13:02:01.774426
1567  2023-11-28 13:02:01.806340
1568  2023-11-28 13:02:01.838255
1569  2023-11-28 13:02:01.870170
1570  2023-11-28 13:02:01.902085
1571  2023-11-28 13:02:01.933999
1572  2023-11-28 13:02:01.965914
1573  2023-11-28 13:02:01.997831
1574  2023-11-28 13:02:02.029844
1575  2023-11-28 13:02:02.061784
1576  2023-11-28 13:02:02.093706
1577  2023-11-28 13:02:02.141764
1578  2023-11-28 13:02:02.173704
1579  2023-11-28 13:02:02.205648
1580  2023-11-28 13:02:02.237530
1581  2023-11-28 13:02:02.270494
1582  2023-11-28 13:02:02.301502
1583  2023-11-28 13:02:02.333417
1584  2023-11-28 13:02:02.366351
1585  2023-11-28 13:02:02.398214
1586  2023-11-28 13:02:02.430130
1587  2023-11-28 13:02:02.462044
1588  2023-11-28 13:02:02.493958
1589  2023-11-28 13:02:02.541873
1590  2023-11-28 13:02:02.573822
1591  2023-11-28 13:02:02.605739
1592  2023-11-28 13:02:02.637617
1593  2023-11-28 13:02:02.669532
1594  2023-11-28 13:02:02.701482
1595  2023-11-28 13:02:02.734359
1596  2023-11-28 13:02:02.766273
1597  2023-11-28 13:02:02.798228
1598  2023-11-28 13:02:02.830136
1599  2023-11-28 13:02:02.862018
1600  2023-11-28 13:02:02.893972
1601  2023-11-28 13:02:02.941804
1602  2023-11-28 13:02:02.973719
1603  2023-11-28 13:02:03.005779
1604  2023-11-28 13:02:03.037693
1605  2023-11-28 13:02:03.069646
1606  2023-11-28 13:02:03.101561
1607  2023-11-28 13:02:03.134473
1608  2023-11-28 13:02:03.166387
1609  2023-11-28 13:02:03.198336
1610  2023-11-28 13:02:03.230262
1611  2023-11-28 13:02:03.262133
1612  2023-11-28 13:02:03.294049
1613  2023-11-28 13:02:03.342009
1614  2023-11-28 13:02:03.374070
1615  2023-11-28 13:02:03.405985
1616  2023-11-28 13:02:03.437900
1617  2023-11-28 13:02:03.469814
1618  2023-11-28 13:02:03.501729
1619  2023-11-28 13:02:03.533644
1620  2023-11-28 13:02:03.565561
1621  2023-11-28 13:02:03.597508
1622  2023-11-28 13:02:03.630386
1623  2023-11-28 13:02:03.662358
1624  2023-11-28 13:02:03.694365
1625  2023-11-28 13:02:03.742266
1626  2023-11-28 13:02:03.774211
1627  2023-11-28 13:02:03.806098
1628  2023-11-28 13:02:03.838054
1629  2023-11-28 13:02:03.869968
1630  2023-11-28 13:02:03.901997
1631  2023-11-28 13:02:03.934042
1632  2023-11-28 13:02:03.965955
1633  2023-11-28 13:02:03.997876
1634  2023-11-28 13:02:04.029863
1635  2023-11-28 13:02:04.061901
1636  2023-11-28 13:02:04.093813
1637  2023-11-28 13:02:04.141719
1638  2023-11-28 13:02:04.173634
1639  2023-11-28 13:02:04.205655
1640  2023-11-28 13:02:04.238567
1641  2023-11-28 13:02:04.269484
1642  2023-11-28 13:02:04.302396
1643  2023-11-28 13:02:04.334420
1644  2023-11-28 13:02:04.366378
1645  2023-11-28 13:02:04.398328
1646  2023-11-28 13:02:04.430207
1647  2023-11-28 13:02:04.462159
1648  2023-11-28 13:02:04.509994
1649  2023-11-28 13:02:04.541908
1650  2023-11-28 13:02:04.573870
1651  2023-11-28 13:02:04.605870
1652  2023-11-28 13:02:04.637771
1653  2023-11-28 13:02:04.669686
1654  2023-11-28 13:02:04.701601
1655  2023-11-28 13:02:04.734513
1656  2023-11-28 13:02:04.766462
1657  2023-11-28 13:02:04.798377
1658  2023-11-28 13:02:04.830314
1659  2023-11-28 13:02:04.862312
1660  2023-11-28 13:02:04.910307
1661  2023-11-28 13:02:04.942239
1662  2023-11-28 13:02:04.974139
1663  2023-11-28 13:02:05.006051
1664  2023-11-28 13:02:05.038084
1665  2023-11-28 13:02:05.070001
1666  2023-11-28 13:02:05.101916
1667  2023-11-28 13:02:05.133831
1668  2023-11-28 13:02:05.165743
1669  2023-11-28 13:02:05.198657
1670  2023-11-28 13:02:05.229573
1671  2023-11-28 13:02:05.261520
1672  2023-11-28 13:02:05.310390
1673  2023-11-28 13:02:05.342271
1674  2023-11-28 13:02:05.374186
1675  2023-11-28 13:02:05.406177
1676  2023-11-28 13:02:05.438170
1677  2023-11-28 13:02:05.470090
1678  2023-11-28 13:02:05.502005
1679  2023-11-28 13:02:05.534026
1680  2023-11-28 13:02:05.566036
1681  2023-11-28 13:02:05.597952
1682  2023-11-28 13:02:05.629956
1683  2023-11-28 13:02:05.661874
1684  2023-11-28 13:02:05.709780
1685  2023-11-28 13:02:05.741818
1686  2023-11-28 13:02:05.773726
1687  2023-11-28 13:02:05.805666
1688  2023-11-28 13:02:05.837581
1689  2023-11-28 13:02:05.869496
1690  2023-11-28 13:02:05.901410
1691  2023-11-28 13:02:05.934322
1692  2023-11-28 13:02:05.966237
1693  2023-11-28 13:02:05.998187
1694  2023-11-28 13:02:06.030112
1695  2023-11-28 13:02:06.062012
1696  2023-11-28 13:02:06.109853
1697  2023-11-28 13:02:06.141768
1698  2023-11-28 13:02:06.173682
1699  2023-11-28 13:02:06.206595
1700  2023-11-28 13:02:06.237512
1701  2023-11-28 13:02:06.270424
1702  2023-11-28 13:02:06.302339
1703  2023-11-28 13:02:06.334253
1704  2023-11-28 13:02:06.366169
1705  2023-11-28 13:02:06.398119
1706  2023-11-28 13:02:06.430115
1707  2023-11-28 13:02:06.462175
1708  2023-11-28 13:02:06.510016
1709  2023-11-28 13:02:06.541968
1710  2023-11-28 13:02:06.573991
1711  2023-11-28 13:02:06.605977
1712  2023-11-28 13:02:06.637891
1713  2023-11-28 13:02:06.670806
1714  2023-11-28 13:02:06.701720
1715  2023-11-28 13:02:06.734634
1716  2023-11-28 13:02:06.765550
1717  2023-11-28 13:02:06.797556
1718  2023-11-28 13:02:06.829500
1719  2023-11-28 13:02:06.862382
1720  2023-11-28 13:02:06.910257
1721  2023-11-28 13:02:06.942210
1722  2023-11-28 13:02:06.974158
1723  2023-11-28 13:02:07.006073
1724  2023-11-28 13:02:07.039030
1725  2023-11-28 13:02:07.070948
1726  2023-11-28 13:02:07.102860
1727  2023-11-28 13:02:07.134774
1728  2023-11-28 13:02:07.166645
1729  2023-11-28 13:02:07.198559
1730  2023-11-28 13:02:07.230511
1731  2023-11-28 13:02:07.262426
1732  2023-11-28 13:02:07.310297
1733  2023-11-28 13:02:07.342211
1734  2023-11-28 13:02:07.375148
1735  2023-11-28 13:02:07.407128
1736  2023-11-28 13:02:07.439171
1737  2023-11-28 13:02:07.470142
1738  2023-11-28 13:02:07.502057
1739  2023-11-28 13:02:07.535050
1740  2023-11-28 13:02:07.566995
1741  2023-11-28 13:02:07.597900
1742  2023-11-28 13:02:07.630811
1743  2023-11-28 13:02:07.662709
1744  2023-11-28 13:02:07.710707
1745  2023-11-28 13:02:07.742621
1746  2023-11-28 13:02:07.774537
1747  2023-11-28 13:02:07.806450
1748  2023-11-28 13:02:07.838355
1749  2023-11-28 13:02:07.870276
1750  2023-11-28 13:02:07.902203
1751  2023-11-28 13:02:07.934318
1752  2023-11-28 13:02:07.966229
1753  2023-11-28 13:02:07.998177
1754  2023-11-28 13:02:08.030214
1755  2023-11-28 13:02:08.062161
1756  2023-11-28 13:02:08.111994
1757  2023-11-28 13:02:08.141998
1758  2023-11-28 13:02:08.173998
1759  2023-11-28 13:02:08.205927
1760  2023-11-28 13:02:08.237920
1761  2023-11-28 13:02:08.270781
1762  2023-11-28 13:02:08.301696
1763  2023-11-28 13:02:08.333612
1764  2023-11-28 13:02:08.365620
1765  2023-11-28 13:02:08.397570
1766  2023-11-28 13:02:08.430502
1767  2023-11-28 13:02:08.478319
1768  2023-11-28 13:02:08.510292
1769  2023-11-28 13:02:08.542207
1770  2023-11-28 13:02:08.574122
1771  2023-11-28 13:02:08.606205
1772  2023-11-28 13:02:08.638155
1773  2023-11-28 13:02:08.670121
1774  2023-11-28 13:02:08.702016
1775  2023-11-28 13:02:08.733937
1776  2023-11-28 13:02:08.765846
1777  2023-11-28 13:02:08.798761
1778  2023-11-28 13:02:08.830674
1779  2023-11-28 13:02:08.877709
1780  2023-11-28 13:02:08.909623
1781  2023-11-28 13:02:08.942535
1782  2023-11-28 13:02:08.974574
1783  2023-11-28 13:02:09.006497
1784  2023-11-28 13:02:09.038375
1785  2023-11-28 13:02:09.070317
1786  2023-11-28 13:02:09.102200
1787  2023-11-28 13:02:09.135149
1788  2023-11-28 13:02:09.167075
1789  2023-11-28 13:02:09.199034
1790  2023-11-28 13:02:09.229935
1791  2023-11-28 13:02:09.278820
1792  2023-11-28 13:02:09.309739
1793  2023-11-28 13:02:09.341624
1794  2023-11-28 13:02:09.374564
1795  2023-11-28 13:02:09.406586
1796  2023-11-28 13:02:09.437586
1797  2023-11-28 13:02:09.470498
1798  2023-11-28 13:02:09.502413
1799  2023-11-28 13:02:09.534358
1800  2023-11-28 13:02:09.566272
1801  2023-11-28 13:02:09.599250
1802  2023-11-28 13:02:09.630200
1803  2023-11-28 13:02:09.678039
1804  2023-11-28 13:02:09.710012
1805  2023-11-28 13:02:09.742007
1806  2023-11-28 13:02:09.773923
1807  2023-11-28 13:02:09.805887
1808  2023-11-28 13:02:09.837912
1809  2023-11-28 13:02:09.869934
1810  2023-11-28 13:02:09.901850
1811  2023-11-28 13:02:09.933809
1812  2023-11-28 13:02:09.965911
1813  2023-11-28 13:02:09.998845
1814  2023-11-28 13:02:10.029791
1815  2023-11-28 13:02:10.077819
1816  2023-11-28 13:02:10.109773
1817  2023-11-28 13:02:10.141649
1818  2023-11-28 13:02:10.173599
1819  2023-11-28 13:02:10.206475
1820  2023-11-28 13:02:10.238421
1821  2023-11-28 13:02:10.270338
1822  2023-11-28 13:02:10.302217
1823  2023-11-28 13:02:10.334169
1824  2023-11-28 13:02:10.366100
1825  2023-11-28 13:02:10.399002
1826  2023-11-28 13:02:10.429877
1827  2023-11-28 13:02:10.477748
1828  2023-11-28 13:02:10.509712
1829  2023-11-28 13:02:10.541627
1830  2023-11-28 13:02:10.573526
1831  2023-11-28 13:02:10.606460
1832  2023-11-28 13:02:10.638351
1833  2023-11-28 13:02:10.670234
1834  2023-11-28 13:02:10.702100
1835  2023-11-28 13:02:10.734076
1836  2023-11-28 13:02:10.765971
1837  2023-11-28 13:02:10.798904
1838  2023-11-28 13:02:10.829820
1839  2023-11-28 13:02:10.877705
1840  2023-11-28 13:02:10.909607
1841  2023-11-28 13:02:10.941521
1842  2023-11-28 13:02:10.973441
1843  2023-11-28 13:02:11.006356
1844  2023-11-28 13:02:11.038262
1845  2023-11-28 13:02:11.070346
1846  2023-11-28 13:02:11.102260
1847  2023-11-28 13:02:11.134175
1848  2023-11-28 13:02:11.166252
1849  2023-11-28 13:02:11.198131
1850  2023-11-28 13:02:11.230046
1851  2023-11-28 13:02:11.277948
1852  2023-11-28 13:02:11.309883
1853  2023-11-28 13:02:11.341746
1854  2023-11-28 13:02:11.373696
1855  2023-11-28 13:02:11.405623
1856  2023-11-28 13:02:11.437536
1857  2023-11-28 13:02:11.470437
1858  2023-11-28 13:02:11.502348
1859  2023-11-28 13:02:11.534233
1860  2023-11-28 13:02:11.566172
1861  2023-11-28 13:02:11.599072
1862  2023-11-28 13:02:11.629980
1863  2023-11-28 13:02:11.677888
1864  2023-11-28 13:02:11.709816
1865  2023-11-28 13:02:11.741728
1866  2023-11-28 13:02:11.774635
1867  2023-11-28 13:02:11.806636
1868  2023-11-28 13:02:11.837555
1869  2023-11-28 13:02:11.869467
1870  2023-11-28 13:02:11.902353
1871  2023-11-28 13:02:11.934295
1872  2023-11-28 13:02:11.966365
1873  2023-11-28 13:02:11.998455
1874  2023-11-28 13:02:12.046234
1875  2023-11-28 13:02:12.078231
1876  2023-11-28 13:02:12.110064
1877  2023-11-28 13:02:12.141979
1878  2023-11-28 13:02:12.174264
1879  2023-11-28 13:02:12.206222
1880  2023-11-28 13:02:12.238205
1881  2023-11-28 13:02:12.270263
1882  2023-11-28 13:02:12.302148
1883  2023-11-28 13:02:12.334062
1884  2023-11-28 13:02:12.366021
1885  2023-11-28 13:02:12.397939
1886  2023-11-28 13:02:12.445809
1887  2023-11-28 13:02:12.477734
1888  2023-11-28 13:02:12.509626
1889  2023-11-28 13:02:12.541508
1890  2023-11-28 13:02:12.573456
1891  2023-11-28 13:02:12.606376
1892  2023-11-28 13:02:12.638287
1893  2023-11-28 13:02:12.670197
1894  2023-11-28 13:02:12.702123
1895  2023-11-28 13:02:12.734035
1896  2023-11-28 13:02:12.765942
1897  2023-11-28 13:02:12.797855
1898  2023-11-28 13:02:12.845736
1899  2023-11-28 13:02:12.877649
1900  2023-11-28 13:02:12.909560
1901  2023-11-28 13:02:12.941473
1902  2023-11-28 13:02:12.974351
1903  2023-11-28 13:02:13.006300
1904  2023-11-28 13:02:13.038210
1905  2023-11-28 13:02:13.070125
1906  2023-11-28 13:02:13.102011
1907  2023-11-28 13:02:13.133955
1908  2023-11-28 13:02:13.165876
1909  2023-11-28 13:02:13.198783
1910  2023-11-28 13:02:13.245659
1911  2023-11-28 13:02:13.277572
1912  2023-11-28 13:02:13.310501
1913  2023-11-28 13:02:13.342400
1914  2023-11-28 13:02:13.374328
1915  2023-11-28 13:02:13.406230
1916  2023-11-28 13:02:13.438146
1917  2023-11-28 13:02:13.470059
1918  2023-11-28 13:02:13.501972
1919  2023-11-28 13:02:13.533855
1920  2023-11-28 13:02:13.565772
1921  2023-11-28 13:02:13.597691
1922  2023-11-28 13:02:13.645593
1923  2023-11-28 13:02:13.677517
1924  2023-11-28 13:02:13.709416
1925  2023-11-28 13:02:13.742354
1926  2023-11-28 13:02:13.774245
1927  2023-11-28 13:02:13.806127
1928  2023-11-28 13:02:13.838075
1929  2023-11-28 13:02:13.869990
1930  2023-11-28 13:02:13.901913
1931  2023-11-28 13:02:13.933819
1932  2023-11-28 13:02:13.965700
1933  2023-11-28 13:02:13.997634
1934  2023-11-28 13:02:14.045487
1935  2023-11-28 13:02:14.078433
1936  2023-11-28 13:02:14.110345
1937  2023-11-28 13:02:14.142259
1938  2023-11-28 13:02:14.174174
1939  2023-11-28 13:02:14.206060
1940  2023-11-28 13:02:14.238005
1941  2023-11-28 13:02:14.269920
1942  2023-11-28 13:02:14.301837
1943  2023-11-28 13:02:14.333716
1944  2023-11-28 13:02:14.365663
1945  2023-11-28 13:02:14.397580
1946  2023-11-28 13:02:14.446446
1947  2023-11-28 13:02:14.478363
1948  2023-11-28 13:02:14.510276
1949  2023-11-28 13:02:14.542191
1950  2023-11-28 13:02:14.574121
1951  2023-11-28 13:02:14.605991
1952  2023-11-28 13:02:14.637956
1953  2023-11-28 13:02:14.669853
1954  2023-11-28 13:02:14.701764
1955  2023-11-28 13:02:14.733649
1956  2023-11-28 13:02:14.765562
1957  2023-11-28 13:02:14.798475
1958  2023-11-28 13:02:14.846346
1959  2023-11-28 13:02:14.878296
1960  2023-11-28 13:02:14.910211
1961  2023-11-28 13:02:14.942120
1962  2023-11-28 13:02:14.974175
1963  2023-11-28 13:02:15.006082
1964  2023-11-28 13:02:15.038015
1965  2023-11-28 13:02:15.070015
1966  2023-11-28 13:02:15.101925
1967  2023-11-28 13:02:15.133811
1968  2023-11-28 13:02:15.165756
1969  2023-11-28 13:02:15.197671
1970  2023-11-28 13:02:15.245512
1971  2023-11-28 13:02:15.278424
1972  2023-11-28 13:02:15.310371
1973  2023-11-28 13:02:15.342286
1974  2023-11-28 13:02:15.374201
1975  2023-11-28 13:02:15.406115
1976  2023-11-28 13:02:15.438031
1977  2023-11-28 13:02:15.469947
1978  2023-11-28 13:02:15.501874
1979  2023-11-28 13:02:15.533789
1980  2023-11-28 13:02:15.565656
1981  2023-11-28 13:02:15.597572
1982  2023-11-28 13:02:15.646440
1983  2023-11-28 13:02:15.678392
1984  2023-11-28 13:02:15.710299
1985  2023-11-28 13:02:15.742214
1986  2023-11-28 13:02:15.774099
1987  2023-11-28 13:02:15.806027
1988  2023-11-28 13:02:15.837963
1989  2023-11-28 13:02:15.869880
1990  2023-11-28 13:02:15.901806
1991  2023-11-28 13:02:15.934702
1992  2023-11-28 13:02:15.965587
1993  2023-11-28 13:02:16.013459
1994  2023-11-28 13:02:16.046404
1995  2023-11-28 13:02:16.078331
1996  2023-11-28 13:02:16.110253
1997  2023-11-28 13:02:16.142149
1998  2023-11-28 13:02:16.174030
1999  2023-11-28 13:02:16.205976
2000  2023-11-28 13:02:16.237904
2001  2023-11-28 13:02:16.269806
2002  2023-11-28 13:02:16.301729
2003  2023-11-28 13:02:16.333640
2004  2023-11-28 13:02:16.365552
2005  2023-11-28 13:02:16.414419
2006  2023-11-28 13:02:16.446334
2007  2023-11-28 13:02:16.478216
2008  2023-11-28 13:02:16.510162
2009  2023-11-28 13:02:16.542078
2010  2023-11-28 13:02:16.573994
2011  2023-11-28 13:02:16.605913
2012  2023-11-28 13:02:16.637790
2013  2023-11-28 13:02:16.669740
2014  2023-11-28 13:02:16.701652
2015  2023-11-28 13:02:16.733567
2016  2023-11-28 13:02:16.765480
2017  2023-11-28 13:02:16.814372
2018  2023-11-28 13:02:16.846262
2019  2023-11-28 13:02:16.878147
2020  2023-11-28 13:02:16.910094
2021  2023-11-28 13:02:16.942070
2022  2023-11-28 13:02:16.974053
2023  2023-11-28 13:02:17.005966
2024  2023-11-28 13:02:17.037883
2025  2023-11-28 13:02:17.070761
2026  2023-11-28 13:02:17.102676
2027  2023-11-28 13:02:17.133626
2028  2023-11-28 13:02:17.165547
2029  2023-11-28 13:02:17.213411
2030  2023-11-28 13:02:17.246291
2031  2023-11-28 13:02:17.278236
2032  2023-11-28 13:02:17.310154
2033  2023-11-28 13:02:17.342066
2034  2023-11-28 13:02:17.373987
2035  2023-11-28 13:02:17.405865
2036  2023-11-28 13:02:17.437779
2037  2023-11-28 13:02:17.469727
2038  2023-11-28 13:02:17.501644
2039  2023-11-28 13:02:17.533578
2040  2023-11-28 13:02:17.566483
2041  2023-11-28 13:02:17.614362
2042  2023-11-28 13:02:17.646264
2043  2023-11-28 13:02:17.678137
2044  2023-11-28 13:02:17.710084
2045  2023-11-28 13:02:17.741998
2046  2023-11-28 13:02:17.773923
2047  2023-11-28 13:02:17.805914
2048  2023-11-28 13:02:17.837828
2049  2023-11-28 13:02:17.869781
2050  2023-11-28 13:02:17.901690
2051  2023-11-28 13:02:17.933613
2052  2023-11-28 13:02:17.965519
2053  2023-11-28 13:02:18.014358
2054  2023-11-28 13:02:18.046271
2055  2023-11-28 13:02:18.078186
2056  2023-11-28 13:02:18.110132
2057  2023-11-28 13:02:18.142047
2058  2023-11-28 13:02:18.173961
2059  2023-11-28 13:02:18.205844
2060  2023-11-28 13:02:18.237807
2061  2023-11-28 13:02:18.269708
2062  2023-11-28 13:02:18.301633
2063  2023-11-28 13:02:18.333535
2064  2023-11-28 13:02:18.366415
2065  2023-11-28 13:02:18.414319
2066  2023-11-28 13:02:18.446202
2067  2023-11-28 13:02:18.478117
2068  2023-11-28 13:02:18.510065
2069  2023-11-28 13:02:18.541980
2070  2023-11-28 13:02:18.573889
2071  2023-11-28 13:02:18.605775
2072  2023-11-28 13:02:18.638747
2073  2023-11-28 13:02:18.669639
2074  2023-11-28 13:02:18.701549
2075  2023-11-28 13:02:18.734431
2076  2023-11-28 13:02:18.766394
2077  2023-11-28 13:02:18.814252
2078  2023-11-28 13:02:18.846133
2079  2023-11-28 13:02:18.878047
2080  2023-11-28 13:02:18.910002
2081  2023-11-28 13:02:18.941914
2082  2023-11-28 13:02:18.974792
2083  2023-11-28 13:02:19.005749
2084  2023-11-28 13:02:19.037621
2085  2023-11-28 13:02:19.069574
2086  2023-11-28 13:02:19.102360
2087  2023-11-28 13:02:19.134319
2088  2023-11-28 13:02:19.166234
2089  2023-11-28 13:02:19.214106
2090  2023-11-28 13:02:19.246021
2091  2023-11-28 13:02:19.277973
2092  2023-11-28 13:02:19.309850
2093  2023-11-28 13:02:19.341802
2094  2023-11-28 13:02:19.373711
2095  2023-11-28 13:02:19.405637
2096  2023-11-28 13:02:19.437509
2097  2023-11-28 13:02:19.469423
2098  2023-11-28 13:02:19.502347
2099  2023-11-28 13:02:19.534250
2100  2023-11-28 13:02:19.582122
2101  2023-11-28 13:02:19.614037
2102  2023-11-28 13:02:19.645984
2103  2023-11-28 13:02:19.677866
2104  2023-11-28 13:02:19.709899
2105  2023-11-28 13:02:19.741844
2106  2023-11-28 13:02:19.773729
2107  2023-11-28 13:02:19.805644
2108  2023-11-28 13:02:19.837558
2109  2023-11-28 13:02:19.869473
2110  2023-11-28 13:02:19.902385
2111  2023-11-28 13:02:19.934301
2112  2023-11-28 13:02:19.982172
2113  2023-11-28 13:02:20.014135
2114  2023-11-28 13:02:20.046001
2115  2023-11-28 13:02:20.077926
2116  2023-11-28 13:02:20.109830
2117  2023-11-28 13:02:20.141850
2118  2023-11-28 13:02:20.173765
2119  2023-11-28 13:02:20.205680
2120  2023-11-28 13:02:20.237621
2121  2023-11-28 13:02:20.269540
2122  2023-11-28 13:02:20.301424
2123  2023-11-28 13:02:20.334336
2124  2023-11-28 13:02:20.382208
2125  2023-11-28 13:02:20.414122
2126  2023-11-28 13:02:20.446072
2127  2023-11-28 13:02:20.477952
2128  2023-11-28 13:02:20.509866
2129  2023-11-28 13:02:20.541781
2130  2023-11-28 13:02:20.573737
2131  2023-11-28 13:02:20.605642
2132  2023-11-28 13:02:20.637525
2133  2023-11-28 13:02:20.669440
2134  2023-11-28 13:02:20.701430
2135  2023-11-28 13:02:20.734371
2136  2023-11-28 13:02:20.782228
2137  2023-11-28 13:02:20.814142
2138  2023-11-28 13:02:20.846057
2139  2023-11-28 13:02:20.877972
2140  2023-11-28 13:02:20.910015
2141  2023-11-28 13:02:20.941930
2142  2023-11-28 13:02:20.973861
2143  2023-11-28 13:02:21.005759
2144  2023-11-28 13:02:21.037673
2145  2023-11-28 13:02:21.069588
2146  2023-11-28 13:02:21.101503
2147  2023-11-28 13:02:21.134417
2148  2023-11-28 13:02:21.182435
2149  2023-11-28 13:02:21.214344
2150  2023-11-28 13:02:21.246258
2151  2023-11-28 13:02:21.278173
2152  2023-11-28 13:02:21.310088
2153  2023-11-28 13:02:21.342002
2154  2023-11-28 13:02:21.373917
2155  2023-11-28 13:02:21.405832
2156  2023-11-28 13:02:21.437746
2157  2023-11-28 13:02:21.469661
2158  2023-11-28 13:02:21.501576
2159  2023-11-28 13:02:21.533491
2160  2023-11-28 13:02:21.582360
2161  2023-11-28 13:02:21.614275
2162  2023-11-28 13:02:21.646189
2163  2023-11-28 13:02:21.678104
2164  2023-11-28 13:02:21.710060
2165  2023-11-28 13:02:21.742037
2166  2023-11-28 13:02:21.773952
2167  2023-11-28 13:02:21.805866
2168  2023-11-28 13:02:21.837781
2169  2023-11-28 13:02:21.869696
2170  2023-11-28 13:02:21.902608
2171  2023-11-28 13:02:21.934524
2172  2023-11-28 13:02:21.982395
2173  2023-11-28 13:02:22.014360
2174  2023-11-28 13:02:22.046224
2175  2023-11-28 13:02:22.078139
2176  2023-11-28 13:02:22.110091
2177  2023-11-28 13:02:22.142005
2178  2023-11-28 13:02:22.173883
2179  2023-11-28 13:02:22.205797
2180  2023-11-28 13:02:22.237754
2181  2023-11-28 13:02:22.269627
2182  2023-11-28 13:02:22.301541
2183  2023-11-28 13:02:22.333456
2184  2023-11-28 13:02:22.382325
2185  2023-11-28 13:02:22.414240
2186  2023-11-28 13:02:22.446155
2187  2023-11-28 13:02:22.478069
2188  2023-11-28 13:02:22.509984
2189  2023-11-28 13:02:22.541899
2190  2023-11-28 13:02:22.573814
2191  2023-11-28 13:02:22.605728
2192  2023-11-28 13:02:22.637643
2193  2023-11-28 13:02:22.669557
2194  2023-11-28 13:02:22.701472
2195  2023-11-28 13:02:22.733477
2196  2023-11-28 13:02:22.781398
2197  2023-11-28 13:02:22.814310
2198  2023-11-28 13:02:22.846224
2199  2023-11-28 13:02:22.878139
2200  2023-11-28 13:02:22.910054
2201  2023-11-28 13:02:22.941969
2202  2023-11-28 13:02:22.973885
2203  2023-11-28 13:02:23.005798
2204  2023-11-28 13:02:23.037712
2205  2023-11-28 13:02:23.069628
2206  2023-11-28 13:02:23.102543
2207  2023-11-28 13:02:23.134454
2208  2023-11-28 13:02:23.182326
2209  2023-11-28 13:02:23.214360
2210  2023-11-28 13:02:23.246264
2211  2023-11-28 13:02:23.278181
2212  2023-11-28 13:02:23.310095
2213  2023-11-28 13:02:23.342009
2214  2023-11-28 13:02:23.373923
2215  2023-11-28 13:02:23.405838
2216  2023-11-28 13:02:23.437756
2217  2023-11-28 13:02:23.469667
2218  2023-11-28 13:02:23.501582
2219  2023-11-28 13:02:23.549456
2220  2023-11-28 13:02:23.582366
2221  2023-11-28 13:02:23.614313
2222  2023-11-28 13:02:23.646227
2223  2023-11-28 13:02:23.678110
2224  2023-11-28 13:02:23.710025
2225  2023-11-28 13:02:23.741978
2226  2023-11-28 13:02:23.773902
2227  2023-11-28 13:02:23.805769
2228  2023-11-28 13:02:23.837683
2229  2023-11-28 13:02:23.869598
2230  2023-11-28 13:02:23.901554
2231  2023-11-28 13:02:23.950431
2232  2023-11-28 13:02:23.982297
2233  2023-11-28 13:02:24.014212
2234  2023-11-28 13:02:24.046126
2235  2023-11-28 13:02:24.078041
2236  2023-11-28 13:02:24.109956
2237  2023-11-28 13:02:24.141870
2238  2023-11-28 13:02:24.173785
2239  2023-11-28 13:02:24.205700
2240  2023-11-28 13:02:24.237614
2241  2023-11-28 13:02:24.269529
2242  2023-11-28 13:02:24.301444
2243  2023-11-28 13:02:24.350364
2244  2023-11-28 13:02:24.382228
2245  2023-11-28 13:02:24.414142
2246  2023-11-28 13:02:24.446057
2247  2023-11-28 13:02:24.477972
2248  2023-11-28 13:02:24.509886
2249  2023-11-28 13:02:24.541801
2250  2023-11-28 13:02:24.573718
2251  2023-11-28 13:02:24.605630
2252  2023-11-28 13:02:24.638542
2253  2023-11-28 13:02:24.669460
2254  2023-11-28 13:02:24.702372
2255  2023-11-28 13:02:24.750245
2256  2023-11-28 13:02:24.782159
2257  2023-11-28 13:02:24.814073
2258  2023-11-28 13:02:24.845988
2259  2023-11-28 13:02:24.877903
2260  2023-11-28 13:02:24.909820
2261  2023-11-28 13:02:24.941733
2262  2023-11-28 13:02:24.973649
2263  2023-11-28 13:02:25.005561
2264  2023-11-28 13:02:25.037476
2265  2023-11-28 13:02:25.070424
2266  2023-11-28 13:02:25.102303
2267  2023-11-28 13:02:25.151202
2268  2023-11-28 13:02:25.182090
2269  2023-11-28 13:02:25.214004
2270  2023-11-28 13:02:25.245919
2271  2023-11-28 13:02:25.277893
2272  2023-11-28 13:02:25.309806
2273  2023-11-28 13:02:25.341720
2274  2023-11-28 13:02:25.373635
2275  2023-11-28 13:02:25.405582
2276  2023-11-28 13:02:25.438579
2277  2023-11-28 13:02:25.469452
2278  2023-11-28 13:02:25.502364
2279  2023-11-28 13:02:25.550237
2280  2023-11-28 13:02:25.582150
2281  2023-11-28 13:02:25.614105
2282  2023-11-28 13:02:25.645980
2283  2023-11-28 13:02:25.678023
2284  2023-11-28 13:02:25.709938
2285  2023-11-28 13:02:25.741853
2286  2023-11-28 13:02:25.773767
2287  2023-11-28 13:02:25.805682
2288  2023-11-28 13:02:25.838594
2289  2023-11-28 13:02:25.869511
2290  2023-11-28 13:02:25.901572
2291  2023-11-28 13:02:25.950474
2292  2023-11-28 13:02:25.982360
2293  2023-11-28 13:02:26.014271
2294  2023-11-28 13:02:26.046186
2295  2023-11-28 13:02:26.078101
2296  2023-11-28 13:02:26.110015
2297  2023-11-28 13:02:26.143035
2298  2023-11-28 13:02:26.173952
2299  2023-11-28 13:02:26.205884
2300  2023-11-28 13:02:26.237801
2301  2023-11-28 13:02:26.270713
2302  2023-11-28 13:02:26.302628
2303  2023-11-28 13:02:26.350517
2304  2023-11-28 13:02:26.382416
2305  2023-11-28 13:02:26.414330
2306  2023-11-28 13:02:26.446306
2307  2023-11-28 13:02:26.478266
2308  2023-11-28 13:02:26.510229
2309  2023-11-28 13:02:26.542144
2310  2023-11-28 13:02:26.574094
2311  2023-11-28 13:02:26.606007
2312  2023-11-28 13:02:26.637894
2313  2023-11-28 13:02:26.669803
2314  2023-11-28 13:02:26.701717
2315  2023-11-28 13:02:26.749519
2316  2023-11-28 13:02:26.782464
2317  2023-11-28 13:02:26.814404
2318  2023-11-28 13:02:26.846267
2319  2023-11-28 13:02:26.878174
2320  2023-11-28 13:02:26.910089
2321  2023-11-28 13:02:26.942004
2322  2023-11-28 13:02:26.973919
2323  2023-11-28 13:02:27.005833
2324  2023-11-28 13:02:27.037748
2325  2023-11-28 13:02:27.069663
2326  2023-11-28 13:02:27.118572
2327  2023-11-28 13:02:27.150481
2328  2023-11-28 13:02:27.182361
2329  2023-11-28 13:02:27.214276
2330  2023-11-28 13:02:27.246264
2331  2023-11-28 13:02:27.278266
2332  2023-11-28 13:02:27.310180
2333  2023-11-28 13:02:27.342095
2334  2023-11-28 13:02:27.374010
2335  2023-11-28 13:02:27.405924
2336  2023-11-28 13:02:27.437839
2337  2023-11-28 13:02:27.469754
2338  2023-11-28 13:02:27.517685
2339  2023-11-28 13:02:27.550577
2340  2023-11-28 13:02:27.581474
2341  2023-11-28 13:02:27.613533
2342  2023-11-28 13:02:27.646237
2343  2023-11-28 13:02:27.678240
2344  2023-11-28 13:02:27.710155
2345  2023-11-28 13:02:27.742069
2346  2023-11-28 13:02:27.773984
2347  2023-11-28 13:02:27.806911
2348  2023-11-28 13:02:27.837813
2349  2023-11-28 13:02:27.869728
2350  2023-11-28 13:02:27.917650
2351  2023-11-28 13:02:27.949515
2352  2023-11-28 13:02:27.982427
2353  2023-11-28 13:02:28.014342
2354  2023-11-28 13:02:28.046256
2355  2023-11-28 13:02:28.078258
2356  2023-11-28 13:02:28.110247
2357  2023-11-28 13:02:28.142149
2358  2023-11-28 13:02:28.174082
2359  2023-11-28 13:02:28.205996
2360  2023-11-28 13:02:28.237972
2361  2023-11-28 13:02:28.269885
2362  2023-11-28 13:02:28.317765
2363  2023-11-28 13:02:28.349671
2364  2023-11-28 13:02:28.381552
2365  2023-11-28 13:02:28.413467
2366  2023-11-28 13:02:28.446379
2367  2023-11-28 13:02:28.478294
2368  2023-11-28 13:02:28.510208
2369  2023-11-28 13:02:28.542123
2370  2023-11-28 13:02:28.574038
2371  2023-11-28 13:02:28.605952
2372  2023-11-28 13:02:28.637867
2373  2023-11-28 13:02:28.669782
2374  2023-11-28 13:02:28.717688
2375  2023-11-28 13:02:28.750567
2376  2023-11-28 13:02:28.781483
2377  2023-11-28 13:02:28.814395
2378  2023-11-28 13:02:28.846310
2379  2023-11-28 13:02:28.878224
2380  2023-11-28 13:02:28.910139
2381  2023-11-28 13:02:28.942054
2382  2023-11-28 13:02:28.973969
2383  2023-11-28 13:02:29.005883
2384  2023-11-28 13:02:29.037798
2385  2023-11-28 13:02:29.069713
2386  2023-11-28 13:02:29.117586
2387  2023-11-28 13:02:29.150564
2388  2023-11-28 13:02:29.183609
2389  2023-11-28 13:02:29.215524
2390  2023-11-28 13:02:29.246426
2391  2023-11-28 13:02:29.279338
2392  2023-11-28 13:02:29.310751
2393  2023-11-28 13:02:29.342666
2394  2023-11-28 13:02:29.375721
2395  2023-11-28 13:02:29.406575
2396  2023-11-28 13:02:29.438686
2397  2023-11-28 13:02:29.470645
2398  2023-11-28 13:02:29.518487
2399  2023-11-28 13:02:29.551437
2400  2023-11-28 13:02:29.582303
2401  2023-11-28 13:02:29.615238
2402  2023-11-28 13:02:29.647174
2403  2023-11-28 13:02:29.679092
2404  2023-11-28 13:02:29.711003
2405  2023-11-28 13:02:29.742852
2406  2023-11-28 13:02:29.774752
2407  2023-11-28 13:02:29.806628
2408  2023-11-28 13:02:29.838543
2409  2023-11-28 13:02:29.870457
2410  2023-11-28 13:02:29.918329
2411  2023-11-28 13:02:29.951278
2412  2023-11-28 13:02:29.982157
2413  2023-11-28 13:02:30.014115
2414  2023-11-28 13:02:30.046231
2415  2023-11-28 13:02:30.078111
2416  2023-11-28 13:02:30.111074
2417  2023-11-28 13:02:30.141941
2418  2023-11-28 13:02:30.174852
2419  2023-11-28 13:02:30.206767
2420  2023-11-28 13:02:30.238712
2421  2023-11-28 13:02:30.270639
2422  2023-11-28 13:02:30.318469
2423  2023-11-28 13:02:30.350419
2424  2023-11-28 13:02:30.382329
2425  2023-11-28 13:02:30.414251
2426  2023-11-28 13:02:30.446159
2427  2023-11-28 13:02:30.478205
2428  2023-11-28 13:02:30.510224
2429  2023-11-28 13:02:30.542221
2430  2023-11-28 13:02:30.574136
2431  2023-11-28 13:02:30.606051
2432  2023-11-28 13:02:30.637968
2433  2023-11-28 13:02:30.669884
2434  2023-11-28 13:02:30.718888
2435  2023-11-28 13:02:30.750798
2436  2023-11-28 13:02:30.781681
2437  2023-11-28 13:02:30.814616
2438  2023-11-28 13:02:30.845509
2439  2023-11-28 13:02:30.878439
2440  2023-11-28 13:02:30.910372
2441  2023-11-28 13:02:30.942287
2442  2023-11-28 13:02:30.974198
2443  2023-11-28 13:02:31.006121
2444  2023-11-28 13:02:31.038027
2445  2023-11-28 13:02:31.085912
2446  2023-11-28 13:02:31.118817
2447  2023-11-28 13:02:31.150738
2448  2023-11-28 13:02:31.181645
2449  2023-11-28 13:02:31.213561
2450  2023-11-28 13:02:31.246437
2451  2023-11-28 13:02:31.278351
2452  2023-11-28 13:02:31.310446
2453  2023-11-28 13:02:31.342182
2454  2023-11-28 13:02:31.375138
2455  2023-11-28 13:02:31.406040
2456  2023-11-28 13:02:31.437969
2457  2023-11-28 13:02:31.486798
2458  2023-11-28 13:02:31.517861
2459  2023-11-28 13:02:31.550790
2460  2023-11-28 13:02:31.582690
2461  2023-11-28 13:02:31.614565
2462  2023-11-28 13:02:31.646616
2463  2023-11-28 13:02:31.678600
2464  2023-11-28 13:02:31.709546
2465  2023-11-28 13:02:31.742416
2466  2023-11-28 13:02:31.775363
2467  2023-11-28 13:02:31.806246
2468  2023-11-28 13:02:31.839204
2469  2023-11-28 13:02:31.886032
2470  2023-11-28 13:02:31.917957
2471  2023-11-28 13:02:31.949863
2472  2023-11-28 13:02:31.981777
2473  2023-11-28 13:02:32.014725
2474  2023-11-28 13:02:32.046647
2475  2023-11-28 13:02:32.078557
2476  2023-11-28 13:02:32.109613
2477  2023-11-28 13:02:32.141556
2478  2023-11-28 13:02:32.174499
2479  2023-11-28 13:02:32.206404
2480  2023-11-28 13:02:32.238316
2481  2023-11-28 13:02:32.287192
2482  2023-11-28 13:02:32.319103
2483  2023-11-28 13:02:32.349987
2484  2023-11-28 13:02:32.381918
2485  2023-11-28 13:02:32.413816
2486  2023-11-28 13:02:32.446760
2487  2023-11-28 13:02:32.478680
2488  2023-11-28 13:02:32.509560
2489  2023-11-28 13:02:32.542504
2490  2023-11-28 13:02:32.574418
2491  2023-11-28 13:02:32.606332
2492  2023-11-28 13:02:32.638247
2493  2023-11-28 13:02:32.686089
2494  2023-11-28 13:02:32.719038
2495  2023-11-28 13:02:32.750844
2496  2023-11-28 13:02:32.781807
2497  2023-11-28 13:02:32.814763
2498  2023-11-28 13:02:32.846669
2499  2023-11-28 13:02:32.878594
2500  2023-11-28 13:02:32.910498
2501  2023-11-28 13:02:32.942377
2502  2023-11-28 13:02:32.974293
2503  2023-11-28 13:02:33.006238
2504  2023-11-28 13:02:33.038360
2505  2023-11-28 13:02:33.086283
2506  2023-11-28 13:02:33.119200
2507  2023-11-28 13:02:33.151112
2508  2023-11-28 13:02:33.182027
2509  2023-11-28 13:02:33.213911
2510  2023-11-28 13:02:33.245857
2511  2023-11-28 13:02:33.278781
2512  2023-11-28 13:02:33.310693
2513  2023-11-28 13:02:33.341569
2514  2023-11-28 13:02:33.373483
2515  2023-11-28 13:02:33.406398
2516  2023-11-28 13:02:33.438346
2517  2023-11-28 13:02:33.487181
2518  2023-11-28 13:02:33.518124
2519  2023-11-28 13:02:33.550014
2520  2023-11-28 13:02:33.581958
2521  2023-11-28 13:02:33.613885
2522  2023-11-28 13:02:33.645790
2523  2023-11-28 13:02:33.677707
2524  2023-11-28 13:02:33.710584
2525  2023-11-28 13:02:33.741531
2526  2023-11-28 13:02:33.773447
2527  2023-11-28 13:02:33.806358
2528  2023-11-28 13:02:33.838276
2529  2023-11-28 13:02:33.886147
2530  2023-11-28 13:02:33.918084
2531  2023-11-28 13:02:33.949986
2532  2023-11-28 13:02:33.981945
2533  2023-11-28 13:02:34.013932
2534  2023-11-28 13:02:34.045894
2535  2023-11-28 13:02:34.077939
2536  2023-11-28 13:02:34.109849
2537  2023-11-28 13:02:34.141725
2538  2023-11-28 13:02:34.173673
2539  2023-11-28 13:02:34.205593
2540  2023-11-28 13:02:34.237516
2541  2023-11-28 13:02:34.286341
2542  2023-11-28 13:02:34.319286
2543  2023-11-28 13:02:34.350171
2544  2023-11-28 13:02:34.382251
2545  2023-11-28 13:02:34.414030
2546  2023-11-28 13:02:34.445946
2547  2023-11-28 13:02:34.477828
2548  2023-11-28 13:02:34.509767
2549  2023-11-28 13:02:34.541692
2550  2023-11-28 13:02:34.573605
2551  2023-11-28 13:02:34.606484
2552  2023-11-28 13:02:34.654399
2553  2023-11-28 13:02:34.686314
2554  2023-11-28 13:02:34.718227
2555  2023-11-28 13:02:34.750154
2556  2023-11-28 13:02:34.782049
2557  2023-11-28 13:02:34.813966
2558  2023-11-28 13:02:34.845883
2559  2023-11-28 13:02:34.877793
2560  2023-11-28 13:02:34.909708
2561  2023-11-28 13:02:34.941623
2562  2023-11-28 13:02:34.974513
2563  2023-11-28 13:02:35.005447
2564  2023-11-28 13:02:35.054293
2565  2023-11-28 13:02:35.086234
2566  2023-11-28 13:02:35.118312
2567  2023-11-28 13:02:35.150196
2568  2023-11-28 13:02:35.182109
2569  2023-11-28 13:02:35.214057
2570  2023-11-28 13:02:35.245970
2571  2023-11-28 13:02:35.277912
2572  2023-11-28 13:02:35.309816
2573  2023-11-28 13:02:35.341716
2574  2023-11-28 13:02:35.373597
2575  2023-11-28 13:02:35.405547
2576  2023-11-28 13:02:35.454383
2577  2023-11-28 13:02:35.486329
2578  2023-11-28 13:02:35.518211
2579  2023-11-28 13:02:35.550158
2580  2023-11-28 13:02:35.582074
2581  2023-11-28 13:02:35.613986
2582  2023-11-28 13:02:35.645917
2583  2023-11-28 13:02:35.677826
2584  2023-11-28 13:02:35.709734
2585  2023-11-28 13:02:35.741657
2586  2023-11-28 13:02:35.774527
2587  2023-11-28 13:02:35.806495
2588  2023-11-28 13:02:35.854315
2589  2023-11-28 13:02:35.886258
2590  2023-11-28 13:02:35.918173
2591  2023-11-28 13:02:35.950215
2592  2023-11-28 13:02:35.982131
2593  2023-11-28 13:02:36.014014
2594  2023-11-28 13:02:36.045928
2595  2023-11-28 13:02:36.077877
2596  2023-11-28 13:02:36.109809
2597  2023-11-28 13:02:36.141705
2598  2023-11-28 13:02:36.173587
2599  2023-11-28 13:02:36.205502
2600  2023-11-28 13:02:36.254404
2601  2023-11-28 13:02:36.286289
2602  2023-11-28 13:02:36.318232
2603  2023-11-28 13:02:36.350150
2604  2023-11-28 13:02:36.382064
2605  2023-11-28 13:02:36.413979
2606  2023-11-28 13:02:36.445918
2607  2023-11-28 13:02:36.477927
2608  2023-11-28 13:02:36.509849
2609  2023-11-28 13:02:36.541757
2610  2023-11-28 13:02:36.573671
2611  2023-11-28 13:02:36.605661
2612  2023-11-28 13:02:36.653616
2613  2023-11-28 13:02:36.685508
2614  2023-11-28 13:02:36.718391
2615  2023-11-28 13:02:36.750307
2616  2023-11-28 13:02:36.782253
2617  2023-11-28 13:02:36.815206
2618  2023-11-28 13:02:36.846047
2619  2023-11-28 13:02:36.877996
2620  2023-11-28 13:02:36.909915
2621  2023-11-28 13:02:36.942791
2622  2023-11-28 13:02:36.973741
2623  2023-11-28 13:02:37.005620
2624  2023-11-28 13:02:37.053528
2625  2023-11-28 13:02:37.086449
2626  2023-11-28 13:02:37.118350
2627  2023-11-28 13:02:37.150250
2628  2023-11-28 13:02:37.182180
2629  2023-11-28 13:02:37.214094
2630  2023-11-28 13:02:37.246081
2631  2023-11-28 13:02:37.277964
2632  2023-11-28 13:02:37.309887
2633  2023-11-28 13:02:37.341796
2634  2023-11-28 13:02:37.373746
2635  2023-11-28 13:02:37.406620
2636  2023-11-28 13:02:37.453627
2637  2023-11-28 13:02:37.485538
2638  2023-11-28 13:02:37.518457
2639  2023-11-28 13:02:37.550330
2640  2023-11-28 13:02:37.582275
2641  2023-11-28 13:02:37.614198
2642  2023-11-28 13:02:37.646073
2643  2023-11-28 13:02:37.678020
2644  2023-11-28 13:02:37.709933
2645  2023-11-28 13:02:37.741851
2646  2023-11-28 13:02:37.773764
2647  2023-11-28 13:02:37.805680
2648  2023-11-28 13:02:37.853561
2649  2023-11-28 13:02:37.886466
2650  2023-11-28 13:02:37.918379
2651  2023-11-28 13:02:37.950294
2652  2023-11-28 13:02:37.982210
2653  2023-11-28 13:02:38.014091
2654  2023-11-28 13:02:38.046005
2655  2023-11-28 13:02:38.077959
2656  2023-11-28 13:02:38.109890
2657  2023-11-28 13:02:38.141801
2658  2023-11-28 13:02:38.173698
2659  2023-11-28 13:02:38.205608
2660  2023-11-28 13:02:38.253478
2661  2023-11-28 13:02:38.286363
2662  2023-11-28 13:02:38.318278
2663  2023-11-28 13:02:38.350193
2664  2023-11-28 13:02:38.382137
2665  2023-11-28 13:02:38.414053
2666  2023-11-28 13:02:38.445937
2667  2023-11-28 13:02:38.477868
2668  2023-11-28 13:02:38.509839
2669  2023-11-28 13:02:38.541791
2670  2023-11-28 13:02:38.573706
2671  2023-11-28 13:02:38.621595
2672  2023-11-28 13:02:38.654491
2673  2023-11-28 13:02:38.686413
2674  2023-11-28 13:02:38.718317
2675  2023-11-28 13:02:38.750243
2676  2023-11-28 13:02:38.782151
2677  2023-11-28 13:02:38.814068
2678  2023-11-28 13:02:38.845983
2679  2023-11-28 13:02:38.877933
2680  2023-11-28 13:02:38.909847
2681  2023-11-28 13:02:38.941762
2682  2023-11-28 13:02:38.973677
2683  2023-11-28 13:02:39.021549
2684  2023-11-28 13:02:39.053532
2685  2023-11-28 13:02:39.085448
2686  2023-11-28 13:02:39.118371
2687  2023-11-28 13:02:39.150290
2688  2023-11-28 13:02:39.182259
2689  2023-11-28 13:02:39.214253
2690  2023-11-28 13:02:39.246165
2691  2023-11-28 13:02:39.278081
2692  2023-11-28 13:02:39.309998
2693  2023-11-28 13:02:39.341919
2694  2023-11-28 13:02:39.373828
2695  2023-11-28 13:02:39.421690
2696  2023-11-28 13:02:39.453612
2697  2023-11-28 13:02:39.485494
2698  2023-11-28 13:02:39.518434
2699  2023-11-28 13:02:39.550381
2700  2023-11-28 13:02:39.582363
2701  2023-11-28 13:02:39.614183
2702  2023-11-28 13:02:39.646065
2703  2023-11-28 13:02:39.678018
2704  2023-11-28 13:02:39.709934
2705  2023-11-28 13:02:39.741841
2706  2023-11-28 13:02:39.773757
2707  2023-11-28 13:02:39.822594
2708  2023-11-28 13:02:39.854539
2709  2023-11-28 13:02:39.886425
2710  2023-11-28 13:02:39.918368
2711  2023-11-28 13:02:39.950332
2712  2023-11-28 13:02:39.982246
2713  2023-11-28 13:02:40.014133
2714  2023-11-28 13:02:40.046047
2715  2023-11-28 13:02:40.078069
2716  2023-11-28 13:02:40.109987
2717  2023-11-28 13:02:40.141898
2718  2023-11-28 13:02:40.173813
2719  2023-11-28 13:02:40.221654
2720  2023-11-28 13:02:40.253570
2721  2023-11-28 13:02:40.286481
2722  2023-11-28 13:02:40.318397
2723  2023-11-28 13:02:40.350311
2724  2023-11-28 13:02:40.382225
2725  2023-11-28 13:02:40.414176
2726  2023-11-28 13:02:40.446054
2727  2023-11-28 13:02:40.478001
2728  2023-11-28 13:02:40.509917
2729  2023-11-28 13:02:40.541833
2730  2023-11-28 13:02:40.573742
2731  2023-11-28 13:02:40.621618
2732  2023-11-28 13:02:40.653531
2733  2023-11-28 13:02:40.686443
2734  2023-11-28 13:02:40.718374
2735  2023-11-28 13:02:40.750274
2736  2023-11-28 13:02:40.782187
2737  2023-11-28 13:02:40.814103
2738  2023-11-28 13:02:40.845985
2739  2023-11-28 13:02:40.877900
2740  2023-11-28 13:02:40.909850
2741  2023-11-28 13:02:40.941763
2742  2023-11-28 13:02:40.974642
2743  2023-11-28 13:02:41.022518
2744  2023-11-28 13:02:41.054470
2745  2023-11-28 13:02:41.086344
2746  2023-11-28 13:02:41.118289
2747  2023-11-28 13:02:41.150207
2748  2023-11-28 13:02:41.182088
2749  2023-11-28 13:02:41.214040
2750  2023-11-28 13:02:41.245916
2751  2023-11-28 13:02:41.277864
2752  2023-11-28 13:02:41.309775
2753  2023-11-28 13:02:41.341692
2754  2023-11-28 13:02:41.373609
2755  2023-11-28 13:02:41.421478
2756  2023-11-28 13:02:41.454360
2757  2023-11-28 13:02:41.486273
2758  2023-11-28 13:02:41.518189
2759  2023-11-28 13:02:41.550136
2760  2023-11-28 13:02:41.582048
2761  2023-11-28 13:02:41.613963
2762  2023-11-28 13:02:41.645884
2763  2023-11-28 13:02:41.677761
2764  2023-11-28 13:02:41.709756
2765  2023-11-28 13:02:41.741671
2766  2023-11-28 13:02:41.773688
2767  2023-11-28 13:02:41.822562
2768  2023-11-28 13:02:41.853479
2769  2023-11-28 13:02:41.886399
2770  2023-11-28 13:02:41.918303
2771  2023-11-28 13:02:41.950218
2772  2023-11-28 13:02:41.982133
2773  2023-11-28 13:02:42.014047
2774  2023-11-28 13:02:42.045974
2775  2023-11-28 13:02:42.077844
2776  2023-11-28 13:02:42.109759
2777  2023-11-28 13:02:42.141708
2778  2023-11-28 13:02:42.189545
2779  2023-11-28 13:02:42.222467
2780  2023-11-28 13:02:42.254407
2781  2023-11-28 13:02:42.286288
2782  2023-11-28 13:02:42.318233
2783  2023-11-28 13:02:42.350117
2784  2023-11-28 13:02:42.382062
2785  2023-11-28 13:02:42.413976
2786  2023-11-28 13:02:42.445893
2787  2023-11-28 13:02:42.478878
2788  2023-11-28 13:02:42.509807
2789  2023-11-28 13:02:42.541741
2790  2023-11-28 13:02:42.589611
2791  2023-11-28 13:02:42.622528
2792  2023-11-28 13:02:42.654408
2793  2023-11-28 13:02:42.686321
2794  2023-11-28 13:02:42.718237
2795  2023-11-28 13:02:42.750190
2796  2023-11-28 13:02:42.782096
2797  2023-11-28 13:02:42.814012
2798  2023-11-28 13:02:42.845895
2799  2023-11-28 13:02:42.877809
2800  2023-11-28 13:02:42.909756
2801  2023-11-28 13:02:42.941676
2802  2023-11-28 13:02:42.989511
2803  2023-11-28 13:02:43.021457
2804  2023-11-28 13:02:43.054372
2805  2023-11-28 13:02:43.086435
2806  2023-11-28 13:02:43.118360
2807  2023-11-28 13:02:43.150257
2808  2023-11-28 13:02:43.182137
2809  2023-11-28 13:02:43.214051
2810  2023-11-28 13:02:43.246000
2811  2023-11-28 13:02:43.277881
2812  2023-11-28 13:02:43.309795
2813  2023-11-28 13:02:43.341745
2814  2023-11-28 13:02:43.389616
2815  2023-11-28 13:02:43.422529
2816  2023-11-28 13:02:43.454455
2817  2023-11-28 13:02:43.486357
2818  2023-11-28 13:02:43.518240
2819  2023-11-28 13:02:43.550154
2820  2023-11-28 13:02:43.582068
2821  2023-11-28 13:02:43.614038
2822  2023-11-28 13:02:43.646055
2823  2023-11-28 13:02:43.677969
2824  2023-11-28 13:02:43.709884
2825  2023-11-28 13:02:43.741944
2826  2023-11-28 13:02:43.789841
2827  2023-11-28 13:02:43.821788
2828  2023-11-28 13:02:43.853715
2829  2023-11-28 13:02:43.885587
2830  2023-11-28 13:02:43.918526
2831  2023-11-28 13:02:43.949417
2832  2023-11-28 13:02:43.982327
2833  2023-11-28 13:02:44.014241
2834  2023-11-28 13:02:44.046156
2835  2023-11-28 13:02:44.078070
2836  2023-11-28 13:02:44.109985
2837  2023-11-28 13:02:44.141900
2838  2023-11-28 13:02:44.189829
2839  2023-11-28 13:02:44.222720
2840  2023-11-28 13:02:44.253603
2841  2023-11-28 13:02:44.285518
2842  2023-11-28 13:02:44.318429
2843  2023-11-28 13:02:44.350343
2844  2023-11-28 13:02:44.382257
2845  2023-11-28 13:02:44.414185
2846  2023-11-28 13:02:44.446119
2847  2023-11-28 13:02:44.478127
2848  2023-11-28 13:02:44.510003
2849  2023-11-28 13:02:44.541918
2850  2023-11-28 13:02:44.589793
2851  2023-11-28 13:02:44.621718
2852  2023-11-28 13:02:44.653622
2853  2023-11-28 13:02:44.685537
2854  2023-11-28 13:02:44.718448
2855  2023-11-28 13:02:44.750446
2856  2023-11-28 13:02:44.782371
2857  2023-11-28 13:02:44.814285
2858  2023-11-28 13:02:44.846200
2859  2023-11-28 13:02:44.878115
2860  2023-11-28 13:02:44.910029
2861  2023-11-28 13:02:44.941954
2862  2023-11-28 13:02:44.989851
2863  2023-11-28 13:02:45.021774
2864  2023-11-28 13:02:45.053648
2865  2023-11-28 13:02:45.085624
2866  2023-11-28 13:02:45.118506
2867  2023-11-28 13:02:45.150387
2868  2023-11-28 13:02:45.182301
2869  2023-11-28 13:02:45.214358
2870  2023-11-28 13:02:45.246482
2871  2023-11-28 13:02:45.278396
2872  2023-11-28 13:02:45.310310
2873  2023-11-28 13:02:45.342225
2874  2023-11-28 13:02:45.390097
2875  2023-11-28 13:02:45.422064
2876  2023-11-28 13:02:45.453927
2877  2023-11-28 13:02:45.485847
2878  2023-11-28 13:02:45.517758
2879  2023-11-28 13:02:45.549712
2880  2023-11-28 13:02:45.581585
2881  2023-11-28 13:02:45.613628
2882  2023-11-28 13:02:45.646583
2883  2023-11-28 13:02:45.678454
2884  2023-11-28 13:02:45.710383
2885  2023-11-28 13:02:45.742291
2886  2023-11-28 13:02:45.790188
2887  2023-11-28 13:02:45.822088
2888  2023-11-28 13:02:45.853986
2889  2023-11-28 13:02:45.885915
2890  2023-11-28 13:02:45.917863
2891  2023-11-28 13:02:45.949731
2892  2023-11-28 13:02:45.981697
2893  2023-11-28 13:02:46.013559
2894  2023-11-28 13:02:46.046471
2895  2023-11-28 13:02:46.078438
2896  2023-11-28 13:02:46.110300
2897  2023-11-28 13:02:46.158206
2898  2023-11-28 13:02:46.190088
2899  2023-11-28 13:02:46.222009
2900  2023-11-28 13:02:46.253918
2901  2023-11-28 13:02:46.285866
2902  2023-11-28 13:02:46.317785
2903  2023-11-28 13:02:46.349708
2904  2023-11-28 13:02:46.381583
2905  2023-11-28 13:02:46.413489
2906  2023-11-28 13:02:46.446402
2907  2023-11-28 13:02:46.478316
2908  2023-11-28 13:02:46.510231
2909  2023-11-28 13:02:46.558109
2910  2023-11-28 13:02:46.590022
2911  2023-11-28 13:02:46.621971
2912  2023-11-28 13:02:46.653921
2913  2023-11-28 13:02:46.685919
2914  2023-11-28 13:02:46.717797
2915  2023-11-28 13:02:46.749751
2916  2023-11-28 13:02:46.781616
2917  2023-11-28 13:02:46.814533
2918  2023-11-28 13:02:46.846443
2919  2023-11-28 13:02:46.878357
2920  2023-11-28 13:02:46.910272
2921  2023-11-28 13:02:46.958145
2922  2023-11-28 13:02:46.990060
2923  2023-11-28 13:02:47.021976
2924  2023-11-28 13:02:47.053889
2925  2023-11-28 13:02:47.086801
2926  2023-11-28 13:02:47.117757
2927  2023-11-28 13:02:47.149666
2928  2023-11-28 13:02:47.181547
2929  2023-11-28 13:02:47.214459
2930  2023-11-28 13:02:47.246521
2931  2023-11-28 13:02:47.278436
2932  2023-11-28 13:02:47.310350
2933  2023-11-28 13:02:47.358344
2934  2023-11-28 13:02:47.390294
2935  2023-11-28 13:02:47.422206
2936  2023-11-28 13:02:47.454119
2937  2023-11-28 13:02:47.486037
2938  2023-11-28 13:02:47.517919
2939  2023-11-28 13:02:47.549872
2940  2023-11-28 13:02:47.581873
2941  2023-11-28 13:02:47.613788
2942  2023-11-28 13:02:47.645702
2943  2023-11-28 13:02:47.677617
2944  2023-11-28 13:02:47.709675
2945  2023-11-28 13:02:47.757554
2946  2023-11-28 13:02:47.789502
2947  2023-11-28 13:02:47.822380
2948  2023-11-28 13:02:47.854293
2949  2023-11-28 13:02:47.886209
2950  2023-11-28 13:02:47.918123
2951  2023-11-28 13:02:47.950080
2952  2023-11-28 13:02:47.981998
2953  2023-11-28 13:02:48.013873
2954  2023-11-28 13:02:48.045780
2955  2023-11-28 13:02:48.077695
2956  2023-11-28 13:02:48.109675
2957  2023-11-28 13:02:48.158512
2958  2023-11-28 13:02:48.190463
2959  2023-11-28 13:02:48.222386
2960  2023-11-28 13:02:48.254287
2961  2023-11-28 13:02:48.286203
2962  2023-11-28 13:02:48.318088
2963  2023-11-28 13:02:48.350015
2964  2023-11-28 13:02:48.381914
2965  2023-11-28 13:02:48.413828
2966  2023-11-28 13:02:48.445824
2967  2023-11-28 13:02:48.477738
2968  2023-11-28 13:02:48.509653
2969  2023-11-28 13:02:48.557558
2970  2023-11-28 13:02:48.590480
2971  2023-11-28 13:02:48.622352
2972  2023-11-28 13:02:48.654298
2973  2023-11-28 13:02:48.686182
2974  2023-11-28 13:02:48.718096
2975  2023-11-28 13:02:48.750060
2976  2023-11-28 13:02:48.782058
2977  2023-11-28 13:02:48.814837
2978  2023-11-28 13:02:48.846752
2979  2023-11-28 13:02:48.877669
2980  2023-11-28 13:02:48.909584
2981  2023-11-28 13:02:48.958487
2982  2023-11-28 13:02:48.990423
2983  2023-11-28 13:02:49.022446
2984  2023-11-28 13:02:49.054331
2985  2023-11-28 13:02:49.086286
2986  2023-11-28 13:02:49.118160
2987  2023-11-28 13:02:49.150112
2988  2023-11-28 13:02:49.181989
2989  2023-11-28 13:02:49.213904
2990  2023-11-28 13:02:49.245818
2991  2023-11-28 13:02:49.277764
2992  2023-11-28 13:02:49.309647
2993  2023-11-28 13:02:49.358518
2994  2023-11-28 13:02:49.390481
2995  2023-11-28 13:02:49.422379
2996  2023-11-28 13:02:49.454261
2997  2023-11-28 13:02:49.486226
2998  2023-11-28 13:02:49.518192
2999  2023-11-28 13:02:49.550296
3000  2023-11-28 13:02:49.582255
3001  2023-11-28 13:02:49.614170
3002  2023-11-28 13:02:49.646084
3003  2023-11-28 13:02:49.678000
3004  2023-11-28 13:02:49.725871
3005  2023-11-28 13:02:49.757787
3006  2023-11-28 13:02:49.789749
3007  2023-11-28 13:02:49.821662
3008  2023-11-28 13:02:49.853532
3009  2023-11-28 13:02:49.886478
3010  2023-11-28 13:02:49.918357
3011  2023-11-28 13:02:49.950303
3012  2023-11-28 13:02:49.983186
3013  2023-11-28 13:02:50.015100
3014  2023-11-28 13:02:50.046017
3015  2023-11-28 13:02:50.077937
3016  2023-11-28 13:02:50.125854
3017  2023-11-28 13:02:50.157755
3018  2023-11-28 13:02:50.189698
3019  2023-11-28 13:02:50.222688
3020  2023-11-28 13:02:50.253606
3021  2023-11-28 13:02:50.286518
3022  2023-11-28 13:02:50.318432
3023  2023-11-28 13:02:50.350346
3024  2023-11-28 13:02:50.382296
3025  2023-11-28 13:02:50.414210
3026  2023-11-28 13:02:50.446125
3027  2023-11-28 13:02:50.478040
3028  2023-11-28 13:02:50.526910
3029  2023-11-28 13:02:50.557894
3030  2023-11-28 13:02:50.589743
3031  2023-11-28 13:02:50.621656
3032  2023-11-28 13:02:50.653572
3033  2023-11-28 13:02:50.686501
3034  2023-11-28 13:02:50.718458
3035  2023-11-28 13:02:50.750315
3036  2023-11-28 13:02:50.782227
3037  2023-11-28 13:02:50.814142
3038  2023-11-28 13:02:50.846056
3039  2023-11-28 13:02:50.877971
3040  2023-11-28 13:02:50.925876
3041  2023-11-28 13:02:50.957794
3042  2023-11-28 13:02:50.989745
3043  2023-11-28 13:02:51.021756
3044  2023-11-28 13:02:51.053654
3045  2023-11-28 13:02:51.085614
3046  2023-11-28 13:02:51.118573
3047  2023-11-28 13:02:51.150476
3048  2023-11-28 13:02:51.182435
3049  2023-11-28 13:02:51.214350
3050  2023-11-28 13:02:51.246265
3051  2023-11-28 13:02:51.278179
3052  2023-11-28 13:02:51.326054
3053  2023-11-28 13:02:51.357974
3054  2023-11-28 13:02:51.390014
3055  2023-11-28 13:02:51.421946
3056  2023-11-28 13:02:51.453844
3057  2023-11-28 13:02:51.486724
3058  2023-11-28 13:02:51.517674
3059  2023-11-28 13:02:51.549556
3060  2023-11-28 13:02:51.583515
3061  2023-11-28 13:02:51.614390
3062  2023-11-28 13:02:51.647342
3063  2023-11-28 13:02:51.679244
3064  2023-11-28 13:02:51.726084
3065  2023-11-28 13:02:51.759044
3066  2023-11-28 13:02:51.791939
3067  2023-11-28 13:02:51.823876
3068  2023-11-28 13:02:51.855737
3069  2023-11-28 13:02:51.887663
3070  2023-11-28 13:02:51.919614
3071  2023-11-28 13:02:51.951527
3072  2023-11-28 13:02:51.983439
3073  2023-11-28 13:02:52.015338
3074  2023-11-28 13:02:52.047260
3075  2023-11-28 13:02:52.079170
3076  2023-11-28 13:02:52.127112
3077  2023-11-28 13:02:52.159587
3078  2023-11-28 13:02:52.191630
3079  2023-11-28 13:02:52.223592
3080  2023-11-28 13:02:52.255562
3081  2023-11-28 13:02:52.287478
3082  2023-11-28 13:02:52.319512
3083  2023-11-28 13:02:52.351507
3084  2023-11-28 13:02:52.382440
3085  2023-11-28 13:02:52.415356
3086  2023-11-28 13:02:52.447223
3087  2023-11-28 13:02:52.479133
3088  2023-11-28 13:02:52.527005
3089  2023-11-28 13:02:52.558920
3090  2023-11-28 13:02:52.590835
3091  2023-11-28 13:02:52.622749
3092  2023-11-28 13:02:52.655661
3093  2023-11-28 13:02:52.687663
3094  2023-11-28 13:02:52.719576
3095  2023-11-28 13:02:52.750580
3096  2023-11-28 13:02:52.782507
3097  2023-11-28 13:02:52.815410
3098  2023-11-28 13:02:52.846316
3099  2023-11-28 13:02:52.879364
3100  2023-11-28 13:02:52.927292
3101  2023-11-28 13:02:52.959767
3102  2023-11-28 13:02:52.990810
3103  2023-11-28 13:02:53.022739
3104  2023-11-28 13:02:53.054647
3105  2023-11-28 13:02:53.086562
3106  2023-11-28 13:02:53.119550
3107  2023-11-28 13:02:53.150483
3108  2023-11-28 13:02:53.182370
3109  2023-11-28 13:02:53.214285
3110  2023-11-28 13:02:53.246192
3111  2023-11-28 13:02:53.278113
3112  2023-11-28 13:02:53.326983
3113  2023-11-28 13:02:53.358924
3114  2023-11-28 13:02:53.390833
3115  2023-11-28 13:02:53.422749
3116  2023-11-28 13:02:53.454716
3117  2023-11-28 13:02:53.486578
3118  2023-11-28 13:02:53.518492
3119  2023-11-28 13:02:53.550407
3120  2023-11-28 13:02:53.581992
3121  2023-11-28 13:02:53.613910
3122  2023-11-28 13:02:53.645840
3123  2023-11-28 13:02:53.693692
3124  2023-11-28 13:02:53.725607
3125  2023-11-28 13:02:53.758487
3126  2023-11-28 13:02:53.790449
3127  2023-11-28 13:02:53.822368
3128  2023-11-28 13:02:53.854287
3129  2023-11-28 13:02:53.886254
3130  2023-11-28 13:02:53.918183
3131  2023-11-28 13:02:53.951092
3132  2023-11-28 13:02:53.981997
3133  2023-11-28 13:02:54.013879
3134  2023-11-28 13:02:54.045850
3135  2023-11-28 13:02:54.093715
3136  2023-11-28 13:02:54.126586
3137  2023-11-28 13:02:54.158658
3138  2023-11-28 13:02:54.190727
3139  2023-11-28 13:02:54.222610
3140  2023-11-28 13:02:54.255553
3141  2023-11-28 13:02:54.286439
3142  2023-11-28 13:02:54.318388
3143  2023-11-28 13:02:54.350268
3144  2023-11-28 13:02:54.382219
3145  2023-11-28 13:02:54.415142
3146  2023-11-28 13:02:54.447060
3147  2023-11-28 13:02:54.494916
3148  2023-11-28 13:02:54.526809
3149  2023-11-28 13:02:54.558712
3150  2023-11-28 13:02:54.590631
3151  2023-11-28 13:02:54.622573
3152  2023-11-28 13:02:54.654457
3153  2023-11-28 13:02:54.686407
3154  2023-11-28 13:02:54.718315
3155  2023-11-28 13:02:54.750199
3156  2023-11-28 13:02:54.782361
3157  2023-11-28 13:02:54.815285
3158  2023-11-28 13:02:54.847199
3159  2023-11-28 13:02:54.896073
3160  2023-11-28 13:02:54.925943
3161  2023-11-28 13:02:54.959894
3162  2023-11-28 13:02:54.990809
3163  2023-11-28 13:02:55.021686
3164  2023-11-28 13:02:55.054634
3165  2023-11-28 13:02:55.086514
3166  2023-11-28 13:02:55.119427
3167  2023-11-28 13:02:55.150343
3168  2023-11-28 13:02:55.182257
3169  2023-11-28 13:02:55.215215
3170  2023-11-28 13:02:55.247128
3171  2023-11-28 13:02:55.293958
3172  2023-11-28 13:02:55.326904
3173  2023-11-28 13:02:55.358795
3174  2023-11-28 13:02:55.389727
3175  2023-11-28 13:02:55.422615
3176  2023-11-28 13:02:55.454530
3177  2023-11-28 13:02:55.486444
3178  2023-11-28 13:02:55.519358
3179  2023-11-28 13:02:55.550273
3180  2023-11-28 13:02:55.582188
3181  2023-11-28 13:02:55.615132
3182  2023-11-28 13:02:55.647048
3183  2023-11-28 13:02:55.695924
3184  2023-11-28 13:02:55.727843
3185  2023-11-28 13:02:55.757732
3186  2023-11-28 13:02:55.789732
3187  2023-11-28 13:02:55.821677
3188  2023-11-28 13:02:55.854550
3189  2023-11-28 13:02:55.887496
3190  2023-11-28 13:02:55.919415
3191  2023-11-28 13:02:55.951416
3192  2023-11-28 13:02:55.982299
3193  2023-11-28 13:02:56.014263
3194  2023-11-28 13:02:56.046358
3195  2023-11-28 13:02:56.094204
3196  2023-11-28 13:02:56.127151
3197  2023-11-28 13:02:56.159062
3198  2023-11-28 13:02:56.190966
3199  2023-11-28 13:02:56.221884
3200  2023-11-28 13:02:56.253798
3201  2023-11-28 13:02:56.286827
3202  2023-11-28 13:02:56.318743
3203  2023-11-28 13:02:56.351660
3204  2023-11-28 13:02:56.381542
3205  2023-11-28 13:02:56.413488
3206  2023-11-28 13:02:56.446401
3207  2023-11-28 13:02:56.494274
3208  2023-11-28 13:02:56.526242
3209  2023-11-28 13:02:56.558204
3210  2023-11-28 13:02:56.591100
3211  2023-11-28 13:02:56.622020
3212  2023-11-28 13:02:56.653937
3213  2023-11-28 13:02:56.687858
3214  2023-11-28 13:02:56.718759
3215  2023-11-28 13:02:56.750688
3216  2023-11-28 13:02:56.781629
3217  2023-11-28 13:02:56.813513
3218  2023-11-28 13:02:56.845590
3219  2023-11-28 13:02:56.894452
3220  2023-11-28 13:02:56.926346
3221  2023-11-28 13:02:56.958261
3222  2023-11-28 13:02:56.990221
3223  2023-11-28 13:02:57.022170
3224  2023-11-28 13:02:57.054081
3225  2023-11-28 13:02:57.085996
3226  2023-11-28 13:02:57.118877
3227  2023-11-28 13:02:57.150827
3228  2023-11-28 13:02:57.181741
3229  2023-11-28 13:02:57.213657
3230  2023-11-28 13:02:57.262527
3231  2023-11-28 13:02:57.294416
3232  2023-11-28 13:02:57.326355
3233  2023-11-28 13:02:57.358287
3234  2023-11-28 13:02:57.390203
3235  2023-11-28 13:02:57.422120
3236  2023-11-28 13:02:57.454012
3237  2023-11-28 13:02:57.485985
3238  2023-11-28 13:02:57.518030
3239  2023-11-28 13:02:57.549883
3240  2023-11-28 13:02:57.581830
3241  2023-11-28 13:02:57.613742
3242  2023-11-28 13:02:57.662584
3243  2023-11-28 13:02:57.694498
3244  2023-11-28 13:02:57.726414
3245  2023-11-28 13:02:57.758356
3246  2023-11-28 13:02:57.790272
3247  2023-11-28 13:02:57.822157
3248  2023-11-28 13:02:57.854121
3249  2023-11-28 13:02:57.886021
3250  2023-11-28 13:02:57.917899
3251  2023-11-28 13:02:57.949814
3252  2023-11-28 13:02:57.981772
3253  2023-11-28 13:02:58.013643
3254  2023-11-28 13:02:58.062522
3255  2023-11-28 13:02:58.094427
3256  2023-11-28 13:02:58.126385
3257  2023-11-28 13:02:58.159292
3258  2023-11-28 13:02:58.190227
3259  2023-11-28 13:02:58.222120
3260  2023-11-28 13:02:58.254112
3261  2023-11-28 13:02:58.286024
3262  2023-11-28 13:02:58.317955
3263  2023-11-28 13:02:58.349859
3264  2023-11-28 13:02:58.381771
3265  2023-11-28 13:02:58.413701
3266  2023-11-28 13:02:58.462556
3267  2023-11-28 13:02:58.494439
3268  2023-11-28 13:02:58.526468
3269  2023-11-28 13:02:58.558375
3270  2023-11-28 13:02:58.590303
3271  2023-11-28 13:02:58.622210
3272  2023-11-28 13:02:58.654123
3273  2023-11-28 13:02:58.686033
3274  2023-11-28 13:02:58.717967
3275  2023-11-28 13:02:58.749833
3276  2023-11-28 13:02:58.781784
3277  2023-11-28 13:02:58.813696
3278  2023-11-28 13:02:58.862566
3279  2023-11-28 13:02:58.894445
3280  2023-11-28 13:02:58.926394
3281  2023-11-28 13:02:58.958308
3282  2023-11-28 13:02:58.990223
3283  2023-11-28 13:02:59.022133
3284  2023-11-28 13:02:59.054051
3285  2023-11-28 13:02:59.085937
3286  2023-11-28 13:02:59.117849
3287  2023-11-28 13:02:59.149806
3288  2023-11-28 13:02:59.181714
3289  2023-11-28 13:02:59.213735
3290  2023-11-28 13:02:59.261639
3291  2023-11-28 13:02:59.293566
3292  2023-11-28 13:02:59.326456
3293  2023-11-28 13:02:59.358409
3294  2023-11-28 13:02:59.390321
3295  2023-11-28 13:02:59.422220
3296  2023-11-28 13:02:59.454201
3297  2023-11-28 13:02:59.486146
3298  2023-11-28 13:02:59.518038
3299  2023-11-28 13:02:59.549981
3300  2023-11-28 13:02:59.582040
3301  2023-11-28 13:02:59.613941
3302  2023-11-28 13:02:59.661796
3303  2023-11-28 13:02:59.693710
3304  2023-11-28 13:02:59.726665
3305  2023-11-28 13:02:59.758570
3306  2023-11-28 13:02:59.790489
3307  2023-11-28 13:02:59.822368
3308  2023-11-28 13:02:59.854282
3309  2023-11-28 13:02:59.886230
3310  2023-11-28 13:02:59.918142
3311  2023-11-28 13:02:59.950063
3312  2023-11-28 13:02:59.981681
3313  2023-11-28 13:03:00.014587
3314  2023-11-28 13:03:00.062488
3315  2023-11-28 13:03:00.094497
3316  2023-11-28 13:03:00.126435
3317  2023-11-28 13:03:00.158443
3318  2023-11-28 13:03:00.190319
3319  2023-11-28 13:03:00.222317
3320  2023-11-28 13:03:00.254323
3321  2023-11-28 13:03:00.286238
3322  2023-11-28 13:03:00.318148
3323  2023-11-28 13:03:00.350069
3324  2023-11-28 13:03:00.381979
3325  2023-11-28 13:03:00.413900
3326  2023-11-28 13:03:00.461765
3327  2023-11-28 13:03:00.493647
3328  2023-11-28 13:03:00.526745
3329  2023-11-28 13:03:00.558998
3330  2023-11-28 13:03:00.589964
3331  2023-11-28 13:03:00.621969
3332  2023-11-28 13:03:00.653853
3333  2023-11-28 13:03:00.685931
3334  2023-11-28 13:03:00.718801
3335  2023-11-28 13:03:00.750874
3336  2023-11-28 13:03:00.781778
3337  2023-11-28 13:03:00.813838
3338  2023-11-28 13:03:00.862706
3339  2023-11-28 13:03:00.894590
3340  2023-11-28 13:03:00.926506
3341  2023-11-28 13:03:00.958420
3342  2023-11-28 13:03:00.990364
3343  2023-11-28 13:03:01.022262
3344  2023-11-28 13:03:01.054163
3345  2023-11-28 13:03:01.086077
3346  2023-11-28 13:03:01.117992
3347  2023-11-28 13:03:01.149954
3348  2023-11-28 13:03:01.181854
3349  2023-11-28 13:03:01.230824
3350  2023-11-28 13:03:01.261742
3351  2023-11-28 13:03:01.293653
3352  2023-11-28 13:03:01.325567
3353  2023-11-28 13:03:01.358452
3354  2023-11-28 13:03:01.390414
3355  2023-11-28 13:03:01.422281
3356  2023-11-28 13:03:01.454232
3357  2023-11-28 13:03:01.486142
3358  2023-11-28 13:03:01.518056
3359  2023-11-28 13:03:01.549970
3360  2023-11-28 13:03:01.581886
3361  2023-11-28 13:03:01.630755
3362  2023-11-28 13:03:01.662668
3363  2023-11-28 13:03:01.694580
3364  2023-11-28 13:03:01.725502
3365  2023-11-28 13:03:01.758412
3366  2023-11-28 13:03:01.790325
3367  2023-11-28 13:03:01.822240
3368  2023-11-28 13:03:01.854163
3369  2023-11-28 13:03:01.886071
3370  2023-11-28 13:03:01.918018
3371  2023-11-28 13:03:01.949904
3372  2023-11-28 13:03:01.981832
3373  2023-11-28 13:03:02.030653
3374  2023-11-28 13:03:02.062607
3375  2023-11-28 13:03:02.094483
3376  2023-11-28 13:03:02.126427
3377  2023-11-28 13:03:02.158311
3378  2023-11-28 13:03:02.190261
3379  2023-11-28 13:03:02.222141
3380  2023-11-28 13:03:02.254056
3381  2023-11-28 13:03:02.285983
3382  2023-11-28 13:03:02.317918
3383  2023-11-28 13:03:02.349831
3384  2023-11-28 13:03:02.381756
3385  2023-11-28 13:03:02.430584
3386  2023-11-28 13:03:02.462533
3387  2023-11-28 13:03:02.494461
3388  2023-11-28 13:03:02.526329
3389  2023-11-28 13:03:02.558275
3390  2023-11-28 13:03:02.590192
3391  2023-11-28 13:03:02.622106
3392  2023-11-28 13:03:02.654018
3393  2023-11-28 13:03:02.685953
3394  2023-11-28 13:03:02.717865
3395  2023-11-28 13:03:02.749902
3396  2023-11-28 13:03:02.781806
3397  2023-11-28 13:03:02.829719
3398  2023-11-28 13:03:02.861757
3399  2023-11-28 13:03:02.893656
3400  2023-11-28 13:03:02.926532
3401  2023-11-28 13:03:02.957499
3402  2023-11-28 13:03:02.990362
3403  2023-11-28 13:03:03.022336
3404  2023-11-28 13:03:03.054231
3405  2023-11-28 13:03:03.086106
3406  2023-11-28 13:03:03.118061
3407  2023-11-28 13:03:03.149959
3408  2023-11-28 13:03:03.181882
3409  2023-11-28 13:03:03.230751
3410  2023-11-28 13:03:03.261636
3411  2023-11-28 13:03:03.294549
3412  2023-11-28 13:03:03.326498
3413  2023-11-28 13:03:03.358409
3414  2023-11-28 13:03:03.390326
3415  2023-11-28 13:03:03.422236
3416  2023-11-28 13:03:03.454123
3417  2023-11-28 13:03:03.486038
3418  2023-11-28 13:03:03.517952
3419  2023-11-28 13:03:03.549930
3420  2023-11-28 13:03:03.581835
3421  2023-11-28 13:03:03.629688
3422  2023-11-28 13:03:03.662600
3423  2023-11-28 13:03:03.694514
3424  2023-11-28 13:03:03.726428
3425  2023-11-28 13:03:03.758341
3426  2023-11-28 13:03:03.790261
3427  2023-11-28 13:03:03.822143
3428  2023-11-28 13:03:03.854054
3429  2023-11-28 13:03:03.885998
3430  2023-11-28 13:03:03.917919
3431  2023-11-28 13:03:03.949836
3432  2023-11-28 13:03:03.981781
3433  2023-11-28 13:03:04.029672
3434  2023-11-28 13:03:04.061662
3435  2023-11-28 13:03:04.093598
3436  2023-11-28 13:03:04.126526
3437  2023-11-28 13:03:04.158429
3438  2023-11-28 13:03:04.190395
3439  2023-11-28 13:03:04.222352
3440  2023-11-28 13:03:04.254223
3441  2023-11-28 13:03:04.286140
3442  2023-11-28 13:03:04.319147
3443  2023-11-28 13:03:04.350050
3444  2023-11-28 13:03:04.381982
3445  2023-11-28 13:03:04.430832
3446  2023-11-28 13:03:04.461750
3447  2023-11-28 13:03:04.493670
3448  2023-11-28 13:03:04.526545
3449  2023-11-28 13:03:04.558519
3450  2023-11-28 13:03:04.590406
3451  2023-11-28 13:03:04.622329
3452  2023-11-28 13:03:04.654244
3453  2023-11-28 13:03:04.686119
3454  2023-11-28 13:03:04.718065
3455  2023-11-28 13:03:04.750002
3456  2023-11-28 13:03:04.781893
3457  2023-11-28 13:03:04.829767
3458  2023-11-28 13:03:04.862647
3459  2023-11-28 13:03:04.894562
3460  2023-11-28 13:03:04.925478
3461  2023-11-28 13:03:04.958473
3462  2023-11-28 13:03:04.990417
3463  2023-11-28 13:03:05.022446
3464  2023-11-28 13:03:05.054390
3465  2023-11-28 13:03:05.086298
3466  2023-11-28 13:03:05.118212
3467  2023-11-28 13:03:05.150129
3468  2023-11-28 13:03:05.197971
3469  2023-11-28 13:03:05.229921
3470  2023-11-28 13:03:05.261834
3471  2023-11-28 13:03:05.293773
3472  2023-11-28 13:03:05.326656
3473  2023-11-28 13:03:05.357665
3474  2023-11-28 13:03:05.389644
3475  2023-11-28 13:03:05.421555
3476  2023-11-28 13:03:05.454466
3477  2023-11-28 13:03:05.486382
3478  2023-11-28 13:03:05.518297
3479  2023-11-28 13:03:05.550230
3480  2023-11-28 13:03:05.598053
3481  2023-11-28 13:03:05.630001
3482  2023-11-28 13:03:05.661929
3483  2023-11-28 13:03:05.693827
3484  2023-11-28 13:03:05.725747
3485  2023-11-28 13:03:05.757659
3486  2023-11-28 13:03:05.789540
3487  2023-11-28 13:03:05.822484
3488  2023-11-28 13:03:05.854402
3489  2023-11-28 13:03:05.886318
3490  2023-11-28 13:03:05.918229
3491  2023-11-28 13:03:05.950112
3492  2023-11-28 13:03:05.997984
3493  2023-11-28 13:03:06.029934
3494  2023-11-28 13:03:06.062842
3495  2023-11-28 13:03:06.093727
3496  2023-11-28 13:03:06.125679
3497  2023-11-28 13:03:06.157558
3498  2023-11-28 13:03:06.190468
3499  2023-11-28 13:03:06.222385
3500  2023-11-28 13:03:06.254331
3501  2023-11-28 13:03:06.286244
3502  2023-11-28 13:03:06.318129
3503  2023-11-28 13:03:06.350069
3504  2023-11-28 13:03:06.397961
3505  2023-11-28 13:03:06.429959
3506  2023-11-28 13:03:06.461837
3507  2023-11-28 13:03:06.493753
3508  2023-11-28 13:03:06.525667
3509  2023-11-28 13:03:06.557579
3510  2023-11-28 13:03:06.589666
3511  2023-11-28 13:03:06.621546
3512  2023-11-28 13:03:06.654523
3513  2023-11-28 13:03:06.686371
3514  2023-11-28 13:03:06.718315
3515  2023-11-28 13:03:06.750236
3516  2023-11-28 13:03:06.798188
3517  2023-11-28 13:03:06.830104
3518  2023-11-28 13:03:06.862018
3519  2023-11-28 13:03:06.893936
3520  2023-11-28 13:03:06.925847
3521  2023-11-28 13:03:06.957899
3522  2023-11-28 13:03:06.989814
3523  2023-11-28 13:03:07.021760
3524  2023-11-28 13:03:07.053645
3525  2023-11-28 13:03:07.085596
3526  2023-11-28 13:03:07.118510
3527  2023-11-28 13:03:07.150425
3528  2023-11-28 13:03:07.198297
3529  2023-11-28 13:03:07.230212
3530  2023-11-28 13:03:07.262126
3531  2023-11-28 13:03:07.294040
3532  2023-11-28 13:03:07.326072
3533  2023-11-28 13:03:07.358023
3534  2023-11-28 13:03:07.389918
3535  2023-11-28 13:03:07.421818
3536  2023-11-28 13:03:07.453731
3537  2023-11-28 13:03:07.485644
3538  2023-11-28 13:03:07.517620
3539  2023-11-28 13:03:07.550504
3540  2023-11-28 13:03:07.598344
3541  2023-11-28 13:03:07.630260
3542  2023-11-28 13:03:07.662110
3543  2023-11-28 13:03:07.694066
3544  2023-11-28 13:03:07.726017
3545  2023-11-28 13:03:07.758034
3546  2023-11-28 13:03:07.789913
3547  2023-11-28 13:03:07.821826
3548  2023-11-28 13:03:07.853863
3549  2023-11-28 13:03:07.885866
3550  2023-11-28 13:03:07.917781
3551  2023-11-28 13:03:07.949742
3552  2023-11-28 13:03:07.997659
3553  2023-11-28 13:03:08.030527
3554  2023-11-28 13:03:08.062488
3555  2023-11-28 13:03:08.094390
3556  2023-11-28 13:03:08.126303
3557  2023-11-28 13:03:08.158289
3558  2023-11-28 13:03:08.190170
3559  2023-11-28 13:03:08.222084
3560  2023-11-28 13:03:08.254028
3561  2023-11-28 13:03:08.286021
