
1  2023-11-28 13:01:09.187659
2  2023-11-28 13:01:09.234533
3  2023-11-28 13:01:09.265535
4  2023-11-28 13:01:09.313408
5  2023-11-28 13:01:09.345322
6  2023-11-28 13:01:09.392534
7  2023-11-28 13:01:09.439365
8  2023-11-28 13:01:09.471493
9  2023-11-28 13:01:09.519337
10  2023-11-28 13:01:09.567229
11  2023-11-28 13:01:09.599113
12  2023-11-28 13:01:09.647034
13  2023-11-28 13:01:09.678939
14  2023-11-28 13:01:09.726811
15  2023-11-28 13:01:09.772688
16  2023-11-28 13:01:09.804602
17  2023-11-28 13:01:09.849482
18  2023-11-28 13:01:09.896357
19  2023-11-28 13:01:09.928272
20  2023-11-28 13:01:09.976152
21  2023-11-28 13:01:10.024049
22  2023-11-28 13:01:10.055962
23  2023-11-28 13:01:10.103923
24  2023-11-28 13:01:10.150237
25  2023-11-28 13:01:10.182255
26  2023-11-28 13:01:10.229992
27  2023-11-28 13:01:10.261907
28  2023-11-28 13:01:10.309779
29  2023-11-28 13:01:10.357685
30  2023-11-28 13:01:10.389651
31  2023-11-28 13:01:10.437485
32  2023-11-28 13:01:10.484499
33  2023-11-28 13:01:10.516271
34  2023-11-28 13:01:10.564178
35  2023-11-28 13:01:10.596058
36  2023-11-28 13:01:10.643966
37  2023-11-28 13:01:10.691802
38  2023-11-28 13:01:10.723717
39  2023-11-28 13:01:10.769618
40  2023-11-28 13:01:10.815803
41  2023-11-28 13:01:10.847772
42  2023-11-28 13:01:10.895644
43  2023-11-28 13:01:10.941558
44  2023-11-28 13:01:10.973486
45  2023-11-28 13:01:11.021422
46  2023-11-28 13:01:11.053312
47  2023-11-28 13:01:11.101145
48  2023-11-28 13:01:11.149017
49  2023-11-28 13:01:11.180932
50  2023-11-28 13:01:11.228805
51  2023-11-28 13:01:11.276676
52  2023-11-28 13:01:11.308590
53  2023-11-28 13:01:11.356463
54  2023-11-28 13:01:11.388378
55  2023-11-28 13:01:11.436348
56  2023-11-28 13:01:11.483270
57  2023-11-28 13:01:11.514140
58  2023-11-28 13:01:11.562014
59  2023-11-28 13:01:11.638775
60  2023-11-28 13:01:11.642766
61  2023-11-28 13:01:11.687772
62  2023-11-28 13:01:11.719687
63  2023-11-28 13:01:11.767562
64  2023-11-28 13:01:11.815389
65  2023-11-28 13:01:11.847490
66  2023-11-28 13:01:11.894179
67  2023-11-28 13:01:11.941055
68  2023-11-28 13:01:11.971971
69  2023-11-28 13:01:12.019883
70  2023-11-28 13:01:12.067715
71  2023-11-28 13:01:12.099630
72  2023-11-28 13:01:12.147501
73  2023-11-28 13:01:12.179416
74  2023-11-28 13:01:12.227320
75  2023-11-28 13:01:12.274163
76  2023-11-28 13:01:12.305080
77  2023-11-28 13:01:12.352953
78  2023-11-28 13:01:12.400865
79  2023-11-28 13:01:12.432773
80  2023-11-28 13:01:12.480611
81  2023-11-28 13:01:12.512563
82  2023-11-28 13:01:12.560398
83  2023-11-28 13:01:12.608269
84  2023-11-28 13:01:12.640286
85  2023-11-28 13:01:12.688046
86  2023-11-28 13:01:12.747889
87  2023-11-28 13:01:12.765887
88  2023-11-28 13:01:12.812796
89  2023-11-28 13:01:12.844711
90  2023-11-28 13:01:12.889590
91  2023-11-28 13:01:12.936511
92  2023-11-28 13:01:12.984382
93  2023-11-28 13:01:13.016252
94  2023-11-28 13:01:13.064124
95  2023-11-28 13:01:13.096081
96  2023-11-28 13:01:13.144123
97  2023-11-28 13:01:13.191828
98  2023-11-28 13:01:13.223740
99  2023-11-28 13:01:13.269622
100  2023-11-28 13:01:13.317492
101  2023-11-28 13:01:13.349408
102  2023-11-28 13:01:13.396238
103  2023-11-28 13:01:13.428204
104  2023-11-28 13:01:13.476023
105  2023-11-28 13:01:13.523945
106  2023-11-28 13:01:13.555810
107  2023-11-28 13:01:13.603755
108  2023-11-28 13:01:13.650669
109  2023-11-28 13:01:13.681587
110  2023-11-28 13:01:13.729547
111  2023-11-28 13:01:13.761450
112  2023-11-28 13:01:13.809289
113  2023-11-28 13:01:13.857194
114  2023-11-28 13:01:13.889126
115  2023-11-28 13:01:13.936949
116  2023-11-28 13:01:13.984820
117  2023-11-28 13:01:14.016734
118  2023-11-28 13:01:14.064611
119  2023-11-28 13:01:14.109487
120  2023-11-28 13:01:14.141401
121  2023-11-28 13:01:14.189274
122  2023-11-28 13:01:14.221169
123  2023-11-28 13:01:14.269161
124  2023-11-28 13:01:14.315131
125  2023-11-28 13:01:14.347045
126  2023-11-28 13:01:14.394917
127  2023-11-28 13:01:14.442789
128  2023-11-28 13:01:14.474704
129  2023-11-28 13:01:14.522576
130  2023-11-28 13:01:14.553533
131  2023-11-28 13:01:14.600368
132  2023-11-28 13:01:14.648240
133  2023-11-28 13:01:14.680195
134  2023-11-28 13:01:14.728083
135  2023-11-28 13:01:14.775942
136  2023-11-28 13:01:14.806846
137  2023-11-28 13:01:14.853691
138  2023-11-28 13:01:14.901563
139  2023-11-28 13:01:14.937530
140  2023-11-28 13:01:14.981349
141  2023-11-28 13:01:15.013277
142  2023-11-28 13:01:15.061167
143  2023-11-28 13:01:15.108051
144  2023-11-28 13:01:15.140075
145  2023-11-28 13:01:15.187828
146  2023-11-28 13:01:15.219712
147  2023-11-28 13:01:15.265590
148  2023-11-28 13:01:15.313462
149  2023-11-28 13:01:15.345376
150  2023-11-28 13:01:15.393302
151  2023-11-28 13:01:15.441120
152  2023-11-28 13:01:15.473035
153  2023-11-28 13:01:15.520940
154  2023-11-28 13:01:15.567782
155  2023-11-28 13:01:15.598702
156  2023-11-28 13:01:15.646571
157  2023-11-28 13:01:15.678486
158  2023-11-28 13:01:15.726399
159  2023-11-28 13:01:15.774230
160  2023-11-28 13:01:15.806145
161  2023-11-28 13:01:15.854017
162  2023-11-28 13:01:15.901889
163  2023-11-28 13:01:15.933803
164  2023-11-28 13:01:15.981675
165  2023-11-28 13:01:16.013602
166  2023-11-28 13:01:16.061511
167  2023-11-28 13:01:16.109336
168  2023-11-28 13:01:16.141249
169  2023-11-28 13:01:16.189155
170  2023-11-28 13:01:16.221036
171  2023-11-28 13:01:16.265915
172  2023-11-28 13:01:16.312839
173  2023-11-28 13:01:16.344766
174  2023-11-28 13:01:16.392664
175  2023-11-28 13:01:16.440624
176  2023-11-28 13:01:16.472529
177  2023-11-28 13:01:16.519417
178  2023-11-28 13:01:16.566409
179  2023-11-28 13:01:16.598327
180  2023-11-28 13:01:16.646186
181  2023-11-28 13:01:16.678102
182  2023-11-28 13:01:16.725444
183  2023-11-28 13:01:16.772275
184  2023-11-28 13:01:16.804237
185  2023-11-28 13:01:16.851110
186  2023-11-28 13:01:16.897061
187  2023-11-28 13:01:16.928978
188  2023-11-28 13:01:16.976981
189  2023-11-28 13:01:17.024782
190  2023-11-28 13:01:17.056691
191  2023-11-28 13:01:17.104618
192  2023-11-28 13:01:17.136533
193  2023-11-28 13:01:17.184531
194  2023-11-28 13:01:17.232448
195  2023-11-28 13:01:17.264361
196  2023-11-28 13:01:17.312190
197  2023-11-28 13:01:17.360102
198  2023-11-28 13:01:17.392010
199  2023-11-28 13:01:17.439919
200  2023-11-28 13:01:17.471834
201  2023-11-28 13:01:17.519746
202  2023-11-28 13:01:17.567609
203  2023-11-28 13:01:17.599493
204  2023-11-28 13:01:17.647365
205  2023-11-28 13:01:17.679279
206  2023-11-28 13:01:17.726186
207  2023-11-28 13:01:17.774026
208  2023-11-28 13:01:17.805940
209  2023-11-28 13:01:17.853813
210  2023-11-28 13:01:17.901685
211  2023-11-28 13:01:17.933599
212  2023-11-28 13:01:17.981471
213  2023-11-28 13:01:18.015382
214  2023-11-28 13:01:18.061258
215  2023-11-28 13:01:18.109130
216  2023-11-28 13:01:18.140047
217  2023-11-28 13:01:18.186003
218  2023-11-28 13:01:18.232836
219  2023-11-28 13:01:18.263750
220  2023-11-28 13:01:18.310664
221  2023-11-28 13:01:18.358496
222  2023-11-28 13:01:18.390452
223  2023-11-28 13:01:18.436433
224  2023-11-28 13:01:18.484301
225  2023-11-28 13:01:18.516223
226  2023-11-28 13:01:18.564287
227  2023-11-28 13:01:18.596303
228  2023-11-28 13:01:18.644128
229  2023-11-28 13:01:18.692042
230  2023-11-28 13:01:18.723956
231  2023-11-28 13:01:18.771818
232  2023-11-28 13:01:18.803706
233  2023-11-28 13:01:18.851621
234  2023-11-28 13:01:18.899446
235  2023-11-28 13:01:18.931403
236  2023-11-28 13:01:18.979274
237  2023-11-28 13:01:19.026155
238  2023-11-28 13:01:19.057087
239  2023-11-28 13:01:19.125841
240  2023-11-28 13:01:19.150774
241  2023-11-28 13:01:19.181691
242  2023-11-28 13:01:19.229564
243  2023-11-28 13:01:19.261514
244  2023-11-28 13:01:19.309350
245  2023-11-28 13:01:19.357223
246  2023-11-28 13:01:19.389138
247  2023-11-28 13:01:19.437009
248  2023-11-28 13:01:19.484882
249  2023-11-28 13:01:19.516797
250  2023-11-28 13:01:19.564778
251  2023-11-28 13:01:19.596822
252  2023-11-28 13:01:19.644694
253  2023-11-28 13:01:19.693565
254  2023-11-28 13:01:19.723518
255  2023-11-28 13:01:19.771356
256  2023-11-28 13:01:19.817233
257  2023-11-28 13:01:19.849148
258  2023-11-28 13:01:19.895074
259  2023-11-28 13:01:19.942897
260  2023-11-28 13:01:19.974830
261  2023-11-28 13:01:20.021738
262  2023-11-28 13:01:20.068624
263  2023-11-28 13:01:20.100548
264  2023-11-28 13:01:20.147901
265  2023-11-28 13:01:20.212682
266  2023-11-28 13:01:20.225682
267  2023-11-28 13:01:20.273561
268  2023-11-28 13:01:20.304484
269  2023-11-28 13:01:20.350314
270  2023-11-28 13:01:20.398219
271  2023-11-28 13:01:20.430102
272  2023-11-28 13:01:20.477973
273  2023-11-28 13:01:20.526005
274  2023-11-28 13:01:20.557897
275  2023-11-28 13:01:20.603875
276  2023-11-28 13:01:20.651747
277  2023-11-28 13:01:20.683727
278  2023-11-28 13:01:20.731646
279  2023-11-28 13:01:20.763562
280  2023-11-28 13:01:20.809438
281  2023-11-28 13:01:20.857310
282  2023-11-28 13:01:20.889225
283  2023-11-28 13:01:20.937097
284  2023-11-28 13:01:20.984969
285  2023-11-28 13:01:21.016884
286  2023-11-28 13:01:21.064756
287  2023-11-28 13:01:21.096671
288  2023-11-28 13:01:21.144542
289  2023-11-28 13:01:21.192415
290  2023-11-28 13:01:21.224329
291  2023-11-28 13:01:21.272201
292  2023-11-28 13:01:21.304167
293  2023-11-28 13:01:21.352050
294  2023-11-28 13:01:21.400018
295  2023-11-28 13:01:21.431971
296  2023-11-28 13:01:21.479892
297  2023-11-28 13:01:21.511807
298  2023-11-28 13:01:21.559748
299  2023-11-28 13:01:21.607696
300  2023-11-28 13:01:21.639628
301  2023-11-28 13:01:21.687500
302  2023-11-28 13:01:21.734416
303  2023-11-28 13:01:21.766386
304  2023-11-28 13:01:21.814259
305  2023-11-28 13:01:21.846174
306  2023-11-28 13:01:21.894090
307  2023-11-28 13:01:21.941918
308  2023-11-28 13:01:21.973833
309  2023-11-28 13:01:22.021754
310  2023-11-28 13:01:22.053749
311  2023-11-28 13:01:22.101636
312  2023-11-28 13:01:22.149573
313  2023-11-28 13:01:22.181488
314  2023-11-28 13:01:22.228425
315  2023-11-28 13:01:22.274367
316  2023-11-28 13:01:22.338150
317  2023-11-28 13:01:22.353111
318  2023-11-28 13:01:22.401031
319  2023-11-28 13:01:22.433044
320  2023-11-28 13:01:22.480902
321  2023-11-28 13:01:22.512821
322  2023-11-28 13:01:22.560687
323  2023-11-28 13:01:22.608564
324  2023-11-28 13:01:22.640478
325  2023-11-28 13:01:22.687345
326  2023-11-28 13:01:22.734186
327  2023-11-28 13:01:22.764106
328  2023-11-28 13:01:22.811977
329  2023-11-28 13:01:22.856857
330  2023-11-28 13:01:22.887775
331  2023-11-28 13:01:22.935700
332  2023-11-28 13:01:22.983519
333  2023-11-28 13:01:23.015493
334  2023-11-28 13:01:23.063580
335  2023-11-28 13:01:23.095537
336  2023-11-28 13:01:23.143423
337  2023-11-28 13:01:23.191251
338  2023-11-28 13:01:23.223265
339  2023-11-28 13:01:23.271215
340  2023-11-28 13:01:23.303163
341  2023-11-28 13:01:23.351123
342  2023-11-28 13:01:23.398995
343  2023-11-28 13:01:23.435898
344  2023-11-28 13:01:23.478781
345  2023-11-28 13:01:23.526700
346  2023-11-28 13:01:23.558611
347  2023-11-28 13:01:23.606438
348  2023-11-28 13:01:23.638353
349  2023-11-28 13:01:23.686225
350  2023-11-28 13:01:23.734134
351  2023-11-28 13:01:23.766058
352  2023-11-28 13:01:23.811889
353  2023-11-28 13:01:23.857896
354  2023-11-28 13:01:23.889766
355  2023-11-28 13:01:23.937643
356  2023-11-28 13:01:23.969728
357  2023-11-28 13:01:24.017591
358  2023-11-28 13:01:24.065421
359  2023-11-28 13:01:24.097387
360  2023-11-28 13:01:24.145381
361  2023-11-28 13:01:24.193214
362  2023-11-28 13:01:24.225162
363  2023-11-28 13:01:24.273174
364  2023-11-28 13:01:24.305092
365  2023-11-28 13:01:24.351994
366  2023-11-28 13:01:24.399876
367  2023-11-28 13:01:24.431787
368  2023-11-28 13:01:24.478748
369  2023-11-28 13:01:24.530659
370  2023-11-28 13:01:24.556576
371  2023-11-28 13:01:24.603414
372  2023-11-28 13:01:24.651290
373  2023-11-28 13:01:24.681206
374  2023-11-28 13:01:24.729213
375  2023-11-28 13:01:24.775953
376  2023-11-28 13:01:24.806870
377  2023-11-28 13:01:24.852748
378  2023-11-28 13:01:24.899661
379  2023-11-28 13:01:24.929584
380  2023-11-28 13:01:24.977415
381  2023-11-28 13:01:25.024559
382  2023-11-28 13:01:25.055446
383  2023-11-28 13:01:25.102362
384  2023-11-28 13:01:25.149437
385  2023-11-28 13:01:25.180276
386  2023-11-28 13:01:25.228101
387  2023-11-28 13:01:25.275971
388  2023-11-28 13:01:25.305891
389  2023-11-28 13:01:25.351769
390  2023-11-28 13:01:25.399687
391  2023-11-28 13:01:25.431556
392  2023-11-28 13:01:25.479427
393  2023-11-28 13:01:25.511342
394  2023-11-28 13:01:25.559214
395  2023-11-28 13:01:25.608084
396  2023-11-28 13:01:25.637006
397  2023-11-28 13:01:25.684878
398  2023-11-28 13:01:25.732886
399  2023-11-28 13:01:25.764798
400  2023-11-28 13:01:25.812797
401  2023-11-28 13:01:25.859357
402  2023-11-28 13:01:25.890310
403  2023-11-28 13:01:25.938175
404  2023-11-28 13:01:25.970138
405  2023-11-28 13:01:26.018015
406  2023-11-28 13:01:26.065958
407  2023-11-28 13:01:26.097873
408  2023-11-28 13:01:26.145806
409  2023-11-28 13:01:26.192723
410  2023-11-28 13:01:26.223629
411  2023-11-28 13:01:26.271518
412  2023-11-28 13:01:26.303523
413  2023-11-28 13:01:26.350482
414  2023-11-28 13:01:26.397703
415  2023-11-28 13:01:26.428644
416  2023-11-28 13:01:26.474629
417  2023-11-28 13:01:26.523550
418  2023-11-28 13:01:26.554416
419  2023-11-28 13:01:26.602288
420  2023-11-28 13:01:26.649163
421  2023-11-28 13:01:26.701025
422  2023-11-28 13:01:26.727952
423  2023-11-28 13:01:26.775950
424  2023-11-28 13:01:26.807865
425  2023-11-28 13:01:26.855737
426  2023-11-28 13:01:26.886770
427  2023-11-28 13:01:26.933599
428  2023-11-28 13:01:26.980522
429  2023-11-28 13:01:27.011440
430  2023-11-28 13:01:27.058360
431  2023-11-28 13:01:27.105189
432  2023-11-28 13:01:27.137104
433  2023-11-28 13:01:27.185021
434  2023-11-28 13:01:27.232885
435  2023-11-28 13:01:27.264801
436  2023-11-28 13:01:27.312682
437  2023-11-28 13:01:27.359511
438  2023-11-28 13:01:27.390459
439  2023-11-28 13:01:27.438330
440  2023-11-28 13:01:27.470245
441  2023-11-28 13:01:27.518121
442  2023-11-28 13:01:27.566032
443  2023-11-28 13:01:27.595913
444  2023-11-28 13:01:27.643799
445  2023-11-28 13:01:27.691625
446  2023-11-28 13:01:27.723538
447  2023-11-28 13:01:27.787370
448  2023-11-28 13:01:27.817285
449  2023-11-28 13:01:27.849200
450  2023-11-28 13:01:27.897072
451  2023-11-28 13:01:27.928987
452  2023-11-28 13:01:27.976859
453  2023-11-28 13:01:28.024731
454  2023-11-28 13:01:28.056645
455  2023-11-28 13:01:28.104518
456  2023-11-28 13:01:28.136432
457  2023-11-28 13:01:28.184304
458  2023-11-28 13:01:28.232257
459  2023-11-28 13:01:28.263265
460  2023-11-28 13:01:28.309096
461  2023-11-28 13:01:28.356063
462  2023-11-28 13:01:28.387977
463  2023-11-28 13:01:28.435849
464  2023-11-28 13:01:28.483769
465  2023-11-28 13:01:28.515684
466  2023-11-28 13:01:28.563599
467  2023-11-28 13:01:28.595504
468  2023-11-28 13:01:28.643343
469  2023-11-28 13:01:28.691261
470  2023-11-28 13:01:28.723275
471  2023-11-28 13:01:28.771182
472  2023-11-28 13:01:28.803098
473  2023-11-28 13:01:28.850978
474  2023-11-28 13:01:28.897890
475  2023-11-28 13:01:28.929836
476  2023-11-28 13:01:28.977747
477  2023-11-28 13:01:29.025619
478  2023-11-28 13:01:29.057535
479  2023-11-28 13:01:29.104409
480  2023-11-28 13:01:29.151308
481  2023-11-28 13:01:29.183258
482  2023-11-28 13:01:29.231114
483  2023-11-28 13:01:29.263039
484  2023-11-28 13:01:29.311006
485  2023-11-28 13:01:29.356960
486  2023-11-28 13:01:29.388875
487  2023-11-28 13:01:29.436745
488  2023-11-28 13:01:29.484588
489  2023-11-28 13:01:29.516528
490  2023-11-28 13:01:29.565371
491  2023-11-28 13:01:29.596325
492  2023-11-28 13:01:29.644160
493  2023-11-28 13:01:29.692032
494  2023-11-28 13:01:29.723948
495  2023-11-28 13:01:29.771849
496  2023-11-28 13:01:29.803765
497  2023-11-28 13:01:29.850608
498  2023-11-28 13:01:29.897717
499  2023-11-28 13:01:29.928581
500  2023-11-28 13:01:29.981446
501  2023-11-28 13:01:30.022331
502  2023-11-28 13:01:30.054245
503  2023-11-28 13:01:30.102148
504  2023-11-28 13:01:30.149990
505  2023-11-28 13:01:30.181027
506  2023-11-28 13:01:30.228821
507  2023-11-28 13:01:30.276803
508  2023-11-28 13:01:30.308717
509  2023-11-28 13:01:30.356634
510  2023-11-28 13:01:30.388582
511  2023-11-28 13:01:30.434496
512  2023-11-28 13:01:30.482332
513  2023-11-28 13:01:30.514246
514  2023-11-28 13:01:30.561169
515  2023-11-28 13:01:30.608155
516  2023-11-28 13:01:30.639924
517  2023-11-28 13:01:30.687842
518  2023-11-28 13:01:30.719742
519  2023-11-28 13:01:30.766617
520  2023-11-28 13:01:30.813502
521  2023-11-28 13:01:30.845410
522  2023-11-28 13:01:30.893278
523  2023-11-28 13:01:30.941166
524  2023-11-28 13:01:30.973070
525  2023-11-28 13:01:31.020905
526  2023-11-28 13:01:31.071773
527  2023-11-28 13:01:31.098732
528  2023-11-28 13:01:31.146611
529  2023-11-28 13:01:31.178484
530  2023-11-28 13:01:31.224362
531  2023-11-28 13:01:31.272392
532  2023-11-28 13:01:31.304150
533  2023-11-28 13:01:31.352021
534  2023-11-28 13:01:31.399932
535  2023-11-28 13:01:31.431838
536  2023-11-28 13:01:31.479716
537  2023-11-28 13:01:31.511698
538  2023-11-28 13:01:31.557683
539  2023-11-28 13:01:31.604634
540  2023-11-28 13:01:31.651463
541  2023-11-28 13:01:31.683377
542  2023-11-28 13:01:31.731249
543  2023-11-28 13:01:31.763205
544  2023-11-28 13:01:31.811036
545  2023-11-28 13:01:31.858941
546  2023-11-28 13:01:31.890863
547  2023-11-28 13:01:31.938695
548  2023-11-28 13:01:31.970771
549  2023-11-28 13:01:32.018481
550  2023-11-28 13:01:32.066394
551  2023-11-28 13:01:32.098311
552  2023-11-28 13:01:32.163098
553  2023-11-28 13:01:32.178092
554  2023-11-28 13:01:32.226037
555  2023-11-28 13:01:32.273911
556  2023-11-28 13:01:32.305898
557  2023-11-28 13:01:32.353837
558  2023-11-28 13:01:32.401747
559  2023-11-28 13:01:32.433766
560  2023-11-28 13:01:32.480673
561  2023-11-28 13:01:32.511590
562  2023-11-28 13:01:32.558465
563  2023-11-28 13:01:32.605340
564  2023-11-28 13:01:32.637373
565  2023-11-28 13:01:32.685206
566  2023-11-28 13:01:32.733128
567  2023-11-28 13:01:32.765061
568  2023-11-28 13:01:32.811983
569  2023-11-28 13:01:32.857958
570  2023-11-28 13:01:32.889025
571  2023-11-28 13:01:32.936895
572  2023-11-28 13:01:32.984769
573  2023-11-28 13:01:33.016862
574  2023-11-28 13:01:33.064541
575  2023-11-28 13:01:33.109391
576  2023-11-28 13:01:33.141312
577  2023-11-28 13:01:33.188180
578  2023-11-28 13:01:33.256000
579  2023-11-28 13:01:33.266972
580  2023-11-28 13:01:33.314842
581  2023-11-28 13:01:33.346756
582  2023-11-28 13:01:33.394665
583  2023-11-28 13:01:33.442642
584  2023-11-28 13:01:33.472562
585  2023-11-28 13:01:33.520434
586  2023-11-28 13:01:33.568340
587  2023-11-28 13:01:33.600252
588  2023-11-28 13:01:33.648093
589  2023-11-28 13:01:33.680112
590  2023-11-28 13:01:33.728128
591  2023-11-28 13:01:33.776142
592  2023-11-28 13:01:33.808057
593  2023-11-28 13:01:33.856138
594  2023-11-28 13:01:33.887845
595  2023-11-28 13:01:33.935715
596  2023-11-28 13:01:33.983587
597  2023-11-28 13:01:34.014505
598  2023-11-28 13:01:34.062411
599  2023-11-28 13:01:34.110249
600  2023-11-28 13:01:34.141200
601  2023-11-28 13:01:34.188041
602  2023-11-28 13:01:34.219986
603  2023-11-28 13:01:34.267858
604  2023-11-28 13:01:34.315700
605  2023-11-28 13:01:34.408454
606  2023-11-28 13:01:34.443364
607  2023-11-28 13:01:34.475313
608  2023-11-28 13:01:34.521201
609  2023-11-28 13:01:34.553065
610  2023-11-28 13:01:34.600972
611  2023-11-28 13:01:34.648853
612  2023-11-28 13:01:34.680768
613  2023-11-28 13:01:34.728638
614  2023-11-28 13:01:34.776505
615  2023-11-28 13:01:34.808413
616  2023-11-28 13:01:34.856289
617  2023-11-28 13:01:34.888214
618  2023-11-28 13:01:34.936043
619  2023-11-28 13:01:34.981919
620  2023-11-28 13:01:35.013834
621  2023-11-28 13:01:35.061819
622  2023-11-28 13:01:35.106743
623  2023-11-28 13:01:35.138658
624  2023-11-28 13:01:35.186530
625  2023-11-28 13:01:35.234454
626  2023-11-28 13:01:35.266357
627  2023-11-28 13:01:35.314189
628  2023-11-28 13:01:35.346104
629  2023-11-28 13:01:35.394007
630  2023-11-28 13:01:35.440850
631  2023-11-28 13:01:35.472766
632  2023-11-28 13:01:35.518675
633  2023-11-28 13:01:35.565549
634  2023-11-28 13:01:35.596435
635  2023-11-28 13:01:35.644307
636  2023-11-28 13:01:35.691181
637  2023-11-28 13:01:35.722288
638  2023-11-28 13:01:35.770005
639  2023-11-28 13:01:35.817871
640  2023-11-28 13:01:35.849797
641  2023-11-28 13:01:35.897663
642  2023-11-28 13:01:35.929580
643  2023-11-28 13:01:35.977457
644  2023-11-28 13:01:36.025290
645  2023-11-28 13:01:36.057245
646  2023-11-28 13:01:36.104110
647  2023-11-28 13:01:36.150952
648  2023-11-28 13:01:36.182867
649  2023-11-28 13:01:36.230772
650  2023-11-28 13:01:36.262692
651  2023-11-28 13:01:36.310556
652  2023-11-28 13:01:36.358398
653  2023-11-28 13:01:36.390312
654  2023-11-28 13:01:36.438217
655  2023-11-28 13:01:36.470129
656  2023-11-28 13:01:36.518018
657  2023-11-28 13:01:36.565875
658  2023-11-28 13:01:36.620698
659  2023-11-28 13:01:36.645678
660  2023-11-28 13:01:36.692575
661  2023-11-28 13:01:36.723455
662  2023-11-28 13:01:36.770462
663  2023-11-28 13:01:36.818456
664  2023-11-28 13:01:36.849209
665  2023-11-28 13:01:36.896116
666  2023-11-28 13:01:36.928106
667  2023-11-28 13:01:36.976103
668  2023-11-28 13:01:37.024063
669  2023-11-28 13:01:37.054980
670  2023-11-28 13:01:37.101906
671  2023-11-28 13:01:37.149776
672  2023-11-28 13:01:37.181808
673  2023-11-28 13:01:37.229727
674  2023-11-28 13:01:37.262650
675  2023-11-28 13:01:37.309572
676  2023-11-28 13:01:37.357445
677  2023-11-28 13:01:37.390308
678  2023-11-28 13:01:37.437304
679  2023-11-28 13:01:37.485054
680  2023-11-28 13:01:37.516969
681  2023-11-28 13:01:37.564841
682  2023-11-28 13:01:37.594800
683  2023-11-28 13:01:37.642666
684  2023-11-28 13:01:37.690505
685  2023-11-28 13:01:37.727407
686  2023-11-28 13:01:37.770321
687  2023-11-28 13:01:37.818163
688  2023-11-28 13:01:37.850124
689  2023-11-28 13:01:37.898050
690  2023-11-28 13:01:37.930074
691  2023-11-28 13:01:37.977834
692  2023-11-28 13:01:38.025709
693  2023-11-28 13:01:38.057766
694  2023-11-28 13:01:38.105701
695  2023-11-28 13:01:38.137658
696  2023-11-28 13:01:38.185348
697  2023-11-28 13:01:38.233310
698  2023-11-28 13:01:38.265245
699  2023-11-28 13:01:38.311210
700  2023-11-28 13:01:38.357200
701  2023-11-28 13:01:38.389128
702  2023-11-28 13:01:38.436119
703  2023-11-28 13:01:38.481940
704  2023-11-28 13:01:38.513977
705  2023-11-28 13:01:38.561982
706  2023-11-28 13:01:38.609817
707  2023-11-28 13:01:38.640735
708  2023-11-28 13:01:38.687650
709  2023-11-28 13:01:38.734486
710  2023-11-28 13:01:38.765401
711  2023-11-28 13:01:38.820255
712  2023-11-28 13:01:38.859152
713  2023-11-28 13:01:38.890070
714  2023-11-28 13:01:38.936990
715  2023-11-28 13:01:38.983851
716  2023-11-28 13:01:39.014735
717  2023-11-28 13:01:39.062640
718  2023-11-28 13:01:39.109525
719  2023-11-28 13:01:39.140431
720  2023-11-28 13:01:39.188310
721  2023-11-28 13:01:39.220185
722  2023-11-28 13:01:39.268102
723  2023-11-28 13:01:39.315957
724  2023-11-28 13:01:39.347914
725  2023-11-28 13:01:39.395358
726  2023-11-28 13:01:39.443314
727  2023-11-28 13:01:39.475229
728  2023-11-28 13:01:39.522183
729  2023-11-28 13:01:39.553055
730  2023-11-28 13:01:39.598935
731  2023-11-28 13:01:39.646805
732  2023-11-28 13:01:39.678719
733  2023-11-28 13:01:39.724828
734  2023-11-28 13:01:39.772700
735  2023-11-28 13:01:39.804708
736  2023-11-28 13:01:39.850586
737  2023-11-28 13:01:39.920433
738  2023-11-28 13:01:39.930374
739  2023-11-28 13:01:39.976299
740  2023-11-28 13:01:40.024262
741  2023-11-28 13:01:40.056310
742  2023-11-28 13:01:40.104183
743  2023-11-28 13:01:40.151121
744  2023-11-28 13:01:40.182121
745  2023-11-28 13:01:40.230091
746  2023-11-28 13:01:40.276103
747  2023-11-28 13:01:40.308069
748  2023-11-28 13:01:40.355036
749  2023-11-28 13:01:40.401906
750  2023-11-28 13:01:40.433899
751  2023-11-28 13:01:40.479813
752  2023-11-28 13:01:40.511728
753  2023-11-28 13:01:40.559676
754  2023-11-28 13:01:40.607511
755  2023-11-28 13:01:40.639426
756  2023-11-28 13:01:40.687328
757  2023-11-28 13:01:40.735170
758  2023-11-28 13:01:40.767117
759  2023-11-28 13:01:40.815080
760  2023-11-28 13:01:40.846995
761  2023-11-28 13:01:40.894867
762  2023-11-28 13:01:40.942739
763  2023-11-28 13:01:41.021530
764  2023-11-28 13:01:41.027513
765  2023-11-28 13:01:41.054442
766  2023-11-28 13:01:41.102312
767  2023-11-28 13:01:41.149187
768  2023-11-28 13:01:41.180294
769  2023-11-28 13:01:41.227964
770  2023-11-28 13:01:41.275688
771  2023-11-28 13:01:41.306606
772  2023-11-28 13:01:41.354478
773  2023-11-28 13:01:41.386393
774  2023-11-28 13:01:41.434264
775  2023-11-28 13:01:41.482238
776  2023-11-28 13:01:41.514153
777  2023-11-28 13:01:41.561027
778  2023-11-28 13:01:41.607948
779  2023-11-28 13:01:41.639883
780  2023-11-28 13:01:41.687774
781  2023-11-28 13:01:41.719724
782  2023-11-28 13:01:41.767593
783  2023-11-28 13:01:41.815433
784  2023-11-28 13:01:41.847347
785  2023-11-28 13:01:41.895220
786  2023-11-28 13:01:41.943129
787  2023-11-28 13:01:41.975130
788  2023-11-28 13:01:42.023044
789  2023-11-28 13:01:42.055000
790  2023-11-28 13:01:42.131796
791  2023-11-28 13:01:42.148780
792  2023-11-28 13:01:42.180700
793  2023-11-28 13:01:42.228585
794  2023-11-28 13:01:42.276448
795  2023-11-28 13:01:42.308441
796  2023-11-28 13:01:42.354310
797  2023-11-28 13:01:42.401188
798  2023-11-28 13:01:42.432104
799  2023-11-28 13:01:42.479941
800  2023-11-28 13:01:42.511856
801  2023-11-28 13:01:42.559768
802  2023-11-28 13:01:42.607727
803  2023-11-28 13:01:42.639633
804  2023-11-28 13:01:42.685512
805  2023-11-28 13:01:42.731388
806  2023-11-28 13:01:42.763302
807  2023-11-28 13:01:42.811174
808  2023-11-28 13:01:42.859159
809  2023-11-28 13:01:42.891163
810  2023-11-28 13:01:42.938932
811  2023-11-28 13:01:42.970929
812  2023-11-28 13:01:43.018802
813  2023-11-28 13:01:43.065676
814  2023-11-28 13:01:43.096593
815  2023-11-28 13:01:43.144466
816  2023-11-28 13:01:43.192337
817  2023-11-28 13:01:43.246195
818  2023-11-28 13:01:43.272125
819  2023-11-28 13:01:43.304074
820  2023-11-28 13:01:43.351911
821  2023-11-28 13:01:43.399817
822  2023-11-28 13:01:43.431729
823  2023-11-28 13:01:43.479569
824  2023-11-28 13:01:43.511520
825  2023-11-28 13:01:43.559359
826  2023-11-28 13:01:43.607262
827  2023-11-28 13:01:43.639193
828  2023-11-28 13:01:43.687015
829  2023-11-28 13:01:43.734937
830  2023-11-28 13:01:43.766847
831  2023-11-28 13:01:43.814757
832  2023-11-28 13:01:43.846671
833  2023-11-28 13:01:43.894586
834  2023-11-28 13:01:43.942454
835  2023-11-28 13:01:43.974379
836  2023-11-28 13:01:44.022336
837  2023-11-28 13:01:44.054254
838  2023-11-28 13:01:44.102113
839  2023-11-28 13:01:44.149992
840  2023-11-28 13:01:44.182041
841  2023-11-28 13:01:44.229775
842  2023-11-28 13:01:44.261690
843  2023-11-28 13:01:44.309526
844  2023-11-28 13:01:44.364383
845  2023-11-28 13:01:44.387365
846  2023-11-28 13:01:44.435355
847  2023-11-28 13:01:44.483219
848  2023-11-28 13:01:44.515233
849  2023-11-28 13:01:44.563215
850  2023-11-28 13:01:44.595013
851  2023-11-28 13:01:44.642946
852  2023-11-28 13:01:44.688872
853  2023-11-28 13:01:44.719787
854  2023-11-28 13:01:44.767869
855  2023-11-28 13:01:44.814734
856  2023-11-28 13:01:44.846609
857  2023-11-28 13:01:44.894530
858  2023-11-28 13:01:44.942352
859  2023-11-28 13:01:44.972391
860  2023-11-28 13:01:45.019267
861  2023-11-28 13:01:45.066247
862  2023-11-28 13:01:45.096329
863  2023-11-28 13:01:45.144365
864  2023-11-28 13:01:45.192196
865  2023-11-28 13:01:45.223114
866  2023-11-28 13:01:45.270027
867  2023-11-28 13:01:45.316863
868  2023-11-28 13:01:45.348778
869  2023-11-28 13:01:45.418625
870  2023-11-28 13:01:45.502369
871  2023-11-28 13:01:45.524309
872  2023-11-28 13:01:45.556253
873  2023-11-28 13:01:45.604137
874  2023-11-28 13:01:45.651013
875  2023-11-28 13:01:45.681968
876  2023-11-28 13:01:45.729793
877  2023-11-28 13:01:45.761662
878  2023-11-28 13:01:45.809673
879  2023-11-28 13:01:45.857598
880  2023-11-28 13:01:45.889575
881  2023-11-28 13:01:45.937416
882  2023-11-28 13:01:45.984289
883  2023-11-28 13:01:46.015263
884  2023-11-28 13:01:46.063229
885  2023-11-28 13:01:46.095149
886  2023-11-28 13:01:46.142016
887  2023-11-28 13:01:46.189896
888  2023-11-28 13:01:46.220771
889  2023-11-28 13:01:46.268643
890  2023-11-28 13:01:46.316515
891  2023-11-28 13:01:46.346435
892  2023-11-28 13:01:46.392312
893  2023-11-28 13:01:46.440184
894  2023-11-28 13:01:46.472176
895  2023-11-28 13:01:46.519980
896  2023-11-28 13:01:46.567887
897  2023-11-28 13:01:46.599801
898  2023-11-28 13:01:46.647734
899  2023-11-28 13:01:46.679597
900  2023-11-28 13:01:46.727426
901  2023-11-28 13:01:46.774577
902  2023-11-28 13:01:46.805499
903  2023-11-28 13:01:46.852365
904  2023-11-28 13:01:46.899239
905  2023-11-28 13:01:46.931154
906  2023-11-28 13:01:46.979178
907  2023-11-28 13:01:47.026403
908  2023-11-28 13:01:47.058308
909  2023-11-28 13:01:47.106179
910  2023-11-28 13:01:47.138097
911  2023-11-28 13:01:47.185923
912  2023-11-28 13:01:47.233839
913  2023-11-28 13:01:47.265864
914  2023-11-28 13:01:47.312737
915  2023-11-28 13:01:47.358668
916  2023-11-28 13:01:47.390560
917  2023-11-28 13:01:47.438438
918  2023-11-28 13:01:47.470316
919  2023-11-28 13:01:47.588052
920  2023-11-28 13:01:47.595981
921  2023-11-28 13:01:47.643852
922  2023-11-28 13:01:47.692894
923  2023-11-28 13:01:47.723772
924  2023-11-28 13:01:47.771644
925  2023-11-28 13:01:47.817630
926  2023-11-28 13:01:47.849544
927  2023-11-28 13:01:47.895530
928  2023-11-28 13:01:47.943506
929  2023-11-28 13:01:47.975493
930  2023-11-28 13:01:48.023370
931  2023-11-28 13:01:48.055284
932  2023-11-28 13:01:48.103209
933  2023-11-28 13:01:48.150031
934  2023-11-28 13:01:48.180948
935  2023-11-28 13:01:48.229008
936  2023-11-28 13:01:48.276879
937  2023-11-28 13:01:48.306807
938  2023-11-28 13:01:48.354675
939  2023-11-28 13:01:48.386553
940  2023-11-28 13:01:48.434457
941  2023-11-28 13:01:48.482340
942  2023-11-28 13:01:48.514245
943  2023-11-28 13:01:48.562115
944  2023-11-28 13:01:48.610010
945  2023-11-28 13:01:48.641870
946  2023-11-28 13:01:48.689785
947  2023-11-28 13:01:48.721699
948  2023-11-28 13:01:48.769640
949  2023-11-28 13:01:48.816758
950  2023-11-28 13:01:48.847662
951  2023-11-28 13:01:48.895559
952  2023-11-28 13:01:48.943404
953  2023-11-28 13:01:48.975334
954  2023-11-28 13:01:49.022324
955  2023-11-28 13:01:49.053113
956  2023-11-28 13:01:49.100951
957  2023-11-28 13:01:49.148874
958  2023-11-28 13:01:49.180738
959  2023-11-28 13:01:49.228645
960  2023-11-28 13:01:49.274761
961  2023-11-28 13:01:49.305678
962  2023-11-28 13:01:49.352762
963  2023-11-28 13:01:49.400488
964  2023-11-28 13:01:49.432402
965  2023-11-28 13:01:49.480387
966  2023-11-28 13:01:49.512310
967  2023-11-28 13:01:49.560188
968  2023-11-28 13:01:49.607106
969  2023-11-28 13:01:49.638140
970  2023-11-28 13:01:49.685963
971  2023-11-28 13:01:49.733874
972  2023-11-28 13:01:49.765787
973  2023-11-28 13:01:49.811627
974  2023-11-28 13:01:49.858683
975  2023-11-28 13:01:49.889593
976  2023-11-28 13:01:49.937484
977  2023-11-28 13:01:49.984531
978  2023-11-28 13:01:50.016323
979  2023-11-28 13:01:50.063576
980  2023-11-28 13:01:50.095591
981  2023-11-28 13:01:50.143568
982  2023-11-28 13:01:50.191395
983  2023-11-28 13:01:50.223353
984  2023-11-28 13:01:50.271229
985  2023-11-28 13:01:50.318176
986  2023-11-28 13:01:50.350200
987  2023-11-28 13:01:50.399085
988  2023-11-28 13:01:50.430950
989  2023-11-28 13:01:50.477859
990  2023-11-28 13:01:50.525748
991  2023-11-28 13:01:50.557735
992  2023-11-28 13:01:50.603659
993  2023-11-28 13:01:50.651484
994  2023-11-28 13:01:50.682402
995  2023-11-28 13:01:50.729276
996  2023-11-28 13:01:50.776151
997  2023-11-28 13:01:50.807099
998  2023-11-28 13:01:50.854940
999  2023-11-28 13:01:50.886855
1000  2023-11-28 13:01:50.934767
1001  2023-11-28 13:01:50.982605
1002  2023-11-28 13:01:51.014780
1003  2023-11-28 13:01:51.062562
1004  2023-11-28 13:01:51.108441
1005  2023-11-28 13:01:51.140472
1006  2023-11-28 13:01:51.188348
1007  2023-11-28 13:01:51.220378
1008  2023-11-28 13:01:51.268283
1009  2023-11-28 13:01:51.316273
1010  2023-11-28 13:01:51.348234
1011  2023-11-28 13:01:51.396141
1012  2023-11-28 13:01:51.428021
1013  2023-11-28 13:01:51.475988
1014  2023-11-28 13:01:51.523913
1015  2023-11-28 13:01:51.555866
1016  2023-11-28 13:01:51.603733
1017  2023-11-28 13:01:51.651572
1018  2023-11-28 13:01:51.683575
1019  2023-11-28 13:01:51.731514
1020  2023-11-28 13:01:51.763428
1021  2023-11-28 13:01:51.811272
1022  2023-11-28 13:01:51.859224
1023  2023-11-28 13:01:51.891245
1024  2023-11-28 13:01:51.939254
1025  2023-11-28 13:01:51.971044
1026  2023-11-28 13:01:52.018874
1027  2023-11-28 13:01:52.066780
1028  2023-11-28 13:01:52.098704
1029  2023-11-28 13:01:52.146533
1030  2023-11-28 13:01:52.178448
1031  2023-11-28 13:01:52.226360
1032  2023-11-28 13:01:52.274222
1033  2023-11-28 13:01:52.306138
1034  2023-11-28 13:01:52.354008
1035  2023-11-28 13:01:52.400946
1036  2023-11-28 13:01:52.431950
1037  2023-11-28 13:01:52.479818
1038  2023-11-28 13:01:52.511731
1039  2023-11-28 13:01:52.558601
1040  2023-11-28 13:01:52.606477
1041  2023-11-28 13:01:52.638388
1042  2023-11-28 13:01:52.686231
1043  2023-11-28 13:01:52.734101
1044  2023-11-28 13:01:52.766016
1045  2023-11-28 13:01:52.813930
1046  2023-11-28 13:01:52.845832
1047  2023-11-28 13:01:52.893676
1048  2023-11-28 13:01:52.941579
1049  2023-11-28 13:01:52.973516
1050  2023-11-28 13:01:53.021380
1051  2023-11-28 13:01:53.053280
1052  2023-11-28 13:01:53.099161
1053  2023-11-28 13:01:53.145073
1054  2023-11-28 13:01:53.192882
1055  2023-11-28 13:01:53.224791
1056  2023-11-28 13:01:53.271669
1057  2023-11-28 13:01:53.303633
1058  2023-11-28 13:01:53.351452
1059  2023-11-28 13:01:53.399500
1060  2023-11-28 13:01:53.431528
1061  2023-11-28 13:01:53.479510
1062  2023-11-28 13:01:53.511447
1063  2023-11-28 13:01:53.559287
1064  2023-11-28 13:01:53.607204
1065  2023-11-28 13:01:53.639269
1066  2023-11-28 13:01:53.687189
1067  2023-11-28 13:01:53.735117
1068  2023-11-28 13:01:53.766009
1069  2023-11-28 13:01:53.812884
1070  2023-11-28 13:01:53.859728
1071  2023-11-28 13:01:53.890681
1072  2023-11-28 13:01:53.937663
1073  2023-11-28 13:01:53.984643
1074  2023-11-28 13:01:54.015613
1075  2023-11-28 13:01:54.061395
1076  2023-11-28 13:01:54.109259
1077  2023-11-28 13:01:54.140240
1078  2023-11-28 13:01:54.187123
1079  2023-11-28 13:01:54.234957
1080  2023-11-28 13:01:54.266053
1081  2023-11-28 13:01:54.312875
1082  2023-11-28 13:01:54.344820
1083  2023-11-28 13:01:54.392662
1084  2023-11-28 13:01:54.440569
1085  2023-11-28 13:01:54.472632
1086  2023-11-28 13:01:54.520321
1087  2023-11-28 13:01:54.568261
1088  2023-11-28 13:01:54.600108
1089  2023-11-28 13:01:54.647981
1090  2023-11-28 13:01:54.679936
1091  2023-11-28 13:01:54.728852
1092  2023-11-28 13:01:54.773782
1093  2023-11-28 13:01:54.805697
1094  2023-11-28 13:01:54.852536
1095  2023-11-28 13:01:54.900447
1096  2023-11-28 13:01:54.932358
1097  2023-11-28 13:01:54.980195
1098  2023-11-28 13:01:55.012145
1099  2023-11-28 13:01:55.059981
1100  2023-11-28 13:01:55.105890
1101  2023-11-28 13:01:55.136812
1102  2023-11-28 13:01:55.182689
1103  2023-11-28 13:01:55.230558
1104  2023-11-28 13:01:55.262503
1105  2023-11-28 13:01:55.310465
1106  2023-11-28 13:01:55.358184
1107  2023-11-28 13:01:55.389135
1108  2023-11-28 13:01:55.436148
1109  2023-11-28 13:01:55.484054
1110  2023-11-28 13:01:55.515967
1111  2023-11-28 13:01:55.563849
1112  2023-11-28 13:01:55.595752
1113  2023-11-28 13:01:55.643624
1114  2023-11-28 13:01:55.691507
1115  2023-11-28 13:01:55.723417
1116  2023-11-28 13:01:55.770336
1117  2023-11-28 13:01:55.817315
1118  2023-11-28 13:01:55.849230
1119  2023-11-28 13:01:55.897126
1120  2023-11-28 13:01:55.929018
1121  2023-11-28 13:01:55.976888
1122  2023-11-28 13:01:56.024767
1123  2023-11-28 13:01:56.056677
1124  2023-11-28 13:01:56.104642
1125  2023-11-28 13:01:56.136556
1126  2023-11-28 13:01:56.183430
1127  2023-11-28 13:01:56.230304
1128  2023-11-28 13:01:56.262229
1129  2023-11-28 13:01:56.308096
1130  2023-11-28 13:01:56.353974
1131  2023-11-28 13:01:56.401840
1132  2023-11-28 13:01:56.433732
1133  2023-11-28 13:01:56.480607
1134  2023-11-28 13:01:56.512518
1135  2023-11-28 13:01:56.560624
1136  2023-11-28 13:01:56.608463
1137  2023-11-28 13:01:56.639378
1138  2023-11-28 13:01:56.686284
1139  2023-11-28 13:01:56.732169
1140  2023-11-28 13:01:56.764075
1141  2023-11-28 13:01:56.811951
1142  2023-11-28 13:01:56.859790
1143  2023-11-28 13:01:56.889741
1144  2023-11-28 13:01:56.937614
1145  2023-11-28 13:01:56.984455
1146  2023-11-28 13:01:57.015413
1147  2023-11-28 13:01:57.062296
1148  2023-11-28 13:01:57.110165
1149  2023-11-28 13:01:57.141072
1150  2023-11-28 13:01:57.187911
1151  2023-11-28 13:01:57.233828
1152  2023-11-28 13:01:57.265736
1153  2023-11-28 13:01:57.313575
1154  2023-11-28 13:01:57.345490
1155  2023-11-28 13:01:57.393396
1156  2023-11-28 13:01:57.441234
1157  2023-11-28 13:01:57.473149
1158  2023-11-28 13:01:57.521020
1159  2023-11-28 13:01:57.552968
1160  2023-11-28 13:01:57.600847
1161  2023-11-28 13:01:57.648808
1162  2023-11-28 13:01:57.680722
1163  2023-11-28 13:01:57.728633
1164  2023-11-28 13:01:57.776625
1165  2023-11-28 13:01:57.808538
1166  2023-11-28 13:01:57.856408
1167  2023-11-28 13:01:57.887322
1168  2023-11-28 13:01:57.934167
1169  2023-11-28 13:01:57.982039
1170  2023-11-28 13:01:58.013953
1171  2023-11-28 13:01:58.061882
1172  2023-11-28 13:01:58.109697
1173  2023-11-28 13:01:58.141612
1174  2023-11-28 13:01:58.188552
1175  2023-11-28 13:01:58.234394
1176  2023-11-28 13:01:58.265313
1177  2023-11-28 13:01:58.311189
1178  2023-11-28 13:01:58.357071
1179  2023-11-28 13:01:58.388985
1180  2023-11-28 13:01:58.436854
1181  2023-11-28 13:01:58.484734
1182  2023-11-28 13:01:58.516644
1183  2023-11-28 13:01:58.564522
1184  2023-11-28 13:01:58.596396
1185  2023-11-28 13:01:58.644372
1186  2023-11-28 13:01:58.693244
1187  2023-11-28 13:01:58.724128
1188  2023-11-28 13:01:58.773029
1189  2023-11-28 13:01:58.804943
1190  2023-11-28 13:01:58.852817
1191  2023-11-28 13:01:58.899695
1192  2023-11-28 13:01:58.931609
1193  2023-11-28 13:01:58.979481
1194  2023-11-28 13:01:59.011392
1195  2023-11-28 13:01:59.058269
1196  2023-11-28 13:01:59.105109
1197  2023-11-28 13:01:59.137070
1198  2023-11-28 13:01:59.184896
1199  2023-11-28 13:01:59.232808
1200  2023-11-28 13:01:59.264729
1201  2023-11-28 13:01:59.312554
1202  2023-11-28 13:01:59.359478
1203  2023-11-28 13:01:59.391397
1204  2023-11-28 13:01:59.439247
1205  2023-11-28 13:01:59.471131
1206  2023-11-28 13:01:59.519044
1207  2023-11-28 13:01:59.566875
1208  2023-11-28 13:01:59.598823
1209  2023-11-28 13:01:59.646661
1210  2023-11-28 13:01:59.678643
1211  2023-11-28 13:01:59.726548
1212  2023-11-28 13:01:59.774387
1213  2023-11-28 13:01:59.806393
1214  2023-11-28 13:01:59.854295
1215  2023-11-28 13:01:59.901140
1216  2023-11-28 13:01:59.933054
1217  2023-11-28 13:01:59.980926
1218  2023-11-28 13:02:00.012841
1219  2023-11-28 13:02:00.060713
1220  2023-11-28 13:02:00.107691
1221  2023-11-28 13:02:00.138609
1222  2023-11-28 13:02:00.186481
1223  2023-11-28 13:02:00.234383
1224  2023-11-28 13:02:00.266267
1225  2023-11-28 13:02:00.314170
1226  2023-11-28 13:02:00.346054
1227  2023-11-28 13:02:00.393958
1228  2023-11-28 13:02:00.441830
1229  2023-11-28 13:02:00.473750
1230  2023-11-28 13:02:00.521638
1231  2023-11-28 13:02:00.553620
1232  2023-11-28 13:02:00.601494
1233  2023-11-28 13:02:00.649360
1234  2023-11-28 13:02:00.681273
1235  2023-11-28 13:02:00.729143
1236  2023-11-28 13:02:00.776020
1237  2023-11-28 13:02:00.806941
1238  2023-11-28 13:02:00.854778
1239  2023-11-28 13:02:00.886728
1240  2023-11-28 13:02:00.934600
1241  2023-11-28 13:02:00.982466
1242  2023-11-28 13:02:01.013388
1243  2023-11-28 13:02:01.060269
1244  2023-11-28 13:02:01.108139
1245  2023-11-28 13:02:01.140029
1246  2023-11-28 13:02:01.186923
1247  2023-11-28 13:02:01.234806
1248  2023-11-28 13:02:01.266714
1249  2023-11-28 13:02:01.314581
1250  2023-11-28 13:02:01.346675
1251  2023-11-28 13:02:01.392384
1252  2023-11-28 13:02:01.440247
1253  2023-11-28 13:02:01.472128
1254  2023-11-28 13:02:01.520034
1255  2023-11-28 13:02:01.567873
1256  2023-11-28 13:02:01.599818
1257  2023-11-28 13:02:01.647658
1258  2023-11-28 13:02:01.679679
1259  2023-11-28 13:02:01.727593
1260  2023-11-28 13:02:01.775423
1261  2023-11-28 13:02:01.807372
1262  2023-11-28 13:02:01.854243
1263  2023-11-28 13:02:01.901087
1264  2023-11-28 13:02:01.932004
1265  2023-11-28 13:02:01.979876
1266  2023-11-28 13:02:02.011791
1267  2023-11-28 13:02:02.059788
1268  2023-11-28 13:02:02.106622
1269  2023-11-28 13:02:02.137711
1270  2023-11-28 13:02:02.185701
1271  2023-11-28 13:02:02.233573
1272  2023-11-28 13:02:02.265493
1273  2023-11-28 13:02:02.313474
1274  2023-11-28 13:02:02.345389
1275  2023-11-28 13:02:02.393275
1276  2023-11-28 13:02:02.439149
1277  2023-11-28 13:02:02.484983
1278  2023-11-28 13:02:02.516981
1279  2023-11-28 13:02:02.564853
1280  2023-11-28 13:02:02.596758
1281  2023-11-28 13:02:02.644632
1282  2023-11-28 13:02:02.692501
1283  2023-11-28 13:02:02.724415
1284  2023-11-28 13:02:02.772305
1285  2023-11-28 13:02:02.804209
1286  2023-11-28 13:02:02.852044
1287  2023-11-28 13:02:02.899965
1288  2023-11-28 13:02:02.931867
1289  2023-11-28 13:02:02.979751
1290  2023-11-28 13:02:03.011770
1291  2023-11-28 13:02:03.057724
1292  2023-11-28 13:02:03.104553
1293  2023-11-28 13:02:03.151462
1294  2023-11-28 13:02:03.181347
1295  2023-11-28 13:02:03.229225
1296  2023-11-28 13:02:03.276094
1297  2023-11-28 13:02:03.307011
1298  2023-11-28 13:02:03.355135
1299  2023-11-28 13:02:03.387036
1300  2023-11-28 13:02:03.434908
1301  2023-11-28 13:02:03.482780
1302  2023-11-28 13:02:03.514694
1303  2023-11-28 13:02:03.562566
1304  2023-11-28 13:02:03.609441
1305  2023-11-28 13:02:03.640399
1306  2023-11-28 13:02:03.688387
1307  2023-11-28 13:02:03.720358
1308  2023-11-28 13:02:03.768197
1309  2023-11-28 13:02:03.816120
1310  2023-11-28 13:02:03.848028
1311  2023-11-28 13:02:03.896063
1312  2023-11-28 13:02:03.928104
1313  2023-11-28 13:02:03.974970
1314  2023-11-28 13:02:04.021881
1315  2023-11-28 13:02:04.067893
1316  2023-11-28 13:02:04.099806
1317  2023-11-28 13:02:04.147747
1318  2023-11-28 13:02:04.178670
1319  2023-11-28 13:02:04.225639
1320  2023-11-28 13:02:04.274511
1321  2023-11-28 13:02:04.306424
1322  2023-11-28 13:02:04.351450
1323  2023-11-28 13:02:04.400289
1324  2023-11-28 13:02:04.432244
1325  2023-11-28 13:02:04.479076
1326  2023-11-28 13:02:04.526003
1327  2023-11-28 13:02:04.556873
1328  2023-11-28 13:02:04.604859
1329  2023-11-28 13:02:04.636923
1330  2023-11-28 13:02:04.685644
1331  2023-11-28 13:02:04.732518
1332  2023-11-28 13:02:04.764432
1333  2023-11-28 13:02:04.812305
1334  2023-11-28 13:02:04.859332
1335  2023-11-28 13:02:04.890361
1336  2023-11-28 13:02:04.938233
1337  2023-11-28 13:02:04.970147
1338  2023-11-28 13:02:05.018138
1339  2023-11-28 13:02:05.066010
1340  2023-11-28 13:02:05.097924
1341  2023-11-28 13:02:05.145796
1342  2023-11-28 13:02:05.192671
1343  2023-11-28 13:02:05.223639
1344  2023-11-28 13:02:05.271512
1345  2023-11-28 13:02:05.303415
1346  2023-11-28 13:02:05.351286
1347  2023-11-28 13:02:05.399119
1348  2023-11-28 13:02:05.431191
1349  2023-11-28 13:02:05.477072
1350  2023-11-28 13:02:05.525050
1351  2023-11-28 13:02:05.557060
1352  2023-11-28 13:02:05.604932
1353  2023-11-28 13:02:05.636924
1354  2023-11-28 13:02:05.684877
1355  2023-11-28 13:02:05.732849
1356  2023-11-28 13:02:05.764747
1357  2023-11-28 13:02:05.812690
1358  2023-11-28 13:02:05.859553
1359  2023-11-28 13:02:05.890496
1360  2023-11-28 13:02:05.936318
1361  2023-11-28 13:02:05.984190
1362  2023-11-28 13:02:06.015108
1363  2023-11-28 13:02:06.064010
1364  2023-11-28 13:02:06.095925
1365  2023-11-28 13:02:06.143798
1366  2023-11-28 13:02:06.189674
1367  2023-11-28 13:02:06.220588
1368  2023-11-28 13:02:06.268429
1369  2023-11-28 13:02:06.316338
1370  2023-11-28 13:02:06.347218
1371  2023-11-28 13:02:06.395097
1372  2023-11-28 13:02:06.443079
1373  2023-11-28 13:02:06.475110
1374  2023-11-28 13:02:06.523979
1375  2023-11-28 13:02:06.554985
1376  2023-11-28 13:02:06.602984
1377  2023-11-28 13:02:06.651854
1378  2023-11-28 13:02:06.683807
1379  2023-11-28 13:02:06.729646
1380  2023-11-28 13:02:06.776608
1381  2023-11-28 13:02:06.808525
1382  2023-11-28 13:02:06.856397
1383  2023-11-28 13:02:06.888316
1384  2023-11-28 13:02:06.936267
1385  2023-11-28 13:02:06.984171
1386  2023-11-28 13:02:07.016079
1387  2023-11-28 13:02:07.063918
1388  2023-11-28 13:02:07.095833
1389  2023-11-28 13:02:07.143740
1390  2023-11-28 13:02:07.191577
1391  2023-11-28 13:02:07.222521
1392  2023-11-28 13:02:07.269406
1393  2023-11-28 13:02:07.317321
1394  2023-11-28 13:02:07.349193
1395  2023-11-28 13:02:07.397192
1396  2023-11-28 13:02:07.429204
1397  2023-11-28 13:02:07.477124
1398  2023-11-28 13:02:07.524079
1399  2023-11-28 13:02:07.555139
1400  2023-11-28 13:02:07.602881
1401  2023-11-28 13:02:07.650745
1402  2023-11-28 13:02:07.682625
1403  2023-11-28 13:02:07.730654
1404  2023-11-28 13:02:07.762568
1405  2023-11-28 13:02:07.809448
1406  2023-11-28 13:02:07.856320
1407  2023-11-28 13:02:07.888242
1408  2023-11-28 13:02:07.936299
1409  2023-11-28 13:02:07.984150
1410  2023-11-28 13:02:08.016167
1411  2023-11-28 13:02:08.064158
1412  2023-11-28 13:02:08.110997
1413  2023-11-28 13:02:08.141998
1414  2023-11-28 13:02:08.189959
1415  2023-11-28 13:02:08.220915
1416  2023-11-28 13:02:08.267787
1417  2023-11-28 13:02:08.314661
1418  2023-11-28 13:02:08.345668
1419  2023-11-28 13:02:08.392585
1420  2023-11-28 13:02:08.440460
1421  2023-11-28 13:02:08.472334
1422  2023-11-28 13:02:08.520267
1423  2023-11-28 13:02:08.568168
1424  2023-11-28 13:02:08.600174
1425  2023-11-28 13:02:08.648167
1426  2023-11-28 13:02:08.679083
1427  2023-11-28 13:02:08.726085
1428  2023-11-28 13:02:08.771833
1429  2023-11-28 13:02:08.803748
1430  2023-11-28 13:02:08.851658
1431  2023-11-28 13:02:08.899663
1432  2023-11-28 13:02:08.931743
1433  2023-11-28 13:02:08.979569
1434  2023-11-28 13:02:09.011477
1435  2023-11-28 13:02:09.059344
1436  2023-11-28 13:02:09.107220
1437  2023-11-28 13:02:09.139119
1438  2023-11-28 13:02:09.187074
1439  2023-11-28 13:02:09.234950
1440  2023-11-28 13:02:09.266864
1441  2023-11-28 13:02:09.314726
1442  2023-11-28 13:02:09.345608
1443  2023-11-28 13:02:09.392518
1444  2023-11-28 13:02:09.441586
1445  2023-11-28 13:02:09.472528
1446  2023-11-28 13:02:09.520413
1447  2023-11-28 13:02:09.568262
1448  2023-11-28 13:02:09.599250
1449  2023-11-28 13:02:09.646216
1450  2023-11-28 13:02:09.679069
1451  2023-11-28 13:02:09.727078
1452  2023-11-28 13:02:09.773923
1453  2023-11-28 13:02:09.806847
1454  2023-11-28 13:02:09.854877
1455  2023-11-28 13:02:09.901850
1456  2023-11-28 13:02:09.933809
1457  2023-11-28 13:02:09.979822
1458  2023-11-28 13:02:10.011845
1459  2023-11-28 13:02:10.057871
1460  2023-11-28 13:02:10.105743
1461  2023-11-28 13:02:10.137657
1462  2023-11-28 13:02:10.185529
1463  2023-11-28 13:02:10.233401
1464  2023-11-28 13:02:10.264319
1465  2023-11-28 13:02:10.311226
1466  2023-11-28 13:02:10.358068
1467  2023-11-28 13:02:10.388985
1468  2023-11-28 13:02:10.436889
1469  2023-11-28 13:02:10.484737
1470  2023-11-28 13:02:10.516689
1471  2023-11-28 13:02:10.564516
1472  2023-11-28 13:02:10.596431
1473  2023-11-28 13:02:10.642343
1474  2023-11-28 13:02:10.690230
1475  2023-11-28 13:02:10.722113
1476  2023-11-28 13:02:10.769988
1477  2023-11-28 13:02:10.817820
1478  2023-11-28 13:02:10.849769
1479  2023-11-28 13:02:10.897642
1480  2023-11-28 13:02:10.929561
1481  2023-11-28 13:02:10.977395
1482  2023-11-28 13:02:11.023304
1483  2023-11-28 13:02:11.055311
1484  2023-11-28 13:02:11.103259
1485  2023-11-28 13:02:11.151141
1486  2023-11-28 13:02:11.183170
1487  2023-11-28 13:02:11.231079
1488  2023-11-28 13:02:11.262991
1489  2023-11-28 13:02:11.310863
1490  2023-11-28 13:02:11.358752
1491  2023-11-28 13:02:11.390674
1492  2023-11-28 13:02:11.438521
1493  2023-11-28 13:02:11.470437
1494  2023-11-28 13:02:11.518276
1495  2023-11-28 13:02:11.566172
1496  2023-11-28 13:02:11.599072
1497  2023-11-28 13:02:11.645979
1498  2023-11-28 13:02:11.692809
1499  2023-11-28 13:02:11.724724
1500  2023-11-28 13:02:11.771639
1501  2023-11-28 13:02:11.803647
1502  2023-11-28 13:02:11.850484
1503  2023-11-28 13:02:11.898356
1504  2023-11-28 13:02:11.930270
1505  2023-11-28 13:02:11.978299
1506  2023-11-28 13:02:12.024349
1507  2023-11-28 13:02:12.056238
1508  2023-11-28 13:02:12.104118
1509  2023-11-28 13:02:12.151253
1510  2023-11-28 13:02:12.183242
1511  2023-11-28 13:02:12.231191
1512  2023-11-28 13:02:12.263252
1513  2023-11-28 13:02:12.309170
1514  2023-11-28 13:02:12.357001
1515  2023-11-28 13:02:12.388916
1516  2023-11-28 13:02:12.435830
1517  2023-11-28 13:02:12.482707
1518  2023-11-28 13:02:12.514612
1519  2023-11-28 13:02:12.564495
1520  2023-11-28 13:02:12.609327
1521  2023-11-28 13:02:12.641244
1522  2023-11-28 13:02:12.689148
1523  2023-11-28 13:02:12.721065
1524  2023-11-28 13:02:12.768955
1525  2023-11-28 13:02:12.816896
1526  2023-11-28 13:02:12.848737
1527  2023-11-28 13:02:12.895597
1528  2023-11-28 13:02:12.943482
1529  2023-11-28 13:02:12.974351
1530  2023-11-28 13:02:13.022224
1531  2023-11-28 13:02:13.054170
1532  2023-11-28 13:02:13.102011
1533  2023-11-28 13:02:13.150910
1534  2023-11-28 13:02:13.181836
1535  2023-11-28 13:02:13.229701
1536  2023-11-28 13:02:13.261614
1537  2023-11-28 13:02:13.309486
1538  2023-11-28 13:02:13.357358
1539  2023-11-28 13:02:13.388262
1540  2023-11-28 13:02:13.436151
1541  2023-11-28 13:02:13.484024
1542  2023-11-28 13:02:13.515959
1543  2023-11-28 13:02:13.562778
1544  2023-11-28 13:02:13.610683
1545  2023-11-28 13:02:13.641567
1546  2023-11-28 13:02:13.687478
1547  2023-11-28 13:02:13.734319
1548  2023-11-28 13:02:13.766234
1549  2023-11-28 13:02:13.814140
1550  2023-11-28 13:02:13.846056
1551  2023-11-28 13:02:13.893892
1552  2023-11-28 13:02:13.941798
1553  2023-11-28 13:02:13.971719
1554  2023-11-28 13:02:14.019556
1555  2023-11-28 13:02:14.066477
1556  2023-11-28 13:02:14.097385
1557  2023-11-28 13:02:14.145254
1558  2023-11-28 13:02:14.193128
1559  2023-11-28 13:02:14.225038
1560  2023-11-28 13:02:14.272917
1561  2023-11-28 13:02:14.304826
1562  2023-11-28 13:02:14.350713
1563  2023-11-28 13:02:14.398555
1564  2023-11-28 13:02:14.430461
1565  2023-11-28 13:02:14.478363
1566  2023-11-28 13:02:14.525205
1567  2023-11-28 13:02:14.556156
1568  2023-11-28 13:02:14.602997
1569  2023-11-28 13:02:14.649919
1570  2023-11-28 13:02:14.681829
1571  2023-11-28 13:02:14.729660
1572  2023-11-28 13:02:14.777563
1573  2023-11-28 13:02:14.809486
1574  2023-11-28 13:02:14.854360
1575  2023-11-28 13:02:14.886270
1576  2023-11-28 13:02:14.934111
1577  2023-11-28 13:02:14.982154
1578  2023-11-28 13:02:15.013067
1579  2023-11-28 13:02:15.060007
1580  2023-11-28 13:02:15.107910
1581  2023-11-28 13:02:15.139830
1582  2023-11-28 13:02:15.187666
1583  2023-11-28 13:02:15.219581
1584  2023-11-28 13:02:15.266486
1585  2023-11-28 13:02:15.314357
1586  2023-11-28 13:02:15.346278
1587  2023-11-28 13:02:15.394145
1588  2023-11-28 13:02:15.442017
1589  2023-11-28 13:02:15.473936
1590  2023-11-28 13:02:15.519811
1591  2023-11-28 13:02:15.567719
1592  2023-11-28 13:02:15.599610
1593  2023-11-28 13:02:15.647437
1594  2023-11-28 13:02:15.679381
1595  2023-11-28 13:02:15.726256
1596  2023-11-28 13:02:15.773101
1597  2023-11-28 13:02:15.804019
1598  2023-11-28 13:02:15.851008
1599  2023-11-28 13:02:15.898798
1600  2023-11-28 13:02:15.930680
1601  2023-11-28 13:02:15.978586
1602  2023-11-28 13:02:16.026466
1603  2023-11-28 13:02:16.058390
1604  2023-11-28 13:02:16.106248
1605  2023-11-28 13:02:16.138156
1606  2023-11-28 13:02:16.186030
1607  2023-11-28 13:02:16.233909
1608  2023-11-28 13:02:16.265817
1609  2023-11-28 13:02:16.312689
1610  2023-11-28 13:02:16.357539
1611  2023-11-28 13:02:16.389454
1612  2023-11-28 13:02:16.435365
1613  2023-11-28 13:02:16.483235
1614  2023-11-28 13:02:16.515154
1615  2023-11-28 13:02:16.563022
1616  2023-11-28 13:02:16.594936
1617  2023-11-28 13:02:16.642817
1618  2023-11-28 13:02:16.690682
1619  2023-11-28 13:02:16.722597
1620  2023-11-28 13:02:16.770470
1621  2023-11-28 13:02:16.818344
1622  2023-11-28 13:02:16.849266
1623  2023-11-28 13:02:16.897204
1624  2023-11-28 13:02:16.929146
1625  2023-11-28 13:02:16.976015
1626  2023-11-28 13:02:17.021920
1627  2023-11-28 13:02:17.067802
1628  2023-11-28 13:02:17.099717
1629  2023-11-28 13:02:17.147590
1630  2023-11-28 13:02:17.179502
1631  2023-11-28 13:02:17.227377
1632  2023-11-28 13:02:17.273252
1633  2023-11-28 13:02:17.305168
1634  2023-11-28 13:02:17.353040
1635  2023-11-28 13:02:17.400925
1636  2023-11-28 13:02:17.432793
1637  2023-11-28 13:02:17.480701
1638  2023-11-28 13:02:17.512784
1639  2023-11-28 13:02:17.559489
1640  2023-11-28 13:02:17.607360
1641  2023-11-28 13:02:17.639280
1642  2023-11-28 13:02:17.687145
1643  2023-11-28 13:02:17.735015
1644  2023-11-28 13:02:17.766933
1645  2023-11-28 13:02:17.814924
1646  2023-11-28 13:02:17.846835
1647  2023-11-28 13:02:17.894707
1648  2023-11-28 13:02:17.942549
1649  2023-11-28 13:02:17.975469
1650  2023-11-28 13:02:18.021370
1651  2023-11-28 13:02:18.053290
1652  2023-11-28 13:02:18.101124
1653  2023-11-28 13:02:18.147033
1654  2023-11-28 13:02:18.178948
1655  2023-11-28 13:02:18.226822
1656  2023-11-28 13:02:18.274693
1657  2023-11-28 13:02:18.305613
1658  2023-11-28 13:02:18.351487
1659  2023-11-28 13:02:18.399362
1660  2023-11-28 13:02:18.431278
1661  2023-11-28 13:02:18.479114
1662  2023-11-28 13:02:18.526024
1663  2023-11-28 13:02:18.556939
1664  2023-11-28 13:02:18.604813
1665  2023-11-28 13:02:18.636725
1666  2023-11-28 13:02:18.684599
1667  2023-11-28 13:02:18.732468
1668  2023-11-28 13:02:18.764383
1669  2023-11-28 13:02:18.812255
1670  2023-11-28 13:02:18.860129
1671  2023-11-28 13:02:18.892044
1672  2023-11-28 13:02:18.940098
1673  2023-11-28 13:02:18.971853
1674  2023-11-28 13:02:19.019669
1675  2023-11-28 13:02:19.065586
1676  2023-11-28 13:02:19.097370
1677  2023-11-28 13:02:19.144324
1678  2023-11-28 13:02:19.191167
1679  2023-11-28 13:02:19.223112
1680  2023-11-28 13:02:19.270954
1681  2023-11-28 13:02:19.317861
1682  2023-11-28 13:02:19.348780
1683  2023-11-28 13:02:19.396618
1684  2023-11-28 13:02:19.443526
1685  2023-11-28 13:02:19.475438
1686  2023-11-28 13:02:19.522312
1687  2023-11-28 13:02:19.553230
1688  2023-11-28 13:02:19.601109
1689  2023-11-28 13:02:19.648979
1690  2023-11-28 13:02:19.680858
1691  2023-11-28 13:02:19.728879
1692  2023-11-28 13:02:19.776755
1693  2023-11-28 13:02:19.808635
1694  2023-11-28 13:02:19.855542
1695  2023-11-28 13:02:19.886462
1696  2023-11-28 13:02:19.933334
1697  2023-11-28 13:02:19.981211
1698  2023-11-28 13:02:20.013120
1699  2023-11-28 13:02:20.060962
1700  2023-11-28 13:02:20.108833
1701  2023-11-28 13:02:20.140885
1702  2023-11-28 13:02:20.186762
1703  2023-11-28 13:02:20.234633
1704  2023-11-28 13:02:20.266553
1705  2023-11-28 13:02:20.313424
1706  2023-11-28 13:02:20.359294
1707  2023-11-28 13:02:20.391218
1708  2023-11-28 13:02:20.439088
1709  2023-11-28 13:02:20.483972
1710  2023-11-28 13:02:20.514887
1711  2023-11-28 13:02:20.562755
1712  2023-11-28 13:02:20.594672
1713  2023-11-28 13:02:20.641514
1714  2023-11-28 13:02:20.689605
1715  2023-11-28 13:02:20.721421
1716  2023-11-28 13:02:20.769262
1717  2023-11-28 13:02:20.817137
1718  2023-11-28 13:02:20.849081
1719  2023-11-28 13:02:20.896954
1720  2023-11-28 13:02:20.929003
1721  2023-11-28 13:02:20.976869
1722  2023-11-28 13:02:21.024740
1723  2023-11-28 13:02:21.056657
1724  2023-11-28 13:02:21.104495
1725  2023-11-28 13:02:21.136447
1726  2023-11-28 13:02:21.184454
1727  2023-11-28 13:02:21.232334
1728  2023-11-28 13:02:21.264241
1729  2023-11-28 13:02:21.312083
1730  2023-11-28 13:02:21.359987
1731  2023-11-28 13:02:21.391900
1732  2023-11-28 13:02:21.439743
1733  2023-11-28 13:02:21.471669
1734  2023-11-28 13:02:21.519561
1735  2023-11-28 13:02:21.567400
1736  2023-11-28 13:02:21.599361
1737  2023-11-28 13:02:21.647188
1738  2023-11-28 13:02:21.679101
1739  2023-11-28 13:02:21.727052
1740  2023-11-28 13:02:21.774949
1741  2023-11-28 13:02:21.806864
1742  2023-11-28 13:02:21.853771
1743  2023-11-28 13:02:21.901610
1744  2023-11-28 13:02:21.933525
1745  2023-11-28 13:02:21.981397
1746  2023-11-28 13:02:22.012315
1747  2023-11-28 13:02:22.058223
1748  2023-11-28 13:02:22.105097
1749  2023-11-28 13:02:22.137018
1750  2023-11-28 13:02:22.181894
1751  2023-11-28 13:02:22.229772
1752  2023-11-28 13:02:22.276658
1753  2023-11-28 13:02:22.307564
1754  2023-11-28 13:02:22.354432
1755  2023-11-28 13:02:22.401312
1756  2023-11-28 13:02:22.433219
1757  2023-11-28 13:02:22.481061
1758  2023-11-28 13:02:22.513010
1759  2023-11-28 13:02:22.560881
1760  2023-11-28 13:02:22.607756
1761  2023-11-28 13:02:22.639647
1762  2023-11-28 13:02:22.686548
1763  2023-11-28 13:02:22.734473
1764  2023-11-28 13:02:22.766438
1765  2023-11-28 13:02:22.814310
1766  2023-11-28 13:02:22.846224
1767  2023-11-28 13:02:22.894133
1768  2023-11-28 13:02:22.940971
1769  2023-11-28 13:02:22.971889
1770  2023-11-28 13:02:23.019794
1771  2023-11-28 13:02:23.067632
1772  2023-11-28 13:02:23.099547
1773  2023-11-28 13:02:23.147419
1774  2023-11-28 13:02:23.179334
1775  2023-11-28 13:02:23.227321
1776  2023-11-28 13:02:23.275221
1777  2023-11-28 13:02:23.307102
1778  2023-11-28 13:02:23.355011
1779  2023-11-28 13:02:23.386901
1780  2023-11-28 13:02:23.434793
1781  2023-11-28 13:02:23.481667
1782  2023-11-28 13:02:23.512588
1783  2023-11-28 13:02:23.560463
1784  2023-11-28 13:02:23.608327
1785  2023-11-28 13:02:23.639244
1786  2023-11-28 13:02:23.686122
1787  2023-11-28 13:02:23.732965
1788  2023-11-28 13:02:23.764933
1789  2023-11-28 13:02:23.812790
1790  2023-11-28 13:02:23.844707
1791  2023-11-28 13:02:23.892566
1792  2023-11-28 13:02:23.940409
1793  2023-11-28 13:02:23.971327
1794  2023-11-28 13:02:24.019247
1795  2023-11-28 13:02:24.067109
1796  2023-11-28 13:02:24.097028
1797  2023-11-28 13:02:24.144862
1798  2023-11-28 13:02:24.191770
1799  2023-11-28 13:02:24.222690
1800  2023-11-28 13:02:24.270526
1801  2023-11-28 13:02:24.318429
1802  2023-11-28 13:02:24.350364
1803  2023-11-28 13:02:24.398221
1804  2023-11-28 13:02:24.430152
1805  2023-11-28 13:02:24.477972
1806  2023-11-28 13:02:24.525892
1807  2023-11-28 13:02:24.557760
1808  2023-11-28 13:02:24.605630
1809  2023-11-28 13:02:24.637545
1810  2023-11-28 13:02:24.685420
1811  2023-11-28 13:02:24.733289
1812  2023-11-28 13:02:24.765204
1813  2023-11-28 13:02:24.813076
1814  2023-11-28 13:02:24.859952
1815  2023-11-28 13:02:24.890868
1816  2023-11-28 13:02:24.938740
1817  2023-11-28 13:02:24.970655
1818  2023-11-28 13:02:25.018527
1819  2023-11-28 13:02:25.066399
1820  2023-11-28 13:02:25.098313
1821  2023-11-28 13:02:25.146186
1822  2023-11-28 13:02:25.178100
1823  2023-11-28 13:02:25.226013
1824  2023-11-28 13:02:25.273880
1825  2023-11-28 13:02:25.305816
1826  2023-11-28 13:02:25.352691
1827  2023-11-28 13:02:25.399598
1828  2023-11-28 13:02:25.431583
1829  2023-11-28 13:02:25.479458
1830  2023-11-28 13:02:25.525345
1831  2023-11-28 13:02:25.557222
1832  2023-11-28 13:02:25.605137
1833  2023-11-28 13:02:25.650999
1834  2023-11-28 13:02:25.683043
1835  2023-11-28 13:02:25.730914
1836  2023-11-28 13:02:25.762827
1837  2023-11-28 13:02:25.809719
1838  2023-11-28 13:02:25.857587
1839  2023-11-28 13:02:25.889635
1840  2023-11-28 13:02:25.935482
1841  2023-11-28 13:02:25.983355
1842  2023-11-28 13:02:26.015269
1843  2023-11-28 13:02:26.062180
1844  2023-11-28 13:02:26.110015
1845  2023-11-28 13:02:26.142038
1846  2023-11-28 13:02:26.189899
1847  2023-11-28 13:02:26.221877
1848  2023-11-28 13:02:26.269716
1849  2023-11-28 13:02:26.317590
1850  2023-11-28 13:02:26.349516
1851  2023-11-28 13:02:26.395381
1852  2023-11-28 13:02:26.441404
1853  2023-11-28 13:02:26.473316
1854  2023-11-28 13:02:26.519240
1855  2023-11-28 13:02:26.567111
1856  2023-11-28 13:02:26.599038
1857  2023-11-28 13:02:26.646898
1858  2023-11-28 13:02:26.678828
1859  2023-11-28 13:02:26.725519
1860  2023-11-28 13:02:26.773489
1861  2023-11-28 13:02:26.805400
1862  2023-11-28 13:02:26.853277
1863  2023-11-28 13:02:26.899158
1864  2023-11-28 13:02:26.931068
1865  2023-11-28 13:02:26.979924
1866  2023-11-28 13:02:27.026826
1867  2023-11-28 13:02:27.058743
1868  2023-11-28 13:02:27.106568
1869  2023-11-28 13:02:27.138511
1870  2023-11-28 13:02:27.186385
1871  2023-11-28 13:02:27.234277
1872  2023-11-28 13:02:27.266306
1873  2023-11-28 13:02:27.314210
1874  2023-11-28 13:02:27.345129
1875  2023-11-28 13:02:27.393023
1876  2023-11-28 13:02:27.439835
1877  2023-11-28 13:02:27.470751
1878  2023-11-28 13:02:27.518655
1879  2023-11-28 13:02:27.565469
1880  2023-11-28 13:02:27.597462
1881  2023-11-28 13:02:27.645239
1882  2023-11-28 13:02:27.693200
1883  2023-11-28 13:02:27.725115
1884  2023-11-28 13:02:27.772987
1885  2023-11-28 13:02:27.805052
1886  2023-11-28 13:02:27.853813
1887  2023-11-28 13:02:27.900645
1888  2023-11-28 13:02:27.932560
1889  2023-11-28 13:02:27.980432
1890  2023-11-28 13:02:28.012347
1891  2023-11-28 13:02:28.060249
1892  2023-11-28 13:02:28.105186
1893  2023-11-28 13:02:28.151138
1894  2023-11-28 13:02:28.182060
1895  2023-11-28 13:02:28.229988
1896  2023-11-28 13:02:28.261903
1897  2023-11-28 13:02:28.308780
1898  2023-11-28 13:02:28.355672
1899  2023-11-28 13:02:28.386539
1900  2023-11-28 13:02:28.434450
1901  2023-11-28 13:02:28.482314
1902  2023-11-28 13:02:28.514232
1903  2023-11-28 13:02:28.562241
1904  2023-11-28 13:02:28.610009
1905  2023-11-28 13:02:28.641891
1906  2023-11-28 13:02:28.689763
1907  2023-11-28 13:02:28.721684
1908  2023-11-28 13:02:28.769516
1909  2023-11-28 13:02:28.818436
1910  2023-11-28 13:02:28.849343
1911  2023-11-28 13:02:28.897212
1912  2023-11-28 13:02:28.929122
1913  2023-11-28 13:02:28.977988
1914  2023-11-28 13:02:29.024869
1915  2023-11-28 13:02:29.056778
1916  2023-11-28 13:02:29.104650
1917  2023-11-28 13:02:29.151530
1918  2023-11-28 13:02:29.183609
1919  2023-11-28 13:02:29.231484
1920  2023-11-28 13:02:29.263355
1921  2023-11-28 13:02:29.310751
1922  2023-11-28 13:02:29.357708
1923  2023-11-28 13:02:29.389620
1924  2023-11-28 13:02:29.436691
1925  2023-11-28 13:02:29.483595
1926  2023-11-28 13:02:29.515528
1927  2023-11-28 13:02:29.563352
1928  2023-11-28 13:02:29.595275
1929  2023-11-28 13:02:29.643139
1930  2023-11-28 13:02:29.689050
1931  2023-11-28 13:02:29.719968
1932  2023-11-28 13:02:29.767744
1933  2023-11-28 13:02:29.815602
1934  2023-11-28 13:02:29.846521
1935  2023-11-28 13:02:29.893393
1936  2023-11-28 13:02:29.941265
1937  2023-11-28 13:02:29.972224
1938  2023-11-28 13:02:30.019193
1939  2023-11-28 13:02:30.066182
1940  2023-11-28 13:02:30.097096
1941  2023-11-28 13:02:30.144966
1942  2023-11-28 13:02:30.191842
1943  2023-11-28 13:02:30.223754
1944  2023-11-28 13:02:30.271593
1945  2023-11-28 13:02:30.303542
1946  2023-11-28 13:02:30.352410
1947  2023-11-28 13:02:30.400285
1948  2023-11-28 13:02:30.431218
1949  2023-11-28 13:02:30.480210
1950  2023-11-28 13:02:30.526403
1951  2023-11-28 13:02:30.557149
1952  2023-11-28 13:02:30.605038
1953  2023-11-28 13:02:30.636935
1954  2023-11-28 13:02:30.683976
1955  2023-11-28 13:02:30.730815
1956  2023-11-28 13:02:30.762729
1957  2023-11-28 13:02:30.809604
1958  2023-11-28 13:02:30.855516
1959  2023-11-28 13:02:30.886444
1960  2023-11-28 13:02:30.933309
1961  2023-11-28 13:02:30.980175
1962  2023-11-28 13:02:31.026058
1963  2023-11-28 13:02:31.056973
1964  2023-11-28 13:02:31.104815
1965  2023-11-28 13:02:31.151705
1966  2023-11-28 13:02:31.182607
1967  2023-11-28 13:02:31.230524
1968  2023-11-28 13:02:31.262426
1969  2023-11-28 13:02:31.310446
1970  2023-11-28 13:02:31.358140
1971  2023-11-28 13:02:31.390098
1972  2023-11-28 13:02:31.437969
1973  2023-11-28 13:02:31.483834
1974  2023-11-28 13:02:31.515866
1975  2023-11-28 13:02:31.562704
1976  2023-11-28 13:02:31.594618
1977  2023-11-28 13:02:31.642625
1978  2023-11-28 13:02:31.690554
1979  2023-11-28 13:02:31.722469
1980  2023-11-28 13:02:31.770341
1981  2023-11-28 13:02:31.818213
1982  2023-11-28 13:02:31.850128
1983  2023-11-28 13:02:31.898133
1984  2023-11-28 13:02:31.929915
1985  2023-11-28 13:02:31.977786
1986  2023-11-28 13:02:32.024661
1987  2023-11-28 13:02:32.055620
1988  2023-11-28 13:02:32.103616
1989  2023-11-28 13:02:32.150552
1990  2023-11-28 13:02:32.181470
1991  2023-11-28 13:02:32.229309
1992  2023-11-28 13:02:32.261253
1993  2023-11-28 13:02:32.309095
1994  2023-11-28 13:02:32.357003
1995  2023-11-28 13:02:32.387919
1996  2023-11-28 13:02:32.434794
1997  2023-11-28 13:02:32.481670
1998  2023-11-28 13:02:32.513549
1999  2023-11-28 13:02:32.561454
2000  2023-11-28 13:02:32.609329
2001  2023-11-28 13:02:32.641240
2002  2023-11-28 13:02:32.688119
2003  2023-11-28 13:02:32.734992
2004  2023-11-28 13:02:32.765884
2005  2023-11-28 13:02:32.814763
2006  2023-11-28 13:02:32.846669
2007  2023-11-28 13:02:32.894560
2008  2023-11-28 13:02:32.941380
2009  2023-11-28 13:02:32.974293
2010  2023-11-28 13:02:33.021168
2011  2023-11-28 13:02:33.067305
2012  2023-11-28 13:02:33.099216
2013  2023-11-28 13:02:33.147099
2014  2023-11-28 13:02:33.179003
2015  2023-11-28 13:02:33.226875
2016  2023-11-28 13:02:33.273750
2017  2023-11-28 13:02:33.304667
2018  2023-11-28 13:02:33.352697
2019  2023-11-28 13:02:33.400411
2020  2023-11-28 13:02:33.432326
2021  2023-11-28 13:02:33.480198
2022  2023-11-28 13:02:33.526108
2023  2023-11-28 13:02:33.558028
2024  2023-11-28 13:02:33.604895
2025  2023-11-28 13:02:33.651773
2026  2023-11-28 13:02:33.683680
2027  2023-11-28 13:02:33.731564
2028  2023-11-28 13:02:33.763493
2029  2023-11-28 13:02:33.811346
2030  2023-11-28 13:02:33.859218
2031  2023-11-28 13:02:33.891265
2032  2023-11-28 13:02:33.938972
2033  2023-11-28 13:02:33.970919
2034  2023-11-28 13:02:34.018956
2035  2023-11-28 13:02:34.065967
2036  2023-11-28 13:02:34.096880
2037  2023-11-28 13:02:34.144748
2038  2023-11-28 13:02:34.190624
2039  2023-11-28 13:02:34.222540
2040  2023-11-28 13:02:34.270420
2041  2023-11-28 13:02:34.318255
2042  2023-11-28 13:02:34.350171
2043  2023-11-28 13:02:34.398070
2044  2023-11-28 13:02:34.430954
2045  2023-11-28 13:02:34.476862
2046  2023-11-28 13:02:34.523758
2047  2023-11-28 13:02:34.555666
2048  2023-11-28 13:02:34.601497
2049  2023-11-28 13:02:34.649410
2050  2023-11-28 13:02:34.681283
2051  2023-11-28 13:02:34.729155
2052  2023-11-28 13:02:34.775032
2053  2023-11-28 13:02:34.806947
2054  2023-11-28 13:02:34.854850
2055  2023-11-28 13:02:34.886768
2056  2023-11-28 13:02:34.934606
2057  2023-11-28 13:02:34.982517
2058  2023-11-28 13:02:35.014427
2059  2023-11-28 13:02:35.062298
2060  2023-11-28 13:02:35.109304
2061  2023-11-28 13:02:35.140221
2062  2023-11-28 13:02:35.188127
2063  2023-11-28 13:02:35.220042
2064  2023-11-28 13:02:35.267915
2065  2023-11-28 13:02:35.315790
2066  2023-11-28 13:02:35.347700
2067  2023-11-28 13:02:35.395572
2068  2023-11-28 13:02:35.441451
2069  2023-11-28 13:02:35.472384
2070  2023-11-28 13:02:35.520242
2071  2023-11-28 13:02:35.567111
2072  2023-11-28 13:02:35.597034
2073  2023-11-28 13:02:35.644903
2074  2023-11-28 13:02:35.692779
2075  2023-11-28 13:02:35.724691
2076  2023-11-28 13:02:35.772562
2077  2023-11-28 13:02:35.804486
2078  2023-11-28 13:02:35.851320
2079  2023-11-28 13:02:35.897197
2080  2023-11-28 13:02:35.928241
2081  2023-11-28 13:02:35.975118
2082  2023-11-28 13:02:36.022031
2083  2023-11-28 13:02:36.053941
2084  2023-11-28 13:02:36.101779
2085  2023-11-28 13:02:36.149687
2086  2023-11-28 13:02:36.179602
2087  2023-11-28 13:02:36.227475
2088  2023-11-28 13:02:36.275315
2089  2023-11-28 13:02:36.306265
2090  2023-11-28 13:02:36.353139
2091  2023-11-28 13:02:36.401005
2092  2023-11-28 13:02:36.431955
2093  2023-11-28 13:02:36.478925
2094  2023-11-28 13:02:36.526798
2095  2023-11-28 13:02:36.558714
2096  2023-11-28 13:02:36.606672
2097  2023-11-28 13:02:36.636640
2098  2023-11-28 13:02:36.683483
2099  2023-11-28 13:02:36.731383
2100  2023-11-28 13:02:36.763300
2101  2023-11-28 13:02:36.811140
2102  2023-11-28 13:02:36.860083
2103  2023-11-28 13:02:36.891926
2104  2023-11-28 13:02:36.938802
2105  2023-11-28 13:02:36.970746
2106  2023-11-28 13:02:37.019620
2107  2023-11-28 13:02:37.067495
2108  2023-11-28 13:02:37.097407
2109  2023-11-28 13:02:37.145281
2110  2023-11-28 13:02:37.193155
2111  2023-11-28 13:02:37.224037
2112  2023-11-28 13:02:37.271025
2113  2023-11-28 13:02:37.302940
2114  2023-11-28 13:02:37.350769
2115  2023-11-28 13:02:37.396647
2116  2023-11-28 13:02:37.442617
2117  2023-11-28 13:02:37.474532
2118  2023-11-28 13:02:37.522438
2119  2023-11-28 13:02:37.554351
2120  2023-11-28 13:02:37.602342
2121  2023-11-28 13:02:37.650128
2122  2023-11-28 13:02:37.682011
2123  2023-11-28 13:02:37.729882
2124  2023-11-28 13:02:37.761797
2125  2023-11-28 13:02:37.809672
2126  2023-11-28 13:02:37.855545
2127  2023-11-28 13:02:37.886466
2128  2023-11-28 13:02:37.933338
2129  2023-11-28 13:02:37.981216
2130  2023-11-28 13:02:38.013093
2131  2023-11-28 13:02:38.060007
2132  2023-11-28 13:02:38.106881
2133  2023-11-28 13:02:38.138802
2134  2023-11-28 13:02:38.186660
2135  2023-11-28 13:02:38.234534
2136  2023-11-28 13:02:38.266450
2137  2023-11-28 13:02:38.314318
2138  2023-11-28 13:02:38.347235
2139  2023-11-28 13:02:38.393106
2140  2023-11-28 13:02:38.440983
2141  2023-11-28 13:02:38.472908
2142  2023-11-28 13:02:38.520777
2143  2023-11-28 13:02:38.566692
2144  2023-11-28 13:02:38.598606
2145  2023-11-28 13:02:38.645481
2146  2023-11-28 13:02:38.693388
2147  2023-11-28 13:02:38.725315
2148  2023-11-28 13:02:38.773140
2149  2023-11-28 13:02:38.805054
2150  2023-11-28 13:02:38.852963
2151  2023-11-28 13:02:38.900872
2152  2023-11-28 13:02:38.932787
2153  2023-11-28 13:02:38.979662
2154  2023-11-28 13:02:39.026536
2155  2023-11-28 13:02:39.058518
2156  2023-11-28 13:02:39.104440
2157  2023-11-28 13:02:39.136352
2158  2023-11-28 13:02:39.184251
2159  2023-11-28 13:02:39.232211
2160  2023-11-28 13:02:39.264121
2161  2023-11-28 13:02:39.312074
2162  2023-11-28 13:02:39.359866
2163  2023-11-28 13:02:39.391777
2164  2023-11-28 13:02:39.439616
2165  2023-11-28 13:02:39.471572
2166  2023-11-28 13:02:39.519440
2167  2023-11-28 13:02:39.567275
2168  2023-11-28 13:02:39.598230
2169  2023-11-28 13:02:39.644069
2170  2023-11-28 13:02:39.691975
2171  2023-11-28 13:02:39.721933
2172  2023-11-28 13:02:39.769765
2173  2023-11-28 13:02:39.817644
2174  2023-11-28 13:02:39.849564
2175  2023-11-28 13:02:39.897438
2176  2023-11-28 13:02:39.929356
2177  2023-11-28 13:02:39.976233
2178  2023-11-28 13:02:40.022111
2179  2023-11-28 13:02:40.054066
2180  2023-11-28 13:02:40.101974
2181  2023-11-28 13:02:40.149876
2182  2023-11-28 13:02:40.181797
2183  2023-11-28 13:02:40.228636
2184  2023-11-28 13:02:40.275510
2185  2023-11-28 13:02:40.307425
2186  2023-11-28 13:02:40.355297
2187  2023-11-28 13:02:40.386215
2188  2023-11-28 13:02:40.433091
2189  2023-11-28 13:02:40.480996
2190  2023-11-28 13:02:40.512909
2191  2023-11-28 13:02:40.560781
2192  2023-11-28 13:02:40.608619
2193  2023-11-28 13:02:40.640534
2194  2023-11-28 13:02:40.688441
2195  2023-11-28 13:02:40.720356
2196  2023-11-28 13:02:40.767195
2197  2023-11-28 13:02:40.814103
2198  2023-11-28 13:02:40.845020
2199  2023-11-28 13:02:40.891893
2200  2023-11-28 13:02:40.939766
2201  2023-11-28 13:02:40.971682
2202  2023-11-28 13:02:41.019715
2203  2023-11-28 13:02:41.067427
2204  2023-11-28 13:02:41.099309
2205  2023-11-28 13:02:41.147230
2206  2023-11-28 13:02:41.179128
2207  2023-11-28 13:02:41.226997
2208  2023-11-28 13:02:41.273877
2209  2023-11-28 13:02:41.304788
2210  2023-11-28 13:02:41.352661
2211  2023-11-28 13:02:41.399539
2212  2023-11-28 13:02:41.430454
2213  2023-11-28 13:02:41.477297
2214  2023-11-28 13:02:41.525203
2215  2023-11-28 13:02:41.557116
2216  2023-11-28 13:02:41.604956
2217  2023-11-28 13:02:41.636871
2218  2023-11-28 13:02:41.684773
2219  2023-11-28 13:02:41.732685
2220  2023-11-28 13:02:41.764681
2221  2023-11-28 13:02:41.812553
2222  2023-11-28 13:02:41.859461
2223  2023-11-28 13:02:41.891383
2224  2023-11-28 13:02:41.938217
2225  2023-11-28 13:02:41.984127
2226  2023-11-28 13:02:42.015012
2227  2023-11-28 13:02:42.062916
2228  2023-11-28 13:02:42.094831
2229  2023-11-28 13:02:42.142671
2230  2023-11-28 13:02:42.190546
2231  2023-11-28 13:02:42.222467
2232  2023-11-28 13:02:42.270329
2233  2023-11-28 13:02:42.318233
2234  2023-11-28 13:02:42.350117
2235  2023-11-28 13:02:42.398040
2236  2023-11-28 13:02:42.429939
2237  2023-11-28 13:02:42.477878
2238  2023-11-28 13:02:42.525784
2239  2023-11-28 13:02:42.557698
2240  2023-11-28 13:02:42.605575
2241  2023-11-28 13:02:42.637451
2242  2023-11-28 13:02:42.683364
2243  2023-11-28 13:02:42.729240
2244  2023-11-28 13:02:42.776118
2245  2023-11-28 13:02:42.807031
2246  2023-11-28 13:02:42.853909
2247  2023-11-28 13:02:42.901776
2248  2023-11-28 13:02:42.933693
2249  2023-11-28 13:02:42.981562
2250  2023-11-28 13:02:43.013478
2251  2023-11-28 13:02:43.061388
2252  2023-11-28 13:02:43.109365
2253  2023-11-28 13:02:43.139251
2254  2023-11-28 13:02:43.186162
2255  2023-11-28 13:02:43.234031
2256  2023-11-28 13:02:43.265947
2257  2023-11-28 13:02:43.313787
2258  2023-11-28 13:02:43.345754
2259  2023-11-28 13:02:43.393572
2260  2023-11-28 13:02:43.441443
2261  2023-11-28 13:02:43.473358
2262  2023-11-28 13:02:43.521280
2263  2023-11-28 13:02:43.553177
2264  2023-11-28 13:02:43.601040
2265  2023-11-28 13:02:43.649090
2266  2023-11-28 13:02:43.680962
2267  2023-11-28 13:02:43.727869
2268  2023-11-28 13:02:43.774881
2269  2023-11-28 13:02:43.806795
2270  2023-11-28 13:02:43.854704
2271  2023-11-28 13:02:43.886583
2272  2023-11-28 13:02:43.934454
2273  2023-11-28 13:02:43.982327
2274  2023-11-28 13:02:44.014241
2275  2023-11-28 13:02:44.062151
2276  2023-11-28 13:02:44.109985
2277  2023-11-28 13:02:44.141900
2278  2023-11-28 13:02:44.187788
2279  2023-11-28 13:02:44.219723
2280  2023-11-28 13:02:44.267564
2281  2023-11-28 13:02:44.313441
2282  2023-11-28 13:02:44.345356
2283  2023-11-28 13:02:44.393262
2284  2023-11-28 13:02:44.440136
2285  2023-11-28 13:02:44.471150
2286  2023-11-28 13:02:44.519017
2287  2023-11-28 13:02:44.566853
2288  2023-11-28 13:02:44.598768
2289  2023-11-28 13:02:44.644645
2290  2023-11-28 13:02:44.692517
2291  2023-11-28 13:02:44.724464
2292  2023-11-28 13:02:44.770402
2293  2023-11-28 13:02:44.818310
2294  2023-11-28 13:02:44.850192
2295  2023-11-28 13:02:44.898092
2296  2023-11-28 13:02:44.930007
2297  2023-11-28 13:02:44.977848
2298  2023-11-28 13:02:45.025728
2299  2023-11-28 13:02:45.057637
2300  2023-11-28 13:02:45.105507
2301  2023-11-28 13:02:45.137421
2302  2023-11-28 13:02:45.185295
2303  2023-11-28 13:02:45.233432
2304  2023-11-28 13:02:45.265464
2305  2023-11-28 13:02:45.313317
2306  2023-11-28 13:02:45.345254
2307  2023-11-28 13:02:45.393141
2308  2023-11-28 13:02:45.438967
2309  2023-11-28 13:02:45.470881
2310  2023-11-28 13:02:45.518786
2311  2023-11-28 13:02:45.565628
2312  2023-11-28 13:02:45.597630
2313  2023-11-28 13:02:45.645542
2314  2023-11-28 13:02:45.692450
2315  2023-11-28 13:02:45.723378
2316  2023-11-28 13:02:45.770245
2317  2023-11-28 13:02:45.816087
2318  2023-11-28 13:02:45.847037
2319  2023-11-28 13:02:45.894913
2320  2023-11-28 13:02:45.942748
2321  2023-11-28 13:02:45.974664
2322  2023-11-28 13:02:46.020572
2323  2023-11-28 13:02:46.069442
2324  2023-11-28 13:02:46.100444
2325  2023-11-28 13:02:46.149229
2326  2023-11-28 13:02:46.179147
2327  2023-11-28 13:02:46.227019
2328  2023-11-28 13:02:46.274891
2329  2023-11-28 13:02:46.305777
2330  2023-11-28 13:02:46.352684
2331  2023-11-28 13:02:46.400576
2332  2023-11-28 13:02:46.431475
2333  2023-11-28 13:02:46.478316
2334  2023-11-28 13:02:46.526230
2335  2023-11-28 13:02:46.558109
2336  2023-11-28 13:02:46.604977
2337  2023-11-28 13:02:46.637012
2338  2023-11-28 13:02:46.685919
2339  2023-11-28 13:02:46.732747
2340  2023-11-28 13:02:46.764661
2341  2023-11-28 13:02:46.812533
2342  2023-11-28 13:02:46.860407
2343  2023-11-28 13:02:46.890359
2344  2023-11-28 13:02:46.936239
2345  2023-11-28 13:02:46.984106
2346  2023-11-28 13:02:47.015989
2347  2023-11-28 13:02:47.061905
2348  2023-11-28 13:02:47.109783
2349  2023-11-28 13:02:47.141653
2350  2023-11-28 13:02:47.188582
2351  2023-11-28 13:02:47.220494
2352  2023-11-28 13:02:47.268498
2353  2023-11-28 13:02:47.317371
2354  2023-11-28 13:02:47.348345
2355  2023-11-28 13:02:47.397296
2356  2023-11-28 13:02:47.429209
2357  2023-11-28 13:02:47.476081
2358  2023-11-28 13:02:47.522936
2359  2023-11-28 13:02:47.554851
2360  2023-11-28 13:02:47.600853
2361  2023-11-28 13:02:47.646700
2362  2023-11-28 13:02:47.692608
2363  2023-11-28 13:02:47.723584
2364  2023-11-28 13:02:47.770516
2365  2023-11-28 13:02:47.817391
2366  2023-11-28 13:02:47.849306
2367  2023-11-28 13:02:47.896218
2368  2023-11-28 13:02:47.942097
2369  2023-11-28 13:02:47.973972
2370  2023-11-28 13:02:48.021881
2371  2023-11-28 13:02:48.053759
2372  2023-11-28 13:02:48.101704
2373  2023-11-28 13:02:48.149575
2374  2023-11-28 13:02:48.181486
2375  2023-11-28 13:02:48.228357
2376  2023-11-28 13:02:48.276244
2377  2023-11-28 13:02:48.306118
2378  2023-11-28 13:02:48.352024
2379  2023-11-28 13:02:48.398902
2380  2023-11-28 13:02:48.430823
2381  2023-11-28 13:02:48.478736
2382  2023-11-28 13:02:48.526641
2383  2023-11-28 13:02:48.558557
2384  2023-11-28 13:02:48.606394
2385  2023-11-28 13:02:48.638309
2386  2023-11-28 13:02:48.686182
2387  2023-11-28 13:02:48.734053
2388  2023-11-28 13:02:48.765968
2389  2023-11-28 13:02:48.813840
2390  2023-11-28 13:02:48.845754
2391  2023-11-28 13:02:48.892659
2392  2023-11-28 13:02:48.939504
2393  2023-11-28 13:02:48.971419
2394  2023-11-28 13:02:49.019466
2395  2023-11-28 13:02:49.066346
2396  2023-11-28 13:02:49.096253
2397  2023-11-28 13:02:49.143124
2398  2023-11-28 13:02:49.190999
2399  2023-11-28 13:02:49.222912
2400  2023-11-28 13:02:49.270784
2401  2023-11-28 13:02:49.316679
2402  2023-11-28 13:02:49.348579
2403  2023-11-28 13:02:49.396461
2404  2023-11-28 13:02:49.428383
2405  2023-11-28 13:02:49.476233
2406  2023-11-28 13:02:49.524209
2407  2023-11-28 13:02:49.555326
2408  2023-11-28 13:02:49.602247
2409  2023-11-28 13:02:49.650077
2410  2023-11-28 13:02:49.682037
2411  2023-11-28 13:02:49.729861
2412  2023-11-28 13:02:49.761777
2413  2023-11-28 13:02:49.808701
2414  2023-11-28 13:02:49.855567
2415  2023-11-28 13:02:49.886478
2416  2023-11-28 13:02:49.933318
2417  2023-11-28 13:02:49.981190
2418  2023-11-28 13:02:50.013104
2419  2023-11-28 13:02:50.061011
2420  2023-11-28 13:02:50.108978
2421  2023-11-28 13:02:50.140763
2422  2023-11-28 13:02:50.188635
2423  2023-11-28 13:02:50.220692
2424  2023-11-28 13:02:50.267605
2425  2023-11-28 13:02:50.315483
2426  2023-11-28 13:02:50.347354
2427  2023-11-28 13:02:50.395262
2428  2023-11-28 13:02:50.443133
2429  2023-11-28 13:02:50.475048
2430  2023-11-28 13:02:50.521926
2431  2023-11-28 13:02:50.567830
2432  2023-11-28 13:02:50.598751
2433  2023-11-28 13:02:50.646589
2434  2023-11-28 13:02:50.678546
2435  2023-11-28 13:02:50.725380
2436  2023-11-28 13:02:50.772285
2437  2023-11-28 13:02:50.804201
2438  2023-11-28 13:02:50.852081
2439  2023-11-28 13:02:50.899944
2440  2023-11-28 13:02:50.931859
2441  2023-11-28 13:02:50.979737
2442  2023-11-28 13:02:51.011769
2443  2023-11-28 13:02:51.059638
2444  2023-11-28 13:02:51.107587
2445  2023-11-28 13:02:51.139628
2446  2023-11-28 13:02:51.187463
2447  2023-11-28 13:02:51.234333
2448  2023-11-28 13:02:51.265259
2449  2023-11-28 13:02:51.313087
2450  2023-11-28 13:02:51.346063
2451  2023-11-28 13:02:51.390014
2452  2023-11-28 13:02:51.436865
2453  2023-11-28 13:02:51.484728
2454  2023-11-28 13:02:51.517674
2455  2023-11-28 13:02:51.564644
2456  2023-11-28 13:02:51.596461
2457  2023-11-28 13:02:51.644302
2458  2023-11-28 13:02:51.691176
2459  2023-11-28 13:02:51.722094
2460  2023-11-28 13:02:51.769966
2461  2023-11-28 13:02:51.817838
2462  2023-11-28 13:02:51.849752
2463  2023-11-28 13:02:51.897665
2464  2023-11-28 13:02:51.929539
2465  2023-11-28 13:02:51.977411
2466  2023-11-28 13:02:52.023330
2467  2023-11-28 13:02:52.055236
2468  2023-11-28 13:02:52.103166
2469  2023-11-28 13:02:52.151057
2470  2023-11-28 13:02:52.182598
2471  2023-11-28 13:02:52.230610
2472  2023-11-28 13:02:52.262501
2473  2023-11-28 13:02:52.310497
2474  2023-11-28 13:02:52.358492
2475  2023-11-28 13:02:52.390413
2476  2023-11-28 13:02:52.438242
2477  2023-11-28 13:02:52.470156
2478  2023-11-28 13:02:52.517032
2479  2023-11-28 13:02:52.563907
2480  2023-11-28 13:02:52.595821
2481  2023-11-28 13:02:52.642694
2482  2023-11-28 13:02:52.687663
2483  2023-11-28 13:02:52.735588
2484  2023-11-28 13:02:52.766550
2485  2023-11-28 13:02:52.812382
2486  2023-11-28 13:02:52.859305
2487  2023-11-28 13:02:52.890387
2488  2023-11-28 13:02:52.937793
2489  2023-11-28 13:02:52.969712
2490  2023-11-28 13:02:53.015711
2491  2023-11-28 13:02:53.063623
2492  2023-11-28 13:02:53.094622
2493  2023-11-28 13:02:53.141486
2494  2023-11-28 13:02:53.189356
2495  2023-11-28 13:02:53.221277
2496  2023-11-28 13:02:53.269261
2497  2023-11-28 13:02:53.316977
2498  2023-11-28 13:02:53.348976
2499  2023-11-28 13:02:53.396818
2500  2023-11-28 13:02:53.428736
2501  2023-11-28 13:02:53.476637
2502  2023-11-28 13:02:53.524477
2503  2023-11-28 13:02:53.556421
2504  2023-11-28 13:02:53.603933
2505  2023-11-28 13:02:53.650811
2506  2023-11-28 13:02:53.682729
2507  2023-11-28 13:02:53.729612
2508  2023-11-28 13:02:53.761479
2509  2023-11-28 13:02:53.809389
2510  2023-11-28 13:02:53.857301
2511  2023-11-28 13:02:53.889210
2512  2023-11-28 13:02:53.936290
2513  2023-11-28 13:02:53.984026
2514  2023-11-28 13:02:54.015873
2515  2023-11-28 13:02:54.062781
2516  2023-11-28 13:02:54.109664
2517  2023-11-28 13:02:54.138658
2518  2023-11-28 13:02:54.186705
2519  2023-11-28 13:02:54.233580
2520  2023-11-28 13:02:54.264533
2521  2023-11-28 13:02:54.312369
2522  2023-11-28 13:02:54.359296
2523  2023-11-28 13:02:54.390202
2524  2023-11-28 13:02:54.437036
2525  2023-11-28 13:02:54.483950
2526  2023-11-28 13:02:54.514867
2527  2023-11-28 13:02:54.562744
2528  2023-11-28 13:02:54.594616
2529  2023-11-28 13:02:54.642526
2530  2023-11-28 13:02:54.690398
2531  2023-11-28 13:02:54.722313
2532  2023-11-28 13:02:54.770254
2533  2023-11-28 13:02:54.816285
2534  2023-11-28 13:02:54.848203
2535  2023-11-28 13:02:54.896073
2536  2023-11-28 13:02:54.927979
2537  2023-11-28 13:02:54.975846
2538  2023-11-28 13:02:55.023726
2539  2023-11-28 13:02:55.053649
2540  2023-11-28 13:02:55.101474
2541  2023-11-28 13:02:55.149392
2542  2023-11-28 13:02:55.181307
2543  2023-11-28 13:02:55.229164
2544  2023-11-28 13:02:55.277050
2545  2023-11-28 13:02:55.306923
2546  2023-11-28 13:02:55.353798
2547  2023-11-28 13:02:55.400673
2548  2023-11-28 13:02:55.432617
2549  2023-11-28 13:02:55.479462
2550  2023-11-28 13:02:55.511379
2551  2023-11-28 13:02:55.558285
2552  2023-11-28 13:02:55.605157
2553  2023-11-28 13:02:55.651036
2554  2023-11-28 13:02:55.682920
2555  2023-11-28 13:02:55.730826
2556  2023-11-28 13:02:55.762740
2557  2023-11-28 13:02:55.810697
2558  2023-11-28 13:02:55.858571
2559  2023-11-28 13:02:55.889494
2560  2023-11-28 13:02:55.936366
2561  2023-11-28 13:02:55.984398
2562  2023-11-28 13:02:56.016290
2563  2023-11-28 13:02:56.064316
2564  2023-11-28 13:02:56.096234
2565  2023-11-28 13:02:56.144095
2566  2023-11-28 13:02:56.191934
2567  2023-11-28 13:02:56.222884
2568  2023-11-28 13:02:56.270829
2569  2023-11-28 13:02:56.318743
2570  2023-11-28 13:02:56.351660
2571  2023-11-28 13:02:56.398497
2572  2023-11-28 13:02:56.431454
2573  2023-11-28 13:02:56.476321
2574  2023-11-28 13:02:56.522255
2575  2023-11-28 13:02:56.553169
2576  2023-11-28 13:02:56.600078
2577  2023-11-28 13:02:56.647916
2578  2023-11-28 13:02:56.679830
2579  2023-11-28 13:02:56.727739
2580  2023-11-28 13:02:56.774577
2581  2023-11-28 13:02:56.805563
2582  2023-11-28 13:02:56.852554
2583  2023-11-28 13:02:56.899478
2584  2023-11-28 13:02:56.931364
2585  2023-11-28 13:02:56.979249
2586  2023-11-28 13:02:57.011380
2587  2023-11-28 13:02:57.059072
2588  2023-11-28 13:02:57.106908
2589  2023-11-28 13:02:57.138823
2590  2023-11-28 13:02:57.186728
2591  2023-11-28 13:02:57.234599
2592  2023-11-28 13:02:57.266482
2593  2023-11-28 13:02:57.314385
2594  2023-11-28 13:02:57.346268
2595  2023-11-28 13:02:57.394191
2596  2023-11-28 13:02:57.442044
2597  2023-11-28 13:02:57.474047
2598  2023-11-28 13:02:57.520000
2599  2023-11-28 13:02:57.566868
2600  2023-11-28 13:02:57.598789
2601  2023-11-28 13:02:57.645659
2602  2023-11-28 13:02:57.693534
2603  2023-11-28 13:02:57.723457
2604  2023-11-28 13:02:57.769296
2605  2023-11-28 13:02:57.817168
2606  2023-11-28 13:02:57.849082
2607  2023-11-28 13:02:57.896955
2608  2023-11-28 13:02:57.928904
2609  2023-11-28 13:02:57.976741
2610  2023-11-28 13:02:58.024613
2611  2023-11-28 13:02:58.056528
2612  2023-11-28 13:02:58.104432
2613  2023-11-28 13:02:58.151275
2614  2023-11-28 13:02:58.183189
2615  2023-11-28 13:02:58.231128
2616  2023-11-28 13:02:58.263085
2617  2023-11-28 13:02:58.310927
2618  2023-11-28 13:02:58.358831
2619  2023-11-28 13:02:58.390771
2620  2023-11-28 13:02:58.438586
2621  2023-11-28 13:02:58.470532
2622  2023-11-28 13:02:58.518450
2623  2023-11-28 13:02:58.566360
2624  2023-11-28 13:02:58.598269
2625  2023-11-28 13:02:58.646109
2626  2023-11-28 13:02:58.678023
2627  2023-11-28 13:02:58.725929
2628  2023-11-28 13:02:58.772771
2629  2023-11-28 13:02:58.804720
2630  2023-11-28 13:02:58.851560
2631  2023-11-28 13:02:58.899432
2632  2023-11-28 13:02:58.931387
2633  2023-11-28 13:02:58.979218
2634  2023-11-28 13:02:59.025097
2635  2023-11-28 13:02:59.057042
2636  2023-11-28 13:02:59.104921
2637  2023-11-28 13:02:59.136836
2638  2023-11-28 13:02:59.184706
2639  2023-11-28 13:02:59.232721
2640  2023-11-28 13:02:59.264631
2641  2023-11-28 13:02:59.312503
2642  2023-11-28 13:02:59.360384
2643  2023-11-28 13:02:59.390321
2644  2023-11-28 13:02:59.436305
2645  2023-11-28 13:02:59.484150
2646  2023-11-28 13:02:59.516079
2647  2023-11-28 13:02:59.562950
2648  2023-11-28 13:02:59.609959
2649  2023-11-28 13:02:59.642888
2650  2023-11-28 13:02:59.689722
2651  2023-11-28 13:02:59.721668
2652  2023-11-28 13:02:59.770537
2653  2023-11-28 13:02:59.818414
2654  2023-11-28 13:02:59.848297
2655  2023-11-28 13:02:59.896169
2656  2023-11-28 13:02:59.928123
2657  2023-11-28 13:02:59.975693
2658  2023-11-28 13:03:00.022565
2659  2023-11-28 13:03:00.053456
2660  2023-11-28 13:03:00.101461
2661  2023-11-28 13:03:00.149465
2662  2023-11-28 13:03:00.181380
2663  2023-11-28 13:03:00.228316
2664  2023-11-28 13:03:00.275230
2665  2023-11-28 13:03:00.307145
2666  2023-11-28 13:03:00.355020
2667  2023-11-28 13:03:00.386973
2668  2023-11-28 13:03:00.433838
2669  2023-11-28 13:03:00.481713
2670  2023-11-28 13:03:00.512627
2671  2023-11-28 13:03:00.560022
2672  2023-11-28 13:03:00.607972
2673  2023-11-28 13:03:00.639920
2674  2023-11-28 13:03:00.687918
2675  2023-11-28 13:03:00.719843
2676  2023-11-28 13:03:00.766734
2677  2023-11-28 13:03:00.813838
2678  2023-11-28 13:03:00.845751
2679  2023-11-28 13:03:00.893626
2680  2023-11-28 13:03:00.941495
2681  2023-11-28 13:03:00.972410
2682  2023-11-28 13:03:01.019319
2683  2023-11-28 13:03:01.067175
2684  2023-11-28 13:03:01.099042
2685  2023-11-28 13:03:01.146915
2686  2023-11-28 13:03:01.178873
2687  2023-11-28 13:03:01.226849
2688  2023-11-28 13:03:01.274705
2689  2023-11-28 13:03:01.306619
2690  2023-11-28 13:03:01.352497
2691  2023-11-28 13:03:01.398376
2692  2023-11-28 13:03:01.429309
2693  2023-11-28 13:03:01.476134
2694  2023-11-28 13:03:01.524038
2695  2023-11-28 13:03:01.555954
2696  2023-11-28 13:03:01.603835
2697  2023-11-28 13:03:01.651665
2698  2023-11-28 13:03:01.682582
2699  2023-11-28 13:03:01.729504
2700  2023-11-28 13:03:01.776365
2701  2023-11-28 13:03:01.808246
2702  2023-11-28 13:03:01.856152
2703  2023-11-28 13:03:01.888068
2704  2023-11-28 13:03:01.935936
2705  2023-11-28 13:03:01.983811
2706  2023-11-28 13:03:02.014732
2707  2023-11-28 13:03:02.061607
2708  2023-11-28 13:03:02.109474
2709  2023-11-28 13:03:02.141390
2710  2023-11-28 13:03:02.187273
2711  2023-11-28 13:03:02.234139
2712  2023-11-28 13:03:02.266056
2713  2023-11-28 13:03:02.312899
2714  2023-11-28 13:03:02.359804
2715  2023-11-28 13:03:02.391726
2716  2023-11-28 13:03:02.440591
2717  2023-11-28 13:03:02.470523
2718  2023-11-28 13:03:02.518349
2719  2023-11-28 13:03:02.564258
2720  2023-11-28 13:03:02.596172
2721  2023-11-28 13:03:02.644013
2722  2023-11-28 13:03:02.691916
2723  2023-11-28 13:03:02.723833
2724  2023-11-28 13:03:02.771802
2725  2023-11-28 13:03:02.803777
2726  2023-11-28 13:03:02.851731
2727  2023-11-28 13:03:02.899639
2728  2023-11-28 13:03:02.931565
2729  2023-11-28 13:03:02.979390
2730  2023-11-28 13:03:03.011305
2731  2023-11-28 13:03:03.059213
2732  2023-11-28 13:03:03.105054
2733  2023-11-28 13:03:03.136969
2734  2023-11-28 13:03:03.184874
2735  2023-11-28 13:03:03.232745
2736  2023-11-28 13:03:03.264660
2737  2023-11-28 13:03:03.312500
2738  2023-11-28 13:03:03.359406
2739  2023-11-28 13:03:03.390326
2740  2023-11-28 13:03:03.436202
2741  2023-11-28 13:03:03.484042
2742  2023-11-28 13:03:03.515956
2743  2023-11-28 13:03:03.562866
2744  2023-11-28 13:03:03.609741
2745  2023-11-28 13:03:03.640654
2746  2023-11-28 13:03:03.687529
2747  2023-11-28 13:03:03.733408
2748  2023-11-28 13:03:03.765325
2749  2023-11-28 13:03:03.813161
2750  2023-11-28 13:03:03.845076
2751  2023-11-28 13:03:03.890990
2752  2023-11-28 13:03:03.938825
2753  2023-11-28 13:03:03.970813
2754  2023-11-28 13:03:04.018636
2755  2023-11-28 13:03:04.066645
2756  2023-11-28 13:03:04.098562
2757  2023-11-28 13:03:04.145432
2758  2023-11-28 13:03:04.191392
2759  2023-11-28 13:03:04.222352
2760  2023-11-28 13:03:04.269185
2761  2023-11-28 13:03:04.317146
2762  2023-11-28 13:03:04.348052
2763  2023-11-28 13:03:04.395936
2764  2023-11-28 13:03:04.427856
2765  2023-11-28 13:03:04.475711
2766  2023-11-28 13:03:04.522554
2767  2023-11-28 13:03:04.553471
2768  2023-11-28 13:03:04.601522
2769  2023-11-28 13:03:04.649248
2770  2023-11-28 13:03:04.681130
2771  2023-11-28 13:03:04.729033
2772  2023-11-28 13:03:04.776907
2773  2023-11-28 13:03:04.808820
2774  2023-11-28 13:03:04.854698
2775  2023-11-28 13:03:04.902583
2776  2023-11-28 13:03:04.934458
2777  2023-11-28 13:03:04.982506
2778  2023-11-28 13:03:05.014385
2779  2023-11-28 13:03:05.062370
2780  2023-11-28 13:03:05.110252
2781  2023-11-28 13:03:05.142157
2782  2023-11-28 13:03:05.190027
2783  2023-11-28 13:03:05.221937
2784  2023-11-28 13:03:05.268822
2785  2023-11-28 13:03:05.318687
2786  2023-11-28 13:03:05.348565
2787  2023-11-28 13:03:05.396621
2788  2023-11-28 13:03:05.428545
2789  2023-11-28 13:03:05.475379
2790  2023-11-28 13:03:05.523285
2791  2023-11-28 13:03:05.555201
2792  2023-11-28 13:03:05.603085
2793  2023-11-28 13:03:05.650910
2794  2023-11-28 13:03:05.682825
2795  2023-11-28 13:03:05.730740
2796  2023-11-28 13:03:05.762663
2797  2023-11-28 13:03:05.809486
2798  2023-11-28 13:03:05.857396
2799  2023-11-28 13:03:05.890272
2800  2023-11-28 13:03:05.936148
2801  2023-11-28 13:03:05.983022
2802  2023-11-28 13:03:06.013972
2803  2023-11-28 13:03:06.059863
2804  2023-11-28 13:03:06.106731
2805  2023-11-28 13:03:06.136645
2806  2023-11-28 13:03:06.183486
2807  2023-11-28 13:03:06.231394
2808  2023-11-28 13:03:06.263306
2809  2023-11-28 13:03:06.311145
2810  2023-11-28 13:03:06.359055
2811  2023-11-28 13:03:06.390932
2812  2023-11-28 13:03:06.438944
2813  2023-11-28 13:03:06.485803
2814  2023-11-28 13:03:06.517731
2815  2023-11-28 13:03:06.565615
2816  2023-11-28 13:03:06.597651
2817  2023-11-28 13:03:06.645525
2818  2023-11-28 13:03:06.693384
2819  2023-11-28 13:03:06.725299
2820  2023-11-28 13:03:06.770261
2821  2023-11-28 13:03:06.818133
2822  2023-11-28 13:03:06.848053
2823  2023-11-28 13:03:06.895961
2824  2023-11-28 13:03:06.927866
2825  2023-11-28 13:03:06.975849
2826  2023-11-28 13:03:07.023753
2827  2023-11-28 13:03:07.055668
2828  2023-11-28 13:03:07.103595
2829  2023-11-28 13:03:07.152420
2830  2023-11-28 13:03:07.182374
2831  2023-11-28 13:03:07.230212
2832  2023-11-28 13:03:07.275091
2833  2023-11-28 13:03:07.306008
2834  2023-11-28 13:03:07.352999
2835  2023-11-28 13:03:07.400902
2836  2023-11-28 13:03:07.432816
2837  2023-11-28 13:03:07.480692
2838  2023-11-28 13:03:07.512572
2839  2023-11-28 13:03:07.560475
2840  2023-11-28 13:03:07.607320
2841  2023-11-28 13:03:07.639275
2842  2023-11-28 13:03:07.687119
2843  2023-11-28 13:03:07.735008
2844  2023-11-28 13:03:07.765012
2845  2023-11-28 13:03:07.812856
2846  2023-11-28 13:03:07.860986
2847  2023-11-28 13:03:07.890853
2848  2023-11-28 13:03:07.939798
2849  2023-11-28 13:03:07.970719
2850  2023-11-28 13:03:08.018558
2851  2023-11-28 13:03:08.066463
2852  2023-11-28 13:03:08.098378
2853  2023-11-28 13:03:08.146286
2854  2023-11-28 13:03:08.194159
2855  2023-11-28 13:03:08.225108
2856  2023-11-28 13:03:08.272977
2857  2023-11-28 13:03:08.305002
2858  2023-11-28 13:03:08.352948
2859  2023-11-28 13:03:08.400818
2860  2023-11-28 13:03:08.432737
2861  2023-11-28 13:03:08.480574
2862  2023-11-28 13:03:08.512488
2863  2023-11-28 13:03:08.560392
2864  2023-11-28 13:03:08.608232
2865  2023-11-28 13:03:08.640147
2866  2023-11-28 13:03:08.688056
2867  2023-11-28 13:03:08.720064
2868  2023-11-28 13:03:08.765886
2869  2023-11-28 13:03:08.813758
2870  2023-11-28 13:03:08.845672
2871  2023-11-28 13:03:08.891700
2872  2023-11-28 13:03:08.939676
2873  2023-11-28 13:03:08.971632
2874  2023-11-28 13:03:09.018465
2875  2023-11-28 13:03:09.066375
2876  2023-11-28 13:03:09.096307
2877  2023-11-28 13:03:09.144129
2878  2023-11-28 13:03:09.192042
2879  2023-11-28 13:03:09.223916
2880  2023-11-28 13:03:09.271823
2881  2023-11-28 13:03:09.303738
2882  2023-11-28 13:03:09.351748
2883  2023-11-28 13:03:09.399482
2884  2023-11-28 13:03:09.431407
2885  2023-11-28 13:03:09.479269
2886  2023-11-28 13:03:09.511188
2887  2023-11-28 13:03:09.559055
2888  2023-11-28 13:03:09.605937
2889  2023-11-28 13:03:09.637848
2890  2023-11-28 13:03:09.685843
2891  2023-11-28 13:03:09.733683
2892  2023-11-28 13:03:09.765635
2893  2023-11-28 13:03:09.811492
2894  2023-11-28 13:03:09.857400
2895  2023-11-28 13:03:09.891331
2896  2023-11-28 13:03:09.936232
2897  2023-11-28 13:03:09.983165
2898  2023-11-28 13:03:10.015079
2899  2023-11-28 13:03:10.061993
2900  2023-11-28 13:03:10.108829
2901  2023-11-28 13:03:10.140743
2902  2023-11-28 13:03:10.186621
2903  2023-11-28 13:03:10.234543
2904  2023-11-28 13:03:10.265410
2905  2023-11-28 13:03:10.313329
2906  2023-11-28 13:03:10.345197
2907  2023-11-28 13:03:10.393111
2908  2023-11-28 13:03:10.440976
2909  2023-11-28 13:03:10.472895
2910  2023-11-28 13:03:10.520762
2911  2023-11-28 13:03:10.567639
2912  2023-11-28 13:03:10.598555
2913  2023-11-28 13:03:10.646392
2914  2023-11-28 13:03:10.678342
2915  2023-11-28 13:03:10.726215
2916  2023-11-28 13:03:10.774083
2917  2023-11-28 13:03:10.806011
2918  2023-11-28 13:03:10.853837
2919  2023-11-28 13:03:10.901742
2920  2023-11-28 13:03:10.933655
2921  2023-11-28 13:03:10.981530
2922  2023-11-28 13:03:11.013410
2923  2023-11-28 13:03:11.061321
2924  2023-11-28 13:03:11.108198
2925  2023-11-28 13:03:11.138108
2926  2023-11-28 13:03:11.185986
2927  2023-11-28 13:03:11.233852
2928  2023-11-28 13:03:11.265767
2929  2023-11-28 13:03:11.313643
2930  2023-11-28 13:03:11.346520
2931  2023-11-28 13:03:11.394477
2932  2023-11-28 13:03:11.441442
2933  2023-11-28 13:03:11.474341
2934  2023-11-28 13:03:11.522395
2935  2023-11-28 13:03:11.568216
2936  2023-11-28 13:03:11.600209
2937  2023-11-28 13:03:11.646165
2938  2023-11-28 13:03:11.678080
2939  2023-11-28 13:03:11.725991
2940  2023-11-28 13:03:11.773824
2941  2023-11-28 13:03:11.804741
2942  2023-11-28 13:03:11.851661
2943  2023-11-28 13:03:11.897534
2944  2023-11-28 13:03:11.928445
2945  2023-11-28 13:03:11.974822
2946  2023-11-28 13:03:12.022807
2947  2023-11-28 13:03:12.054688
2948  2023-11-28 13:03:12.101601
2949  2023-11-28 13:03:12.149476
2950  2023-11-28 13:03:12.181384
2951  2023-11-28 13:03:12.229276
2952  2023-11-28 13:03:12.261179
2953  2023-11-28 13:03:12.308050
2954  2023-11-28 13:03:12.355927
2955  2023-11-28 13:03:12.401761
2956  2023-11-28 13:03:12.434673
2957  2023-11-28 13:03:12.478555
2958  2023-11-28 13:03:12.526462
2959  2023-11-28 13:03:12.558344
2960  2023-11-28 13:03:12.606214
2961  2023-11-28 13:03:12.638129
2962  2023-11-28 13:03:12.686035
2963  2023-11-28 13:03:12.733873
2964  2023-11-28 13:03:12.764790
2965  2023-11-28 13:03:12.811665
2966  2023-11-28 13:03:12.857542
2967  2023-11-28 13:03:12.889457
2968  2023-11-28 13:03:12.935368
2969  2023-11-28 13:03:12.983118
2970  2023-11-28 13:03:13.015045
2971  2023-11-28 13:03:13.062966
2972  2023-11-28 13:03:13.094873
2973  2023-11-28 13:03:13.140710
2974  2023-11-28 13:03:13.186611
2975  2023-11-28 13:03:13.236500
2976  2023-11-28 13:03:13.268369
2977  2023-11-28 13:03:13.315245
2978  2023-11-28 13:03:13.347191
2979  2023-11-28 13:03:13.394085
2980  2023-11-28 13:03:13.441936
2981  2023-11-28 13:03:13.473819
2982  2023-11-28 13:03:13.521729
2983  2023-11-28 13:03:13.553655
2984  2023-11-28 13:03:13.601643
2985  2023-11-28 13:03:13.650511
2986  2023-11-28 13:03:13.681385
2987  2023-11-28 13:03:13.729289
2988  2023-11-28 13:03:13.761208
2989  2023-11-28 13:03:13.811078
2990  2023-11-28 13:03:13.857034
2991  2023-11-28 13:03:13.888948
2992  2023-11-28 13:03:13.936876
2993  2023-11-28 13:03:13.984780
2994  2023-11-28 13:03:14.014667
2995  2023-11-28 13:03:14.061542
2996  2023-11-28 13:03:14.109539
2997  2023-11-28 13:03:14.141454
2998  2023-11-28 13:03:14.189355
2999  2023-11-28 13:03:14.234373
3000  2023-11-28 13:03:14.265293
3001  2023-11-28 13:03:14.313189
3002  2023-11-28 13:03:14.345144
3003  2023-11-28 13:03:14.392976
3004  2023-11-28 13:03:14.440881
3005  2023-11-28 13:03:14.472798
3006  2023-11-28 13:03:14.520634
3007  2023-11-28 13:03:14.567542
3008  2023-11-28 13:03:14.599428
3009  2023-11-28 13:03:14.647380
3010  2023-11-28 13:03:14.679352
3011  2023-11-28 13:03:14.727222
3012  2023-11-28 13:03:14.775095
3013  2023-11-28 13:03:14.805100
3014  2023-11-28 13:03:14.853065
3015  2023-11-28 13:03:14.900936
3016  2023-11-28 13:03:14.932847
3017  2023-11-28 13:03:14.980724
3018  2023-11-28 13:03:15.012635
3019  2023-11-28 13:03:15.060507
3020  2023-11-28 13:03:15.108303
3021  2023-11-28 13:03:15.139207
3022  2023-11-28 13:03:15.186152
3023  2023-11-28 13:03:15.234010
3024  2023-11-28 13:03:15.265922
3025  2023-11-28 13:03:15.313806
3026  2023-11-28 13:03:15.345710
3027  2023-11-28 13:03:15.393598
3028  2023-11-28 13:03:15.440533
3029  2023-11-28 13:03:15.472445
3030  2023-11-28 13:03:15.520320
3031  2023-11-28 13:03:15.567191
3032  2023-11-28 13:03:15.600110
3033  2023-11-28 13:03:15.646980
3034  2023-11-28 13:03:15.678892
3035  2023-11-28 13:03:15.727929
3036  2023-11-28 13:03:15.774798
3037  2023-11-28 13:03:15.807712
3038  2023-11-28 13:03:15.855592
3039  2023-11-28 13:03:15.888472
3040  2023-11-28 13:03:15.935376
3041  2023-11-28 13:03:15.981215
3042  2023-11-28 13:03:16.013130
3043  2023-11-28 13:03:16.061002
3044  2023-11-28 13:03:16.108874
3045  2023-11-28 13:03:16.140789
3046  2023-11-28 13:03:16.186811
3047  2023-11-28 13:03:16.234719
3048  2023-11-28 13:03:16.266643
3049  2023-11-28 13:03:16.314555
3050  2023-11-28 13:03:16.346469
3051  2023-11-28 13:03:16.394383
3052  2023-11-28 13:03:16.442252
3053  2023-11-28 13:03:16.473208
3054  2023-11-28 13:03:16.520044
3055  2023-11-28 13:03:16.565994
3056  2023-11-28 13:03:16.597977
3057  2023-11-28 13:03:16.645844
3058  2023-11-28 13:03:16.692717
3059  2023-11-28 13:03:16.723701
3060  2023-11-28 13:03:16.771614
3061  2023-11-28 13:03:16.817497
3062  2023-11-28 13:03:16.849406
3063  2023-11-28 13:03:16.899386
3064  2023-11-28 13:03:16.929309
3065  2023-11-28 13:03:16.977291
3066  2023-11-28 13:03:17.023170
3067  2023-11-28 13:03:17.054079
3068  2023-11-28 13:03:17.102922
3069  2023-11-28 13:03:17.147973
3070  2023-11-28 13:03:17.180100
3071  2023-11-28 13:03:17.227971
3072  2023-11-28 13:03:17.274847
3073  2023-11-28 13:03:17.305811
3074  2023-11-28 13:03:17.352638
3075  2023-11-28 13:03:17.399551
3076  2023-11-28 13:03:17.431458
3077  2023-11-28 13:03:17.479424
3078  2023-11-28 13:03:17.511374
3079  2023-11-28 13:03:17.559210
3080  2023-11-28 13:03:17.605128
3081  2023-11-28 13:03:17.637033
3082  2023-11-28 13:03:17.684912
3083  2023-11-28 13:03:17.732785
3084  2023-11-28 13:03:17.764661
3085  2023-11-28 13:03:17.812533
3086  2023-11-28 13:03:17.844501
3087  2023-11-28 13:03:17.891375
3088  2023-11-28 13:03:17.938230
3089  2023-11-28 13:03:17.970146
3090  2023-11-28 13:03:18.016027
3091  2023-11-28 13:03:18.063072
3092  2023-11-28 13:03:18.109983
3093  2023-11-28 13:03:18.139162
3094  2023-11-28 13:03:18.186078
3095  2023-11-28 13:03:18.232073
3096  2023-11-28 13:03:18.263905
3097  2023-11-28 13:03:18.309787
3098  2023-11-28 13:03:18.355867
3099  2023-11-28 13:03:18.387786
3100  2023-11-28 13:03:18.434627
3101  2023-11-28 13:03:18.480625
3102  2023-11-28 13:03:18.512541
3103  2023-11-28 13:03:18.560425
3104  2023-11-28 13:03:18.607291
3105  2023-11-28 13:03:18.639204
3106  2023-11-28 13:03:18.689093
3107  2023-11-28 13:03:18.735958
3108  2023-11-28 13:03:18.767851
3109  2023-11-28 13:03:18.815698
3110  2023-11-28 13:03:18.845619
3111  2023-11-28 13:03:18.894490
3112  2023-11-28 13:03:18.941408
3113  2023-11-28 13:03:18.970327
3114  2023-11-28 13:03:19.018157
3115  2023-11-28 13:03:19.066067
3116  2023-11-28 13:03:19.097944
3117  2023-11-28 13:03:19.145816
3118  2023-11-28 13:03:19.192690
3119  2023-11-28 13:03:19.223608
3120  2023-11-28 13:03:19.271554
3121  2023-11-28 13:03:19.303465
3122  2023-11-28 13:03:19.351307
3123  2023-11-28 13:03:19.398212
3124  2023-11-28 13:03:19.429133
3125  2023-11-28 13:03:19.476012
3126  2023-11-28 13:03:19.522886
3127  2023-11-28 13:03:19.554801
3128  2023-11-28 13:03:19.602838
3129  2023-11-28 13:03:19.650704
3130  2023-11-28 13:03:19.682795
3131  2023-11-28 13:03:19.728465
3132  2023-11-28 13:03:19.774342
3133  2023-11-28 13:03:19.807294
3134  2023-11-28 13:03:19.854161
3135  2023-11-28 13:03:19.901003
3136  2023-11-28 13:03:19.932971
3137  2023-11-28 13:03:19.980793
3138  2023-11-28 13:03:20.012750
3139  2023-11-28 13:03:20.060664
3140  2023-11-28 13:03:20.108631
3141  2023-11-28 13:03:20.138521
3142  2023-11-28 13:03:20.185514
3143  2023-11-28 13:03:20.233387
3144  2023-11-28 13:03:20.265301
3145  2023-11-28 13:03:20.311211
3146  2023-11-28 13:03:20.359189
3147  2023-11-28 13:03:20.391104
3148  2023-11-28 13:03:20.439017
3149  2023-11-28 13:03:20.470933
3150  2023-11-28 13:03:20.518764
3151  2023-11-28 13:03:20.566681
3152  2023-11-28 13:03:20.598582
3153  2023-11-28 13:03:20.646514
3154  2023-11-28 13:03:20.678463
3155  2023-11-28 13:03:20.726339
3156  2023-11-28 13:03:20.774209
3157  2023-11-28 13:03:20.806119
3158  2023-11-28 13:03:20.852002
3159  2023-11-28 13:03:20.898895
3160  2023-11-28 13:03:20.930793
3161  2023-11-28 13:03:20.978626
3162  2023-11-28 13:03:21.026530
3163  2023-11-28 13:03:21.058446
3164  2023-11-28 13:03:21.105320
3165  2023-11-28 13:03:21.136238
3166  2023-11-28 13:03:21.184110
3167  2023-11-28 13:03:21.230997
3168  2023-11-28 13:03:21.261903
3169  2023-11-28 13:03:21.307776
3170  2023-11-28 13:03:21.355663
3171  2023-11-28 13:03:21.387579
3172  2023-11-28 13:03:21.433410
3173  2023-11-28 13:03:21.481282
3174  2023-11-28 13:03:21.515227
3175  2023-11-28 13:03:21.561069
3176  2023-11-28 13:03:21.608978
3177  2023-11-28 13:03:21.638896
3178  2023-11-28 13:03:21.686880
3179  2023-11-28 13:03:21.734636
3180  2023-11-28 13:03:21.765559
3181  2023-11-28 13:03:21.813394
3182  2023-11-28 13:03:21.845309
3183  2023-11-28 13:03:21.891218
3184  2023-11-28 13:03:21.938098
3185  2023-11-28 13:03:21.984972
3186  2023-11-28 13:03:22.016882
3187  2023-11-28 13:03:22.064895
3188  2023-11-28 13:03:22.096669
3189  2023-11-28 13:03:22.144541
3190  2023-11-28 13:03:22.191417
3191  2023-11-28 13:03:22.222302
3192  2023-11-28 13:03:22.270204
3193  2023-11-28 13:03:22.318047
3194  2023-11-28 13:03:22.349997
3195  2023-11-28 13:03:22.397878
3196  2023-11-28 13:03:22.429776
3197  2023-11-28 13:03:22.477670
3198  2023-11-28 13:03:22.525527
3199  2023-11-28 13:03:22.558419
3200  2023-11-28 13:03:22.605310
3201  2023-11-28 13:03:22.650192
3202  2023-11-28 13:03:22.682105
3203  2023-11-28 13:03:22.730974
3204  2023-11-28 13:03:22.762890
3205  2023-11-28 13:03:22.807768
3206  2023-11-28 13:03:22.855608
3207  2023-11-28 13:03:22.886525
3208  2023-11-28 13:03:22.933433
3209  2023-11-28 13:03:22.981272
3210  2023-11-28 13:03:23.013187
3211  2023-11-28 13:03:23.061059
3212  2023-11-28 13:03:23.106966
3213  2023-11-28 13:03:23.138885
3214  2023-11-28 13:03:23.186756
3215  2023-11-28 13:03:23.234631
3216  2023-11-28 13:03:23.266546
3217  2023-11-28 13:03:23.314386
3218  2023-11-28 13:03:23.346332
3219  2023-11-28 13:03:23.394213
3220  2023-11-28 13:03:23.442185
3221  2023-11-28 13:03:23.474069
3222  2023-11-28 13:03:23.521971
3223  2023-11-28 13:03:23.553886
3224  2023-11-28 13:03:23.601762
3225  2023-11-28 13:03:23.649599
3226  2023-11-28 13:03:23.681544
3227  2023-11-28 13:03:23.727420
3228  2023-11-28 13:03:23.774299
3229  2023-11-28 13:03:23.805212
3230  2023-11-28 13:03:23.851090
3231  2023-11-28 13:03:23.898048
3232  2023-11-28 13:03:23.927920
3233  2023-11-28 13:03:23.973829
3234  2023-11-28 13:03:24.021668
3235  2023-11-28 13:03:24.053583
3236  2023-11-28 13:03:24.099494
3237  2023-11-28 13:03:24.147332
3238  2023-11-28 13:03:24.179247
3239  2023-11-28 13:03:24.227151
3240  2023-11-28 13:03:24.275028
3241  2023-11-28 13:03:24.304941
3242  2023-11-28 13:03:24.352825
3243  2023-11-28 13:03:24.400687
3244  2023-11-28 13:03:24.432571
3245  2023-11-28 13:03:24.480475
3246  2023-11-28 13:03:24.512386
3247  2023-11-28 13:03:24.560261
3248  2023-11-28 13:03:24.606138
3249  2023-11-28 13:03:24.638053
3250  2023-11-28 13:03:24.685894
3251  2023-11-28 13:03:24.733808
3252  2023-11-28 13:03:24.765712
3253  2023-11-28 13:03:24.813582
3254  2023-11-28 13:03:24.845496
3255  2023-11-28 13:03:24.890392
3256  2023-11-28 13:03:24.937252
3257  2023-11-28 13:03:24.985123
3258  2023-11-28 13:03:25.017040
3259  2023-11-28 13:03:25.063002
3260  2023-11-28 13:03:25.094799
3261  2023-11-28 13:03:25.141700
3262  2023-11-28 13:03:25.188548
3263  2023-11-28 13:03:25.234438
3264  2023-11-28 13:03:25.265376
3265  2023-11-28 13:03:25.313336
3266  2023-11-28 13:03:25.359213
3267  2023-11-28 13:03:25.390246
3268  2023-11-28 13:03:25.437006
3269  2023-11-28 13:03:25.485876
3270  2023-11-28 13:03:25.516796
3271  2023-11-28 13:03:25.564665
3272  2023-11-28 13:03:25.596582
3273  2023-11-28 13:03:25.644449
3274  2023-11-28 13:03:25.692337
3275  2023-11-28 13:03:25.724238
3276  2023-11-28 13:03:25.772117
3277  2023-11-28 13:03:25.804158
3278  2023-11-28 13:03:25.851897
3279  2023-11-28 13:03:25.899766
3280  2023-11-28 13:03:25.931683
3281  2023-11-28 13:03:25.979555
3282  2023-11-28 13:03:26.011469
3283  2023-11-28 13:03:26.060346
3284  2023-11-28 13:03:26.107214
3285  2023-11-28 13:03:26.139131
3286  2023-11-28 13:03:26.186002
3287  2023-11-28 13:03:26.233007
3288  2023-11-28 13:03:26.267034
3289  2023-11-28 13:03:26.313010
3290  2023-11-28 13:03:26.359885
3291  2023-11-28 13:03:26.389772
3292  2023-11-28 13:03:26.435682
3293  2023-11-28 13:03:26.483522
3294  2023-11-28 13:03:26.515437
3295  2023-11-28 13:03:26.563352
3296  2023-11-28 13:03:26.595256
3297  2023-11-28 13:03:26.643127
3298  2023-11-28 13:03:26.690999
3299  2023-11-28 13:03:26.722921
3300  2023-11-28 13:03:26.769757
3301  2023-11-28 13:03:26.816668
3302  2023-11-28 13:03:26.848546
3303  2023-11-28 13:03:26.895454
3304  2023-11-28 13:03:26.942329
3305  2023-11-28 13:03:26.974244
3306  2023-11-28 13:03:27.022092
3307  2023-11-28 13:03:27.054007
3308  2023-11-28 13:03:27.101877
3309  2023-11-28 13:03:27.149785
3310  2023-11-28 13:03:27.180737
3311  2023-11-28 13:03:27.228604
3312  2023-11-28 13:03:27.276476
3313  2023-11-28 13:03:27.308397
3314  2023-11-28 13:03:27.355234
3315  2023-11-28 13:03:27.387201
3316  2023-11-28 13:03:27.435021
3317  2023-11-28 13:03:27.482916
3318  2023-11-28 13:03:27.515847
3319  2023-11-28 13:03:27.562714
3320  2023-11-28 13:03:27.594594
3321  2023-11-28 13:03:27.642501
3322  2023-11-28 13:03:27.690371
3323  2023-11-28 13:03:27.722253
3324  2023-11-28 13:03:27.769169
3325  2023-11-28 13:03:27.817031
3326  2023-11-28 13:03:27.848947
3327  2023-11-28 13:03:27.894829
3328  2023-11-28 13:03:27.942700
3329  2023-11-28 13:03:27.974610
3330  2023-11-28 13:03:28.020581
3331  2023-11-28 13:03:28.068329
3332  2023-11-28 13:03:28.100276
3333  2023-11-28 13:03:28.148115
3334  2023-11-28 13:03:28.179032
3335  2023-11-28 13:03:28.225938
3336  2023-11-28 13:03:28.273780
3337  2023-11-28 13:03:28.305724
3338  2023-11-28 13:03:28.353604
3339  2023-11-28 13:03:28.401597
3340  2023-11-28 13:03:28.433504
3341  2023-11-28 13:03:28.481348
3342  2023-11-28 13:03:28.513263
3343  2023-11-28 13:03:28.561166
3344  2023-11-28 13:03:28.609048
3345  2023-11-28 13:03:28.640922
3346  2023-11-28 13:03:28.688941
3347  2023-11-28 13:03:28.720858
3348  2023-11-28 13:03:28.767730
3349  2023-11-28 13:03:28.814611
3350  2023-11-28 13:03:28.846520
3351  2023-11-28 13:03:28.894361
3352  2023-11-28 13:03:28.942338
3353  2023-11-28 13:03:28.974287
3354  2023-11-28 13:03:29.022127
3355  2023-11-28 13:03:29.054224
3356  2023-11-28 13:03:29.102086
3357  2023-11-28 13:03:29.149960
3358  2023-11-28 13:03:29.181873
3359  2023-11-28 13:03:29.229714
3360  2023-11-28 13:03:29.261681
3361  2023-11-28 13:03:29.309501
3362  2023-11-28 13:03:29.357420
3363  2023-11-28 13:03:29.389380
3364  2023-11-28 13:03:29.437250
3365  2023-11-28 13:03:29.484260
3366  2023-11-28 13:03:29.515182
3367  2023-11-28 13:03:29.563046
3368  2023-11-28 13:03:29.608924
3369  2023-11-28 13:03:29.639845
3370  2023-11-28 13:03:29.687714
3371  2023-11-28 13:03:29.735557
3372  2023-11-28 13:03:29.767504
3373  2023-11-28 13:03:29.816381
3374  2023-11-28 13:03:29.848287
3375  2023-11-28 13:03:29.896252
3376  2023-11-28 13:03:29.941132
3377  2023-11-28 13:03:29.974044
3378  2023-11-28 13:03:30.017894
3379  2023-11-28 13:03:30.065818
3380  2023-11-28 13:03:30.097716
3381  2023-11-28 13:03:30.145657
3382  2023-11-28 13:03:30.192563
3383  2023-11-28 13:03:30.223483
3384  2023-11-28 13:03:30.271322
3385  2023-11-28 13:03:30.303280
3386  2023-11-28 13:03:30.351108
3387  2023-11-28 13:03:30.396025
3388  2023-11-28 13:03:30.441905
3389  2023-11-28 13:03:30.472822
3390  2023-11-28 13:03:30.520694
3391  2023-11-28 13:03:30.567564
3392  2023-11-28 13:03:30.600449
3393  2023-11-28 13:03:30.647454
3394  2023-11-28 13:03:30.693477
3395  2023-11-28 13:03:30.725432
3396  2023-11-28 13:03:30.773401
3397  2023-11-28 13:03:30.805294
3398  2023-11-28 13:03:30.850140
3399  2023-11-28 13:03:30.898015
3400  2023-11-28 13:03:30.929930
3401  2023-11-28 13:03:30.975804
3402  2023-11-28 13:03:31.021719
3403  2023-11-28 13:03:31.053636
3404  2023-11-28 13:03:31.101540
3405  2023-11-28 13:03:31.149414
3406  2023-11-28 13:03:31.180329
3407  2023-11-28 13:03:31.227204
3408  2023-11-28 13:03:31.275112
3409  2023-11-28 13:03:31.307020
3410  2023-11-28 13:03:31.355888
3411  2023-11-28 13:03:31.400770
3412  2023-11-28 13:03:31.432686
3413  2023-11-28 13:03:31.480657
3414  2023-11-28 13:03:31.511577
3415  2023-11-28 13:03:31.558583
3416  2023-11-28 13:03:31.607323
3417  2023-11-28 13:03:31.638239
3418  2023-11-28 13:03:31.686109
3419  2023-11-28 13:03:31.733994
3420  2023-11-28 13:03:31.766910
3421  2023-11-28 13:03:31.813769
3422  2023-11-28 13:03:31.846683
3423  2023-11-28 13:03:31.892526
3424  2023-11-28 13:03:31.936416
3425  2023-11-28 13:03:31.983283
3426  2023-11-28 13:03:32.015198
3427  2023-11-28 13:03:32.064116
3428  2023-11-28 13:03:32.096020
3429  2023-11-28 13:03:32.141859
3430  2023-11-28 13:03:32.188765
3431  2023-11-28 13:03:32.220683
3432  2023-11-28 13:03:32.268615
3433  2023-11-28 13:03:32.316077
3434  2023-11-28 13:03:32.347998
3435  2023-11-28 13:03:32.395947
3436  2023-11-28 13:03:32.427904
3437  2023-11-28 13:03:32.475734
3438  2023-11-28 13:03:32.523672
3439  2023-11-28 13:03:32.555582
3440  2023-11-28 13:03:32.603508
3441  2023-11-28 13:03:32.652345
3442  2023-11-28 13:03:32.682299
3443  2023-11-28 13:03:32.729171
3444  2023-11-28 13:03:32.776043
3445  2023-11-28 13:03:32.806931
3446  2023-11-28 13:03:32.853805
3447  2023-11-28 13:03:32.899683
3448  2023-11-28 13:03:32.931598
3449  2023-11-28 13:03:32.979499
3450  2023-11-28 13:03:33.027343
3451  2023-11-28 13:03:33.059287
3452  2023-11-28 13:03:33.107175
3453  2023-11-28 13:03:33.137081
3454  2023-11-28 13:03:33.183923
3455  2023-11-28 13:03:33.231841
3456  2023-11-28 13:03:33.263756
3457  2023-11-28 13:03:33.311581
3458  2023-11-28 13:03:33.357461
3459  2023-11-28 13:03:33.389556
3460  2023-11-28 13:03:33.437382
3461  2023-11-28 13:03:33.484289
3462  2023-11-28 13:03:33.516173
3463  2023-11-28 13:03:33.564043
3464  2023-11-28 13:03:33.595959
3465  2023-11-28 13:03:33.643884
3466  2023-11-28 13:03:33.690743
3467  2023-11-28 13:03:33.720661
3468  2023-11-28 13:03:33.767536
3469  2023-11-28 13:03:33.814456
3470  2023-11-28 13:03:33.846370
3471  2023-11-28 13:03:33.894283
3472  2023-11-28 13:03:33.942145
3473  2023-11-28 13:03:33.973133
3474  2023-11-28 13:03:34.021000
3475  2023-11-28 13:03:34.052877
3476  2023-11-28 13:03:34.098950
3477  2023-11-28 13:03:34.146648
3478  2023-11-28 13:03:34.178577
3479  2023-11-28 13:03:34.224600
3480  2023-11-28 13:03:34.270612
3481  2023-11-28 13:03:34.317517
3482  2023-11-28 13:03:34.348439
3483  2023-11-28 13:03:34.396310
3484  2023-11-28 13:03:34.428223
3485  2023-11-28 13:03:34.476065
3486  2023-11-28 13:03:34.522113
3487  2023-11-28 13:03:34.554031
3488  2023-11-28 13:03:34.601958
3489  2023-11-28 13:03:34.649772
3490  2023-11-28 13:03:34.681694
3491  2023-11-28 13:03:34.729527
3492  2023-11-28 13:03:34.776440
3493  2023-11-28 13:03:34.807353
3494  2023-11-28 13:03:34.855192
3495  2023-11-28 13:03:34.887145
3496  2023-11-28 13:03:34.934036
3497  2023-11-28 13:03:34.981891
3498  2023-11-28 13:03:35.013821
3499  2023-11-28 13:03:35.061673
3500  2023-11-28 13:03:35.109518
3501  2023-11-28 13:03:35.140430
3502  2023-11-28 13:03:35.188354
3503  2023-11-28 13:03:35.220256
3504  2023-11-28 13:03:35.269134
3505  2023-11-28 13:03:35.316098
3506  2023-11-28 13:03:35.348917
3507  2023-11-28 13:03:35.395782
3508  2023-11-28 13:03:35.442623
3509  2023-11-28 13:03:35.473577
3510  2023-11-28 13:03:35.521451
3511  2023-11-28 13:03:35.568286
3512  2023-11-28 13:03:35.600240
3513  2023-11-28 13:03:35.647074
3514  2023-11-28 13:03:35.677994
3515  2023-11-28 13:03:35.725898
3516  2023-11-28 13:03:35.771741
3517  2023-11-28 13:03:35.803656
3518  2023-11-28 13:03:35.850532
3519  2023-11-28 13:03:35.897405
3520  2023-11-28 13:03:35.929320
3521  2023-11-28 13:03:35.977225
3522  2023-11-28 13:03:36.025098
3523  2023-11-28 13:03:36.056979
3524  2023-11-28 13:03:36.104892
3525  2023-11-28 13:03:36.136903
3526  2023-11-28 13:03:36.184688
3527  2023-11-28 13:03:36.232511
3528  2023-11-28 13:03:36.264455
3529  2023-11-28 13:03:36.312344
3530  2023-11-28 13:03:36.359207
3531  2023-11-28 13:03:36.390293
3532  2023-11-28 13:03:36.438171
3533  2023-11-28 13:03:36.470078
3534  2023-11-28 13:03:36.517947
3535  2023-11-28 13:03:36.565821
3536  2023-11-28 13:03:36.597736
3537  2023-11-28 13:03:36.645604
3538  2023-11-28 13:03:36.692478
3539  2023-11-28 13:03:36.723403
3540  2023-11-28 13:03:36.772269
3541  2023-11-28 13:03:36.803154
3542  2023-11-28 13:03:36.849030
3543  2023-11-28 13:03:36.894914
3544  2023-11-28 13:03:36.944805
3545  2023-11-28 13:03:36.973696
3546  2023-11-28 13:03:37.020605
3547  2023-11-28 13:03:37.067446
3548  2023-11-28 13:03:37.099360
3549  2023-11-28 13:03:37.147233
3550  2023-11-28 13:03:37.179147
3551  2023-11-28 13:03:37.228051
3552  2023-11-28 13:03:37.273930
3553  2023-11-28 13:03:37.305851
3554  2023-11-28 13:03:37.353682
3555  2023-11-28 13:03:37.401552
3556  2023-11-28 13:03:37.433467
3557  2023-11-28 13:03:37.481463
3558  2023-11-28 13:03:37.513431
3559  2023-11-28 13:03:37.560380
3560  2023-11-28 13:03:37.608286
3561  2023-11-28 13:03:37.640283
