
1  2023-10-31 14:09:28.936113
2  2023-10-31 14:09:28.968026
3  2023-10-31 14:09:28.999940
4  2023-10-31 14:09:29.047814
5  2023-10-31 14:09:29.079728
6  2023-10-31 14:09:29.111643
7  2023-10-31 14:09:29.143558
8  2023-10-31 14:09:29.175479
9  2023-10-31 14:09:29.208384
10  2023-10-31 14:09:29.240298
11  2023-10-31 14:09:29.272213
12  2023-10-31 14:09:29.304128
13  2023-10-31 14:09:29.336042
14  2023-10-31 14:09:29.367958
15  2023-10-31 14:09:29.399872
16  2023-10-31 14:09:29.447744
17  2023-10-31 14:09:29.479658
18  2023-10-31 14:09:29.511573
19  2023-10-31 14:09:29.543489
20  2023-10-31 14:09:29.575409
21  2023-10-31 14:09:29.608315
22  2023-10-31 14:09:29.640293
23  2023-10-31 14:09:29.672190
24  2023-10-31 14:09:29.704104
25  2023-10-31 14:09:29.736021
26  2023-10-31 14:09:29.767971
27  2023-10-31 14:09:29.799882
28  2023-10-31 14:09:29.847753
29  2023-10-31 14:09:29.879680
30  2023-10-31 14:09:29.911582
31  2023-10-31 14:09:29.944463
32  2023-10-31 14:09:29.976379
33  2023-10-31 14:09:30.008293
34  2023-10-31 14:09:30.040207
35  2023-10-31 14:09:30.072150
36  2023-10-31 14:09:30.104035
37  2023-10-31 14:09:30.135978
38  2023-10-31 14:09:30.167865
39  2023-10-31 14:09:30.199829
40  2023-10-31 14:09:30.247687
41  2023-10-31 14:09:30.279603
42  2023-10-31 14:09:30.311510
43  2023-10-31 14:09:30.343425
44  2023-10-31 14:09:30.376352
45  2023-10-31 14:09:30.408224
46  2023-10-31 14:09:30.440173
47  2023-10-31 14:09:30.472078
48  2023-10-31 14:09:30.503994
49  2023-10-31 14:09:30.535882
50  2023-10-31 14:09:30.567834
51  2023-10-31 14:09:30.599764
52  2023-10-31 14:09:30.647583
53  2023-10-31 14:09:30.679549
54  2023-10-31 14:09:30.711449
55  2023-10-31 14:09:30.744352
56  2023-10-31 14:09:30.776241
57  2023-10-31 14:09:30.808154
58  2023-10-31 14:09:30.840068
59  2023-10-31 14:09:30.871983
60  2023-10-31 14:09:30.903898
61  2023-10-31 14:09:30.935815
62  2023-10-31 14:09:30.967727
63  2023-10-31 14:09:30.999679
64  2023-10-31 14:09:31.047513
65  2023-10-31 14:09:31.079428
66  2023-10-31 14:09:31.112340
67  2023-10-31 14:09:31.144254
68  2023-10-31 14:09:31.176208
69  2023-10-31 14:09:31.208084
70  2023-10-31 14:09:31.240037
71  2023-10-31 14:09:31.271950
72  2023-10-31 14:09:31.303865
73  2023-10-31 14:09:31.335779
74  2023-10-31 14:09:31.367709
75  2023-10-31 14:09:31.399575
76  2023-10-31 14:09:31.447448
77  2023-10-31 14:09:31.479397
78  2023-10-31 14:09:31.512301
79  2023-10-31 14:09:31.544186
80  2023-10-31 14:09:31.576101
81  2023-10-31 14:09:31.608014
82  2023-10-31 14:09:31.639931
83  2023-10-31 14:09:31.671846
84  2023-10-31 14:09:31.703758
85  2023-10-31 14:09:31.735717
86  2023-10-31 14:09:31.767621
87  2023-10-31 14:09:31.799531
88  2023-10-31 14:09:31.848404
89  2023-10-31 14:09:31.880325
90  2023-10-31 14:09:31.912237
91  2023-10-31 14:09:31.944154
92  2023-10-31 14:09:31.976067
93  2023-10-31 14:09:32.007973
94  2023-10-31 14:09:32.039897
95  2023-10-31 14:09:32.071774
96  2023-10-31 14:09:32.103690
97  2023-10-31 14:09:32.135640
98  2023-10-31 14:09:32.167570
99  2023-10-31 14:09:32.199437
100  2023-10-31 14:09:32.248303
101  2023-10-31 14:09:32.280246
102  2023-10-31 14:09:32.312161
103  2023-10-31 14:09:32.344077
104  2023-10-31 14:09:32.375962
105  2023-10-31 14:09:32.407876
106  2023-10-31 14:09:32.439840
107  2023-10-31 14:09:32.471707
108  2023-10-31 14:09:32.503622
109  2023-10-31 14:09:32.535573
110  2023-10-31 14:09:32.568490
111  2023-10-31 14:09:32.600365
112  2023-10-31 14:09:32.648235
113  2023-10-31 14:09:32.680190
114  2023-10-31 14:09:32.712064
115  2023-10-31 14:09:32.744015
116  2023-10-31 14:09:32.775932
117  2023-10-31 14:09:32.807837
118  2023-10-31 14:09:32.839776
119  2023-10-31 14:09:32.871638
120  2023-10-31 14:09:32.903586
121  2023-10-31 14:09:32.935478
122  2023-10-31 14:09:32.968378
123  2023-10-31 14:09:33.000293
124  2023-10-31 14:09:33.048165
125  2023-10-31 14:09:33.080090
126  2023-10-31 14:09:33.111994
127  2023-10-31 14:09:33.143912
128  2023-10-31 14:09:33.175824
129  2023-10-31 14:09:33.207738
130  2023-10-31 14:09:33.239653
131  2023-10-31 14:09:33.271611
132  2023-10-31 14:09:33.303523
133  2023-10-31 14:09:33.335426
134  2023-10-31 14:09:33.368310
135  2023-10-31 14:09:33.400224
136  2023-10-31 14:09:33.448127
137  2023-10-31 14:09:33.480038
138  2023-10-31 14:09:33.511962
139  2023-10-31 14:09:33.543893
140  2023-10-31 14:09:33.575783
141  2023-10-31 14:09:33.607715
142  2023-10-31 14:09:33.640581
143  2023-10-31 14:09:33.672496
144  2023-10-31 14:09:33.703413
145  2023-10-31 14:09:33.736324
146  2023-10-31 14:09:33.768288
147  2023-10-31 14:09:33.800214
148  2023-10-31 14:09:33.848069
149  2023-10-31 14:09:33.879968
150  2023-10-31 14:09:33.911906
151  2023-10-31 14:09:33.943808
152  2023-10-31 14:09:33.975715
153  2023-10-31 14:09:34.007633
154  2023-10-31 14:09:34.039551
155  2023-10-31 14:09:34.072427
156  2023-10-31 14:09:34.104344
157  2023-10-31 14:09:34.136256
158  2023-10-31 14:09:34.168207
159  2023-10-31 14:09:34.200121
160  2023-10-31 14:09:34.247957
161  2023-10-31 14:09:34.279872
162  2023-10-31 14:09:34.311814
163  2023-10-31 14:09:34.343743
164  2023-10-31 14:09:34.375645
165  2023-10-31 14:09:34.407593
166  2023-10-31 14:09:34.439506
167  2023-10-31 14:09:34.472375
168  2023-10-31 14:09:34.504309
169  2023-10-31 14:09:34.536241
170  2023-10-31 14:09:34.568124
171  2023-10-31 14:09:34.600052
172  2023-10-31 14:09:34.647937
173  2023-10-31 14:09:34.679842
174  2023-10-31 14:09:34.711718
175  2023-10-31 14:09:34.782529
176  2023-10-31 14:09:34.808458
177  2023-10-31 14:09:34.840416
178  2023-10-31 14:09:34.872315
179  2023-10-31 14:09:34.904236
180  2023-10-31 14:09:34.936151
181  2023-10-31 14:09:34.968032
182  2023-10-31 14:09:34.999975
183  2023-10-31 14:09:35.047845
184  2023-10-31 14:09:35.079802
185  2023-10-31 14:09:35.111684
186  2023-10-31 14:09:35.143590
187  2023-10-31 14:09:35.175514
188  2023-10-31 14:09:35.208389
189  2023-10-31 14:09:35.240333
190  2023-10-31 14:09:35.272219
191  2023-10-31 14:09:35.304134
192  2023-10-31 14:09:35.336052
193  2023-10-31 14:09:35.367994
194  2023-10-31 14:09:35.399903
195  2023-10-31 14:09:35.447778
196  2023-10-31 14:09:35.479697
197  2023-10-31 14:09:35.511628
198  2023-10-31 14:09:35.543524
199  2023-10-31 14:09:35.575450
200  2023-10-31 14:09:35.607370
201  2023-10-31 14:09:35.640276
202  2023-10-31 14:09:35.672151
203  2023-10-31 14:09:35.704093
204  2023-10-31 14:09:35.736009
205  2023-10-31 14:09:35.767931
206  2023-10-31 14:09:35.799845
207  2023-10-31 14:09:35.847706
208  2023-10-31 14:09:35.879598
209  2023-10-31 14:09:35.911536
210  2023-10-31 14:09:35.943454
211  2023-10-31 14:09:35.976384
212  2023-10-31 14:09:36.008277
213  2023-10-31 14:09:36.040169
214  2023-10-31 14:09:36.072128
215  2023-10-31 14:09:36.104025
216  2023-10-31 14:09:36.135951
217  2023-10-31 14:09:36.167860
218  2023-10-31 14:09:36.199783
219  2023-10-31 14:09:36.247643
220  2023-10-31 14:09:36.279552
221  2023-10-31 14:09:36.311484
222  2023-10-31 14:09:36.344391
223  2023-10-31 14:09:36.376267
224  2023-10-31 14:09:36.408217
225  2023-10-31 14:09:36.440100
226  2023-10-31 14:09:36.472039
227  2023-10-31 14:09:36.503958
228  2023-10-31 14:09:36.535877
229  2023-10-31 14:09:36.567786
230  2023-10-31 14:09:36.599716
231  2023-10-31 14:09:36.647591
232  2023-10-31 14:09:36.679500
233  2023-10-31 14:09:36.711396
234  2023-10-31 14:09:36.744320
235  2023-10-31 14:09:36.776234
236  2023-10-31 14:09:36.808146
237  2023-10-31 14:09:36.840028
238  2023-10-31 14:09:36.871980
239  2023-10-31 14:09:36.903856
240  2023-10-31 14:09:36.935797
241  2023-10-31 14:09:36.967721
242  2023-10-31 14:09:36.999642
243  2023-10-31 14:09:37.047509
244  2023-10-31 14:09:37.079429
245  2023-10-31 14:09:37.112333
246  2023-10-31 14:09:37.144251
247  2023-10-31 14:09:37.176163
248  2023-10-31 14:09:37.208082
249  2023-10-31 14:09:37.239987
250  2023-10-31 14:09:37.271872
251  2023-10-31 14:09:37.303817
252  2023-10-31 14:09:37.335741
253  2023-10-31 14:09:37.367666
254  2023-10-31 14:09:37.399561
255  2023-10-31 14:09:37.447403
256  2023-10-31 14:09:37.480316
257  2023-10-31 14:09:37.512277
258  2023-10-31 14:09:37.544171
259  2023-10-31 14:09:37.576086
260  2023-10-31 14:09:37.607975
261  2023-10-31 14:09:37.639890
262  2023-10-31 14:09:37.671839
263  2023-10-31 14:09:37.703759
264  2023-10-31 14:09:37.735658
265  2023-10-31 14:09:37.767595
266  2023-10-31 14:09:37.799507
267  2023-10-31 14:09:37.848369
268  2023-10-31 14:09:37.880293
269  2023-10-31 14:09:37.912198
270  2023-10-31 14:09:37.944080
271  2023-10-31 14:09:37.976039
272  2023-10-31 14:09:38.007910
273  2023-10-31 14:09:38.039820
274  2023-10-31 14:09:38.071764
275  2023-10-31 14:09:38.103675
276  2023-10-31 14:09:38.135600
277  2023-10-31 14:09:38.168504
278  2023-10-31 14:09:38.200432
279  2023-10-31 14:09:38.248324
280  2023-10-31 14:09:38.280180
281  2023-10-31 14:09:38.312136
282  2023-10-31 14:09:38.344013
283  2023-10-31 14:09:38.375925
284  2023-10-31 14:09:38.407882
285  2023-10-31 14:09:38.439750
286  2023-10-31 14:09:38.471664
287  2023-10-31 14:09:38.503618
288  2023-10-31 14:09:38.535533
289  2023-10-31 14:09:38.568408
290  2023-10-31 14:09:38.600361
291  2023-10-31 14:09:38.648194
292  2023-10-31 14:09:38.680151
293  2023-10-31 14:09:38.712048
294  2023-10-31 14:09:38.743967
295  2023-10-31 14:09:38.775878
296  2023-10-31 14:09:38.807797
297  2023-10-31 14:09:38.839710
298  2023-10-31 14:09:38.871632
299  2023-10-31 14:09:38.903510
300  2023-10-31 14:09:38.935463
301  2023-10-31 14:09:38.968396
302  2023-10-31 14:09:39.000292
303  2023-10-31 14:09:39.048168
304  2023-10-31 14:09:39.080078
305  2023-10-31 14:09:39.111979
306  2023-10-31 14:09:39.143878
307  2023-10-31 14:09:39.175817
308  2023-10-31 14:09:39.207699
309  2023-10-31 14:09:39.239615
310  2023-10-31 14:09:39.271555
311  2023-10-31 14:09:39.304438
312  2023-10-31 14:09:39.335397
313  2023-10-31 14:09:39.368309
314  2023-10-31 14:09:39.400182
315  2023-10-31 14:09:39.448093
316  2023-10-31 14:09:39.479969
317  2023-10-31 14:09:39.511918
318  2023-10-31 14:09:39.543801
319  2023-10-31 14:09:39.575739
320  2023-10-31 14:09:39.607631
321  2023-10-31 14:09:39.639577
322  2023-10-31 14:09:39.671462
323  2023-10-31 14:09:39.704368
324  2023-10-31 14:09:39.736287
325  2023-10-31 14:09:39.768234
326  2023-10-31 14:09:39.800112
327  2023-10-31 14:09:39.959690
328  2023-10-31 14:09:39.975647
329  2023-10-31 14:09:40.007596
330  2023-10-31 14:09:40.039504
331  2023-10-31 14:09:40.072389
332  2023-10-31 14:09:40.104340
333  2023-10-31 14:09:40.136252
334  2023-10-31 14:09:40.168180
335  2023-10-31 14:09:40.200088
336  2023-10-31 14:09:40.247934
337  2023-10-31 14:09:40.279866
338  2023-10-31 14:09:40.311784
339  2023-10-31 14:09:40.343660
340  2023-10-31 14:09:40.375605
341  2023-10-31 14:09:40.407548
342  2023-10-31 14:09:40.440402
343  2023-10-31 14:09:40.471347
344  2023-10-31 14:09:40.504271
345  2023-10-31 14:09:40.536183
346  2023-10-31 14:09:40.568061
347  2023-10-31 14:09:40.600024
348  2023-10-31 14:09:40.647874
349  2023-10-31 14:09:40.679826
350  2023-10-31 14:09:40.711679
351  2023-10-31 14:09:40.743595
352  2023-10-31 14:09:40.775509
353  2023-10-31 14:09:40.808418
354  2023-10-31 14:09:40.840373
355  2023-10-31 14:09:40.872293
356  2023-10-31 14:09:40.904191
357  2023-10-31 14:09:40.936137
358  2023-10-31 14:09:40.968043
359  2023-10-31 14:09:40.999939
360  2023-10-31 14:09:41.047795
361  2023-10-31 14:09:41.079722
362  2023-10-31 14:09:41.111665
363  2023-10-31 14:09:41.143558
364  2023-10-31 14:09:41.175465
365  2023-10-31 14:09:41.208385
366  2023-10-31 14:09:41.240264
367  2023-10-31 14:09:41.272178
368  2023-10-31 14:09:41.304120
369  2023-10-31 14:09:41.336046
370  2023-10-31 14:09:41.367958
371  2023-10-31 14:09:41.399836
372  2023-10-31 14:09:41.447709
373  2023-10-31 14:09:41.479657
374  2023-10-31 14:09:41.511597
375  2023-10-31 14:09:41.543502
376  2023-10-31 14:09:41.575394
377  2023-10-31 14:09:41.608280
378  2023-10-31 14:09:41.640194
379  2023-10-31 14:09:41.672139
380  2023-10-31 14:09:41.704024
381  2023-10-31 14:09:41.735976
382  2023-10-31 14:09:41.767852
383  2023-10-31 14:09:41.799802
384  2023-10-31 14:09:41.847666
385  2023-10-31 14:09:41.879589
386  2023-10-31 14:09:41.911495
387  2023-10-31 14:09:41.943387
388  2023-10-31 14:09:41.976330
389  2023-10-31 14:09:42.008254
390  2023-10-31 14:09:42.040168
391  2023-10-31 14:09:42.072054
392  2023-10-31 14:09:42.103955
393  2023-10-31 14:09:42.135927
394  2023-10-31 14:09:42.167826
395  2023-10-31 14:09:42.199749
396  2023-10-31 14:09:42.247596
397  2023-10-31 14:09:42.279521
398  2023-10-31 14:09:42.311430
399  2023-10-31 14:09:42.344312
400  2023-10-31 14:09:42.376261
401  2023-10-31 14:09:42.408142
402  2023-10-31 14:09:42.440088
403  2023-10-31 14:09:42.472031
404  2023-10-31 14:09:42.503925
405  2023-10-31 14:09:42.535840
406  2023-10-31 14:09:42.567749
407  2023-10-31 14:09:42.599680
408  2023-10-31 14:09:42.647534
409  2023-10-31 14:09:42.679436
410  2023-10-31 14:09:42.712366
411  2023-10-31 14:09:42.744287
412  2023-10-31 14:09:42.776194
413  2023-10-31 14:09:42.808109
414  2023-10-31 14:09:42.839986
415  2023-10-31 14:09:42.871938
416  2023-10-31 14:09:42.903875
417  2023-10-31 14:09:42.935780
418  2023-10-31 14:09:42.967705
419  2023-10-31 14:09:42.999595
420  2023-10-31 14:09:43.047469
421  2023-10-31 14:09:43.079346
422  2023-10-31 14:09:43.112294
423  2023-10-31 14:09:43.144219
424  2023-10-31 14:09:43.176126
425  2023-10-31 14:09:43.208002
426  2023-10-31 14:09:43.239949
427  2023-10-31 14:09:43.271832
428  2023-10-31 14:09:43.303780
429  2023-10-31 14:09:43.335660
430  2023-10-31 14:09:43.367576
431  2023-10-31 14:09:43.399491
432  2023-10-31 14:09:43.448360
433  2023-10-31 14:09:43.480303
434  2023-10-31 14:09:43.512215
435  2023-10-31 14:09:43.544150
436  2023-10-31 14:09:43.576050
437  2023-10-31 14:09:43.607960
438  2023-10-31 14:09:43.639891
439  2023-10-31 14:09:43.671788
440  2023-10-31 14:09:43.703710
441  2023-10-31 14:09:43.735634
442  2023-10-31 14:09:43.767547
443  2023-10-31 14:09:43.799466
444  2023-10-31 14:09:43.848361
445  2023-10-31 14:09:43.880233
446  2023-10-31 14:09:43.912151
447  2023-10-31 14:09:43.944041
448  2023-10-31 14:09:43.975992
449  2023-10-31 14:09:44.007890
450  2023-10-31 14:09:44.039807
451  2023-10-31 14:09:44.071719
452  2023-10-31 14:09:44.103607
453  2023-10-31 14:09:44.135562
454  2023-10-31 14:09:44.167466
455  2023-10-31 14:09:44.200395
456  2023-10-31 14:09:44.248263
457  2023-10-31 14:09:44.280163
458  2023-10-31 14:09:44.312093
459  2023-10-31 14:09:44.343994
460  2023-10-31 14:09:44.375906
461  2023-10-31 14:09:44.407798
462  2023-10-31 14:09:44.439709
463  2023-10-31 14:09:44.471664
464  2023-10-31 14:09:44.503568
465  2023-10-31 14:09:44.535480
466  2023-10-31 14:09:44.567444
467  2023-10-31 14:09:44.600344
468  2023-10-31 14:09:44.648188
469  2023-10-31 14:09:44.680106
470  2023-10-31 14:09:44.712007
471  2023-10-31 14:09:44.743950
472  2023-10-31 14:09:44.775821
473  2023-10-31 14:09:44.807758
474  2023-10-31 14:09:44.839685
475  2023-10-31 14:09:44.871555
476  2023-10-31 14:09:44.903525
477  2023-10-31 14:09:44.936426
478  2023-10-31 14:09:44.968295
479  2023-10-31 14:09:45.000210
480  2023-10-31 14:09:45.048112
481  2023-10-31 14:09:45.080027
482  2023-10-31 14:09:45.111913
483  2023-10-31 14:09:45.143863
484  2023-10-31 14:09:45.175741
485  2023-10-31 14:09:45.207686
486  2023-10-31 14:09:45.239645
487  2023-10-31 14:09:45.272509
488  2023-10-31 14:09:45.304397
489  2023-10-31 14:09:45.336311
490  2023-10-31 14:09:45.368226
491  2023-10-31 14:09:45.400177
492  2023-10-31 14:09:45.448052
493  2023-10-31 14:09:45.479967
494  2023-10-31 14:09:45.511843
495  2023-10-31 14:09:45.543794
496  2023-10-31 14:09:45.575677
497  2023-10-31 14:09:45.607615
498  2023-10-31 14:09:45.640498
499  2023-10-31 14:09:45.671454
500  2023-10-31 14:09:45.704327
501  2023-10-31 14:09:45.736277
502  2023-10-31 14:09:45.768184
503  2023-10-31 14:09:45.800071
504  2023-10-31 14:09:45.847977
505  2023-10-31 14:09:45.879907
506  2023-10-31 14:09:45.911772
507  2023-10-31 14:09:45.943688
508  2023-10-31 14:09:45.975606
509  2023-10-31 14:09:46.008514
510  2023-10-31 14:09:46.039433
511  2023-10-31 14:09:46.072346
512  2023-10-31 14:09:46.104258
513  2023-10-31 14:09:46.136172
514  2023-10-31 14:09:46.168088
515  2023-10-31 14:09:46.200002
516  2023-10-31 14:09:46.247920
517  2023-10-31 14:09:46.279829
518  2023-10-31 14:09:46.311703
519  2023-10-31 14:09:46.343619
520  2023-10-31 14:09:46.375592
521  2023-10-31 14:09:46.407478
522  2023-10-31 14:09:46.440386
523  2023-10-31 14:09:46.472302
524  2023-10-31 14:09:46.504190
525  2023-10-31 14:09:46.536104
526  2023-10-31 14:09:46.568021
527  2023-10-31 14:09:46.599934
528  2023-10-31 14:09:46.647846
529  2023-10-31 14:09:46.679756
530  2023-10-31 14:09:46.711668
531  2023-10-31 14:09:46.743550
532  2023-10-31 14:09:46.775504
533  2023-10-31 14:09:46.808375
534  2023-10-31 14:09:46.840329
535  2023-10-31 14:09:46.872234
536  2023-10-31 14:09:46.904148
537  2023-10-31 14:09:46.936061
538  2023-10-31 14:09:46.967949
539  2023-10-31 14:09:46.999864
540  2023-10-31 14:09:47.047774
541  2023-10-31 14:09:47.079710
542  2023-10-31 14:09:47.111612
543  2023-10-31 14:09:47.143481
544  2023-10-31 14:09:47.176392
545  2023-10-31 14:09:47.208306
546  2023-10-31 14:09:47.240222
547  2023-10-31 14:09:47.272136
548  2023-10-31 14:09:47.304050
549  2023-10-31 14:09:47.335965
550  2023-10-31 14:09:47.367880
551  2023-10-31 14:09:47.399794
552  2023-10-31 14:09:47.447695
553  2023-10-31 14:09:47.479618
554  2023-10-31 14:09:47.511530
555  2023-10-31 14:09:47.544409
556  2023-10-31 14:09:47.576369
557  2023-10-31 14:09:47.608238
558  2023-10-31 14:09:47.640154
559  2023-10-31 14:09:47.672069
560  2023-10-31 14:09:47.704015
561  2023-10-31 14:09:47.735896
562  2023-10-31 14:09:47.767850
563  2023-10-31 14:09:47.799725
564  2023-10-31 14:09:47.848596
565  2023-10-31 14:09:47.879545
566  2023-10-31 14:09:47.911456
567  2023-10-31 14:09:47.944343
568  2023-10-31 14:09:47.976283
569  2023-10-31 14:09:48.008168
570  2023-10-31 14:09:48.040083
571  2023-10-31 14:09:48.072028
572  2023-10-31 14:09:48.103946
573  2023-10-31 14:09:48.135827
574  2023-10-31 14:09:48.167741
575  2023-10-31 14:09:48.199656
576  2023-10-31 14:09:48.247536
577  2023-10-31 14:09:48.279447
578  2023-10-31 14:09:48.311414
579  2023-10-31 14:09:48.344270
580  2023-10-31 14:09:48.376184
581  2023-10-31 14:09:48.408133
582  2023-10-31 14:09:48.440049
583  2023-10-31 14:09:48.471960
584  2023-10-31 14:09:48.503843
585  2023-10-31 14:09:48.535757
586  2023-10-31 14:09:48.567672
587  2023-10-31 14:09:48.599586
588  2023-10-31 14:09:48.648483
589  2023-10-31 14:09:48.679403
590  2023-10-31 14:09:48.712285
591  2023-10-31 14:09:48.744200
592  2023-10-31 14:09:48.776115
593  2023-10-31 14:09:48.808071
594  2023-10-31 14:09:48.839975
595  2023-10-31 14:09:48.871859
596  2023-10-31 14:09:48.903773
597  2023-10-31 14:09:48.935689
598  2023-10-31 14:09:48.967603
599  2023-10-31 14:09:48.999517
600  2023-10-31 14:09:49.047442
601  2023-10-31 14:09:49.080337
602  2023-10-31 14:09:49.112217
603  2023-10-31 14:09:49.144135
604  2023-10-31 14:09:49.176046
605  2023-10-31 14:09:49.208000
606  2023-10-31 14:09:49.239877
607  2023-10-31 14:09:49.271790
608  2023-10-31 14:09:49.303704
609  2023-10-31 14:09:49.335619
610  2023-10-31 14:09:49.367533
611  2023-10-31 14:09:49.399484
612  2023-10-31 14:09:49.448354
613  2023-10-31 14:09:49.480273
614  2023-10-31 14:09:49.512176
615  2023-10-31 14:09:49.544062
616  2023-10-31 14:09:49.576006
617  2023-10-31 14:09:49.607920
618  2023-10-31 14:09:49.639833
619  2023-10-31 14:09:49.671720
620  2023-10-31 14:09:49.703635
621  2023-10-31 14:09:49.735550
622  2023-10-31 14:09:49.767464
623  2023-10-31 14:09:49.800377
624  2023-10-31 14:09:49.848249
625  2023-10-31 14:09:49.880165
626  2023-10-31 14:09:49.912106
627  2023-10-31 14:09:49.944031
628  2023-10-31 14:09:49.975909
629  2023-10-31 14:09:50.007822
630  2023-10-31 14:09:50.039776
631  2023-10-31 14:09:50.072650
632  2023-10-31 14:09:50.104601
633  2023-10-31 14:09:50.136480
634  2023-10-31 14:09:50.168422
635  2023-10-31 14:09:50.200310
636  2023-10-31 14:09:50.248181
637  2023-10-31 14:09:50.280095
638  2023-10-31 14:09:50.312062
639  2023-10-31 14:09:50.343962
640  2023-10-31 14:09:50.375843
641  2023-10-31 14:09:50.407784
642  2023-10-31 14:09:50.439676
643  2023-10-31 14:09:50.471583
644  2023-10-31 14:09:50.504497
645  2023-10-31 14:09:50.535413
646  2023-10-31 14:09:50.568352
647  2023-10-31 14:09:50.600240
648  2023-10-31 14:09:50.648113
649  2023-10-31 14:09:50.680027
650  2023-10-31 14:09:50.711942
651  2023-10-31 14:09:50.743856
652  2023-10-31 14:09:50.775771
653  2023-10-31 14:09:50.807713
654  2023-10-31 14:09:50.839634
655  2023-10-31 14:09:50.872513
656  2023-10-31 14:09:50.903429
657  2023-10-31 14:09:50.936343
658  2023-10-31 14:09:50.968284
659  2023-10-31 14:09:51.000171
660  2023-10-31 14:09:51.048072
661  2023-10-31 14:09:51.079983
662  2023-10-31 14:09:51.111871
663  2023-10-31 14:09:51.143818
664  2023-10-31 14:09:51.175701
665  2023-10-31 14:09:51.207642
666  2023-10-31 14:09:51.239568
667  2023-10-31 14:09:51.271446
668  2023-10-31 14:09:51.304356
669  2023-10-31 14:09:51.336273
670  2023-10-31 14:09:51.368186
671  2023-10-31 14:09:51.400102
672  2023-10-31 14:09:51.447978
673  2023-10-31 14:09:51.479933
674  2023-10-31 14:09:51.512826
675  2023-10-31 14:09:51.543760
676  2023-10-31 14:09:51.575660
677  2023-10-31 14:09:51.608543
678  2023-10-31 14:09:51.640463
679  2023-10-31 14:09:51.672401
680  2023-10-31 14:09:51.704327
681  2023-10-31 14:09:51.736204
682  2023-10-31 14:09:51.768119
683  2023-10-31 14:09:51.800060
684  2023-10-31 14:09:51.848928
685  2023-10-31 14:09:51.879818
686  2023-10-31 14:09:51.911733
687  2023-10-31 14:09:51.943680
688  2023-10-31 14:09:51.976595
689  2023-10-31 14:09:52.007518
690  2023-10-31 14:09:52.039392
691  2023-10-31 14:09:52.072331
692  2023-10-31 14:09:52.104236
693  2023-10-31 14:09:52.136161
694  2023-10-31 14:09:52.168075
695  2023-10-31 14:09:52.199999
696  2023-10-31 14:09:52.247863
697  2023-10-31 14:09:52.279749
698  2023-10-31 14:09:52.311693
699  2023-10-31 14:09:52.343578
700  2023-10-31 14:09:52.375495
701  2023-10-31 14:09:52.407408
702  2023-10-31 14:09:52.440320
703  2023-10-31 14:09:52.472236
704  2023-10-31 14:09:52.504149
705  2023-10-31 14:09:52.536063
706  2023-10-31 14:09:52.567978
707  2023-10-31 14:09:52.599950
708  2023-10-31 14:09:52.647792
709  2023-10-31 14:09:52.679680
710  2023-10-31 14:09:52.711622
711  2023-10-31 14:09:52.743508
712  2023-10-31 14:09:52.776421
713  2023-10-31 14:09:52.808335
714  2023-10-31 14:09:52.840251
715  2023-10-31 14:09:52.872165
716  2023-10-31 14:09:52.904130
717  2023-10-31 14:09:52.936024
718  2023-10-31 14:09:52.967938
719  2023-10-31 14:09:52.999825
720  2023-10-31 14:09:53.047696
721  2023-10-31 14:09:53.079638
722  2023-10-31 14:09:53.111553
723  2023-10-31 14:09:53.143475
724  2023-10-31 14:09:53.175354
725  2023-10-31 14:09:53.208304
726  2023-10-31 14:09:53.240215
727  2023-10-31 14:09:53.272096
728  2023-10-31 14:09:53.304038
729  2023-10-31 14:09:53.335925
730  2023-10-31 14:09:53.367883
731  2023-10-31 14:09:53.399755
732  2023-10-31 14:09:53.447665
733  2023-10-31 14:09:53.480541
734  2023-10-31 14:09:53.512492
735  2023-10-31 14:09:53.543371
736  2023-10-31 14:09:53.576336
737  2023-10-31 14:09:53.608239
738  2023-10-31 14:09:53.640112
739  2023-10-31 14:09:53.672027
740  2023-10-31 14:09:53.703978
741  2023-10-31 14:09:53.735872
742  2023-10-31 14:09:53.767771
743  2023-10-31 14:09:53.799686
744  2023-10-31 14:09:53.847582
745  2023-10-31 14:09:53.879472
746  2023-10-31 14:09:53.911416
747  2023-10-31 14:09:53.944336
748  2023-10-31 14:09:53.976279
749  2023-10-31 14:09:54.008176
750  2023-10-31 14:09:54.040045
751  2023-10-31 14:09:54.071961
752  2023-10-31 14:09:54.103914
753  2023-10-31 14:09:54.135787
754  2023-10-31 14:09:54.167731
755  2023-10-31 14:09:54.199667
756  2023-10-31 14:09:54.247528
757  2023-10-31 14:09:54.279451
758  2023-10-31 14:09:54.311351
759  2023-10-31 14:09:54.344274
760  2023-10-31 14:09:54.376195
761  2023-10-31 14:09:54.408099
762  2023-10-31 14:09:54.440033
763  2023-10-31 14:09:54.471888
764  2023-10-31 14:09:54.503842
765  2023-10-31 14:09:54.535752
766  2023-10-31 14:09:54.567672
767  2023-10-31 14:09:54.599547
768  2023-10-31 14:09:54.647424
769  2023-10-31 14:09:54.680333
770  2023-10-31 14:09:54.712244
771  2023-10-31 14:09:54.744216
772  2023-10-31 14:09:54.776074
773  2023-10-31 14:09:54.808027
774  2023-10-31 14:09:54.839905
775  2023-10-31 14:09:54.871863
776  2023-10-31 14:09:54.903734
777  2023-10-31 14:09:54.935698
778  2023-10-31 14:09:54.967601
779  2023-10-31 14:09:54.999513
780  2023-10-31 14:09:55.048346
781  2023-10-31 14:09:55.080261
782  2023-10-31 14:09:55.112177
783  2023-10-31 14:09:55.144108
784  2023-10-31 14:09:55.176047
785  2023-10-31 14:09:55.207920
786  2023-10-31 14:09:55.239844
787  2023-10-31 14:09:55.271750
788  2023-10-31 14:09:55.303665
789  2023-10-31 14:09:55.335608
790  2023-10-31 14:09:55.367541
791  2023-10-31 14:09:55.400408
792  2023-10-31 14:09:55.448305
793  2023-10-31 14:09:55.480192
794  2023-10-31 14:09:55.512153
795  2023-10-31 14:09:55.544055
796  2023-10-31 14:09:55.575935
797  2023-10-31 14:09:55.607856
798  2023-10-31 14:09:55.639802
799  2023-10-31 14:09:55.671732
800  2023-10-31 14:09:55.703633
801  2023-10-31 14:09:55.735509
802  2023-10-31 14:09:55.768451
803  2023-10-31 14:09:55.800358
804  2023-10-31 14:09:55.848243
805  2023-10-31 14:09:55.880123
806  2023-10-31 14:09:55.912078
807  2023-10-31 14:09:55.943982
808  2023-10-31 14:09:55.975909
809  2023-10-31 14:09:56.007824
810  2023-10-31 14:09:56.039729
811  2023-10-31 14:09:56.071650
812  2023-10-31 14:09:56.103578
813  2023-10-31 14:09:56.136438
814  2023-10-31 14:09:56.168395
815  2023-10-31 14:09:56.200297
816  2023-10-31 14:09:56.248184
817  2023-10-31 14:09:56.280092
818  2023-10-31 14:09:56.312058
819  2023-10-31 14:09:56.343977
820  2023-10-31 14:09:56.375919
821  2023-10-31 14:09:56.407846
822  2023-10-31 14:09:56.439760
823  2023-10-31 14:09:56.471661
824  2023-10-31 14:09:56.503574
825  2023-10-31 14:09:56.535501
826  2023-10-31 14:09:56.568373
827  2023-10-31 14:09:56.600288
828  2023-10-31 14:09:56.648160
829  2023-10-31 14:09:56.680101
830  2023-10-31 14:09:56.712014
831  2023-10-31 14:09:56.743935
832  2023-10-31 14:09:56.775864
833  2023-10-31 14:09:56.807791
834  2023-10-31 14:09:56.839681
835  2023-10-31 14:09:56.871598
836  2023-10-31 14:09:56.903512
837  2023-10-31 14:09:56.936388
838  2023-10-31 14:09:56.968348
839  2023-10-31 14:09:57.000246
840  2023-10-31 14:09:57.048116
841  2023-10-31 14:09:57.080042
842  2023-10-31 14:09:57.111945
843  2023-10-31 14:09:57.143873
844  2023-10-31 14:09:57.175809
845  2023-10-31 14:09:57.207704
846  2023-10-31 14:09:57.239615
847  2023-10-31 14:09:57.271528
848  2023-10-31 14:09:57.303444
849  2023-10-31 14:09:57.336353
850  2023-10-31 14:09:57.368273
851  2023-10-31 14:09:57.400148
852  2023-10-31 14:09:57.448056
853  2023-10-31 14:09:57.479936
854  2023-10-31 14:09:57.511875
855  2023-10-31 14:09:57.543801
856  2023-10-31 14:09:57.575706
857  2023-10-31 14:09:57.607620
858  2023-10-31 14:09:57.640508
859  2023-10-31 14:09:57.671461
860  2023-10-31 14:09:57.704335
861  2023-10-31 14:09:57.736284
862  2023-10-31 14:09:57.768194
863  2023-10-31 14:09:57.800109
864  2023-10-31 14:09:57.847987
865  2023-10-31 14:09:57.879892
866  2023-10-31 14:09:57.911830
867  2023-10-31 14:09:57.943722
868  2023-10-31 14:09:57.975659
869  2023-10-31 14:09:58.007553
870  2023-10-31 14:09:58.039440
871  2023-10-31 14:09:58.072391
872  2023-10-31 14:09:58.104266
873  2023-10-31 14:09:58.136228
874  2023-10-31 14:09:58.168122
875  2023-10-31 14:09:58.200042
876  2023-10-31 14:09:58.247887
877  2023-10-31 14:09:58.279823
878  2023-10-31 14:09:58.311712
879  2023-10-31 14:09:58.343661
880  2023-10-31 14:09:58.375540
881  2023-10-31 14:09:58.407497
882  2023-10-31 14:09:58.440368
883  2023-10-31 14:09:58.472333
884  2023-10-31 14:09:58.504196
885  2023-10-31 14:09:58.536111
886  2023-10-31 14:09:58.568052
887  2023-10-31 14:09:58.599973
888  2023-10-31 14:09:58.647846
889  2023-10-31 14:09:58.679770
890  2023-10-31 14:09:58.711643
891  2023-10-31 14:09:58.743585
892  2023-10-31 14:09:58.775499
893  2023-10-31 14:09:58.807420
894  2023-10-31 14:09:58.840338
895  2023-10-31 14:09:58.872252
896  2023-10-31 14:09:58.904174
897  2023-10-31 14:09:58.936042
898  2023-10-31 14:09:58.967958
899  2023-10-31 14:09:58.999908
900  2023-10-31 14:09:59.047780
901  2023-10-31 14:09:59.079684
902  2023-10-31 14:09:59.111608
903  2023-10-31 14:09:59.143523
904  2023-10-31 14:09:59.175404
905  2023-10-31 14:09:59.208352
906  2023-10-31 14:09:59.240257
907  2023-10-31 14:09:59.272144
908  2023-10-31 14:09:59.304058
909  2023-10-31 14:09:59.335977
910  2023-10-31 14:09:59.367888
911  2023-10-31 14:09:59.399830
912  2023-10-31 14:09:59.447721
913  2023-10-31 14:09:59.479624
914  2023-10-31 14:09:59.511541
915  2023-10-31 14:09:59.543471
916  2023-10-31 14:09:59.576358
917  2023-10-31 14:09:59.608277
918  2023-10-31 14:09:59.640202
919  2023-10-31 14:09:59.672075
920  2023-10-31 14:09:59.703989
921  2023-10-31 14:09:59.735939
922  2023-10-31 14:09:59.767850
923  2023-10-31 14:09:59.799761
924  2023-10-31 14:09:59.847641
925  2023-10-31 14:09:59.879551
926  2023-10-31 14:09:59.911475
927  2023-10-31 14:09:59.943382
928  2023-10-31 14:09:59.976290
929  2023-10-31 14:10:00.008211
930  2023-10-31 14:10:00.040119
931  2023-10-31 14:10:00.072006
932  2023-10-31 14:10:00.103919
933  2023-10-31 14:10:00.135835
934  2023-10-31 14:10:00.167780
935  2023-10-31 14:10:00.199691
936  2023-10-31 14:10:00.247567
937  2023-10-31 14:10:00.279514
938  2023-10-31 14:10:00.311366
939  2023-10-31 14:10:00.344313
940  2023-10-31 14:10:00.376192
941  2023-10-31 14:10:00.408139
942  2023-10-31 14:10:00.440054
943  2023-10-31 14:10:00.471971
944  2023-10-31 14:10:00.503879
945  2023-10-31 14:10:00.535767
946  2023-10-31 14:10:00.567715
947  2023-10-31 14:10:00.599599
948  2023-10-31 14:10:00.647468
949  2023-10-31 14:10:00.679410
950  2023-10-31 14:10:00.712293
951  2023-10-31 14:10:00.744209
952  2023-10-31 14:10:00.776123
953  2023-10-31 14:10:00.808066
954  2023-10-31 14:10:00.839978
955  2023-10-31 14:10:00.871896
956  2023-10-31 14:10:00.903811
957  2023-10-31 14:10:00.935743
958  2023-10-31 14:10:00.967660
959  2023-10-31 14:10:00.999574
960  2023-10-31 14:10:01.047458
961  2023-10-31 14:10:01.080343
962  2023-10-31 14:10:01.112226
963  2023-10-31 14:10:01.144140
964  2023-10-31 14:10:01.176055
965  2023-10-31 14:10:01.208009
966  2023-10-31 14:10:01.239884
967  2023-10-31 14:10:01.271798
968  2023-10-31 14:10:01.303713
969  2023-10-31 14:10:01.335628
970  2023-10-31 14:10:01.367575
971  2023-10-31 14:10:01.399490
972  2023-10-31 14:10:01.448330
973  2023-10-31 14:10:01.480290
974  2023-10-31 14:10:01.512183
975  2023-10-31 14:10:01.544098
976  2023-10-31 14:10:01.575986
977  2023-10-31 14:10:01.607900
978  2023-10-31 14:10:01.639844
979  2023-10-31 14:10:01.671756
980  2023-10-31 14:10:01.703673
981  2023-10-31 14:10:01.735584
982  2023-10-31 14:10:01.768473
983  2023-10-31 14:10:01.799417
984  2023-10-31 14:10:01.848257
985  2023-10-31 14:10:01.880198
986  2023-10-31 14:10:01.912115
987  2023-10-31 14:10:01.944001
988  2023-10-31 14:10:01.975949
989  2023-10-31 14:10:02.007831
990  2023-10-31 14:10:02.039775
991  2023-10-31 14:10:02.071698
992  2023-10-31 14:10:02.103601
993  2023-10-31 14:10:02.136487
994  2023-10-31 14:10:02.168401
995  2023-10-31 14:10:02.200346
996  2023-10-31 14:10:02.248191
997  2023-10-31 14:10:02.280149
998  2023-10-31 14:10:02.312045
999  2023-10-31 14:10:02.343958
1000  2023-10-31 14:10:02.375848
1001  2023-10-31 14:10:02.407793
1002  2023-10-31 14:10:02.439702
1003  2023-10-31 14:10:02.471618
1004  2023-10-31 14:10:02.503531
1005  2023-10-31 14:10:02.536418
1006  2023-10-31 14:10:02.568333
1007  2023-10-31 14:10:02.600280
1008  2023-10-31 14:10:02.648145
1009  2023-10-31 14:10:02.680068
1010  2023-10-31 14:10:02.711995
1011  2023-10-31 14:10:02.743901
1012  2023-10-31 14:10:02.775778
1013  2023-10-31 14:10:02.807692
1014  2023-10-31 14:10:02.839606
1015  2023-10-31 14:10:02.871520
1016  2023-10-31 14:10:02.903466
1017  2023-10-31 14:10:02.936349
1018  2023-10-31 14:10:02.968263
1019  2023-10-31 14:10:03.000178
1020  2023-10-31 14:10:03.048077
1021  2023-10-31 14:10:03.079991
1022  2023-10-31 14:10:03.111916
1023  2023-10-31 14:10:03.143823
1024  2023-10-31 14:10:03.175709
1025  2023-10-31 14:10:03.207623
1026  2023-10-31 14:10:03.239565
1027  2023-10-31 14:10:03.272476
1028  2023-10-31 14:10:03.304365
1029  2023-10-31 14:10:03.336279
1030  2023-10-31 14:10:03.368194
1031  2023-10-31 14:10:03.400135
1032  2023-10-31 14:10:03.447984
1033  2023-10-31 14:10:03.479940
1034  2023-10-31 14:10:03.511835
1035  2023-10-31 14:10:03.543758
1036  2023-10-31 14:10:03.575639
1037  2023-10-31 14:10:03.607554
1038  2023-10-31 14:10:03.640466
1039  2023-10-31 14:10:03.671417
1040  2023-10-31 14:10:03.704295
1041  2023-10-31 14:10:03.736210
1042  2023-10-31 14:10:03.768175
1043  2023-10-31 14:10:03.800039
1044  2023-10-31 14:10:03.847936
1045  2023-10-31 14:10:03.879861
1046  2023-10-31 14:10:03.911769
1047  2023-10-31 14:10:03.943655
1048  2023-10-31 14:10:03.975570
1049  2023-10-31 14:10:04.007485
1050  2023-10-31 14:10:04.039435
1051  2023-10-31 14:10:04.072312
1052  2023-10-31 14:10:04.104265
1053  2023-10-31 14:10:04.136141
1054  2023-10-31 14:10:04.168055
1055  2023-10-31 14:10:04.199970
1056  2023-10-31 14:10:04.247879
1057  2023-10-31 14:10:04.279785
1058  2023-10-31 14:10:04.311675
1059  2023-10-31 14:10:04.343586
1060  2023-10-31 14:10:04.375501
1061  2023-10-31 14:10:04.407443
1062  2023-10-31 14:10:04.440328
1063  2023-10-31 14:10:04.472242
1064  2023-10-31 14:10:04.504158
1065  2023-10-31 14:10:04.536072
1066  2023-10-31 14:10:04.567986
1067  2023-10-31 14:10:04.599901
1068  2023-10-31 14:10:04.647799
1069  2023-10-31 14:10:04.679730
1070  2023-10-31 14:10:04.711638
1071  2023-10-31 14:10:04.743517
1072  2023-10-31 14:10:04.776456
1073  2023-10-31 14:10:04.808342
1074  2023-10-31 14:10:04.840258
1075  2023-10-31 14:10:04.872173
1076  2023-10-31 14:10:04.904088
1077  2023-10-31 14:10:04.936031
1078  2023-10-31 14:10:04.967918
1079  2023-10-31 14:10:04.999831
1080  2023-10-31 14:10:05.047709
1081  2023-10-31 14:10:05.079644
1082  2023-10-31 14:10:05.111562
1083  2023-10-31 14:10:05.143448
1084  2023-10-31 14:10:05.176360
1085  2023-10-31 14:10:05.208274
1086  2023-10-31 14:10:05.240193
1087  2023-10-31 14:10:05.272104
1088  2023-10-31 14:10:05.304018
1089  2023-10-31 14:10:05.335933
1090  2023-10-31 14:10:05.367848
1091  2023-10-31 14:10:05.400789
1092  2023-10-31 14:10:05.447682
1093  2023-10-31 14:10:05.480582
1094  2023-10-31 14:10:05.512497
1095  2023-10-31 14:10:05.544376
1096  2023-10-31 14:10:05.576290
1097  2023-10-31 14:10:05.608205
1098  2023-10-31 14:10:05.640120
1099  2023-10-31 14:10:05.672036
1100  2023-10-31 14:10:05.703949
1101  2023-10-31 14:10:05.735891
1102  2023-10-31 14:10:05.767806
1103  2023-10-31 14:10:05.799729
1104  2023-10-31 14:10:05.847592
1105  2023-10-31 14:10:05.879534
1106  2023-10-31 14:10:05.911395
1107  2023-10-31 14:10:05.944312
1108  2023-10-31 14:10:05.976277
1109  2023-10-31 14:10:06.008167
1110  2023-10-31 14:10:06.040078
1111  2023-10-31 14:10:06.071993
1112  2023-10-31 14:10:06.103906
1113  2023-10-31 14:10:06.135799
1114  2023-10-31 14:10:06.167742
1115  2023-10-31 14:10:06.199668
1116  2023-10-31 14:10:06.247499
1117  2023-10-31 14:10:06.279414
1118  2023-10-31 14:10:06.311331
1119  2023-10-31 14:10:06.344295
1120  2023-10-31 14:10:06.376193
1121  2023-10-31 14:10:06.408107
1122  2023-10-31 14:10:06.440012
1123  2023-10-31 14:10:06.471931
1124  2023-10-31 14:10:06.503848
1125  2023-10-31 14:10:06.535770
1126  2023-10-31 14:10:06.567702
1127  2023-10-31 14:10:06.599601
1128  2023-10-31 14:10:06.648454
1129  2023-10-31 14:10:06.679340
1130  2023-10-31 14:10:06.712286
1131  2023-10-31 14:10:06.744210
1132  2023-10-31 14:10:06.776092
1133  2023-10-31 14:10:06.808013
1134  2023-10-31 14:10:06.839953
1135  2023-10-31 14:10:06.871867
1136  2023-10-31 14:10:06.903781
1137  2023-10-31 14:10:06.935690
1138  2023-10-31 14:10:06.967610
1139  2023-10-31 14:10:06.999532
1140  2023-10-31 14:10:07.047386
1141  2023-10-31 14:10:07.080336
1142  2023-10-31 14:10:07.112213
1143  2023-10-31 14:10:07.144102
1144  2023-10-31 14:10:07.176047
1145  2023-10-31 14:10:07.207927
1146  2023-10-31 14:10:07.239872
1147  2023-10-31 14:10:07.271780
1148  2023-10-31 14:10:07.303707
1149  2023-10-31 14:10:07.335626
1150  2023-10-31 14:10:07.367549
1151  2023-10-31 14:10:07.399466
1152  2023-10-31 14:10:07.448319
1153  2023-10-31 14:10:07.480237
1154  2023-10-31 14:10:07.512176
1155  2023-10-31 14:10:07.544029
1156  2023-10-31 14:10:07.575974
1157  2023-10-31 14:10:07.607891
1158  2023-10-31 14:10:07.640771
1159  2023-10-31 14:10:07.671688
1160  2023-10-31 14:10:07.703654
1161  2023-10-31 14:10:07.735558
1162  2023-10-31 14:10:07.768430
1163  2023-10-31 14:10:07.800391
1164  2023-10-31 14:10:07.848244
1165  2023-10-31 14:10:07.880191
1166  2023-10-31 14:10:07.912060
1167  2023-10-31 14:10:07.943994
1168  2023-10-31 14:10:07.975911
1169  2023-10-31 14:10:08.007824
1170  2023-10-31 14:10:08.039740
1171  2023-10-31 14:10:08.071624
1172  2023-10-31 14:10:08.103563
1173  2023-10-31 14:10:08.135493
1174  2023-10-31 14:10:08.168360
1175  2023-10-31 14:10:08.200306
1176  2023-10-31 14:10:08.248146
1177  2023-10-31 14:10:08.280061
1178  2023-10-31 14:10:08.311977
1179  2023-10-31 14:10:08.343927
1180  2023-10-31 14:10:08.375837
1181  2023-10-31 14:10:08.407721
1182  2023-10-31 14:10:08.439673
1183  2023-10-31 14:10:08.471586
1184  2023-10-31 14:10:08.503498
1185  2023-10-31 14:10:08.535413
1186  2023-10-31 14:10:08.568335
1187  2023-10-31 14:10:08.600240
1188  2023-10-31 14:10:08.648147
1189  2023-10-31 14:10:08.680029
1190  2023-10-31 14:10:08.711949
1191  2023-10-31 14:10:08.743859
1192  2023-10-31 14:10:08.775763
1193  2023-10-31 14:10:08.807651
1194  2023-10-31 14:10:08.839624
1195  2023-10-31 14:10:08.871515
1196  2023-10-31 14:10:08.903451
1197  2023-10-31 14:10:08.936355
1198  2023-10-31 14:10:08.968222
1199  2023-10-31 14:10:09.000182
1200  2023-10-31 14:10:09.048009
1201  2023-10-31 14:10:09.079951
1202  2023-10-31 14:10:09.111838
1203  2023-10-31 14:10:09.143782
1204  2023-10-31 14:10:09.175707
1205  2023-10-31 14:10:09.207587
1206  2023-10-31 14:10:09.239523
1207  2023-10-31 14:10:09.272411
1208  2023-10-31 14:10:09.303365
1209  2023-10-31 14:10:09.336238
1210  2023-10-31 14:10:09.368187
1211  2023-10-31 14:10:09.400107
1212  2023-10-31 14:10:09.447940
1213  2023-10-31 14:10:09.479886
1214  2023-10-31 14:10:09.511804
1215  2023-10-31 14:10:09.543729
1216  2023-10-31 14:10:09.575634
1217  2023-10-31 14:10:09.608509
1218  2023-10-31 14:10:09.640425
1219  2023-10-31 14:10:09.672377
1220  2023-10-31 14:10:09.704253
1221  2023-10-31 14:10:09.736203
1222  2023-10-31 14:10:09.768116
1223  2023-10-31 14:10:09.800050
1224  2023-10-31 14:10:09.847906
1225  2023-10-31 14:10:09.879817
1226  2023-10-31 14:10:09.911732
1227  2023-10-31 14:10:09.943616
1228  2023-10-31 14:10:09.975555
1229  2023-10-31 14:10:10.007442
1230  2023-10-31 14:10:10.039394
1231  2023-10-31 14:10:10.072311
1232  2023-10-31 14:10:10.104213
1233  2023-10-31 14:10:10.136141
1234  2023-10-31 14:10:10.168048
1235  2023-10-31 14:10:10.199966
1236  2023-10-31 14:10:10.247839
1237  2023-10-31 14:10:10.279748
1238  2023-10-31 14:10:10.311656
1239  2023-10-31 14:10:10.343585
1240  2023-10-31 14:10:10.375496
1241  2023-10-31 14:10:10.408372
1242  2023-10-31 14:10:10.440322
1243  2023-10-31 14:10:10.472246
1244  2023-10-31 14:10:10.504169
1245  2023-10-31 14:10:10.536070
1246  2023-10-31 14:10:10.567979
1247  2023-10-31 14:10:10.599912
1248  2023-10-31 14:10:10.647735
1249  2023-10-31 14:10:10.679672
1250  2023-10-31 14:10:10.711593
1251  2023-10-31 14:10:10.743526
1252  2023-10-31 14:10:10.775428
1253  2023-10-31 14:10:10.808343
1254  2023-10-31 14:10:10.840262
1255  2023-10-31 14:10:10.872181
1256  2023-10-31 14:10:10.904084
1257  2023-10-31 14:10:10.935988
1258  2023-10-31 14:10:10.967875
1259  2023-10-31 14:10:10.999848
1260  2023-10-31 14:10:11.047690
1261  2023-10-31 14:10:11.079616
1262  2023-10-31 14:10:11.111535
1263  2023-10-31 14:10:11.144404
1264  2023-10-31 14:10:11.175361
1265  2023-10-31 14:10:11.208275
1266  2023-10-31 14:10:11.240184
1267  2023-10-31 14:10:11.272064
1268  2023-10-31 14:10:11.303978
1269  2023-10-31 14:10:11.335951
1270  2023-10-31 14:10:11.367843
1271  2023-10-31 14:10:11.400747
1272  2023-10-31 14:10:11.447619
1273  2023-10-31 14:10:11.480540
1274  2023-10-31 14:10:11.512420
1275  2023-10-31 14:10:11.544334
1276  2023-10-31 14:10:11.576318
1277  2023-10-31 14:10:11.608189
1278  2023-10-31 14:10:11.640140
1279  2023-10-31 14:10:11.672038
1280  2023-10-31 14:10:11.703943
1281  2023-10-31 14:10:11.735827
1282  2023-10-31 14:10:11.767774
1283  2023-10-31 14:10:11.799684
1284  2023-10-31 14:10:11.847563
1285  2023-10-31 14:10:11.879471
1286  2023-10-31 14:10:11.911390
1287  2023-10-31 14:10:11.944307
1288  2023-10-31 14:10:11.976222
1289  2023-10-31 14:10:12.008128
1290  2023-10-31 14:10:12.040042
1291  2023-10-31 14:10:12.071924
1292  2023-10-31 14:10:12.103876
1293  2023-10-31 14:10:12.135791
1294  2023-10-31 14:10:12.167710
1295  2023-10-31 14:10:12.199619
1296  2023-10-31 14:10:12.247494
1297  2023-10-31 14:10:12.280418
1298  2023-10-31 14:10:12.312315
1299  2023-10-31 14:10:12.344230
1300  2023-10-31 14:10:12.376146
1301  2023-10-31 14:10:12.408060
1302  2023-10-31 14:10:12.439972
1303  2023-10-31 14:10:12.471898
1304  2023-10-31 14:10:12.503807
1305  2023-10-31 14:10:12.535716
1306  2023-10-31 14:10:12.567634
1307  2023-10-31 14:10:12.599552
1308  2023-10-31 14:10:12.648387
1309  2023-10-31 14:10:12.680302
1310  2023-10-31 14:10:12.712241
1311  2023-10-31 14:10:12.744160
1312  2023-10-31 14:10:12.776089
1313  2023-10-31 14:10:12.807957
1314  2023-10-31 14:10:12.839911
1315  2023-10-31 14:10:12.871820
1316  2023-10-31 14:10:12.903737
1317  2023-10-31 14:10:12.935642
1318  2023-10-31 14:10:12.967570
1319  2023-10-31 14:10:13.000478
1320  2023-10-31 14:10:13.048372
1321  2023-10-31 14:10:13.080260
1322  2023-10-31 14:10:13.112181
1323  2023-10-31 14:10:13.144057
1324  2023-10-31 14:10:13.175974
1325  2023-10-31 14:10:13.207927
1326  2023-10-31 14:10:13.239832
1327  2023-10-31 14:10:13.271751
1328  2023-10-31 14:10:13.303668
1329  2023-10-31 14:10:13.335603
1330  2023-10-31 14:10:13.367461
1331  2023-10-31 14:10:13.399416
1332  2023-10-31 14:10:13.448272
1333  2023-10-31 14:10:13.480218
1334  2023-10-31 14:10:13.512106
1335  2023-10-31 14:10:13.544023
1336  2023-10-31 14:10:13.575964
1337  2023-10-31 14:10:13.607859
1338  2023-10-31 14:10:13.640733
1339  2023-10-31 14:10:13.671689
1340  2023-10-31 14:10:13.703598
1341  2023-10-31 14:10:13.735512
1342  2023-10-31 14:10:13.768430
1343  2023-10-31 14:10:13.800349
1344  2023-10-31 14:10:13.848177
1345  2023-10-31 14:10:13.880125
1346  2023-10-31 14:10:13.912031
1347  2023-10-31 14:10:13.943920
1348  2023-10-31 14:10:13.975885
1349  2023-10-31 14:10:14.007750
1350  2023-10-31 14:10:14.039703
1351  2023-10-31 14:10:14.071628
1352  2023-10-31 14:10:14.103524
1353  2023-10-31 14:10:14.135443
1354  2023-10-31 14:10:14.168360
1355  2023-10-31 14:10:14.200262
1356  2023-10-31 14:10:14.248105
1357  2023-10-31 14:10:14.280047
1358  2023-10-31 14:10:14.311939
1359  2023-10-31 14:10:14.343888
1360  2023-10-31 14:10:14.375818
1361  2023-10-31 14:10:14.407685
1362  2023-10-31 14:10:14.439646
1363  2023-10-31 14:10:14.471544
1364  2023-10-31 14:10:14.503481
1365  2023-10-31 14:10:14.536376
1366  2023-10-31 14:10:14.568251
1367  2023-10-31 14:10:14.600208
1368  2023-10-31 14:10:14.648036
1369  2023-10-31 14:10:14.679992
1370  2023-10-31 14:10:14.711905
1371  2023-10-31 14:10:14.743813
1372  2023-10-31 14:10:14.775694
1373  2023-10-31 14:10:14.807644
1374  2023-10-31 14:10:14.839576
1375  2023-10-31 14:10:14.871475
1376  2023-10-31 14:10:14.904388
1377  2023-10-31 14:10:14.936316
1378  2023-10-31 14:10:14.968235
1379  2023-10-31 14:10:15.000138
1380  2023-10-31 14:10:15.047968
1381  2023-10-31 14:10:15.079923
1382  2023-10-31 14:10:15.111833
1383  2023-10-31 14:10:15.144755
1384  2023-10-31 14:10:15.175662
1385  2023-10-31 14:10:15.207580
1386  2023-10-31 14:10:15.239492
1387  2023-10-31 14:10:15.272368
1388  2023-10-31 14:10:15.304317
1389  2023-10-31 14:10:15.336196
1390  2023-10-31 14:10:15.368111
1391  2023-10-31 14:10:15.400055
1392  2023-10-31 14:10:15.447928
1393  2023-10-31 14:10:15.479848
1394  2023-10-31 14:10:15.511767
1395  2023-10-31 14:10:15.543642
1396  2023-10-31 14:10:15.575612
1397  2023-10-31 14:10:15.608470
1398  2023-10-31 14:10:15.640451
1399  2023-10-31 14:10:15.672341
1400  2023-10-31 14:10:15.704258
1401  2023-10-31 14:10:15.736162
1402  2023-10-31 14:10:15.768087
1403  2023-10-31 14:10:15.799991
1404  2023-10-31 14:10:15.847862
1405  2023-10-31 14:10:15.880743
1406  2023-10-31 14:10:15.911659
1407  2023-10-31 14:10:15.943608
1408  2023-10-31 14:10:15.975530
1409  2023-10-31 14:10:16.007461
1410  2023-10-31 14:10:16.040315
1411  2023-10-31 14:10:16.072258
1412  2023-10-31 14:10:16.104144
1413  2023-10-31 14:10:16.136096
1414  2023-10-31 14:10:16.168009
1415  2023-10-31 14:10:16.200919
1416  2023-10-31 14:10:16.248785
1417  2023-10-31 14:10:16.280719
1418  2023-10-31 14:10:16.312587
1419  2023-10-31 14:10:16.344528
1420  2023-10-31 14:10:16.376416
1421  2023-10-31 14:10:16.408331
1422  2023-10-31 14:10:16.440246
1423  2023-10-31 14:10:16.472159
1424  2023-10-31 14:10:16.504075
1425  2023-10-31 14:10:16.535991
1426  2023-10-31 14:10:16.567911
1427  2023-10-31 14:10:16.599818
1428  2023-10-31 14:10:16.648732
1429  2023-10-31 14:10:16.680633
1430  2023-10-31 14:10:16.712564
1431  2023-10-31 14:10:16.744461
1432  2023-10-31 14:10:16.776380
1433  2023-10-31 14:10:16.808262
1434  2023-10-31 14:10:16.840176
1435  2023-10-31 14:10:16.872091
1436  2023-10-31 14:10:16.904006
1437  2023-10-31 14:10:16.935920
1438  2023-10-31 14:10:16.968832
1439  2023-10-31 14:10:16.999749
1440  2023-10-31 14:10:17.047621
1441  2023-10-31 14:10:17.079535
1442  2023-10-31 14:10:17.111450
1443  2023-10-31 14:10:17.143365
1444  2023-10-31 14:10:17.176319
1445  2023-10-31 14:10:17.208220
1446  2023-10-31 14:10:17.240134
1447  2023-10-31 14:10:17.272057
1448  2023-10-31 14:10:17.303974
1449  2023-10-31 14:10:17.335851
1450  2023-10-31 14:10:17.367766
1451  2023-10-31 14:10:17.399715
1452  2023-10-31 14:10:17.447586
1453  2023-10-31 14:10:17.479468
1454  2023-10-31 14:10:17.512380
1455  2023-10-31 14:10:17.544294
1456  2023-10-31 14:10:17.576239
1457  2023-10-31 14:10:17.608123
1458  2023-10-31 14:10:17.640077
1459  2023-10-31 14:10:17.671953
1460  2023-10-31 14:10:17.703922
1461  2023-10-31 14:10:17.735812
1462  2023-10-31 14:10:17.767697
1463  2023-10-31 14:10:17.799641
1464  2023-10-31 14:10:17.847519
1465  2023-10-31 14:10:17.879398
1466  2023-10-31 14:10:17.912310
1467  2023-10-31 14:10:17.944224
1468  2023-10-31 14:10:17.976139
1469  2023-10-31 14:10:18.008053
1470  2023-10-31 14:10:18.039968
1471  2023-10-31 14:10:18.071910
1472  2023-10-31 14:10:18.103825
1473  2023-10-31 14:10:18.136745
1474  2023-10-31 14:10:18.168625
1475  2023-10-31 14:10:18.199577
1476  2023-10-31 14:10:18.248412
1477  2023-10-31 14:10:18.280366
1478  2023-10-31 14:10:18.312241
1479  2023-10-31 14:10:18.344155
1480  2023-10-31 14:10:18.376070
1481  2023-10-31 14:10:18.407985
1482  2023-10-31 14:10:18.439901
1483  2023-10-31 14:10:18.471813
1484  2023-10-31 14:10:18.503729
1485  2023-10-31 14:10:18.536678
1486  2023-10-31 14:10:18.568555
1487  2023-10-31 14:10:18.599501
1488  2023-10-31 14:10:18.648371
1489  2023-10-31 14:10:18.680303
1490  2023-10-31 14:10:18.712171
1491  2023-10-31 14:10:18.744132
1492  2023-10-31 14:10:18.776029
1493  2023-10-31 14:10:18.807946
1494  2023-10-31 14:10:18.839869
1495  2023-10-31 14:10:18.871745
1496  2023-10-31 14:10:18.903659
1497  2023-10-31 14:10:18.935575
1498  2023-10-31 14:10:18.967489
1499  2023-10-31 14:10:18.999405
1500  2023-10-31 14:10:19.048308
1501  2023-10-31 14:10:19.080187
1502  2023-10-31 14:10:19.112101
1503  2023-10-31 14:10:19.144018
1504  2023-10-31 14:10:19.175976
1505  2023-10-31 14:10:19.207854
1506  2023-10-31 14:10:19.239760
1507  2023-10-31 14:10:19.271676
1508  2023-10-31 14:10:19.303617
1509  2023-10-31 14:10:19.335531
1510  2023-10-31 14:10:19.367420
1511  2023-10-31 14:10:19.400332
1512  2023-10-31 14:10:19.448204
1513  2023-10-31 14:10:19.480154
1514  2023-10-31 14:10:19.512032
1515  2023-10-31 14:10:19.543990
1516  2023-10-31 14:10:19.575894
1517  2023-10-31 14:10:19.607813
1518  2023-10-31 14:10:19.640692
1519  2023-10-31 14:10:19.671606
1520  2023-10-31 14:10:19.703549
1521  2023-10-31 14:10:19.736467
1522  2023-10-31 14:10:19.768413
1523  2023-10-31 14:10:19.800262
1524  2023-10-31 14:10:19.848167
1525  2023-10-31 14:10:19.880075
1526  2023-10-31 14:10:19.911998
1527  2023-10-31 14:10:19.943913
1528  2023-10-31 14:10:19.975819
1529  2023-10-31 14:10:20.007761
1530  2023-10-31 14:10:20.039622
1531  2023-10-31 14:10:20.071536
1532  2023-10-31 14:10:20.104450
1533  2023-10-31 14:10:20.136377
1534  2023-10-31 14:10:20.168278
1535  2023-10-31 14:10:20.200192
1536  2023-10-31 14:10:20.248067
1537  2023-10-31 14:10:20.279979
1538  2023-10-31 14:10:20.311907
1539  2023-10-31 14:10:20.343850
1540  2023-10-31 14:10:20.375724
1541  2023-10-31 14:10:20.407639
1542  2023-10-31 14:10:20.439554
1543  2023-10-31 14:10:20.471467
1544  2023-10-31 14:10:20.504381
1545  2023-10-31 14:10:20.536295
1546  2023-10-31 14:10:20.568248
1547  2023-10-31 14:10:20.600124
1548  2023-10-31 14:10:20.648034
1549  2023-10-31 14:10:20.679909
1550  2023-10-31 14:10:20.711825
1551  2023-10-31 14:10:20.743740
1552  2023-10-31 14:10:20.775680
1553  2023-10-31 14:10:20.807569
1554  2023-10-31 14:10:20.839548
1555  2023-10-31 14:10:20.871436
1556  2023-10-31 14:10:20.904345
1557  2023-10-31 14:10:20.936260
1558  2023-10-31 14:10:20.968179
1559  2023-10-31 14:10:21.000092
1560  2023-10-31 14:10:21.047953
1561  2023-10-31 14:10:21.079840
1562  2023-10-31 14:10:21.111755
1563  2023-10-31 14:10:21.143708
1564  2023-10-31 14:10:21.175624
1565  2023-10-31 14:10:21.207527
1566  2023-10-31 14:10:21.239414
1567  2023-10-31 14:10:21.272329
1568  2023-10-31 14:10:21.304242
1569  2023-10-31 14:10:21.336185
1570  2023-10-31 14:10:21.368098
1571  2023-10-31 14:10:21.399990
1572  2023-10-31 14:10:21.447886
1573  2023-10-31 14:10:21.479773
1574  2023-10-31 14:10:21.511727
1575  2023-10-31 14:10:21.543601
1576  2023-10-31 14:10:21.575543
1577  2023-10-31 14:10:21.607464
1578  2023-10-31 14:10:21.640343
1579  2023-10-31 14:10:21.672322
1580  2023-10-31 14:10:21.704172
1581  2023-10-31 14:10:21.736123
1582  2023-10-31 14:10:21.768041
1583  2023-10-31 14:10:21.799915
1584  2023-10-31 14:10:21.847815
1585  2023-10-31 14:10:21.879739
1586  2023-10-31 14:10:21.911660
1587  2023-10-31 14:10:21.944570
1588  2023-10-31 14:10:21.975475
1589  2023-10-31 14:10:22.007416
1590  2023-10-31 14:10:22.040276
1591  2023-10-31 14:10:22.072190
1592  2023-10-31 14:10:22.104104
1593  2023-10-31 14:10:22.136044
1594  2023-10-31 14:10:22.167973
1595  2023-10-31 14:10:22.199897
1596  2023-10-31 14:10:22.247745
1597  2023-10-31 14:10:22.279671
1598  2023-10-31 14:10:22.311575
1599  2023-10-31 14:10:22.343464
1600  2023-10-31 14:10:22.375418
1601  2023-10-31 14:10:22.408323
1602  2023-10-31 14:10:22.440244
1603  2023-10-31 14:10:22.472152
1604  2023-10-31 14:10:22.504035
1605  2023-10-31 14:10:22.535949
1606  2023-10-31 14:10:22.567904
1607  2023-10-31 14:10:22.599834
1608  2023-10-31 14:10:22.647704
1609  2023-10-31 14:10:22.679602
1610  2023-10-31 14:10:22.711479
1611  2023-10-31 14:10:22.743394
1612  2023-10-31 14:10:22.776334
1613  2023-10-31 14:10:22.808256
1614  2023-10-31 14:10:22.840169
1615  2023-10-31 14:10:22.872050
1616  2023-10-31 14:10:22.903966
1617  2023-10-31 14:10:22.935892
1618  2023-10-31 14:10:22.967827
1619  2023-10-31 14:10:22.999746
1620  2023-10-31 14:10:23.047635
1621  2023-10-31 14:10:23.079552
1622  2023-10-31 14:10:23.111411
1623  2023-10-31 14:10:23.144352
1624  2023-10-31 14:10:23.176284
1625  2023-10-31 14:10:23.208179
1626  2023-10-31 14:10:23.240096
1627  2023-10-31 14:10:23.272009
1628  2023-10-31 14:10:23.303924
1629  2023-10-31 14:10:23.335866
1630  2023-10-31 14:10:23.367762
1631  2023-10-31 14:10:23.399638
1632  2023-10-31 14:10:23.447540
1633  2023-10-31 14:10:23.479467
1634  2023-10-31 14:10:23.512339
1635  2023-10-31 14:10:23.544254
1636  2023-10-31 14:10:23.576194
1637  2023-10-31 14:10:23.608108
1638  2023-10-31 14:10:23.640024
1639  2023-10-31 14:10:23.671937
1640  2023-10-31 14:10:23.703827
1641  2023-10-31 14:10:23.735776
1642  2023-10-31 14:10:23.767701
1643  2023-10-31 14:10:23.799599
1644  2023-10-31 14:10:23.847480
1645  2023-10-31 14:10:23.880389
1646  2023-10-31 14:10:23.912269
1647  2023-10-31 14:10:23.944185
1648  2023-10-31 14:10:23.976125
1649  2023-10-31 14:10:24.008046
1650  2023-10-31 14:10:24.039953
1651  2023-10-31 14:10:24.071871
1652  2023-10-31 14:10:24.103784
1653  2023-10-31 14:10:24.135698
1654  2023-10-31 14:10:24.167617
1655  2023-10-31 14:10:24.199529
1656  2023-10-31 14:10:24.247416
1657  2023-10-31 14:10:24.280312
1658  2023-10-31 14:10:24.312200
1659  2023-10-31 14:10:24.344142
1660  2023-10-31 14:10:24.376056
1661  2023-10-31 14:10:24.407978
1662  2023-10-31 14:10:24.439884
1663  2023-10-31 14:10:24.471773
1664  2023-10-31 14:10:24.503738
1665  2023-10-31 14:10:24.535604
1666  2023-10-31 14:10:24.568552
1667  2023-10-31 14:10:24.600456
1668  2023-10-31 14:10:24.648305
1669  2023-10-31 14:10:24.680245
1670  2023-10-31 14:10:24.712162
1671  2023-10-31 14:10:24.744077
1672  2023-10-31 14:10:24.776005
1673  2023-10-31 14:10:24.807876
1674  2023-10-31 14:10:24.839831
1675  2023-10-31 14:10:24.871730
1676  2023-10-31 14:10:24.903652
1677  2023-10-31 14:10:24.935578
1678  2023-10-31 14:10:24.967478
1679  2023-10-31 14:10:25.000398
1680  2023-10-31 14:10:25.048231
1681  2023-10-31 14:10:25.080146
1682  2023-10-31 14:10:25.112092
1683  2023-10-31 14:10:25.144003
1684  2023-10-31 14:10:25.175952
1685  2023-10-31 14:10:25.207837
1686  2023-10-31 14:10:25.239720
1687  2023-10-31 14:10:25.271671
1688  2023-10-31 14:10:25.303550
1689  2023-10-31 14:10:25.335464
1690  2023-10-31 14:10:25.367426
1691  2023-10-31 14:10:25.400291
1692  2023-10-31 14:10:25.448197
1693  2023-10-31 14:10:25.480119
1694  2023-10-31 14:10:25.512030
1695  2023-10-31 14:10:25.543907
1696  2023-10-31 14:10:25.575855
1697  2023-10-31 14:10:25.607768
1698  2023-10-31 14:10:25.639683
1699  2023-10-31 14:10:25.671616
1700  2023-10-31 14:10:25.703480
1701  2023-10-31 14:10:25.736428
1702  2023-10-31 14:10:25.768341
1703  2023-10-31 14:10:25.800222
1704  2023-10-31 14:10:25.848094
1705  2023-10-31 14:10:25.880036
1706  2023-10-31 14:10:25.911949
1707  2023-10-31 14:10:25.943873
1708  2023-10-31 14:10:25.975789
1709  2023-10-31 14:10:26.007696
1710  2023-10-31 14:10:26.039613
1711  2023-10-31 14:10:26.071551
1712  2023-10-31 14:10:26.103439
1713  2023-10-31 14:10:26.136322
1714  2023-10-31 14:10:26.168238
1715  2023-10-31 14:10:26.200178
1716  2023-10-31 14:10:26.248053
1717  2023-10-31 14:10:26.279980
1718  2023-10-31 14:10:26.311881
1719  2023-10-31 14:10:26.343816
1720  2023-10-31 14:10:26.375710
1721  2023-10-31 14:10:26.407623
1722  2023-10-31 14:10:26.439555
1723  2023-10-31 14:10:26.471426
1724  2023-10-31 14:10:26.504373
1725  2023-10-31 14:10:26.536255
1726  2023-10-31 14:10:26.568206
1727  2023-10-31 14:10:26.600115
1728  2023-10-31 14:10:26.648011
1729  2023-10-31 14:10:26.679899
1730  2023-10-31 14:10:26.711835
1731  2023-10-31 14:10:26.743699
1732  2023-10-31 14:10:26.775650
1733  2023-10-31 14:10:26.807569
1734  2023-10-31 14:10:26.839469
1735  2023-10-31 14:10:26.872382
1736  2023-10-31 14:10:26.904300
1737  2023-10-31 14:10:26.936185
1738  2023-10-31 14:10:26.968127
1739  2023-10-31 14:10:27.000045
1740  2023-10-31 14:10:27.047913
1741  2023-10-31 14:10:27.079836
1742  2023-10-31 14:10:27.111757
1743  2023-10-31 14:10:27.143631
1744  2023-10-31 14:10:27.175546
1745  2023-10-31 14:10:27.207458
1746  2023-10-31 14:10:27.239374
1747  2023-10-31 14:10:27.272338
1748  2023-10-31 14:10:27.304201
1749  2023-10-31 14:10:27.336151
1750  2023-10-31 14:10:27.368056
1751  2023-10-31 14:10:27.399944
1752  2023-10-31 14:10:27.447842
1753  2023-10-31 14:10:27.479732
1754  2023-10-31 14:10:27.511673
1755  2023-10-31 14:10:27.543588
1756  2023-10-31 14:10:27.575510
1757  2023-10-31 14:10:27.607389
1758  2023-10-31 14:10:27.640307
1759  2023-10-31 14:10:27.672260
1760  2023-10-31 14:10:27.704160
1761  2023-10-31 14:10:27.736046
1762  2023-10-31 14:10:27.767965
1763  2023-10-31 14:10:27.799922
1764  2023-10-31 14:10:27.847803
1765  2023-10-31 14:10:27.879662
1766  2023-10-31 14:10:27.911580
1767  2023-10-31 14:10:27.943495
1768  2023-10-31 14:10:27.975436
1769  2023-10-31 14:10:28.008370
1770  2023-10-31 14:10:28.040233
1771  2023-10-31 14:10:28.072147
1772  2023-10-31 14:10:28.104100
1773  2023-10-31 14:10:28.136025
1774  2023-10-31 14:10:28.167936
1775  2023-10-31 14:10:28.199806
1776  2023-10-31 14:10:28.247727
1777  2023-10-31 14:10:28.280622
1778  2023-10-31 14:10:28.311535
1779  2023-10-31 14:10:28.343453
1780  2023-10-31 14:10:28.376362
1781  2023-10-31 14:10:28.408287
1782  2023-10-31 14:10:28.440192
1783  2023-10-31 14:10:28.472120
1784  2023-10-31 14:10:28.504056
1785  2023-10-31 14:10:28.535934
1786  2023-10-31 14:10:28.567854
1787  2023-10-31 14:10:28.599741
1788  2023-10-31 14:10:28.647637
1789  2023-10-31 14:10:28.679560
1790  2023-10-31 14:10:28.711470
1791  2023-10-31 14:10:28.743422
1792  2023-10-31 14:10:28.776266
1793  2023-10-31 14:10:28.808227
1794  2023-10-31 14:10:28.840097
1795  2023-10-31 14:10:28.872009
1796  2023-10-31 14:10:28.903959
1797  2023-10-31 14:10:28.935883
1798  2023-10-31 14:10:28.967785
1799  2023-10-31 14:10:28.999703
1800  2023-10-31 14:10:29.047573
1801  2023-10-31 14:10:29.079487
1802  2023-10-31 14:10:29.111426
1803  2023-10-31 14:10:29.144286
1804  2023-10-31 14:10:29.176232
1805  2023-10-31 14:10:29.208139
1806  2023-10-31 14:10:29.240027
1807  2023-10-31 14:10:29.271940
1808  2023-10-31 14:10:29.303891
1809  2023-10-31 14:10:29.335806
1810  2023-10-31 14:10:29.367684
1811  2023-10-31 14:10:29.399603
1812  2023-10-31 14:10:29.447474
1813  2023-10-31 14:10:29.479422
1814  2023-10-31 14:10:29.512358
1815  2023-10-31 14:10:29.544244
1816  2023-10-31 14:10:29.576162
1817  2023-10-31 14:10:29.608078
1818  2023-10-31 14:10:29.639999
1819  2023-10-31 14:10:29.671905
1820  2023-10-31 14:10:29.703814
1821  2023-10-31 14:10:29.735741
1822  2023-10-31 14:10:29.767656
1823  2023-10-31 14:10:29.799555
1824  2023-10-31 14:10:29.847433
1825  2023-10-31 14:10:29.880314
1826  2023-10-31 14:10:29.912265
1827  2023-10-31 14:10:29.944147
1828  2023-10-31 14:10:29.976091
1829  2023-10-31 14:10:30.008014
1830  2023-10-31 14:10:30.039933
1831  2023-10-31 14:10:30.071846
1832  2023-10-31 14:10:30.103743
1833  2023-10-31 14:10:30.135695
1834  2023-10-31 14:10:30.167577
1835  2023-10-31 14:10:30.199497
1836  2023-10-31 14:10:30.248392
1837  2023-10-31 14:10:30.280248
1838  2023-10-31 14:10:30.312185
1839  2023-10-31 14:10:30.344114
1840  2023-10-31 14:10:30.376036
1841  2023-10-31 14:10:30.407907
1842  2023-10-31 14:10:30.439826
1843  2023-10-31 14:10:30.471733
1844  2023-10-31 14:10:30.503679
1845  2023-10-31 14:10:30.535608
1846  2023-10-31 14:10:30.567528
1847  2023-10-31 14:10:30.600387
1848  2023-10-31 14:10:30.648265
1849  2023-10-31 14:10:30.680222
1850  2023-10-31 14:10:30.712122
1851  2023-10-31 14:10:30.744053
1852  2023-10-31 14:10:30.775946
1853  2023-10-31 14:10:30.807896
1854  2023-10-31 14:10:30.839749
1855  2023-10-31 14:10:30.871703
1856  2023-10-31 14:10:30.903618
1857  2023-10-31 14:10:30.935534
1858  2023-10-31 14:10:30.968405
1859  2023-10-31 14:10:31.000319
1860  2023-10-31 14:10:31.048231
1861  2023-10-31 14:10:31.080173
1862  2023-10-31 14:10:31.112019
1863  2023-10-31 14:10:31.143975
1864  2023-10-31 14:10:31.175883
1865  2023-10-31 14:10:31.207830
1866  2023-10-31 14:10:31.239678
1867  2023-10-31 14:10:31.271595
1868  2023-10-31 14:10:31.303575
1869  2023-10-31 14:10:31.335451
1870  2023-10-31 14:10:31.368381
1871  2023-10-31 14:10:31.400302
1872  2023-10-31 14:10:31.448148
1873  2023-10-31 14:10:31.480036
1874  2023-10-31 14:10:31.511984
1875  2023-10-31 14:10:31.543915
1876  2023-10-31 14:10:31.575832
1877  2023-10-31 14:10:31.607724
1878  2023-10-31 14:10:31.639610
1879  2023-10-31 14:10:31.672521
1880  2023-10-31 14:10:31.703473
1881  2023-10-31 14:10:31.736383
1882  2023-10-31 14:10:31.768312
1883  2023-10-31 14:10:31.800215
1884  2023-10-31 14:10:31.848086
1885  2023-10-31 14:10:31.879966
1886  2023-10-31 14:10:31.911922
1887  2023-10-31 14:10:31.943827
1888  2023-10-31 14:10:31.975758
1889  2023-10-31 14:10:32.007662
1890  2023-10-31 14:10:32.039616
1891  2023-10-31 14:10:32.071487
1892  2023-10-31 14:10:32.103406
1893  2023-10-31 14:10:32.136317
1894  2023-10-31 14:10:32.168244
1895  2023-10-31 14:10:32.200112
1896  2023-10-31 14:10:32.248025
1897  2023-10-31 14:10:32.279936
1898  2023-10-31 14:10:32.311840
1899  2023-10-31 14:10:32.343782
1900  2023-10-31 14:10:32.375715
1901  2023-10-31 14:10:32.407594
1902  2023-10-31 14:10:32.439511
1903  2023-10-31 14:10:32.471386
1904  2023-10-31 14:10:32.504353
1905  2023-10-31 14:10:32.536257
1906  2023-10-31 14:10:32.568171
1907  2023-10-31 14:10:32.600041
1908  2023-10-31 14:10:32.647918
1909  2023-10-31 14:10:32.679889
1910  2023-10-31 14:10:32.711809
1911  2023-10-31 14:10:32.743690
1912  2023-10-31 14:10:32.775602
1913  2023-10-31 14:10:32.807528
1914  2023-10-31 14:10:32.839436
1915  2023-10-31 14:10:32.872351
1916  2023-10-31 14:10:32.904273
1917  2023-10-31 14:10:32.936183
1918  2023-10-31 14:10:32.968089
1919  2023-10-31 14:10:33
1920  2023-10-31 14:10:33.047881
1921  2023-10-31 14:10:33.079802
1922  2023-10-31 14:10:33.111674
1923  2023-10-31 14:10:33.143589
1924  2023-10-31 14:10:33.175546
1925  2023-10-31 14:10:33.207455
1926  2023-10-31 14:10:33.240331
1927  2023-10-31 14:10:33.272246
1928  2023-10-31 14:10:33.304193
1929  2023-10-31 14:10:33.336101
1930  2023-10-31 14:10:33.368022
1931  2023-10-31 14:10:33.399903
1932  2023-10-31 14:10:33.447776
1933  2023-10-31 14:10:33.479691
1934  2023-10-31 14:10:33.511638
1935  2023-10-31 14:10:33.543554
1936  2023-10-31 14:10:33.575511
1937  2023-10-31 14:10:33.608383
1938  2023-10-31 14:10:33.640347
1939  2023-10-31 14:10:33.672311
1940  2023-10-31 14:10:33.704176
1941  2023-10-31 14:10:33.736120
1942  2023-10-31 14:10:33.768006
1943  2023-10-31 14:10:33.799950
1944  2023-10-31 14:10:33.847791
1945  2023-10-31 14:10:33.879706
1946  2023-10-31 14:10:33.911620
1947  2023-10-31 14:10:33.943570
1948  2023-10-31 14:10:33.975450
1949  2023-10-31 14:10:34.008362
1950  2023-10-31 14:10:34.040277
1951  2023-10-31 14:10:34.072191
1952  2023-10-31 14:10:34.104136
1953  2023-10-31 14:10:34.136066
1954  2023-10-31 14:10:34.167976
1955  2023-10-31 14:10:34.199882
1956  2023-10-31 14:10:34.247722
1957  2023-10-31 14:10:34.279636
1958  2023-10-31 14:10:34.311552
1959  2023-10-31 14:10:34.344463
1960  2023-10-31 14:10:34.376378
1961  2023-10-31 14:10:34.408293
1962  2023-10-31 14:10:34.440208
1963  2023-10-31 14:10:34.472122
1964  2023-10-31 14:10:34.504037
1965  2023-10-31 14:10:34.535954
1966  2023-10-31 14:10:34.567903
1967  2023-10-31 14:10:34.599809
1968  2023-10-31 14:10:34.647681
1969  2023-10-31 14:10:34.679567
1970  2023-10-31 14:10:34.711482
1971  2023-10-31 14:10:34.743397
1972  2023-10-31 14:10:34.776346
1973  2023-10-31 14:10:34.808223
1974  2023-10-31 14:10:34.840138
1975  2023-10-31 14:10:34.872053
1976  2023-10-31 14:10:34.903995
1977  2023-10-31 14:10:34.935924
1978  2023-10-31 14:10:34.967853
1979  2023-10-31 14:10:34.999738
1980  2023-10-31 14:10:35.047617
1981  2023-10-31 14:10:35.079498
1982  2023-10-31 14:10:35.112410
1983  2023-10-31 14:10:35.144325
1984  2023-10-31 14:10:35.176240
1985  2023-10-31 14:10:35.208154
1986  2023-10-31 14:10:35.240069
1987  2023-10-31 14:10:35.271985
1988  2023-10-31 14:10:35.303898
1989  2023-10-31 14:10:35.335858
1990  2023-10-31 14:10:35.367755
1991  2023-10-31 14:10:35.399679
1992  2023-10-31 14:10:35.447566
1993  2023-10-31 14:10:35.479465
1994  2023-10-31 14:10:35.512342
1995  2023-10-31 14:10:35.544287
1996  2023-10-31 14:10:35.576171
1997  2023-10-31 14:10:35.608115
1998  2023-10-31 14:10:35.640000
1999  2023-10-31 14:10:35.671914
2000  2023-10-31 14:10:35.703860
2001  2023-10-31 14:10:35.735745
2002  2023-10-31 14:10:35.767688
2003  2023-10-31 14:10:35.799613
2004  2023-10-31 14:10:35.847445
2005  2023-10-31 14:10:35.880361
2006  2023-10-31 14:10:35.912313
2007  2023-10-31 14:10:35.944186
2008  2023-10-31 14:10:35.976101
2009  2023-10-31 14:10:36.008016
2010  2023-10-31 14:10:36.039930
2011  2023-10-31 14:10:36.071845
2012  2023-10-31 14:10:36.103800
2013  2023-10-31 14:10:36.135677
2014  2023-10-31 14:10:36.167619
2015  2023-10-31 14:10:36.199545
2016  2023-10-31 14:10:36.248374
2017  2023-10-31 14:10:36.280288
2018  2023-10-31 14:10:36.312203
2019  2023-10-31 14:10:36.344117
2020  2023-10-31 14:10:36.376035
2021  2023-10-31 14:10:36.407947
2022  2023-10-31 14:10:36.439863
2023  2023-10-31 14:10:36.471777
2024  2023-10-31 14:10:36.503749
2025  2023-10-31 14:10:36.535635
2026  2023-10-31 14:10:36.567556
2027  2023-10-31 14:10:36.599478
2028  2023-10-31 14:10:36.648304
2029  2023-10-31 14:10:36.680222
2030  2023-10-31 14:10:36.712133
2031  2023-10-31 14:10:36.744048
2032  2023-10-31 14:10:36.776000
2033  2023-10-31 14:10:36.807913
2034  2023-10-31 14:10:36.839793
2035  2023-10-31 14:10:36.871707
2036  2023-10-31 14:10:36.903657
2037  2023-10-31 14:10:36.935573
2038  2023-10-31 14:10:36.967481
2039  2023-10-31 14:10:36.999421
2040  2023-10-31 14:10:37.048235
2041  2023-10-31 14:10:37.080150
2042  2023-10-31 14:10:37.112064
2043  2023-10-31 14:10:37.143979
2044  2023-10-31 14:10:37.175894
2045  2023-10-31 14:10:37.207808
2046  2023-10-31 14:10:37.239727
2047  2023-10-31 14:10:37.271638
2048  2023-10-31 14:10:37.303592
2049  2023-10-31 14:10:37.335495
2050  2023-10-31 14:10:37.368379
2051  2023-10-31 14:10:37.400330
2052  2023-10-31 14:10:37.448166
2053  2023-10-31 14:10:37.480116
2054  2023-10-31 14:10:37.511995
2055  2023-10-31 14:10:37.543910
2056  2023-10-31 14:10:37.575824
2057  2023-10-31 14:10:37.607774
2058  2023-10-31 14:10:37.639653
2059  2023-10-31 14:10:37.671568
2060  2023-10-31 14:10:37.703524
2061  2023-10-31 14:10:37.736425
2062  2023-10-31 14:10:37.768310
2063  2023-10-31 14:10:37.800255
2064  2023-10-31 14:10:37.848096
2065  2023-10-31 14:10:37.880011
2066  2023-10-31 14:10:37.911926
2067  2023-10-31 14:10:37.943840
2068  2023-10-31 14:10:37.975755
2069  2023-10-31 14:10:38.007670
2070  2023-10-31 14:10:38.039584
2071  2023-10-31 14:10:38.071529
2072  2023-10-31 14:10:38.104457
2073  2023-10-31 14:10:38.136326
2074  2023-10-31 14:10:38.168241
2075  2023-10-31 14:10:38.200183
2076  2023-10-31 14:10:38.248028
2077  2023-10-31 14:10:38.279971
2078  2023-10-31 14:10:38.311888
2079  2023-10-31 14:10:38.343771
2080  2023-10-31 14:10:38.375686
2081  2023-10-31 14:10:38.407600
2082  2023-10-31 14:10:38.439551
2083  2023-10-31 14:10:38.472466
2084  2023-10-31 14:10:38.504342
2085  2023-10-31 14:10:38.536259
2086  2023-10-31 14:10:38.568172
2087  2023-10-31 14:10:38.600091
2088  2023-10-31 14:10:38.647963
2089  2023-10-31 14:10:38.679890
2090  2023-10-31 14:10:38.711851
2091  2023-10-31 14:10:38.743737
2092  2023-10-31 14:10:38.775652
2093  2023-10-31 14:10:38.807598
2094  2023-10-31 14:10:38.840482
2095  2023-10-31 14:10:38.872408
2096  2023-10-31 14:10:38.904301
2097  2023-10-31 14:10:38.936194
2098  2023-10-31 14:10:38.968141
2099  2023-10-31 14:10:39.000045
2100  2023-10-31 14:10:39.047950
2101  2023-10-31 14:10:39.079843
2102  2023-10-31 14:10:39.111723
2103  2023-10-31 14:10:39.143633
2104  2023-10-31 14:10:39.175608
2105  2023-10-31 14:10:39.207537
2106  2023-10-31 14:10:39.240418
2107  2023-10-31 14:10:39.272318
2108  2023-10-31 14:10:39.304233
2109  2023-10-31 14:10:39.336118
2110  2023-10-31 14:10:39.368034
2111  2023-10-31 14:10:39.399977
2112  2023-10-31 14:10:39.447826
2113  2023-10-31 14:10:39.479762
2114  2023-10-31 14:10:39.511686
2115  2023-10-31 14:10:39.543611
2116  2023-10-31 14:10:39.576510
2117  2023-10-31 14:10:39.608395
2118  2023-10-31 14:10:39.640307
2119  2023-10-31 14:10:39.672220
2120  2023-10-31 14:10:39.704185
2121  2023-10-31 14:10:39.736083
2122  2023-10-31 14:10:39.767999
2123  2023-10-31 14:10:39.799921
2124  2023-10-31 14:10:39.847790
2125  2023-10-31 14:10:39.879710
2126  2023-10-31 14:10:39.911644
2127  2023-10-31 14:10:39.943530
2128  2023-10-31 14:10:39.976407
2129  2023-10-31 14:10:40.008382
2130  2023-10-31 14:10:40.040298
2131  2023-10-31 14:10:40.072151
2132  2023-10-31 14:10:40.104066
2133  2023-10-31 14:10:40.136005
2134  2023-10-31 14:10:40.167932
2135  2023-10-31 14:10:40.199847
2136  2023-10-31 14:10:40.247683
2137  2023-10-31 14:10:40.279623
2138  2023-10-31 14:10:40.311512
2139  2023-10-31 14:10:40.343457
2140  2023-10-31 14:10:40.376399
2141  2023-10-31 14:10:40.408256
2142  2023-10-31 14:10:40.440196
2143  2023-10-31 14:10:40.472109
2144  2023-10-31 14:10:40.504041
2145  2023-10-31 14:10:40.535969
2146  2023-10-31 14:10:40.567831
2147  2023-10-31 14:10:40.599776
2148  2023-10-31 14:10:40.647617
2149  2023-10-31 14:10:40.679570
2150  2023-10-31 14:10:40.711443
2151  2023-10-31 14:10:40.744354
2152  2023-10-31 14:10:40.776328
2153  2023-10-31 14:10:40.808218
2154  2023-10-31 14:10:40.840132
2155  2023-10-31 14:10:40.872059
2156  2023-10-31 14:10:40.903955
2157  2023-10-31 14:10:40.935868
2158  2023-10-31 14:10:40.967793
2159  2023-10-31 14:10:40.999703
2160  2023-10-31 14:10:41.047603
2161  2023-10-31 14:10:41.079484
2162  2023-10-31 14:10:41.112407
2163  2023-10-31 14:10:41.144322
2164  2023-10-31 14:10:41.176243
2165  2023-10-31 14:10:41.208158
2166  2023-10-31 14:10:41.240028
2167  2023-10-31 14:10:41.271970
2168  2023-10-31 14:10:41.303898
2169  2023-10-31 14:10:41.335807
2170  2023-10-31 14:10:41.367722
2171  2023-10-31 14:10:41.399637
2172  2023-10-31 14:10:41.448474
2173  2023-10-31 14:10:41.480387
2174  2023-10-31 14:10:41.513298
2175  2023-10-31 14:10:41.544251
2176  2023-10-31 14:10:41.577155
2177  2023-10-31 14:10:41.609070
2178  2023-10-31 14:10:41.640993
2179  2023-10-31 14:10:41.671883
2180  2023-10-31 14:10:41.704845
2181  2023-10-31 14:10:41.736702
2182  2023-10-31 14:10:41.768617
2183  2023-10-31 14:10:41.800569
2184  2023-10-31 14:10:41.848403
2185  2023-10-31 14:10:41.880360
2186  2023-10-31 14:10:41.912276
2187  2023-10-31 14:10:41.945186
2188  2023-10-31 14:10:41.977087
2189  2023-10-31 14:10:42.009022
2190  2023-10-31 14:10:42.040922
2191  2023-10-31 14:10:42.072834
2192  2023-10-31 14:10:42.104744
2193  2023-10-31 14:10:42.136676
2194  2023-10-31 14:10:42.168548
2195  2023-10-31 14:10:42.200462
2196  2023-10-31 14:10:42.248364
2197  2023-10-31 14:10:42.280248
2198  2023-10-31 14:10:42.312189
2199  2023-10-31 14:10:42.345076
2200  2023-10-31 14:10:42.376989
2201  2023-10-31 14:10:42.408910
2202  2023-10-31 14:10:42.440847
2203  2023-10-31 14:10:42.472733
2204  2023-10-31 14:10:42.504677
2205  2023-10-31 14:10:42.536603
2206  2023-10-31 14:10:42.568505
2207  2023-10-31 14:10:42.600393
2208  2023-10-31 14:10:42.648268
2209  2023-10-31 14:10:42.680206
2210  2023-10-31 14:10:42.712093
2211  2023-10-31 14:10:42.744035
2212  2023-10-31 14:10:42.775958
2213  2023-10-31 14:10:42.807839
2214  2023-10-31 14:10:42.839790
2215  2023-10-31 14:10:42.872679
2216  2023-10-31 14:10:42.904606
2217  2023-10-31 14:10:42.936527
2218  2023-10-31 14:10:42.968447
2219  2023-10-31 14:10:43.000376
2220  2023-10-31 14:10:43.048233
2221  2023-10-31 14:10:43.080148
2222  2023-10-31 14:10:43.112060
2223  2023-10-31 14:10:43.143969
2224  2023-10-31 14:10:43.175899
2225  2023-10-31 14:10:43.207810
2226  2023-10-31 14:10:43.239718
2227  2023-10-31 14:10:43.271600
2228  2023-10-31 14:10:43.303514
2229  2023-10-31 14:10:43.335456
2230  2023-10-31 14:10:43.368345
2231  2023-10-31 14:10:43.400292
2232  2023-10-31 14:10:43.448173
2233  2023-10-31 14:10:43.480080
2234  2023-10-31 14:10:43.511990
2235  2023-10-31 14:10:43.543896
2236  2023-10-31 14:10:43.575790
2237  2023-10-31 14:10:43.607726
2238  2023-10-31 14:10:43.639649
2239  2023-10-31 14:10:43.671559
2240  2023-10-31 14:10:43.703444
2241  2023-10-31 14:10:43.736354
2242  2023-10-31 14:10:43.768269
2243  2023-10-31 14:10:43.800231
2244  2023-10-31 14:10:43.848088
2245  2023-10-31 14:10:43.880006
2246  2023-10-31 14:10:43.911921
2247  2023-10-31 14:10:43.943827
2248  2023-10-31 14:10:43.975746
2249  2023-10-31 14:10:44.007630
2250  2023-10-31 14:10:44.039556
2251  2023-10-31 14:10:44.072458
2252  2023-10-31 14:10:44.104371
2253  2023-10-31 14:10:44.136287
2254  2023-10-31 14:10:44.168202
2255  2023-10-31 14:10:44.200117
2256  2023-10-31 14:10:44.248988
2257  2023-10-31 14:10:44.279928
2258  2023-10-31 14:10:44.312815
2259  2023-10-31 14:10:44.344765
2260  2023-10-31 14:10:44.376679
2261  2023-10-31 14:10:44.408558
2262  2023-10-31 14:10:44.439515
2263  2023-10-31 14:10:44.472390
2264  2023-10-31 14:10:44.504332
2265  2023-10-31 14:10:44.536244
2266  2023-10-31 14:10:44.568132
2267  2023-10-31 14:10:44.600054
2268  2023-10-31 14:10:44.648921
2269  2023-10-31 14:10:44.679833
2270  2023-10-31 14:10:44.711748
2271  2023-10-31 14:10:44.744697
2272  2023-10-31 14:10:44.776623
2273  2023-10-31 14:10:44.808491
2274  2023-10-31 14:10:44.839439
2275  2023-10-31 14:10:44.872347
2276  2023-10-31 14:10:44.904238
2277  2023-10-31 14:10:44.936183
2278  2023-10-31 14:10:44.968063
2279  2023-10-31 14:10:45.000016
2280  2023-10-31 14:10:45.047883
2281  2023-10-31 14:10:45.079763
2282  2023-10-31 14:10:45.111713
2283  2023-10-31 14:10:45.144625
2284  2023-10-31 14:10:45.176542
2285  2023-10-31 14:10:45.208457
2286  2023-10-31 14:10:45.239336
2287  2023-10-31 14:10:45.272249
2288  2023-10-31 14:10:45.305194
2289  2023-10-31 14:10:45.336106
2290  2023-10-31 14:10:45.368019
2291  2023-10-31 14:10:45.399944
2292  2023-10-31 14:10:45.447836
2293  2023-10-31 14:10:45.479695
2294  2023-10-31 14:10:45.511668
2295  2023-10-31 14:10:45.544558
2296  2023-10-31 14:10:45.576471
2297  2023-10-31 14:10:45.608393
2298  2023-10-31 14:10:45.640266
2299  2023-10-31 14:10:45.672181
2300  2023-10-31 14:10:45.704100
2301  2023-10-31 14:10:45.736041
2302  2023-10-31 14:10:45.768960
2303  2023-10-31 14:10:45.799877
2304  2023-10-31 14:10:45.847740
2305  2023-10-31 14:10:45.879662
2306  2023-10-31 14:10:45.911586
2307  2023-10-31 14:10:45.943456
2308  2023-10-31 14:10:45.976366
2309  2023-10-31 14:10:46.008326
2310  2023-10-31 14:10:46.040235
2311  2023-10-31 14:10:46.072110
2312  2023-10-31 14:10:46.104062
2313  2023-10-31 14:10:46.135968
2314  2023-10-31 14:10:46.167882
2315  2023-10-31 14:10:46.199769
2316  2023-10-31 14:10:46.247643
2317  2023-10-31 14:10:46.279586
2318  2023-10-31 14:10:46.312469
2319  2023-10-31 14:10:46.344382
2320  2023-10-31 14:10:46.376339
2321  2023-10-31 14:10:46.408253
2322  2023-10-31 14:10:46.440127
2323  2023-10-31 14:10:46.472043
2324  2023-10-31 14:10:46.503986
2325  2023-10-31 14:10:46.535912
2326  2023-10-31 14:10:46.567828
2327  2023-10-31 14:10:46.600745
2328  2023-10-31 14:10:46.648572
2329  2023-10-31 14:10:46.680484
2330  2023-10-31 14:10:46.711440
2331  2023-10-31 14:10:46.744363
2332  2023-10-31 14:10:46.776228
2333  2023-10-31 14:10:46.808143
2334  2023-10-31 14:10:46.840110
2335  2023-10-31 14:10:46.872001
2336  2023-10-31 14:10:46.903887
2337  2023-10-31 14:10:46.935847
2338  2023-10-31 14:10:46.967752
2339  2023-10-31 14:10:46.999659
2340  2023-10-31 14:10:47.047546
2341  2023-10-31 14:10:47.079466
2342  2023-10-31 14:10:47.112360
2343  2023-10-31 14:10:47.144280
2344  2023-10-31 14:10:47.176159
2345  2023-10-31 14:10:47.208074
2346  2023-10-31 14:10:47.239988
2347  2023-10-31 14:10:47.271913
2348  2023-10-31 14:10:47.303823
2349  2023-10-31 14:10:47.335732
2350  2023-10-31 14:10:47.367688
2351  2023-10-31 14:10:47.399562
2352  2023-10-31 14:10:47.447475
2353  2023-10-31 14:10:47.480388
2354  2023-10-31 14:10:47.512327
2355  2023-10-31 14:10:47.544224
2356  2023-10-31 14:10:47.576125
2357  2023-10-31 14:10:47.608004
2358  2023-10-31 14:10:47.640918
2359  2023-10-31 14:10:47.671871
2360  2023-10-31 14:10:47.703752
2361  2023-10-31 14:10:47.735696
2362  2023-10-31 14:10:47.768580
2363  2023-10-31 14:10:47.799493
2364  2023-10-31 14:10:47.848362
2365  2023-10-31 14:10:47.880320
2366  2023-10-31 14:10:47.912226
2367  2023-10-31 14:10:47.944133
2368  2023-10-31 14:10:47.976020
2369  2023-10-31 14:10:48.007979
2370  2023-10-31 14:10:48.039880
2371  2023-10-31 14:10:48.071798
2372  2023-10-31 14:10:48.103684
2373  2023-10-31 14:10:48.135599
2374  2023-10-31 14:10:48.167508
2375  2023-10-31 14:10:48.199453
2376  2023-10-31 14:10:48.248330
2377  2023-10-31 14:10:48.280252
2378  2023-10-31 14:10:48.312163
2379  2023-10-31 14:10:48.344040
2380  2023-10-31 14:10:48.375950
2381  2023-10-31 14:10:48.407865
2382  2023-10-31 14:10:48.439780
2383  2023-10-31 14:10:48.471694
2384  2023-10-31 14:10:48.503641
2385  2023-10-31 14:10:48.535565
2386  2023-10-31 14:10:48.568438
2387  2023-10-31 14:10:48.600399
2388  2023-10-31 14:10:48.648223
2389  2023-10-31 14:10:48.680167
2390  2023-10-31 14:10:48.712086
2391  2023-10-31 14:10:48.743994
2392  2023-10-31 14:10:48.775919
2393  2023-10-31 14:10:48.807798
2394  2023-10-31 14:10:48.839740
2395  2023-10-31 14:10:48.871665
2396  2023-10-31 14:10:48.903570
2397  2023-10-31 14:10:48.935492
2398  2023-10-31 14:10:48.968406
2399  2023-10-31 14:10:49.000286
2400  2023-10-31 14:10:49.048205
2401  2023-10-31 14:10:49.080108
2402  2023-10-31 14:10:49.112012
2403  2023-10-31 14:10:49.143934
2404  2023-10-31 14:10:49.175820
2405  2023-10-31 14:10:49.207736
2406  2023-10-31 14:10:49.239643
2407  2023-10-31 14:10:49.271561
2408  2023-10-31 14:10:49.303472
2409  2023-10-31 14:10:49.336384
2410  2023-10-31 14:10:49.368299
2411  2023-10-31 14:10:49.400250
2412  2023-10-31 14:10:49.448086
2413  2023-10-31 14:10:49.480001
2414  2023-10-31 14:10:49.511946
2415  2023-10-31 14:10:49.543882
2416  2023-10-31 14:10:49.575772
2417  2023-10-31 14:10:49.607686
2418  2023-10-31 14:10:49.640570
2419  2023-10-31 14:10:49.671515
2420  2023-10-31 14:10:49.704401
2421  2023-10-31 14:10:49.736342
2422  2023-10-31 14:10:49.768229
2423  2023-10-31 14:10:49.800211
2424  2023-10-31 14:10:49.848017
2425  2023-10-31 14:10:49.879968
2426  2023-10-31 14:10:49.911845
2427  2023-10-31 14:10:49.943760
2428  2023-10-31 14:10:49.975702
2429  2023-10-31 14:10:50.007615
2430  2023-10-31 14:10:50.039533
2431  2023-10-31 14:10:50.071447
2432  2023-10-31 14:10:50.104331
2433  2023-10-31 14:10:50.136274
2434  2023-10-31 14:10:50.168161
2435  2023-10-31 14:10:50.200074
2436  2023-10-31 14:10:50.247987
2437  2023-10-31 14:10:50.279889
2438  2023-10-31 14:10:50.311827
2439  2023-10-31 14:10:50.343691
2440  2023-10-31 14:10:50.375645
2441  2023-10-31 14:10:50.407563
2442  2023-10-31 14:10:50.439464
2443  2023-10-31 14:10:50.471394
2444  2023-10-31 14:10:50.504262
2445  2023-10-31 14:10:50.536180
2446  2023-10-31 14:10:50.568122
2447  2023-10-31 14:10:50.600046
2448  2023-10-31 14:10:50.647878
2449  2023-10-31 14:10:50.679827
2450  2023-10-31 14:10:50.711736
2451  2023-10-31 14:10:50.743649
2452  2023-10-31 14:10:50.775535
2453  2023-10-31 14:10:50.808450
2454  2023-10-31 14:10:50.840410
2455  2023-10-31 14:10:50.872323
2456  2023-10-31 14:10:50.904197
2457  2023-10-31 14:10:50.936134
2458  2023-10-31 14:10:50.968060
2459  2023-10-31 14:10:50.999982
2460  2023-10-31 14:10:51.047809
2461  2023-10-31 14:10:51.079727
2462  2023-10-31 14:10:51.111641
2463  2023-10-31 14:10:51.143551
2464  2023-10-31 14:10:51.175499
2465  2023-10-31 14:10:51.208420
2466  2023-10-31 14:10:51.240294
2467  2023-10-31 14:10:51.272251
2468  2023-10-31 14:10:51.304123
2469  2023-10-31 14:10:51.336075
2470  2023-10-31 14:10:51.368001
2471  2023-10-31 14:10:51.399910
2472  2023-10-31 14:10:51.447766
2473  2023-10-31 14:10:51.479681
2474  2023-10-31 14:10:51.511608
2475  2023-10-31 14:10:51.543519
2476  2023-10-31 14:10:51.575430
2477  2023-10-31 14:10:51.608310
2478  2023-10-31 14:10:51.640225
2479  2023-10-31 14:10:51.672167
2480  2023-10-31 14:10:51.704055
2481  2023-10-31 14:10:51.736004
2482  2023-10-31 14:10:51.767883
2483  2023-10-31 14:10:51.799832
2484  2023-10-31 14:10:51.847669
2485  2023-10-31 14:10:51.879652
2486  2023-10-31 14:10:51.911538
2487  2023-10-31 14:10:51.944451
2488  2023-10-31 14:10:51.976365
2489  2023-10-31 14:10:52.008240
2490  2023-10-31 14:10:52.040159
2491  2023-10-31 14:10:52.072070
2492  2023-10-31 14:10:52.103984
2493  2023-10-31 14:10:52.135912
2494  2023-10-31 14:10:52.167855
2495  2023-10-31 14:10:52.199733
2496  2023-10-31 14:10:52.247630
2497  2023-10-31 14:10:52.279544
2498  2023-10-31 14:10:52.311460
2499  2023-10-31 14:10:52.344343
2500  2023-10-31 14:10:52.376292
2501  2023-10-31 14:10:52.408171
2502  2023-10-31 14:10:52.440112
2503  2023-10-31 14:10:52.472029
2504  2023-10-31 14:10:52.503943
2505  2023-10-31 14:10:52.535867
2506  2023-10-31 14:10:52.567786
2507  2023-10-31 14:10:52.599688
2508  2023-10-31 14:10:52.648529
2509  2023-10-31 14:10:52.680443
2510  2023-10-31 14:10:52.712391
2511  2023-10-31 14:10:52.744303
2512  2023-10-31 14:10:52.776187
2513  2023-10-31 14:10:52.808101
2514  2023-10-31 14:10:52.840051
2515  2023-10-31 14:10:52.871968
2516  2023-10-31 14:10:52.903898
2517  2023-10-31 14:10:52.935791
2518  2023-10-31 14:10:52.967709
2519  2023-10-31 14:10:52.999591
2520  2023-10-31 14:10:53.047496
2521  2023-10-31 14:10:53.080411
2522  2023-10-31 14:10:53.112289
2523  2023-10-31 14:10:53.144249
2524  2023-10-31 14:10:53.176147
2525  2023-10-31 14:10:53.208059
2526  2023-10-31 14:10:53.239947
2527  2023-10-31 14:10:53.271863
2528  2023-10-31 14:10:53.303808
2529  2023-10-31 14:10:53.335726
2530  2023-10-31 14:10:53.367643
2531  2023-10-31 14:10:53.399521
2532  2023-10-31 14:10:53.447432
2533  2023-10-31 14:10:53.480348
2534  2023-10-31 14:10:53.512259
2535  2023-10-31 14:10:53.544194
2536  2023-10-31 14:10:53.576075
2537  2023-10-31 14:10:53.608000
2538  2023-10-31 14:10:53.640877
2539  2023-10-31 14:10:53.671828
2540  2023-10-31 14:10:53.703737
2541  2023-10-31 14:10:53.735630
2542  2023-10-31 14:10:53.768560
2543  2023-10-31 14:10:53.800495
2544  2023-10-31 14:10:53.848323
2545  2023-10-31 14:10:53.880280
2546  2023-10-31 14:10:53.912180
2547  2023-10-31 14:10:53.944065
2548  2023-10-31 14:10:53.975980
2549  2023-10-31 14:10:54.007933
2550  2023-10-31 14:10:54.039851
2551  2023-10-31 14:10:54.071724
2552  2023-10-31 14:10:54.103668
2553  2023-10-31 14:10:54.135612
2554  2023-10-31 14:10:54.167496
2555  2023-10-31 14:10:54.200427
2556  2023-10-31 14:10:54.248252
2557  2023-10-31 14:10:54.280205
2558  2023-10-31 14:10:54.312118
2559  2023-10-31 14:10:54.344023
2560  2023-10-31 14:10:54.375939
2561  2023-10-31 14:10:54.407830
2562  2023-10-31 14:10:54.439741
2563  2023-10-31 14:10:54.472653
2564  2023-10-31 14:10:54.503598
2565  2023-10-31 14:10:54.535490
2566  2023-10-31 14:10:54.568395
2567  2023-10-31 14:10:54.600310
2568  2023-10-31 14:10:54.648184
2569  2023-10-31 14:10:54.680145
2570  2023-10-31 14:10:54.712042
2571  2023-10-31 14:10:54.743963
2572  2023-10-31 14:10:54.775842
2573  2023-10-31 14:10:54.807783
2574  2023-10-31 14:10:54.839670
2575  2023-10-31 14:10:54.871637
2576  2023-10-31 14:10:54.903501
2577  2023-10-31 14:10:54.935476
2578  2023-10-31 14:10:54.968358
2579  2023-10-31 14:10:55.000275
2580  2023-10-31 14:10:55.048114
2581  2023-10-31 14:10:55.080028
2582  2023-10-31 14:10:55.111979
2583  2023-10-31 14:10:55.143898
2584  2023-10-31 14:10:55.175798
2585  2023-10-31 14:10:55.207715
2586  2023-10-31 14:10:55.239644
2587  2023-10-31 14:10:55.271556
2588  2023-10-31 14:10:55.303468
2589  2023-10-31 14:10:55.336343
2590  2023-10-31 14:10:55.368301
2591  2023-10-31 14:10:55.400210
2592  2023-10-31 14:10:55.448045
2593  2023-10-31 14:10:55.480003
2594  2023-10-31 14:10:55.511915
2595  2023-10-31 14:10:55.543824
2596  2023-10-31 14:10:55.575706
2597  2023-10-31 14:10:55.607652
2598  2023-10-31 14:10:55.640530
2599  2023-10-31 14:10:55.672472
2600  2023-10-31 14:10:55.704391
2601  2023-10-31 14:10:55.736275
2602  2023-10-31 14:10:55.768189
2603  2023-10-31 14:10:55.800130
2604  2023-10-31 14:10:55.847975
2605  2023-10-31 14:10:55.879889
2606  2023-10-31 14:10:55.911863
2607  2023-10-31 14:10:55.943722
2608  2023-10-31 14:10:55.975640
2609  2023-10-31 14:10:56.007599
2610  2023-10-31 14:10:56.039506
2611  2023-10-31 14:10:56.071378
2612  2023-10-31 14:10:56.104294
2613  2023-10-31 14:10:56.136233
2614  2023-10-31 14:10:56.168123
2615  2023-10-31 14:10:56.200040
2616  2023-10-31 14:10:56.247904
2617  2023-10-31 14:10:56.279858
2618  2023-10-31 14:10:56.311734
2619  2023-10-31 14:10:56.343649
2620  2023-10-31 14:10:56.375563
2621  2023-10-31 14:10:56.407478
2622  2023-10-31 14:10:56.439393
2623  2023-10-31 14:10:56.472306
2624  2023-10-31 14:10:56.504219
2625  2023-10-31 14:10:56.536135
2626  2023-10-31 14:10:56.568049
2627  2023-10-31 14:10:56.599965
2628  2023-10-31 14:10:56.647865
2629  2023-10-31 14:10:56.679798
2630  2023-10-31 14:10:56.711700
2631  2023-10-31 14:10:56.743626
2632  2023-10-31 14:10:56.775537
2633  2023-10-31 14:10:56.808406
2634  2023-10-31 14:10:56.840357
2635  2023-10-31 14:10:56.872276
2636  2023-10-31 14:10:56.904151
2637  2023-10-31 14:10:56.936104
2638  2023-10-31 14:10:56.968026
2639  2023-10-31 14:10:56.999933
2640  2023-10-31 14:10:57.047766
2641  2023-10-31 14:10:57.079683
2642  2023-10-31 14:10:57.111622
2643  2023-10-31 14:10:57.143512
2644  2023-10-31 14:10:57.176452
2645  2023-10-31 14:10:57.207373
2646  2023-10-31 14:10:57.240253
2647  2023-10-31 14:10:57.272196
2648  2023-10-31 14:10:57.304103
2649  2023-10-31 14:10:57.336036
2650  2023-10-31 14:10:57.367911
2651  2023-10-31 14:10:57.399866
2652  2023-10-31 14:10:57.447697
2653  2023-10-31 14:10:57.479662
2654  2023-10-31 14:10:57.511558
2655  2023-10-31 14:10:57.543475
2656  2023-10-31 14:10:57.576361
2657  2023-10-31 14:10:57.608269
2658  2023-10-31 14:10:57.640186
2659  2023-10-31 14:10:57.672127
2660  2023-10-31 14:10:57.704053
2661  2023-10-31 14:10:57.735961
2662  2023-10-31 14:10:57.767890
2663  2023-10-31 14:10:57.799788
2664  2023-10-31 14:10:57.847628
2665  2023-10-31 14:10:57.879542
2666  2023-10-31 14:10:57.911507
2667  2023-10-31 14:10:57.944370
2668  2023-10-31 14:10:57.976322
2669  2023-10-31 14:10:58.008243
2670  2023-10-31 14:10:58.040117
2671  2023-10-31 14:10:58.072066
2672  2023-10-31 14:10:58.103945
2673  2023-10-31 14:10:58.135891
2674  2023-10-31 14:10:58.167809
2675  2023-10-31 14:10:58.199714
2676  2023-10-31 14:10:58.247558
2677  2023-10-31 14:10:58.279502
2678  2023-10-31 14:10:58.311417
2679  2023-10-31 14:10:58.344335
2680  2023-10-31 14:10:58.376249
2681  2023-10-31 14:10:58.408130
2682  2023-10-31 14:10:58.440046
2683  2023-10-31 14:10:58.471975
2684  2023-10-31 14:10:58.503909
2685  2023-10-31 14:10:58.535822
2686  2023-10-31 14:10:58.567707
2687  2023-10-31 14:10:58.599653
2688  2023-10-31 14:10:58.647490
2689  2023-10-31 14:10:58.679404
2690  2023-10-31 14:10:58.712349
2691  2023-10-31 14:10:58.744232
2692  2023-10-31 14:10:58.776173
2693  2023-10-31 14:10:58.808100
2694  2023-10-31 14:10:58.840016
2695  2023-10-31 14:10:58.871891
2696  2023-10-31 14:10:58.903831
2697  2023-10-31 14:10:58.936768
2698  2023-10-31 14:10:58.967671
2699  2023-10-31 14:10:58.999577
2700  2023-10-31 14:10:59.047420
2701  2023-10-31 14:10:59.080333
2702  2023-10-31 14:10:59.112283
2703  2023-10-31 14:10:59.144163
2704  2023-10-31 14:10:59.176105
2705  2023-10-31 14:10:59.207995
2706  2023-10-31 14:10:59.239934
2707  2023-10-31 14:10:59.271867
2708  2023-10-31 14:10:59.303781
2709  2023-10-31 14:10:59.335684
2710  2023-10-31 14:10:59.367564
2711  2023-10-31 14:10:59.399480
2712  2023-10-31 14:10:59.447385
2713  2023-10-31 14:10:59.480302
2714  2023-10-31 14:10:59.512182
2715  2023-10-31 14:10:59.544092
2716  2023-10-31 14:10:59.576007
2717  2023-10-31 14:10:59.607960
2718  2023-10-31 14:10:59.639865
2719  2023-10-31 14:10:59.671800
2720  2023-10-31 14:10:59.703701
2721  2023-10-31 14:10:59.735582
2722  2023-10-31 14:10:59.767536
2723  2023-10-31 14:10:59.799442
2724  2023-10-31 14:10:59.848279
2725  2023-10-31 14:10:59.880194
2726  2023-10-31 14:10:59.912137
2727  2023-10-31 14:10:59.944062
2728  2023-10-31 14:10:59.975970
2729  2023-10-31 14:11:00.007854
2730  2023-10-31 14:11:00.039795
2731  2023-10-31 14:11:00.071711
2732  2023-10-31 14:11:00.104596
2733  2023-10-31 14:11:00.135542
2734  2023-10-31 14:11:00.167468
2735  2023-10-31 14:11:00.200358
2736  2023-10-31 14:11:00.248210
2737  2023-10-31 14:11:00.280124
2738  2023-10-31 14:11:00.312041
2739  2023-10-31 14:11:00.343996
2740  2023-10-31 14:11:00.375902
2741  2023-10-31 14:11:00.407812
2742  2023-10-31 14:11:00.439734
2743  2023-10-31 14:11:00.471644
2744  2023-10-31 14:11:00.503557
2745  2023-10-31 14:11:00.535443
2746  2023-10-31 14:11:00.568355
2747  2023-10-31 14:11:00.600271
2748  2023-10-31 14:11:00.648141
2749  2023-10-31 14:11:00.680098
2750  2023-10-31 14:11:00.711998
2751  2023-10-31 14:11:00.743939
2752  2023-10-31 14:11:00.775800
2753  2023-10-31 14:11:00.807743
2754  2023-10-31 14:11:00.839679
2755  2023-10-31 14:11:00.871571
2756  2023-10-31 14:11:00.903505
2757  2023-10-31 14:11:00.935412
2758  2023-10-31 14:11:00.968320
2759  2023-10-31 14:11:01.000247
2760  2023-10-31 14:11:01.048072
2761  2023-10-31 14:11:01.080017
2762  2023-10-31 14:11:01.111902
2763  2023-10-31 14:11:01.143861
2764  2023-10-31 14:11:01.175765
2765  2023-10-31 14:11:01.207685
2766  2023-10-31 14:11:01.239617
2767  2023-10-31 14:11:01.271503
2768  2023-10-31 14:11:01.303435
2769  2023-10-31 14:11:01.336328
2770  2023-10-31 14:11:01.368243
2771  2023-10-31 14:11:01.400158
2772  2023-10-31 14:11:01.448002
2773  2023-10-31 14:11:01.479944
2774  2023-10-31 14:11:01.511837
2775  2023-10-31 14:11:01.543781
2776  2023-10-31 14:11:01.575701
2777  2023-10-31 14:11:01.607603
2778  2023-10-31 14:11:01.640490
2779  2023-10-31 14:11:01.672430
2780  2023-10-31 14:11:01.704355
2781  2023-10-31 14:11:01.736268
2782  2023-10-31 14:11:01.768182
2783  2023-10-31 14:11:01.800092
2784  2023-10-31 14:11:01.847995
2785  2023-10-31 14:11:01.879884
2786  2023-10-31 14:11:01.911767
2787  2023-10-31 14:11:01.943677
2788  2023-10-31 14:11:01.975622
2789  2023-10-31 14:11:02.007536
2790  2023-10-31 14:11:02.039422
2791  2023-10-31 14:11:02.072383
2792  2023-10-31 14:11:02.104248
2793  2023-10-31 14:11:02.136201
2794  2023-10-31 14:11:02.168125
2795  2023-10-31 14:11:02.200037
2796  2023-10-31 14:11:02.247911
2797  2023-10-31 14:11:02.279780
2798  2023-10-31 14:11:02.311741
2799  2023-10-31 14:11:02.343612
2800  2023-10-31 14:11:02.376520
2801  2023-10-31 14:11:02.407443
2802  2023-10-31 14:11:02.440356
2803  2023-10-31 14:11:02.472264
2804  2023-10-31 14:11:02.504206
2805  2023-10-31 14:11:02.536131
2806  2023-10-31 14:11:02.568044
2807  2023-10-31 14:11:02.599924
2808  2023-10-31 14:11:02.647796
2809  2023-10-31 14:11:02.679711
2810  2023-10-31 14:11:02.711652
2811  2023-10-31 14:11:02.743567
2812  2023-10-31 14:11:02.775496
2813  2023-10-31 14:11:02.808433
2814  2023-10-31 14:11:02.840330
2815  2023-10-31 14:11:02.872228
2816  2023-10-31 14:11:02.904140
2817  2023-10-31 14:11:02.936026
2818  2023-10-31 14:11:02.967944
2819  2023-10-31 14:11:02.999854
2820  2023-10-31 14:11:03.047777
2821  2023-10-31 14:11:03.079642
2822  2023-10-31 14:11:03.111590
2823  2023-10-31 14:11:03.143501
2824  2023-10-31 14:11:03.176384
2825  2023-10-31 14:11:03.208330
2826  2023-10-31 14:11:03.240212
2827  2023-10-31 14:11:03.272157
2828  2023-10-31 14:11:03.304088
2829  2023-10-31 14:11:03.335995
2830  2023-10-31 14:11:03.367897
2831  2023-10-31 14:11:03.399823
2832  2023-10-31 14:11:03.447701
2833  2023-10-31 14:11:03.480588
2834  2023-10-31 14:11:03.511490
2835  2023-10-31 14:11:03.544398
2836  2023-10-31 14:11:03.576352
2837  2023-10-31 14:11:03.608256
2838  2023-10-31 14:11:03.640143
2839  2023-10-31 14:11:03.672094
2840  2023-10-31 14:11:03.703998
2841  2023-10-31 14:11:03.735887
2842  2023-10-31 14:11:03.767830
2843  2023-10-31 14:11:03.799744
2844  2023-10-31 14:11:03.847633
2845  2023-10-31 14:11:03.880528
2846  2023-10-31 14:11:03.911451
2847  2023-10-31 14:11:03.944330
2848  2023-10-31 14:11:03.976244
2849  2023-10-31 14:11:04.008188
2850  2023-10-31 14:11:04.040073
2851  2023-10-31 14:11:04.072015
2852  2023-10-31 14:11:04.103902
2853  2023-10-31 14:11:04.135846
2854  2023-10-31 14:11:04.167781
2855  2023-10-31 14:11:04.199647
2856  2023-10-31 14:11:04.247522
2857  2023-10-31 14:11:04.280431
2858  2023-10-31 14:11:04.311386
2859  2023-10-31 14:11:04.344289
2860  2023-10-31 14:11:04.376241
2861  2023-10-31 14:11:04.408089
2862  2023-10-31 14:11:04.440033
2863  2023-10-31 14:11:04.471945
2864  2023-10-31 14:11:04.503869
2865  2023-10-31 14:11:04.535777
2866  2023-10-31 14:11:04.567718
2867  2023-10-31 14:11:04.599578
2868  2023-10-31 14:11:04.647478
2869  2023-10-31 14:11:04.680390
2870  2023-10-31 14:11:04.712316
2871  2023-10-31 14:11:04.744221
2872  2023-10-31 14:11:04.776152
2873  2023-10-31 14:11:04.808064
2874  2023-10-31 14:11:04.839962
2875  2023-10-31 14:11:04.871878
2876  2023-10-31 14:11:04.903793
2877  2023-10-31 14:11:04.935728
2878  2023-10-31 14:11:04.967631
2879  2023-10-31 14:11:04.999555
2880  2023-10-31 14:11:05.047420
2881  2023-10-31 14:11:05.080298
2882  2023-10-31 14:11:05.112210
2883  2023-10-31 14:11:05.144123
2884  2023-10-31 14:11:05.176041
2885  2023-10-31 14:11:05.207985
2886  2023-10-31 14:11:05.239892
2887  2023-10-31 14:11:05.271784
2888  2023-10-31 14:11:05.303735
2889  2023-10-31 14:11:05.335641
2890  2023-10-31 14:11:05.367563
2891  2023-10-31 14:11:05.399468
2892  2023-10-31 14:11:05.448337
2893  2023-10-31 14:11:05.480229
2894  2023-10-31 14:11:05.512167
2895  2023-10-31 14:11:05.544079
2896  2023-10-31 14:11:05.575971
2897  2023-10-31 14:11:05.607927
2898  2023-10-31 14:11:05.639853
2899  2023-10-31 14:11:05.671737
2900  2023-10-31 14:11:05.703626
2901  2023-10-31 14:11:05.735569
2902  2023-10-31 14:11:05.767481
2903  2023-10-31 14:11:05.800405
2904  2023-10-31 14:11:05.848281
2905  2023-10-31 14:11:05.880203
2906  2023-10-31 14:11:05.912103
2907  2023-10-31 14:11:05.943983
2908  2023-10-31 14:11:05.975924
2909  2023-10-31 14:11:06.007840
2910  2023-10-31 14:11:06.039727
2911  2023-10-31 14:11:06.071668
2912  2023-10-31 14:11:06.104555
2913  2023-10-31 14:11:06.135470
2914  2023-10-31 14:11:06.168382
2915  2023-10-31 14:11:06.200298
2916  2023-10-31 14:11:06.248209
2917  2023-10-31 14:11:06.280111
2918  2023-10-31 14:11:06.312003
2919  2023-10-31 14:11:06.343945
2920  2023-10-31 14:11:06.375882
2921  2023-10-31 14:11:06.407769
2922  2023-10-31 14:11:06.439661
2923  2023-10-31 14:11:06.471577
2924  2023-10-31 14:11:06.503514
2925  2023-10-31 14:11:06.536400
2926  2023-10-31 14:11:06.568315
2927  2023-10-31 14:11:06.600229
2928  2023-10-31 14:11:06.648104
2929  2023-10-31 14:11:06.680046
2930  2023-10-31 14:11:06.711957
2931  2023-10-31 14:11:06.743873
2932  2023-10-31 14:11:06.775790
2933  2023-10-31 14:11:06.807709
2934  2023-10-31 14:11:06.839615
2935  2023-10-31 14:11:06.871533
2936  2023-10-31 14:11:06.904416
2937  2023-10-31 14:11:06.936373
2938  2023-10-31 14:11:06.969281
2939  2023-10-31 14:11:07.000203
2940  2023-10-31 14:11:07.048078
2941  2023-10-31 14:11:07.079981
2942  2023-10-31 14:11:07.113856
2943  2023-10-31 14:11:07.145821
2944  2023-10-31 14:11:07.177712
2945  2023-10-31 14:11:07.207633
2946  2023-10-31 14:11:07.241515
2947  2023-10-31 14:11:07.273465
2948  2023-10-31 14:11:07.305380
2949  2023-10-31 14:11:07.337291
2950  2023-10-31 14:11:07.369179
2951  2023-10-31 14:11:07.401093
2952  2023-10-31 14:11:07.449012
2953  2023-10-31 14:11:07.480929
2954  2023-10-31 14:11:07.512789
2955  2023-10-31 14:11:07.544704
2956  2023-10-31 14:11:07.577653
2957  2023-10-31 14:11:07.609562
2958  2023-10-31 14:11:07.641451
2959  2023-10-31 14:11:07.673401
2960  2023-10-31 14:11:07.705305
2961  2023-10-31 14:11:07.737194
2962  2023-10-31 14:11:07.769109
2963  2023-10-31 14:11:07.801032
2964  2023-10-31 14:11:07.848926
2965  2023-10-31 14:11:07.880832
2966  2023-10-31 14:11:07.912751
2967  2023-10-31 14:11:07.944640
2968  2023-10-31 14:11:07.976554
2969  2023-10-31 14:11:08.008463
2970  2023-10-31 14:11:08.040379
2971  2023-10-31 14:11:08.073296
2972  2023-10-31 14:11:08.105234
2973  2023-10-31 14:11:08.137119
2974  2023-10-31 14:11:08.169066
2975  2023-10-31 14:11:08.200949
2976  2023-10-31 14:11:08.248847
2977  2023-10-31 14:11:08.280772
2978  2023-10-31 14:11:08.312651
2979  2023-10-31 14:11:08.344596
2980  2023-10-31 14:11:08.376524
2981  2023-10-31 14:11:08.408420
2982  2023-10-31 14:11:08.440309
2983  2023-10-31 14:11:08.472224
2984  2023-10-31 14:11:08.504191
2985  2023-10-31 14:11:08.536084
2986  2023-10-31 14:11:08.568013
2987  2023-10-31 14:11:08.599938
2988  2023-10-31 14:11:08.648751
2989  2023-10-31 14:11:08.680708
2990  2023-10-31 14:11:08.712621
2991  2023-10-31 14:11:08.744522
2992  2023-10-31 14:11:08.776412
2993  2023-10-31 14:11:08.808324
2994  2023-10-31 14:11:08.840239
2995  2023-10-31 14:11:08.873152
2996  2023-10-31 14:11:08.904110
2997  2023-10-31 14:11:08.935984
2998  2023-10-31 14:11:08.967935
2999  2023-10-31 14:11:08.999814
3000  2023-10-31 14:11:09.048739
3001  2023-10-31 14:11:09.080626
3002  2023-10-31 14:11:09.112541
3003  2023-10-31 14:11:09.144462
3004  2023-10-31 14:11:09.176341
3005  2023-10-31 14:11:09.208286
3006  2023-10-31 14:11:09.240218
3007  2023-10-31 14:11:09.272086
3008  2023-10-31 14:11:09.304037
3009  2023-10-31 14:11:09.335951
3010  2023-10-31 14:11:09.367864
3011  2023-10-31 14:11:09.399771
3012  2023-10-31 14:11:09.447645
3013  2023-10-31 14:11:09.479559
3014  2023-10-31 14:11:09.512446
3015  2023-10-31 14:11:09.543389
3016  2023-10-31 14:11:09.576321
3017  2023-10-31 14:11:09.608213
3018  2023-10-31 14:11:09.640102
3019  2023-10-31 14:11:09.672066
3020  2023-10-31 14:11:09.703960
3021  2023-10-31 14:11:09.735895
3022  2023-10-31 14:11:09.767816
3023  2023-10-31 14:11:09.799717
3024  2023-10-31 14:11:09.847577
3025  2023-10-31 14:11:09.879498
3026  2023-10-31 14:11:09.912375
3027  2023-10-31 14:11:09.944288
3028  2023-10-31 14:11:09.976202
3029  2023-10-31 14:11:10.008117
3030  2023-10-31 14:11:10.040070
3031  2023-10-31 14:11:10.071952
3032  2023-10-31 14:11:10.103867
3033  2023-10-31 14:11:10.137806
3034  2023-10-31 14:11:10.169729
3035  2023-10-31 14:11:10.199649
3036  2023-10-31 14:11:10.249514
3037  2023-10-31 14:11:10.280392
3038  2023-10-31 14:11:10.312304
3039  2023-10-31 14:11:10.345251
3040  2023-10-31 14:11:10.377166
3041  2023-10-31 14:11:10.409107
3042  2023-10-31 14:11:10.440003
3043  2023-10-31 14:11:10.471878
3044  2023-10-31 14:11:10.504818
3045  2023-10-31 14:11:10.537739
3046  2023-10-31 14:11:10.569621
3047  2023-10-31 14:11:10.599535
3048  2023-10-31 14:11:10.648406
3049  2023-10-31 14:11:10.680355
3050  2023-10-31 14:11:10.712271
3051  2023-10-31 14:11:10.745153
3052  2023-10-31 14:11:10.777122
3053  2023-10-31 14:11:10.809005
3054  2023-10-31 14:11:10.839894
3055  2023-10-31 14:11:10.871810
3056  2023-10-31 14:11:10.904757
3057  2023-10-31 14:11:10.936635
3058  2023-10-31 14:11:10.968551
3059  2023-10-31 14:11:10.999518
3060  2023-10-31 14:11:11.048378
3061  2023-10-31 14:11:11.080295
3062  2023-10-31 14:11:11.112205
3063  2023-10-31 14:11:11.145112
3064  2023-10-31 14:11:11.176996
3065  2023-10-31 14:11:11.208913
3066  2023-10-31 14:11:11.239865
3067  2023-10-31 14:11:11.271741
3068  2023-10-31 14:11:11.304687
3069  2023-10-31 14:11:11.336595
3070  2023-10-31 14:11:11.368517
3071  2023-10-31 14:11:11.400423
3072  2023-10-31 14:11:11.448273
3073  2023-10-31 14:11:11.480214
3074  2023-10-31 14:11:11.512127
3075  2023-10-31 14:11:11.544043
3076  2023-10-31 14:11:11.576959
3077  2023-10-31 14:11:11.608878
3078  2023-10-31 14:11:11.639782
3079  2023-10-31 14:11:11.671670
3080  2023-10-31 14:11:11.704627
3081  2023-10-31 14:11:11.736497
3082  2023-10-31 14:11:11.768416
3083  2023-10-31 14:11:11.800368
3084  2023-10-31 14:11:11.848239
3085  2023-10-31 14:11:11.880154
3086  2023-10-31 14:11:11.912054
3087  2023-10-31 14:11:11.945006
3088  2023-10-31 14:11:11.977856
3089  2023-10-31 14:11:12.007800
3090  2023-10-31 14:11:12.039726
3091  2023-10-31 14:11:12.071606
3092  2023-10-31 14:11:12.104513
3093  2023-10-31 14:11:12.136432
3094  2023-10-31 14:11:12.168372
3095  2023-10-31 14:11:12.200285
3096  2023-10-31 14:11:12.248135
3097  2023-10-31 14:11:12.280048
3098  2023-10-31 14:11:12.312009
3099  2023-10-31 14:11:12.343873
3100  2023-10-31 14:11:12.376824
3101  2023-10-31 14:11:12.407756
3102  2023-10-31 14:11:12.439647
3103  2023-10-31 14:11:12.471586
3104  2023-10-31 14:11:12.503495
3105  2023-10-31 14:11:12.536390
3106  2023-10-31 14:11:12.568315
3107  2023-10-31 14:11:12.600187
3108  2023-10-31 14:11:12.648113
3109  2023-10-31 14:11:12.680000
3110  2023-10-31 14:11:12.711926
3111  2023-10-31 14:11:12.743804
3112  2023-10-31 14:11:12.775754
3113  2023-10-31 14:11:12.808636
3114  2023-10-31 14:11:12.840545
3115  2023-10-31 14:11:12.871468
3116  2023-10-31 14:11:12.904374
3117  2023-10-31 14:11:12.936291
3118  2023-10-31 14:11:12.968205
3119  2023-10-31 14:11:13.000146
3120  2023-10-31 14:11:13.048018
3121  2023-10-31 14:11:13.079931
3122  2023-10-31 14:11:13.111847
3123  2023-10-31 14:11:13.143772
3124  2023-10-31 14:11:13.175694
3125  2023-10-31 14:11:13.207607
3126  2023-10-31 14:11:13.239522
3127  2023-10-31 14:11:13.272391
3128  2023-10-31 14:11:13.304307
3129  2023-10-31 14:11:13.336220
3130  2023-10-31 14:11:13.368134
3131  2023-10-31 14:11:13.400050
3132  2023-10-31 14:11:13.447951
3133  2023-10-31 14:11:13.479866
3134  2023-10-31 14:11:13.511799
3135  2023-10-31 14:11:13.543700
3136  2023-10-31 14:11:13.575586
3137  2023-10-31 14:11:13.608493
3138  2023-10-31 14:11:13.640408
3139  2023-10-31 14:11:13.672356
3140  2023-10-31 14:11:13.704264
3141  2023-10-31 14:11:13.736150
3142  2023-10-31 14:11:13.768110
3143  2023-10-31 14:11:13.800024
3144  2023-10-31 14:11:13.847852
3145  2023-10-31 14:11:13.879772
3146  2023-10-31 14:11:13.911710
3147  2023-10-31 14:11:13.943627
3148  2023-10-31 14:11:13.975550
3149  2023-10-31 14:11:14.008423
3150  2023-10-31 14:11:14.040345
3151  2023-10-31 14:11:14.072258
3152  2023-10-31 14:11:14.104203
3153  2023-10-31 14:11:14.136083
3154  2023-10-31 14:11:14.168024
3155  2023-10-31 14:11:14.199946
3156  2023-10-31 14:11:14.247815
3157  2023-10-31 14:11:14.279737
3158  2023-10-31 14:11:14.311660
3159  2023-10-31 14:11:14.344525
3160  2023-10-31 14:11:14.375443
3161  2023-10-31 14:11:14.408412
3162  2023-10-31 14:11:14.440269
3163  2023-10-31 14:11:14.472219
3164  2023-10-31 14:11:14.504133
3165  2023-10-31 14:11:14.536050
3166  2023-10-31 14:11:14.567927
3167  2023-10-31 14:11:14.599842
3168  2023-10-31 14:11:14.647715
3169  2023-10-31 14:11:14.679664
3170  2023-10-31 14:11:14.711580
3171  2023-10-31 14:11:14.743509
3172  2023-10-31 14:11:14.776371
3173  2023-10-31 14:11:14.808284
3174  2023-10-31 14:11:14.840201
3175  2023-10-31 14:11:14.872141
3176  2023-10-31 14:11:14.904035
3177  2023-10-31 14:11:14.935945
3178  2023-10-31 14:11:14.967913
3179  2023-10-31 14:11:14.999816
3180  2023-10-31 14:11:15.047647
3181  2023-10-31 14:11:15.079588
3182  2023-10-31 14:11:15.111516
3183  2023-10-31 14:11:15.144415
3184  2023-10-31 14:11:15.176360
3185  2023-10-31 14:11:15.208252
3186  2023-10-31 14:11:15.240129
3187  2023-10-31 14:11:15.272085
3188  2023-10-31 14:11:15.303959
3189  2023-10-31 14:11:15.335909
3190  2023-10-31 14:11:15.367789
3191  2023-10-31 14:11:15.399731
3192  2023-10-31 14:11:15.447576
3193  2023-10-31 14:11:15.480488
3194  2023-10-31 14:11:15.511405
3195  2023-10-31 14:11:15.544317
3196  2023-10-31 14:11:15.576292
3197  2023-10-31 14:11:15.608148
3198  2023-10-31 14:11:15.640112
3199  2023-10-31 14:11:15.672014
3200  2023-10-31 14:11:15.703934
3201  2023-10-31 14:11:15.735831
3202  2023-10-31 14:11:15.767764
3203  2023-10-31 14:11:15.799669
3204  2023-10-31 14:11:15.847532
3205  2023-10-31 14:11:15.880458
3206  2023-10-31 14:11:15.912372
3207  2023-10-31 14:11:15.944284
3208  2023-10-31 14:11:15.976161
3209  2023-10-31 14:11:16.008079
3210  2023-10-31 14:11:16.039991
3211  2023-10-31 14:11:16.071946
3212  2023-10-31 14:11:16.103878
3213  2023-10-31 14:11:16.135775
3214  2023-10-31 14:11:16.167650
3215  2023-10-31 14:11:16.199607
3216  2023-10-31 14:11:16.247479
3217  2023-10-31 14:11:16.279352
3218  2023-10-31 14:11:16.312264
3219  2023-10-31 14:11:16.344207
3220  2023-10-31 14:11:16.376129
3221  2023-10-31 14:11:16.408012
3222  2023-10-31 14:11:16.439921
3223  2023-10-31 14:11:16.471837
3224  2023-10-31 14:11:16.503784
3225  2023-10-31 14:11:16.535671
3226  2023-10-31 14:11:16.567582
3227  2023-10-31 14:11:16.600493
3228  2023-10-31 14:11:16.648365
3229  2023-10-31 14:11:16.680333
3230  2023-10-31 14:11:16.712225
3231  2023-10-31 14:11:16.744136
3232  2023-10-31 14:11:16.776025
3233  2023-10-31 14:11:16.807965
3234  2023-10-31 14:11:16.839881
3235  2023-10-31 14:11:16.871767
3236  2023-10-31 14:11:16.903684
3237  2023-10-31 14:11:16.935627
3238  2023-10-31 14:11:16.967543
3239  2023-10-31 14:11:16.999492
3240  2023-10-31 14:11:17.048324
3241  2023-10-31 14:11:17.080239
3242  2023-10-31 14:11:17.112170
3243  2023-10-31 14:11:17.144044
3244  2023-10-31 14:11:17.175994
3245  2023-10-31 14:11:17.207869
3246  2023-10-31 14:11:17.239823
3247  2023-10-31 14:11:17.271752
3248  2023-10-31 14:11:17.303676
3249  2023-10-31 14:11:17.335537
3250  2023-10-31 14:11:17.367482
3251  2023-10-31 14:11:17.400360
3252  2023-10-31 14:11:17.448228
3253  2023-10-31 14:11:17.480176
3254  2023-10-31 14:11:17.512058
3255  2023-10-31 14:11:17.544004
3256  2023-10-31 14:11:17.575912
3257  2023-10-31 14:11:17.607801
3258  2023-10-31 14:11:17.639742
3259  2023-10-31 14:11:17.671662
3260  2023-10-31 14:11:17.703598
3261  2023-10-31 14:11:17.735497
3262  2023-10-31 14:11:17.768406
3263  2023-10-31 14:11:17.800328
3264  2023-10-31 14:11:17.848157
3265  2023-10-31 14:11:17.880076
3266  2023-10-31 14:11:17.911988
3267  2023-10-31 14:11:17.943906
3268  2023-10-31 14:11:17.975816
3269  2023-10-31 14:11:18.007770
3270  2023-10-31 14:11:18.039649
3271  2023-10-31 14:11:18.071600
3272  2023-10-31 14:11:18.103475
3273  2023-10-31 14:11:18.136388
3274  2023-10-31 14:11:18.168340
3275  2023-10-31 14:11:18.200247
3276  2023-10-31 14:11:18.248151
3277  2023-10-31 14:11:18.280031
3278  2023-10-31 14:11:18.311945
3279  2023-10-31 14:11:18.343890
3280  2023-10-31 14:11:18.375784
3281  2023-10-31 14:11:18.407688
3282  2023-10-31 14:11:18.440608
3283  2023-10-31 14:11:18.472489
3284  2023-10-31 14:11:18.504431
3285  2023-10-31 14:11:18.536362
3286  2023-10-31 14:11:18.568259
3287  2023-10-31 14:11:18.600176
3288  2023-10-31 14:11:18.648047
3289  2023-10-31 14:11:18.679934
3290  2023-10-31 14:11:18.711851
3291  2023-10-31 14:11:18.743790
3292  2023-10-31 14:11:18.775679
3293  2023-10-31 14:11:18.808591
3294  2023-10-31 14:11:18.840504
3295  2023-10-31 14:11:18.872421
3296  2023-10-31 14:11:18.904376
3297  2023-10-31 14:11:18.936284
3298  2023-10-31 14:11:18.968165
3299  2023-10-31 14:11:19.000115
3300  2023-10-31 14:11:19.047981
3301  2023-10-31 14:11:19.079872
3302  2023-10-31 14:11:19.111780
3303  2023-10-31 14:11:19.143720
3304  2023-10-31 14:11:19.175634
3305  2023-10-31 14:11:19.207562
3306  2023-10-31 14:11:19.240436
3307  2023-10-31 14:11:19.272376
3308  2023-10-31 14:11:19.304321
3309  2023-10-31 14:11:19.336214
3310  2023-10-31 14:11:19.368122
3311  2023-10-31 14:11:19.400044
3312  2023-10-31 14:11:19.447898
3313  2023-10-31 14:11:19.479838
3314  2023-10-31 14:11:19.511757
3315  2023-10-31 14:11:19.543650
3316  2023-10-31 14:11:19.575580
3317  2023-10-31 14:11:19.607498
3318  2023-10-31 14:11:19.640405
3319  2023-10-31 14:11:19.672291
3320  2023-10-31 14:11:19.704225
3321  2023-10-31 14:11:19.736110
3322  2023-10-31 14:11:19.768026
3323  2023-10-31 14:11:19.799980
3324  2023-10-31 14:11:19.847837
3325  2023-10-31 14:11:19.879760
3326  2023-10-31 14:11:19.911693
3327  2023-10-31 14:11:19.943578
3328  2023-10-31 14:11:19.975471
3329  2023-10-31 14:11:20.008386
3330  2023-10-31 14:11:20.040301
3331  2023-10-31 14:11:20.072229
3332  2023-10-31 14:11:20.104154
3333  2023-10-31 14:11:20.136040
3334  2023-10-31 14:11:20.167955
3335  2023-10-31 14:11:20.199900
3336  2023-10-31 14:11:20.247786
3337  2023-10-31 14:11:20.279705
3338  2023-10-31 14:11:20.311607
3339  2023-10-31 14:11:20.344485
3340  2023-10-31 14:11:20.375443
3341  2023-10-31 14:11:20.408315
3342  2023-10-31 14:11:20.440229
3343  2023-10-31 14:11:20.472143
3344  2023-10-31 14:11:20.504086
3345  2023-10-31 14:11:20.535971
3346  2023-10-31 14:11:20.567887
3347  2023-10-31 14:11:20.599852
3348  2023-10-31 14:11:20.647674
3349  2023-10-31 14:11:20.680585
3350  2023-10-31 14:11:20.711533
3351  2023-10-31 14:11:20.743421
3352  2023-10-31 14:11:20.776358
3353  2023-10-31 14:11:20.808273
3354  2023-10-31 14:11:20.840173
3355  2023-10-31 14:11:20.872102
3356  2023-10-31 14:11:20.904020
3357  2023-10-31 14:11:20.935934
3358  2023-10-31 14:11:20.967818
3359  2023-10-31 14:11:20.999758
3360  2023-10-31 14:11:21.047632
3361  2023-10-31 14:11:21.079522
3362  2023-10-31 14:11:21.112432
3363  2023-10-31 14:11:21.144394
3364  2023-10-31 14:11:21.176299
3365  2023-10-31 14:11:21.208175
3366  2023-10-31 14:11:21.240124
3367  2023-10-31 14:11:21.272045
3368  2023-10-31 14:11:21.303959
3369  2023-10-31 14:11:21.335832
3370  2023-10-31 14:11:21.367747
3371  2023-10-31 14:11:21.399663
3372  2023-10-31 14:11:21.447562
3373  2023-10-31 14:11:21.480448
3374  2023-10-31 14:11:21.512405
3375  2023-10-31 14:11:21.544322
3376  2023-10-31 14:11:21.576233
3377  2023-10-31 14:11:21.608149
3378  2023-10-31 14:11:21.640046
3379  2023-10-31 14:11:21.671971
3380  2023-10-31 14:11:21.703885
3381  2023-10-31 14:11:21.735798
3382  2023-10-31 14:11:21.767720
3383  2023-10-31 14:11:21.799621
3384  2023-10-31 14:11:21.847502
3385  2023-10-31 14:11:21.880408
3386  2023-10-31 14:11:21.912331
3387  2023-10-31 14:11:21.944246
3388  2023-10-31 14:11:21.976162
3389  2023-10-31 14:11:22.008081
3390  2023-10-31 14:11:22.039986
3391  2023-10-31 14:11:22.071918
3392  2023-10-31 14:11:22.103809
3393  2023-10-31 14:11:22.135694
3394  2023-10-31 14:11:22.167609
3395  2023-10-31 14:11:22.199528
3396  2023-10-31 14:11:22.247437
3397  2023-10-31 14:11:22.280340
3398  2023-10-31 14:11:22.312268
3399  2023-10-31 14:11:22.344168
3400  2023-10-31 14:11:22.376080
3401  2023-10-31 14:11:22.408000
3402  2023-10-31 14:11:22.439908
3403  2023-10-31 14:11:22.471797
3404  2023-10-31 14:11:22.503711
3405  2023-10-31 14:11:22.535625
3406  2023-10-31 14:11:22.567541
3407  2023-10-31 14:11:22.600490
3408  2023-10-31 14:11:22.648324
3409  2023-10-31 14:11:22.680238
3410  2023-10-31 14:11:22.712153
3411  2023-10-31 14:11:22.744068
3412  2023-10-31 14:11:22.776019
3413  2023-10-31 14:11:22.807912
3414  2023-10-31 14:11:22.839856
3415  2023-10-31 14:11:22.871726
3416  2023-10-31 14:11:22.904666
3417  2023-10-31 14:11:22.935585
3418  2023-10-31 14:11:22.968467
3419  2023-10-31 14:11:23.000386
3420  2023-10-31 14:11:23.048254
3421  2023-10-31 14:11:23.080175
3422  2023-10-31 14:11:23.112090
3423  2023-10-31 14:11:23.144030
3424  2023-10-31 14:11:23.175941
3425  2023-10-31 14:11:23.207828
3426  2023-10-31 14:11:23.239783
3427  2023-10-31 14:11:23.271727
3428  2023-10-31 14:11:23.304569
3429  2023-10-31 14:11:23.335527
3430  2023-10-31 14:11:23.368399
3431  2023-10-31 14:11:23.400315
3432  2023-10-31 14:11:23.448224
3433  2023-10-31 14:11:23.480129
3434  2023-10-31 14:11:23.512066
3435  2023-10-31 14:11:23.543930
3436  2023-10-31 14:11:23.575848
3437  2023-10-31 14:11:23.607760
3438  2023-10-31 14:11:23.640671
3439  2023-10-31 14:11:23.671590
3440  2023-10-31 14:11:23.704502
3441  2023-10-31 14:11:23.735452
3442  2023-10-31 14:11:23.768329
3443  2023-10-31 14:11:23.800243
3444  2023-10-31 14:11:23.848145
3445  2023-10-31 14:11:23.880087
3446  2023-10-31 14:11:23.911985
3447  2023-10-31 14:11:23.943898
3448  2023-10-31 14:11:23.975805
3449  2023-10-31 14:11:24.007719
3450  2023-10-31 14:11:24.040630
3451  2023-10-31 14:11:24.072517
3452  2023-10-31 14:11:24.104432
3453  2023-10-31 14:11:24.136348
3454  2023-10-31 14:11:24.168260
3455  2023-10-31 14:11:24.200175
3456  2023-10-31 14:11:24.248047
3457  2023-10-31 14:11:24.280003
3458  2023-10-31 14:11:24.311880
3459  2023-10-31 14:11:24.343828
3460  2023-10-31 14:11:24.375740
3461  2023-10-31 14:11:24.407650
3462  2023-10-31 14:11:24.440566
3463  2023-10-31 14:11:24.472447
3464  2023-10-31 14:11:24.504363
3465  2023-10-31 14:11:24.536276
3466  2023-10-31 14:11:24.568191
3467  2023-10-31 14:11:24.600105
3468  2023-10-31 14:11:24.647980
3469  2023-10-31 14:11:24.679894
3470  2023-10-31 14:11:24.711811
3471  2023-10-31 14:11:24.743726
3472  2023-10-31 14:11:24.776635
3473  2023-10-31 14:11:24.807551
3474  2023-10-31 14:11:24.839504
3475  2023-10-31 14:11:24.872377
3476  2023-10-31 14:11:24.904329
3477  2023-10-31 14:11:24.936246
3478  2023-10-31 14:11:24.968121
3479  2023-10-31 14:11:25.000036
3480  2023-10-31 14:11:25.047966
3481  2023-10-31 14:11:25.079861
3482  2023-10-31 14:11:25.111783
3483  2023-10-31 14:11:25.143692
3484  2023-10-31 14:11:25.176566
3485  2023-10-31 14:11:25.208480
3486  2023-10-31 14:11:25.239425
3487  2023-10-31 14:11:25.272308
3488  2023-10-31 14:11:25.304222
3489  2023-10-31 14:11:25.336137
3490  2023-10-31 14:11:25.368052
3491  2023-10-31 14:11:25.399970
3492  2023-10-31 14:11:25.447842
3493  2023-10-31 14:11:25.479804
3494  2023-10-31 14:11:25.511695
3495  2023-10-31 14:11:25.543614
3496  2023-10-31 14:11:25.575514
3497  2023-10-31 14:11:25.608410
3498  2023-10-31 14:11:25.640326
3499  2023-10-31 14:11:25.672239
3500  2023-10-31 14:11:25.704156
3501  2023-10-31 14:11:25.736069
3502  2023-10-31 14:11:25.768028
3503  2023-10-31 14:11:25.799905
3504  2023-10-31 14:11:25.847810
3505  2023-10-31 14:11:25.879723
3506  2023-10-31 14:11:25.911635
3507  2023-10-31 14:11:25.944512
3508  2023-10-31 14:11:25.975458
3509  2023-10-31 14:11:26.008386
3510  2023-10-31 14:11:26.040301
3511  2023-10-31 14:11:26.072212
3512  2023-10-31 14:11:26.104109
3513  2023-10-31 14:11:26.136033
3514  2023-10-31 14:11:26.167958
3515  2023-10-31 14:11:26.199870
3516  2023-10-31 14:11:26.247738
3517  2023-10-31 14:11:26.279618
3518  2023-10-31 14:11:26.312570
3519  2023-10-31 14:11:26.344444
3520  2023-10-31 14:11:26.376405
3521  2023-10-31 14:11:26.408286
3522  2023-10-31 14:11:26.440187
3523  2023-10-31 14:11:26.472102
3524  2023-10-31 14:11:26.504017
3525  2023-10-31 14:11:26.535931
3526  2023-10-31 14:11:26.567864
3527  2023-10-31 14:11:26.599762
3528  2023-10-31 14:11:26.648632
3529  2023-10-31 14:11:26.679548
3530  2023-10-31 14:11:26.711465
3531  2023-10-31 14:11:26.743420
3532  2023-10-31 14:11:26.776289
3533  2023-10-31 14:11:26.808202
3534  2023-10-31 14:11:26.840168
3535  2023-10-31 14:11:26.872075
3536  2023-10-31 14:11:26.903975
3537  2023-10-31 14:11:26.935893
3538  2023-10-31 14:11:26.967817
3539  2023-10-31 14:11:26.999734
3540  2023-10-31 14:11:27.047605
3541  2023-10-31 14:11:27.080513
3542  2023-10-31 14:11:27.112417
3543  2023-10-31 14:11:27.144305
3544  2023-10-31 14:11:27.176250
3545  2023-10-31 14:11:27.208134
3546  2023-10-31 14:11:27.240082
3547  2023-10-31 14:11:27.271998
3548  2023-10-31 14:11:27.303918
3549  2023-10-31 14:11:27.335839
3550  2023-10-31 14:11:27.367744
3551  2023-10-31 14:11:27.400622
3552  2023-10-31 14:11:27.447531
3553  2023-10-31 14:11:27.480407
3554  2023-10-31 14:11:27.512321
3555  2023-10-31 14:11:27.544263
3556  2023-10-31 14:11:27.576190
3557  2023-10-31 14:11:27.608066
3558  2023-10-31 14:11:27.639979
3559  2023-10-31 14:11:27.671925
3560  2023-10-31 14:11:27.703810
3561  2023-10-31 14:11:27.735722
3562  2023-10-31 14:11:27.767637
