
1  2023-10-31 09:35:49.327972
2  2023-10-31 09:35:49.359885
3  2023-10-31 09:35:49.391836
4  2023-10-31 09:35:49.423714
5  2023-10-31 09:35:49.455629
6  2023-10-31 09:35:49.487543
7  2023-10-31 09:35:49.520496
8  2023-10-31 09:35:49.568384
9  2023-10-31 09:35:49.600241
10  2023-10-31 09:35:49.632159
11  2023-10-31 09:35:49.664071
12  2023-10-31 09:35:49.695987
13  2023-10-31 09:35:49.727901
14  2023-10-31 09:35:49.759817
15  2023-10-31 09:35:49.791731
16  2023-10-31 09:35:49.823687
17  2023-10-31 09:35:49.855559
18  2023-10-31 09:35:49.887537
19  2023-10-31 09:35:49.920386
20  2023-10-31 09:35:49.968259
21  2023-10-31 09:35:50.000173
22  2023-10-31 09:35:50.032087
23  2023-10-31 09:35:50.064043
24  2023-10-31 09:35:50.095916
25  2023-10-31 09:35:50.127832
26  2023-10-31 09:35:50.160745
27  2023-10-31 09:35:50.191696
28  2023-10-31 09:35:50.223574
29  2023-10-31 09:35:50.255523
30  2023-10-31 09:35:50.287405
31  2023-10-31 09:35:50.320374
32  2023-10-31 09:35:50.368190
33  2023-10-31 09:35:50.400105
34  2023-10-31 09:35:50.432020
35  2023-10-31 09:35:50.463934
36  2023-10-31 09:35:50.495897
37  2023-10-31 09:35:50.527795
38  2023-10-31 09:35:50.559677
39  2023-10-31 09:35:50.591592
40  2023-10-31 09:35:50.623506
41  2023-10-31 09:35:50.656478
42  2023-10-31 09:35:50.688387
43  2023-10-31 09:35:50.720295
44  2023-10-31 09:35:50.768153
45  2023-10-31 09:35:50.801032
46  2023-10-31 09:35:50.831949
47  2023-10-31 09:35:50.863864
48  2023-10-31 09:35:50.907745
49  2023-10-31 09:35:50.927693
50  2023-10-31 09:35:50.960605
51  2023-10-31 09:35:50.991522
52  2023-10-31 09:35:51.024434
53  2023-10-31 09:35:51.056348
54  2023-10-31 09:35:51.088297
55  2023-10-31 09:35:51.120180
56  2023-10-31 09:35:51.168102
57  2023-10-31 09:35:51.200001
58  2023-10-31 09:35:51.231915
59  2023-10-31 09:35:51.263835
60  2023-10-31 09:35:51.295765
61  2023-10-31 09:35:51.327630
62  2023-10-31 09:35:51.360535
63  2023-10-31 09:35:51.391453
64  2023-10-31 09:35:51.423425
65  2023-10-31 09:35:51.456345
66  2023-10-31 09:35:51.488230
67  2023-10-31 09:35:51.520144
68  2023-10-31 09:35:51.568024
69  2023-10-31 09:35:51.599931
70  2023-10-31 09:35:51.631851
71  2023-10-31 09:35:51.663729
72  2023-10-31 09:35:51.695640
73  2023-10-31 09:35:51.727555
74  2023-10-31 09:35:51.759522
75  2023-10-31 09:35:51.792426
76  2023-10-31 09:35:51.824345
77  2023-10-31 09:35:51.856262
78  2023-10-31 09:35:51.888174
79  2023-10-31 09:35:51.920084
80  2023-10-31 09:35:51.967959
81  2023-10-31 09:35:51.999873
82  2023-10-31 09:35:52.031777
83  2023-10-31 09:35:52.063700
84  2023-10-31 09:35:52.095610
85  2023-10-31 09:35:52.127527
86  2023-10-31 09:35:52.160399
87  2023-10-31 09:35:52.192348
88  2023-10-31 09:35:52.224228
89  2023-10-31 09:35:52.256144
90  2023-10-31 09:35:52.288057
91  2023-10-31 09:35:52.319972
92  2023-10-31 09:35:52.367881
93  2023-10-31 09:35:52.399812
94  2023-10-31 09:35:52.431714
95  2023-10-31 09:35:52.464590
96  2023-10-31 09:35:52.496499
97  2023-10-31 09:35:52.527415
98  2023-10-31 09:35:52.560369
99  2023-10-31 09:35:52.592289
100  2023-10-31 09:35:52.624192
101  2023-10-31 09:35:52.656134
102  2023-10-31 09:35:52.688019
103  2023-10-31 09:35:52.719942
104  2023-10-31 09:35:52.767812
105  2023-10-31 09:35:52.799692
106  2023-10-31 09:35:52.831647
107  2023-10-31 09:35:52.863560
108  2023-10-31 09:35:52.895433
109  2023-10-31 09:35:52.927388
110  2023-10-31 09:35:52.960289
111  2023-10-31 09:35:52.992220
112  2023-10-31 09:35:53.024089
113  2023-10-31 09:35:53.056002
114  2023-10-31 09:35:53.087916
115  2023-10-31 09:35:53.119831
116  2023-10-31 09:35:53.168736
117  2023-10-31 09:35:53.199654
118  2023-10-31 09:35:53.231578
119  2023-10-31 09:35:53.263476
120  2023-10-31 09:35:53.296391
121  2023-10-31 09:35:53.328310
122  2023-10-31 09:35:53.360235
123  2023-10-31 09:35:53.392157
124  2023-10-31 09:35:53.424018
125  2023-10-31 09:35:53.455999
126  2023-10-31 09:35:53.487897
127  2023-10-31 09:35:53.519762
128  2023-10-31 09:35:53.567662
129  2023-10-31 09:35:53.599586
130  2023-10-31 09:35:53.631494
131  2023-10-31 09:35:53.664427
132  2023-10-31 09:35:53.696290
133  2023-10-31 09:35:53.728241
134  2023-10-31 09:35:53.760157
135  2023-10-31 09:35:53.792035
136  2023-10-31 09:35:53.823948
137  2023-10-31 09:35:53.855863
138  2023-10-31 09:35:53.887778
139  2023-10-31 09:35:53.919735
140  2023-10-31 09:35:53.967567
141  2023-10-31 09:35:54.000514
142  2023-10-31 09:35:54.032421
143  2023-10-31 09:35:54.064352
144  2023-10-31 09:35:54.096249
145  2023-10-31 09:35:54.128136
146  2023-10-31 09:35:54.160093
147  2023-10-31 09:35:54.192011
148  2023-10-31 09:35:54.223919
149  2023-10-31 09:35:54.255829
150  2023-10-31 09:35:54.287709
151  2023-10-31 09:35:54.319658
152  2023-10-31 09:35:54.368494
153  2023-10-31 09:35:54.399461
154  2023-10-31 09:35:54.431326
155  2023-10-31 09:35:54.464239
156  2023-10-31 09:35:54.496154
157  2023-10-31 09:35:54.528066
158  2023-10-31 09:35:54.559981
159  2023-10-31 09:35:54.591898
160  2023-10-31 09:35:54.623840
161  2023-10-31 09:35:54.655726
162  2023-10-31 09:35:54.687643
163  2023-10-31 09:35:54.719554
164  2023-10-31 09:35:54.767470
165  2023-10-31 09:35:54.800371
166  2023-10-31 09:35:54.832299
167  2023-10-31 09:35:54.864238
168  2023-10-31 09:35:54.896117
169  2023-10-31 09:35:54.928053
170  2023-10-31 09:35:54.959957
171  2023-10-31 09:35:54.991829
172  2023-10-31 09:35:55.023741
173  2023-10-31 09:35:55.055657
174  2023-10-31 09:35:55.087620
175  2023-10-31 09:35:55.119527
176  2023-10-31 09:35:55.168359
177  2023-10-31 09:35:55.200312
178  2023-10-31 09:35:55.232185
179  2023-10-31 09:35:55.264138
180  2023-10-31 09:35:55.296016
181  2023-10-31 09:35:55.327974
182  2023-10-31 09:35:55.359882
183  2023-10-31 09:35:55.391759
184  2023-10-31 09:35:55.423699
185  2023-10-31 09:35:55.456585
186  2023-10-31 09:35:55.488527
187  2023-10-31 09:35:55.519416
188  2023-10-31 09:35:55.568333
189  2023-10-31 09:35:55.600243
190  2023-10-31 09:35:55.632116
191  2023-10-31 09:35:55.664031
192  2023-10-31 09:35:55.695945
193  2023-10-31 09:35:55.727922
194  2023-10-31 09:35:55.759801
195  2023-10-31 09:35:55.792713
196  2023-10-31 09:35:55.823602
197  2023-10-31 09:35:55.855553
198  2023-10-31 09:35:55.887432
199  2023-10-31 09:35:55.920377
200  2023-10-31 09:35:55.968217
201  2023-10-31 09:35:56.000173
202  2023-10-31 09:35:56.032046
203  2023-10-31 09:35:56.088895
204  2023-10-31 09:35:56.095878
205  2023-10-31 09:35:56.127790
206  2023-10-31 09:35:56.159742
207  2023-10-31 09:35:56.191655
208  2023-10-31 09:35:56.223533
209  2023-10-31 09:35:56.255480
210  2023-10-31 09:35:56.288390
211  2023-10-31 09:35:56.320275
212  2023-10-31 09:35:56.368147
213  2023-10-31 09:35:56.400064
214  2023-10-31 09:35:56.431979
215  2023-10-31 09:35:56.463938
216  2023-10-31 09:35:56.495834
217  2023-10-31 09:35:56.527757
218  2023-10-31 09:35:56.559670
219  2023-10-31 09:35:56.591552
220  2023-10-31 09:35:56.623464
221  2023-10-31 09:35:56.656377
222  2023-10-31 09:35:56.688293
223  2023-10-31 09:35:56.720258
224  2023-10-31 09:35:56.768115
225  2023-10-31 09:35:56.799995
226  2023-10-31 09:35:56.831946
227  2023-10-31 09:35:56.863858
228  2023-10-31 09:35:56.895740
229  2023-10-31 09:35:56.927651
230  2023-10-31 09:35:56.959568
231  2023-10-31 09:35:56.991517
232  2023-10-31 09:35:57.023450
233  2023-10-31 09:35:57.056311
234  2023-10-31 09:35:57.088223
235  2023-10-31 09:35:57.120178
236  2023-10-31 09:35:57.168048
237  2023-10-31 09:35:57.199955
238  2023-10-31 09:35:57.231873
239  2023-10-31 09:35:57.263790
240  2023-10-31 09:35:57.296665
241  2023-10-31 09:35:57.327609
242  2023-10-31 09:35:57.359499
243  2023-10-31 09:35:57.391411
244  2023-10-31 09:35:57.424359
245  2023-10-31 09:35:57.456240
246  2023-10-31 09:35:57.488152
247  2023-10-31 09:35:57.520095
248  2023-10-31 09:35:57.567943
249  2023-10-31 09:35:57.599896
250  2023-10-31 09:35:57.631771
251  2023-10-31 09:35:57.663684
252  2023-10-31 09:35:57.695638
253  2023-10-31 09:35:57.727515
254  2023-10-31 09:35:57.759474
255  2023-10-31 09:35:57.792387
256  2023-10-31 09:35:57.824293
257  2023-10-31 09:35:57.856206
258  2023-10-31 09:35:57.888088
259  2023-10-31 09:35:57.920000
260  2023-10-31 09:35:57.967899
261  2023-10-31 09:35:57.999828
262  2023-10-31 09:35:58.031736
263  2023-10-31 09:35:58.063643
264  2023-10-31 09:35:58.095568
265  2023-10-31 09:35:58.127500
266  2023-10-31 09:35:58.160394
267  2023-10-31 09:35:58.192272
268  2023-10-31 09:35:58.224186
269  2023-10-31 09:35:58.256138
270  2023-10-31 09:35:58.288044
271  2023-10-31 09:35:58.319930
272  2023-10-31 09:35:58.367803
273  2023-10-31 09:35:58.399752
274  2023-10-31 09:35:58.431633
275  2023-10-31 09:35:58.463546
276  2023-10-31 09:35:58.495486
277  2023-10-31 09:35:58.527377
278  2023-10-31 09:35:58.560318
279  2023-10-31 09:35:58.592201
280  2023-10-31 09:35:58.624142
281  2023-10-31 09:35:58.656062
282  2023-10-31 09:35:58.687972
283  2023-10-31 09:35:58.719902
284  2023-10-31 09:35:58.767772
285  2023-10-31 09:35:58.799649
286  2023-10-31 09:35:58.831600
287  2023-10-31 09:35:58.863477
288  2023-10-31 09:35:58.896434
289  2023-10-31 09:35:58.928304
290  2023-10-31 09:35:58.960219
291  2023-10-31 09:35:58.992134
292  2023-10-31 09:35:59.024048
293  2023-10-31 09:35:59.056007
294  2023-10-31 09:35:59.087878
295  2023-10-31 09:35:59.119793
296  2023-10-31 09:35:59.168661
297  2023-10-31 09:35:59.199580
298  2023-10-31 09:35:59.231493
299  2023-10-31 09:35:59.263433
300  2023-10-31 09:35:59.296322
301  2023-10-31 09:35:59.328263
302  2023-10-31 09:35:59.360149
303  2023-10-31 09:35:59.392064
304  2023-10-31 09:35:59.424007
305  2023-10-31 09:35:59.455927
306  2023-10-31 09:35:59.487808
307  2023-10-31 09:35:59.519748
308  2023-10-31 09:35:59.567628
309  2023-10-31 09:35:59.599511
310  2023-10-31 09:35:59.632423
311  2023-10-31 09:35:59.663365
312  2023-10-31 09:35:59.696301
313  2023-10-31 09:35:59.728192
314  2023-10-31 09:35:59.760080
315  2023-10-31 09:35:59.792002
316  2023-10-31 09:35:59.823935
317  2023-10-31 09:35:59.855850
318  2023-10-31 09:35:59.887765
319  2023-10-31 09:35:59.919653
320  2023-10-31 09:35:59.967572
321  2023-10-31 09:35:59.999481
322  2023-10-31 09:36:00.032352
323  2023-10-31 09:36:00.064267
324  2023-10-31 09:36:00.096183
325  2023-10-31 09:36:00.128097
326  2023-10-31 09:36:00.160013
327  2023-10-31 09:36:00.191928
328  2023-10-31 09:36:00.223840
329  2023-10-31 09:36:00.255756
330  2023-10-31 09:36:00.288667
331  2023-10-31 09:36:00.319583
332  2023-10-31 09:36:00.368453
333  2023-10-31 09:36:00.400368
334  2023-10-31 09:36:00.432283
335  2023-10-31 09:36:00.464198
336  2023-10-31 09:36:00.496111
337  2023-10-31 09:36:00.528027
338  2023-10-31 09:36:00.559941
339  2023-10-31 09:36:00.591857
340  2023-10-31 09:36:00.623803
341  2023-10-31 09:36:00.655722
342  2023-10-31 09:36:00.687636
343  2023-10-31 09:36:00.719543
344  2023-10-31 09:36:00.768385
345  2023-10-31 09:36:00.800299
346  2023-10-31 09:36:00.832266
347  2023-10-31 09:36:00.864132
348  2023-10-31 09:36:00.896045
349  2023-10-31 09:36:00.927959
350  2023-10-31 09:36:00.959872
351  2023-10-31 09:36:00.991787
352  2023-10-31 09:36:01.023701
353  2023-10-31 09:36:01.055616
354  2023-10-31 09:36:01.087532
355  2023-10-31 09:36:01.120445
356  2023-10-31 09:36:01.372775
357  2023-10-31 09:36:01.391720
358  2023-10-31 09:36:01.423633
359  2023-10-31 09:36:01.455548
360  2023-10-31 09:36:01.487466
361  2023-10-31 09:36:01.520375
362  2023-10-31 09:36:01.568290
363  2023-10-31 09:36:01.600161
364  2023-10-31 09:36:01.632076
365  2023-10-31 09:36:01.663991
366  2023-10-31 09:36:01.695905
367  2023-10-31 09:36:01.727820
368  2023-10-31 09:36:01.759734
369  2023-10-31 09:36:01.791649
370  2023-10-31 09:36:01.824560
371  2023-10-31 09:36:01.855478
372  2023-10-31 09:36:01.888390
373  2023-10-31 09:36:01.920304
374  2023-10-31 09:36:01.968203
375  2023-10-31 09:36:02.000129
376  2023-10-31 09:36:02.032007
377  2023-10-31 09:36:02.063946
378  2023-10-31 09:36:02.095876
379  2023-10-31 09:36:02.127750
380  2023-10-31 09:36:02.159666
381  2023-10-31 09:36:02.191578
382  2023-10-31 09:36:02.223494
383  2023-10-31 09:36:02.256451
384  2023-10-31 09:36:02.288322
385  2023-10-31 09:36:02.320235
386  2023-10-31 09:36:02.368108
387  2023-10-31 09:36:02.400066
388  2023-10-31 09:36:02.431939
389  2023-10-31 09:36:02.463913
390  2023-10-31 09:36:02.495810
391  2023-10-31 09:36:02.527682
392  2023-10-31 09:36:02.559595
393  2023-10-31 09:36:02.591550
394  2023-10-31 09:36:02.623473
395  2023-10-31 09:36:02.656336
396  2023-10-31 09:36:02.688251
397  2023-10-31 09:36:02.720166
398  2023-10-31 09:36:02.768039
399  2023-10-31 09:36:02.799984
400  2023-10-31 09:36:02.831907
401  2023-10-31 09:36:02.863808
402  2023-10-31 09:36:02.895726
403  2023-10-31 09:36:02.927612
404  2023-10-31 09:36:02.959526
405  2023-10-31 09:36:02.992439
406  2023-10-31 09:36:03.024405
407  2023-10-31 09:36:03.056322
408  2023-10-31 09:36:03.088219
409  2023-10-31 09:36:03.120096
410  2023-10-31 09:36:03.167970
411  2023-10-31 09:36:03.199929
412  2023-10-31 09:36:03.231826
413  2023-10-31 09:36:03.263713
414  2023-10-31 09:36:03.295661
415  2023-10-31 09:36:03.328540
416  2023-10-31 09:36:03.359456
417  2023-10-31 09:36:03.391417
418  2023-10-31 09:36:03.424284
419  2023-10-31 09:36:03.456198
420  2023-10-31 09:36:03.488146
421  2023-10-31 09:36:03.520078
422  2023-10-31 09:36:03.567931
423  2023-10-31 09:36:03.599813
424  2023-10-31 09:36:03.631729
425  2023-10-31 09:36:03.663673
426  2023-10-31 09:36:03.695585
427  2023-10-31 09:36:03.727473
428  2023-10-31 09:36:03.760385
429  2023-10-31 09:36:03.792341
430  2023-10-31 09:36:03.824248
431  2023-10-31 09:36:03.856186
432  2023-10-31 09:36:03.888087
433  2023-10-31 09:36:03.919995
434  2023-10-31 09:36:03.967875
435  2023-10-31 09:36:03.999782
436  2023-10-31 09:36:04.031704
437  2023-10-31 09:36:04.063606
438  2023-10-31 09:36:04.095494
439  2023-10-31 09:36:04.127457
440  2023-10-31 09:36:04.160352
441  2023-10-31 09:36:04.192273
442  2023-10-31 09:36:04.224192
443  2023-10-31 09:36:04.256104
444  2023-10-31 09:36:04.288006
445  2023-10-31 09:36:04.319945
446  2023-10-31 09:36:04.367762
447  2023-10-31 09:36:04.399715
448  2023-10-31 09:36:04.431626
449  2023-10-31 09:36:04.463542
450  2023-10-31 09:36:04.495449
451  2023-10-31 09:36:04.527387
452  2023-10-31 09:36:04.560283
453  2023-10-31 09:36:04.592162
454  2023-10-31 09:36:04.624078
455  2023-10-31 09:36:04.656024
456  2023-10-31 09:36:04.687954
457  2023-10-31 09:36:04.719853
458  2023-10-31 09:36:04.767761
459  2023-10-31 09:36:04.799660
460  2023-10-31 09:36:04.832520
461  2023-10-31 09:36:04.863437
462  2023-10-31 09:36:04.896386
463  2023-10-31 09:36:04.928264
464  2023-10-31 09:36:04.960177
465  2023-10-31 09:36:04.992128
466  2023-10-31 09:36:05.024047
467  2023-10-31 09:36:05.055955
468  2023-10-31 09:36:05.087836
469  2023-10-31 09:36:05.119799
470  2023-10-31 09:36:05.167622
471  2023-10-31 09:36:05.199576
472  2023-10-31 09:36:05.232484
473  2023-10-31 09:36:05.315229
474  2023-10-31 09:36:05.328192
475  2023-10-31 09:36:05.360107
476  2023-10-31 09:36:05.392024
477  2023-10-31 09:36:05.423963
478  2023-10-31 09:36:05.455877
479  2023-10-31 09:36:05.487801
480  2023-10-31 09:36:05.519722
481  2023-10-31 09:36:05.567554
482  2023-10-31 09:36:05.599523
483  2023-10-31 09:36:05.632380
484  2023-10-31 09:36:05.664331
485  2023-10-31 09:36:05.696255
486  2023-10-31 09:36:05.728162
487  2023-10-31 09:36:05.760038
488  2023-10-31 09:36:05.791954
489  2023-10-31 09:36:05.823868
490  2023-10-31 09:36:05.855811
491  2023-10-31 09:36:05.887724
492  2023-10-31 09:36:05.919612
493  2023-10-31 09:36:05.967513
494  2023-10-31 09:36:05.999399
495  2023-10-31 09:36:06.032346
496  2023-10-31 09:36:06.064261
497  2023-10-31 09:36:06.096169
498  2023-10-31 09:36:06.128056
499  2023-10-31 09:36:06.159995
500  2023-10-31 09:36:06.191923
501  2023-10-31 09:36:06.223846
502  2023-10-31 09:36:06.255743
503  2023-10-31 09:36:06.287682
504  2023-10-31 09:36:06.319593
505  2023-10-31 09:36:06.367414
506  2023-10-31 09:36:06.400376
507  2023-10-31 09:36:06.432243
508  2023-10-31 09:36:06.464188
509  2023-10-31 09:36:06.496115
510  2023-10-31 09:36:06.528026
511  2023-10-31 09:36:06.559943
512  2023-10-31 09:36:06.591856
513  2023-10-31 09:36:06.623770
514  2023-10-31 09:36:06.655693
515  2023-10-31 09:36:06.687605
516  2023-10-31 09:36:06.719502
517  2023-10-31 09:36:06.768355
518  2023-10-31 09:36:06.800294
519  2023-10-31 09:36:06.832216
520  2023-10-31 09:36:06.864127
521  2023-10-31 09:36:06.896034
522  2023-10-31 09:36:06.927974
523  2023-10-31 09:36:06.959833
524  2023-10-31 09:36:06.991746
525  2023-10-31 09:36:07.023707
526  2023-10-31 09:36:07.055610
527  2023-10-31 09:36:07.088516
528  2023-10-31 09:36:07.120430
529  2023-10-31 09:36:07.168321
530  2023-10-31 09:36:07.200227
531  2023-10-31 09:36:07.232130
532  2023-10-31 09:36:07.264067
533  2023-10-31 09:36:07.295989
534  2023-10-31 09:36:07.327897
535  2023-10-31 09:36:07.359797
536  2023-10-31 09:36:07.391718
537  2023-10-31 09:36:07.423620
538  2023-10-31 09:36:07.455534
539  2023-10-31 09:36:07.488419
540  2023-10-31 09:36:07.520378
541  2023-10-31 09:36:07.568244
542  2023-10-31 09:36:07.600152
543  2023-10-31 09:36:07.632071
544  2023-10-31 09:36:07.663988
545  2023-10-31 09:36:07.695864
546  2023-10-31 09:36:07.727779
547  2023-10-31 09:36:07.759737
548  2023-10-31 09:36:07.791653
549  2023-10-31 09:36:07.824520
550  2023-10-31 09:36:07.855471
551  2023-10-31 09:36:07.888385
552  2023-10-31 09:36:07.920265
553  2023-10-31 09:36:07.968162
554  2023-10-31 09:36:08.000088
555  2023-10-31 09:36:08.031991
556  2023-10-31 09:36:08.063881
557  2023-10-31 09:36:08.095844
558  2023-10-31 09:36:08.127743
559  2023-10-31 09:36:08.159666
560  2023-10-31 09:36:08.191580
561  2023-10-31 09:36:08.223494
562  2023-10-31 09:36:08.256364
563  2023-10-31 09:36:08.288308
564  2023-10-31 09:36:08.320267
565  2023-10-31 09:36:08.368067
566  2023-10-31 09:36:08.400025
567  2023-10-31 09:36:08.431930
568  2023-10-31 09:36:08.463852
569  2023-10-31 09:36:08.495762
570  2023-10-31 09:36:08.527674
571  2023-10-31 09:36:08.559598
572  2023-10-31 09:36:08.591469
573  2023-10-31 09:36:08.624387
574  2023-10-31 09:36:08.656342
575  2023-10-31 09:36:08.688245
576  2023-10-31 09:36:08.720173
577  2023-10-31 09:36:08.767997
578  2023-10-31 09:36:08.799962
579  2023-10-31 09:36:08.831863
580  2023-10-31 09:36:08.863778
581  2023-10-31 09:36:08.895682
582  2023-10-31 09:36:08.927570
583  2023-10-31 09:36:08.959529
584  2023-10-31 09:36:08.991464
585  2023-10-31 09:36:09.024358
586  2023-10-31 09:36:09.056252
587  2023-10-31 09:36:09.088142
588  2023-10-31 09:36:09.120056
589  2023-10-31 09:36:09.167927
590  2023-10-31 09:36:09.199881
591  2023-10-31 09:36:09.231806
592  2023-10-31 09:36:09.263699
593  2023-10-31 09:36:09.295621
594  2023-10-31 09:36:09.327546
595  2023-10-31 09:36:09.359451
596  2023-10-31 09:36:09.392383
597  2023-10-31 09:36:09.424244
598  2023-10-31 09:36:09.456192
599  2023-10-31 09:36:09.488107
600  2023-10-31 09:36:09.520039
601  2023-10-31 09:36:09.567858
602  2023-10-31 09:36:09.599774
603  2023-10-31 09:36:09.631715
604  2023-10-31 09:36:09.663604
605  2023-10-31 09:36:09.695558
606  2023-10-31 09:36:09.727474
607  2023-10-31 09:36:09.760377
608  2023-10-31 09:36:09.792324
609  2023-10-31 09:36:09.824211
610  2023-10-31 09:36:09.856119
611  2023-10-31 09:36:09.888003
612  2023-10-31 09:36:09.919966
613  2023-10-31 09:36:09.967790
614  2023-10-31 09:36:09.999704
615  2023-10-31 09:36:10.031655
616  2023-10-31 09:36:10.063535
617  2023-10-31 09:36:10.095482
618  2023-10-31 09:36:10.128398
619  2023-10-31 09:36:10.160319
620  2023-10-31 09:36:10.192237
621  2023-10-31 09:36:10.224153
622  2023-10-31 09:36:10.256022
623  2023-10-31 09:36:10.287975
624  2023-10-31 09:36:10.319849
625  2023-10-31 09:36:10.367722
626  2023-10-31 09:36:10.399673
627  2023-10-31 09:36:10.431588
628  2023-10-31 09:36:10.463463
629  2023-10-31 09:36:10.495422
630  2023-10-31 09:36:10.528291
631  2023-10-31 09:36:10.560243
632  2023-10-31 09:36:10.592153
633  2023-10-31 09:36:10.624073
634  2023-10-31 09:36:10.656015
635  2023-10-31 09:36:10.687908
636  2023-10-31 09:36:10.719813
637  2023-10-31 09:36:10.767691
638  2023-10-31 09:36:10.799595
639  2023-10-31 09:36:10.832507
640  2023-10-31 09:36:10.863396
641  2023-10-31 09:36:10.896352
642  2023-10-31 09:36:10.928225
643  2023-10-31 09:36:10.960179
644  2023-10-31 09:36:10.992088
645  2023-10-31 09:36:11.023966
646  2023-10-31 09:36:11.055923
647  2023-10-31 09:36:11.087845
648  2023-10-31 09:36:11.119759
649  2023-10-31 09:36:11.167617
650  2023-10-31 09:36:11.200537
651  2023-10-31 09:36:11.232443
652  2023-10-31 09:36:11.264364
653  2023-10-31 09:36:11.296237
654  2023-10-31 09:36:11.328165
655  2023-10-31 09:36:11.360107
656  2023-10-31 09:36:11.392020
657  2023-10-31 09:36:11.423925
658  2023-10-31 09:36:11.455844
659  2023-10-31 09:36:11.487766
660  2023-10-31 09:36:11.519676
661  2023-10-31 09:36:11.567554
662  2023-10-31 09:36:11.599456
663  2023-10-31 09:36:11.632377
664  2023-10-31 09:36:11.664290
665  2023-10-31 09:36:11.696217
666  2023-10-31 09:36:11.728124
667  2023-10-31 09:36:11.760036
668  2023-10-31 09:36:11.791964
669  2023-10-31 09:36:11.823871
670  2023-10-31 09:36:11.855742
671  2023-10-31 09:36:11.887691
672  2023-10-31 09:36:11.919606
673  2023-10-31 09:36:11.967474
674  2023-10-31 09:36:12.000383
675  2023-10-31 09:36:12.032310
676  2023-10-31 09:36:12.064220
677  2023-10-31 09:36:12.096147
678  2023-10-31 09:36:12.128053
679  2023-10-31 09:36:12.159970
680  2023-10-31 09:36:12.191873
681  2023-10-31 09:36:12.223808
682  2023-10-31 09:36:12.255674
683  2023-10-31 09:36:12.287589
684  2023-10-31 09:36:12.319537
685  2023-10-31 09:36:12.368429
686  2023-10-31 09:36:12.400336
687  2023-10-31 09:36:12.432227
688  2023-10-31 09:36:12.464114
689  2023-10-31 09:36:12.496058
690  2023-10-31 09:36:12.528001
691  2023-10-31 09:36:12.559907
692  2023-10-31 09:36:12.654629
693  2023-10-31 09:36:12.660590
694  2023-10-31 09:36:12.688553
695  2023-10-31 09:36:12.719466
696  2023-10-31 09:36:12.768349
697  2023-10-31 09:36:12.800274
698  2023-10-31 09:36:12.832159
699  2023-10-31 09:36:12.864097
700  2023-10-31 09:36:12.895994
701  2023-10-31 09:36:12.927932
702  2023-10-31 09:36:12.959823
703  2023-10-31 09:36:12.991740
704  2023-10-31 09:36:13.023683
705  2023-10-31 09:36:13.055569
706  2023-10-31 09:36:13.087488
707  2023-10-31 09:36:13.120361
708  2023-10-31 09:36:13.168269
709  2023-10-31 09:36:13.200174
710  2023-10-31 09:36:13.232095
711  2023-10-31 09:36:13.263976
712  2023-10-31 09:36:13.295890
713  2023-10-31 09:36:13.327806
714  2023-10-31 09:36:13.359720
715  2023-10-31 09:36:13.391634
716  2023-10-31 09:36:13.423550
717  2023-10-31 09:36:13.456488
718  2023-10-31 09:36:13.488376
719  2023-10-31 09:36:13.520291
720  2023-10-31 09:36:13.568191
721  2023-10-31 09:36:13.600131
722  2023-10-31 09:36:13.632021
723  2023-10-31 09:36:13.663959
724  2023-10-31 09:36:13.695821
725  2023-10-31 09:36:13.727736
726  2023-10-31 09:36:13.759650
727  2023-10-31 09:36:13.791596
728  2023-10-31 09:36:13.823480
729  2023-10-31 09:36:13.856392
730  2023-10-31 09:36:13.888307
731  2023-10-31 09:36:13.920221
732  2023-10-31 09:36:13.968130
733  2023-10-31 09:36:14.000008
734  2023-10-31 09:36:14.031923
735  2023-10-31 09:36:14.063837
736  2023-10-31 09:36:14.095752
737  2023-10-31 09:36:14.127667
738  2023-10-31 09:36:14.159582
739  2023-10-31 09:36:14.192494
740  2023-10-31 09:36:14.224408
741  2023-10-31 09:36:14.256323
742  2023-10-31 09:36:14.288237
743  2023-10-31 09:36:14.320153
744  2023-10-31 09:36:14.368053
745  2023-10-31 09:36:14.399939
746  2023-10-31 09:36:14.431854
747  2023-10-31 09:36:14.463771
748  2023-10-31 09:36:14.496682
749  2023-10-31 09:36:14.527598
750  2023-10-31 09:36:14.559512
751  2023-10-31 09:36:14.592425
752  2023-10-31 09:36:14.624341
753  2023-10-31 09:36:14.656254
754  2023-10-31 09:36:14.688170
755  2023-10-31 09:36:14.720083
756  2023-10-31 09:36:14.767955
757  2023-10-31 09:36:14.799870
758  2023-10-31 09:36:14.831784
759  2023-10-31 09:36:14.863700
760  2023-10-31 09:36:14.896612
761  2023-10-31 09:36:14.928527
762  2023-10-31 09:36:14.960441
763  2023-10-31 09:36:14.992357
764  2023-10-31 09:36:15.024270
765  2023-10-31 09:36:15.056185
766  2023-10-31 09:36:15.088099
767  2023-10-31 09:36:15.120014
768  2023-10-31 09:36:15.167888
769  2023-10-31 09:36:15.199844
770  2023-10-31 09:36:15.231715
771  2023-10-31 09:36:15.263630
772  2023-10-31 09:36:15.295544
773  2023-10-31 09:36:15.327464
774  2023-10-31 09:36:15.360401
775  2023-10-31 09:36:15.392302
776  2023-10-31 09:36:15.424232
777  2023-10-31 09:36:15.456176
778  2023-10-31 09:36:15.488057
779  2023-10-31 09:36:15.519946
780  2023-10-31 09:36:15.567819
781  2023-10-31 09:36:15.599768
782  2023-10-31 09:36:15.631646
783  2023-10-31 09:36:15.663561
784  2023-10-31 09:36:15.695476
785  2023-10-31 09:36:15.728391
786  2023-10-31 09:36:15.760303
787  2023-10-31 09:36:15.792217
788  2023-10-31 09:36:15.824132
789  2023-10-31 09:36:15.856047
790  2023-10-31 09:36:15.887963
791  2023-10-31 09:36:15.919904
792  2023-10-31 09:36:15.967786
793  2023-10-31 09:36:16.000711
794  2023-10-31 09:36:16.032576
795  2023-10-31 09:36:16.064490
796  2023-10-31 09:36:16.096409
797  2023-10-31 09:36:16.128346
798  2023-10-31 09:36:16.160268
799  2023-10-31 09:36:16.192148
800  2023-10-31 09:36:16.224064
801  2023-10-31 09:36:16.256008
802  2023-10-31 09:36:16.288917
803  2023-10-31 09:36:16.319809
804  2023-10-31 09:36:16.367714
805  2023-10-31 09:36:16.400592
806  2023-10-31 09:36:16.431536
807  2023-10-31 09:36:16.464461
808  2023-10-31 09:36:16.496368
809  2023-10-31 09:36:16.528250
810  2023-10-31 09:36:16.560165
811  2023-10-31 09:36:16.592080
812  2023-10-31 09:36:16.623995
813  2023-10-31 09:36:16.655945
814  2023-10-31 09:36:16.687823
815  2023-10-31 09:36:16.719738
816  2023-10-31 09:36:16.767610
817  2023-10-31 09:36:16.800558
818  2023-10-31 09:36:16.832437
819  2023-10-31 09:36:16.864354
820  2023-10-31 09:36:16.896266
821  2023-10-31 09:36:16.928182
822  2023-10-31 09:36:16.960129
823  2023-10-31 09:36:16.992010
824  2023-10-31 09:36:17.023927
825  2023-10-31 09:36:17.055868
826  2023-10-31 09:36:17.087789
827  2023-10-31 09:36:17.119704
828  2023-10-31 09:36:17.167578
829  2023-10-31 09:36:17.200454
830  2023-10-31 09:36:17.231371
831  2023-10-31 09:36:17.264283
832  2023-10-31 09:36:17.296239
833  2023-10-31 09:36:17.328146
834  2023-10-31 09:36:17.360030
835  2023-10-31 09:36:17.391941
836  2023-10-31 09:36:17.423856
837  2023-10-31 09:36:17.455806
838  2023-10-31 09:36:17.487684
839  2023-10-31 09:36:17.519633
840  2023-10-31 09:36:17.567512
841  2023-10-31 09:36:17.600384
842  2023-10-31 09:36:17.632327
843  2023-10-31 09:36:17.664213
844  2023-10-31 09:36:17.696128
845  2023-10-31 09:36:17.728069
846  2023-10-31 09:36:17.759992
847  2023-10-31 09:36:17.791901
848  2023-10-31 09:36:17.823787
849  2023-10-31 09:36:17.855728
850  2023-10-31 09:36:17.887615
851  2023-10-31 09:36:17.919569
852  2023-10-31 09:36:17.967430
853  2023-10-31 09:36:18.000367
854  2023-10-31 09:36:18.032269
855  2023-10-31 09:36:18.064144
856  2023-10-31 09:36:18.096097
857  2023-10-31 09:36:18.128019
858  2023-10-31 09:36:18.159888
859  2023-10-31 09:36:18.191832
860  2023-10-31 09:36:18.223719
861  2023-10-31 09:36:18.255631
862  2023-10-31 09:36:18.421190
863  2023-10-31 09:36:18.432159
864  2023-10-31 09:36:18.486017
865  2023-10-31 09:36:18.495996
866  2023-10-31 09:36:18.527904
867  2023-10-31 09:36:18.559869
868  2023-10-31 09:36:18.591768
869  2023-10-31 09:36:18.624645
870  2023-10-31 09:36:18.655563
871  2023-10-31 09:36:18.687477
872  2023-10-31 09:36:18.720417
873  2023-10-31 09:36:18.768295
874  2023-10-31 09:36:18.800203
875  2023-10-31 09:36:18.832126
876  2023-10-31 09:36:18.864033
877  2023-10-31 09:36:18.895960
878  2023-10-31 09:36:18.927835
879  2023-10-31 09:36:18.959779
880  2023-10-31 09:36:18.991713
881  2023-10-31 09:36:19.023609
882  2023-10-31 09:36:19.055493
883  2023-10-31 09:36:19.087435
884  2023-10-31 09:36:19.120361
885  2023-10-31 09:36:19.168230
886  2023-10-31 09:36:19.200139
887  2023-10-31 09:36:19.232065
888  2023-10-31 09:36:19.263940
889  2023-10-31 09:36:19.295888
890  2023-10-31 09:36:19.327810
891  2023-10-31 09:36:19.359719
892  2023-10-31 09:36:19.391648
893  2023-10-31 09:36:19.423546
894  2023-10-31 09:36:19.455427
895  2023-10-31 09:36:19.488337
896  2023-10-31 09:36:19.520303
897  2023-10-31 09:36:19.568163
898  2023-10-31 09:36:19.600040
899  2023-10-31 09:36:19.631988
900  2023-10-31 09:36:19.663904
901  2023-10-31 09:36:19.695810
902  2023-10-31 09:36:19.727735
903  2023-10-31 09:36:19.759654
904  2023-10-31 09:36:19.792525
905  2023-10-31 09:36:19.823485
906  2023-10-31 09:36:19.856352
907  2023-10-31 09:36:19.888267
908  2023-10-31 09:36:19.920183
909  2023-10-31 09:36:19.968090
910  2023-10-31 09:36:19.999995
911  2023-10-31 09:36:20.031922
912  2023-10-31 09:36:20.063842
913  2023-10-31 09:36:20.095741
914  2023-10-31 09:36:20.127664
915  2023-10-31 09:36:20.159576
916  2023-10-31 09:36:20.191494
917  2023-10-31 09:36:20.224369
918  2023-10-31 09:36:20.256322
919  2023-10-31 09:36:20.288225
920  2023-10-31 09:36:20.320113
921  2023-10-31 09:36:20.368020
922  2023-10-31 09:36:20.399900
923  2023-10-31 09:36:20.431872
924  2023-10-31 09:36:20.463772
925  2023-10-31 09:36:20.495674
926  2023-10-31 09:36:20.527559
927  2023-10-31 09:36:20.559474
928  2023-10-31 09:36:20.591442
929  2023-10-31 09:36:20.624339
930  2023-10-31 09:36:20.656254
931  2023-10-31 09:36:20.688129
932  2023-10-31 09:36:20.720078
933  2023-10-31 09:36:20.767941
934  2023-10-31 09:36:20.799900
935  2023-10-31 09:36:20.831781
936  2023-10-31 09:36:20.863694
937  2023-10-31 09:36:20.895574
938  2023-10-31 09:36:20.927525
939  2023-10-31 09:36:20.959404
940  2023-10-31 09:36:20.992353
941  2023-10-31 09:36:21.024230
942  2023-10-31 09:36:21.056180
943  2023-10-31 09:36:21.088060
944  2023-10-31 09:36:21.120002
945  2023-10-31 09:36:21.167848
946  2023-10-31 09:36:21.199763
947  2023-10-31 09:36:21.231718
948  2023-10-31 09:36:21.263632
949  2023-10-31 09:36:21.296503
950  2023-10-31 09:36:21.327445
951  2023-10-31 09:36:21.360332
952  2023-10-31 09:36:21.392293
953  2023-10-31 09:36:21.424202
954  2023-10-31 09:36:21.456111
955  2023-10-31 09:36:21.488039
956  2023-10-31 09:36:21.519905
957  2023-10-31 09:36:21.567813
958  2023-10-31 09:36:21.599734
959  2023-10-31 09:36:21.631610
960  2023-10-31 09:36:21.663559
961  2023-10-31 09:36:21.695436
962  2023-10-31 09:36:21.728384
963  2023-10-31 09:36:21.791179
964  2023-10-31 09:36:21.796167
965  2023-10-31 09:36:21.824127
966  2023-10-31 09:36:21.856040
967  2023-10-31 09:36:21.887949
968  2023-10-31 09:36:21.919837
969  2023-10-31 09:36:21.967708
970  2023-10-31 09:36:21.999623
971  2023-10-31 09:36:22.031565
972  2023-10-31 09:36:22.063510
973  2023-10-31 09:36:22.095399
974  2023-10-31 09:36:22.128279
975  2023-10-31 09:36:22.160196
976  2023-10-31 09:36:22.192152
977  2023-10-31 09:36:22.224055
978  2023-10-31 09:36:22.255967
979  2023-10-31 09:36:22.287852
980  2023-10-31 09:36:22.319795
981  2023-10-31 09:36:22.367671
982  2023-10-31 09:36:22.399555
983  2023-10-31 09:36:22.431505
984  2023-10-31 09:36:22.463415
985  2023-10-31 09:36:22.496296
986  2023-10-31 09:36:22.528252
987  2023-10-31 09:36:22.560125
988  2023-10-31 09:36:22.592082
989  2023-10-31 09:36:22.623991
990  2023-10-31 09:36:22.655902
991  2023-10-31 09:36:22.687783
992  2023-10-31 09:36:22.719753
993  2023-10-31 09:36:22.767569
994  2023-10-31 09:36:22.799485
995  2023-10-31 09:36:22.831437
996  2023-10-31 09:36:22.864354
997  2023-10-31 09:36:22.896226
998  2023-10-31 09:36:22.928177
999  2023-10-31 09:36:22.960092
1000  2023-10-31 09:36:22.992003
1001  2023-10-31 09:36:23.023926
1002  2023-10-31 09:36:23.055799
1003  2023-10-31 09:36:23.087748
1004  2023-10-31 09:36:23.119659
1005  2023-10-31 09:36:23.167540
1006  2023-10-31 09:36:23.199463
1007  2023-10-31 09:36:23.232390
1008  2023-10-31 09:36:23.264284
1009  2023-10-31 09:36:23.296158
1010  2023-10-31 09:36:23.328101
1011  2023-10-31 09:36:23.360016
1012  2023-10-31 09:36:23.391943
1013  2023-10-31 09:36:23.423841
1014  2023-10-31 09:36:23.455766
1015  2023-10-31 09:36:23.487670
1016  2023-10-31 09:36:23.520591
1017  2023-10-31 09:36:23.567459
1018  2023-10-31 09:36:23.600380
1019  2023-10-31 09:36:23.632289
1020  2023-10-31 09:36:23.664175
1021  2023-10-31 09:36:23.696123
1022  2023-10-31 09:36:23.728028
1023  2023-10-31 09:36:23.759916
1024  2023-10-31 09:36:23.791830
1025  2023-10-31 09:36:23.823783
1026  2023-10-31 09:36:23.855692
1027  2023-10-31 09:36:23.887613
1028  2023-10-31 09:36:23.919491
1029  2023-10-31 09:36:23.968391
1030  2023-10-31 09:36:24.000274
1031  2023-10-31 09:36:24.032188
1032  2023-10-31 09:36:24.064144
1033  2023-10-31 09:36:24.096018
1034  2023-10-31 09:36:24.127970
1035  2023-10-31 09:36:24.159885
1036  2023-10-31 09:36:24.191805
1037  2023-10-31 09:36:24.223719
1038  2023-10-31 09:36:24.255592
1039  2023-10-31 09:36:24.287544
1040  2023-10-31 09:36:24.320418
1041  2023-10-31 09:36:24.368332
1042  2023-10-31 09:36:24.400204
1043  2023-10-31 09:36:24.432163
1044  2023-10-31 09:36:24.464069
1045  2023-10-31 09:36:24.495993
1046  2023-10-31 09:36:24.527891
1047  2023-10-31 09:36:24.559810
1048  2023-10-31 09:36:24.591720
1049  2023-10-31 09:36:24.623647
1050  2023-10-31 09:36:24.656571
1051  2023-10-31 09:36:24.687493
1052  2023-10-31 09:36:24.720348
1053  2023-10-31 09:36:24.768257
1054  2023-10-31 09:36:24.800135
1055  2023-10-31 09:36:24.832099
1056  2023-10-31 09:36:24.863964
1057  2023-10-31 09:36:24.895914
1058  2023-10-31 09:36:24.927843
1059  2023-10-31 09:36:24.959753
1060  2023-10-31 09:36:24.991665
1061  2023-10-31 09:36:25.023574
1062  2023-10-31 09:36:25.055511
1063  2023-10-31 09:36:25.088405
1064  2023-10-31 09:36:25.120322
1065  2023-10-31 09:36:25.168152
1066  2023-10-31 09:36:25.200066
1067  2023-10-31 09:36:25.232027
1068  2023-10-31 09:36:25.263922
1069  2023-10-31 09:36:25.295811
1070  2023-10-31 09:36:25.327757
1071  2023-10-31 09:36:25.359674
1072  2023-10-31 09:36:25.391582
1073  2023-10-31 09:36:25.423498
1074  2023-10-31 09:36:25.456422
1075  2023-10-31 09:36:25.488332
1076  2023-10-31 09:36:25.520244
1077  2023-10-31 09:36:25.568120
1078  2023-10-31 09:36:25.600053
1079  2023-10-31 09:36:25.631915
1080  2023-10-31 09:36:25.663882
1081  2023-10-31 09:36:25.695742
1082  2023-10-31 09:36:25.727683
1083  2023-10-31 09:36:25.759613
1084  2023-10-31 09:36:25.791522
1085  2023-10-31 09:36:25.824439
1086  2023-10-31 09:36:25.856347
1087  2023-10-31 09:36:25.888259
1088  2023-10-31 09:36:25.920142
1089  2023-10-31 09:36:25.968058
1090  2023-10-31 09:36:25.999929
1091  2023-10-31 09:36:26.031878
1092  2023-10-31 09:36:26.063785
1093  2023-10-31 09:36:26.095709
1094  2023-10-31 09:36:26.127635
1095  2023-10-31 09:36:26.159542
1096  2023-10-31 09:36:26.191464
1097  2023-10-31 09:36:26.224362
1098  2023-10-31 09:36:26.256280
1099  2023-10-31 09:36:26.288187
1100  2023-10-31 09:36:26.320072
1101  2023-10-31 09:36:26.367943
1102  2023-10-31 09:36:26.399857
1103  2023-10-31 09:36:26.431774
1104  2023-10-31 09:36:26.463688
1105  2023-10-31 09:36:26.495604
1106  2023-10-31 09:36:26.527517
1107  2023-10-31 09:36:26.560463
1108  2023-10-31 09:36:26.591390
1109  2023-10-31 09:36:26.624284
1110  2023-10-31 09:36:26.656210
1111  2023-10-31 09:36:26.688129
1112  2023-10-31 09:36:26.720047
1113  2023-10-31 09:36:26.767904
1114  2023-10-31 09:36:26.799853
1115  2023-10-31 09:36:26.831730
1116  2023-10-31 09:36:26.863667
1117  2023-10-31 09:36:26.895568
1118  2023-10-31 09:36:26.927487
1119  2023-10-31 09:36:26.960360
1120  2023-10-31 09:36:26.992275
1121  2023-10-31 09:36:27.024188
1122  2023-10-31 09:36:27.056108
1123  2023-10-31 09:36:27.088017
1124  2023-10-31 09:36:27.119932
1125  2023-10-31 09:36:27.167843
1126  2023-10-31 09:36:27.199774
1127  2023-10-31 09:36:27.231661
1128  2023-10-31 09:36:27.263578
1129  2023-10-31 09:36:27.295502
1130  2023-10-31 09:36:27.328436
1131  2023-10-31 09:36:27.360341
1132  2023-10-31 09:36:27.392250
1133  2023-10-31 09:36:27.424153
1134  2023-10-31 09:36:27.456069
1135  2023-10-31 09:36:27.487988
1136  2023-10-31 09:36:27.519901
1137  2023-10-31 09:36:27.567777
1138  2023-10-31 09:36:27.599716
1139  2023-10-31 09:36:27.631570
1140  2023-10-31 09:36:27.663479
1141  2023-10-31 09:36:27.695430
1142  2023-10-31 09:36:27.728353
1143  2023-10-31 09:36:27.760253
1144  2023-10-31 09:36:27.792170
1145  2023-10-31 09:36:27.824106
1146  2023-10-31 09:36:27.856023
1147  2023-10-31 09:36:27.887921
1148  2023-10-31 09:36:27.919858
1149  2023-10-31 09:36:27.967704
1150  2023-10-31 09:36:27.999610
1151  2023-10-31 09:36:28.031528
1152  2023-10-31 09:36:28.063461
1153  2023-10-31 09:36:28.095329
1154  2023-10-31 09:36:28.128271
1155  2023-10-31 09:36:28.160191
1156  2023-10-31 09:36:28.192106
1157  2023-10-31 09:36:28.224020
1158  2023-10-31 09:36:28.255928
1159  2023-10-31 09:36:28.287861
1160  2023-10-31 09:36:28.319788
1161  2023-10-31 09:36:28.367636
1162  2023-10-31 09:36:28.399543
1163  2023-10-31 09:36:28.431477
1164  2023-10-31 09:36:28.464375
1165  2023-10-31 09:36:28.496296
1166  2023-10-31 09:36:28.528208
1167  2023-10-31 09:36:28.560123
1168  2023-10-31 09:36:28.592035
1169  2023-10-31 09:36:28.623911
1170  2023-10-31 09:36:28.655833
1171  2023-10-31 09:36:28.687811
1172  2023-10-31 09:36:28.719697
1173  2023-10-31 09:36:28.767566
1174  2023-10-31 09:36:28.799483
1175  2023-10-31 09:36:28.832390
1176  2023-10-31 09:36:28.864318
1177  2023-10-31 09:36:28.896233
1178  2023-10-31 09:36:28.928140
1179  2023-10-31 09:36:28.960042
1180  2023-10-31 09:36:28.991956
1181  2023-10-31 09:36:29.023899
1182  2023-10-31 09:36:29.055785
1183  2023-10-31 09:36:29.087673
1184  2023-10-31 09:36:29.120587
1185  2023-10-31 09:36:29.167494
1186  2023-10-31 09:36:29.199414
1187  2023-10-31 09:36:29.232326
1188  2023-10-31 09:36:29.264241
1189  2023-10-31 09:36:29.296142
1190  2023-10-31 09:36:29.328062
1191  2023-10-31 09:36:29.359977
1192  2023-10-31 09:36:29.391903
1193  2023-10-31 09:36:29.423841
1194  2023-10-31 09:36:29.455745
1195  2023-10-31 09:36:29.487658
1196  2023-10-31 09:36:29.519552
1197  2023-10-31 09:36:29.567432
1198  2023-10-31 09:36:29.600352
1199  2023-10-31 09:36:29.632216
1200  2023-10-31 09:36:29.664175
1201  2023-10-31 09:36:29.696051
1202  2023-10-31 09:36:29.728009
1203  2023-10-31 09:36:29.759925
1204  2023-10-31 09:36:29.791841
1205  2023-10-31 09:36:29.823746
1206  2023-10-31 09:36:29.855655
1207  2023-10-31 09:36:29.887574
1208  2023-10-31 09:36:29.919448
1209  2023-10-31 09:36:29.968372
1210  2023-10-31 09:36:30.000233
1211  2023-10-31 09:36:30.032149
1212  2023-10-31 09:36:30.064097
1213  2023-10-31 09:36:30.096011
1214  2023-10-31 09:36:30.127890
1215  2023-10-31 09:36:30.159806
1216  2023-10-31 09:36:30.191778
1217  2023-10-31 09:36:30.223679
1218  2023-10-31 09:36:30.256549
1219  2023-10-31 09:36:30.288463
1220  2023-10-31 09:36:30.319416
1221  2023-10-31 09:36:30.368310
1222  2023-10-31 09:36:30.400226
1223  2023-10-31 09:36:30.432121
1224  2023-10-31 09:36:30.464033
1225  2023-10-31 09:36:30.495908
1226  2023-10-31 09:36:30.527864
1227  2023-10-31 09:36:30.559780
1228  2023-10-31 09:36:30.591694
1229  2023-10-31 09:36:30.624563
1230  2023-10-31 09:36:30.655519
1231  2023-10-31 09:36:30.687429
1232  2023-10-31 09:36:30.720347
1233  2023-10-31 09:36:30.768180
1234  2023-10-31 09:36:30.800124
1235  2023-10-31 09:36:30.832011
1236  2023-10-31 09:36:30.863967
1237  2023-10-31 09:36:30.895910
1238  2023-10-31 09:36:30.927785
1239  2023-10-31 09:36:30.959718
1240  2023-10-31 09:36:30.991582
1241  2023-10-31 09:36:31.023523
1242  2023-10-31 09:36:31.055452
1243  2023-10-31 09:36:31.088371
1244  2023-10-31 09:36:31.120276
1245  2023-10-31 09:36:31.168162
1246  2023-10-31 09:36:31.200067
1247  2023-10-31 09:36:31.231975
1248  2023-10-31 09:36:31.263896
1249  2023-10-31 09:36:31.296794
1250  2023-10-31 09:36:31.328714
1251  2023-10-31 09:36:31.359640
1252  2023-10-31 09:36:31.391514
1253  2023-10-31 09:36:31.423486
1254  2023-10-31 09:36:31.456340
1255  2023-10-31 09:36:31.488282
1256  2023-10-31 09:36:31.520210
1257  2023-10-31 09:36:31.568088
1258  2023-10-31 09:36:31.599994
1259  2023-10-31 09:36:31.631870
1260  2023-10-31 09:36:31.663855
1261  2023-10-31 09:36:31.695738
1262  2023-10-31 09:36:31.727650
1263  2023-10-31 09:36:31.759570
1264  2023-10-31 09:36:31.791484
1265  2023-10-31 09:36:31.824357
1266  2023-10-31 09:36:31.856272
1267  2023-10-31 09:36:31.888224
1268  2023-10-31 09:36:31.920143
1269  2023-10-31 09:36:31.968013
1270  2023-10-31 09:36:31.999942
1271  2023-10-31 09:36:32.031840
1272  2023-10-31 09:36:32.063753
1273  2023-10-31 09:36:32.095631
1274  2023-10-31 09:36:32.128579
1275  2023-10-31 09:36:32.160457
1276  2023-10-31 09:36:32.192413
1277  2023-10-31 09:36:32.224342
1278  2023-10-31 09:36:32.256246
1279  2023-10-31 09:36:32.288163
1280  2023-10-31 09:36:32.320059
1281  2023-10-31 09:36:32.367936
1282  2023-10-31 09:36:32.399855
1283  2023-10-31 09:36:32.431768
1284  2023-10-31 09:36:32.463689
1285  2023-10-31 09:36:32.496560
1286  2023-10-31 09:36:32.528511
1287  2023-10-31 09:36:32.559431
1288  2023-10-31 09:36:32.592303
1289  2023-10-31 09:36:32.624266
1290  2023-10-31 09:36:32.656167
1291  2023-10-31 09:36:32.688086
1292  2023-10-31 09:36:32.719996
1293  2023-10-31 09:36:32.767890
1294  2023-10-31 09:36:32.799777
1295  2023-10-31 09:36:32.831721
1296  2023-10-31 09:36:32.863610
1297  2023-10-31 09:36:32.895527
1298  2023-10-31 09:36:32.927407
1299  2023-10-31 09:36:32.960319
1300  2023-10-31 09:36:32.992278
1301  2023-10-31 09:36:33.024182
1302  2023-10-31 09:36:33.056095
1303  2023-10-31 09:36:33.088007
1304  2023-10-31 09:36:33.119941
1305  2023-10-31 09:36:33.167805
1306  2023-10-31 09:36:33.199723
1307  2023-10-31 09:36:33.231654
1308  2023-10-31 09:36:33.263545
1309  2023-10-31 09:36:33.296420
1310  2023-10-31 09:36:33.328368
1311  2023-10-31 09:36:33.360282
1312  2023-10-31 09:36:33.392208
1313  2023-10-31 09:36:33.424120
1314  2023-10-31 09:36:33.455995
1315  2023-10-31 09:36:33.487946
1316  2023-10-31 09:36:33.519827
1317  2023-10-31 09:36:33.567727
1318  2023-10-31 09:36:33.599667
1319  2023-10-31 09:36:33.631567
1320  2023-10-31 09:36:33.663471
1321  2023-10-31 09:36:33.695387
1322  2023-10-31 09:36:33.728334
1323  2023-10-31 09:36:33.760184
1324  2023-10-31 09:36:33.792148
1325  2023-10-31 09:36:33.824010
1326  2023-10-31 09:36:33.855967
1327  2023-10-31 09:36:33.887841
1328  2023-10-31 09:36:33.919783
1329  2023-10-31 09:36:33.967672
1330  2023-10-31 09:36:33.999567
1331  2023-10-31 09:36:34.032453
1332  2023-10-31 09:36:34.063418
1333  2023-10-31 09:36:34.096325
1334  2023-10-31 09:36:34.128197
1335  2023-10-31 09:36:34.160165
1336  2023-10-31 09:36:34.192025
1337  2023-10-31 09:36:34.223979
1338  2023-10-31 09:36:34.255854
1339  2023-10-31 09:36:34.287817
1340  2023-10-31 09:36:34.319714
1341  2023-10-31 09:36:34.367556
1342  2023-10-31 09:36:34.399471
1343  2023-10-31 09:36:34.432383
1344  2023-10-31 09:36:34.464297
1345  2023-10-31 09:36:34.496213
1346  2023-10-31 09:36:34.528126
1347  2023-10-31 09:36:34.560041
1348  2023-10-31 09:36:34.591957
1349  2023-10-31 09:36:34.624870
1350  2023-10-31 09:36:34.655785
1351  2023-10-31 09:36:34.687742
1352  2023-10-31 09:36:34.719653
1353  2023-10-31 09:36:34.767486
1354  2023-10-31 09:36:34.800399
1355  2023-10-31 09:36:34.832355
1356  2023-10-31 09:36:34.864228
1357  2023-10-31 09:36:34.896142
1358  2023-10-31 09:36:34.928058
1359  2023-10-31 09:36:34.960010
1360  2023-10-31 09:36:34.991886
1361  2023-10-31 09:36:35.023801
1362  2023-10-31 09:36:35.055716
1363  2023-10-31 09:36:35.087671
1364  2023-10-31 09:36:35.119588
1365  2023-10-31 09:36:35.167417
1366  2023-10-31 09:36:35.200329
1367  2023-10-31 09:36:35.232244
1368  2023-10-31 09:36:35.264159
1369  2023-10-31 09:36:35.296074
1370  2023-10-31 09:36:35.327988
1371  2023-10-31 09:36:35.359904
1372  2023-10-31 09:36:35.391817
1373  2023-10-31 09:36:35.423732
1374  2023-10-31 09:36:35.455646
1375  2023-10-31 09:36:35.487589
1376  2023-10-31 09:36:35.519479
1377  2023-10-31 09:36:35.568346
1378  2023-10-31 09:36:35.600260
1379  2023-10-31 09:36:35.632176
1380  2023-10-31 09:36:35.664095
1381  2023-10-31 09:36:35.696004
1382  2023-10-31 09:36:35.727919
1383  2023-10-31 09:36:35.759833
1384  2023-10-31 09:36:35.791748
1385  2023-10-31 09:36:35.823662
1386  2023-10-31 09:36:35.855577
1387  2023-10-31 09:36:35.887495
1388  2023-10-31 09:36:35.919409
1389  2023-10-31 09:36:35.968304
1390  2023-10-31 09:36:36.000191
1391  2023-10-31 09:36:36.032105
1392  2023-10-31 09:36:36.064020
1393  2023-10-31 09:36:36.095934
1394  2023-10-31 09:36:36.127849
1395  2023-10-31 09:36:36.159764
1396  2023-10-31 09:36:36.191679
1397  2023-10-31 09:36:36.223593
1398  2023-10-31 09:36:36.255508
1399  2023-10-31 09:36:36.288421
1400  2023-10-31 09:36:36.320376
1401  2023-10-31 09:36:36.368209
1402  2023-10-31 09:36:36.400121
1403  2023-10-31 09:36:36.432036
1404  2023-10-31 09:36:36.463953
1405  2023-10-31 09:36:36.495904
1406  2023-10-31 09:36:36.527780
1407  2023-10-31 09:36:36.559695
1408  2023-10-31 09:36:36.591610
1409  2023-10-31 09:36:36.624558
1410  2023-10-31 09:36:36.655439
1411  2023-10-31 09:36:36.688381
1412  2023-10-31 09:36:36.720301
1413  2023-10-31 09:36:36.768138
1414  2023-10-31 09:36:36.800082
1415  2023-10-31 09:36:36.832002
1416  2023-10-31 09:36:36.863881
1417  2023-10-31 09:36:36.895796
1418  2023-10-31 09:36:36.927711
1419  2023-10-31 09:36:36.959653
1420  2023-10-31 09:36:36.991540
1421  2023-10-31 09:36:37.023455
1422  2023-10-31 09:36:37.056394
1423  2023-10-31 09:36:37.088345
1424  2023-10-31 09:36:37.120229
1425  2023-10-31 09:36:37.168068
1426  2023-10-31 09:36:37.199983
1427  2023-10-31 09:36:37.231898
1428  2023-10-31 09:36:37.263821
1429  2023-10-31 09:36:37.295727
1430  2023-10-31 09:36:37.327642
1431  2023-10-31 09:36:37.359556
1432  2023-10-31 09:36:37.391471
1433  2023-10-31 09:36:37.424383
1434  2023-10-31 09:36:37.456339
1435  2023-10-31 09:36:37.488249
1436  2023-10-31 09:36:37.520156
1437  2023-10-31 09:36:37.567999
1438  2023-10-31 09:36:37.599914
1439  2023-10-31 09:36:37.631829
1440  2023-10-31 09:36:37.663743
1441  2023-10-31 09:36:37.695658
1442  2023-10-31 09:36:37.727572
1443  2023-10-31 09:36:37.759487
1444  2023-10-31 09:36:37.792400
1445  2023-10-31 09:36:37.824315
1446  2023-10-31 09:36:37.856261
1447  2023-10-31 09:36:37.888170
1448  2023-10-31 09:36:37.920060
1449  2023-10-31 09:36:37.967930
1450  2023-10-31 09:36:37.999890
1451  2023-10-31 09:36:38.031759
1452  2023-10-31 09:36:38.063674
1453  2023-10-31 09:36:38.095589
1454  2023-10-31 09:36:38.127553
1455  2023-10-31 09:36:38.159418
1456  2023-10-31 09:36:38.192330
1457  2023-10-31 09:36:38.224244
1458  2023-10-31 09:36:38.256200
1459  2023-10-31 09:36:38.288133
1460  2023-10-31 09:36:38.320033
1461  2023-10-31 09:36:38.367861
1462  2023-10-31 09:36:38.399775
1463  2023-10-31 09:36:38.431690
1464  2023-10-31 09:36:38.463605
1465  2023-10-31 09:36:38.496518
1466  2023-10-31 09:36:38.527434
1467  2023-10-31 09:36:38.560346
1468  2023-10-31 09:36:38.592261
1469  2023-10-31 09:36:38.624178
1470  2023-10-31 09:36:38.656118
1471  2023-10-31 09:36:38.688059
1472  2023-10-31 09:36:38.719952
1473  2023-10-31 09:36:38.767791
1474  2023-10-31 09:36:38.799753
1475  2023-10-31 09:36:38.831648
1476  2023-10-31 09:36:38.863535
1477  2023-10-31 09:36:38.895450
1478  2023-10-31 09:36:38.928362
1479  2023-10-31 09:36:38.960277
1480  2023-10-31 09:36:38.992192
1481  2023-10-31 09:36:39.024106
1482  2023-10-31 09:36:39.056050
1483  2023-10-31 09:36:39.087938
1484  2023-10-31 09:36:39.119892
1485  2023-10-31 09:36:39.167722
1486  2023-10-31 09:36:39.199637
1487  2023-10-31 09:36:39.231551
1488  2023-10-31 09:36:39.264464
1489  2023-10-31 09:36:39.296378
1490  2023-10-31 09:36:39.328293
1491  2023-10-31 09:36:39.360208
1492  2023-10-31 09:36:39.392123
1493  2023-10-31 09:36:39.424037
1494  2023-10-31 09:36:39.455984
1495  2023-10-31 09:36:39.487868
1496  2023-10-31 09:36:39.519821
1497  2023-10-31 09:36:39.567653
1498  2023-10-31 09:36:39.599570
1499  2023-10-31 09:36:39.632482
1500  2023-10-31 09:36:39.663429
1501  2023-10-31 09:36:39.696311
1502  2023-10-31 09:36:39.728226
1503  2023-10-31 09:36:39.760140
1504  2023-10-31 09:36:39.792081
1505  2023-10-31 09:36:39.823969
1506  2023-10-31 09:36:39.855923
1507  2023-10-31 09:36:39.887799
1508  2023-10-31 09:36:39.919741
1509  2023-10-31 09:36:39.967611
1510  2023-10-31 09:36:39.999532
1511  2023-10-31 09:36:40.032413
1512  2023-10-31 09:36:40.064327
1513  2023-10-31 09:36:40.096242
1514  2023-10-31 09:36:40.128182
1515  2023-10-31 09:36:40.160071
1516  2023-10-31 09:36:40.191986
1517  2023-10-31 09:36:40.223900
1518  2023-10-31 09:36:40.255842
1519  2023-10-31 09:36:40.287763
1520  2023-10-31 09:36:40.319671
1521  2023-10-31 09:36:40.367516
1522  2023-10-31 09:36:40.400430
1523  2023-10-31 09:36:40.432344
1524  2023-10-31 09:36:40.464257
1525  2023-10-31 09:36:40.496173
1526  2023-10-31 09:36:40.528088
1527  2023-10-31 09:36:40.561033
1528  2023-10-31 09:36:40.592916
1529  2023-10-31 09:36:40.623874
1530  2023-10-31 09:36:40.656743
1531  2023-10-31 09:36:40.688658
1532  2023-10-31 09:36:40.720605
1533  2023-10-31 09:36:40.768444
1534  2023-10-31 09:36:40.800360
1535  2023-10-31 09:36:40.832273
1536  2023-10-31 09:36:40.864189
1537  2023-10-31 09:36:40.896103
1538  2023-10-31 09:36:40.928018
1539  2023-10-31 09:36:40.959987
1540  2023-10-31 09:36:40.991847
1541  2023-10-31 09:36:41.024800
1542  2023-10-31 09:36:41.056675
1543  2023-10-31 09:36:41.088592
1544  2023-10-31 09:36:41.120503
1545  2023-10-31 09:36:41.168407
1546  2023-10-31 09:36:41.200290
1547  2023-10-31 09:36:41.232204
1548  2023-10-31 09:36:41.264119
1549  2023-10-31 09:36:41.296035
1550  2023-10-31 09:36:41.327949
1551  2023-10-31 09:36:41.359864
1552  2023-10-31 09:36:41.391807
1553  2023-10-31 09:36:41.423720
1554  2023-10-31 09:36:41.455633
1555  2023-10-31 09:36:41.488545
1556  2023-10-31 09:36:41.520465
1557  2023-10-31 09:36:41.568308
1558  2023-10-31 09:36:41.600253
1559  2023-10-31 09:36:41.632174
1560  2023-10-31 09:36:41.664077
1561  2023-10-31 09:36:41.695993
1562  2023-10-31 09:36:41.727915
1563  2023-10-31 09:36:41.759793
1564  2023-10-31 09:36:41.791709
1565  2023-10-31 09:36:41.824621
1566  2023-10-31 09:36:41.855538
1567  2023-10-31 09:36:41.888495
1568  2023-10-31 09:36:41.920406
1569  2023-10-31 09:36:41.968266
1570  2023-10-31 09:36:42.000171
1571  2023-10-31 09:36:42.032094
1572  2023-10-31 09:36:42.064011
1573  2023-10-31 09:36:42.095931
1574  2023-10-31 09:36:42.127843
1575  2023-10-31 09:36:42.160723
1576  2023-10-31 09:36:42.192637
1577  2023-10-31 09:36:42.224594
1578  2023-10-31 09:36:42.255478
1579  2023-10-31 09:36:42.288382
1580  2023-10-31 09:36:42.320341
1581  2023-10-31 09:36:42.369196
1582  2023-10-31 09:36:42.400128
1583  2023-10-31 09:36:42.433023
1584  2023-10-31 09:36:42.463939
1585  2023-10-31 09:36:42.495854
1586  2023-10-31 09:36:42.527768
1587  2023-10-31 09:36:42.560681
1588  2023-10-31 09:36:42.592594
1589  2023-10-31 09:36:42.624483
1590  2023-10-31 09:36:42.656397
1591  2023-10-31 09:36:42.688310
1592  2023-10-31 09:36:42.720226
1593  2023-10-31 09:36:42.768098
1594  2023-10-31 09:36:42.800013
1595  2023-10-31 09:36:42.831928
1596  2023-10-31 09:36:42.863842
1597  2023-10-31 09:36:42.895758
1598  2023-10-31 09:36:42.928718
1599  2023-10-31 09:36:42.960611
1600  2023-10-31 09:36:42.992531
1601  2023-10-31 09:36:43.024412
1602  2023-10-31 09:36:43.056330
1603  2023-10-31 09:36:43.088242
1604  2023-10-31 09:36:43.120157
1605  2023-10-31 09:36:43.168030
1606  2023-10-31 09:36:43.199944
1607  2023-10-31 09:36:43.231885
1608  2023-10-31 09:36:43.263774
1609  2023-10-31 09:36:43.295688
1610  2023-10-31 09:36:43.328634
1611  2023-10-31 09:36:43.359517
1612  2023-10-31 09:36:43.392478
1613  2023-10-31 09:36:43.425367
1614  2023-10-31 09:36:43.456258
1615  2023-10-31 09:36:43.488225
1616  2023-10-31 09:36:43.520090
1617  2023-10-31 09:36:43.567961
1618  2023-10-31 09:36:43.599910
1619  2023-10-31 09:36:43.631790
1620  2023-10-31 09:36:43.663704
1621  2023-10-31 09:36:43.695619
1622  2023-10-31 09:36:43.727578
1623  2023-10-31 09:36:43.759480
1624  2023-10-31 09:36:43.792361
1625  2023-10-31 09:36:43.824301
1626  2023-10-31 09:36:43.856222
1627  2023-10-31 09:36:43.888154
1628  2023-10-31 09:36:43.920054
1629  2023-10-31 09:36:43.967892
1630  2023-10-31 09:36:43.999851
1631  2023-10-31 09:36:44.031761
1632  2023-10-31 09:36:44.063634
1633  2023-10-31 09:36:44.095550
1634  2023-10-31 09:36:44.128461
1635  2023-10-31 09:36:44.159378
1636  2023-10-31 09:36:44.192289
1637  2023-10-31 09:36:44.224208
1638  2023-10-31 09:36:44.256147
1639  2023-10-31 09:36:44.288036
1640  2023-10-31 09:36:44.320006
1641  2023-10-31 09:36:44.368845
1642  2023-10-31 09:36:44.399783
1643  2023-10-31 09:36:44.431679
1644  2023-10-31 09:36:44.463606
1645  2023-10-31 09:36:44.495518
1646  2023-10-31 09:36:44.527395
1647  2023-10-31 09:36:44.560349
1648  2023-10-31 09:36:44.592222
1649  2023-10-31 09:36:44.624136
1650  2023-10-31 09:36:44.656090
1651  2023-10-31 09:36:44.687965
1652  2023-10-31 09:36:44.719920
1653  2023-10-31 09:36:44.767752
1654  2023-10-31 09:36:44.799705
1655  2023-10-31 09:36:44.831622
1656  2023-10-31 09:36:44.863527
1657  2023-10-31 09:36:44.895411
1658  2023-10-31 09:36:44.928352
1659  2023-10-31 09:36:44.960237
1660  2023-10-31 09:36:44.992200
1661  2023-10-31 09:36:45.024067
1662  2023-10-31 09:36:45.056009
1663  2023-10-31 09:36:45.087897
1664  2023-10-31 09:36:45.119851
1665  2023-10-31 09:36:45.167683
1666  2023-10-31 09:36:45.199633
1667  2023-10-31 09:36:45.231512
1668  2023-10-31 09:36:45.263428
1669  2023-10-31 09:36:45.296338
1670  2023-10-31 09:36:45.328253
1671  2023-10-31 09:36:45.360203
1672  2023-10-31 09:36:45.392084
1673  2023-10-31 09:36:45.424995
1674  2023-10-31 09:36:45.455940
1675  2023-10-31 09:36:45.487826
1676  2023-10-31 09:36:45.519742
1677  2023-10-31 09:36:45.567673
1678  2023-10-31 09:36:45.599528
1679  2023-10-31 09:36:45.631454
1680  2023-10-31 09:36:45.664389
1681  2023-10-31 09:36:45.696268
1682  2023-10-31 09:36:45.728185
1683  2023-10-31 09:36:45.760134
1684  2023-10-31 09:36:45.792014
1685  2023-10-31 09:36:45.823930
1686  2023-10-31 09:36:45.855869
1687  2023-10-31 09:36:45.887760
1688  2023-10-31 09:36:45.919702
1689  2023-10-31 09:36:45.967584
1690  2023-10-31 09:36:45.999495
1691  2023-10-31 09:36:46.031415
1692  2023-10-31 09:36:46.064314
1693  2023-10-31 09:36:46.096229
1694  2023-10-31 09:36:46.128152
1695  2023-10-31 09:36:46.160067
1696  2023-10-31 09:36:46.191998
1697  2023-10-31 09:36:46.223896
1698  2023-10-31 09:36:46.255775
1699  2023-10-31 09:36:46.288720
1700  2023-10-31 09:36:46.319604
1701  2023-10-31 09:36:46.368471
1702  2023-10-31 09:36:46.399436
1703  2023-10-31 09:36:46.432337
1704  2023-10-31 09:36:46.464250
1705  2023-10-31 09:36:46.496166
1706  2023-10-31 09:36:46.528090
1707  2023-10-31 09:36:46.559995
1708  2023-10-31 09:36:46.591901
1709  2023-10-31 09:36:46.623791
1710  2023-10-31 09:36:46.655705
1711  2023-10-31 09:36:46.687654
1712  2023-10-31 09:36:46.719535
1713  2023-10-31 09:36:46.768403
1714  2023-10-31 09:36:46.800317
1715  2023-10-31 09:36:46.832234
1716  2023-10-31 09:36:46.864146
1717  2023-10-31 09:36:46.896062
1718  2023-10-31 09:36:46.928029
1719  2023-10-31 09:36:46.959934
1720  2023-10-31 09:36:46.991846
1721  2023-10-31 09:36:47.024751
1722  2023-10-31 09:36:47.055675
1723  2023-10-31 09:36:47.087549
1724  2023-10-31 09:36:47.119492
1725  2023-10-31 09:36:47.168377
1726  2023-10-31 09:36:47.200300
1727  2023-10-31 09:36:47.232193
1728  2023-10-31 09:36:47.264116
1729  2023-10-31 09:36:47.296019
1730  2023-10-31 09:36:47.327949
1731  2023-10-31 09:36:47.359865
1732  2023-10-31 09:36:47.391736
1733  2023-10-31 09:36:47.424649
1734  2023-10-31 09:36:47.456564
1735  2023-10-31 09:36:47.487481
1736  2023-10-31 09:36:47.520423
1737  2023-10-31 09:36:47.568301
1738  2023-10-31 09:36:47.600221
1739  2023-10-31 09:36:47.632127
1740  2023-10-31 09:36:47.664040
1741  2023-10-31 09:36:47.695952
1742  2023-10-31 09:36:47.727884
1743  2023-10-31 09:36:47.759790
1744  2023-10-31 09:36:47.791668
1745  2023-10-31 09:36:47.823617
1746  2023-10-31 09:36:47.855532
1747  2023-10-31 09:36:47.887438
1748  2023-10-31 09:36:47.920350
1749  2023-10-31 09:36:47.968201
1750  2023-10-31 09:36:48.000113
1751  2023-10-31 09:36:48.032079
1752  2023-10-31 09:36:48.063972
1753  2023-10-31 09:36:48.095886
1754  2023-10-31 09:36:48.127797
1755  2023-10-31 09:36:48.159690
1756  2023-10-31 09:36:48.191626
1757  2023-10-31 09:36:48.223512
1758  2023-10-31 09:36:48.255465
1759  2023-10-31 09:36:48.288347
1760  2023-10-31 09:36:48.320299
1761  2023-10-31 09:36:48.368153
1762  2023-10-31 09:36:48.400096
1763  2023-10-31 09:36:48.431990
1764  2023-10-31 09:36:48.463875
1765  2023-10-31 09:36:48.495828
1766  2023-10-31 09:36:48.527749
1767  2023-10-31 09:36:48.559654
1768  2023-10-31 09:36:48.591529
1769  2023-10-31 09:36:48.623507
1770  2023-10-31 09:36:48.656397
1771  2023-10-31 09:36:48.688317
1772  2023-10-31 09:36:48.720222
1773  2023-10-31 09:36:48.768090
1774  2023-10-31 09:36:48.800004
1775  2023-10-31 09:36:48.831919
1776  2023-10-31 09:36:48.863844
1777  2023-10-31 09:36:48.895743
1778  2023-10-31 09:36:48.927666
1779  2023-10-31 09:36:48.959578
1780  2023-10-31 09:36:48.992463
1781  2023-10-31 09:36:49.024372
1782  2023-10-31 09:36:49.056286
1783  2023-10-31 09:36:49.088201
1784  2023-10-31 09:36:49.120152
1785  2023-10-31 09:36:49.167988
1786  2023-10-31 09:36:49.199902
1787  2023-10-31 09:36:49.231844
1788  2023-10-31 09:36:49.263785
1789  2023-10-31 09:36:49.295678
1790  2023-10-31 09:36:49.327599
1791  2023-10-31 09:36:49.359477
1792  2023-10-31 09:36:49.391390
1793  2023-10-31 09:36:49.424305
1794  2023-10-31 09:36:49.456218
1795  2023-10-31 09:36:49.488167
1796  2023-10-31 09:36:49.520082
1797  2023-10-31 09:36:49.567955
1798  2023-10-31 09:36:49.599886
1799  2023-10-31 09:36:49.631748
1800  2023-10-31 09:36:49.663701
1801  2023-10-31 09:36:49.695624
1802  2023-10-31 09:36:49.727540
1803  2023-10-31 09:36:49.760405
1804  2023-10-31 09:36:49.792360
1805  2023-10-31 09:36:49.824261
1806  2023-10-31 09:36:49.856178
1807  2023-10-31 09:36:49.888101
1808  2023-10-31 09:36:49.920014
1809  2023-10-31 09:36:49.967900
1810  2023-10-31 09:36:49.999809
1811  2023-10-31 09:36:50.031718
1812  2023-10-31 09:36:50.063630
1813  2023-10-31 09:36:50.095548
1814  2023-10-31 09:36:50.127463
1815  2023-10-31 09:36:50.160373
1816  2023-10-31 09:36:50.192250
1817  2023-10-31 09:36:50.224202
1818  2023-10-31 09:36:50.256117
1819  2023-10-31 09:36:50.287993
1820  2023-10-31 09:36:50.319945
1821  2023-10-31 09:36:50.367779
1822  2023-10-31 09:36:50.399729
1823  2023-10-31 09:36:50.431673
1824  2023-10-31 09:36:50.463566
1825  2023-10-31 09:36:50.495474
1826  2023-10-31 09:36:50.528386
1827  2023-10-31 09:36:50.560301
1828  2023-10-31 09:36:50.592185
1829  2023-10-31 09:36:50.624097
1830  2023-10-31 09:36:50.656042
1831  2023-10-31 09:36:50.687923
1832  2023-10-31 09:36:50.719867
1833  2023-10-31 09:36:50.767750
1834  2023-10-31 09:36:50.799659
1835  2023-10-31 09:36:50.831540
1836  2023-10-31 09:36:50.863455
1837  2023-10-31 09:36:50.896397
1838  2023-10-31 09:36:50.928308
1839  2023-10-31 09:36:50.960197
1840  2023-10-31 09:36:50.992154
1841  2023-10-31 09:36:51.024062
1842  2023-10-31 09:36:51.055977
1843  2023-10-31 09:36:51.087892
1844  2023-10-31 09:36:51.119806
1845  2023-10-31 09:36:51.167691
1846  2023-10-31 09:36:51.199588
1847  2023-10-31 09:36:51.232502
1848  2023-10-31 09:36:51.264412
1849  2023-10-31 09:36:51.296328
1850  2023-10-31 09:36:51.328212
1851  2023-10-31 09:36:51.360155
1852  2023-10-31 09:36:51.392080
1853  2023-10-31 09:36:51.423959
1854  2023-10-31 09:36:51.455913
1855  2023-10-31 09:36:51.487815
1856  2023-10-31 09:36:51.519702
1857  2023-10-31 09:36:51.567615
1858  2023-10-31 09:36:51.599487
1859  2023-10-31 09:36:51.632425
1860  2023-10-31 09:36:51.664345
1861  2023-10-31 09:36:51.696264
1862  2023-10-31 09:36:51.728143
1863  2023-10-31 09:36:51.760057
1864  2023-10-31 09:36:51.791998
1865  2023-10-31 09:36:51.823923
1866  2023-10-31 09:36:51.855834
1867  2023-10-31 09:36:51.887745
1868  2023-10-31 09:36:51.919660
1869  2023-10-31 09:36:51.967549
1870  2023-10-31 09:36:51.999464
1871  2023-10-31 09:36:52.032356
1872  2023-10-31 09:36:52.064245
1873  2023-10-31 09:36:52.096159
1874  2023-10-31 09:36:52.128078
1875  2023-10-31 09:36:52.160024
1876  2023-10-31 09:36:52.191952
1877  2023-10-31 09:36:52.223854
1878  2023-10-31 09:36:52.255770
1879  2023-10-31 09:36:52.287684
1880  2023-10-31 09:36:52.319562
1881  2023-10-31 09:36:52.368432
1882  2023-10-31 09:36:52.400383
1883  2023-10-31 09:36:52.432287
1884  2023-10-31 09:36:52.464176
1885  2023-10-31 09:36:52.496119
1886  2023-10-31 09:36:52.528005
1887  2023-10-31 09:36:52.559947
1888  2023-10-31 09:36:52.591897
1889  2023-10-31 09:36:52.624748
1890  2023-10-31 09:36:52.655694
1891  2023-10-31 09:36:52.687613
1892  2023-10-31 09:36:52.720491
1893  2023-10-31 09:36:52.768418
1894  2023-10-31 09:36:52.800317
1895  2023-10-31 09:36:52.832237
1896  2023-10-31 09:36:52.864144
1897  2023-10-31 09:36:52.896047
1898  2023-10-31 09:36:52.927963
1899  2023-10-31 09:36:52.959852
1900  2023-10-31 09:36:52.991766
1901  2023-10-31 09:36:53.023680
1902  2023-10-31 09:36:53.055641
1903  2023-10-31 09:36:53.087552
1904  2023-10-31 09:36:53.120421
1905  2023-10-31 09:36:53.168340
1906  2023-10-31 09:36:53.200208
1907  2023-10-31 09:36:53.232122
1908  2023-10-31 09:36:53.264088
1909  2023-10-31 09:36:53.295953
1910  2023-10-31 09:36:53.327868
1911  2023-10-31 09:36:53.359811
1912  2023-10-31 09:36:53.391731
1913  2023-10-31 09:36:53.423665
1914  2023-10-31 09:36:53.456524
1915  2023-10-31 09:36:53.488467
1916  2023-10-31 09:36:53.520381
1917  2023-10-31 09:36:53.568264
1918  2023-10-31 09:36:53.600190
1919  2023-10-31 09:36:53.632079
1920  2023-10-31 09:36:53.663994
1921  2023-10-31 09:36:53.695908
1922  2023-10-31 09:36:53.727842
1923  2023-10-31 09:36:53.759746
1924  2023-10-31 09:36:53.791654
1925  2023-10-31 09:36:53.823568
1926  2023-10-31 09:36:53.855490
1927  2023-10-31 09:36:53.888403
1928  2023-10-31 09:36:53.920299
1929  2023-10-31 09:36:53.968184
1930  2023-10-31 09:36:54.000133
1931  2023-10-31 09:36:54.032023
1932  2023-10-31 09:36:54.063940
1933  2023-10-31 09:36:54.095888
1934  2023-10-31 09:36:54.127779
1935  2023-10-31 09:36:54.159642
1936  2023-10-31 09:36:54.192591
1937  2023-10-31 09:36:54.224508
1938  2023-10-31 09:36:54.255434
1939  2023-10-31 09:36:54.288333
1940  2023-10-31 09:36:54.320213
1941  2023-10-31 09:36:54.368149
1942  2023-10-31 09:36:54.400033
1943  2023-10-31 09:36:54.431954
1944  2023-10-31 09:36:54.463870
1945  2023-10-31 09:36:54.495744
1946  2023-10-31 09:36:54.527689
1947  2023-10-31 09:36:54.559601
1948  2023-10-31 09:36:54.591488
1949  2023-10-31 09:36:54.624400
1950  2023-10-31 09:36:54.656344
1951  2023-10-31 09:36:54.688267
1952  2023-10-31 09:36:54.720146
1953  2023-10-31 09:36:54.768061
1954  2023-10-31 09:36:54.799957
1955  2023-10-31 09:36:54.831877
1956  2023-10-31 09:36:54.863793
1957  2023-10-31 09:36:54.895701
1958  2023-10-31 09:36:54.927590
1959  2023-10-31 09:36:54.959505
1960  2023-10-31 09:36:54.991453
1961  2023-10-31 09:36:55.024331
1962  2023-10-31 09:36:55.056287
1963  2023-10-31 09:36:55.088194
1964  2023-10-31 09:36:55.120103
1965  2023-10-31 09:36:55.167973
1966  2023-10-31 09:36:55.199907
1967  2023-10-31 09:36:55.231820
1968  2023-10-31 09:36:55.263726
1969  2023-10-31 09:36:55.295606
1970  2023-10-31 09:36:55.327520
1971  2023-10-31 09:36:55.359481
1972  2023-10-31 09:36:55.392376
1973  2023-10-31 09:36:55.424300
1974  2023-10-31 09:36:55.456216
1975  2023-10-31 09:36:55.488122
1976  2023-10-31 09:36:55.520011
1977  2023-10-31 09:36:55.567911
1978  2023-10-31 09:36:55.599831
1979  2023-10-31 09:36:55.631711
1980  2023-10-31 09:36:55.663664
1981  2023-10-31 09:36:55.695571
1982  2023-10-31 09:36:55.728448
1983  2023-10-31 09:36:55.760364
1984  2023-10-31 09:36:55.792278
1985  2023-10-31 09:36:55.824194
1986  2023-10-31 09:36:55.856109
1987  2023-10-31 09:36:55.888023
1988  2023-10-31 09:36:55.919936
1989  2023-10-31 09:36:55.967807
1990  2023-10-31 09:36:55.999724
1991  2023-10-31 09:36:56.031637
1992  2023-10-31 09:36:56.063552
1993  2023-10-31 09:36:56.095467
1994  2023-10-31 09:36:56.128380
1995  2023-10-31 09:36:56.160294
1996  2023-10-31 09:36:56.192208
1997  2023-10-31 09:36:56.224122
1998  2023-10-31 09:36:56.256038
1999  2023-10-31 09:36:56.287952
2000  2023-10-31 09:36:56.319868
2001  2023-10-31 09:36:56.367738
2002  2023-10-31 09:36:56.399653
2003  2023-10-31 09:36:56.431567
2004  2023-10-31 09:36:56.463523
2005  2023-10-31 09:36:56.496432
2006  2023-10-31 09:36:56.528311
2007  2023-10-31 09:36:56.560251
2008  2023-10-31 09:36:56.592186
2009  2023-10-31 09:36:56.624093
2010  2023-10-31 09:36:56.655998
2011  2023-10-31 09:36:56.687926
2012  2023-10-31 09:36:56.719835
2013  2023-10-31 09:36:56.767669
2014  2023-10-31 09:36:56.799584
2015  2023-10-31 09:36:56.831498
2016  2023-10-31 09:36:56.864410
2017  2023-10-31 09:36:56.896361
2018  2023-10-31 09:36:56.928277
2019  2023-10-31 09:36:56.960155
2020  2023-10-31 09:36:56.992105
2021  2023-10-31 09:36:57.024014
2022  2023-10-31 09:36:57.055901
2023  2023-10-31 09:36:57.087851
2024  2023-10-31 09:36:57.119763
2025  2023-10-31 09:36:57.167600
2026  2023-10-31 09:36:57.200512
2027  2023-10-31 09:36:57.232428
2028  2023-10-31 09:36:57.264341
2029  2023-10-31 09:36:57.296256
2030  2023-10-31 09:36:57.328172
2031  2023-10-31 09:36:57.360113
2032  2023-10-31 09:36:57.392031
2033  2023-10-31 09:36:57.423956
2034  2023-10-31 09:36:57.455830
2035  2023-10-31 09:36:57.487781
2036  2023-10-31 09:36:57.519661
2037  2023-10-31 09:36:57.567530
2038  2023-10-31 09:36:57.600443
2039  2023-10-31 09:36:57.632362
2040  2023-10-31 09:36:57.664299
2041  2023-10-31 09:36:57.696189
2042  2023-10-31 09:36:57.728103
2043  2023-10-31 09:36:57.760016
2044  2023-10-31 09:36:57.791958
2045  2023-10-31 09:36:57.823883
2046  2023-10-31 09:36:57.855793
2047  2023-10-31 09:36:57.887731
2048  2023-10-31 09:36:57.919635
2049  2023-10-31 09:36:57.967461
2050  2023-10-31 09:36:58.000374
2051  2023-10-31 09:36:58.032288
2052  2023-10-31 09:36:58.064203
2053  2023-10-31 09:36:58.096119
2054  2023-10-31 09:36:58.128032
2055  2023-10-31 09:36:58.159947
2056  2023-10-31 09:36:58.191905
2057  2023-10-31 09:36:58.223826
2058  2023-10-31 09:36:58.255691
2059  2023-10-31 09:36:58.287606
2060  2023-10-31 09:36:58.319521
2061  2023-10-31 09:36:58.368389
2062  2023-10-31 09:36:58.400304
2063  2023-10-31 09:36:58.432219
2064  2023-10-31 09:36:58.464162
2065  2023-10-31 09:36:58.496051
2066  2023-10-31 09:36:58.527963
2067  2023-10-31 09:36:58.559908
2068  2023-10-31 09:36:58.591796
2069  2023-10-31 09:36:58.624709
2070  2023-10-31 09:36:58.655650
2071  2023-10-31 09:36:58.687567
2072  2023-10-31 09:36:58.720489
2073  2023-10-31 09:36:58.768320
2074  2023-10-31 09:36:58.800235
2075  2023-10-31 09:36:58.832149
2076  2023-10-31 09:36:58.864064
2077  2023-10-31 09:36:58.895979
2078  2023-10-31 09:36:58.927897
2079  2023-10-31 09:36:58.959840
2080  2023-10-31 09:36:58.991757
2081  2023-10-31 09:36:59.023639
2082  2023-10-31 09:36:59.055553
2083  2023-10-31 09:36:59.087473
2084  2023-10-31 09:36:59.120382
2085  2023-10-31 09:36:59.168251
2086  2023-10-31 09:36:59.200166
2087  2023-10-31 09:36:59.232080
2088  2023-10-31 09:36:59.263995
2089  2023-10-31 09:36:59.295910
2090  2023-10-31 09:36:59.327826
2091  2023-10-31 09:36:59.359787
2092  2023-10-31 09:36:59.391702
2093  2023-10-31 09:36:59.423570
2094  2023-10-31 09:36:59.455484
2095  2023-10-31 09:36:59.487442
2096  2023-10-31 09:36:59.520311
2097  2023-10-31 09:36:59.568182
2098  2023-10-31 09:36:59.600097
2099  2023-10-31 09:36:59.632013
2100  2023-10-31 09:36:59.663965
2101  2023-10-31 09:36:59.695842
2102  2023-10-31 09:36:59.727792
2103  2023-10-31 09:36:59.759730
2104  2023-10-31 09:36:59.791626
2105  2023-10-31 09:36:59.823538
2106  2023-10-31 09:36:59.856448
2107  2023-10-31 09:36:59.888361
2108  2023-10-31 09:36:59.920242
2109  2023-10-31 09:36:59.968112
2110  2023-10-31 09:37:00.000027
2111  2023-10-31 09:37:00.031942
2112  2023-10-31 09:37:00.063918
2113  2023-10-31 09:37:00.095772
2114  2023-10-31 09:37:00.127734
2115  2023-10-31 09:37:00.160600
2116  2023-10-31 09:37:00.191546
2117  2023-10-31 09:37:00.224454
2118  2023-10-31 09:37:00.256344
2119  2023-10-31 09:37:00.288307
2120  2023-10-31 09:37:00.320215
2121  2023-10-31 09:37:00.368045
2122  2023-10-31 09:37:00.399958
2123  2023-10-31 09:37:00.431873
2124  2023-10-31 09:37:00.463822
2125  2023-10-31 09:37:00.495766
2126  2023-10-31 09:37:00.527651
2127  2023-10-31 09:37:00.559532
2128  2023-10-31 09:37:00.591447
2129  2023-10-31 09:37:00.624412
2130  2023-10-31 09:37:00.656277
2131  2023-10-31 09:37:00.688249
2132  2023-10-31 09:37:00.720140
2133  2023-10-31 09:37:00.767974
2134  2023-10-31 09:37:00.799889
2135  2023-10-31 09:37:00.831831
2136  2023-10-31 09:37:00.863755
2137  2023-10-31 09:37:00.895664
2138  2023-10-31 09:37:00.927549
2139  2023-10-31 09:37:00.960462
2140  2023-10-31 09:37:00.992408
2141  2023-10-31 09:37:01.024333
2142  2023-10-31 09:37:01.056235
2143  2023-10-31 09:37:01.088147
2144  2023-10-31 09:37:01.120035
2145  2023-10-31 09:37:01.167937
2146  2023-10-31 09:37:01.199819
2147  2023-10-31 09:37:01.231734
2148  2023-10-31 09:37:01.263657
2149  2023-10-31 09:37:01.295600
2150  2023-10-31 09:37:01.327478
2151  2023-10-31 09:37:01.360421
2152  2023-10-31 09:37:01.392345
2153  2023-10-31 09:37:01.424223
2154  2023-10-31 09:37:01.456174
2155  2023-10-31 09:37:01.488078
2156  2023-10-31 09:37:01.520000
2157  2023-10-31 09:37:01.567837
2158  2023-10-31 09:37:01.599750
2159  2023-10-31 09:37:01.631668
2160  2023-10-31 09:37:01.663623
2161  2023-10-31 09:37:01.696494
2162  2023-10-31 09:37:01.728408
2163  2023-10-31 09:37:01.760362
2164  2023-10-31 09:37:01.792239
2165  2023-10-31 09:37:01.824192
2166  2023-10-31 09:37:01.856096
2167  2023-10-31 09:37:01.888009
2168  2023-10-31 09:37:01.919967
2169  2023-10-31 09:37:01.967768
2170  2023-10-31 09:37:01.999729
2171  2023-10-31 09:37:02.031637
2172  2023-10-31 09:37:02.063559
2173  2023-10-31 09:37:02.096426
2174  2023-10-31 09:37:02.128371
2175  2023-10-31 09:37:02.160309
2176  2023-10-31 09:37:02.192168
2177  2023-10-31 09:37:02.224082
2178  2023-10-31 09:37:02.256002
2179  2023-10-31 09:37:02.287950
2180  2023-10-31 09:37:02.319826
2181  2023-10-31 09:37:02.367700
2182  2023-10-31 09:37:02.399613
2183  2023-10-31 09:37:02.431528
2184  2023-10-31 09:37:02.463480
2185  2023-10-31 09:37:02.496354
2186  2023-10-31 09:37:02.528301
2187  2023-10-31 09:37:02.560214
2188  2023-10-31 09:37:02.592126
2189  2023-10-31 09:37:02.624049
2190  2023-10-31 09:37:02.655956
2191  2023-10-31 09:37:02.687872
2192  2023-10-31 09:37:02.719796
2193  2023-10-31 09:37:02.767688
2194  2023-10-31 09:37:02.799578
2195  2023-10-31 09:37:02.831508
2196  2023-10-31 09:37:02.864371
2197  2023-10-31 09:37:02.896328
2198  2023-10-31 09:37:02.928234
2199  2023-10-31 09:37:02.960141
2200  2023-10-31 09:37:02.992056
2201  2023-10-31 09:37:03.023970
2202  2023-10-31 09:37:03.055908
2203  2023-10-31 09:37:03.087773
2204  2023-10-31 09:37:03.119718
2205  2023-10-31 09:37:03.167560
2206  2023-10-31 09:37:03.199475
2207  2023-10-31 09:37:03.232388
2208  2023-10-31 09:37:03.264302
2209  2023-10-31 09:37:03.296217
2210  2023-10-31 09:37:03.328131
2211  2023-10-31 09:37:03.360079
2212  2023-10-31 09:37:03.391987
2213  2023-10-31 09:37:03.423929
2214  2023-10-31 09:37:03.455817
2215  2023-10-31 09:37:03.487731
2216  2023-10-31 09:37:03.520649
2217  2023-10-31 09:37:03.567491
2218  2023-10-31 09:37:03.599406
2219  2023-10-31 09:37:03.632350
2220  2023-10-31 09:37:03.664266
2221  2023-10-31 09:37:03.696148
2222  2023-10-31 09:37:03.728094
2223  2023-10-31 09:37:03.760019
2224  2023-10-31 09:37:03.791918
2225  2023-10-31 09:37:03.824803
2226  2023-10-31 09:37:03.855748
2227  2023-10-31 09:37:03.887672
2228  2023-10-31 09:37:03.919551
2229  2023-10-31 09:37:03.968419
2230  2023-10-31 09:37:04.000381
2231  2023-10-31 09:37:04.032278
2232  2023-10-31 09:37:04.064192
2233  2023-10-31 09:37:04.096111
2234  2023-10-31 09:37:04.127993
2235  2023-10-31 09:37:04.159907
2236  2023-10-31 09:37:04.191851
2237  2023-10-31 09:37:04.223770
2238  2023-10-31 09:37:04.255651
2239  2023-10-31 09:37:04.287565
2240  2023-10-31 09:37:04.319510
2241  2023-10-31 09:37:04.368351
2242  2023-10-31 09:37:04.400265
2243  2023-10-31 09:37:04.432216
2244  2023-10-31 09:37:04.464133
2245  2023-10-31 09:37:04.496009
2246  2023-10-31 09:37:04.527958
2247  2023-10-31 09:37:04.559837
2248  2023-10-31 09:37:04.591788
2249  2023-10-31 09:37:04.624665
2250  2023-10-31 09:37:04.655627
2251  2023-10-31 09:37:04.687525
2252  2023-10-31 09:37:04.720407
2253  2023-10-31 09:37:04.768281
2254  2023-10-31 09:37:04.800195
2255  2023-10-31 09:37:04.832143
2256  2023-10-31 09:37:04.864063
2257  2023-10-31 09:37:04.895939
2258  2023-10-31 09:37:04.927882
2259  2023-10-31 09:37:04.959796
2260  2023-10-31 09:37:04.991713
2261  2023-10-31 09:37:05.023639
2262  2023-10-31 09:37:05.055550
2263  2023-10-31 09:37:05.087491
2264  2023-10-31 09:37:05.120389
2265  2023-10-31 09:37:05.168212
2266  2023-10-31 09:37:05.200126
2267  2023-10-31 09:37:05.232071
2268  2023-10-31 09:37:05.263983
2269  2023-10-31 09:37:05.296868
2270  2023-10-31 09:37:05.328782
2271  2023-10-31 09:37:05.359731
2272  2023-10-31 09:37:05.391644
2273  2023-10-31 09:37:05.423528
2274  2023-10-31 09:37:05.456475
2275  2023-10-31 09:37:05.488407
2276  2023-10-31 09:37:05.520305
2277  2023-10-31 09:37:05.568142
2278  2023-10-31 09:37:05.600057
2279  2023-10-31 09:37:05.631972
2280  2023-10-31 09:37:05.663939
2281  2023-10-31 09:37:05.695802
2282  2023-10-31 09:37:05.727715
2283  2023-10-31 09:37:05.759629
2284  2023-10-31 09:37:05.791597
2285  2023-10-31 09:37:05.823486
2286  2023-10-31 09:37:05.856374
2287  2023-10-31 09:37:05.888325
2288  2023-10-31 09:37:05.920254
2289  2023-10-31 09:37:05.968073
2290  2023-10-31 09:37:06.000014
2291  2023-10-31 09:37:06.031902
2292  2023-10-31 09:37:06.063817
2293  2023-10-31 09:37:06.095768
2294  2023-10-31 09:37:06.128645
2295  2023-10-31 09:37:06.159581
2296  2023-10-31 09:37:06.191476
2297  2023-10-31 09:37:06.224391
2298  2023-10-31 09:37:06.256302
2299  2023-10-31 09:37:06.288263
2300  2023-10-31 09:37:06.321128
2301  2023-10-31 09:37:06.369034
2302  2023-10-31 09:37:06.400964
2303  2023-10-31 09:37:06.432862
2304  2023-10-31 09:37:06.464777
2305  2023-10-31 09:37:06.496686
2306  2023-10-31 09:37:06.529611
2307  2023-10-31 09:37:06.560489
2308  2023-10-31 09:37:06.593401
2309  2023-10-31 09:37:06.625315
2310  2023-10-31 09:37:06.657230
2311  2023-10-31 09:37:06.689204
2312  2023-10-31 09:37:06.721098
2313  2023-10-31 09:37:06.768970
2314  2023-10-31 09:37:06.800882
2315  2023-10-31 09:37:06.832788
2316  2023-10-31 09:37:06.864726
2317  2023-10-31 09:37:06.896590
2318  2023-10-31 09:37:06.928544
2319  2023-10-31 09:37:06.961453
2320  2023-10-31 09:37:06.993333
2321  2023-10-31 09:37:07.024278
2322  2023-10-31 09:37:07.057190
2323  2023-10-31 09:37:07.089080
2324  2023-10-31 09:37:07.120990
2325  2023-10-31 09:37:07.168911
2326  2023-10-31 09:37:07.200809
2327  2023-10-31 09:37:07.232719
2328  2023-10-31 09:37:07.264669
2329  2023-10-31 09:37:07.296522
2330  2023-10-31 09:37:07.328436
2331  2023-10-31 09:37:07.360379
2332  2023-10-31 09:37:07.392295
2333  2023-10-31 09:37:07.424179
2334  2023-10-31 09:37:07.457128
2335  2023-10-31 09:37:07.488048
2336  2023-10-31 09:37:07.519924
2337  2023-10-31 09:37:07.567796
2338  2023-10-31 09:37:07.600748
2339  2023-10-31 09:37:07.632625
2340  2023-10-31 09:37:07.664539
2341  2023-10-31 09:37:07.696452
2342  2023-10-31 09:37:07.728399
2343  2023-10-31 09:37:07.760329
2344  2023-10-31 09:37:07.792238
2345  2023-10-31 09:37:07.824145
2346  2023-10-31 09:37:07.856027
2347  2023-10-31 09:37:07.887966
2348  2023-10-31 09:37:07.920884
2349  2023-10-31 09:37:07.967759
2350  2023-10-31 09:37:08.000697
2351  2023-10-31 09:37:08.032554
2352  2023-10-31 09:37:08.064503
2353  2023-10-31 09:37:08.096385
2354  2023-10-31 09:37:08.128296
2355  2023-10-31 09:37:08.160213
2356  2023-10-31 09:37:08.192163
2357  2023-10-31 09:37:08.224069
2358  2023-10-31 09:37:08.255993
2359  2023-10-31 09:37:08.287870
2360  2023-10-31 09:37:08.319825
2361  2023-10-31 09:37:08.367694
2362  2023-10-31 09:37:08.399573
2363  2023-10-31 09:37:08.432486
2364  2023-10-31 09:37:08.464443
2365  2023-10-31 09:37:08.496341
2366  2023-10-31 09:37:08.528230
2367  2023-10-31 09:37:08.560143
2368  2023-10-31 09:37:08.592086
2369  2023-10-31 09:37:08.624016
2370  2023-10-31 09:37:08.655886
2371  2023-10-31 09:37:08.687801
2372  2023-10-31 09:37:08.720713
2373  2023-10-31 09:37:08.767588
2374  2023-10-31 09:37:08.800501
2375  2023-10-31 09:37:08.832415
2376  2023-10-31 09:37:08.864329
2377  2023-10-31 09:37:08.896244
2378  2023-10-31 09:37:08.928160
2379  2023-10-31 09:37:08.960076
2380  2023-10-31 09:37:08.991990
2381  2023-10-31 09:37:09.023902
2382  2023-10-31 09:37:09.055818
2383  2023-10-31 09:37:09.087768
2384  2023-10-31 09:37:09.120644
2385  2023-10-31 09:37:09.168517
2386  2023-10-31 09:37:09.200433
2387  2023-10-31 09:37:09.232346
2388  2023-10-31 09:37:09.264301
2389  2023-10-31 09:37:09.296176
2390  2023-10-31 09:37:09.328090
2391  2023-10-31 09:37:09.361038
2392  2023-10-31 09:37:09.391918
2393  2023-10-31 09:37:09.423834
2394  2023-10-31 09:37:09.455750
2395  2023-10-31 09:37:09.487664
2396  2023-10-31 09:37:09.520575
2397  2023-10-31 09:37:09.567490
2398  2023-10-31 09:37:09.600362
2399  2023-10-31 09:37:09.632278
2400  2023-10-31 09:37:09.665188
2401  2023-10-31 09:37:09.696108
2402  2023-10-31 09:37:09.728056
2403  2023-10-31 09:37:09.759936
2404  2023-10-31 09:37:09.791878
2405  2023-10-31 09:37:09.824761
2406  2023-10-31 09:37:09.855680
2407  2023-10-31 09:37:09.887594
2408  2023-10-31 09:37:09.920532
2409  2023-10-31 09:37:09.967416
2410  2023-10-31 09:37:10.000349
2411  2023-10-31 09:37:10.032208
2412  2023-10-31 09:37:10.064122
2413  2023-10-31 09:37:10.096073
2414  2023-10-31 09:37:10.127987
2415  2023-10-31 09:37:10.160898
2416  2023-10-31 09:37:10.192778
2417  2023-10-31 09:37:10.224729
2418  2023-10-31 09:37:10.255657
2419  2023-10-31 09:37:10.287527
2420  2023-10-31 09:37:10.320436
2421  2023-10-31 09:37:10.368342
2422  2023-10-31 09:37:10.400226
2423  2023-10-31 09:37:10.433172
2424  2023-10-31 09:37:10.465090
2425  2023-10-31 09:37:10.495969
2426  2023-10-31 09:37:10.527885
2427  2023-10-31 09:37:10.560843
2428  2023-10-31 09:37:10.592712
2429  2023-10-31 09:37:10.625624
2430  2023-10-31 09:37:10.656539
2431  2023-10-31 09:37:10.688453
2432  2023-10-31 09:37:10.720369
2433  2023-10-31 09:37:10.768240
2434  2023-10-31 09:37:10.800183
2435  2023-10-31 09:37:10.833069
2436  2023-10-31 09:37:10.863984
2437  2023-10-31 09:37:10.895942
2438  2023-10-31 09:37:10.927813
2439  2023-10-31 09:37:10.959771
2440  2023-10-31 09:37:10.992671
2441  2023-10-31 09:37:11.024559
2442  2023-10-31 09:37:11.056469
2443  2023-10-31 09:37:11.088385
2444  2023-10-31 09:37:11.120348
2445  2023-10-31 09:37:11.168172
2446  2023-10-31 09:37:11.200123
2447  2023-10-31 09:37:11.232013
2448  2023-10-31 09:37:11.263954
2449  2023-10-31 09:37:11.296826
2450  2023-10-31 09:37:11.327771
2451  2023-10-31 09:37:11.359705
2452  2023-10-31 09:37:11.392610
2453  2023-10-31 09:37:11.424541
2454  2023-10-31 09:37:11.456402
2455  2023-10-31 09:37:11.488315
2456  2023-10-31 09:37:11.520255
2457  2023-10-31 09:37:11.568102
2458  2023-10-31 09:37:11.600055
2459  2023-10-31 09:37:11.632934
2460  2023-10-31 09:37:11.664847
2461  2023-10-31 09:37:11.695797
2462  2023-10-31 09:37:11.727674
2463  2023-10-31 09:37:11.759636
2464  2023-10-31 09:37:11.792501
2465  2023-10-31 09:37:11.824415
2466  2023-10-31 09:37:11.856369
2467  2023-10-31 09:37:11.888246
2468  2023-10-31 09:37:11.920162
2469  2023-10-31 09:37:11.968033
2470  2023-10-31 09:37:11.999946
2471  2023-10-31 09:37:12.032860
2472  2023-10-31 09:37:12.063781
2473  2023-10-31 09:37:12.095727
2474  2023-10-31 09:37:12.128604
2475  2023-10-31 09:37:12.160517
2476  2023-10-31 09:37:12.192433
2477  2023-10-31 09:37:12.224408
2478  2023-10-31 09:37:12.256262
2479  2023-10-31 09:37:12.288177
2480  2023-10-31 09:37:12.320092
2481  2023-10-31 09:37:12.367963
2482  2023-10-31 09:37:12.399907
2483  2023-10-31 09:37:12.431792
2484  2023-10-31 09:37:12.464749
2485  2023-10-31 09:37:12.495649
2486  2023-10-31 09:37:12.528533
2487  2023-10-31 09:37:12.560449
2488  2023-10-31 09:37:12.592367
2489  2023-10-31 09:37:12.624310
2490  2023-10-31 09:37:12.656231
2491  2023-10-31 09:37:12.688111
2492  2023-10-31 09:37:12.720021
2493  2023-10-31 09:37:12.767929
2494  2023-10-31 09:37:12.799809
2495  2023-10-31 09:37:12.831768
2496  2023-10-31 09:37:12.863675
2497  2023-10-31 09:37:12.896600
2498  2023-10-31 09:37:12.927526
2499  2023-10-31 09:37:12.960422
2500  2023-10-31 09:37:12.992327
2501  2023-10-31 09:37:13.024248
2502  2023-10-31 09:37:13.056152
2503  2023-10-31 09:37:13.088079
2504  2023-10-31 09:37:13.119980
2505  2023-10-31 09:37:13.167853
2506  2023-10-31 09:37:13.199740
2507  2023-10-31 09:37:13.232686
2508  2023-10-31 09:37:13.264566
2509  2023-10-31 09:37:13.296482
2510  2023-10-31 09:37:13.328397
2511  2023-10-31 09:37:13.360310
2512  2023-10-31 09:37:13.392226
2513  2023-10-31 09:37:13.424171
2514  2023-10-31 09:37:13.456080
2515  2023-10-31 09:37:13.487969
2516  2023-10-31 09:37:13.519883
2517  2023-10-31 09:37:13.567793
2518  2023-10-31 09:37:13.599671
2519  2023-10-31 09:37:13.632582
2520  2023-10-31 09:37:13.664497
2521  2023-10-31 09:37:13.696412
2522  2023-10-31 09:37:13.728326
2523  2023-10-31 09:37:13.760240
2524  2023-10-31 09:37:13.792194
2525  2023-10-31 09:37:13.824074
2526  2023-10-31 09:37:13.856025
2527  2023-10-31 09:37:13.887901
2528  2023-10-31 09:37:13.919816
2529  2023-10-31 09:37:13.967687
2530  2023-10-31 09:37:13.999647
2531  2023-10-31 09:37:14.032513
2532  2023-10-31 09:37:14.064426
2533  2023-10-31 09:37:14.096344
2534  2023-10-31 09:37:14.128257
2535  2023-10-31 09:37:14.160171
2536  2023-10-31 09:37:14.192088
2537  2023-10-31 09:37:14.224004
2538  2023-10-31 09:37:14.255914
2539  2023-10-31 09:37:14.287831
2540  2023-10-31 09:37:14.319780
2541  2023-10-31 09:37:14.368615
2542  2023-10-31 09:37:14.399531
2543  2023-10-31 09:37:14.432443
2544  2023-10-31 09:37:14.464358
2545  2023-10-31 09:37:14.496273
2546  2023-10-31 09:37:14.528189
2547  2023-10-31 09:37:14.560142
2548  2023-10-31 09:37:14.592019
2549  2023-10-31 09:37:14.623948
2550  2023-10-31 09:37:14.655850
2551  2023-10-31 09:37:14.687761
2552  2023-10-31 09:37:14.719712
2553  2023-10-31 09:37:14.767589
2554  2023-10-31 09:37:14.799468
2555  2023-10-31 09:37:14.832389
2556  2023-10-31 09:37:14.864291
2557  2023-10-31 09:37:14.896204
2558  2023-10-31 09:37:14.928119
2559  2023-10-31 09:37:14.960060
2560  2023-10-31 09:37:14.991949
2561  2023-10-31 09:37:15.023920
2562  2023-10-31 09:37:15.055778
2563  2023-10-31 09:37:15.087749
2564  2023-10-31 09:37:15.119654
2565  2023-10-31 09:37:15.167521
2566  2023-10-31 09:37:15.199428
2567  2023-10-31 09:37:15.232306
2568  2023-10-31 09:37:15.264247
2569  2023-10-31 09:37:15.296134
2570  2023-10-31 09:37:15.328050
2571  2023-10-31 09:37:15.359990
2572  2023-10-31 09:37:15.391879
2573  2023-10-31 09:37:15.423821
2574  2023-10-31 09:37:15.456706
2575  2023-10-31 09:37:15.488621
2576  2023-10-31 09:37:15.519583
2577  2023-10-31 09:37:15.568407
2578  2023-10-31 09:37:15.600323
2579  2023-10-31 09:37:15.632240
2580  2023-10-31 09:37:15.664153
2581  2023-10-31 09:37:15.696064
2582  2023-10-31 09:37:15.728016
2583  2023-10-31 09:37:15.759896
2584  2023-10-31 09:37:15.791854
2585  2023-10-31 09:37:15.823783
2586  2023-10-31 09:37:15.855639
2587  2023-10-31 09:37:15.887594
2588  2023-10-31 09:37:15.919495
2589  2023-10-31 09:37:15.968339
2590  2023-10-31 09:37:16.000256
2591  2023-10-31 09:37:16.032201
2592  2023-10-31 09:37:16.064083
2593  2023-10-31 09:37:16.095996
2594  2023-10-31 09:37:16.127912
2595  2023-10-31 09:37:16.159858
2596  2023-10-31 09:37:16.191771
2597  2023-10-31 09:37:16.223656
2598  2023-10-31 09:37:16.255569
2599  2023-10-31 09:37:16.287486
2600  2023-10-31 09:37:16.320440
2601  2023-10-31 09:37:16.368269
2602  2023-10-31 09:37:16.400215
2603  2023-10-31 09:37:16.432134
2604  2023-10-31 09:37:16.464014
2605  2023-10-31 09:37:16.495929
2606  2023-10-31 09:37:16.527880
2607  2023-10-31 09:37:16.559756
2608  2023-10-31 09:37:16.591697
2609  2023-10-31 09:37:16.624586
2610  2023-10-31 09:37:16.655500
2611  2023-10-31 09:37:16.687416
2612  2023-10-31 09:37:16.720363
2613  2023-10-31 09:37:16.768252
2614  2023-10-31 09:37:16.800147
2615  2023-10-31 09:37:16.832056
2616  2023-10-31 09:37:16.863943
2617  2023-10-31 09:37:16.895911
2618  2023-10-31 09:37:16.927773
2619  2023-10-31 09:37:16.959686
2620  2023-10-31 09:37:16.991628
2621  2023-10-31 09:37:17.024545
2622  2023-10-31 09:37:17.055431
2623  2023-10-31 09:37:17.088390
2624  2023-10-31 09:37:17.120294
2625  2023-10-31 09:37:17.168129
2626  2023-10-31 09:37:17.200082
2627  2023-10-31 09:37:17.231996
2628  2023-10-31 09:37:17.263875
2629  2023-10-31 09:37:17.295854
2630  2023-10-31 09:37:17.327703
2631  2023-10-31 09:37:17.359647
2632  2023-10-31 09:37:17.391560
2633  2023-10-31 09:37:17.423449
2634  2023-10-31 09:37:17.456359
2635  2023-10-31 09:37:17.488275
2636  2023-10-31 09:37:17.520188
2637  2023-10-31 09:37:17.568095
2638  2023-10-31 09:37:17.599980
2639  2023-10-31 09:37:17.631895
2640  2023-10-31 09:37:17.663806
2641  2023-10-31 09:37:17.695719
2642  2023-10-31 09:37:17.728657
2643  2023-10-31 09:37:17.759576
2644  2023-10-31 09:37:17.792480
2645  2023-10-31 09:37:17.824376
2646  2023-10-31 09:37:17.856328
2647  2023-10-31 09:37:17.888231
2648  2023-10-31 09:37:17.920146
2649  2023-10-31 09:37:17.967992
2650  2023-10-31 09:37:17.999905
2651  2023-10-31 09:37:18.031821
2652  2023-10-31 09:37:18.063740
2653  2023-10-31 09:37:18.095681
2654  2023-10-31 09:37:18.127565
2655  2023-10-31 09:37:18.159481
2656  2023-10-31 09:37:18.191438
2657  2023-10-31 09:37:18.224341
2658  2023-10-31 09:37:18.256252
2659  2023-10-31 09:37:18.288198
2660  2023-10-31 09:37:18.320077
2661  2023-10-31 09:37:18.367962
2662  2023-10-31 09:37:18.399839
2663  2023-10-31 09:37:18.431751
2664  2023-10-31 09:37:18.463666
2665  2023-10-31 09:37:18.495629
2666  2023-10-31 09:37:18.528493
2667  2023-10-31 09:37:18.560407
2668  2023-10-31 09:37:18.592370
2669  2023-10-31 09:37:18.624240
2670  2023-10-31 09:37:18.656151
2671  2023-10-31 09:37:18.688093
2672  2023-10-31 09:37:18.720010
2673  2023-10-31 09:37:18.767855
2674  2023-10-31 09:37:18.799794
2675  2023-10-31 09:37:18.831683
2676  2023-10-31 09:37:18.863597
2677  2023-10-31 09:37:18.895541
2678  2023-10-31 09:37:18.928461
2679  2023-10-31 09:37:18.960340
2680  2023-10-31 09:37:18.992279
2681  2023-10-31 09:37:19.024168
2682  2023-10-31 09:37:19.056108
2683  2023-10-31 09:37:19.088040
2684  2023-10-31 09:37:19.119937
2685  2023-10-31 09:37:19.167827
2686  2023-10-31 09:37:19.199736
2687  2023-10-31 09:37:19.231643
2688  2023-10-31 09:37:19.263556
2689  2023-10-31 09:37:19.295488
2690  2023-10-31 09:37:19.328384
2691  2023-10-31 09:37:19.360297
2692  2023-10-31 09:37:19.392211
2693  2023-10-31 09:37:19.424098
2694  2023-10-31 09:37:19.456050
2695  2023-10-31 09:37:19.487928
2696  2023-10-31 09:37:19.519884
2697  2023-10-31 09:37:19.567743
2698  2023-10-31 09:37:19.599656
2699  2023-10-31 09:37:19.631544
2700  2023-10-31 09:37:19.663457
2701  2023-10-31 09:37:19.696407
2702  2023-10-31 09:37:19.728319
2703  2023-10-31 09:37:19.760247
2704  2023-10-31 09:37:19.792141
2705  2023-10-31 09:37:19.824030
2706  2023-10-31 09:37:19.855978
2707  2023-10-31 09:37:19.887912
2708  2023-10-31 09:37:19.919810
2709  2023-10-31 09:37:19.967659
2710  2023-10-31 09:37:20.000558
2711  2023-10-31 09:37:20.031500
2712  2023-10-31 09:37:20.064419
2713  2023-10-31 09:37:20.096329
2714  2023-10-31 09:37:20.128219
2715  2023-10-31 09:37:20.160168
2716  2023-10-31 09:37:20.192047
2717  2023-10-31 09:37:20.223961
2718  2023-10-31 09:37:20.255874
2719  2023-10-31 09:37:20.287825
2720  2023-10-31 09:37:20.319730
2721  2023-10-31 09:37:20.367612
2722  2023-10-31 09:37:20.399530
2723  2023-10-31 09:37:20.431444
2724  2023-10-31 09:37:20.464320
2725  2023-10-31 09:37:20.496272
2726  2023-10-31 09:37:20.528148
2727  2023-10-31 09:37:20.560096
2728  2023-10-31 09:37:20.592031
2729  2023-10-31 09:37:20.623893
2730  2023-10-31 09:37:20.655840
2731  2023-10-31 09:37:20.687761
2732  2023-10-31 09:37:20.719677
2733  2023-10-31 09:37:20.768506
2734  2023-10-31 09:37:20.799421
2735  2023-10-31 09:37:20.832334
2736  2023-10-31 09:37:20.864277
2737  2023-10-31 09:37:20.896207
2738  2023-10-31 09:37:20.928079
2739  2023-10-31 09:37:20.959994
2740  2023-10-31 09:37:20.991909
2741  2023-10-31 09:37:21.023858
2742  2023-10-31 09:37:21.055767
2743  2023-10-31 09:37:21.087650
2744  2023-10-31 09:37:21.119575
2745  2023-10-31 09:37:21.168437
2746  2023-10-31 09:37:21.200351
2747  2023-10-31 09:37:21.232295
2748  2023-10-31 09:37:21.264178
2749  2023-10-31 09:37:21.296094
2750  2023-10-31 09:37:21.328010
2751  2023-10-31 09:37:21.359951
2752  2023-10-31 09:37:21.391885
2753  2023-10-31 09:37:21.423798
2754  2023-10-31 09:37:21.455666
2755  2023-10-31 09:37:21.487613
2756  2023-10-31 09:37:21.519548
2757  2023-10-31 09:37:21.568368
2758  2023-10-31 09:37:21.600309
2759  2023-10-31 09:37:21.632200
2760  2023-10-31 09:37:21.664114
2761  2023-10-31 09:37:21.696025
2762  2023-10-31 09:37:21.727940
2763  2023-10-31 09:37:21.759854
2764  2023-10-31 09:37:21.791770
2765  2023-10-31 09:37:21.824686
2766  2023-10-31 09:37:21.855598
2767  2023-10-31 09:37:21.888509
2768  2023-10-31 09:37:21.919436
2769  2023-10-31 09:37:21.968327
2770  2023-10-31 09:37:22.000211
2771  2023-10-31 09:37:22.032155
2772  2023-10-31 09:37:22.064040
2773  2023-10-31 09:37:22.095956
2774  2023-10-31 09:37:22.127870
2775  2023-10-31 09:37:22.159819
2776  2023-10-31 09:37:22.191735
2777  2023-10-31 09:37:22.223667
2778  2023-10-31 09:37:22.255529
2779  2023-10-31 09:37:22.288439
2780  2023-10-31 09:37:22.320354
2781  2023-10-31 09:37:22.368257
2782  2023-10-31 09:37:22.400175
2783  2023-10-31 09:37:22.432083
2784  2023-10-31 09:37:22.463971
2785  2023-10-31 09:37:22.495921
2786  2023-10-31 09:37:22.527858
2787  2023-10-31 09:37:22.559714
2788  2023-10-31 09:37:22.591629
2789  2023-10-31 09:37:22.624541
2790  2023-10-31 09:37:22.656456
2791  2023-10-31 09:37:22.688371
2792  2023-10-31 09:37:22.720285
2793  2023-10-31 09:37:22.768216
2794  2023-10-31 09:37:22.800110
2795  2023-10-31 09:37:22.831989
2796  2023-10-31 09:37:22.863906
2797  2023-10-31 09:37:22.895816
2798  2023-10-31 09:37:22.927766
2799  2023-10-31 09:37:22.959648
2800  2023-10-31 09:37:22.991619
2801  2023-10-31 09:37:23.024472
2802  2023-10-31 09:37:23.056386
2803  2023-10-31 09:37:23.088303
2804  2023-10-31 09:37:23.120216
2805  2023-10-31 09:37:23.168089
2806  2023-10-31 09:37:23.200004
2807  2023-10-31 09:37:23.231917
2808  2023-10-31 09:37:23.263868
2809  2023-10-31 09:37:23.295774
2810  2023-10-31 09:37:23.327697
2811  2023-10-31 09:37:23.359578
2812  2023-10-31 09:37:23.391530
2813  2023-10-31 09:37:23.424430
2814  2023-10-31 09:37:23.456317
2815  2023-10-31 09:37:23.488232
2816  2023-10-31 09:37:23.520146
2817  2023-10-31 09:37:23.568055
2818  2023-10-31 09:37:23.599934
2819  2023-10-31 09:37:23.631849
2820  2023-10-31 09:37:23.663796
2821  2023-10-31 09:37:23.695678
2822  2023-10-31 09:37:23.727624
2823  2023-10-31 09:37:23.759508
2824  2023-10-31 09:37:23.791421
2825  2023-10-31 09:37:23.824390
2826  2023-10-31 09:37:23.856248
2827  2023-10-31 09:37:23.888162
2828  2023-10-31 09:37:23.920078
2829  2023-10-31 09:37:23.967980
2830  2023-10-31 09:37:23.999865
2831  2023-10-31 09:37:24.032824
2832  2023-10-31 09:37:24.063693
2833  2023-10-31 09:37:24.095610
2834  2023-10-31 09:37:24.128527
2835  2023-10-31 09:37:24.160493
2836  2023-10-31 09:37:24.192415
2837  2023-10-31 09:37:24.224294
2838  2023-10-31 09:37:24.256178
2839  2023-10-31 09:37:24.288141
2840  2023-10-31 09:37:24.320008
2841  2023-10-31 09:37:24.368880
2842  2023-10-31 09:37:24.399822
2843  2023-10-31 09:37:24.431711
2844  2023-10-31 09:37:24.463626
2845  2023-10-31 09:37:24.495540
2846  2023-10-31 09:37:24.527493
2847  2023-10-31 09:37:24.560366
2848  2023-10-31 09:37:24.592282
2849  2023-10-31 09:37:24.624238
2850  2023-10-31 09:37:24.656109
2851  2023-10-31 09:37:24.688024
2852  2023-10-31 09:37:24.719939
2853  2023-10-31 09:37:24.767847
2854  2023-10-31 09:37:24.799753
2855  2023-10-31 09:37:24.831688
2856  2023-10-31 09:37:24.863556
2857  2023-10-31 09:37:24.896467
2858  2023-10-31 09:37:24.928421
2859  2023-10-31 09:37:24.960304
2860  2023-10-31 09:37:24.992213
2861  2023-10-31 09:37:25.024128
2862  2023-10-31 09:37:25.056042
2863  2023-10-31 09:37:25.087957
2864  2023-10-31 09:37:25.119917
2865  2023-10-31 09:37:25.167744
2866  2023-10-31 09:37:25.199656
2867  2023-10-31 09:37:25.231629
2868  2023-10-31 09:37:25.263488
2869  2023-10-31 09:37:25.296425
2870  2023-10-31 09:37:25.328341
2871  2023-10-31 09:37:25.360229
2872  2023-10-31 09:37:25.392170
2873  2023-10-31 09:37:25.424085
2874  2023-10-31 09:37:25.455972
2875  2023-10-31 09:37:25.487887
2876  2023-10-31 09:37:25.519802
2877  2023-10-31 09:37:25.567673
2878  2023-10-31 09:37:25.599663
2879  2023-10-31 09:37:25.631503
2880  2023-10-31 09:37:25.663454
2881  2023-10-31 09:37:25.696371
2882  2023-10-31 09:37:25.728274
2883  2023-10-31 09:37:25.760159
2884  2023-10-31 09:37:25.792074
2885  2023-10-31 09:37:25.823991
2886  2023-10-31 09:37:25.855907
2887  2023-10-31 09:37:25.887818
2888  2023-10-31 09:37:25.919733
2889  2023-10-31 09:37:25.967648
2890  2023-10-31 09:37:25.999558
2891  2023-10-31 09:37:26.031433
2892  2023-10-31 09:37:26.064348
2893  2023-10-31 09:37:26.096288
2894  2023-10-31 09:37:26.128221
2895  2023-10-31 09:37:26.160090
2896  2023-10-31 09:37:26.192037
2897  2023-10-31 09:37:26.223920
2898  2023-10-31 09:37:26.255868
2899  2023-10-31 09:37:26.287748
2900  2023-10-31 09:37:26.319663
2901  2023-10-31 09:37:26.367535
2902  2023-10-31 09:37:26.399449
2903  2023-10-31 09:37:26.432390
2904  2023-10-31 09:37:26.464277
2905  2023-10-31 09:37:26.496230
2906  2023-10-31 09:37:26.528105
2907  2023-10-31 09:37:26.560021
2908  2023-10-31 09:37:26.591937
2909  2023-10-31 09:37:26.624848
2910  2023-10-31 09:37:26.656762
2911  2023-10-31 09:37:26.687680
2912  2023-10-31 09:37:26.719594
2913  2023-10-31 09:37:26.767499
2914  2023-10-31 09:37:26.800382
2915  2023-10-31 09:37:26.832331
2916  2023-10-31 09:37:26.864234
2917  2023-10-31 09:37:26.896156
2918  2023-10-31 09:37:26.928036
2919  2023-10-31 09:37:26.959950
2920  2023-10-31 09:37:26.991912
2921  2023-10-31 09:37:27.023781
2922  2023-10-31 09:37:27.055695
2923  2023-10-31 09:37:27.087639
2924  2023-10-31 09:37:27.119525
2925  2023-10-31 09:37:27.168395
2926  2023-10-31 09:37:27.200341
2927  2023-10-31 09:37:27.232253
2928  2023-10-31 09:37:27.264140
2929  2023-10-31 09:37:27.296056
2930  2023-10-31 09:37:27.327972
2931  2023-10-31 09:37:27.359882
2932  2023-10-31 09:37:27.391824
2933  2023-10-31 09:37:27.423712
2934  2023-10-31 09:37:27.455626
2935  2023-10-31 09:37:27.487541
2936  2023-10-31 09:37:27.520454
2937  2023-10-31 09:37:27.568373
2938  2023-10-31 09:37:27.600241
2939  2023-10-31 09:37:27.632154
2940  2023-10-31 09:37:27.664068
2941  2023-10-31 09:37:27.696018
2942  2023-10-31 09:37:27.727913
2943  2023-10-31 09:37:27.759853
2944  2023-10-31 09:37:27.791757
2945  2023-10-31 09:37:27.823642
2946  2023-10-31 09:37:27.856555
2947  2023-10-31 09:37:27.888469
2948  2023-10-31 09:37:27.920386
2949  2023-10-31 09:37:27.968257
2950  2023-10-31 09:37:28.000172
2951  2023-10-31 09:37:28.032085
2952  2023-10-31 09:37:28.064034
2953  2023-10-31 09:37:28.095915
2954  2023-10-31 09:37:28.127830
2955  2023-10-31 09:37:28.159746
2956  2023-10-31 09:37:28.192685
2957  2023-10-31 09:37:28.223573
2958  2023-10-31 09:37:28.256515
2959  2023-10-31 09:37:28.287430
2960  2023-10-31 09:37:28.320315
2961  2023-10-31 09:37:28.368221
2962  2023-10-31 09:37:28.400102
2963  2023-10-31 09:37:28.432055
2964  2023-10-31 09:37:28.463931
2965  2023-10-31 09:37:28.495846
2966  2023-10-31 09:37:28.527792
2967  2023-10-31 09:37:28.559674
2968  2023-10-31 09:37:28.591628
2969  2023-10-31 09:37:28.623507
2970  2023-10-31 09:37:28.656417
2971  2023-10-31 09:37:28.688331
2972  2023-10-31 09:37:28.720245
2973  2023-10-31 09:37:28.768158
2974  2023-10-31 09:37:28.800074
2975  2023-10-31 09:37:28.831973
2976  2023-10-31 09:37:28.863861
2977  2023-10-31 09:37:28.895803
2978  2023-10-31 09:37:28.927690
2979  2023-10-31 09:37:28.959604
2980  2023-10-31 09:37:28.991553
2981  2023-10-31 09:37:29.024432
2982  2023-10-31 09:37:29.056347
2983  2023-10-31 09:37:29.088261
2984  2023-10-31 09:37:29.120177
2985  2023-10-31 09:37:29.168075
2986  2023-10-31 09:37:29.199964
2987  2023-10-31 09:37:29.231916
2988  2023-10-31 09:37:29.263819
2989  2023-10-31 09:37:29.295706
2990  2023-10-31 09:37:29.327623
2991  2023-10-31 09:37:29.359538
2992  2023-10-31 09:37:29.391450
2993  2023-10-31 09:37:29.424383
2994  2023-10-31 09:37:29.456330
2995  2023-10-31 09:37:29.488192
2996  2023-10-31 09:37:29.520107
2997  2023-10-31 09:37:29.567978
2998  2023-10-31 09:37:29.599895
2999  2023-10-31 09:37:29.631807
3000  2023-10-31 09:37:29.663722
3001  2023-10-31 09:37:29.695676
3002  2023-10-31 09:37:29.727551
3003  2023-10-31 09:37:29.760466
3004  2023-10-31 09:37:29.792408
3005  2023-10-31 09:37:29.824294
3006  2023-10-31 09:37:29.856210
3007  2023-10-31 09:37:29.888126
3008  2023-10-31 09:37:29.920036
3009  2023-10-31 09:37:29.967950
3010  2023-10-31 09:37:29.999826
3011  2023-10-31 09:37:30.031766
3012  2023-10-31 09:37:30.063653
3013  2023-10-31 09:37:30.095570
3014  2023-10-31 09:37:30.127482
3015  2023-10-31 09:37:30.160395
3016  2023-10-31 09:37:30.192310
3017  2023-10-31 09:37:30.224224
3018  2023-10-31 09:37:30.256171
3019  2023-10-31 09:37:30.288097
3020  2023-10-31 09:37:30.319968
3021  2023-10-31 09:37:30.367881
3022  2023-10-31 09:37:30.399790
3023  2023-10-31 09:37:30.431675
3024  2023-10-31 09:37:30.463583
3025  2023-10-31 09:37:30.495499
3026  2023-10-31 09:37:30.528413
3027  2023-10-31 09:37:30.560326
3028  2023-10-31 09:37:30.592240
3029  2023-10-31 09:37:30.624155
3030  2023-10-31 09:37:30.656071
3031  2023-10-31 09:37:30.687985
3032  2023-10-31 09:37:30.719900
3033  2023-10-31 09:37:30.767813
3034  2023-10-31 09:37:30.799687
3035  2023-10-31 09:37:30.831601
3036  2023-10-31 09:37:30.863564
3037  2023-10-31 09:37:30.895430
3038  2023-10-31 09:37:30.928343
3039  2023-10-31 09:37:30.960295
3040  2023-10-31 09:37:30.992197
3041  2023-10-31 09:37:31.024116
3042  2023-10-31 09:37:31.056042
3043  2023-10-31 09:37:31.087957
3044  2023-10-31 09:37:31.119879
3045  2023-10-31 09:37:31.167701
3046  2023-10-31 09:37:31.199617
3047  2023-10-31 09:37:31.232567
3048  2023-10-31 09:37:31.264444
3049  2023-10-31 09:37:31.296401
3050  2023-10-31 09:37:31.328272
3051  2023-10-31 09:37:31.360218
3052  2023-10-31 09:37:31.392149
3053  2023-10-31 09:37:31.424051
3054  2023-10-31 09:37:31.455976
3055  2023-10-31 09:37:31.487847
3056  2023-10-31 09:37:31.519794
3057  2023-10-31 09:37:31.567633
3058  2023-10-31 09:37:31.599547
3059  2023-10-31 09:37:31.631462
3060  2023-10-31 09:37:31.667366
3061  2023-10-31 09:37:31.696327
3062  2023-10-31 09:37:31.728204
3063  2023-10-31 09:37:31.760154
3064  2023-10-31 09:37:31.792033
3065  2023-10-31 09:37:31.823987
3066  2023-10-31 09:37:31.855905
3067  2023-10-31 09:37:31.889813
3068  2023-10-31 09:37:31.921719
3069  2023-10-31 09:37:31.969585
3070  2023-10-31 09:37:32.001503
3071  2023-10-31 09:37:32.033416
3072  2023-10-31 09:37:32.065343
3073  2023-10-31 09:37:32.096219
3074  2023-10-31 09:37:32.129166
3075  2023-10-31 09:37:32.160080
3076  2023-10-31 09:37:32.192997
3077  2023-10-31 09:37:32.224917
3078  2023-10-31 09:37:32.256792
3079  2023-10-31 09:37:32.288732
3080  2023-10-31 09:37:32.321649
3081  2023-10-31 09:37:32.369527
3082  2023-10-31 09:37:32.401431
3083  2023-10-31 09:37:32.433358
3084  2023-10-31 09:37:32.465286
3085  2023-10-31 09:37:32.497202
3086  2023-10-31 09:37:32.529099
3087  2023-10-31 09:37:32.560978
3088  2023-10-31 09:37:32.592892
3089  2023-10-31 09:37:32.625803
3090  2023-10-31 09:37:32.657746
3091  2023-10-31 09:37:32.688677
3092  2023-10-31 09:37:32.720593
3093  2023-10-31 09:37:32.769466
3094  2023-10-31 09:37:32.801371
3095  2023-10-31 09:37:32.833290
3096  2023-10-31 09:37:32.865193
3097  2023-10-31 09:37:32.897119
3098  2023-10-31 09:37:32.928999
3099  2023-10-31 09:37:32.960937
3100  2023-10-31 09:37:32.992864
3101  2023-10-31 09:37:33.024769
3102  2023-10-31 09:37:33.056682
3103  2023-10-31 09:37:33.088567
3104  2023-10-31 09:37:33.120517
3105  2023-10-31 09:37:33.169354
3106  2023-10-31 09:37:33.201292
3107  2023-10-31 09:37:33.233214
3108  2023-10-31 09:37:33.265129
3109  2023-10-31 09:37:33.297050
3110  2023-10-31 09:37:33.328925
3111  2023-10-31 09:37:33.360870
3112  2023-10-31 09:37:33.392785
3113  2023-10-31 09:37:33.424700
3114  2023-10-31 09:37:33.456622
3115  2023-10-31 09:37:33.488525
3116  2023-10-31 09:37:33.520449
3117  2023-10-31 09:37:33.568286
3118  2023-10-31 09:37:33.601233
3119  2023-10-31 09:37:33.633114
3120  2023-10-31 09:37:33.665067
3121  2023-10-31 09:37:33.695991
3122  2023-10-31 09:37:33.728882
3123  2023-10-31 09:37:33.760798
3124  2023-10-31 09:37:33.793717
3125  2023-10-31 09:37:33.824637
3126  2023-10-31 09:37:33.856539
3127  2023-10-31 09:37:33.888459
3128  2023-10-31 09:37:33.920342
3129  2023-10-31 09:37:33.968246
3130  2023-10-31 09:37:34.000170
3131  2023-10-31 09:37:34.032077
3132  2023-10-31 09:37:34.063986
3133  2023-10-31 09:37:34.095899
3134  2023-10-31 09:37:34.127790
3135  2023-10-31 09:37:34.159703
3136  2023-10-31 09:37:34.192617
3137  2023-10-31 09:37:34.223569
3138  2023-10-31 09:37:34.256445
3139  2023-10-31 09:37:34.288395
3140  2023-10-31 09:37:34.320274
3141  2023-10-31 09:37:34.368172
3142  2023-10-31 09:37:34.400103
3143  2023-10-31 09:37:34.432015
3144  2023-10-31 09:37:34.463928
3145  2023-10-31 09:37:34.495803
3146  2023-10-31 09:37:34.527761
3147  2023-10-31 09:37:34.559665
3148  2023-10-31 09:37:34.591583
3149  2023-10-31 09:37:34.623497
3150  2023-10-31 09:37:34.656375
3151  2023-10-31 09:37:34.688366
3152  2023-10-31 09:37:34.720204
3153  2023-10-31 09:37:34.768137
3154  2023-10-31 09:37:34.800030
3155  2023-10-31 09:37:34.831955
3156  2023-10-31 09:37:34.864818
3157  2023-10-31 09:37:34.896732
3158  2023-10-31 09:37:34.928680
3159  2023-10-31 09:37:34.960561
3160  2023-10-31 09:37:34.992476
3161  2023-10-31 09:37:35.024390
3162  2023-10-31 09:37:35.056308
3163  2023-10-31 09:37:35.088220
3164  2023-10-31 09:37:35.120136
3165  2023-10-31 09:37:35.168043
3166  2023-10-31 09:37:35.199923
3167  2023-10-31 09:37:35.231853
3168  2023-10-31 09:37:35.263750
3169  2023-10-31 09:37:35.296664
3170  2023-10-31 09:37:35.328579
3171  2023-10-31 09:37:35.361527
3172  2023-10-31 09:37:35.392407
3173  2023-10-31 09:37:35.425382
3174  2023-10-31 09:37:35.456268
3175  2023-10-31 09:37:35.488180
3176  2023-10-31 09:37:35.521097
3177  2023-10-31 09:37:35.567937
3178  2023-10-31 09:37:35.599854
3179  2023-10-31 09:37:35.631805
3180  2023-10-31 09:37:35.665718
3181  2023-10-31 09:37:35.696627
3182  2023-10-31 09:37:35.728521
3183  2023-10-31 09:37:35.761461
3184  2023-10-31 09:37:35.793383
3185  2023-10-31 09:37:35.825276
3186  2023-10-31 09:37:35.856220
3187  2023-10-31 09:37:35.888115
3188  2023-10-31 09:37:35.920994
3189  2023-10-31 09:37:35.967869
3190  2023-10-31 09:37:35.999812
3191  2023-10-31 09:37:36.031699
3192  2023-10-31 09:37:36.064611
3193  2023-10-31 09:37:36.096528
3194  2023-10-31 09:37:36.128440
3195  2023-10-31 09:37:36.160355
3196  2023-10-31 09:37:36.192295
3197  2023-10-31 09:37:36.224244
3198  2023-10-31 09:37:36.256098
3199  2023-10-31 09:37:36.288051
3200  2023-10-31 09:37:36.320971
3201  2023-10-31 09:37:36.367799
3202  2023-10-31 09:37:36.399714
3203  2023-10-31 09:37:36.433663
3204  2023-10-31 09:37:36.463594
3205  2023-10-31 09:37:36.496456
3206  2023-10-31 09:37:36.528369
3207  2023-10-31 09:37:36.560323
3208  2023-10-31 09:37:36.592227
3209  2023-10-31 09:37:36.625147
3210  2023-10-31 09:37:36.656055
3211  2023-10-31 09:37:36.687997
3212  2023-10-31 09:37:36.720895
3213  2023-10-31 09:37:36.767787
3214  2023-10-31 09:37:36.801645
3215  2023-10-31 09:37:36.833558
3216  2023-10-31 09:37:36.864514
3217  2023-10-31 09:37:36.896386
3218  2023-10-31 09:37:36.928341
3219  2023-10-31 09:37:36.960252
3220  2023-10-31 09:37:36.992175
3221  2023-10-31 09:37:37.024081
3222  2023-10-31 09:37:37.056004
3223  2023-10-31 09:37:37.087879
3224  2023-10-31 09:37:37.119815
3225  2023-10-31 09:37:37.167661
3226  2023-10-31 09:37:37.201570
3227  2023-10-31 09:37:37.232490
3228  2023-10-31 09:37:37.265400
3229  2023-10-31 09:37:37.296319
3230  2023-10-31 09:37:37.328270
3231  2023-10-31 09:37:37.360190
3232  2023-10-31 09:37:37.392100
3233  2023-10-31 09:37:37.424007
3234  2023-10-31 09:37:37.455925
3235  2023-10-31 09:37:37.487840
3236  2023-10-31 09:37:37.519725
3237  2023-10-31 09:37:37.567647
3238  2023-10-31 09:37:37.600542
3239  2023-10-31 09:37:37.632419
3240  2023-10-31 09:37:37.664362
3241  2023-10-31 09:37:37.696248
3242  2023-10-31 09:37:37.728197
3243  2023-10-31 09:37:37.760077
3244  2023-10-31 09:37:37.792040
3245  2023-10-31 09:37:37.823912
3246  2023-10-31 09:37:37.855868
3247  2023-10-31 09:37:37.887775
3248  2023-10-31 09:37:37.919680
3249  2023-10-31 09:37:37.968520
3250  2023-10-31 09:37:38.000436
3251  2023-10-31 09:37:38.032350
3252  2023-10-31 09:37:38.064292
3253  2023-10-31 09:37:38.096212
3254  2023-10-31 09:37:38.128136
3255  2023-10-31 09:37:38.160062
3256  2023-10-31 09:37:38.191948
3257  2023-10-31 09:37:38.223865
3258  2023-10-31 09:37:38.255783
3259  2023-10-31 09:37:38.287711
3260  2023-10-31 09:37:38.320579
3261  2023-10-31 09:37:38.368453
3262  2023-10-31 09:37:38.400367
3263  2023-10-31 09:37:38.432280
3264  2023-10-31 09:37:38.464234
3265  2023-10-31 09:37:38.497107
3266  2023-10-31 09:37:38.528025
3267  2023-10-31 09:37:38.559980
3268  2023-10-31 09:37:38.591853
3269  2023-10-31 09:37:38.624765
3270  2023-10-31 09:37:38.655743
3271  2023-10-31 09:37:38.687642
3272  2023-10-31 09:37:38.719516
3273  2023-10-31 09:37:38.767423
3274  2023-10-31 09:37:38.800298
3275  2023-10-31 09:37:38.832211
3276  2023-10-31 09:37:38.864127
3277  2023-10-31 09:37:38.896040
3278  2023-10-31 09:37:38.927989
3279  2023-10-31 09:37:38.959922
3280  2023-10-31 09:37:38.991786
3281  2023-10-31 09:37:39.023699
3282  2023-10-31 09:37:39.055614
3283  2023-10-31 09:37:39.087561
3284  2023-10-31 09:37:39.119443
3285  2023-10-31 09:37:39.168313
3286  2023-10-31 09:37:39.200227
3287  2023-10-31 09:37:39.232168
3288  2023-10-31 09:37:39.264093
3289  2023-10-31 09:37:39.296016
3290  2023-10-31 09:37:39.327925
3291  2023-10-31 09:37:39.359848
3292  2023-10-31 09:37:39.391757
3293  2023-10-31 09:37:39.423658
3294  2023-10-31 09:37:39.455546
3295  2023-10-31 09:37:39.487531
3296  2023-10-31 09:37:39.520418
3297  2023-10-31 09:37:39.568243
3298  2023-10-31 09:37:39.600158
3299  2023-10-31 09:37:39.632072
3300  2023-10-31 09:37:39.664023
3301  2023-10-31 09:37:39.695904
3302  2023-10-31 09:37:39.727850
3303  2023-10-31 09:37:39.759733
3304  2023-10-31 09:37:39.792643
3305  2023-10-31 09:37:39.823562
3306  2023-10-31 09:37:39.855475
3307  2023-10-31 09:37:39.888429
3308  2023-10-31 09:37:39.920341
3309  2023-10-31 09:37:39.968175
3310  2023-10-31 09:37:40.000118
3311  2023-10-31 09:37:40.032004
3312  2023-10-31 09:37:40.063918
3313  2023-10-31 09:37:40.095834
3314  2023-10-31 09:37:40.127793
3315  2023-10-31 09:37:40.159663
3316  2023-10-31 09:37:40.191604
3317  2023-10-31 09:37:40.223519
3318  2023-10-31 09:37:40.256405
3319  2023-10-31 09:37:40.288371
3320  2023-10-31 09:37:40.320291
3321  2023-10-31 09:37:40.368105
3322  2023-10-31 09:37:40.400062
3323  2023-10-31 09:37:40.431934
3324  2023-10-31 09:37:40.464884
3325  2023-10-31 09:37:40.495768
3326  2023-10-31 09:37:40.527727
3327  2023-10-31 09:37:40.559638
3328  2023-10-31 09:37:40.591548
3329  2023-10-31 09:37:40.624419
3330  2023-10-31 09:37:40.656335
3331  2023-10-31 09:37:40.688250
3332  2023-10-31 09:37:40.720164
3333  2023-10-31 09:37:40.768035
3334  2023-10-31 09:37:40.799956
3335  2023-10-31 09:37:40.831869
3336  2023-10-31 09:37:40.863834
3337  2023-10-31 09:37:40.895721
3338  2023-10-31 09:37:40.927649
3339  2023-10-31 09:37:40.959571
3340  2023-10-31 09:37:40.991478
3341  2023-10-31 09:37:41.024388
3342  2023-10-31 09:37:41.056265
3343  2023-10-31 09:37:41.088186
3344  2023-10-31 09:37:41.120120
3345  2023-10-31 09:37:41.167995
3346  2023-10-31 09:37:41.199924
3347  2023-10-31 09:37:41.231796
3348  2023-10-31 09:37:41.263743
3349  2023-10-31 09:37:41.295670
3350  2023-10-31 09:37:41.327587
3351  2023-10-31 09:37:41.359495
3352  2023-10-31 09:37:41.392420
3353  2023-10-31 09:37:41.424318
3354  2023-10-31 09:37:41.456201
3355  2023-10-31 09:37:41.488152
3356  2023-10-31 09:37:41.520061
3357  2023-10-31 09:37:41.567896
3358  2023-10-31 09:37:41.599842
3359  2023-10-31 09:37:41.631726
3360  2023-10-31 09:37:41.663673
3361  2023-10-31 09:37:41.696553
3362  2023-10-31 09:37:41.727471
3363  2023-10-31 09:37:41.760383
3364  2023-10-31 09:37:41.792297
3365  2023-10-31 09:37:41.825213
3366  2023-10-31 09:37:41.856126
3367  2023-10-31 09:37:41.888045
3368  2023-10-31 09:37:41.919986
3369  2023-10-31 09:37:41.967891
3370  2023-10-31 09:37:41.999786
3371  2023-10-31 09:37:42.031694
3372  2023-10-31 09:37:42.063600
3373  2023-10-31 09:37:42.095524
3374  2023-10-31 09:37:42.128435
3375  2023-10-31 09:37:42.160354
3376  2023-10-31 09:37:42.192260
3377  2023-10-31 09:37:42.224187
3378  2023-10-31 09:37:42.256068
3379  2023-10-31 09:37:42.287997
3380  2023-10-31 09:37:42.319953
3381  2023-10-31 09:37:42.367797
3382  2023-10-31 09:37:42.399673
3383  2023-10-31 09:37:42.431587
3384  2023-10-31 09:37:42.463538
3385  2023-10-31 09:37:42.496450
3386  2023-10-31 09:37:42.528367
3387  2023-10-31 09:37:42.560282
3388  2023-10-31 09:37:42.592158
3389  2023-10-31 09:37:42.624117
3390  2023-10-31 09:37:42.656026
3391  2023-10-31 09:37:42.687940
3392  2023-10-31 09:37:42.719817
3393  2023-10-31 09:37:42.767723
3394  2023-10-31 09:37:42.799610
3395  2023-10-31 09:37:42.831518
3396  2023-10-31 09:37:42.864430
3397  2023-10-31 09:37:42.896374
3398  2023-10-31 09:37:42.928260
3399  2023-10-31 09:37:42.960211
3400  2023-10-31 09:37:42.992127
3401  2023-10-31 09:37:43.024035
3402  2023-10-31 09:37:43.055959
3403  2023-10-31 09:37:43.087863
3404  2023-10-31 09:37:43.119748
3405  2023-10-31 09:37:43.167622
3406  2023-10-31 09:37:43.199561
3407  2023-10-31 09:37:43.232447
3408  2023-10-31 09:37:43.264407
3409  2023-10-31 09:37:43.296277
3410  2023-10-31 09:37:43.328249
3411  2023-10-31 09:37:43.360139
3412  2023-10-31 09:37:43.392053
3413  2023-10-31 09:37:43.423962
3414  2023-10-31 09:37:43.455875
3415  2023-10-31 09:37:43.487804
3416  2023-10-31 09:37:43.519716
3417  2023-10-31 09:37:43.568548
3418  2023-10-31 09:37:43.599466
3419  2023-10-31 09:37:43.632378
3420  2023-10-31 09:37:43.664291
3421  2023-10-31 09:37:43.696233
3422  2023-10-31 09:37:43.728122
3423  2023-10-31 09:37:43.760073
3424  2023-10-31 09:37:43.791994
3425  2023-10-31 09:37:43.823867
3426  2023-10-31 09:37:43.855809
3427  2023-10-31 09:37:43.887722
3428  2023-10-31 09:37:43.919649
3429  2023-10-31 09:37:43.967483
3430  2023-10-31 09:37:44.000445
3431  2023-10-31 09:37:44.032309
3432  2023-10-31 09:37:44.064262
3433  2023-10-31 09:37:44.096167
3434  2023-10-31 09:37:44.128087
3435  2023-10-31 09:37:44.159966
3436  2023-10-31 09:37:44.191919
3437  2023-10-31 09:37:44.223831
3438  2023-10-31 09:37:44.255745
3439  2023-10-31 09:37:44.287663
3440  2023-10-31 09:37:44.319577
3441  2023-10-31 09:37:44.368447
3442  2023-10-31 09:37:44.400364
3443  2023-10-31 09:37:44.432289
3444  2023-10-31 09:37:44.464196
3445  2023-10-31 09:37:44.496106
3446  2023-10-31 09:37:44.527985
3447  2023-10-31 09:37:44.559950
3448  2023-10-31 09:37:44.591840
3449  2023-10-31 09:37:44.624724
3450  2023-10-31 09:37:44.656640
3451  2023-10-31 09:37:44.687589
3452  2023-10-31 09:37:44.719516
3453  2023-10-31 09:37:44.768370
3454  2023-10-31 09:37:44.800284
3455  2023-10-31 09:37:44.832171
3456  2023-10-31 09:37:44.864084
3457  2023-10-31 09:37:44.896035
3458  2023-10-31 09:37:44.927950
3459  2023-10-31 09:37:44.959858
3460  2023-10-31 09:37:44.991781
3461  2023-10-31 09:37:45.023691
3462  2023-10-31 09:37:45.055628
3463  2023-10-31 09:37:45.087516
3464  2023-10-31 09:37:45.119402
3465  2023-10-31 09:37:45.168280
3466  2023-10-31 09:37:45.200224
3467  2023-10-31 09:37:45.232143
3468  2023-10-31 09:37:45.264014
3469  2023-10-31 09:37:45.295974
3470  2023-10-31 09:37:45.327871
3471  2023-10-31 09:37:45.359794
3472  2023-10-31 09:37:45.391702
3473  2023-10-31 09:37:45.423631
3474  2023-10-31 09:37:45.455540
3475  2023-10-31 09:37:45.487455
3476  2023-10-31 09:37:45.520362
3477  2023-10-31 09:37:45.568203
3478  2023-10-31 09:37:45.600148
3479  2023-10-31 09:37:45.632031
3480  2023-10-31 09:37:45.663973
3481  2023-10-31 09:37:45.695889
3482  2023-10-31 09:37:45.727815
3483  2023-10-31 09:37:45.759737
3484  2023-10-31 09:37:45.792634
3485  2023-10-31 09:37:45.823548
3486  2023-10-31 09:37:45.855479
3487  2023-10-31 09:37:45.888391
3488  2023-10-31 09:37:45.920302
3489  2023-10-31 09:37:45.968170
3490  2023-10-31 09:37:46.000048
3491  2023-10-31 09:37:46.031995
3492  2023-10-31 09:37:46.063876
3493  2023-10-31 09:37:46.095844
3494  2023-10-31 09:37:46.127754
3495  2023-10-31 09:37:46.159670
3496  2023-10-31 09:37:46.191535
3497  2023-10-31 09:37:46.224446
3498  2023-10-31 09:37:46.256391
3499  2023-10-31 09:37:46.288277
3500  2023-10-31 09:37:46.320219
3501  2023-10-31 09:37:46.368063
3502  2023-10-31 09:37:46.400012
3503  2023-10-31 09:37:46.431893
3504  2023-10-31 09:37:46.463807
3505  2023-10-31 09:37:46.495757
3506  2023-10-31 09:37:46.527673
3507  2023-10-31 09:37:46.559590
3508  2023-10-31 09:37:46.592465
3509  2023-10-31 09:37:46.624378
3510  2023-10-31 09:37:46.656293
3511  2023-10-31 09:37:46.688237
3512  2023-10-31 09:37:46.720162
3513  2023-10-31 09:37:46.752037
3514  2023-10-31 09:37:46.799910
3515  2023-10-31 09:37:46.831823
3516  2023-10-31 09:37:46.863737
3517  2023-10-31 09:37:46.895680
3518  2023-10-31 09:37:46.927596
3519  2023-10-31 09:37:46.959512
3520  2023-10-31 09:37:46.992394
3521  2023-10-31 09:37:47.024308
3522  2023-10-31 09:37:47.056224
3523  2023-10-31 09:37:47.088177
3524  2023-10-31 09:37:47.120089
3525  2023-10-31 09:37:47.151967
3526  2023-10-31 09:37:47.199868
3527  2023-10-31 09:37:47.231754
3528  2023-10-31 09:37:47.263668
3529  2023-10-31 09:37:47.295627
3530  2023-10-31 09:37:47.327544
3531  2023-10-31 09:37:47.359449
3532  2023-10-31 09:37:47.392325
3533  2023-10-31 09:37:47.424239
3534  2023-10-31 09:37:47.456189
3535  2023-10-31 09:37:47.488099
3536  2023-10-31 09:37:47.519985
3537  2023-10-31 09:37:47.551898
3538  2023-10-31 09:37:47.599815
3539  2023-10-31 09:37:47.631734
3540  2023-10-31 09:37:47.663599
3541  2023-10-31 09:37:47.695551
3542  2023-10-31 09:37:47.728453
3543  2023-10-31 09:37:47.760383
3544  2023-10-31 09:37:47.792256
3545  2023-10-31 09:37:47.824172
3546  2023-10-31 09:37:47.856112
3547  2023-10-31 09:37:47.888038
3548  2023-10-31 09:37:47.919945
3549  2023-10-31 09:37:47.951830
3550  2023-10-31 09:37:47.999736
3551  2023-10-31 09:37:48.031653
3552  2023-10-31 09:37:48.063530
3553  2023-10-31 09:37:48.096442
3554  2023-10-31 09:37:48.128374
3555  2023-10-31 09:37:48.160313
3556  2023-10-31 09:37:48.192187
3557  2023-10-31 09:37:48.224110
3558  2023-10-31 09:37:48.256051
3559  2023-10-31 09:37:48.287936
3560  2023-10-31 09:37:48.319881
3561  2023-10-31 09:37:48.352757
