
1  2023-11-29 16:25:17.323879
2  2023-11-29 16:25:17.355786
3  2023-11-29 16:25:17.387700
4  2023-11-29 16:25:17.435625
5  2023-11-29 16:25:17.467384
6  2023-11-29 16:25:17.500299
7  2023-11-29 16:25:17.532221
8  2023-11-29 16:25:17.564258
9  2023-11-29 16:25:17.595715
10  2023-11-29 16:25:17.627597
11  2023-11-29 16:25:17.659562
12  2023-11-29 16:25:17.691462
13  2023-11-29 16:25:17.723349
14  2023-11-29 16:25:17.756253
15  2023-11-29 16:25:17.788168
16  2023-11-29 16:25:17.836072
17  2023-11-29 16:25:17.868000
18  2023-11-29 16:25:17.899869
19  2023-11-29 16:25:17.931783
20  2023-11-29 16:25:17.963698
21  2023-11-29 16:25:17.995613
22  2023-11-29 16:25:18.027527
23  2023-11-29 16:25:18.059462
24  2023-11-29 16:25:18.091377
25  2023-11-29 16:25:18.123347
26  2023-11-29 16:25:18.155437
27  2023-11-29 16:25:18.187306
28  2023-11-29 16:25:18.236175
29  2023-11-29 16:25:18.268121
30  2023-11-29 16:25:18.300046
31  2023-11-29 16:25:18.331919
32  2023-11-29 16:25:18.363834
33  2023-11-29 16:25:18.395763
34  2023-11-29 16:25:18.427663
35  2023-11-29 16:25:18.459579
36  2023-11-29 16:25:18.491769
37  2023-11-29 16:25:18.523719
38  2023-11-29 16:25:18.555612
39  2023-11-29 16:25:18.603481
40  2023-11-29 16:25:18.635395
41  2023-11-29 16:25:18.667310
42  2023-11-29 16:25:18.699748
43  2023-11-29 16:25:18.731670
44  2023-11-29 16:25:18.763592
45  2023-11-29 16:25:18.795508
46  2023-11-29 16:25:18.827422
47  2023-11-29 16:25:18.860336
48  2023-11-29 16:25:18.892249
49  2023-11-29 16:25:18.924163
50  2023-11-29 16:25:18.956139
51  2023-11-29 16:25:19.003955
52  2023-11-29 16:25:19.035870
53  2023-11-29 16:25:19.067782
54  2023-11-29 16:25:19.099699
55  2023-11-29 16:25:19.131652
56  2023-11-29 16:25:19.163563
57  2023-11-29 16:25:19.195490
58  2023-11-29 16:25:19.227395
59  2023-11-29 16:25:19.259402
60  2023-11-29 16:25:19.291324
61  2023-11-29 16:25:19.324200
62  2023-11-29 16:25:19.355276
63  2023-11-29 16:25:19.403147
64  2023-11-29 16:25:19.436061
65  2023-11-29 16:25:19.467976
66  2023-11-29 16:25:19.499978
67  2023-11-29 16:25:19.531893
68  2023-11-29 16:25:19.563808
69  2023-11-29 16:25:19.595689
70  2023-11-29 16:25:19.627646
71  2023-11-29 16:25:19.659564
72  2023-11-29 16:25:19.691548
73  2023-11-29 16:25:19.723471
74  2023-11-29 16:25:19.755386
75  2023-11-29 16:25:19.803258
76  2023-11-29 16:25:19.835219
77  2023-11-29 16:25:19.868163
78  2023-11-29 16:25:19.900032
79  2023-11-29 16:25:19.931947
80  2023-11-29 16:25:19.963860
81  2023-11-29 16:25:19.995707
82  2023-11-29 16:25:20.027628
83  2023-11-29 16:25:20.059544
84  2023-11-29 16:25:20.091465
85  2023-11-29 16:25:20.123380
86  2023-11-29 16:25:20.155280
87  2023-11-29 16:25:20.204156
88  2023-11-29 16:25:20.236069
89  2023-11-29 16:25:20.267977
90  2023-11-29 16:25:20.299902
91  2023-11-29 16:25:20.331807
92  2023-11-29 16:25:20.363737
93  2023-11-29 16:25:20.395638
94  2023-11-29 16:25:20.427635
95  2023-11-29 16:25:20.459522
96  2023-11-29 16:25:20.491496
97  2023-11-29 16:25:20.523533
98  2023-11-29 16:25:20.555513
99  2023-11-29 16:25:20.603434
100  2023-11-29 16:25:20.635299
101  2023-11-29 16:25:20.667262
102  2023-11-29 16:25:20.700156
103  2023-11-29 16:25:20.732040
104  2023-11-29 16:25:20.763986
105  2023-11-29 16:25:20.795901
106  2023-11-29 16:25:20.827825
107  2023-11-29 16:25:20.859809
108  2023-11-29 16:25:20.891800
109  2023-11-29 16:25:20.923765
110  2023-11-29 16:25:20.955680
111  2023-11-29 16:25:21.003551
112  2023-11-29 16:25:21.035512
113  2023-11-29 16:25:21.067382
114  2023-11-29 16:25:21.100293
115  2023-11-29 16:25:21.131257
116  2023-11-29 16:25:21.163165
117  2023-11-29 16:25:21.196038
118  2023-11-29 16:25:21.227967
119  2023-11-29 16:25:21.259899
120  2023-11-29 16:25:21.291780
121  2023-11-29 16:25:21.323695
122  2023-11-29 16:25:21.355620
123  2023-11-29 16:25:21.403512
124  2023-11-29 16:25:21.435365
125  2023-11-29 16:25:21.467343
126  2023-11-29 16:25:21.499260
127  2023-11-29 16:25:21.531174
128  2023-11-29 16:25:21.564150
129  2023-11-29 16:25:21.596138
130  2023-11-29 16:25:21.628053
131  2023-11-29 16:25:21.659592
132  2023-11-29 16:25:21.691508
133  2023-11-29 16:25:21.723452
134  2023-11-29 16:25:21.755341
135  2023-11-29 16:25:21.804207
136  2023-11-29 16:25:21.836146
137  2023-11-29 16:25:21.868060
138  2023-11-29 16:25:21.900053
139  2023-11-29 16:25:21.932002
140  2023-11-29 16:25:21.963882
141  2023-11-29 16:25:21.995798
142  2023-11-29 16:25:22.027712
143  2023-11-29 16:25:22.059702
144  2023-11-29 16:25:22.091643
145  2023-11-29 16:25:22.123564
146  2023-11-29 16:25:22.155448
147  2023-11-29 16:25:22.203396
148  2023-11-29 16:25:22.235312
149  2023-11-29 16:25:22.267222
150  2023-11-29 16:25:22.300143
151  2023-11-29 16:25:22.332041
152  2023-11-29 16:25:22.363439
153  2023-11-29 16:25:22.395354
154  2023-11-29 16:25:22.428266
155  2023-11-29 16:25:22.460181
156  2023-11-29 16:25:22.492095
157  2023-11-29 16:25:22.524009
158  2023-11-29 16:25:22.571924
159  2023-11-29 16:25:22.603892
160  2023-11-29 16:25:22.635807
161  2023-11-29 16:25:22.667756
162  2023-11-29 16:25:22.699715
163  2023-11-29 16:25:22.731722
164  2023-11-29 16:25:22.763639
165  2023-11-29 16:25:22.795519
166  2023-11-29 16:25:22.827470
167  2023-11-29 16:25:22.859350
168  2023-11-29 16:25:22.892297
169  2023-11-29 16:25:22.924174
170  2023-11-29 16:25:22.972112
171  2023-11-29 16:25:23.003991
172  2023-11-29 16:25:23.035876
173  2023-11-29 16:25:23.067790
174  2023-11-29 16:25:23.099742
175  2023-11-29 16:25:23.131741
176  2023-11-29 16:25:23.163698
177  2023-11-29 16:25:23.195700
178  2023-11-29 16:25:23.227613
179  2023-11-29 16:25:23.259529
180  2023-11-29 16:25:23.291447
181  2023-11-29 16:25:23.324325
182  2023-11-29 16:25:23.372196
183  2023-11-29 16:25:23.404113
184  2023-11-29 16:25:23.436062
185  2023-11-29 16:25:23.467979
186  2023-11-29 16:25:23.499891
187  2023-11-29 16:25:23.531965
188  2023-11-29 16:25:23.563885
189  2023-11-29 16:25:23.595758
190  2023-11-29 16:25:23.627673
191  2023-11-29 16:25:23.659761
192  2023-11-29 16:25:23.691716
193  2023-11-29 16:25:23.723626
194  2023-11-29 16:25:23.771578
195  2023-11-29 16:25:23.803490
196  2023-11-29 16:25:23.835437
197  2023-11-29 16:25:23.867352
198  2023-11-29 16:25:23.899266
199  2023-11-29 16:25:23.932178
200  2023-11-29 16:25:23.964133
201  2023-11-29 16:25:23.996078
202  2023-11-29 16:25:24.027993
203  2023-11-29 16:25:24.059872
204  2023-11-29 16:25:24.091852
205  2023-11-29 16:25:24.123702
206  2023-11-29 16:25:24.171780
207  2023-11-29 16:25:24.203692
208  2023-11-29 16:25:24.235606
209  2023-11-29 16:25:24.267527
210  2023-11-29 16:25:24.299451
211  2023-11-29 16:25:24.331362
212  2023-11-29 16:25:24.363264
213  2023-11-29 16:25:24.396183
214  2023-11-29 16:25:24.428098
215  2023-11-29 16:25:24.460010
216  2023-11-29 16:25:24.491890
217  2023-11-29 16:25:24.523819
218  2023-11-29 16:25:24.571676
219  2023-11-29 16:25:24.604650
220  2023-11-29 16:25:24.635505
221  2023-11-29 16:25:24.667462
222  2023-11-29 16:25:24.700334
223  2023-11-29 16:25:24.732249
224  2023-11-29 16:25:24.764195
225  2023-11-29 16:25:24.796077
226  2023-11-29 16:25:24.828022
227  2023-11-29 16:25:24.859962
228  2023-11-29 16:25:24.891873
229  2023-11-29 16:25:24.923855
230  2023-11-29 16:25:24.971726
231  2023-11-29 16:25:25.003704
232  2023-11-29 16:25:25.035597
233  2023-11-29 16:25:25.067470
234  2023-11-29 16:25:25.099431
235  2023-11-29 16:25:25.131344
236  2023-11-29 16:25:25.163250
237  2023-11-29 16:25:25.196135
238  2023-11-29 16:25:25.228126
239  2023-11-29 16:25:25.260113
240  2023-11-29 16:25:25.291987
241  2023-11-29 16:25:25.323949
242  2023-11-29 16:25:25.371797
243  2023-11-29 16:25:25.403711
244  2023-11-29 16:25:25.435640
245  2023-11-29 16:25:25.467509
246  2023-11-29 16:25:25.499469
247  2023-11-29 16:25:25.532337
248  2023-11-29 16:25:25.564297
249  2023-11-29 16:25:25.596203
250  2023-11-29 16:25:25.628080
251  2023-11-29 16:25:25.660046
252  2023-11-29 16:25:25.691958
253  2023-11-29 16:25:25.723824
254  2023-11-29 16:25:25.771755
255  2023-11-29 16:25:25.803652
256  2023-11-29 16:25:25.835557
257  2023-11-29 16:25:25.867478
258  2023-11-29 16:25:25.899354
259  2023-11-29 16:25:25.931339
260  2023-11-29 16:25:25.964195
261  2023-11-29 16:25:25.996153
262  2023-11-29 16:25:26.028011
263  2023-11-29 16:25:26.059972
264  2023-11-29 16:25:26.091839
265  2023-11-29 16:25:26.139741
266  2023-11-29 16:25:26.171656
267  2023-11-29 16:25:26.203587
268  2023-11-29 16:25:26.235517
269  2023-11-29 16:25:26.268435
270  2023-11-29 16:25:26.299311
271  2023-11-29 16:25:26.332244
272  2023-11-29 16:25:26.364142
273  2023-11-29 16:25:26.396110
274  2023-11-29 16:25:26.427989
275  2023-11-29 16:25:26.459856
276  2023-11-29 16:25:26.491819
277  2023-11-29 16:25:26.539673
278  2023-11-29 16:25:26.571608
279  2023-11-29 16:25:26.603487
280  2023-11-29 16:25:26.635455
281  2023-11-29 16:25:26.667334
282  2023-11-29 16:25:26.700257
283  2023-11-29 16:25:26.732192
284  2023-11-29 16:25:26.764090
285  2023-11-29 16:25:26.796005
286  2023-11-29 16:25:26.827917
287  2023-11-29 16:25:26.859823
288  2023-11-29 16:25:26.891735
289  2023-11-29 16:25:26.939648
290  2023-11-29 16:25:26.971532
291  2023-11-29 16:25:27.003431
292  2023-11-29 16:25:27.035382
293  2023-11-29 16:25:27.067306
294  2023-11-29 16:25:27.100222
295  2023-11-29 16:25:27.132090
296  2023-11-29 16:25:27.164003
297  2023-11-29 16:25:27.195918
298  2023-11-29 16:25:27.227841
299  2023-11-29 16:25:27.259789
300  2023-11-29 16:25:27.291893
301  2023-11-29 16:25:27.339754
302  2023-11-29 16:25:27.371676
303  2023-11-29 16:25:27.403599
304  2023-11-29 16:25:27.435515
305  2023-11-29 16:25:27.467428
306  2023-11-29 16:25:27.499298
307  2023-11-29 16:25:27.532257
308  2023-11-29 16:25:27.564123
309  2023-11-29 16:25:27.596084
310  2023-11-29 16:25:27.627984
311  2023-11-29 16:25:27.659908
312  2023-11-29 16:25:27.691933
313  2023-11-29 16:25:27.739805
314  2023-11-29 16:25:27.771731
315  2023-11-29 16:25:27.803645
316  2023-11-29 16:25:27.835551
317  2023-11-29 16:25:27.867479
318  2023-11-29 16:25:27.899347
319  2023-11-29 16:25:27.932306
320  2023-11-29 16:25:27.964244
321  2023-11-29 16:25:27.996118
322  2023-11-29 16:25:28.028033
323  2023-11-29 16:25:28.059922
324  2023-11-29 16:25:28.091881
325  2023-11-29 16:25:28.139765
326  2023-11-29 16:25:28.171671
327  2023-11-29 16:25:28.203565
328  2023-11-29 16:25:28.235493
329  2023-11-29 16:25:28.267412
330  2023-11-29 16:25:28.299327
331  2023-11-29 16:25:28.332239
332  2023-11-29 16:25:28.364173
333  2023-11-29 16:25:28.396053
334  2023-11-29 16:25:28.427968
335  2023-11-29 16:25:28.459891
336  2023-11-29 16:25:28.491797
337  2023-11-29 16:25:28.539675
338  2023-11-29 16:25:28.571584
339  2023-11-29 16:25:28.603525
340  2023-11-29 16:25:28.635425
341  2023-11-29 16:25:28.667343
342  2023-11-29 16:25:28.699253
343  2023-11-29 16:25:28.732175
344  2023-11-29 16:25:28.764069
345  2023-11-29 16:25:28.795980
346  2023-11-29 16:25:28.827918
347  2023-11-29 16:25:28.859810
348  2023-11-29 16:25:28.891733
349  2023-11-29 16:25:28.940567
350  2023-11-29 16:25:28.971540
351  2023-11-29 16:25:29.003424
352  2023-11-29 16:25:29.036305
353  2023-11-29 16:25:29.068220
354  2023-11-29 16:25:29.099183
355  2023-11-29 16:25:29.132081
356  2023-11-29 16:25:29.164005
357  2023-11-29 16:25:29.195878
358  2023-11-29 16:25:29.227938
359  2023-11-29 16:25:29.259791
360  2023-11-29 16:25:29.291880
361  2023-11-29 16:25:29.339743
362  2023-11-29 16:25:29.371652
363  2023-11-29 16:25:29.403539
364  2023-11-29 16:25:29.435515
365  2023-11-29 16:25:29.467418
366  2023-11-29 16:25:29.499327
367  2023-11-29 16:25:29.531251
368  2023-11-29 16:25:29.564110
369  2023-11-29 16:25:29.596058
370  2023-11-29 16:25:29.627981
371  2023-11-29 16:25:29.659885
372  2023-11-29 16:25:29.691867
373  2023-11-29 16:25:29.739734
374  2023-11-29 16:25:29.771649
375  2023-11-29 16:25:29.803576
376  2023-11-29 16:25:29.835475
377  2023-11-29 16:25:29.867405
378  2023-11-29 16:25:29.899316
379  2023-11-29 16:25:29.932235
380  2023-11-29 16:25:29.963154
381  2023-11-29 16:25:29.996010
382  2023-11-29 16:25:30.027952
383  2023-11-29 16:25:30.059861
384  2023-11-29 16:25:30.107769
385  2023-11-29 16:25:30.139669
386  2023-11-29 16:25:30.171610
387  2023-11-29 16:25:30.203549
388  2023-11-29 16:25:30.235463
389  2023-11-29 16:25:30.267391
390  2023-11-29 16:25:30.299302
391  2023-11-29 16:25:30.332225
392  2023-11-29 16:25:30.364146
393  2023-11-29 16:25:30.396046
394  2023-11-29 16:25:30.427947
395  2023-11-29 16:25:30.459982
396  2023-11-29 16:25:30.507842
397  2023-11-29 16:25:30.539760
398  2023-11-29 16:25:30.571682
399  2023-11-29 16:25:30.603601
400  2023-11-29 16:25:30.635519
401  2023-11-29 16:25:30.667433
402  2023-11-29 16:25:30.699349
403  2023-11-29 16:25:30.731262
404  2023-11-29 16:25:30.764162
405  2023-11-29 16:25:30.796074
406  2023-11-29 16:25:30.827990
407  2023-11-29 16:25:30.859903
408  2023-11-29 16:25:30.907796
409  2023-11-29 16:25:30.939705
410  2023-11-29 16:25:30.971625
411  2023-11-29 16:25:31.003525
412  2023-11-29 16:25:31.035447
413  2023-11-29 16:25:31.067368
414  2023-11-29 16:25:31.099280
415  2023-11-29 16:25:31.132181
416  2023-11-29 16:25:31.164092
417  2023-11-29 16:25:31.196006
418  2023-11-29 16:25:31.227937
419  2023-11-29 16:25:31.259852
420  2023-11-29 16:25:31.307701
421  2023-11-29 16:25:31.339632
422  2023-11-29 16:25:31.371541
423  2023-11-29 16:25:31.404443
424  2023-11-29 16:25:31.436332
425  2023-11-29 16:25:31.467281
426  2023-11-29 16:25:31.500216
427  2023-11-29 16:25:31.532075
428  2023-11-29 16:25:31.564031
429  2023-11-29 16:25:31.596058
430  2023-11-29 16:25:31.627983
431  2023-11-29 16:25:31.659899
432  2023-11-29 16:25:31.707728
433  2023-11-29 16:25:31.739692
434  2023-11-29 16:25:31.771558
435  2023-11-29 16:25:31.803502
436  2023-11-29 16:25:31.835433
437  2023-11-29 16:25:31.867335
438  2023-11-29 16:25:31.899256
439  2023-11-29 16:25:31.932164
440  2023-11-29 16:25:31.964098
441  2023-11-29 16:25:31.995996
442  2023-11-29 16:25:32.027907
443  2023-11-29 16:25:32.059828
444  2023-11-29 16:25:32.107819
445  2023-11-29 16:25:32.139753
446  2023-11-29 16:25:32.171676
447  2023-11-29 16:25:32.203603
448  2023-11-29 16:25:32.235522
449  2023-11-29 16:25:32.267491
450  2023-11-29 16:25:32.299401
451  2023-11-29 16:25:32.331314
452  2023-11-29 16:25:32.363235
453  2023-11-29 16:25:32.396138
454  2023-11-29 16:25:32.428052
455  2023-11-29 16:25:32.459956
456  2023-11-29 16:25:32.507822
457  2023-11-29 16:25:32.539752
458  2023-11-29 16:25:32.571661
459  2023-11-29 16:25:32.603575
460  2023-11-29 16:25:32.635489
461  2023-11-29 16:25:32.667515
462  2023-11-29 16:25:32.699418
463  2023-11-29 16:25:32.731449
464  2023-11-29 16:25:32.763436
465  2023-11-29 16:25:32.795348
466  2023-11-29 16:25:32.827257
467  2023-11-29 16:25:32.859481
468  2023-11-29 16:25:32.907454
469  2023-11-29 16:25:32.939389
470  2023-11-29 16:25:32.971294
471  2023-11-29 16:25:33.004222
472  2023-11-29 16:25:33.035123
473  2023-11-29 16:25:33.068033
474  2023-11-29 16:25:33.099935
475  2023-11-29 16:25:33.131867
476  2023-11-29 16:25:33.163774
477  2023-11-29 16:25:33.195692
478  2023-11-29 16:25:33.227609
479  2023-11-29 16:25:33.259525
480  2023-11-29 16:25:33.307349
481  2023-11-29 16:25:33.339313
482  2023-11-29 16:25:33.371210
483  2023-11-29 16:25:33.404125
484  2023-11-29 16:25:33.436040
485  2023-11-29 16:25:33.467954
486  2023-11-29 16:25:33.499878
487  2023-11-29 16:25:33.531784
488  2023-11-29 16:25:33.563696
489  2023-11-29 16:25:33.595608
490  2023-11-29 16:25:33.627519
491  2023-11-29 16:25:33.675410
492  2023-11-29 16:25:33.707279
493  2023-11-29 16:25:33.740192
494  2023-11-29 16:25:33.772159
495  2023-11-29 16:25:33.804054
496  2023-11-29 16:25:33.835979
497  2023-11-29 16:25:33.867891
498  2023-11-29 16:25:33.899766
499  2023-11-29 16:25:33.931735
500  2023-11-29 16:25:33.963640
501  2023-11-29 16:25:33.995554
502  2023-11-29 16:25:34.027464
503  2023-11-29 16:25:34.075330
504  2023-11-29 16:25:34.107209
505  2023-11-29 16:25:34.139156
506  2023-11-29 16:25:34.172079
507  2023-11-29 16:25:34.203981
508  2023-11-29 16:25:34.235895
509  2023-11-29 16:25:34.267821
510  2023-11-29 16:25:34.299696
511  2023-11-29 16:25:34.331674
512  2023-11-29 16:25:34.363561
513  2023-11-29 16:25:34.395537
514  2023-11-29 16:25:34.427542
515  2023-11-29 16:25:34.475479
516  2023-11-29 16:25:34.507478
517  2023-11-29 16:25:34.539439
518  2023-11-29 16:25:34.571502
519  2023-11-29 16:25:34.603364
520  2023-11-29 16:25:34.635404
521  2023-11-29 16:25:34.667324
522  2023-11-29 16:25:34.699233
523  2023-11-29 16:25:34.732134
524  2023-11-29 16:25:34.764057
525  2023-11-29 16:25:34.795973
526  2023-11-29 16:25:34.827876
527  2023-11-29 16:25:34.875716
528  2023-11-29 16:25:34.907677
529  2023-11-29 16:25:34.939545
530  2023-11-29 16:25:34.971521
531  2023-11-29 16:25:35.003424
532  2023-11-29 16:25:35.035341
533  2023-11-29 16:25:35.067247
534  2023-11-29 16:25:35.099163
535  2023-11-29 16:25:35.132061
536  2023-11-29 16:25:35.163976
537  2023-11-29 16:25:35.195890
538  2023-11-29 16:25:35.227774
539  2023-11-29 16:25:35.275738
540  2023-11-29 16:25:35.307659
541  2023-11-29 16:25:35.339607
542  2023-11-29 16:25:35.371531
543  2023-11-29 16:25:35.403443
544  2023-11-29 16:25:35.435365
545  2023-11-29 16:25:35.468270
546  2023-11-29 16:25:35.500193
547  2023-11-29 16:25:35.532094
548  2023-11-29 16:25:35.564019
549  2023-11-29 16:25:35.595914
550  2023-11-29 16:25:35.627840
551  2023-11-29 16:25:35.675668
552  2023-11-29 16:25:35.707582
553  2023-11-29 16:25:35.739535
554  2023-11-29 16:25:35.771412
555  2023-11-29 16:25:35.803373
556  2023-11-29 16:25:35.835284
557  2023-11-29 16:25:35.868179
558  2023-11-29 16:25:35.900101
559  2023-11-29 16:25:35.932013
560  2023-11-29 16:25:35.964075
561  2023-11-29 16:25:35.995862
562  2023-11-29 16:25:36.027795
563  2023-11-29 16:25:36.075689
564  2023-11-29 16:25:36.107619
565  2023-11-29 16:25:36.139601
566  2023-11-29 16:25:36.171522
567  2023-11-29 16:25:36.203410
568  2023-11-29 16:25:36.236350
569  2023-11-29 16:25:36.268225
570  2023-11-29 16:25:36.300143
571  2023-11-29 16:25:36.332057
572  2023-11-29 16:25:36.363935
573  2023-11-29 16:25:36.395849
574  2023-11-29 16:25:36.427821
575  2023-11-29 16:25:36.475635
576  2023-11-29 16:25:36.507550
577  2023-11-29 16:25:36.539500
578  2023-11-29 16:25:36.571413
579  2023-11-29 16:25:36.604293
580  2023-11-29 16:25:36.636274
581  2023-11-29 16:25:36.667638
582  2023-11-29 16:25:36.699557
583  2023-11-29 16:25:36.731478
584  2023-11-29 16:25:36.763392
585  2023-11-29 16:25:36.795297
586  2023-11-29 16:25:36.828210
587  2023-11-29 16:25:36.876056
588  2023-11-29 16:25:36.907997
589  2023-11-29 16:25:36.939912
590  2023-11-29 16:25:36.971826
591  2023-11-29 16:25:37.003739
592  2023-11-29 16:25:37.035684
593  2023-11-29 16:25:37.067570
594  2023-11-29 16:25:37.099513
595  2023-11-29 16:25:37.131401
596  2023-11-29 16:25:37.163323
597  2023-11-29 16:25:37.195246
598  2023-11-29 16:25:37.244065
599  2023-11-29 16:25:37.275979
600  2023-11-29 16:25:37.307894
601  2023-11-29 16:25:37.339863
602  2023-11-29 16:25:37.371757
603  2023-11-29 16:25:37.403671
604  2023-11-29 16:25:37.435585
605  2023-11-29 16:25:37.467508
606  2023-11-29 16:25:37.499429
607  2023-11-29 16:25:37.531333
608  2023-11-29 16:25:37.563241
609  2023-11-29 16:25:37.595175
610  2023-11-29 16:25:37.643994
611  2023-11-29 16:25:37.675909
612  2023-11-29 16:25:37.707824
613  2023-11-29 16:25:37.739771
614  2023-11-29 16:25:37.771688
615  2023-11-29 16:25:37.803568
616  2023-11-29 16:25:37.835516
617  2023-11-29 16:25:37.867442
618  2023-11-29 16:25:37.899358
619  2023-11-29 16:25:37.932270
620  2023-11-29 16:25:37.964211
621  2023-11-29 16:25:37.996083
622  2023-11-29 16:25:38.043924
623  2023-11-29 16:25:38.075839
624  2023-11-29 16:25:38.107754
625  2023-11-29 16:25:38.139711
626  2023-11-29 16:25:38.171634
627  2023-11-29 16:25:38.203550
628  2023-11-29 16:25:38.235457
629  2023-11-29 16:25:38.268357
630  2023-11-29 16:25:38.300303
631  2023-11-29 16:25:38.332210
632  2023-11-29 16:25:38.364113
633  2023-11-29 16:25:38.396003
634  2023-11-29 16:25:38.443901
635  2023-11-29 16:25:38.475769
636  2023-11-29 16:25:38.507684
637  2023-11-29 16:25:38.539658
638  2023-11-29 16:25:38.571548
639  2023-11-29 16:25:38.603462
640  2023-11-29 16:25:38.635394
641  2023-11-29 16:25:38.667288
642  2023-11-29 16:25:38.700209
643  2023-11-29 16:25:38.732133
644  2023-11-29 16:25:38.764039
645  2023-11-29 16:25:38.795960
646  2023-11-29 16:25:38.843784
647  2023-11-29 16:25:38.875699
648  2023-11-29 16:25:38.907695
649  2023-11-29 16:25:38.939596
650  2023-11-29 16:25:38.971512
651  2023-11-29 16:25:39.003395
652  2023-11-29 16:25:39.035312
653  2023-11-29 16:25:39.067219
654  2023-11-29 16:25:39.099134
655  2023-11-29 16:25:39.132049
656  2023-11-29 16:25:39.163972
657  2023-11-29 16:25:39.195875
658  2023-11-29 16:25:39.243748
659  2023-11-29 16:25:39.275673
660  2023-11-29 16:25:39.307586
661  2023-11-29 16:25:39.339557
662  2023-11-29 16:25:39.371456
663  2023-11-29 16:25:39.403375
664  2023-11-29 16:25:39.435290
665  2023-11-29 16:25:39.467291
666  2023-11-29 16:25:39.499213
667  2023-11-29 16:25:39.532161
668  2023-11-29 16:25:39.564028
669  2023-11-29 16:25:39.595948
670  2023-11-29 16:25:39.643782
671  2023-11-29 16:25:39.675697
672  2023-11-29 16:25:39.707618
673  2023-11-29 16:25:39.739583
674  2023-11-29 16:25:39.771502
675  2023-11-29 16:25:39.803399
676  2023-11-29 16:25:39.835315
677  2023-11-29 16:25:39.867230
678  2023-11-29 16:25:39.900166
679  2023-11-29 16:25:39.932011
680  2023-11-29 16:25:39.963957
681  2023-11-29 16:25:39.995873
682  2023-11-29 16:25:40.044015
683  2023-11-29 16:25:40.075789
684  2023-11-29 16:25:40.107878
685  2023-11-29 16:25:40.139822
686  2023-11-29 16:25:40.171744
687  2023-11-29 16:25:40.203652
688  2023-11-29 16:25:40.236533
689  2023-11-29 16:25:40.267512
690  2023-11-29 16:25:40.299411
691  2023-11-29 16:25:40.332335
692  2023-11-29 16:25:40.364222
693  2023-11-29 16:25:40.396139
694  2023-11-29 16:25:40.443979
695  2023-11-29 16:25:40.475920
696  2023-11-29 16:25:40.507808
697  2023-11-29 16:25:40.539754
698  2023-11-29 16:25:40.571679
699  2023-11-29 16:25:40.603595
700  2023-11-29 16:25:40.635508
701  2023-11-29 16:25:40.667415
702  2023-11-29 16:25:40.699338
703  2023-11-29 16:25:40.731257
704  2023-11-29 16:25:40.763169
705  2023-11-29 16:25:40.796079
706  2023-11-29 16:25:40.843908
707  2023-11-29 16:25:40.875823
708  2023-11-29 16:25:40.907784
709  2023-11-29 16:25:40.939652
710  2023-11-29 16:25:40.971615
711  2023-11-29 16:25:41.003514
712  2023-11-29 16:25:41.035428
713  2023-11-29 16:25:41.067350
714  2023-11-29 16:25:41.099225
715  2023-11-29 16:25:41.131172
716  2023-11-29 16:25:41.164127
717  2023-11-29 16:25:41.211923
718  2023-11-29 16:25:41.243838
719  2023-11-29 16:25:41.275753
720  2023-11-29 16:25:41.307667
721  2023-11-29 16:25:41.339637
722  2023-11-29 16:25:41.371527
723  2023-11-29 16:25:41.403651
724  2023-11-29 16:25:41.435527
725  2023-11-29 16:25:41.467452
726  2023-11-29 16:25:41.499352
727  2023-11-29 16:25:41.531278
728  2023-11-29 16:25:41.563183
729  2023-11-29 16:25:41.612016
730  2023-11-29 16:25:41.643930
731  2023-11-29 16:25:41.675845
732  2023-11-29 16:25:41.707759
733  2023-11-29 16:25:41.739674
734  2023-11-29 16:25:41.771624
735  2023-11-29 16:25:41.803534
736  2023-11-29 16:25:41.835449
737  2023-11-29 16:25:41.867363
738  2023-11-29 16:25:41.900245
739  2023-11-29 16:25:41.932197
740  2023-11-29 16:25:41.964074
741  2023-11-29 16:25:42.011945
742  2023-11-29 16:25:42.043866
743  2023-11-29 16:25:42.075777
744  2023-11-29 16:25:42.107691
745  2023-11-29 16:25:42.139650
746  2023-11-29 16:25:42.171564
747  2023-11-29 16:25:42.203494
748  2023-11-29 16:25:42.236397
749  2023-11-29 16:25:42.267307
750  2023-11-29 16:25:42.300203
751  2023-11-29 16:25:42.332192
752  2023-11-29 16:25:42.363192
753  2023-11-29 16:25:42.412079
754  2023-11-29 16:25:42.444021
755  2023-11-29 16:25:42.475859
756  2023-11-29 16:25:42.507779
757  2023-11-29 16:25:42.539738
758  2023-11-29 16:25:42.571633
759  2023-11-29 16:25:42.604562
760  2023-11-29 16:25:42.635494
761  2023-11-29 16:25:42.667346
762  2023-11-29 16:25:42.700291
763  2023-11-29 16:25:42.732188
764  2023-11-29 16:25:42.764169
765  2023-11-29 16:25:42.811964
766  2023-11-29 16:25:42.843874
767  2023-11-29 16:25:42.875788
768  2023-11-29 16:25:42.908661
769  2023-11-29 16:25:42.939760
770  2023-11-29 16:25:42.971622
771  2023-11-29 16:25:43.003600
772  2023-11-29 16:25:43.035516
773  2023-11-29 16:25:43.067396
774  2023-11-29 16:25:43.100280
775  2023-11-29 16:25:43.132221
776  2023-11-29 16:25:43.164157
777  2023-11-29 16:25:43.211980
778  2023-11-29 16:25:43.243905
779  2023-11-29 16:25:43.275810
780  2023-11-29 16:25:43.307723
781  2023-11-29 16:25:43.339669
782  2023-11-29 16:25:43.371599
783  2023-11-29 16:25:43.403510
784  2023-11-29 16:25:43.435417
785  2023-11-29 16:25:43.467331
786  2023-11-29 16:25:43.499276
787  2023-11-29 16:25:43.531210
788  2023-11-29 16:25:43.564075
789  2023-11-29 16:25:43.611910
790  2023-11-29 16:25:43.643835
791  2023-11-29 16:25:43.675747
792  2023-11-29 16:25:43.707653
793  2023-11-29 16:25:43.739614
794  2023-11-29 16:25:43.772507
795  2023-11-29 16:25:43.804436
796  2023-11-29 16:25:43.836315
797  2023-11-29 16:25:43.868250
798  2023-11-29 16:25:43.900141
799  2023-11-29 16:25:43.932104
800  2023-11-29 16:25:43.963998
801  2023-11-29 16:25:44.011872
802  2023-11-29 16:25:44.043756
803  2023-11-29 16:25:44.076666
804  2023-11-29 16:25:44.108633
805  2023-11-29 16:25:44.139535
806  2023-11-29 16:25:44.171413
807  2023-11-29 16:25:44.203378
808  2023-11-29 16:25:44.235288
809  2023-11-29 16:25:44.267235
810  2023-11-29 16:25:44.300137
811  2023-11-29 16:25:44.332016
812  2023-11-29 16:25:44.363931
813  2023-11-29 16:25:44.411803
814  2023-11-29 16:25:44.443764
815  2023-11-29 16:25:44.475599
816  2023-11-29 16:25:44.507562
817  2023-11-29 16:25:44.539476
818  2023-11-29 16:25:44.571388
819  2023-11-29 16:25:44.603303
820  2023-11-29 16:25:44.636243
821  2023-11-29 16:25:44.668155
822  2023-11-29 16:25:44.700045
823  2023-11-29 16:25:44.731945
824  2023-11-29 16:25:44.779816
825  2023-11-29 16:25:44.811730
826  2023-11-29 16:25:44.843658
827  2023-11-29 16:25:44.875560
828  2023-11-29 16:25:44.907505
829  2023-11-29 16:25:44.939397
830  2023-11-29 16:25:44.971319
831  2023-11-29 16:25:45.003218
832  2023-11-29 16:25:45.035134
833  2023-11-29 16:25:45.068045
834  2023-11-29 16:25:45.099959
835  2023-11-29 16:25:45.131874
836  2023-11-29 16:25:45.179745
837  2023-11-29 16:25:45.211630
838  2023-11-29 16:25:45.243545
839  2023-11-29 16:25:45.275500
840  2023-11-29 16:25:45.307425
841  2023-11-29 16:25:45.339335
842  2023-11-29 16:25:45.371235
843  2023-11-29 16:25:45.403164
844  2023-11-29 16:25:45.436060
845  2023-11-29 16:25:45.467987
846  2023-11-29 16:25:45.499902
847  2023-11-29 16:25:45.531804
848  2023-11-29 16:25:45.579676
849  2023-11-29 16:25:45.611560
850  2023-11-29 16:25:45.643506
851  2023-11-29 16:25:45.675427
852  2023-11-29 16:25:45.707335
853  2023-11-29 16:25:45.739270
854  2023-11-29 16:25:45.771180
855  2023-11-29 16:25:45.804087
856  2023-11-29 16:25:45.835999
857  2023-11-29 16:25:45.867905
858  2023-11-29 16:25:45.899818
859  2023-11-29 16:25:45.931733
860  2023-11-29 16:25:45.979635
861  2023-11-29 16:25:46.011490
862  2023-11-29 16:25:46.043455
863  2023-11-29 16:25:46.076489
864  2023-11-29 16:25:46.108411
865  2023-11-29 16:25:46.139328
866  2023-11-29 16:25:46.172222
867  2023-11-29 16:25:46.204142
868  2023-11-29 16:25:46.236038
869  2023-11-29 16:25:46.267991
870  2023-11-29 16:25:46.299904
871  2023-11-29 16:25:46.331820
872  2023-11-29 16:25:46.379674
873  2023-11-29 16:25:46.411621
874  2023-11-29 16:25:46.443505
875  2023-11-29 16:25:46.475383
876  2023-11-29 16:25:46.507343
877  2023-11-29 16:25:46.539259
878  2023-11-29 16:25:46.572169
879  2023-11-29 16:25:46.604083
880  2023-11-29 16:25:46.635994
881  2023-11-29 16:25:46.667951
882  2023-11-29 16:25:46.699915
883  2023-11-29 16:25:46.731858
884  2023-11-29 16:25:46.779704
885  2023-11-29 16:25:46.811632
886  2023-11-29 16:25:46.843674
887  2023-11-29 16:25:46.875557
888  2023-11-29 16:25:46.907503
889  2023-11-29 16:25:46.939427
890  2023-11-29 16:25:46.971349
891  2023-11-29 16:25:47.003255
892  2023-11-29 16:25:47.035176
893  2023-11-29 16:25:47.068083
894  2023-11-29 16:25:47.100001
895  2023-11-29 16:25:47.131901
896  2023-11-29 16:25:47.179773
897  2023-11-29 16:25:47.211689
898  2023-11-29 16:25:47.243637
899  2023-11-29 16:25:47.275518
900  2023-11-29 16:25:47.307434
901  2023-11-29 16:25:47.339351
902  2023-11-29 16:25:47.371262
903  2023-11-29 16:25:47.403202
904  2023-11-29 16:25:47.435105
905  2023-11-29 16:25:47.468003
906  2023-11-29 16:25:47.499921
907  2023-11-29 16:25:47.531837
908  2023-11-29 16:25:47.579703
909  2023-11-29 16:25:47.611638
910  2023-11-29 16:25:47.643607
911  2023-11-29 16:25:47.675651
912  2023-11-29 16:25:47.707631
913  2023-11-29 16:25:47.739513
914  2023-11-29 16:25:47.771444
915  2023-11-29 16:25:47.803361
916  2023-11-29 16:25:47.835270
917  2023-11-29 16:25:47.867184
918  2023-11-29 16:25:47.900127
919  2023-11-29 16:25:47.931999
920  2023-11-29 16:25:47.979870
921  2023-11-29 16:25:48.011788
922  2023-11-29 16:25:48.043699
923  2023-11-29 16:25:48.075626
924  2023-11-29 16:25:48.107528
925  2023-11-29 16:25:48.139441
926  2023-11-29 16:25:48.171367
927  2023-11-29 16:25:48.203292
928  2023-11-29 16:25:48.235184
929  2023-11-29 16:25:48.268104
930  2023-11-29 16:25:48.300026
931  2023-11-29 16:25:48.331927
932  2023-11-29 16:25:48.379806
933  2023-11-29 16:25:48.411714
934  2023-11-29 16:25:48.443628
935  2023-11-29 16:25:48.475557
936  2023-11-29 16:25:48.507426
937  2023-11-29 16:25:48.539385
938  2023-11-29 16:25:48.571302
939  2023-11-29 16:25:48.603222
940  2023-11-29 16:25:48.636142
941  2023-11-29 16:25:48.668042
942  2023-11-29 16:25:48.699958
943  2023-11-29 16:25:48.747828
944  2023-11-29 16:25:48.779728
945  2023-11-29 16:25:48.811652
946  2023-11-29 16:25:48.843559
947  2023-11-29 16:25:48.875471
948  2023-11-29 16:25:48.907387
949  2023-11-29 16:25:48.939301
950  2023-11-29 16:25:48.971218
951  2023-11-29 16:25:49.003146
952  2023-11-29 16:25:49.036043
953  2023-11-29 16:25:49.068107
954  2023-11-29 16:25:49.099992
955  2023-11-29 16:25:49.147819
956  2023-11-29 16:25:49.179769
957  2023-11-29 16:25:49.211692
958  2023-11-29 16:25:49.243640
959  2023-11-29 16:25:49.275477
960  2023-11-29 16:25:49.307391
961  2023-11-29 16:25:49.339337
962  2023-11-29 16:25:49.371251
963  2023-11-29 16:25:49.404133
964  2023-11-29 16:25:49.436074
965  2023-11-29 16:25:49.467992
966  2023-11-29 16:25:49.499938
967  2023-11-29 16:25:49.547795
968  2023-11-29 16:25:49.579709
969  2023-11-29 16:25:49.611642
970  2023-11-29 16:25:49.643527
971  2023-11-29 16:25:49.675407
972  2023-11-29 16:25:49.707321
973  2023-11-29 16:25:49.739266
974  2023-11-29 16:25:49.771204
975  2023-11-29 16:25:49.804136
976  2023-11-29 16:25:49.836010
977  2023-11-29 16:25:49.867935
978  2023-11-29 16:25:49.899851
979  2023-11-29 16:25:49.947745
980  2023-11-29 16:25:49.979659
981  2023-11-29 16:25:50.011588
982  2023-11-29 16:25:50.043495
983  2023-11-29 16:25:50.075402
984  2023-11-29 16:25:50.107285
985  2023-11-29 16:25:50.139256
986  2023-11-29 16:25:50.171236
987  2023-11-29 16:25:50.203144
988  2023-11-29 16:25:50.236058
989  2023-11-29 16:25:50.267967
990  2023-11-29 16:25:50.299894
991  2023-11-29 16:25:50.347711
992  2023-11-29 16:25:50.379626
993  2023-11-29 16:25:50.411579
994  2023-11-29 16:25:50.443503
995  2023-11-29 16:25:50.475416
996  2023-11-29 16:25:50.507284
997  2023-11-29 16:25:50.539239
998  2023-11-29 16:25:50.571145
999  2023-11-29 16:25:50.604095
1000  2023-11-29 16:25:50.635987
1001  2023-11-29 16:25:50.667900
1002  2023-11-29 16:25:50.699816
1003  2023-11-29 16:25:50.747683
1004  2023-11-29 16:25:50.779556
1005  2023-11-29 16:25:50.811508
1006  2023-11-29 16:25:50.843417
1007  2023-11-29 16:25:50.875332
1008  2023-11-29 16:25:50.907214
1009  2023-11-29 16:25:50.939160
1010  2023-11-29 16:25:50.972082
1011  2023-11-29 16:25:51.004000
1012  2023-11-29 16:25:51.035914
1013  2023-11-29 16:25:51.067836
1014  2023-11-29 16:25:51.099731
1015  2023-11-29 16:25:51.147576
1016  2023-11-29 16:25:51.179486
1017  2023-11-29 16:25:51.211431
1018  2023-11-29 16:25:51.243346
1019  2023-11-29 16:25:51.275275
1020  2023-11-29 16:25:51.308142
1021  2023-11-29 16:25:51.340106
1022  2023-11-29 16:25:51.372012
1023  2023-11-29 16:25:51.403928
1024  2023-11-29 16:25:51.435846
1025  2023-11-29 16:25:51.467752
1026  2023-11-29 16:25:51.499669
1027  2023-11-29 16:25:51.547501
1028  2023-11-29 16:25:51.579416
1029  2023-11-29 16:25:51.611376
1030  2023-11-29 16:25:51.643278
1031  2023-11-29 16:25:51.675210
1032  2023-11-29 16:25:51.708071
1033  2023-11-29 16:25:51.740031
1034  2023-11-29 16:25:51.771931
1035  2023-11-29 16:25:51.803851
1036  2023-11-29 16:25:51.835790
1037  2023-11-29 16:25:51.867676
1038  2023-11-29 16:25:51.899616
1039  2023-11-29 16:25:51.947431
1040  2023-11-29 16:25:51.979346
1041  2023-11-29 16:25:52.011260
1042  2023-11-29 16:25:52.044172
1043  2023-11-29 16:25:52.076087
1044  2023-11-29 16:25:52.108001
1045  2023-11-29 16:25:52.139947
1046  2023-11-29 16:25:52.171863
1047  2023-11-29 16:25:52.203782
1048  2023-11-29 16:25:52.235691
1049  2023-11-29 16:25:52.267628
1050  2023-11-29 16:25:52.315446
1051  2023-11-29 16:25:52.347361
1052  2023-11-29 16:25:52.379276
1053  2023-11-29 16:25:52.411190
1054  2023-11-29 16:25:52.444104
1055  2023-11-29 16:25:52.476019
1056  2023-11-29 16:25:52.507936
1057  2023-11-29 16:25:52.539886
1058  2023-11-29 16:25:52.571763
1059  2023-11-29 16:25:52.603707
1060  2023-11-29 16:25:52.635654
1061  2023-11-29 16:25:52.667537
1062  2023-11-29 16:25:52.715376
1063  2023-11-29 16:25:52.747291
1064  2023-11-29 16:25:52.779237
1065  2023-11-29 16:25:52.812117
1066  2023-11-29 16:25:52.844034
1067  2023-11-29 16:25:52.875947
1068  2023-11-29 16:25:52.907916
1069  2023-11-29 16:25:52.939810
1070  2023-11-29 16:25:52.971723
1071  2023-11-29 16:25:53.003674
1072  2023-11-29 16:25:53.035570
1073  2023-11-29 16:25:53.067496
1074  2023-11-29 16:25:53.115356
1075  2023-11-29 16:25:53.147221
1076  2023-11-29 16:25:53.179135
1077  2023-11-29 16:25:53.212047
1078  2023-11-29 16:25:53.243991
1079  2023-11-29 16:25:53.275908
1080  2023-11-29 16:25:53.307791
1081  2023-11-29 16:25:53.339747
1082  2023-11-29 16:25:53.371671
1083  2023-11-29 16:25:53.403679
1084  2023-11-29 16:25:53.435644
1085  2023-11-29 16:25:53.467658
1086  2023-11-29 16:25:53.515470
1087  2023-11-29 16:25:53.547384
1088  2023-11-29 16:25:53.579299
1089  2023-11-29 16:25:53.611214
1090  2023-11-29 16:25:53.644125
1091  2023-11-29 16:25:53.676040
1092  2023-11-29 16:25:53.707965
1093  2023-11-29 16:25:53.739902
1094  2023-11-29 16:25:53.771838
1095  2023-11-29 16:25:53.803725
1096  2023-11-29 16:25:53.835655
1097  2023-11-29 16:25:53.867593
1098  2023-11-29 16:25:53.915400
1099  2023-11-29 16:25:53.947314
1100  2023-11-29 16:25:53.979229
1101  2023-11-29 16:25:54.011226
1102  2023-11-29 16:25:54.043142
1103  2023-11-29 16:25:54.076087
1104  2023-11-29 16:25:54.108001
1105  2023-11-29 16:25:54.139947
1106  2023-11-29 16:25:54.171864
1107  2023-11-29 16:25:54.203789
1108  2023-11-29 16:25:54.235696
1109  2023-11-29 16:25:54.267620
1110  2023-11-29 16:25:54.315446
1111  2023-11-29 16:25:54.347360
1112  2023-11-29 16:25:54.380272
1113  2023-11-29 16:25:54.412187
1114  2023-11-29 16:25:54.444104
1115  2023-11-29 16:25:54.476016
1116  2023-11-29 16:25:54.507931
1117  2023-11-29 16:25:54.539876
1118  2023-11-29 16:25:54.571793
1119  2023-11-29 16:25:54.603705
1120  2023-11-29 16:25:54.635645
1121  2023-11-29 16:25:54.667536
1122  2023-11-29 16:25:54.715376
1123  2023-11-29 16:25:54.747290
1124  2023-11-29 16:25:54.780238
1125  2023-11-29 16:25:54.812117
1126  2023-11-29 16:25:54.844047
1127  2023-11-29 16:25:54.875946
1128  2023-11-29 16:25:54.907913
1129  2023-11-29 16:25:54.939809
1130  2023-11-29 16:25:54.971722
1131  2023-11-29 16:25:55.003637
1132  2023-11-29 16:25:55.035570
1133  2023-11-29 16:25:55.067491
1134  2023-11-29 16:25:55.115339
1135  2023-11-29 16:25:55.147220
1136  2023-11-29 16:25:55.179136
1137  2023-11-29 16:25:55.212048
1138  2023-11-29 16:25:55.243963
1139  2023-11-29 16:25:55.275877
1140  2023-11-29 16:25:55.307792
1141  2023-11-29 16:25:55.339738
1142  2023-11-29 16:25:55.371661
1143  2023-11-29 16:25:55.403598
1144  2023-11-29 16:25:55.435543
1145  2023-11-29 16:25:55.467542
1146  2023-11-29 16:25:55.515382
1147  2023-11-29 16:25:55.547297
1148  2023-11-29 16:25:55.579212
1149  2023-11-29 16:25:55.612126
1150  2023-11-29 16:25:55.644038
1151  2023-11-29 16:25:55.675953
1152  2023-11-29 16:25:55.707880
1153  2023-11-29 16:25:55.739832
1154  2023-11-29 16:25:55.771728
1155  2023-11-29 16:25:55.803642
1156  2023-11-29 16:25:55.835571
1157  2023-11-29 16:25:55.883398
1158  2023-11-29 16:25:55.915313
1159  2023-11-29 16:25:55.947227
1160  2023-11-29 16:25:55.980139
1161  2023-11-29 16:25:56.012054
1162  2023-11-29 16:25:56.043969
1163  2023-11-29 16:25:56.075884
1164  2023-11-29 16:25:56.107923
1165  2023-11-29 16:25:56.139866
1166  2023-11-29 16:25:56.171816
1167  2023-11-29 16:25:56.203709
1168  2023-11-29 16:25:56.235664
1169  2023-11-29 16:25:56.283495
1170  2023-11-29 16:25:56.315365
1171  2023-11-29 16:25:56.347279
1172  2023-11-29 16:25:56.380191
1173  2023-11-29 16:25:56.411155
1174  2023-11-29 16:25:56.444057
1175  2023-11-29 16:25:56.475935
1176  2023-11-29 16:25:56.507850
1177  2023-11-29 16:25:56.539805
1178  2023-11-29 16:25:56.571720
1179  2023-11-29 16:25:56.603627
1180  2023-11-29 16:25:56.635505
1181  2023-11-29 16:25:56.683399
1182  2023-11-29 16:25:56.715314
1183  2023-11-29 16:25:56.748261
1184  2023-11-29 16:25:56.780191
1185  2023-11-29 16:25:56.812066
1186  2023-11-29 16:25:56.843970
1187  2023-11-29 16:25:56.875884
1188  2023-11-29 16:25:56.907799
1189  2023-11-29 16:25:56.939747
1190  2023-11-29 16:25:56.971662
1191  2023-11-29 16:25:57.003620
1192  2023-11-29 16:25:57.035508
1193  2023-11-29 16:25:57.083329
1194  2023-11-29 16:25:57.115243
1195  2023-11-29 16:25:57.148156
1196  2023-11-29 16:25:57.180072
1197  2023-11-29 16:25:57.211985
1198  2023-11-29 16:25:57.243899
1199  2023-11-29 16:25:57.275814
1200  2023-11-29 16:25:57.307729
1201  2023-11-29 16:25:57.339711
1202  2023-11-29 16:25:57.371614
1203  2023-11-29 16:25:57.403513
1204  2023-11-29 16:25:57.435435
1205  2023-11-29 16:25:57.484256
1206  2023-11-29 16:25:57.515173
1207  2023-11-29 16:25:57.548085
1208  2023-11-29 16:25:57.580000
1209  2023-11-29 16:25:57.611915
1210  2023-11-29 16:25:57.643835
1211  2023-11-29 16:25:57.675744
1212  2023-11-29 16:25:57.707709
1213  2023-11-29 16:25:57.739746
1214  2023-11-29 16:25:57.771668
1215  2023-11-29 16:25:57.803593
1216  2023-11-29 16:25:57.835493
1217  2023-11-29 16:25:57.883331
1218  2023-11-29 16:25:57.915246
1219  2023-11-29 16:25:57.947161
1220  2023-11-29 16:25:57.979108
1221  2023-11-29 16:25:58.011987
1222  2023-11-29 16:25:58.043902
1223  2023-11-29 16:25:58.075849
1224  2023-11-29 16:25:58.107775
1225  2023-11-29 16:25:58.139676
1226  2023-11-29 16:25:58.171607
1227  2023-11-29 16:25:58.203476
1228  2023-11-29 16:25:58.235440
1229  2023-11-29 16:25:58.283309
1230  2023-11-29 16:25:58.316222
1231  2023-11-29 16:25:58.348088
1232  2023-11-29 16:25:58.380002
1233  2023-11-29 16:25:58.411948
1234  2023-11-29 16:25:58.443862
1235  2023-11-29 16:25:58.475746
1236  2023-11-29 16:25:58.507661
1237  2023-11-29 16:25:58.539626
1238  2023-11-29 16:25:58.571540
1239  2023-11-29 16:25:58.603473
1240  2023-11-29 16:25:58.635350
1241  2023-11-29 16:25:58.684189
1242  2023-11-29 16:25:58.715105
1243  2023-11-29 16:25:58.748053
1244  2023-11-29 16:25:58.779967
1245  2023-11-29 16:25:58.811847
1246  2023-11-29 16:25:58.843761
1247  2023-11-29 16:25:58.875676
1248  2023-11-29 16:25:58.907591
1249  2023-11-29 16:25:58.939574
1250  2023-11-29 16:25:58.971455
1251  2023-11-29 16:25:59.003375
1252  2023-11-29 16:25:59.035281
1253  2023-11-29 16:25:59.083121
1254  2023-11-29 16:25:59.116036
1255  2023-11-29 16:25:59.147947
1256  2023-11-29 16:25:59.179862
1257  2023-11-29 16:25:59.211777
1258  2023-11-29 16:25:59.243691
1259  2023-11-29 16:25:59.275615
1260  2023-11-29 16:25:59.307520
1261  2023-11-29 16:25:59.339474
1262  2023-11-29 16:25:59.371384
1263  2023-11-29 16:25:59.403295
1264  2023-11-29 16:25:59.435224
1265  2023-11-29 16:25:59.484048
1266  2023-11-29 16:25:59.515963
1267  2023-11-29 16:25:59.547886
1268  2023-11-29 16:25:59.579792
1269  2023-11-29 16:25:59.611707
1270  2023-11-29 16:25:59.643661
1271  2023-11-29 16:25:59.675536
1272  2023-11-29 16:25:59.707455
1273  2023-11-29 16:25:59.740394
1274  2023-11-29 16:25:59.772281
1275  2023-11-29 16:25:59.804200
1276  2023-11-29 16:25:59.852064
1277  2023-11-29 16:25:59.883978
1278  2023-11-29 16:25:59.915893
1279  2023-11-29 16:25:59.947820
1280  2023-11-29 16:25:59.980767
1281  2023-11-29 16:26:00.012679
1282  2023-11-29 16:26:00.044583
1283  2023-11-29 16:26:00.076504
1284  2023-11-29 16:26:00.108405
1285  2023-11-29 16:26:00.140325
1286  2023-11-29 16:26:00.172256
1287  2023-11-29 16:26:00.204156
1288  2023-11-29 16:26:00.251995
1289  2023-11-29 16:26:00.283950
1290  2023-11-29 16:26:00.315898
1291  2023-11-29 16:26:00.347738
1292  2023-11-29 16:26:00.379652
1293  2023-11-29 16:26:00.411655
1294  2023-11-29 16:26:00.443545
1295  2023-11-29 16:26:00.476456
1296  2023-11-29 16:26:00.508357
1297  2023-11-29 16:26:00.539380
1298  2023-11-29 16:26:00.572281
1299  2023-11-29 16:26:00.603228
1300  2023-11-29 16:26:00.652052
1301  2023-11-29 16:26:00.683991
1302  2023-11-29 16:26:00.715886
1303  2023-11-29 16:26:00.747798
1304  2023-11-29 16:26:00.779709
1305  2023-11-29 16:26:00.811628
1306  2023-11-29 16:26:00.844538
1307  2023-11-29 16:26:00.875461
1308  2023-11-29 16:26:00.907369
1309  2023-11-29 16:26:00.939310
1310  2023-11-29 16:26:00.972164
1311  2023-11-29 16:26:01.004135
1312  2023-11-29 16:26:01.051961
1313  2023-11-29 16:26:01.083919
1314  2023-11-29 16:26:01.115788
1315  2023-11-29 16:26:01.147725
1316  2023-11-29 16:26:01.180642
1317  2023-11-29 16:26:01.211564
1318  2023-11-29 16:26:01.243478
1319  2023-11-29 16:26:01.276350
1320  2023-11-29 16:26:01.308264
1321  2023-11-29 16:26:01.340213
1322  2023-11-29 16:26:01.372161
1323  2023-11-29 16:26:01.404039
1324  2023-11-29 16:26:01.451880
1325  2023-11-29 16:26:01.483795
1326  2023-11-29 16:26:01.515753
1327  2023-11-29 16:26:01.547624
1328  2023-11-29 16:26:01.579571
1329  2023-11-29 16:26:01.611453
1330  2023-11-29 16:26:01.643382
1331  2023-11-29 16:26:01.675291
1332  2023-11-29 16:26:01.708251
1333  2023-11-29 16:26:01.740155
1334  2023-11-29 16:26:01.772110
1335  2023-11-29 16:26:01.803972
1336  2023-11-29 16:26:01.851810
1337  2023-11-29 16:26:01.883756
1338  2023-11-29 16:26:01.915670
1339  2023-11-29 16:26:01.947555
1340  2023-11-29 16:26:01.979468
1341  2023-11-29 16:26:02.011383
1342  2023-11-29 16:26:02.043298
1343  2023-11-29 16:26:02.075224
1344  2023-11-29 16:26:02.107127
1345  2023-11-29 16:26:02.140088
1346  2023-11-29 16:26:02.172017
1347  2023-11-29 16:26:02.203907
1348  2023-11-29 16:26:02.251740
1349  2023-11-29 16:26:02.283654
1350  2023-11-29 16:26:02.315607
1351  2023-11-29 16:26:02.347517
1352  2023-11-29 16:26:02.379431
1353  2023-11-29 16:26:02.411313
1354  2023-11-29 16:26:02.444225
1355  2023-11-29 16:26:02.476140
1356  2023-11-29 16:26:02.508084
1357  2023-11-29 16:26:02.540018
1358  2023-11-29 16:26:02.571919
1359  2023-11-29 16:26:02.603895
1360  2023-11-29 16:26:02.651808
1361  2023-11-29 16:26:02.683722
1362  2023-11-29 16:26:02.715702
1363  2023-11-29 16:26:02.747607
1364  2023-11-29 16:26:02.780464
1365  2023-11-29 16:26:02.811430
1366  2023-11-29 16:26:02.843294
1367  2023-11-29 16:26:02.876282
1368  2023-11-29 16:26:02.908160
1369  2023-11-29 16:26:02.940047
1370  2023-11-29 16:26:02.971982
1371  2023-11-29 16:26:03.003912
1372  2023-11-29 16:26:03.051737
1373  2023-11-29 16:26:03.083651
1374  2023-11-29 16:26:03.115601
1375  2023-11-29 16:26:03.147553
1376  2023-11-29 16:26:03.179441
1377  2023-11-29 16:26:03.211364
1378  2023-11-29 16:26:03.243271
1379  2023-11-29 16:26:03.276188
1380  2023-11-29 16:26:03.308103
1381  2023-11-29 16:26:03.340007
1382  2023-11-29 16:26:03.371910
1383  2023-11-29 16:26:03.419801
1384  2023-11-29 16:26:03.451701
1385  2023-11-29 16:26:03.483624
1386  2023-11-29 16:26:03.515496
1387  2023-11-29 16:26:03.547474
1388  2023-11-29 16:26:03.579366
1389  2023-11-29 16:26:03.611290
1390  2023-11-29 16:26:03.643155
1391  2023-11-29 16:26:03.676066
1392  2023-11-29 16:26:03.708023
1393  2023-11-29 16:26:03.739941
1394  2023-11-29 16:26:03.771843
1395  2023-11-29 16:26:03.819715
1396  2023-11-29 16:26:03.851644
1397  2023-11-29 16:26:03.883516
1398  2023-11-29 16:26:03.915426
1399  2023-11-29 16:26:03.947388
1400  2023-11-29 16:26:03.979398
1401  2023-11-29 16:26:04.011311
1402  2023-11-29 16:26:04.043232
1403  2023-11-29 16:26:04.076143
1404  2023-11-29 16:26:04.108071
1405  2023-11-29 16:26:04.139965
1406  2023-11-29 16:26:04.171884
1407  2023-11-29 16:26:04.219742
1408  2023-11-29 16:26:04.251652
1409  2023-11-29 16:26:04.283592
1410  2023-11-29 16:26:04.315488
1411  2023-11-29 16:26:04.347412
1412  2023-11-29 16:26:04.379327
1413  2023-11-29 16:26:04.411241
1414  2023-11-29 16:26:04.443186
1415  2023-11-29 16:26:04.476022
1416  2023-11-29 16:26:04.507973
1417  2023-11-29 16:26:04.539896
1418  2023-11-29 16:26:04.571911
1419  2023-11-29 16:26:04.619782
1420  2023-11-29 16:26:04.651695
1421  2023-11-29 16:26:04.683579
1422  2023-11-29 16:26:04.715649
1423  2023-11-29 16:26:04.747544
1424  2023-11-29 16:26:04.779458
1425  2023-11-29 16:26:04.811390
1426  2023-11-29 16:26:04.843254
1427  2023-11-29 16:26:04.876217
1428  2023-11-29 16:26:04.908128
1429  2023-11-29 16:26:04.940033
1430  2023-11-29 16:26:04.971949
1431  2023-11-29 16:26:05.019812
1432  2023-11-29 16:26:05.051730
1433  2023-11-29 16:26:05.083644
1434  2023-11-29 16:26:05.115572
1435  2023-11-29 16:26:05.147479
1436  2023-11-29 16:26:05.179387
1437  2023-11-29 16:26:05.211315
1438  2023-11-29 16:26:05.243217
1439  2023-11-29 16:26:05.276096
1440  2023-11-29 16:26:05.308041
1441  2023-11-29 16:26:05.339969
1442  2023-11-29 16:26:05.371878
1443  2023-11-29 16:26:05.419744
1444  2023-11-29 16:26:05.451669
1445  2023-11-29 16:26:05.483600
1446  2023-11-29 16:26:05.515456
1447  2023-11-29 16:26:05.547419
1448  2023-11-29 16:26:05.579328
1449  2023-11-29 16:26:05.611246
1450  2023-11-29 16:26:05.643153
1451  2023-11-29 16:26:05.676026
1452  2023-11-29 16:26:05.707971
1453  2023-11-29 16:26:05.739891
1454  2023-11-29 16:26:05.771803
1455  2023-11-29 16:26:05.819675
1456  2023-11-29 16:26:05.851602
1457  2023-11-29 16:26:05.883663
1458  2023-11-29 16:26:05.915568
1459  2023-11-29 16:26:05.947730
1460  2023-11-29 16:26:05.979549
1461  2023-11-29 16:26:06.011554
1462  2023-11-29 16:26:06.043464
1463  2023-11-29 16:26:06.075389
1464  2023-11-29 16:26:06.108293
1465  2023-11-29 16:26:06.140232
1466  2023-11-29 16:26:06.171125
1467  2023-11-29 16:26:06.220012
1468  2023-11-29 16:26:06.251932
1469  2023-11-29 16:26:06.283820
1470  2023-11-29 16:26:06.315704
1471  2023-11-29 16:26:06.347618
1472  2023-11-29 16:26:06.379617
1473  2023-11-29 16:26:06.412472
1474  2023-11-29 16:26:06.444427
1475  2023-11-29 16:26:06.475277
1476  2023-11-29 16:26:06.508224
1477  2023-11-29 16:26:06.540165
1478  2023-11-29 16:26:06.572069
1479  2023-11-29 16:26:06.619934
1480  2023-11-29 16:26:06.651832
1481  2023-11-29 16:26:06.683751
1482  2023-11-29 16:26:06.715677
1483  2023-11-29 16:26:06.747548
1484  2023-11-29 16:26:06.779497
1485  2023-11-29 16:26:06.811410
1486  2023-11-29 16:26:06.843334
1487  2023-11-29 16:26:06.876248
1488  2023-11-29 16:26:06.908169
1489  2023-11-29 16:26:06.940129
1490  2023-11-29 16:26:06.971985
1491  2023-11-29 16:26:07.020012
1492  2023-11-29 16:26:07.051937
1493  2023-11-29 16:26:07.083853
1494  2023-11-29 16:26:07.115826
1495  2023-11-29 16:26:07.147838
1496  2023-11-29 16:26:07.179766
1497  2023-11-29 16:26:07.211678
1498  2023-11-29 16:26:07.243620
1499  2023-11-29 16:26:07.275465
1500  2023-11-29 16:26:07.307379
1501  2023-11-29 16:26:07.339327
1502  2023-11-29 16:26:07.387215
1503  2023-11-29 16:26:07.419130
1504  2023-11-29 16:26:07.452064
1505  2023-11-29 16:26:07.483949
1506  2023-11-29 16:26:07.515822
1507  2023-11-29 16:26:07.547770
1508  2023-11-29 16:26:07.579686
1509  2023-11-29 16:26:07.611636
1510  2023-11-29 16:26:07.643516
1511  2023-11-29 16:26:07.675461
1512  2023-11-29 16:26:07.707344
1513  2023-11-29 16:26:07.739273
1514  2023-11-29 16:26:07.787145
1515  2023-11-29 16:26:07.820009
1516  2023-11-29 16:26:07.851954
1517  2023-11-29 16:26:07.883898
1518  2023-11-29 16:26:07.915782
1519  2023-11-29 16:26:07.947710
1520  2023-11-29 16:26:07.979581
1521  2023-11-29 16:26:08.011532
1522  2023-11-29 16:26:08.043455
1523  2023-11-29 16:26:08.075385
1524  2023-11-29 16:26:08.108256
1525  2023-11-29 16:26:08.139203
1526  2023-11-29 16:26:08.188023
1527  2023-11-29 16:26:08.220073
1528  2023-11-29 16:26:08.252037
1529  2023-11-29 16:26:08.283962
1530  2023-11-29 16:26:08.315844
1531  2023-11-29 16:26:08.347732
1532  2023-11-29 16:26:08.379647
1533  2023-11-29 16:26:08.411652
1534  2023-11-29 16:26:08.444500
1535  2023-11-29 16:26:08.475429
1536  2023-11-29 16:26:08.507305
1537  2023-11-29 16:26:08.540265
1538  2023-11-29 16:26:08.588099
1539  2023-11-29 16:26:08.620004
1540  2023-11-29 16:26:08.651972
1541  2023-11-29 16:26:08.683864
1542  2023-11-29 16:26:08.715799
1543  2023-11-29 16:26:08.747662
1544  2023-11-29 16:26:08.779630
1545  2023-11-29 16:26:08.811530
1546  2023-11-29 16:26:08.843439
1547  2023-11-29 16:26:08.875371
1548  2023-11-29 16:26:08.907267
1549  2023-11-29 16:26:08.939195
1550  2023-11-29 16:26:08.987068
1551  2023-11-29 16:26:09.019933
1552  2023-11-29 16:26:09.051899
1553  2023-11-29 16:26:09.083793
1554  2023-11-29 16:26:09.115710
1555  2023-11-29 16:26:09.147592
1556  2023-11-29 16:26:09.179507
1557  2023-11-29 16:26:09.211457
1558  2023-11-29 16:26:09.243367
1559  2023-11-29 16:26:09.275300
1560  2023-11-29 16:26:09.308170
1561  2023-11-29 16:26:09.340119
1562  2023-11-29 16:26:09.387060
1563  2023-11-29 16:26:09.419972
1564  2023-11-29 16:26:09.451918
1565  2023-11-29 16:26:09.483801
1566  2023-11-29 16:26:09.515716
1567  2023-11-29 16:26:09.547630
1568  2023-11-29 16:26:09.579583
1569  2023-11-29 16:26:09.611491
1570  2023-11-29 16:26:09.643374
1571  2023-11-29 16:26:09.675340
1572  2023-11-29 16:26:09.707203
1573  2023-11-29 16:26:09.739164
1574  2023-11-29 16:26:09.787987
1575  2023-11-29 16:26:09.819901
1576  2023-11-29 16:26:09.851816
1577  2023-11-29 16:26:09.883731
1578  2023-11-29 16:26:09.915646
1579  2023-11-29 16:26:09.947560
1580  2023-11-29 16:26:09.979475
1581  2023-11-29 16:26:10.011389
1582  2023-11-29 16:26:10.043459
1583  2023-11-29 16:26:10.076216
1584  2023-11-29 16:26:10.108131
1585  2023-11-29 16:26:10.140047
1586  2023-11-29 16:26:10.187917
1587  2023-11-29 16:26:10.219831
1588  2023-11-29 16:26:10.251746
1589  2023-11-29 16:26:10.283661
1590  2023-11-29 16:26:10.315575
1591  2023-11-29 16:26:10.347490
1592  2023-11-29 16:26:10.379405
1593  2023-11-29 16:26:10.411319
1594  2023-11-29 16:26:10.443282
1595  2023-11-29 16:26:10.476146
1596  2023-11-29 16:26:10.508060
1597  2023-11-29 16:26:10.540039
1598  2023-11-29 16:26:10.587847
1599  2023-11-29 16:26:10.619761
1600  2023-11-29 16:26:10.651710
1601  2023-11-29 16:26:10.683591
1602  2023-11-29 16:26:10.715505
1603  2023-11-29 16:26:10.747420
1604  2023-11-29 16:26:10.779381
1605  2023-11-29 16:26:10.811250
1606  2023-11-29 16:26:10.843164
1607  2023-11-29 16:26:10.876076
1608  2023-11-29 16:26:10.908033
1609  2023-11-29 16:26:10.955894
1610  2023-11-29 16:26:10.987820
1611  2023-11-29 16:26:11.019691
1612  2023-11-29 16:26:11.051606
1613  2023-11-29 16:26:11.083521
1614  2023-11-29 16:26:11.115469
1615  2023-11-29 16:26:11.147350
1616  2023-11-29 16:26:11.179264
1617  2023-11-29 16:26:11.211179
1618  2023-11-29 16:26:11.244125
1619  2023-11-29 16:26:11.275093
1620  2023-11-29 16:26:11.308004
1621  2023-11-29 16:26:11.355876
1622  2023-11-29 16:26:11.387869
1623  2023-11-29 16:26:11.419784
1624  2023-11-29 16:26:11.451699
1625  2023-11-29 16:26:11.483613
1626  2023-11-29 16:26:11.515529
1627  2023-11-29 16:26:11.547442
1628  2023-11-29 16:26:11.579357
1629  2023-11-29 16:26:11.611272
1630  2023-11-29 16:26:11.643186
1631  2023-11-29 16:26:11.676098
1632  2023-11-29 16:26:11.708013
1633  2023-11-29 16:26:11.755885
1634  2023-11-29 16:26:11.787799
1635  2023-11-29 16:26:11.819714
1636  2023-11-29 16:26:11.851629
1637  2023-11-29 16:26:11.883543
1638  2023-11-29 16:26:11.915458
1639  2023-11-29 16:26:11.947372
1640  2023-11-29 16:26:11.979287
1641  2023-11-29 16:26:12.011202
1642  2023-11-29 16:26:12.043116
1643  2023-11-29 16:26:12.076028
1644  2023-11-29 16:26:12.107943
1645  2023-11-29 16:26:12.155815
1646  2023-11-29 16:26:12.187732
1647  2023-11-29 16:26:12.219646
1648  2023-11-29 16:26:12.251561
1649  2023-11-29 16:26:12.283473
1650  2023-11-29 16:26:12.315388
1651  2023-11-29 16:26:12.347302
1652  2023-11-29 16:26:12.379217
1653  2023-11-29 16:26:12.412129
1654  2023-11-29 16:26:12.444044
1655  2023-11-29 16:26:12.475959
1656  2023-11-29 16:26:12.508034
1657  2023-11-29 16:26:12.555905
1658  2023-11-29 16:26:12.587822
1659  2023-11-29 16:26:12.619734
1660  2023-11-29 16:26:12.651649
1661  2023-11-29 16:26:12.683564
1662  2023-11-29 16:26:12.715478
1663  2023-11-29 16:26:12.747393
1664  2023-11-29 16:26:12.779307
1665  2023-11-29 16:26:12.812226
1666  2023-11-29 16:26:12.843137
1667  2023-11-29 16:26:12.876049
1668  2023-11-29 16:26:12.907974
1669  2023-11-29 16:26:12.955835
1670  2023-11-29 16:26:12.987787
1671  2023-11-29 16:26:13.019665
1672  2023-11-29 16:26:13.051579
1673  2023-11-29 16:26:13.083493
1674  2023-11-29 16:26:13.115463
1675  2023-11-29 16:26:13.147324
1676  2023-11-29 16:26:13.180235
1677  2023-11-29 16:26:13.211233
1678  2023-11-29 16:26:13.243196
1679  2023-11-29 16:26:13.276149
1680  2023-11-29 16:26:13.307990
1681  2023-11-29 16:26:13.355894
1682  2023-11-29 16:26:13.387776
1683  2023-11-29 16:26:13.419691
1684  2023-11-29 16:26:13.451647
1685  2023-11-29 16:26:13.483575
1686  2023-11-29 16:26:13.515435
1687  2023-11-29 16:26:13.547475
1688  2023-11-29 16:26:13.579390
1689  2023-11-29 16:26:13.611339
1690  2023-11-29 16:26:13.643219
1691  2023-11-29 16:26:13.676131
1692  2023-11-29 16:26:13.708046
1693  2023-11-29 16:26:13.755918
1694  2023-11-29 16:26:13.787876
1695  2023-11-29 16:26:13.819779
1696  2023-11-29 16:26:13.851662
1697  2023-11-29 16:26:13.883585
1698  2023-11-29 16:26:13.915491
1699  2023-11-29 16:26:13.947459
1700  2023-11-29 16:26:13.979320
1701  2023-11-29 16:26:14.011235
1702  2023-11-29 16:26:14.043149
1703  2023-11-29 16:26:14.075097
1704  2023-11-29 16:26:14.108009
1705  2023-11-29 16:26:14.155890
1706  2023-11-29 16:26:14.187762
1707  2023-11-29 16:26:14.219677
1708  2023-11-29 16:26:14.251592
1709  2023-11-29 16:26:14.283577
1710  2023-11-29 16:26:14.315428
1711  2023-11-29 16:26:14.347335
1712  2023-11-29 16:26:14.380247
1713  2023-11-29 16:26:14.412163
1714  2023-11-29 16:26:14.443113
1715  2023-11-29 16:26:14.475991
1716  2023-11-29 16:26:14.507906
1717  2023-11-29 16:26:14.555778
1718  2023-11-29 16:26:14.587692
1719  2023-11-29 16:26:14.619650
1720  2023-11-29 16:26:14.651522
1721  2023-11-29 16:26:14.683436
1722  2023-11-29 16:26:14.715351
1723  2023-11-29 16:26:14.747266
1724  2023-11-29 16:26:14.780177
1725  2023-11-29 16:26:14.812092
1726  2023-11-29 16:26:14.844007
1727  2023-11-29 16:26:14.875921
1728  2023-11-29 16:26:14.923793
1729  2023-11-29 16:26:14.955708
1730  2023-11-29 16:26:14.987740
1731  2023-11-29 16:26:15.019654
1732  2023-11-29 16:26:15.051569
1733  2023-11-29 16:26:15.083483
1734  2023-11-29 16:26:15.115398
1735  2023-11-29 16:26:15.147313
1736  2023-11-29 16:26:15.180225
1737  2023-11-29 16:26:15.211142
1738  2023-11-29 16:26:15.243057
1739  2023-11-29 16:26:15.275968
1740  2023-11-29 16:26:15.323840
1741  2023-11-29 16:26:15.355755
1742  2023-11-29 16:26:15.387704
1743  2023-11-29 16:26:15.419584
1744  2023-11-29 16:26:15.451499
1745  2023-11-29 16:26:15.483427
1746  2023-11-29 16:26:15.515328
1747  2023-11-29 16:26:15.547243
1748  2023-11-29 16:26:15.580155
1749  2023-11-29 16:26:15.612070
1750  2023-11-29 16:26:15.643984
1751  2023-11-29 16:26:15.675898
1752  2023-11-29 16:26:15.723770
1753  2023-11-29 16:26:15.755685
1754  2023-11-29 16:26:15.787601
1755  2023-11-29 16:26:15.820512
1756  2023-11-29 16:26:15.851429
1757  2023-11-29 16:26:15.883343
1758  2023-11-29 16:26:15.915258
1759  2023-11-29 16:26:15.948172
1760  2023-11-29 16:26:15.980087
1761  2023-11-29 16:26:16.011999
1762  2023-11-29 16:26:16.043914
1763  2023-11-29 16:26:16.075859
1764  2023-11-29 16:26:16.123700
1765  2023-11-29 16:26:16.155647
1766  2023-11-29 16:26:16.187532
1767  2023-11-29 16:26:16.219444
1768  2023-11-29 16:26:16.251359
1769  2023-11-29 16:26:16.283336
1770  2023-11-29 16:26:16.315221
1771  2023-11-29 16:26:16.347102
1772  2023-11-29 16:26:16.380018
1773  2023-11-29 16:26:16.411960
1774  2023-11-29 16:26:16.443874
1775  2023-11-29 16:26:16.475759
1776  2023-11-29 16:26:16.523677
1777  2023-11-29 16:26:16.555553
1778  2023-11-29 16:26:16.587459
1779  2023-11-29 16:26:16.619427
1780  2023-11-29 16:26:16.651322
1781  2023-11-29 16:26:16.683203
1782  2023-11-29 16:26:16.715119
1783  2023-11-29 16:26:16.748031
1784  2023-11-29 16:26:16.779977
1785  2023-11-29 16:26:16.811860
1786  2023-11-29 16:26:16.843775
1787  2023-11-29 16:26:16.875690
1788  2023-11-29 16:26:16.923565
1789  2023-11-29 16:26:16.955538
1790  2023-11-29 16:26:16.987422
1791  2023-11-29 16:26:17.019305
1792  2023-11-29 16:26:17.051331
1793  2023-11-29 16:26:17.083274
1794  2023-11-29 16:26:17.116128
1795  2023-11-29 16:26:17.148049
1796  2023-11-29 16:26:17.180011
1797  2023-11-29 16:26:17.211928
1798  2023-11-29 16:26:17.243816
1799  2023-11-29 16:26:17.275741
1800  2023-11-29 16:26:17.324631
1801  2023-11-29 16:26:17.356658
1802  2023-11-29 16:26:17.388574
1803  2023-11-29 16:26:17.420499
1804  2023-11-29 16:26:17.452400
1805  2023-11-29 16:26:17.484315
1806  2023-11-29 16:26:17.516227
1807  2023-11-29 16:26:17.548111
1808  2023-11-29 16:26:17.580024
1809  2023-11-29 16:26:17.611944
1810  2023-11-29 16:26:17.643854
1811  2023-11-29 16:26:17.675769
1812  2023-11-29 16:26:17.724642
1813  2023-11-29 16:26:17.756580
1814  2023-11-29 16:26:17.788600
1815  2023-11-29 16:26:17.820551
1816  2023-11-29 16:26:17.852462
1817  2023-11-29 16:26:17.884405
1818  2023-11-29 16:26:17.916414
1819  2023-11-29 16:26:17.948342
1820  2023-11-29 16:26:17.980262
1821  2023-11-29 16:26:18.012187
1822  2023-11-29 16:26:18.044200
1823  2023-11-29 16:26:18.076208
1824  2023-11-29 16:26:18.124081
1825  2023-11-29 16:26:18.155962
1826  2023-11-29 16:26:18.187880
1827  2023-11-29 16:26:18.219822
1828  2023-11-29 16:26:18.251731
1829  2023-11-29 16:26:18.283627
1830  2023-11-29 16:26:18.316567
1831  2023-11-29 16:26:18.347424
1832  2023-11-29 16:26:18.379338
1833  2023-11-29 16:26:18.411252
1834  2023-11-29 16:26:18.444203
1835  2023-11-29 16:26:18.492036
1836  2023-11-29 16:26:18.523982
1837  2023-11-29 16:26:18.555864
1838  2023-11-29 16:26:18.587813
1839  2023-11-29 16:26:18.619728
1840  2023-11-29 16:26:18.651725
1841  2023-11-29 16:26:18.683650
1842  2023-11-29 16:26:18.715582
1843  2023-11-29 16:26:18.748508
1844  2023-11-29 16:26:18.780411
1845  2023-11-29 16:26:18.811343
1846  2023-11-29 16:26:18.843241
1847  2023-11-29 16:26:18.892075
1848  2023-11-29 16:26:18.923989
1849  2023-11-29 16:26:18.955908
1850  2023-11-29 16:26:18.988231
1851  2023-11-29 16:26:19.020145
1852  2023-11-29 16:26:19.052060
1853  2023-11-29 16:26:19.083277
1854  2023-11-29 16:26:19.116257
1855  2023-11-29 16:26:19.148170
1856  2023-11-29 16:26:19.180051
1857  2023-11-29 16:26:19.211966
1858  2023-11-29 16:26:19.243921
1859  2023-11-29 16:26:19.291783
1860  2023-11-29 16:26:19.323697
1861  2023-11-29 16:26:19.355581
1862  2023-11-29 16:26:19.387542
1863  2023-11-29 16:26:19.419475
1864  2023-11-29 16:26:19.451371
1865  2023-11-29 16:26:19.483259
1866  2023-11-29 16:26:19.516193
1867  2023-11-29 16:26:19.548118
1868  2023-11-29 16:26:19.580063
1869  2023-11-29 16:26:19.611928
1870  2023-11-29 16:26:19.643810
1871  2023-11-29 16:26:19.691720
1872  2023-11-29 16:26:19.723597
1873  2023-11-29 16:26:19.755579
1874  2023-11-29 16:26:19.787482
1875  2023-11-29 16:26:19.819373
1876  2023-11-29 16:26:19.851255
1877  2023-11-29 16:26:19.883178
1878  2023-11-29 16:26:19.915119
1879  2023-11-29 16:26:19.948056
1880  2023-11-29 16:26:19.979911
1881  2023-11-29 16:26:20.011825
1882  2023-11-29 16:26:20.043772
1883  2023-11-29 16:26:20.091650
1884  2023-11-29 16:26:20.123579
1885  2023-11-29 16:26:20.155494
1886  2023-11-29 16:26:20.187391
1887  2023-11-29 16:26:20.219305
1888  2023-11-29 16:26:20.251231
1889  2023-11-29 16:26:20.284144
1890  2023-11-29 16:26:20.316040
1891  2023-11-29 16:26:20.347934
1892  2023-11-29 16:26:20.379882
1893  2023-11-29 16:26:20.411808
1894  2023-11-29 16:26:20.443670
1895  2023-11-29 16:26:20.491587
1896  2023-11-29 16:26:20.523468
1897  2023-11-29 16:26:20.555430
1898  2023-11-29 16:26:20.587362
1899  2023-11-29 16:26:20.619243
1900  2023-11-29 16:26:20.651115
1901  2023-11-29 16:26:20.684027
1902  2023-11-29 16:26:20.715984
1903  2023-11-29 16:26:20.747857
1904  2023-11-29 16:26:20.779812
1905  2023-11-29 16:26:20.811723
1906  2023-11-29 16:26:20.843600
1907  2023-11-29 16:26:20.891517
1908  2023-11-29 16:26:20.923614
1909  2023-11-29 16:26:20.955586
1910  2023-11-29 16:26:20.987467
1911  2023-11-29 16:26:21.019370
1912  2023-11-29 16:26:21.051285
1913  2023-11-29 16:26:21.083293
1914  2023-11-29 16:26:21.116112
1915  2023-11-29 16:26:21.148066
1916  2023-11-29 16:26:21.179970
1917  2023-11-29 16:26:21.211885
1918  2023-11-29 16:26:21.243780
1919  2023-11-29 16:26:21.291720
1920  2023-11-29 16:26:21.323621
1921  2023-11-29 16:26:21.355497
1922  2023-11-29 16:26:21.387427
1923  2023-11-29 16:26:21.419318
1924  2023-11-29 16:26:21.451273
1925  2023-11-29 16:26:21.483362
1926  2023-11-29 16:26:21.515244
1927  2023-11-29 16:26:21.547224
1928  2023-11-29 16:26:21.579122
1929  2023-11-29 16:26:21.612021
1930  2023-11-29 16:26:21.643954
1931  2023-11-29 16:26:21.691803
1932  2023-11-29 16:26:21.723730
1933  2023-11-29 16:26:21.755635
1934  2023-11-29 16:26:21.787562
1935  2023-11-29 16:26:21.819463
1936  2023-11-29 16:26:21.851393
1937  2023-11-29 16:26:21.883261
1938  2023-11-29 16:26:21.915204
1939  2023-11-29 16:26:21.947121
1940  2023-11-29 16:26:21.980044
1941  2023-11-29 16:26:22.011915
1942  2023-11-29 16:26:22.059833
1943  2023-11-29 16:26:22.091764
1944  2023-11-29 16:26:22.123794
1945  2023-11-29 16:26:22.155697
1946  2023-11-29 16:26:22.187616
1947  2023-11-29 16:26:22.219563
1948  2023-11-29 16:26:22.251543
1949  2023-11-29 16:26:22.283435
1950  2023-11-29 16:26:22.315361
1951  2023-11-29 16:26:22.347277
1952  2023-11-29 16:26:22.379180
1953  2023-11-29 16:26:22.411093
1954  2023-11-29 16:26:22.459960
1955  2023-11-29 16:26:22.491892
1956  2023-11-29 16:26:22.523757
1957  2023-11-29 16:26:22.555713
1958  2023-11-29 16:26:22.587628
1959  2023-11-29 16:26:22.619555
1960  2023-11-29 16:26:22.652450
1961  2023-11-29 16:26:22.684329
1962  2023-11-29 16:26:22.716243
1963  2023-11-29 16:26:22.748204
1964  2023-11-29 16:26:22.780111
1965  2023-11-29 16:26:22.812019
1966  2023-11-29 16:26:22.859891
1967  2023-11-29 16:26:22.891805
1968  2023-11-29 16:26:22.923728
1969  2023-11-29 16:26:22.955648
1970  2023-11-29 16:26:22.987593
1971  2023-11-29 16:26:23.019493
1972  2023-11-29 16:26:23.051395
1973  2023-11-29 16:26:23.083308
1974  2023-11-29 16:26:23.116173
1975  2023-11-29 16:26:23.148088
1976  2023-11-29 16:26:23.180052
1977  2023-11-29 16:26:23.211957
1978  2023-11-29 16:26:23.259842
1979  2023-11-29 16:26:23.291754
1980  2023-11-29 16:26:23.323643
1981  2023-11-29 16:26:23.355574
1982  2023-11-29 16:26:23.387447
1983  2023-11-29 16:26:23.419423
1984  2023-11-29 16:26:23.452274
1985  2023-11-29 16:26:23.483225
1986  2023-11-29 16:26:23.515224
1987  2023-11-29 16:26:23.547126
1988  2023-11-29 16:26:23.580043
1989  2023-11-29 16:26:23.611965
1990  2023-11-29 16:26:23.659850
1991  2023-11-29 16:26:23.691843
1992  2023-11-29 16:26:23.723787
1993  2023-11-29 16:26:23.755827
1994  2023-11-29 16:26:23.787784
1995  2023-11-29 16:26:23.819736
1996  2023-11-29 16:26:23.851647
1997  2023-11-29 16:26:23.883571
1998  2023-11-29 16:26:23.915442
1999  2023-11-29 16:26:23.947402
2000  2023-11-29 16:26:23.979322
2001  2023-11-29 16:26:24.011219
2002  2023-11-29 16:26:24.060111
2003  2023-11-29 16:26:24.092013
2004  2023-11-29 16:26:24.123917
2005  2023-11-29 16:26:24.155870
2006  2023-11-29 16:26:24.187787
2007  2023-11-29 16:26:24.219669
2008  2023-11-29 16:26:24.251693
2009  2023-11-29 16:26:24.283598
2010  2023-11-29 16:26:24.315517
2011  2023-11-29 16:26:24.347426
2012  2023-11-29 16:26:24.379355
2013  2023-11-29 16:26:24.412254
2014  2023-11-29 16:26:24.459251
2015  2023-11-29 16:26:24.491166
2016  2023-11-29 16:26:24.524096
2017  2023-11-29 16:26:24.555979
2018  2023-11-29 16:26:24.587858
2019  2023-11-29 16:26:24.619805
2020  2023-11-29 16:26:24.651729
2021  2023-11-29 16:26:24.683632
2022  2023-11-29 16:26:24.715516
2023  2023-11-29 16:26:24.747461
2024  2023-11-29 16:26:24.779377
2025  2023-11-29 16:26:24.811306
2026  2023-11-29 16:26:24.859135
2027  2023-11-29 16:26:24.892088
2028  2023-11-29 16:26:24.923991
2029  2023-11-29 16:26:24.955922
2030  2023-11-29 16:26:24.987829
2031  2023-11-29 16:26:25.019702
2032  2023-11-29 16:26:25.051649
2033  2023-11-29 16:26:25.083563
2034  2023-11-29 16:26:25.115493
2035  2023-11-29 16:26:25.147408
2036  2023-11-29 16:26:25.179328
2037  2023-11-29 16:26:25.211236
2038  2023-11-29 16:26:25.259109
2039  2023-11-29 16:26:25.292024
2040  2023-11-29 16:26:25.323921
2041  2023-11-29 16:26:25.355835
2042  2023-11-29 16:26:25.387718
2043  2023-11-29 16:26:25.419632
2044  2023-11-29 16:26:25.451589
2045  2023-11-29 16:26:25.483522
2046  2023-11-29 16:26:25.515439
2047  2023-11-29 16:26:25.547321
2048  2023-11-29 16:26:25.580203
2049  2023-11-29 16:26:25.612203
2050  2023-11-29 16:26:25.660039
2051  2023-11-29 16:26:25.691937
2052  2023-11-29 16:26:25.723850
2053  2023-11-29 16:26:25.755764
2054  2023-11-29 16:26:25.787648
2055  2023-11-29 16:26:25.819562
2056  2023-11-29 16:26:25.851537
2057  2023-11-29 16:26:25.883427
2058  2023-11-29 16:26:25.915338
2059  2023-11-29 16:26:25.947252
2060  2023-11-29 16:26:25.980133
2061  2023-11-29 16:26:26.028040
2062  2023-11-29 16:26:26.059951
2063  2023-11-29 16:26:26.091870
2064  2023-11-29 16:26:26.123780
2065  2023-11-29 16:26:26.155705
2066  2023-11-29 16:26:26.187578
2067  2023-11-29 16:26:26.219492
2068  2023-11-29 16:26:26.251463
2069  2023-11-29 16:26:26.283353
2070  2023-11-29 16:26:26.315286
2071  2023-11-29 16:26:26.348148
2072  2023-11-29 16:26:26.380063
2073  2023-11-29 16:26:26.427972
2074  2023-11-29 16:26:26.459902
2075  2023-11-29 16:26:26.491795
2076  2023-11-29 16:26:26.523720
2077  2023-11-29 16:26:26.555635
2078  2023-11-29 16:26:26.587508
2079  2023-11-29 16:26:26.619424
2080  2023-11-29 16:26:26.652400
2081  2023-11-29 16:26:26.683284
2082  2023-11-29 16:26:26.715198
2083  2023-11-29 16:26:26.747081
2084  2023-11-29 16:26:26.780028
2085  2023-11-29 16:26:26.827867
2086  2023-11-29 16:26:26.859810
2087  2023-11-29 16:26:26.891740
2088  2023-11-29 16:26:26.923651
2089  2023-11-29 16:26:26.955581
2090  2023-11-29 16:26:26.987477
2091  2023-11-29 16:26:27.019352
2092  2023-11-29 16:26:27.051298
2093  2023-11-29 16:26:27.083212
2094  2023-11-29 16:26:27.115146
2095  2023-11-29 16:26:27.148039
2096  2023-11-29 16:26:27.179923
2097  2023-11-29 16:26:27.227828
2098  2023-11-29 16:26:27.259750
2099  2023-11-29 16:26:27.291665
2100  2023-11-29 16:26:27.323568
2101  2023-11-29 16:26:27.355493
2102  2023-11-29 16:26:27.387400
2103  2023-11-29 16:26:27.419282
2104  2023-11-29 16:26:27.451244
2105  2023-11-29 16:26:27.483142
2106  2023-11-29 16:26:27.516023
2107  2023-11-29 16:26:27.547938
2108  2023-11-29 16:26:27.579886
2109  2023-11-29 16:26:27.627755
2110  2023-11-29 16:26:27.659777
2111  2023-11-29 16:26:27.691692
2112  2023-11-29 16:26:27.723575
2113  2023-11-29 16:26:27.755540
2114  2023-11-29 16:26:27.787441
2115  2023-11-29 16:26:27.819351
2116  2023-11-29 16:26:27.851235
2117  2023-11-29 16:26:27.883195
2118  2023-11-29 16:26:27.915172
2119  2023-11-29 16:26:27.947197
2120  2023-11-29 16:26:27.980080
2121  2023-11-29 16:26:28.027983
2122  2023-11-29 16:26:28.059894
2123  2023-11-29 16:26:28.091811
2124  2023-11-29 16:26:28.123730
2125  2023-11-29 16:26:28.155646
2126  2023-11-29 16:26:28.187519
2127  2023-11-29 16:26:28.219433
2128  2023-11-29 16:26:28.251348
2129  2023-11-29 16:26:28.283302
2130  2023-11-29 16:26:28.315177
2131  2023-11-29 16:26:28.347092
2132  2023-11-29 16:26:28.380003
2133  2023-11-29 16:26:28.427941
2134  2023-11-29 16:26:28.459824
2135  2023-11-29 16:26:28.491737
2136  2023-11-29 16:26:28.523619
2137  2023-11-29 16:26:28.555534
2138  2023-11-29 16:26:28.587449
2139  2023-11-29 16:26:28.619363
2140  2023-11-29 16:26:28.651278
2141  2023-11-29 16:26:28.683192
2142  2023-11-29 16:26:28.715107
2143  2023-11-29 16:26:28.748019
2144  2023-11-29 16:26:28.779933
2145  2023-11-29 16:26:28.827838
2146  2023-11-29 16:26:28.859778
2147  2023-11-29 16:26:28.891665
2148  2023-11-29 16:26:28.923549
2149  2023-11-29 16:26:28.955464
2150  2023-11-29 16:26:28.987378
2151  2023-11-29 16:26:29.019293
2152  2023-11-29 16:26:29.051207
2153  2023-11-29 16:26:29.084119
2154  2023-11-29 16:26:29.116034
2155  2023-11-29 16:26:29.147949
2156  2023-11-29 16:26:29.180017
2157  2023-11-29 16:26:29.227930
2158  2023-11-29 16:26:29.259835
2159  2023-11-29 16:26:29.291749
2160  2023-11-29 16:26:29.323633
2161  2023-11-29 16:26:29.355548
2162  2023-11-29 16:26:29.387462
2163  2023-11-29 16:26:29.419377
2164  2023-11-29 16:26:29.451291
2165  2023-11-29 16:26:29.484205
2166  2023-11-29 16:26:29.515121
2167  2023-11-29 16:26:29.548033
2168  2023-11-29 16:26:29.595939
2169  2023-11-29 16:26:29.627878
2170  2023-11-29 16:26:29.659736
2171  2023-11-29 16:26:29.691680
2172  2023-11-29 16:26:29.723563
2173  2023-11-29 16:26:29.755478
2174  2023-11-29 16:26:29.787392
2175  2023-11-29 16:26:29.820306
2176  2023-11-29 16:26:29.852221
2177  2023-11-29 16:26:29.884134
2178  2023-11-29 16:26:29.916049
2179  2023-11-29 16:26:29.947996
2180  2023-11-29 16:26:29.995922
2181  2023-11-29 16:26:30.027777
2182  2023-11-29 16:26:30.059707
2183  2023-11-29 16:26:30.091627
2184  2023-11-29 16:26:30.123493
2185  2023-11-29 16:26:30.155409
2186  2023-11-29 16:26:30.188350
2187  2023-11-29 16:26:30.219324
2188  2023-11-29 16:26:30.251239
2189  2023-11-29 16:26:30.284206
2190  2023-11-29 16:26:30.316234
2191  2023-11-29 16:26:30.348147
2192  2023-11-29 16:26:30.396020
2193  2023-11-29 16:26:30.427999
2194  2023-11-29 16:26:30.459893
2195  2023-11-29 16:26:30.491819
2196  2023-11-29 16:26:30.523678
2197  2023-11-29 16:26:30.555592
2198  2023-11-29 16:26:30.587510
2199  2023-11-29 16:26:30.619421
2200  2023-11-29 16:26:30.651396
2201  2023-11-29 16:26:30.683251
2202  2023-11-29 16:26:30.716163
2203  2023-11-29 16:26:30.748077
2204  2023-11-29 16:26:30.796006
2205  2023-11-29 16:26:30.827864
2206  2023-11-29 16:26:30.859828
2207  2023-11-29 16:26:30.891771
2208  2023-11-29 16:26:30.923703
2209  2023-11-29 16:26:30.955660
2210  2023-11-29 16:26:30.987588
2211  2023-11-29 16:26:31.019447
2212  2023-11-29 16:26:31.051489
2213  2023-11-29 16:26:31.083404
2214  2023-11-29 16:26:31.115364
2215  2023-11-29 16:26:31.147354
2216  2023-11-29 16:26:31.195418
2217  2023-11-29 16:26:31.227333
2218  2023-11-29 16:26:31.259237
2219  2023-11-29 16:26:31.291150
2220  2023-11-29 16:26:31.323175
2221  2023-11-29 16:26:31.355161
2222  2023-11-29 16:26:31.387216
2223  2023-11-29 16:26:31.420128
2224  2023-11-29 16:26:31.452108
2225  2023-11-29 16:26:31.483998
2226  2023-11-29 16:26:31.515872
2227  2023-11-29 16:26:31.547886
2228  2023-11-29 16:26:31.595824
2229  2023-11-29 16:26:31.627758
2230  2023-11-29 16:26:31.659663
2231  2023-11-29 16:26:31.691575
2232  2023-11-29 16:26:31.723456
2233  2023-11-29 16:26:31.755366
2234  2023-11-29 16:26:31.787312
2235  2023-11-29 16:26:31.820223
2236  2023-11-29 16:26:31.852108
2237  2023-11-29 16:26:31.884022
2238  2023-11-29 16:26:31.915967
2239  2023-11-29 16:26:31.948029
2240  2023-11-29 16:26:31.995898
2241  2023-11-29 16:26:32.027812
2242  2023-11-29 16:26:32.059727
2243  2023-11-29 16:26:32.091642
2244  2023-11-29 16:26:32.123560
2245  2023-11-29 16:26:32.155486
2246  2023-11-29 16:26:32.187353
2247  2023-11-29 16:26:32.220265
2248  2023-11-29 16:26:32.252179
2249  2023-11-29 16:26:32.283097
2250  2023-11-29 16:26:32.316009
2251  2023-11-29 16:26:32.347923
2252  2023-11-29 16:26:32.395827
2253  2023-11-29 16:26:32.427743
2254  2023-11-29 16:26:32.459660
2255  2023-11-29 16:26:32.491584
2256  2023-11-29 16:26:32.523453
2257  2023-11-29 16:26:32.555368
2258  2023-11-29 16:26:32.587283
2259  2023-11-29 16:26:32.620196
2260  2023-11-29 16:26:32.652114
2261  2023-11-29 16:26:32.684024
2262  2023-11-29 16:26:32.715938
2263  2023-11-29 16:26:32.747853
2264  2023-11-29 16:26:32.795774
2265  2023-11-29 16:26:32.827682
2266  2023-11-29 16:26:32.859606
2267  2023-11-29 16:26:32.891497
2268  2023-11-29 16:26:32.923412
2269  2023-11-29 16:26:32.955299
2270  2023-11-29 16:26:32.988212
2271  2023-11-29 16:26:33.020180
2272  2023-11-29 16:26:33.052039
2273  2023-11-29 16:26:33.083954
2274  2023-11-29 16:26:33.115868
2275  2023-11-29 16:26:33.147828
2276  2023-11-29 16:26:33.195692
2277  2023-11-29 16:26:33.227621
2278  2023-11-29 16:26:33.259527
2279  2023-11-29 16:26:33.291432
2280  2023-11-29 16:26:33.323345
2281  2023-11-29 16:26:33.355272
2282  2023-11-29 16:26:33.387142
2283  2023-11-29 16:26:33.420054
2284  2023-11-29 16:26:33.452015
2285  2023-11-29 16:26:33.483917
2286  2023-11-29 16:26:33.515848
2287  2023-11-29 16:26:33.563789
2288  2023-11-29 16:26:33.595724
2289  2023-11-29 16:26:33.627616
2290  2023-11-29 16:26:33.659561
2291  2023-11-29 16:26:33.691462
2292  2023-11-29 16:26:33.723329
2293  2023-11-29 16:26:33.755243
2294  2023-11-29 16:26:33.787193
2295  2023-11-29 16:26:33.819121
2296  2023-11-29 16:26:33.851985
2297  2023-11-29 16:26:33.883899
2298  2023-11-29 16:26:33.915861
2299  2023-11-29 16:26:33.963718
2300  2023-11-29 16:26:33.995641
2301  2023-11-29 16:26:34.027544
2302  2023-11-29 16:26:34.059567
2303  2023-11-29 16:26:34.091483
2304  2023-11-29 16:26:34.123418
2305  2023-11-29 16:26:34.155395
2306  2023-11-29 16:26:34.187312
2307  2023-11-29 16:26:34.219309
2308  2023-11-29 16:26:34.251224
2309  2023-11-29 16:26:34.283185
2310  2023-11-29 16:26:34.315053
2311  2023-11-29 16:26:34.363972
2312  2023-11-29 16:26:34.395867
2313  2023-11-29 16:26:34.427784
2314  2023-11-29 16:26:34.459716
2315  2023-11-29 16:26:34.491613
2316  2023-11-29 16:26:34.523495
2317  2023-11-29 16:26:34.555410
2318  2023-11-29 16:26:34.587324
2319  2023-11-29 16:26:34.619239
2320  2023-11-29 16:26:34.652153
2321  2023-11-29 16:26:34.684066
2322  2023-11-29 16:26:34.715980
2323  2023-11-29 16:26:34.763885
2324  2023-11-29 16:26:34.795809
2325  2023-11-29 16:26:34.827789
2326  2023-11-29 16:26:34.860709
2327  2023-11-29 16:26:34.891642
2328  2023-11-29 16:26:34.923507
2329  2023-11-29 16:26:34.956456
2330  2023-11-29 16:26:34.987333
2331  2023-11-29 16:26:35.020279
2332  2023-11-29 16:26:35.052161
2333  2023-11-29 16:26:35.084076
2334  2023-11-29 16:26:35.116035
2335  2023-11-29 16:26:35.164888
2336  2023-11-29 16:26:35.196805
2337  2023-11-29 16:26:35.228739
2338  2023-11-29 16:26:35.260636
2339  2023-11-29 16:26:35.292563
2340  2023-11-29 16:26:35.324461
2341  2023-11-29 16:26:35.356385
2342  2023-11-29 16:26:35.388296
2343  2023-11-29 16:26:35.420211
2344  2023-11-29 16:26:35.452148
2345  2023-11-29 16:26:35.484057
2346  2023-11-29 16:26:35.515961
2347  2023-11-29 16:26:35.563844
2348  2023-11-29 16:26:35.595708
2349  2023-11-29 16:26:35.628653
2350  2023-11-29 16:26:35.660569
2351  2023-11-29 16:26:35.692511
2352  2023-11-29 16:26:35.724397
2353  2023-11-29 16:26:35.756311
2354  2023-11-29 16:26:35.788225
2355  2023-11-29 16:26:35.820153
2356  2023-11-29 16:26:35.852071
2357  2023-11-29 16:26:35.883970
2358  2023-11-29 16:26:35.915885
2359  2023-11-29 16:26:35.963757
2360  2023-11-29 16:26:35.995670
2361  2023-11-29 16:26:36.027585
2362  2023-11-29 16:26:36.059542
2363  2023-11-29 16:26:36.091414
2364  2023-11-29 16:26:36.123332
2365  2023-11-29 16:26:36.155210
2366  2023-11-29 16:26:36.187160
2367  2023-11-29 16:26:36.219071
2368  2023-11-29 16:26:36.251985
2369  2023-11-29 16:26:36.283898
2370  2023-11-29 16:26:36.315815
2371  2023-11-29 16:26:36.363683
2372  2023-11-29 16:26:36.395600
2373  2023-11-29 16:26:36.427517
2374  2023-11-29 16:26:36.459439
2375  2023-11-29 16:26:36.491343
2376  2023-11-29 16:26:36.523261
2377  2023-11-29 16:26:36.556136
2378  2023-11-29 16:26:36.588059
2379  2023-11-29 16:26:36.619968
2380  2023-11-29 16:26:36.651890
2381  2023-11-29 16:26:36.683803
2382  2023-11-29 16:26:36.715719
2383  2023-11-29 16:26:36.763622
2384  2023-11-29 16:26:36.796540
2385  2023-11-29 16:26:36.828440
2386  2023-11-29 16:26:36.859359
2387  2023-11-29 16:26:36.891274
2388  2023-11-29 16:26:36.923189
2389  2023-11-29 16:26:36.956125
2390  2023-11-29 16:26:36.988036
2391  2023-11-29 16:26:37.019928
2392  2023-11-29 16:26:37.051859
2393  2023-11-29 16:26:37.083889
2394  2023-11-29 16:26:37.131772
2395  2023-11-29 16:26:37.163690
2396  2023-11-29 16:26:37.196590
2397  2023-11-29 16:26:37.228517
2398  2023-11-29 16:26:37.260394
2399  2023-11-29 16:26:37.291439
2400  2023-11-29 16:26:37.323369
2401  2023-11-29 16:26:37.356269
2402  2023-11-29 16:26:37.388187
2403  2023-11-29 16:26:37.420103
2404  2023-11-29 16:26:37.452031
2405  2023-11-29 16:26:37.483950
2406  2023-11-29 16:26:37.531792
2407  2023-11-29 16:26:37.563706
2408  2023-11-29 16:26:37.596636
2409  2023-11-29 16:26:37.628582
2410  2023-11-29 16:26:37.660453
2411  2023-11-29 16:26:37.692388
2412  2023-11-29 16:26:37.723253
2413  2023-11-29 16:26:37.756214
2414  2023-11-29 16:26:37.788131
2415  2023-11-29 16:26:37.820043
2416  2023-11-29 16:26:37.851908
2417  2023-11-29 16:26:37.883951
2418  2023-11-29 16:26:37.931900
2419  2023-11-29 16:26:37.963824
2420  2023-11-29 16:26:37.995310
2421  2023-11-29 16:26:38.028172
2422  2023-11-29 16:26:38.060122
2423  2023-11-29 16:26:38.092040
2424  2023-11-29 16:26:38.124016
2425  2023-11-29 16:26:38.155965
2426  2023-11-29 16:26:38.187914
2427  2023-11-29 16:26:38.219761
2428  2023-11-29 16:26:38.251708
2429  2023-11-29 16:26:38.283650
2430  2023-11-29 16:26:38.331584
2431  2023-11-29 16:26:38.363634
2432  2023-11-29 16:26:38.395560
2433  2023-11-29 16:26:38.427460
2434  2023-11-29 16:26:38.459382
2435  2023-11-29 16:26:38.491391
2436  2023-11-29 16:26:38.523337
2437  2023-11-29 16:26:38.556071
2438  2023-11-29 16:26:38.587979
2439  2023-11-29 16:26:38.619879
2440  2023-11-29 16:26:38.651759
2441  2023-11-29 16:26:38.683707
2442  2023-11-29 16:26:38.731546
2443  2023-11-29 16:26:38.763582
2444  2023-11-29 16:26:38.795266
2445  2023-11-29 16:26:38.827160
2446  2023-11-29 16:26:38.859084
2447  2023-11-29 16:26:38.892026
2448  2023-11-29 16:26:38.923908
2449  2023-11-29 16:26:38.955053
2450  2023-11-29 16:26:38.987971
2451  2023-11-29 16:26:39.019885
2452  2023-11-29 16:26:39.051808
2453  2023-11-29 16:26:39.083710
2454  2023-11-29 16:26:39.131606
2455  2023-11-29 16:26:39.163538
2456  2023-11-29 16:26:39.195419
2457  2023-11-29 16:26:39.227328
2458  2023-11-29 16:26:39.259289
2459  2023-11-29 16:26:39.292172
2460  2023-11-29 16:26:39.323072
2461  2023-11-29 16:26:39.356031
2462  2023-11-29 16:26:39.387897
2463  2023-11-29 16:26:39.419829
2464  2023-11-29 16:26:39.451850
2465  2023-11-29 16:26:39.483609
2466  2023-11-29 16:26:39.531521
2467  2023-11-29 16:26:39.563449
2468  2023-11-29 16:26:39.595344
2469  2023-11-29 16:26:39.627226
2470  2023-11-29 16:26:39.660146
2471  2023-11-29 16:26:39.692052
2472  2023-11-29 16:26:39.724010
2473  2023-11-29 16:26:39.755915
2474  2023-11-29 16:26:39.787830
2475  2023-11-29 16:26:39.819781
2476  2023-11-29 16:26:39.851655
2477  2023-11-29 16:26:39.883596
2478  2023-11-29 16:26:39.931585
2479  2023-11-29 16:26:39.963497
2480  2023-11-29 16:26:39.995402
2481  2023-11-29 16:26:40.027337
2482  2023-11-29 16:26:40.059187
2483  2023-11-29 16:26:40.091187
2484  2023-11-29 16:26:40.123209
2485  2023-11-29 16:26:40.155120
2486  2023-11-29 16:26:40.187036
2487  2023-11-29 16:26:40.219935
2488  2023-11-29 16:26:40.251958
2489  2023-11-29 16:26:40.283890
2490  2023-11-29 16:26:40.331830
2491  2023-11-29 16:26:40.363734
2492  2023-11-29 16:26:40.395764
2493  2023-11-29 16:26:40.427677
2494  2023-11-29 16:26:40.459593
2495  2023-11-29 16:26:40.491586
2496  2023-11-29 16:26:40.523496
2497  2023-11-29 16:26:40.555370
2498  2023-11-29 16:26:40.587285
2499  2023-11-29 16:26:40.619254
2500  2023-11-29 16:26:40.651160
2501  2023-11-29 16:26:40.699034
2502  2023-11-29 16:26:40.731935
2503  2023-11-29 16:26:40.763846
2504  2023-11-29 16:26:40.795762
2505  2023-11-29 16:26:40.827685
2506  2023-11-29 16:26:40.859636
2507  2023-11-29 16:26:40.891480
2508  2023-11-29 16:26:40.923400
2509  2023-11-29 16:26:40.955315
2510  2023-11-29 16:26:40.987219
2511  2023-11-29 16:26:41.019180
2512  2023-11-29 16:26:41.051095
2513  2023-11-29 16:26:41.099961
2514  2023-11-29 16:26:41.131865
2515  2023-11-29 16:26:41.163780
2516  2023-11-29 16:26:41.195828
2517  2023-11-29 16:26:41.227750
2518  2023-11-29 16:26:41.259672
2519  2023-11-29 16:26:41.291567
2520  2023-11-29 16:26:41.323494
2521  2023-11-29 16:26:41.355366
2522  2023-11-29 16:26:41.388309
2523  2023-11-29 16:26:41.419240
2524  2023-11-29 16:26:41.452137
2525  2023-11-29 16:26:41.500049
2526  2023-11-29 16:26:41.531955
2527  2023-11-29 16:26:41.563843
2528  2023-11-29 16:26:41.595768
2529  2023-11-29 16:26:41.627673
2530  2023-11-29 16:26:41.659614
2531  2023-11-29 16:26:41.691482
2532  2023-11-29 16:26:41.723414
2533  2023-11-29 16:26:41.755327
2534  2023-11-29 16:26:41.788257
2535  2023-11-29 16:26:41.820249
2536  2023-11-29 16:26:41.851150
2537  2023-11-29 16:26:41.900026
2538  2023-11-29 16:26:41.931941
2539  2023-11-29 16:26:41.963855
2540  2023-11-29 16:26:41.995769
2541  2023-11-29 16:26:42.027673
2542  2023-11-29 16:26:42.059597
2543  2023-11-29 16:26:42.091533
2544  2023-11-29 16:26:42.123418
2545  2023-11-29 16:26:42.155345
2546  2023-11-29 16:26:42.188268
2547  2023-11-29 16:26:42.220188
2548  2023-11-29 16:26:42.251091
2549  2023-11-29 16:26:42.299980
2550  2023-11-29 16:26:42.331828
2551  2023-11-29 16:26:42.363772
2552  2023-11-29 16:26:42.395686
2553  2023-11-29 16:26:42.427601
2554  2023-11-29 16:26:42.459552
2555  2023-11-29 16:26:42.491401
2556  2023-11-29 16:26:42.523366
2557  2023-11-29 16:26:42.555276
2558  2023-11-29 16:26:42.588189
2559  2023-11-29 16:26:42.620107
2560  2023-11-29 16:26:42.652012
2561  2023-11-29 16:26:42.699886
2562  2023-11-29 16:26:42.731789
2563  2023-11-29 16:26:42.763702
2564  2023-11-29 16:26:42.795618
2565  2023-11-29 16:26:42.827540
2566  2023-11-29 16:26:42.859477
2567  2023-11-29 16:26:42.891376
2568  2023-11-29 16:26:42.923290
2569  2023-11-29 16:26:42.955196
2570  2023-11-29 16:26:42.987073
2571  2023-11-29 16:26:43.020022
2572  2023-11-29 16:26:43.051944
2573  2023-11-29 16:26:43.099816
2574  2023-11-29 16:26:43.131718
2575  2023-11-29 16:26:43.163643
2576  2023-11-29 16:26:43.195553
2577  2023-11-29 16:26:43.227467
2578  2023-11-29 16:26:43.259403
2579  2023-11-29 16:26:43.291289
2580  2023-11-29 16:26:43.323226
2581  2023-11-29 16:26:43.355135
2582  2023-11-29 16:26:43.388001
2583  2023-11-29 16:26:43.419916
2584  2023-11-29 16:26:43.451876
2585  2023-11-29 16:26:43.499737
2586  2023-11-29 16:26:43.531648
2587  2023-11-29 16:26:43.563578
2588  2023-11-29 16:26:43.595477
2589  2023-11-29 16:26:43.627408
2590  2023-11-29 16:26:43.659324
2591  2023-11-29 16:26:43.692228
2592  2023-11-29 16:26:43.723151
2593  2023-11-29 16:26:43.756056
2594  2023-11-29 16:26:43.787931
2595  2023-11-29 16:26:43.819881
2596  2023-11-29 16:26:43.851797
2597  2023-11-29 16:26:43.899681
2598  2023-11-29 16:26:43.931596
2599  2023-11-29 16:26:43.963517
2600  2023-11-29 16:26:43.995410
2601  2023-11-29 16:26:44.028337
2602  2023-11-29 16:26:44.060203
2603  2023-11-29 16:26:44.091205
2604  2023-11-29 16:26:44.124155
2605  2023-11-29 16:26:44.156120
2606  2023-11-29 16:26:44.188002
2607  2023-11-29 16:26:44.219912
2608  2023-11-29 16:26:44.251870
2609  2023-11-29 16:26:44.299751
2610  2023-11-29 16:26:44.331665
2611  2023-11-29 16:26:44.363560
2612  2023-11-29 16:26:44.395510
2613  2023-11-29 16:26:44.427395
2614  2023-11-29 16:26:44.459323
2615  2023-11-29 16:26:44.492230
2616  2023-11-29 16:26:44.524154
2617  2023-11-29 16:26:44.556049
2618  2023-11-29 16:26:44.587928
2619  2023-11-29 16:26:44.619842
2620  2023-11-29 16:26:44.667758
2621  2023-11-29 16:26:44.699661
2622  2023-11-29 16:26:44.731588
2623  2023-11-29 16:26:44.763496
2624  2023-11-29 16:26:44.795406
2625  2023-11-29 16:26:44.827328
2626  2023-11-29 16:26:44.859243
2627  2023-11-29 16:26:44.891165
2628  2023-11-29 16:26:44.924110
2629  2023-11-29 16:26:44.956074
2630  2023-11-29 16:26:44.987974
2631  2023-11-29 16:26:45.019861
2632  2023-11-29 16:26:45.067757
2633  2023-11-29 16:26:45.099670
2634  2023-11-29 16:26:45.131586
2635  2023-11-29 16:26:45.163506
2636  2023-11-29 16:26:45.195417
2637  2023-11-29 16:26:45.227350
2638  2023-11-29 16:26:45.259254
2639  2023-11-29 16:26:45.291175
2640  2023-11-29 16:26:45.323088
2641  2023-11-29 16:26:45.355955
2642  2023-11-29 16:26:45.387869
2643  2023-11-29 16:26:45.419784
2644  2023-11-29 16:26:45.467799
2645  2023-11-29 16:26:45.499800
2646  2023-11-29 16:26:45.531798
2647  2023-11-29 16:26:45.563799
2648  2023-11-29 16:26:45.595717
2649  2023-11-29 16:26:45.627625
2650  2023-11-29 16:26:45.659555
2651  2023-11-29 16:26:45.691461
2652  2023-11-29 16:26:45.723392
2653  2023-11-29 16:26:45.755279
2654  2023-11-29 16:26:45.787253
2655  2023-11-29 16:26:45.819169
2656  2023-11-29 16:26:45.867086
2657  2023-11-29 16:26:45.899982
2658  2023-11-29 16:26:45.931911
2659  2023-11-29 16:26:45.963813
2660  2023-11-29 16:26:45.995727
2661  2023-11-29 16:26:46.027657
2662  2023-11-29 16:26:46.060549
2663  2023-11-29 16:26:46.091469
2664  2023-11-29 16:26:46.123355
2665  2023-11-29 16:26:46.156318
2666  2023-11-29 16:26:46.188182
2667  2023-11-29 16:26:46.220096
2668  2023-11-29 16:26:46.268039
2669  2023-11-29 16:26:46.299963
2670  2023-11-29 16:26:46.331840
2671  2023-11-29 16:26:46.363755
2672  2023-11-29 16:26:46.395709
2673  2023-11-29 16:26:46.427585
2674  2023-11-29 16:26:46.459482
2675  2023-11-29 16:26:46.491407
2676  2023-11-29 16:26:46.523364
2677  2023-11-29 16:26:46.555199
2678  2023-11-29 16:26:46.588111
2679  2023-11-29 16:26:46.620026
2680  2023-11-29 16:26:46.667968
2681  2023-11-29 16:26:46.699845
2682  2023-11-29 16:26:46.731759
2683  2023-11-29 16:26:46.763673
2684  2023-11-29 16:26:46.795597
2685  2023-11-29 16:26:46.827508
2686  2023-11-29 16:26:46.859422
2687  2023-11-29 16:26:46.891346
2688  2023-11-29 16:26:46.923217
2689  2023-11-29 16:26:46.955129
2690  2023-11-29 16:26:46.988077
2691  2023-11-29 16:26:47.019956
2692  2023-11-29 16:26:47.067863
2693  2023-11-29 16:26:47.099776
2694  2023-11-29 16:26:47.131699
2695  2023-11-29 16:26:47.163606
2696  2023-11-29 16:26:47.195530
2697  2023-11-29 16:26:47.227545
2698  2023-11-29 16:26:47.259434
2699  2023-11-29 16:26:47.291379
2700  2023-11-29 16:26:47.323275
2701  2023-11-29 16:26:47.355149
2702  2023-11-29 16:26:47.388061
2703  2023-11-29 16:26:47.419976
2704  2023-11-29 16:26:47.467879
2705  2023-11-29 16:26:47.499795
2706  2023-11-29 16:26:47.531717
2707  2023-11-29 16:26:47.563627
2708  2023-11-29 16:26:47.595542
2709  2023-11-29 16:26:47.627463
2710  2023-11-29 16:26:47.659369
2711  2023-11-29 16:26:47.691281
2712  2023-11-29 16:26:47.723164
2713  2023-11-29 16:26:47.755079
2714  2023-11-29 16:26:47.788032
2715  2023-11-29 16:26:47.819950
2716  2023-11-29 16:26:47.867811
2717  2023-11-29 16:26:47.899734
2718  2023-11-29 16:26:47.931637
2719  2023-11-29 16:26:47.963552
2720  2023-11-29 16:26:47.995468
2721  2023-11-29 16:26:48.027395
2722  2023-11-29 16:26:48.059313
2723  2023-11-29 16:26:48.091225
2724  2023-11-29 16:26:48.123094
2725  2023-11-29 16:26:48.156006
2726  2023-11-29 16:26:48.187921
2727  2023-11-29 16:26:48.235837
2728  2023-11-29 16:26:48.267740
2729  2023-11-29 16:26:48.299655
2730  2023-11-29 16:26:48.331578
2731  2023-11-29 16:26:48.363492
2732  2023-11-29 16:26:48.395525
2733  2023-11-29 16:26:48.427427
2734  2023-11-29 16:26:48.459334
2735  2023-11-29 16:26:48.491258
2736  2023-11-29 16:26:48.523137
2737  2023-11-29 16:26:48.556049
2738  2023-11-29 16:26:48.587972
2739  2023-11-29 16:26:48.636034
2740  2023-11-29 16:26:48.667944
2741  2023-11-29 16:26:48.699843
2742  2023-11-29 16:26:48.731767
2743  2023-11-29 16:26:48.763676
2744  2023-11-29 16:26:48.795598
2745  2023-11-29 16:26:48.827550
2746  2023-11-29 16:26:48.859420
2747  2023-11-29 16:26:48.891432
2748  2023-11-29 16:26:48.923313
2749  2023-11-29 16:26:48.955228
2750  2023-11-29 16:26:48.988171
2751  2023-11-29 16:26:49.036072
2752  2023-11-29 16:26:49.067963
2753  2023-11-29 16:26:49.099884
2754  2023-11-29 16:26:49.131901
2755  2023-11-29 16:26:49.163815
2756  2023-11-29 16:26:49.195750
2757  2023-11-29 16:26:49.227650
2758  2023-11-29 16:26:49.259524
2759  2023-11-29 16:26:49.291481
2760  2023-11-29 16:26:49.323400
2761  2023-11-29 16:26:49.355300
2762  2023-11-29 16:26:49.387181
2763  2023-11-29 16:26:49.435094
2764  2023-11-29 16:26:49.467015
2765  2023-11-29 16:26:49.499930
2766  2023-11-29 16:26:49.531871
2767  2023-11-29 16:26:49.563869
2768  2023-11-29 16:26:49.595784
2769  2023-11-29 16:26:49.627699
2770  2023-11-29 16:26:49.659613
2771  2023-11-29 16:26:49.691530
2772  2023-11-29 16:26:49.723411
2773  2023-11-29 16:26:49.755326
2774  2023-11-29 16:26:49.787272
2775  2023-11-29 16:26:49.835144
2776  2023-11-29 16:26:49.867060
2777  2023-11-29 16:26:49.899976
2778  2023-11-29 16:26:49.931886
2779  2023-11-29 16:26:49.963800
2780  2023-11-29 16:26:49.995716
2781  2023-11-29 16:26:50.027630
2782  2023-11-29 16:26:50.059568
2783  2023-11-29 16:26:50.091464
2784  2023-11-29 16:26:50.123341
2785  2023-11-29 16:26:50.155358
2786  2023-11-29 16:26:50.187273
2787  2023-11-29 16:26:50.235332
2788  2023-11-29 16:26:50.267312
2789  2023-11-29 16:26:50.299304
2790  2023-11-29 16:26:50.331209
2791  2023-11-29 16:26:50.363232
2792  2023-11-29 16:26:50.396141
2793  2023-11-29 16:26:50.428055
2794  2023-11-29 16:26:50.460053
2795  2023-11-29 16:26:50.491070
2796  2023-11-29 16:26:50.523934
2797  2023-11-29 16:26:50.555848
2798  2023-11-29 16:26:50.587763
2799  2023-11-29 16:26:50.635665
2800  2023-11-29 16:26:50.667583
2801  2023-11-29 16:26:50.699490
2802  2023-11-29 16:26:50.731431
2803  2023-11-29 16:26:50.763386
2804  2023-11-29 16:26:50.795340
2805  2023-11-29 16:26:50.827246
2806  2023-11-29 16:26:50.860158
2807  2023-11-29 16:26:50.891228
2808  2023-11-29 16:26:50.923111
2809  2023-11-29 16:26:50.956023
2810  2023-11-29 16:26:50.988066
2811  2023-11-29 16:26:51.036030
2812  2023-11-29 16:26:51.067941
2813  2023-11-29 16:26:51.099853
2814  2023-11-29 16:26:51.131776
2815  2023-11-29 16:26:51.163691
2816  2023-11-29 16:26:51.195685
2817  2023-11-29 16:26:51.227599
2818  2023-11-29 16:26:51.259513
2819  2023-11-29 16:26:51.291475
2820  2023-11-29 16:26:51.323347
2821  2023-11-29 16:26:51.355356
2822  2023-11-29 16:26:51.388237
2823  2023-11-29 16:26:51.436151
2824  2023-11-29 16:26:51.468059
2825  2023-11-29 16:26:51.499979
2826  2023-11-29 16:26:51.531886
2827  2023-11-29 16:26:51.563800
2828  2023-11-29 16:26:51.595712
2829  2023-11-29 16:26:51.627659
2830  2023-11-29 16:26:51.659548
2831  2023-11-29 16:26:51.691457
2832  2023-11-29 16:26:51.723340
2833  2023-11-29 16:26:51.755255
2834  2023-11-29 16:26:51.788244
2835  2023-11-29 16:26:51.836079
2836  2023-11-29 16:26:51.867997
2837  2023-11-29 16:26:51.899915
2838  2023-11-29 16:26:51.931814
2839  2023-11-29 16:26:51.963734
2840  2023-11-29 16:26:51.995644
2841  2023-11-29 16:26:52.027566
2842  2023-11-29 16:26:52.059505
2843  2023-11-29 16:26:52.093385
2844  2023-11-29 16:26:52.123270
2845  2023-11-29 16:26:52.155185
2846  2023-11-29 16:26:52.205087
2847  2023-11-29 16:26:52.236017
2848  2023-11-29 16:26:52.267924
2849  2023-11-29 16:26:52.300827
2850  2023-11-29 16:26:52.332745
2851  2023-11-29 16:26:52.364659
2852  2023-11-29 16:26:52.396573
2853  2023-11-29 16:26:52.428484
2854  2023-11-29 16:26:52.460398
2855  2023-11-29 16:26:52.493347
2856  2023-11-29 16:26:52.525229
2857  2023-11-29 16:26:52.556147
2858  2023-11-29 16:26:52.605024
2859  2023-11-29 16:26:52.636931
2860  2023-11-29 16:26:52.668846
2861  2023-11-29 16:26:52.700762
2862  2023-11-29 16:26:52.732673
2863  2023-11-29 16:26:52.764602
2864  2023-11-29 16:26:52.796502
2865  2023-11-29 16:26:52.828415
2866  2023-11-29 16:26:52.860300
2867  2023-11-29 16:26:52.892244
2868  2023-11-29 16:26:52.924153
2869  2023-11-29 16:26:52.956081
2870  2023-11-29 16:26:53.003965
2871  2023-11-29 16:26:53.035862
2872  2023-11-29 16:26:53.068802
2873  2023-11-29 16:26:53.099693
2874  2023-11-29 16:26:53.132627
2875  2023-11-29 16:26:53.164518
2876  2023-11-29 16:26:53.196457
2877  2023-11-29 16:26:53.228359
2878  2023-11-29 16:26:53.260258
2879  2023-11-29 16:26:53.292180
2880  2023-11-29 16:26:53.324095
2881  2023-11-29 16:26:53.356031
2882  2023-11-29 16:26:53.404025
2883  2023-11-29 16:26:53.436060
2884  2023-11-29 16:26:53.467995
2885  2023-11-29 16:26:53.499890
2886  2023-11-29 16:26:53.532813
2887  2023-11-29 16:26:53.563720
2888  2023-11-29 16:26:53.595633
2889  2023-11-29 16:26:53.627542
2890  2023-11-29 16:26:53.660472
2891  2023-11-29 16:26:53.691420
2892  2023-11-29 16:26:53.723329
2893  2023-11-29 16:26:53.755257
2894  2023-11-29 16:26:53.803168
2895  2023-11-29 16:26:53.835081
2896  2023-11-29 16:26:53.867962
2897  2023-11-29 16:26:53.899877
2898  2023-11-29 16:26:53.931792
2899  2023-11-29 16:26:53.963707
2900  2023-11-29 16:26:53.995735
2901  2023-11-29 16:26:54.027649
2902  2023-11-29 16:26:54.059690
2903  2023-11-29 16:26:54.091611
2904  2023-11-29 16:26:54.123525
2905  2023-11-29 16:26:54.157435
2906  2023-11-29 16:26:54.203311
2907  2023-11-29 16:26:54.235326
2908  2023-11-29 16:26:54.269233
2909  2023-11-29 16:26:54.301188
2910  2023-11-29 16:26:54.332060
2911  2023-11-29 16:26:54.363977
2912  2023-11-29 16:26:54.396961
2913  2023-11-29 16:26:54.428872
2914  2023-11-29 16:26:54.460791
2915  2023-11-29 16:26:54.491700
2916  2023-11-29 16:26:54.523582
2917  2023-11-29 16:26:54.556528
2918  2023-11-29 16:26:54.603432
2919  2023-11-29 16:26:54.636315
2920  2023-11-29 16:26:54.668250
2921  2023-11-29 16:26:54.700143
2922  2023-11-29 16:26:54.731076
2923  2023-11-29 16:26:54.763976
2924  2023-11-29 16:26:54.796924
2925  2023-11-29 16:26:54.828799
2926  2023-11-29 16:26:54.860711
2927  2023-11-29 16:26:54.891638
2928  2023-11-29 16:26:54.923520
2929  2023-11-29 16:26:54.956461
2930  2023-11-29 16:26:55.003334
2931  2023-11-29 16:26:55.036246
2932  2023-11-29 16:26:55.068182
2933  2023-11-29 16:26:55.100091
2934  2023-11-29 16:26:55.131003
2935  2023-11-29 16:26:55.163902
2936  2023-11-29 16:26:55.195818
2937  2023-11-29 16:26:55.227744
2938  2023-11-29 16:26:55.260651
2939  2023-11-29 16:26:55.291561
2940  2023-11-29 16:26:55.323443
2941  2023-11-29 16:26:55.355356
2942  2023-11-29 16:26:55.403274
2943  2023-11-29 16:26:55.436186
2944  2023-11-29 16:26:55.468099
2945  2023-11-29 16:26:55.500022
2946  2023-11-29 16:26:55.532082
2947  2023-11-29 16:26:55.564017
2948  2023-11-29 16:26:55.595927
2949  2023-11-29 16:26:55.627993
2950  2023-11-29 16:26:55.659883
2951  2023-11-29 16:26:55.691800
2952  2023-11-29 16:26:55.723679
2953  2023-11-29 16:26:55.772502
2954  2023-11-29 16:26:55.803621
2955  2023-11-29 16:26:55.835523
2956  2023-11-29 16:26:55.868398
2957  2023-11-29 16:26:55.900366
2958  2023-11-29 16:26:55.932276
2959  2023-11-29 16:26:55.963176
2960  2023-11-29 16:26:55.995104
2961  2023-11-29 16:26:56.028014
2962  2023-11-29 16:26:56.059943
2963  2023-11-29 16:26:56.091978
2964  2023-11-29 16:26:56.123820
2965  2023-11-29 16:26:56.171965
2966  2023-11-29 16:26:56.203806
2967  2023-11-29 16:26:56.235775
2968  2023-11-29 16:26:56.267681
2969  2023-11-29 16:26:56.299582
2970  2023-11-29 16:26:56.331496
2971  2023-11-29 16:26:56.363404
2972  2023-11-29 16:26:56.395334
2973  2023-11-29 16:26:56.427243
2974  2023-11-29 16:26:56.459169
2975  2023-11-29 16:26:56.492035
2976  2023-11-29 16:26:56.523029
2977  2023-11-29 16:26:56.571908
2978  2023-11-29 16:26:56.603808
2979  2023-11-29 16:26:56.635724
2980  2023-11-29 16:26:56.667639
2981  2023-11-29 16:26:56.699666
2982  2023-11-29 16:26:56.731610
2983  2023-11-29 16:26:56.763524
2984  2023-11-29 16:26:56.795415
2985  2023-11-29 16:26:56.827338
2986  2023-11-29 16:26:56.860261
2987  2023-11-29 16:26:56.891167
2988  2023-11-29 16:26:56.923085
2989  2023-11-29 16:26:56.971963
2990  2023-11-29 16:26:57.003856
2991  2023-11-29 16:26:57.035776
2992  2023-11-29 16:26:57.067698
2993  2023-11-29 16:26:57.099628
2994  2023-11-29 16:26:57.131563
2995  2023-11-29 16:26:57.163434
2996  2023-11-29 16:26:57.195343
2997  2023-11-29 16:26:57.227224
2998  2023-11-29 16:26:57.259151
2999  2023-11-29 16:26:57.292104
3000  2023-11-29 16:26:57.323001
3001  2023-11-29 16:26:57.371869
3002  2023-11-29 16:26:57.403782
3003  2023-11-29 16:26:57.435695
3004  2023-11-29 16:26:57.467610
3005  2023-11-29 16:26:57.499520
3006  2023-11-29 16:26:57.531478
3007  2023-11-29 16:26:57.563358
3008  2023-11-29 16:26:57.595283
3009  2023-11-29 16:26:57.627182
3010  2023-11-29 16:26:57.659127
3011  2023-11-29 16:26:57.692042
3012  2023-11-29 16:26:57.723929
3013  2023-11-29 16:26:57.771809
3014  2023-11-29 16:26:57.803680
3015  2023-11-29 16:26:57.835643
3016  2023-11-29 16:26:57.867557
3017  2023-11-29 16:26:57.899453
3018  2023-11-29 16:26:57.931353
3019  2023-11-29 16:26:57.963253
3020  2023-11-29 16:26:57.995201
3021  2023-11-29 16:26:58.028081
3022  2023-11-29 16:26:58.061069
3023  2023-11-29 16:26:58.091943
3024  2023-11-29 16:26:58.123875
3025  2023-11-29 16:26:58.171729
3026  2023-11-29 16:26:58.203657
3027  2023-11-29 16:26:58.235583
3028  2023-11-29 16:26:58.267504
3029  2023-11-29 16:26:58.299400
3030  2023-11-29 16:26:58.331309
3031  2023-11-29 16:26:58.364162
3032  2023-11-29 16:26:58.396086
3033  2023-11-29 16:26:58.427973
3034  2023-11-29 16:26:58.459992
3035  2023-11-29 16:26:58.491870
3036  2023-11-29 16:26:58.523790
3037  2023-11-29 16:26:58.571698
3038  2023-11-29 16:26:58.603634
3039  2023-11-29 16:26:58.635519
3040  2023-11-29 16:26:58.667443
3041  2023-11-29 16:26:58.700377
3042  2023-11-29 16:26:58.731382
3043  2023-11-29 16:26:58.763298
3044  2023-11-29 16:26:58.795420
3045  2023-11-29 16:26:58.827361
3046  2023-11-29 16:26:58.860212
3047  2023-11-29 16:26:58.891171
3048  2023-11-29 16:26:58.923086
3049  2023-11-29 16:26:58.971923
3050  2023-11-29 16:26:59.003869
3051  2023-11-29 16:26:59.035783
3052  2023-11-29 16:26:59.067684
3053  2023-11-29 16:26:59.099599
3054  2023-11-29 16:26:59.131514
3055  2023-11-29 16:26:59.163458
3056  2023-11-29 16:26:59.195405
3057  2023-11-29 16:26:59.227363
3058  2023-11-29 16:26:59.259354
3059  2023-11-29 16:26:59.291276
3060  2023-11-29 16:26:59.339152
3061  2023-11-29 16:26:59.372013
3062  2023-11-29 16:26:59.403994
3063  2023-11-29 16:26:59.435875
3064  2023-11-29 16:26:59.467790
3065  2023-11-29 16:26:59.499714
3066  2023-11-29 16:26:59.531779
3067  2023-11-29 16:26:59.563796
3068  2023-11-29 16:26:59.595710
3069  2023-11-29 16:26:59.627624
3070  2023-11-29 16:26:59.659534
3071  2023-11-29 16:26:59.691463
3072  2023-11-29 16:26:59.739321
3073  2023-11-29 16:26:59.771242
3074  2023-11-29 16:26:59.803163
3075  2023-11-29 16:26:59.835068
3076  2023-11-29 16:26:59.866984
3077  2023-11-29 16:26:59.899895
3078  2023-11-29 16:26:59.931829
3079  2023-11-29 16:26:59.963740
3080  2023-11-29 16:26:59.995610
3081  2023-11-29 16:27:00.027550
3082  2023-11-29 16:27:00.059483
3083  2023-11-29 16:27:00.091388
3084  2023-11-29 16:27:00.139271
3085  2023-11-29 16:27:00.171168
3086  2023-11-29 16:27:00.203107
3087  2023-11-29 16:27:00.235964
3088  2023-11-29 16:27:00.267918
3089  2023-11-29 16:27:00.299834
3090  2023-11-29 16:27:00.331744
3091  2023-11-29 16:27:00.363645
3092  2023-11-29 16:27:00.395536
3093  2023-11-29 16:27:00.427516
3094  2023-11-29 16:27:00.459390
3095  2023-11-29 16:27:00.491323
3096  2023-11-29 16:27:00.539195
3097  2023-11-29 16:27:00.571121
3098  2023-11-29 16:27:00.603031
3099  2023-11-29 16:27:00.635964
3100  2023-11-29 16:27:00.667841
3101  2023-11-29 16:27:00.699764
3102  2023-11-29 16:27:00.731676
3103  2023-11-29 16:27:00.763591
3104  2023-11-29 16:27:00.795548
3105  2023-11-29 16:27:00.827424
3106  2023-11-29 16:27:00.860291
3107  2023-11-29 16:27:00.891254
3108  2023-11-29 16:27:00.940079
3109  2023-11-29 16:27:00.971042
3110  2023-11-29 16:27:01.003951
3111  2023-11-29 16:27:01.035855
3112  2023-11-29 16:27:01.067787
3113  2023-11-29 16:27:01.099685
3114  2023-11-29 16:27:01.131610
3115  2023-11-29 16:27:01.163540
3116  2023-11-29 16:27:01.195394
3117  2023-11-29 16:27:01.227341
3118  2023-11-29 16:27:01.260251
3119  2023-11-29 16:27:01.291183
3120  2023-11-29 16:27:01.339060
3121  2023-11-29 16:27:01.371966
3122  2023-11-29 16:27:01.403881
3123  2023-11-29 16:27:01.435794
3124  2023-11-29 16:27:01.467699
3125  2023-11-29 16:27:01.499626
3126  2023-11-29 16:27:01.531541
3127  2023-11-29 16:27:01.563466
3128  2023-11-29 16:27:01.595377
3129  2023-11-29 16:27:01.627286
3130  2023-11-29 16:27:01.660181
3131  2023-11-29 16:27:01.691127
3132  2023-11-29 16:27:01.738993
3133  2023-11-29 16:27:01.771888
3134  2023-11-29 16:27:01.803802
3135  2023-11-29 16:27:01.835726
3136  2023-11-29 16:27:01.867627
3137  2023-11-29 16:27:01.899551
3138  2023-11-29 16:27:01.931471
3139  2023-11-29 16:27:01.963386
3140  2023-11-29 16:27:01.995301
3141  2023-11-29 16:27:02.027201
3142  2023-11-29 16:27:02.059262
3143  2023-11-29 16:27:02.091161
3144  2023-11-29 16:27:02.139033
3145  2023-11-29 16:27:02.171972
3146  2023-11-29 16:27:02.203855
3147  2023-11-29 16:27:02.235763
3148  2023-11-29 16:27:02.267839
3149  2023-11-29 16:27:02.299747
3150  2023-11-29 16:27:02.331641
3151  2023-11-29 16:27:02.363593
3152  2023-11-29 16:27:02.395481
3153  2023-11-29 16:27:02.427405
3154  2023-11-29 16:27:02.459305
3155  2023-11-29 16:27:02.491219
3156  2023-11-29 16:27:02.539106
3157  2023-11-29 16:27:02.572026
3158  2023-11-29 16:27:02.603916
3159  2023-11-29 16:27:02.635876
3160  2023-11-29 16:27:02.667873
3161  2023-11-29 16:27:02.699764
3162  2023-11-29 16:27:02.731672
3163  2023-11-29 16:27:02.763588
3164  2023-11-29 16:27:02.795624
3165  2023-11-29 16:27:02.827527
3166  2023-11-29 16:27:02.860405
3167  2023-11-29 16:27:02.892344
3168  2023-11-29 16:27:02.940190
3169  2023-11-29 16:27:02.972184
3170  2023-11-29 16:27:03.004057
3171  2023-11-29 16:27:03.035964
3172  2023-11-29 16:27:03.067875
3173  2023-11-29 16:27:03.099804
3174  2023-11-29 16:27:03.131719
3175  2023-11-29 16:27:03.163636
3176  2023-11-29 16:27:03.196551
3177  2023-11-29 16:27:03.227463
3178  2023-11-29 16:27:03.259366
3179  2023-11-29 16:27:03.307249
3180  2023-11-29 16:27:03.339177
3181  2023-11-29 16:27:03.371080
3182  2023-11-29 16:27:03.403949
3183  2023-11-29 16:27:03.435907
3184  2023-11-29 16:27:03.467810
3185  2023-11-29 16:27:03.499725
3186  2023-11-29 16:27:03.531645
3187  2023-11-29 16:27:03.563553
3188  2023-11-29 16:27:03.595499
3189  2023-11-29 16:27:03.627390
3190  2023-11-29 16:27:03.659299
3191  2023-11-29 16:27:03.708134
3192  2023-11-29 16:27:03.739103
3193  2023-11-29 16:27:03.772037
3194  2023-11-29 16:27:03.803914
3195  2023-11-29 16:27:03.835859
3196  2023-11-29 16:27:03.867754
3197  2023-11-29 16:27:03.899669
3198  2023-11-29 16:27:03.931578
3199  2023-11-29 16:27:03.963482
3200  2023-11-29 16:27:03.995402
3201  2023-11-29 16:27:04.027327
3202  2023-11-29 16:27:04.059247
3203  2023-11-29 16:27:04.107109
3204  2023-11-29 16:27:04.140054
3205  2023-11-29 16:27:04.171956
3206  2023-11-29 16:27:04.203859
3207  2023-11-29 16:27:04.235864
3208  2023-11-29 16:27:04.267775
3209  2023-11-29 16:27:04.299705
3210  2023-11-29 16:27:04.331620
3211  2023-11-29 16:27:04.363535
3212  2023-11-29 16:27:04.395440
3213  2023-11-29 16:27:04.427359
3214  2023-11-29 16:27:04.459302
3215  2023-11-29 16:27:04.507104
3216  2023-11-29 16:27:04.539067
3217  2023-11-29 16:27:04.570972
3218  2023-11-29 16:27:04.603877
3219  2023-11-29 16:27:04.635785
3220  2023-11-29 16:27:04.667706
3221  2023-11-29 16:27:04.699632
3222  2023-11-29 16:27:04.731546
3223  2023-11-29 16:27:04.763478
3224  2023-11-29 16:27:04.795365
3225  2023-11-29 16:27:04.827305
3226  2023-11-29 16:27:04.859201
3227  2023-11-29 16:27:04.908031
3228  2023-11-29 16:27:04.938981
3229  2023-11-29 16:27:04.971909
3230  2023-11-29 16:27:05.003813
3231  2023-11-29 16:27:05.035733
3232  2023-11-29 16:27:05.067647
3233  2023-11-29 16:27:05.099550
3234  2023-11-29 16:27:05.131631
3235  2023-11-29 16:27:05.163547
3236  2023-11-29 16:27:05.195506
3237  2023-11-29 16:27:05.227376
3238  2023-11-29 16:27:05.259415
3239  2023-11-29 16:27:05.307376
3240  2023-11-29 16:27:05.339337
3241  2023-11-29 16:27:05.371236
3242  2023-11-29 16:27:05.403167
3243  2023-11-29 16:27:05.436073
3244  2023-11-29 16:27:05.468012
3245  2023-11-29 16:27:05.499891
3246  2023-11-29 16:27:05.531777
3247  2023-11-29 16:27:05.563715
3248  2023-11-29 16:27:05.595630
3249  2023-11-29 16:27:05.627703
3250  2023-11-29 16:27:05.659783
3251  2023-11-29 16:27:05.707724
3252  2023-11-29 16:27:05.739686
3253  2023-11-29 16:27:05.771523
3254  2023-11-29 16:27:05.803438
3255  2023-11-29 16:27:05.835388
3256  2023-11-29 16:27:05.867300
3257  2023-11-29 16:27:05.899299
3258  2023-11-29 16:27:05.931218
3259  2023-11-29 16:27:05.963152
3260  2023-11-29 16:27:05.995048
3261  2023-11-29 16:27:06.027980
3262  2023-11-29 16:27:06.059891
3263  2023-11-29 16:27:06.107734
3264  2023-11-29 16:27:06.139646
3265  2023-11-29 16:27:06.171560
3266  2023-11-29 16:27:06.203500
3267  2023-11-29 16:27:06.235415
3268  2023-11-29 16:27:06.267325
3269  2023-11-29 16:27:06.299234
3270  2023-11-29 16:27:06.331134
3271  2023-11-29 16:27:06.363078
3272  2023-11-29 16:27:06.395970
3273  2023-11-29 16:27:06.427893
3274  2023-11-29 16:27:06.459802
3275  2023-11-29 16:27:06.507631
3276  2023-11-29 16:27:06.539629
3277  2023-11-29 16:27:06.571537
3278  2023-11-29 16:27:06.603542
3279  2023-11-29 16:27:06.635474
3280  2023-11-29 16:27:06.667422
3281  2023-11-29 16:27:06.699336
3282  2023-11-29 16:27:06.731318
3283  2023-11-29 16:27:06.763216
3284  2023-11-29 16:27:06.795146
3285  2023-11-29 16:27:06.827062
3286  2023-11-29 16:27:06.875883
3287  2023-11-29 16:27:06.907839
3288  2023-11-29 16:27:06.939755
3289  2023-11-29 16:27:06.971668
3290  2023-11-29 16:27:07.003582
3291  2023-11-29 16:27:07.035504
3292  2023-11-29 16:27:07.067416
3293  2023-11-29 16:27:07.099349
3294  2023-11-29 16:27:07.131233
3295  2023-11-29 16:27:07.163168
3296  2023-11-29 16:27:07.196063
3297  2023-11-29 16:27:07.227987
3298  2023-11-29 16:27:07.275813
3299  2023-11-29 16:27:07.307727
3300  2023-11-29 16:27:07.339683
3301  2023-11-29 16:27:07.371600
3302  2023-11-29 16:27:07.403519
3303  2023-11-29 16:27:07.435429
3304  2023-11-29 16:27:07.467331
3305  2023-11-29 16:27:07.499259
3306  2023-11-29 16:27:07.531161
3307  2023-11-29 16:27:07.563076
3308  2023-11-29 16:27:07.596001
3309  2023-11-29 16:27:07.627928
3310  2023-11-29 16:27:07.675743
3311  2023-11-29 16:27:07.707657
3312  2023-11-29 16:27:07.739621
3313  2023-11-29 16:27:07.771518
3314  2023-11-29 16:27:07.803433
3315  2023-11-29 16:27:07.835364
3316  2023-11-29 16:27:07.867261
3317  2023-11-29 16:27:07.900191
3318  2023-11-29 16:27:07.931106
3319  2023-11-29 16:27:07.964018
3320  2023-11-29 16:27:07.996017
3321  2023-11-29 16:27:08.027938
3322  2023-11-29 16:27:08.075874
3323  2023-11-29 16:27:08.107847
3324  2023-11-29 16:27:08.139743
3325  2023-11-29 16:27:08.171658
3326  2023-11-29 16:27:08.203574
3327  2023-11-29 16:27:08.235487
3328  2023-11-29 16:27:08.267430
3329  2023-11-29 16:27:08.299320
3330  2023-11-29 16:27:08.331236
3331  2023-11-29 16:27:08.364184
3332  2023-11-29 16:27:08.395101
3333  2023-11-29 16:27:08.427053
3334  2023-11-29 16:27:08.476012
3335  2023-11-29 16:27:08.507927
3336  2023-11-29 16:27:08.539886
3337  2023-11-29 16:27:08.571805
3338  2023-11-29 16:27:08.603671
3339  2023-11-29 16:27:08.635619
3340  2023-11-29 16:27:08.667758
3341  2023-11-29 16:27:08.699673
3342  2023-11-29 16:27:08.731586
3343  2023-11-29 16:27:08.763502
3344  2023-11-29 16:27:08.795454
3345  2023-11-29 16:27:08.827369
3346  2023-11-29 16:27:08.875271
3347  2023-11-29 16:27:08.907155
3348  2023-11-29 16:27:08.939138
3349  2023-11-29 16:27:08.971054
3350  2023-11-29 16:27:09.003995
3351  2023-11-29 16:27:09.035912
3352  2023-11-29 16:27:09.067931
3353  2023-11-29 16:27:09.099836
3354  2023-11-29 16:27:09.131748
3355  2023-11-29 16:27:09.163661
3356  2023-11-29 16:27:09.195582
3357  2023-11-29 16:27:09.227497
3358  2023-11-29 16:27:09.275365
3359  2023-11-29 16:27:09.307245
3360  2023-11-29 16:27:09.339296
3361  2023-11-29 16:27:09.371191
3362  2023-11-29 16:27:09.403182
3363  2023-11-29 16:27:09.437098
3364  2023-11-29 16:27:09.469008
3365  2023-11-29 16:27:09.501357
3366  2023-11-29 16:27:09.533357
3367  2023-11-29 16:27:09.565279
3368  2023-11-29 16:27:09.597190
3369  2023-11-29 16:27:09.629108
3370  2023-11-29 16:27:09.676974
3371  2023-11-29 16:27:09.708888
3372  2023-11-29 16:27:09.740805
3373  2023-11-29 16:27:09.772721
3374  2023-11-29 16:27:09.804645
3375  2023-11-29 16:27:09.836545
3376  2023-11-29 16:27:09.868464
3377  2023-11-29 16:27:09.900375
3378  2023-11-29 16:27:09.932289
3379  2023-11-29 16:27:09.964208
3380  2023-11-29 16:27:09.997117
3381  2023-11-29 16:27:10.028042
3382  2023-11-29 16:27:10.076906
3383  2023-11-29 16:27:10.108820
3384  2023-11-29 16:27:10.140736
3385  2023-11-29 16:27:10.172648
3386  2023-11-29 16:27:10.204561
3387  2023-11-29 16:27:10.236477
3388  2023-11-29 16:27:10.268390
3389  2023-11-29 16:27:10.300330
3390  2023-11-29 16:27:10.332218
3391  2023-11-29 16:27:10.364139
3392  2023-11-29 16:27:10.396056
3393  2023-11-29 16:27:10.427980
3394  2023-11-29 16:27:10.476806
3395  2023-11-29 16:27:10.508745
3396  2023-11-29 16:27:10.539665
3397  2023-11-29 16:27:10.572685
3398  2023-11-29 16:27:10.604599
3399  2023-11-29 16:27:10.636502
3400  2023-11-29 16:27:10.668419
3401  2023-11-29 16:27:10.700341
3402  2023-11-29 16:27:10.732250
3403  2023-11-29 16:27:10.764165
3404  2023-11-29 16:27:10.796080
3405  2023-11-29 16:27:10.843975
3406  2023-11-29 16:27:10.875888
3407  2023-11-29 16:27:10.907789
3408  2023-11-29 16:27:10.939698
3409  2023-11-29 16:27:10.971610
3410  2023-11-29 16:27:11.003520
3411  2023-11-29 16:27:11.035441
3412  2023-11-29 16:27:11.068369
3413  2023-11-29 16:27:11.099268
3414  2023-11-29 16:27:11.131184
3415  2023-11-29 16:27:11.164094
3416  2023-11-29 16:27:11.197028
3417  2023-11-29 16:27:11.243881
3418  2023-11-29 16:27:11.276760
3419  2023-11-29 16:27:11.307711
3420  2023-11-29 16:27:11.339625
3421  2023-11-29 16:27:11.371541
3422  2023-11-29 16:27:11.403563
3423  2023-11-29 16:27:11.435477
3424  2023-11-29 16:27:11.467480
3425  2023-11-29 16:27:11.499400
3426  2023-11-29 16:27:11.532324
3427  2023-11-29 16:27:11.564229
3428  2023-11-29 16:27:11.595157
3429  2023-11-29 16:27:11.643976
3430  2023-11-29 16:27:11.676936
3431  2023-11-29 16:27:11.707940
3432  2023-11-29 16:27:11.741924
3433  2023-11-29 16:27:11.771770
3434  2023-11-29 16:27:11.803722
3435  2023-11-29 16:27:11.836643
3436  2023-11-29 16:27:11.869555
3437  2023-11-29 16:27:11.899461
3438  2023-11-29 16:27:11.931415
3439  2023-11-29 16:27:11.963431
3440  2023-11-29 16:27:11.995316
3441  2023-11-29 16:27:12.043244
3442  2023-11-29 16:27:12.077101
3443  2023-11-29 16:27:12.109028
3444  2023-11-29 16:27:12.141136
3445  2023-11-29 16:27:12.171069
3446  2023-11-29 16:27:12.203052
3447  2023-11-29 16:27:12.235475
3448  2023-11-29 16:27:12.268521
3449  2023-11-29 16:27:12.300503
3450  2023-11-29 16:27:12.331429
3451  2023-11-29 16:27:12.363332
3452  2023-11-29 16:27:12.397243
3453  2023-11-29 16:27:12.443139
3454  2023-11-29 16:27:12.475181
3455  2023-11-29 16:27:12.508037
3456  2023-11-29 16:27:12.541011
3457  2023-11-29 16:27:12.573039
3458  2023-11-29 16:27:12.602964
3459  2023-11-29 16:27:12.635934
3460  2023-11-29 16:27:12.667784
3461  2023-11-29 16:27:12.700727
3462  2023-11-29 16:27:12.732725
3463  2023-11-29 16:27:12.763623
3464  2023-11-29 16:27:12.795558
3465  2023-11-29 16:27:12.843441
3466  2023-11-29 16:27:12.875294
3467  2023-11-29 16:27:12.908245
3468  2023-11-29 16:27:12.940160
3469  2023-11-29 16:27:12.972086
3470  2023-11-29 16:27:13.002997
3471  2023-11-29 16:27:13.035965
3472  2023-11-29 16:27:13.069024
3473  2023-11-29 16:27:13.101073
3474  2023-11-29 16:27:13.132963
3475  2023-11-29 16:27:13.163873
3476  2023-11-29 16:27:13.195803
3477  2023-11-29 16:27:13.243668
3478  2023-11-29 16:27:13.275542
3479  2023-11-29 16:27:13.307494
3480  2023-11-29 16:27:13.339420
3481  2023-11-29 16:27:13.371318
3482  2023-11-29 16:27:13.403231
3483  2023-11-29 16:27:13.435160
3484  2023-11-29 16:27:13.468063
3485  2023-11-29 16:27:13.499978
3486  2023-11-29 16:27:13.531897
3487  2023-11-29 16:27:13.563803
3488  2023-11-29 16:27:13.595754
3489  2023-11-29 16:27:13.643557
3490  2023-11-29 16:27:13.675472
3491  2023-11-29 16:27:13.707432
3492  2023-11-29 16:27:13.739338
3493  2023-11-29 16:27:13.772249
3494  2023-11-29 16:27:13.803199
3495  2023-11-29 16:27:13.835177
3496  2023-11-29 16:27:13.868102
3497  2023-11-29 16:27:13.900007
3498  2023-11-29 16:27:13.931931
3499  2023-11-29 16:27:13.963846
3500  2023-11-29 16:27:13.995843
3501  2023-11-29 16:27:14.043706
3502  2023-11-29 16:27:14.075663
3503  2023-11-29 16:27:14.107549
3504  2023-11-29 16:27:14.139578
3505  2023-11-29 16:27:14.171495
3506  2023-11-29 16:27:14.203410
3507  2023-11-29 16:27:14.235319
3508  2023-11-29 16:27:14.267238
3509  2023-11-29 16:27:14.299154
3510  2023-11-29 16:27:14.332080
3511  2023-11-29 16:27:14.363975
3512  2023-11-29 16:27:14.411866
3513  2023-11-29 16:27:14.443763
3514  2023-11-29 16:27:14.475645
3515  2023-11-29 16:27:14.507600
3516  2023-11-29 16:27:14.539544
3517  2023-11-29 16:27:14.571435
3518  2023-11-29 16:27:14.603340
3519  2023-11-29 16:27:14.635266
3520  2023-11-29 16:27:14.668180
3521  2023-11-29 16:27:14.699087
3522  2023-11-29 16:27:14.731961
3523  2023-11-29 16:27:14.763876
3524  2023-11-29 16:27:14.811779
3525  2023-11-29 16:27:14.843721
3526  2023-11-29 16:27:14.875606
3527  2023-11-29 16:27:14.907540
3528  2023-11-29 16:27:14.939450
3529  2023-11-29 16:27:14.971321
3530  2023-11-29 16:27:15.003236
3531  2023-11-29 16:27:15.035189
3532  2023-11-29 16:27:15.068065
3533  2023-11-29 16:27:15.100020
3534  2023-11-29 16:27:15.131901
3535  2023-11-29 16:27:15.163806
3536  2023-11-29 16:27:15.211717
3537  2023-11-29 16:27:15.243661
3538  2023-11-29 16:27:15.275557
3539  2023-11-29 16:27:15.307454
3540  2023-11-29 16:27:15.339432
3541  2023-11-29 16:27:15.371338
3542  2023-11-29 16:27:15.404243
3543  2023-11-29 16:27:15.435184
3544  2023-11-29 16:27:15.467083
3545  2023-11-29 16:27:15.500009
3546  2023-11-29 16:27:15.531931
3547  2023-11-29 16:27:15.563833
3548  2023-11-29 16:27:15.611691
3549  2023-11-29 16:27:15.643610
3550  2023-11-29 16:27:15.675461
3551  2023-11-29 16:27:15.707375
3552  2023-11-29 16:27:15.740292
3553  2023-11-29 16:27:15.771199
3554  2023-11-29 16:27:15.804115
3555  2023-11-29 16:27:15.836009
3556  2023-11-29 16:27:15.868032
3557  2023-11-29 16:27:15.899978
3558  2023-11-29 16:27:15.932442
3559  2023-11-29 16:27:15.963479
3560  2023-11-29 16:27:16.011338
3561  2023-11-29 16:27:16.043255
