
1  2023-12-01 16:56:52.515714
2  2023-12-01 16:56:52.563620
3  2023-12-01 16:56:52.610460
4  2023-12-01 16:56:52.641410
5  2023-12-01 16:56:52.688253
6  2023-12-01 16:56:52.735160
7  2023-12-01 16:56:52.766044
8  2023-12-01 16:56:52.813917
9  2023-12-01 16:56:52.845861
10  2023-12-01 16:56:52.893709
11  2023-12-01 16:56:52.940581
12  2023-12-01 16:56:52.971526
13  2023-12-01 16:56:53.019368
14  2023-12-01 16:56:53.067275
15  2023-12-01 16:56:53.099185
16  2023-12-01 16:56:53.147080
17  2023-12-01 16:56:53.179044
18  2023-12-01 16:56:53.225919
19  2023-12-01 16:56:53.272794
20  2023-12-01 16:56:53.304708
21  2023-12-01 16:56:53.350660
22  2023-12-01 16:56:53.398551
23  2023-12-01 16:56:53.430570
24  2023-12-01 16:56:53.478478
25  2023-12-01 16:56:53.525321
26  2023-12-01 16:56:53.556267
27  2023-12-01 16:56:53.604108
28  2023-12-01 16:56:53.651981
29  2023-12-01 16:56:53.683895
30  2023-12-01 16:56:53.731811
31  2023-12-01 16:56:53.763837
32  2023-12-01 16:56:53.811670
33  2023-12-01 16:56:53.858579
34  2023-12-01 16:56:53.889586
35  2023-12-01 16:56:53.937359
36  2023-12-01 16:56:53.985310
37  2023-12-01 16:56:54.017240
38  2023-12-01 16:56:54.065221
39  2023-12-01 16:56:54.097103
40  2023-12-01 16:56:54.144977
41  2023-12-01 16:56:54.192884
42  2023-12-01 16:56:54.224763
43  2023-12-01 16:56:54.272686
44  2023-12-01 16:56:54.304552
45  2023-12-01 16:56:54.352423
46  2023-12-01 16:56:54.400293
47  2023-12-01 16:56:54.432360
48  2023-12-01 16:56:54.480200
49  2023-12-01 16:56:54.512115
50  2023-12-01 16:56:54.559990
51  2023-12-01 16:56:54.606909
52  2023-12-01 16:56:54.638871
53  2023-12-01 16:56:54.686697
54  2023-12-01 16:56:54.734613
55  2023-12-01 16:56:54.765530
56  2023-12-01 16:56:54.813454
57  2023-12-01 16:56:54.860277
58  2023-12-01 16:56:54.891194
59  2023-12-01 16:56:54.939066
60  2023-12-01 16:56:54.970148
61  2023-12-01 16:56:55.016061
62  2023-12-01 16:56:55.063898
63  2023-12-01 16:56:55.095812
64  2023-12-01 16:56:55.143684
65  2023-12-01 16:56:55.190871
66  2023-12-01 16:56:55.221830
67  2023-12-01 16:56:55.269737
68  2023-12-01 16:56:55.317716
69  2023-12-01 16:56:55.349686
70  2023-12-01 16:56:55.397667
71  2023-12-01 16:56:55.428714
72  2023-12-01 16:56:55.474589
73  2023-12-01 16:56:55.522467
74  2023-12-01 16:56:55.554383
75  2023-12-01 16:56:55.602220
76  2023-12-01 16:56:55.650092
77  2023-12-01 16:56:55.681019
78  2023-12-01 16:56:55.726888
79  2023-12-01 16:56:55.773798
80  2023-12-01 16:56:55.805676
81  2023-12-01 16:56:55.851553
82  2023-12-01 16:56:55.899426
83  2023-12-01 16:56:55.931340
84  2023-12-01 16:56:55.979212
85  2023-12-01 16:56:56.027084
86  2023-12-01 16:56:56.058999
87  2023-12-01 16:56:56.106871
88  2023-12-01 16:56:56.138786
89  2023-12-01 16:56:56.186658
90  2023-12-01 16:56:56.233532
91  2023-12-01 16:56:56.264450
92  2023-12-01 16:56:56.311359
93  2023-12-01 16:56:56.358199
94  2023-12-01 16:56:56.389162
95  2023-12-01 16:56:56.436988
96  2023-12-01 16:56:56.484860
97  2023-12-01 16:56:56.516821
98  2023-12-01 16:56:56.564681
99  2023-12-01 16:56:56.596595
100  2023-12-01 16:56:56.644467
101  2023-12-01 16:56:56.691308
102  2023-12-01 16:56:56.722262
103  2023-12-01 16:56:56.770098
104  2023-12-01 16:56:56.817970
105  2023-12-01 16:56:56.849885
106  2023-12-01 16:56:56.897814
107  2023-12-01 16:56:56.929708
108  2023-12-01 16:56:56.977574
109  2023-12-01 16:56:57.025462
110  2023-12-01 16:56:57.056375
111  2023-12-01 16:56:57.103385
112  2023-12-01 16:56:57.151310
113  2023-12-01 16:56:57.182214
114  2023-12-01 16:56:57.230080
115  2023-12-01 16:56:57.261961
116  2023-12-01 16:56:57.309833
117  2023-12-01 16:56:57.357754
118  2023-12-01 16:56:57.389678
119  2023-12-01 16:56:57.437491
120  2023-12-01 16:56:57.483405
121  2023-12-01 16:56:57.515283
122  2023-12-01 16:56:57.561166
123  2023-12-01 16:56:57.609033
124  2023-12-01 16:56:57.641037
125  2023-12-01 16:56:57.688945
126  2023-12-01 16:56:57.720855
127  2023-12-01 16:56:57.767698
128  2023-12-01 16:56:57.815611
129  2023-12-01 16:56:57.847518
130  2023-12-01 16:56:57.894360
131  2023-12-01 16:56:57.940237
132  2023-12-01 16:56:57.971190
133  2023-12-01 16:56:58.019070
134  2023-12-01 16:56:58.066934
135  2023-12-01 16:56:58.098847
136  2023-12-01 16:56:58.146685
137  2023-12-01 16:56:58.178609
138  2023-12-01 16:56:58.226504
139  2023-12-01 16:56:58.274344
140  2023-12-01 16:56:58.306259
141  2023-12-01 16:56:58.354166
142  2023-12-01 16:56:58.402145
143  2023-12-01 16:56:58.433917
144  2023-12-01 16:56:58.481790
145  2023-12-01 16:56:58.513816
146  2023-12-01 16:56:58.560721
147  2023-12-01 16:56:58.607565
148  2023-12-01 16:56:58.639511
149  2023-12-01 16:56:58.686355
150  2023-12-01 16:56:58.734226
151  2023-12-01 16:56:58.766141
152  2023-12-01 16:56:58.814045
153  2023-12-01 16:56:58.845928
154  2023-12-01 16:56:58.892803
155  2023-12-01 16:56:58.939756
156  2023-12-01 16:56:58.971670
157  2023-12-01 16:56:59.019618
158  2023-12-01 16:56:59.067492
159  2023-12-01 16:56:59.099436
160  2023-12-01 16:56:59.147279
161  2023-12-01 16:56:59.193156
162  2023-12-01 16:56:59.225103
163  2023-12-01 16:56:59.272942
164  2023-12-01 16:56:59.304857
165  2023-12-01 16:56:59.352729
166  2023-12-01 16:56:59.400601
167  2023-12-01 16:56:59.432659
168  2023-12-01 16:56:59.480388
169  2023-12-01 16:56:59.512303
170  2023-12-01 16:56:59.559177
171  2023-12-01 16:56:59.606052
172  2023-12-01 16:56:59.637967
173  2023-12-01 16:56:59.685839
174  2023-12-01 16:56:59.733711
175  2023-12-01 16:56:59.765625
176  2023-12-01 16:56:59.813498
177  2023-12-01 16:56:59.859374
178  2023-12-01 16:56:59.890303
179  2023-12-01 16:56:59.936323
180  2023-12-01 16:56:59.982230
181  2023-12-01 16:57:00.012184
182  2023-12-01 16:57:00.059060
183  2023-12-01 16:57:00.106897
184  2023-12-01 16:57:00.138811
185  2023-12-01 16:57:00.186714
186  2023-12-01 16:57:00.233558
187  2023-12-01 16:57:00.264475
188  2023-12-01 16:57:00.311384
189  2023-12-01 16:57:00.358225
190  2023-12-01 16:57:00.390140
191  2023-12-01 16:57:00.438011
192  2023-12-01 16:57:00.484921
193  2023-12-01 16:57:00.514807
194  2023-12-01 16:57:00.562715
195  2023-12-01 16:57:00.609553
196  2023-12-01 16:57:00.641500
197  2023-12-01 16:57:00.689373
198  2023-12-01 16:57:00.721288
199  2023-12-01 16:57:00.769126
200  2023-12-01 16:57:00.817052
201  2023-12-01 16:57:00.848913
202  2023-12-01 16:57:00.894822
203  2023-12-01 16:57:00.942662
204  2023-12-01 16:57:00.973616
205  2023-12-01 16:57:01.020485
206  2023-12-01 16:57:01.068365
207  2023-12-01 16:57:01.100274
208  2023-12-01 16:57:01.148161
209  2023-12-01 16:57:01.180028
210  2023-12-01 16:57:01.227900
211  2023-12-01 16:57:01.275806
212  2023-12-01 16:57:01.307718
213  2023-12-01 16:57:01.355590
214  2023-12-01 16:57:01.387473
215  2023-12-01 16:57:01.435378
216  2023-12-01 16:57:01.483249
217  2023-12-01 16:57:01.515132
218  2023-12-01 16:57:01.561009
219  2023-12-01 16:57:01.608881
220  2023-12-01 16:57:01.640796
221  2023-12-01 16:57:01.688673
222  2023-12-01 16:57:01.720706
223  2023-12-01 16:57:01.768455
224  2023-12-01 16:57:01.815362
225  2023-12-01 16:57:01.847280
226  2023-12-01 16:57:01.895116
227  2023-12-01 16:57:01.942988
228  2023-12-01 16:57:01.974903
229  2023-12-01 16:57:02.022809
230  2023-12-01 16:57:02.054689
231  2023-12-01 16:57:02.102562
232  2023-12-01 16:57:02.149480
233  2023-12-01 16:57:02.180386
234  2023-12-01 16:57:02.228258
235  2023-12-01 16:57:02.276098
236  2023-12-01 16:57:02.306018
237  2023-12-01 16:57:02.353923
238  2023-12-01 16:57:02.401762
239  2023-12-01 16:57:02.433676
240  2023-12-01 16:57:02.481549
241  2023-12-01 16:57:02.513497
242  2023-12-01 16:57:02.559372
243  2023-12-01 16:57:02.607212
244  2023-12-01 16:57:02.639127
245  2023-12-01 16:57:02.687031
246  2023-12-01 16:57:02.734906
247  2023-12-01 16:57:02.766821
248  2023-12-01 16:57:02.814705
249  2023-12-01 16:57:02.860567
250  2023-12-01 16:57:02.892481
251  2023-12-01 16:57:02.940322
252  2023-12-01 16:57:02.971274
253  2023-12-01 16:57:03.018147
254  2023-12-01 16:57:03.065986
255  2023-12-01 16:57:03.098105
256  2023-12-01 16:57:03.145808
257  2023-12-01 16:57:03.193679
258  2023-12-01 16:57:03.225597
259  2023-12-01 16:57:03.273461
260  2023-12-01 16:57:03.305376
261  2023-12-01 16:57:03.353218
262  2023-12-01 16:57:03.400093
263  2023-12-01 16:57:03.431010
264  2023-12-01 16:57:03.478913
265  2023-12-01 16:57:03.526754
266  2023-12-01 16:57:03.558794
267  2023-12-01 16:57:03.605543
268  2023-12-01 16:57:03.651453
269  2023-12-01 16:57:03.682338
270  2023-12-01 16:57:03.730243
271  2023-12-01 16:57:03.762196
272  2023-12-01 16:57:03.809997
273  2023-12-01 16:57:03.857903
274  2023-12-01 16:57:03.889817
275  2023-12-01 16:57:03.937689
276  2023-12-01 16:57:03.985561
277  2023-12-01 16:57:04.017479
278  2023-12-01 16:57:04.065314
279  2023-12-01 16:57:04.097261
280  2023-12-01 16:57:04.145172
281  2023-12-01 16:57:04.193090
282  2023-12-01 16:57:04.223063
283  2023-12-01 16:57:04.270934
284  2023-12-01 16:57:04.318838
285  2023-12-01 16:57:04.350721
286  2023-12-01 16:57:04.398637
287  2023-12-01 16:57:04.430508
288  2023-12-01 16:57:04.478410
289  2023-12-01 16:57:04.524298
290  2023-12-01 16:57:04.556213
291  2023-12-01 16:57:04.604084
292  2023-12-01 16:57:04.651951
293  2023-12-01 16:57:04.683871
294  2023-12-01 16:57:04.731738
295  2023-12-01 16:57:04.763649
296  2023-12-01 16:57:04.811489
297  2023-12-01 16:57:04.858403
298  2023-12-01 16:57:04.889327
299  2023-12-01 16:57:04.935212
300  2023-12-01 16:57:04.983116
301  2023-12-01 16:57:05.014184
302  2023-12-01 16:57:05.061060
303  2023-12-01 16:57:05.108898
304  2023-12-01 16:57:05.140813
305  2023-12-01 16:57:05.188726
306  2023-12-01 16:57:05.220647
307  2023-12-01 16:57:05.268682
308  2023-12-01 16:57:05.316501
309  2023-12-01 16:57:05.348416
310  2023-12-01 16:57:05.396321
311  2023-12-01 16:57:05.443168
312  2023-12-01 16:57:05.474080
313  2023-12-01 16:57:05.521984
314  2023-12-01 16:57:05.553911
315  2023-12-01 16:57:05.601739
316  2023-12-01 16:57:05.649611
317  2023-12-01 16:57:05.681563
318  2023-12-01 16:57:05.728437
319  2023-12-01 16:57:05.776278
320  2023-12-01 16:57:05.808187
321  2023-12-01 16:57:05.855062
322  2023-12-01 16:57:05.901936
323  2023-12-01 16:57:05.933884
324  2023-12-01 16:57:05.981701
325  2023-12-01 16:57:06.012738
326  2023-12-01 16:57:06.059640
327  2023-12-01 16:57:06.107545
328  2023-12-01 16:57:06.139568
329  2023-12-01 16:57:06.187419
330  2023-12-01 16:57:06.235295
331  2023-12-01 16:57:06.267174
332  2023-12-01 16:57:06.315080
333  2023-12-01 16:57:06.346961
334  2023-12-01 16:57:06.394866
335  2023-12-01 16:57:06.442738
336  2023-12-01 16:57:06.474620
337  2023-12-01 16:57:06.521534
338  2023-12-01 16:57:06.568401
339  2023-12-01 16:57:06.600316
340  2023-12-01 16:57:06.648191
341  2023-12-01 16:57:06.679118
342  2023-12-01 16:57:06.725948
343  2023-12-01 16:57:06.772822
344  2023-12-01 16:57:06.804737
345  2023-12-01 16:57:06.852641
346  2023-12-01 16:57:06.900531
347  2023-12-01 16:57:06.932396
348  2023-12-01 16:57:06.978273
349  2023-12-01 16:57:07.026189
350  2023-12-01 16:57:07.058178
351  2023-12-01 16:57:07.106018
352  2023-12-01 16:57:07.137933
353  2023-12-01 16:57:07.186032
354  2023-12-01 16:57:07.232679
355  2023-12-01 16:57:07.263598
356  2023-12-01 16:57:07.311469
357  2023-12-01 16:57:07.359342
358  2023-12-01 16:57:07.391256
359  2023-12-01 16:57:07.439128
360  2023-12-01 16:57:07.471042
361  2023-12-01 16:57:07.519954
362  2023-12-01 16:57:07.564832
363  2023-12-01 16:57:07.596739
364  2023-12-01 16:57:07.643620
365  2023-12-01 16:57:07.691493
366  2023-12-01 16:57:07.723402
367  2023-12-01 16:57:07.771275
368  2023-12-01 16:57:07.818183
369  2023-12-01 16:57:07.849082
370  2023-12-01 16:57:07.896904
371  2023-12-01 16:57:07.928855
372  2023-12-01 16:57:07.975693
373  2023-12-01 16:57:08.023603
374  2023-12-01 16:57:08.054531
375  2023-12-01 16:57:08.101389
376  2023-12-01 16:57:08.149262
377  2023-12-01 16:57:08.181182
378  2023-12-01 16:57:08.229048
379  2023-12-01 16:57:08.276920
380  2023-12-01 16:57:08.308803
381  2023-12-01 16:57:08.356724
382  2023-12-01 16:57:08.388624
383  2023-12-01 16:57:08.436461
384  2023-12-01 16:57:08.484386
385  2023-12-01 16:57:08.516288
386  2023-12-01 16:57:08.564122
387  2023-12-01 16:57:08.596074
388  2023-12-01 16:57:08.643944
389  2023-12-01 16:57:08.690817
390  2023-12-01 16:57:08.722727
391  2023-12-01 16:57:08.770568
392  2023-12-01 16:57:08.818483
393  2023-12-01 16:57:08.850355
394  2023-12-01 16:57:08.898227
395  2023-12-01 16:57:08.930178
396  2023-12-01 16:57:08.978014
397  2023-12-01 16:57:09.025994
398  2023-12-01 16:57:09.057976
399  2023-12-01 16:57:09.105816
400  2023-12-01 16:57:09.137731
401  2023-12-01 16:57:09.184649
402  2023-12-01 16:57:09.231480
403  2023-12-01 16:57:09.263520
404  2023-12-01 16:57:09.311419
405  2023-12-01 16:57:09.358326
406  2023-12-01 16:57:09.388254
407  2023-12-01 16:57:09.435133
408  2023-12-01 16:57:09.482003
409  2023-12-01 16:57:09.512925
410  2023-12-01 16:57:09.559788
411  2023-12-01 16:57:09.607627
412  2023-12-01 16:57:09.639577
413  2023-12-01 16:57:09.687524
414  2023-12-01 16:57:09.735390
415  2023-12-01 16:57:09.767310
416  2023-12-01 16:57:09.813186
417  2023-12-01 16:57:09.845107
418  2023-12-01 16:57:09.892970
419  2023-12-01 16:57:09.940809
420  2023-12-01 16:57:09.971727
421  2023-12-01 16:57:10.018633
422  2023-12-01 16:57:10.066507
423  2023-12-01 16:57:10.098419
424  2023-12-01 16:57:10.146260
425  2023-12-01 16:57:10.193170
426  2023-12-01 16:57:10.224053
427  2023-12-01 16:57:10.271924
428  2023-12-01 16:57:10.303839
429  2023-12-01 16:57:10.351746
430  2023-12-01 16:57:10.399583
431  2023-12-01 16:57:10.430500
432  2023-12-01 16:57:10.477375
433  2023-12-01 16:57:10.525247
434  2023-12-01 16:57:10.557162
435  2023-12-01 16:57:10.605034
436  2023-12-01 16:57:10.636949
437  2023-12-01 16:57:10.684821
438  2023-12-01 16:57:10.732692
439  2023-12-01 16:57:10.764740
440  2023-12-01 16:57:10.812479
441  2023-12-01 16:57:10.860351
442  2023-12-01 16:57:10.892275
443  2023-12-01 16:57:10.937181
444  2023-12-01 16:57:10.984061
445  2023-12-01 16:57:11.015971
446  2023-12-01 16:57:11.063840
447  2023-12-01 16:57:11.095752
448  2023-12-01 16:57:11.142638
449  2023-12-01 16:57:11.190506
450  2023-12-01 16:57:11.222423
451  2023-12-01 16:57:11.270471
452  2023-12-01 16:57:11.318169
453  2023-12-01 16:57:11.350075
454  2023-12-01 16:57:11.397917
455  2023-12-01 16:57:11.429868
456  2023-12-01 16:57:11.477704
457  2023-12-01 16:57:11.525612
458  2023-12-01 16:57:11.557522
459  2023-12-01 16:57:11.605360
460  2023-12-01 16:57:11.637312
461  2023-12-01 16:57:11.685147
462  2023-12-01 16:57:11.731058
463  2023-12-01 16:57:11.762968
464  2023-12-01 16:57:11.810818
465  2023-12-01 16:57:11.857717
466  2023-12-01 16:57:11.889633
467  2023-12-01 16:57:11.937472
468  2023-12-01 16:57:11.983349
469  2023-12-01 16:57:12.016324
470  2023-12-01 16:57:12.064071
471  2023-12-01 16:57:12.095149
472  2023-12-01 16:57:12.143064
473  2023-12-01 16:57:12.190937
474  2023-12-01 16:57:12.222851
475  2023-12-01 16:57:12.270723
476  2023-12-01 16:57:12.319594
477  2023-12-01 16:57:12.350510
478  2023-12-01 16:57:12.398382
479  2023-12-01 16:57:12.430297
480  2023-12-01 16:57:12.478169
481  2023-12-01 16:57:12.526074
482  2023-12-01 16:57:12.557993
483  2023-12-01 16:57:12.605827
484  2023-12-01 16:57:12.637742
485  2023-12-01 16:57:12.684617
486  2023-12-01 16:57:12.730526
487  2023-12-01 16:57:12.776371
488  2023-12-01 16:57:12.807322
489  2023-12-01 16:57:12.855196
490  2023-12-01 16:57:12.887119
491  2023-12-01 16:57:12.934975
492  2023-12-01 16:57:12.982853
493  2023-12-01 16:57:13.014461
494  2023-12-01 16:57:13.062398
495  2023-12-01 16:57:13.110285
496  2023-12-01 16:57:13.142187
497  2023-12-01 16:57:13.190188
498  2023-12-01 16:57:13.220111
499  2023-12-01 16:57:13.267971
500  2023-12-01 16:57:13.315843
501  2023-12-01 16:57:13.347852
502  2023-12-01 16:57:13.393736
503  2023-12-01 16:57:13.441568
504  2023-12-01 16:57:13.473481
505  2023-12-01 16:57:13.521438
506  2023-12-01 16:57:13.568280
507  2023-12-01 16:57:13.600194
508  2023-12-01 16:57:13.648066
509  2023-12-01 16:57:13.680978
510  2023-12-01 16:57:13.725953
511  2023-12-01 16:57:13.772828
512  2023-12-01 16:57:13.803745
513  2023-12-01 16:57:13.851495
514  2023-12-01 16:57:13.899360
515  2023-12-01 16:57:13.931275
516  2023-12-01 16:57:13.979146
517  2023-12-01 16:57:14.027059
518  2023-12-01 16:57:14.057976
519  2023-12-01 16:57:14.104842
520  2023-12-01 16:57:14.136879
521  2023-12-01 16:57:14.183754
522  2023-12-01 16:57:14.229645
523  2023-12-01 16:57:14.276474
524  2023-12-01 16:57:14.308422
525  2023-12-01 16:57:14.356272
526  2023-12-01 16:57:14.388247
527  2023-12-01 16:57:14.436388
528  2023-12-01 16:57:14.484243
529  2023-12-01 16:57:14.515160
530  2023-12-01 16:57:14.563005
531  2023-12-01 16:57:14.609871
532  2023-12-01 16:57:14.640789
533  2023-12-01 16:57:14.688704
534  2023-12-01 16:57:14.720609
535  2023-12-01 16:57:14.768447
536  2023-12-01 16:57:14.815472
537  2023-12-01 16:57:14.845359
538  2023-12-01 16:57:14.892341
539  2023-12-01 16:57:14.940106
540  2023-12-01 16:57:14.972148
541  2023-12-01 16:57:15.020020
542  2023-12-01 16:57:15.065939
543  2023-12-01 16:57:15.097861
544  2023-12-01 16:57:15.145851
545  2023-12-01 16:57:15.193804
546  2023-12-01 16:57:15.225719
547  2023-12-01 16:57:15.271595
548  2023-12-01 16:57:15.303510
549  2023-12-01 16:57:15.351382
550  2023-12-01 16:57:15.399254
551  2023-12-01 16:57:15.431167
552  2023-12-01 16:57:15.479042
553  2023-12-01 16:57:15.526911
554  2023-12-01 16:57:15.557835
555  2023-12-01 16:57:15.604703
556  2023-12-01 16:57:15.651546
557  2023-12-01 16:57:15.682503
558  2023-12-01 16:57:15.730374
559  2023-12-01 16:57:15.762297
560  2023-12-01 16:57:15.809126
561  2023-12-01 16:57:15.856001
562  2023-12-01 16:57:15.887982
563  2023-12-01 16:57:15.934913
564  2023-12-01 16:57:15.981663
565  2023-12-01 16:57:16.013578
566  2023-12-01 16:57:16.061450
567  2023-12-01 16:57:16.109322
568  2023-12-01 16:57:16.140239
569  2023-12-01 16:57:16.187114
570  2023-12-01 16:57:16.234986
571  2023-12-01 16:57:16.267033
572  2023-12-01 16:57:16.314905
573  2023-12-01 16:57:16.345858
574  2023-12-01 16:57:16.392750
575  2023-12-01 16:57:16.440602
576  2023-12-01 16:57:16.472515
577  2023-12-01 16:57:16.520406
578  2023-12-01 16:57:16.568261
579  2023-12-01 16:57:16.600175
580  2023-12-01 16:57:16.648051
581  2023-12-01 16:57:16.678932
582  2023-12-01 16:57:16.726973
583  2023-12-01 16:57:16.774710
584  2023-12-01 16:57:16.806623
585  2023-12-01 16:57:16.854500
586  2023-12-01 16:57:16.901470
587  2023-12-01 16:57:16.932390
588  2023-12-01 16:57:16.980264
589  2023-12-01 16:57:17.012172
590  2023-12-01 16:57:17.058050
591  2023-12-01 16:57:17.106038
592  2023-12-01 16:57:17.137953
593  2023-12-01 16:57:17.185870
594  2023-12-01 16:57:17.233697
595  2023-12-01 16:57:17.265644
596  2023-12-01 16:57:17.313519
597  2023-12-01 16:57:17.345398
598  2023-12-01 16:57:17.393308
599  2023-12-01 16:57:17.440145
600  2023-12-01 16:57:17.471062
601  2023-12-01 16:57:17.519965
602  2023-12-01 16:57:17.566806
603  2023-12-01 16:57:17.598721
604  2023-12-01 16:57:17.646593
605  2023-12-01 16:57:17.678507
606  2023-12-01 16:57:17.726515
607  2023-12-01 16:57:17.772257
608  2023-12-01 16:57:17.804171
609  2023-12-01 16:57:17.852043
610  2023-12-01 16:57:17.898918
611  2023-12-01 16:57:17.929868
612  2023-12-01 16:57:17.976854
613  2023-12-01 16:57:18.023713
614  2023-12-01 16:57:18.055631
615  2023-12-01 16:57:18.103504
616  2023-12-01 16:57:18.150670
617  2023-12-01 16:57:18.181713
618  2023-12-01 16:57:18.229623
619  2023-12-01 16:57:18.276537
620  2023-12-01 16:57:18.308490
621  2023-12-01 16:57:18.355564
622  2023-12-01 16:57:18.401407
623  2023-12-01 16:57:18.431327
624  2023-12-01 16:57:18.478201
625  2023-12-01 16:57:18.525076
626  2023-12-01 16:57:18.556991
627  2023-12-01 16:57:18.604863
628  2023-12-01 16:57:18.636777
629  2023-12-01 16:57:18.684649
630  2023-12-01 16:57:18.732521
631  2023-12-01 16:57:18.764436
632  2023-12-01 16:57:18.811311
633  2023-12-01 16:57:18.857232
634  2023-12-01 16:57:18.888159
635  2023-12-01 16:57:18.936237
636  2023-12-01 16:57:18.984109
637  2023-12-01 16:57:19.016162
638  2023-12-01 16:57:19.063895
639  2023-12-01 16:57:19.095809
640  2023-12-01 16:57:19.141687
641  2023-12-01 16:57:19.189557
642  2023-12-01 16:57:19.221499
643  2023-12-01 16:57:19.269346
644  2023-12-01 16:57:19.317224
645  2023-12-01 16:57:19.349132
646  2023-12-01 16:57:19.397004
647  2023-12-01 16:57:19.428918
648  2023-12-01 16:57:19.476788
649  2023-12-01 16:57:19.524655
650  2023-12-01 16:57:19.554583
651  2023-12-01 16:57:19.602453
652  2023-12-01 16:57:19.650327
653  2023-12-01 16:57:19.682245
654  2023-12-01 16:57:19.730112
655  2023-12-01 16:57:19.762040
656  2023-12-01 16:57:19.810086
657  2023-12-01 16:57:19.856953
658  2023-12-01 16:57:19.888828
659  2023-12-01 16:57:19.936699
660  2023-12-01 16:57:19.984573
661  2023-12-01 16:57:20.016497
662  2023-12-01 16:57:20.065404
663  2023-12-01 16:57:20.096307
664  2023-12-01 16:57:20.143147
665  2023-12-01 16:57:20.190024
666  2023-12-01 16:57:20.221937
667  2023-12-01 16:57:20.269808
668  2023-12-01 16:57:20.317680
669  2023-12-01 16:57:20.348598
670  2023-12-01 16:57:20.395609
671  2023-12-01 16:57:20.442484
672  2023-12-01 16:57:20.474250
673  2023-12-01 16:57:20.522125
674  2023-12-01 16:57:20.554008
675  2023-12-01 16:57:20.601910
676  2023-12-01 16:57:20.649889
677  2023-12-01 16:57:20.681835
678  2023-12-01 16:57:20.729762
679  2023-12-01 16:57:20.761751
680  2023-12-01 16:57:20.809746
681  2023-12-01 16:57:20.857532
682  2023-12-01 16:57:20.889454
683  2023-12-01 16:57:20.936320
684  2023-12-01 16:57:20.984195
685  2023-12-01 16:57:21.016071
686  2023-12-01 16:57:21.063073
687  2023-12-01 16:57:21.109953
688  2023-12-01 16:57:21.141863
689  2023-12-01 16:57:21.189884
690  2023-12-01 16:57:21.221802
691  2023-12-01 16:57:21.269666
692  2023-12-01 16:57:21.317543
693  2023-12-01 16:57:21.349458
694  2023-12-01 16:57:21.397324
695  2023-12-01 16:57:21.429240
696  2023-12-01 16:57:21.476080
697  2023-12-01 16:57:21.522956
698  2023-12-01 16:57:21.553908
699  2023-12-01 16:57:21.600748
700  2023-12-01 16:57:21.648626
701  2023-12-01 16:57:21.680534
702  2023-12-01 16:57:21.728407
703  2023-12-01 16:57:21.776309
704  2023-12-01 16:57:21.808228
705  2023-12-01 16:57:21.855126
706  2023-12-01 16:57:21.901942
707  2023-12-01 16:57:21.932859
708  2023-12-01 16:57:21.979734
709  2023-12-01 16:57:22.026674
710  2023-12-01 16:57:22.057559
711  2023-12-01 16:57:22.105518
712  2023-12-01 16:57:22.137432
713  2023-12-01 16:57:22.185469
714  2023-12-01 16:57:22.233327
715  2023-12-01 16:57:22.265243
716  2023-12-01 16:57:22.313080
717  2023-12-01 16:57:22.359991
718  2023-12-01 16:57:22.390913
719  2023-12-01 16:57:22.438777
720  2023-12-01 16:57:22.470697
721  2023-12-01 16:57:22.518564
722  2023-12-01 16:57:22.566443
723  2023-12-01 16:57:22.598362
724  2023-12-01 16:57:22.645240
725  2023-12-01 16:57:22.692123
726  2023-12-01 16:57:22.724034
727  2023-12-01 16:57:22.771886
728  2023-12-01 16:57:22.803806
729  2023-12-01 16:57:22.851641
730  2023-12-01 16:57:22.899548
731  2023-12-01 16:57:22.931460
732  2023-12-01 16:57:22.977338
733  2023-12-01 16:57:23.025177
734  2023-12-01 16:57:23.057150
735  2023-12-01 16:57:23.104963
736  2023-12-01 16:57:23.136877
737  2023-12-01 16:57:23.183784
738  2023-12-01 16:57:23.230725
739  2023-12-01 16:57:23.262640
740  2023-12-01 16:57:23.310511
741  2023-12-01 16:57:23.358416
742  2023-12-01 16:57:23.390299
743  2023-12-01 16:57:23.438170
744  2023-12-01 16:57:23.484977
745  2023-12-01 16:57:23.515895
746  2023-12-01 16:57:23.563767
747  2023-12-01 16:57:23.595681
748  2023-12-01 16:57:23.643553
749  2023-12-01 16:57:23.691425
750  2023-12-01 16:57:23.723340
751  2023-12-01 16:57:23.771212
752  2023-12-01 16:57:23.818087
753  2023-12-01 16:57:23.849018
754  2023-12-01 16:57:23.896911
755  2023-12-01 16:57:23.928831
756  2023-12-01 16:57:23.976663
757  2023-12-01 16:57:24.024567
758  2023-12-01 16:57:24.055490
759  2023-12-01 16:57:24.102380
760  2023-12-01 16:57:24.150248
761  2023-12-01 16:57:24.182247
762  2023-12-01 16:57:24.229988
763  2023-12-01 16:57:24.276894
764  2023-12-01 16:57:24.307810
765  2023-12-01 16:57:24.355689
766  2023-12-01 16:57:24.387588
767  2023-12-01 16:57:24.435478
768  2023-12-01 16:57:24.483310
769  2023-12-01 16:57:24.515258
770  2023-12-01 16:57:24.562132
771  2023-12-01 16:57:24.609008
772  2023-12-01 16:57:24.640928
773  2023-12-01 16:57:24.688804
774  2023-12-01 16:57:24.720674
775  2023-12-01 16:57:24.768587
776  2023-12-01 16:57:24.816470
777  2023-12-01 16:57:24.848377
778  2023-12-01 16:57:24.895354
779  2023-12-01 16:57:24.943253
780  2023-12-01 16:57:24.975121
781  2023-12-01 16:57:25.023111
782  2023-12-01 16:57:25.055042
783  2023-12-01 16:57:25.101027
784  2023-12-01 16:57:25.147014
785  2023-12-01 16:57:25.178929
786  2023-12-01 16:57:25.226801
787  2023-12-01 16:57:25.274673
788  2023-12-01 16:57:25.304593
789  2023-12-01 16:57:25.352498
790  2023-12-01 16:57:25.400374
791  2023-12-01 16:57:25.432289
792  2023-12-01 16:57:25.480124
793  2023-12-01 16:57:25.512038
794  2023-12-01 16:57:25.559944
795  2023-12-01 16:57:25.605822
796  2023-12-01 16:57:25.637746
797  2023-12-01 16:57:25.685611
798  2023-12-01 16:57:25.733486
799  2023-12-01 16:57:25.765503
800  2023-12-01 16:57:25.812373
801  2023-12-01 16:57:25.859259
802  2023-12-01 16:57:25.891171
803  2023-12-01 16:57:25.939000
804  2023-12-01 16:57:25.970958
805  2023-12-01 16:57:26.018821
806  2023-12-01 16:57:26.066694
807  2023-12-01 16:57:26.098607
808  2023-12-01 16:57:26.146486
809  2023-12-01 16:57:26.193352
810  2023-12-01 16:57:26.224239
811  2023-12-01 16:57:26.272305
812  2023-12-01 16:57:26.318986
813  2023-12-01 16:57:26.350934
814  2023-12-01 16:57:26.397774
815  2023-12-01 16:57:26.429689
816  2023-12-01 16:57:26.475566
817  2023-12-01 16:57:26.523438
818  2023-12-01 16:57:26.555353
819  2023-12-01 16:57:26.602227
820  2023-12-01 16:57:26.649102
821  2023-12-01 16:57:26.681080
822  2023-12-01 16:57:26.728020
823  2023-12-01 16:57:26.773907
824  2023-12-01 16:57:26.804858
825  2023-12-01 16:57:26.852734
826  2023-12-01 16:57:26.900601
827  2023-12-01 16:57:26.932515
828  2023-12-01 16:57:26.980356
829  2023-12-01 16:57:27.012270
830  2023-12-01 16:57:27.060143
831  2023-12-01 16:57:27.108050
832  2023-12-01 16:57:27.140003
833  2023-12-01 16:57:27.187960
834  2023-12-01 16:57:27.234945
835  2023-12-01 16:57:27.265987
836  2023-12-01 16:57:27.313731
837  2023-12-01 16:57:27.345645
838  2023-12-01 16:57:27.393517
839  2023-12-01 16:57:27.441388
840  2023-12-01 16:57:27.472311
841  2023-12-01 16:57:27.519184
842  2023-12-01 16:57:27.567055
843  2023-12-01 16:57:27.597979
844  2023-12-01 16:57:27.644961
845  2023-12-01 16:57:27.692834
846  2023-12-01 16:57:27.724748
847  2023-12-01 16:57:27.772620
848  2023-12-01 16:57:27.804535
849  2023-12-01 16:57:27.852407
850  2023-12-01 16:57:27.898316
851  2023-12-01 16:57:27.930239
852  2023-12-01 16:57:27.978071
853  2023-12-01 16:57:28.026098
854  2023-12-01 16:57:28.057961
855  2023-12-01 16:57:28.105943
856  2023-12-01 16:57:28.137858
857  2023-12-01 16:57:28.185730
858  2023-12-01 16:57:28.232754
859  2023-12-01 16:57:28.264615
860  2023-12-01 16:57:28.310570
861  2023-12-01 16:57:28.358479
862  2023-12-01 16:57:28.390391
863  2023-12-01 16:57:28.438229
864  2023-12-01 16:57:28.484255
865  2023-12-01 16:57:28.516167
866  2023-12-01 16:57:28.564005
867  2023-12-01 16:57:28.595919
868  2023-12-01 16:57:28.642827
869  2023-12-01 16:57:28.689704
870  2023-12-01 16:57:28.721585
871  2023-12-01 16:57:28.769488
872  2023-12-01 16:57:28.814370
873  2023-12-01 16:57:28.846250
874  2023-12-01 16:57:28.894155
875  2023-12-01 16:57:28.942165
876  2023-12-01 16:57:28.973218
877  2023-12-01 16:57:29.020163
878  2023-12-01 16:57:29.068035
879  2023-12-01 16:57:29.099949
880  2023-12-01 16:57:29.147821
881  2023-12-01 16:57:29.178739
882  2023-12-01 16:57:29.225655
883  2023-12-01 16:57:29.273485
884  2023-12-01 16:57:29.305400
885  2023-12-01 16:57:29.353379
886  2023-12-01 16:57:29.399287
887  2023-12-01 16:57:29.431213
888  2023-12-01 16:57:29.479043
889  2023-12-01 16:57:29.526980
890  2023-12-01 16:57:29.558943
891  2023-12-01 16:57:29.606785
892  2023-12-01 16:57:29.638694
893  2023-12-01 16:57:29.684808
894  2023-12-01 16:57:29.732787
895  2023-12-01 16:57:29.764672
896  2023-12-01 16:57:29.812592
897  2023-12-01 16:57:29.860503
898  2023-12-01 16:57:29.892416
899  2023-12-01 16:57:29.940251
900  2023-12-01 16:57:29.972166
901  2023-12-01 16:57:30.020253
902  2023-12-01 16:57:30.068127
903  2023-12-01 16:57:30.100002
904  2023-12-01 16:57:30.147874
905  2023-12-01 16:57:30.179789
906  2023-12-01 16:57:30.227670
907  2023-12-01 16:57:30.275565
908  2023-12-01 16:57:30.307484
909  2023-12-01 16:57:30.355496
910  2023-12-01 16:57:30.387275
911  2023-12-01 16:57:30.435138
912  2023-12-01 16:57:30.482980
913  2023-12-01 16:57:30.514893
914  2023-12-01 16:57:30.562928
915  2023-12-01 16:57:30.609798
916  2023-12-01 16:57:30.640839
917  2023-12-01 16:57:30.688678
918  2023-12-01 16:57:30.720628
919  2023-12-01 16:57:30.768614
920  2023-12-01 16:57:30.816452
921  2023-12-01 16:57:30.848509
922  2023-12-01 16:57:30.896375
923  2023-12-01 16:57:30.928494
924  2023-12-01 16:57:30.975401
925  2023-12-01 16:57:31.022267
926  2023-12-01 16:57:31.054158
927  2023-12-01 16:57:31.102062
928  2023-12-01 16:57:31.148938
929  2023-12-01 16:57:31.180820
930  2023-12-01 16:57:31.228729
931  2023-12-01 16:57:31.276564
932  2023-12-01 16:57:31.308642
933  2023-12-01 16:57:31.355571
934  2023-12-01 16:57:31.401483
935  2023-12-01 16:57:31.432405
936  2023-12-01 16:57:31.480238
937  2023-12-01 16:57:31.526287
938  2023-12-01 16:57:31.558201
939  2023-12-01 16:57:31.606038
940  2023-12-01 16:57:31.637953
941  2023-12-01 16:57:31.685857
942  2023-12-01 16:57:31.732734
943  2023-12-01 16:57:31.763659
944  2023-12-01 16:57:31.810492
945  2023-12-01 16:57:31.857399
946  2023-12-01 16:57:31.889314
947  2023-12-01 16:57:31.937184
948  2023-12-01 16:57:31.985061
949  2023-12-01 16:57:32.017004
950  2023-12-01 16:57:32.063816
951  2023-12-01 16:57:32.109728
952  2023-12-01 16:57:32.141648
953  2023-12-01 16:57:32.189514
954  2023-12-01 16:57:32.221394
955  2023-12-01 16:57:32.269267
956  2023-12-01 16:57:32.317137
957  2023-12-01 16:57:32.349053
958  2023-12-01 16:57:32.396957
959  2023-12-01 16:57:32.443799
960  2023-12-01 16:57:32.475716
961  2023-12-01 16:57:32.523586
962  2023-12-01 16:57:32.555500
963  2023-12-01 16:57:32.603405
964  2023-12-01 16:57:32.651276
965  2023-12-01 16:57:32.683191
966  2023-12-01 16:57:32.731064
967  2023-12-01 16:57:32.762946
968  2023-12-01 16:57:32.810817
969  2023-12-01 16:57:32.858690
970  2023-12-01 16:57:32.891632
971  2023-12-01 16:57:32.939514
972  2023-12-01 16:57:32.984353
973  2023-12-01 16:57:33.016268
974  2023-12-01 16:57:33.064173
975  2023-12-01 16:57:33.096088
976  2023-12-01 16:57:33.143927
977  2023-12-01 16:57:33.191837
978  2023-12-01 16:57:33.223764
979  2023-12-01 16:57:33.271586
980  2023-12-01 16:57:33.303500
981  2023-12-01 16:57:33.351399
982  2023-12-01 16:57:33.399278
983  2023-12-01 16:57:33.431198
984  2023-12-01 16:57:33.479112
985  2023-12-01 16:57:33.525038
986  2023-12-01 16:57:33.557032
987  2023-12-01 16:57:33.604864
988  2023-12-01 16:57:33.650798
989  2023-12-01 16:57:33.682689
990  2023-12-01 16:57:33.730562
991  2023-12-01 16:57:33.762470
992  2023-12-01 16:57:33.810315
993  2023-12-01 16:57:33.857230
994  2023-12-01 16:57:33.888109
995  2023-12-01 16:57:33.936025
996  2023-12-01 16:57:33.983885
997  2023-12-01 16:57:34.013805
998  2023-12-01 16:57:34.061697
999  2023-12-01 16:57:34.109551
1000  2023-12-01 16:57:34.141578
1001  2023-12-01 16:57:34.189670
1002  2023-12-01 16:57:34.221561
1003  2023-12-01 16:57:34.269426
1004  2023-12-01 16:57:34.316270
1005  2023-12-01 16:57:34.348216
1006  2023-12-01 16:57:34.396180
1007  2023-12-01 16:57:34.442087
1008  2023-12-01 16:57:34.473943
1009  2023-12-01 16:57:34.522826
1010  2023-12-01 16:57:34.553726
1011  2023-12-01 16:57:34.600650
1012  2023-12-01 16:57:34.648473
1013  2023-12-01 16:57:34.680388
1014  2023-12-01 16:57:34.728301
1015  2023-12-01 16:57:34.774137
1016  2023-12-01 16:57:34.806052
1017  2023-12-01 16:57:34.853962
1018  2023-12-01 16:57:34.901835
1019  2023-12-01 16:57:34.933907
1020  2023-12-01 16:57:34.981745
1021  2023-12-01 16:57:35.012663
1022  2023-12-01 16:57:35.059538
1023  2023-12-01 16:57:35.107409
1024  2023-12-01 16:57:35.139324
1025  2023-12-01 16:57:35.187235
1026  2023-12-01 16:57:35.235068
1027  2023-12-01 16:57:35.267015
1028  2023-12-01 16:57:35.314855
1029  2023-12-01 16:57:35.346769
1030  2023-12-01 16:57:35.394677
1031  2023-12-01 16:57:35.442513
1032  2023-12-01 16:57:35.474428
1033  2023-12-01 16:57:35.522335
1034  2023-12-01 16:57:35.554250
1035  2023-12-01 16:57:35.602087
1036  2023-12-01 16:57:35.650044
1037  2023-12-01 16:57:35.681959
1038  2023-12-01 16:57:35.729832
1039  2023-12-01 16:57:35.761779
1040  2023-12-01 16:57:35.809747
1041  2023-12-01 16:57:35.856543
1042  2023-12-01 16:57:35.888437
1043  2023-12-01 16:57:35.936312
1044  2023-12-01 16:57:35.984185
1045  2023-12-01 16:57:36.016067
1046  2023-12-01 16:57:36.063975
1047  2023-12-01 16:57:36.109847
1048  2023-12-01 16:57:36.141765
1049  2023-12-01 16:57:36.189644
1050  2023-12-01 16:57:36.221573
1051  2023-12-01 16:57:36.269422
1052  2023-12-01 16:57:36.317260
1053  2023-12-01 16:57:36.347217
1054  2023-12-01 16:57:36.395090
1055  2023-12-01 16:57:36.442956
1056  2023-12-01 16:57:36.474839
1057  2023-12-01 16:57:36.521786
1058  2023-12-01 16:57:36.568795
1059  2023-12-01 16:57:36.600708
1060  2023-12-01 16:57:36.648538
1061  2023-12-01 16:57:36.680452
1062  2023-12-01 16:57:36.728359
1063  2023-12-01 16:57:36.776197
1064  2023-12-01 16:57:36.808111
1065  2023-12-01 16:57:36.855710
1066  2023-12-01 16:57:36.887592
1067  2023-12-01 16:57:36.934500
1068  2023-12-01 16:57:36.982339
1069  2023-12-01 16:57:37.014254
1070  2023-12-01 16:57:37.062160
1071  2023-12-01 16:57:37.109998
1072  2023-12-01 16:57:37.140923
1073  2023-12-01 16:57:37.187791
1074  2023-12-01 16:57:37.234664
1075  2023-12-01 16:57:37.265615
1076  2023-12-01 16:57:37.311491
1077  2023-12-01 16:57:37.359331
1078  2023-12-01 16:57:37.391273
1079  2023-12-01 16:57:37.439148
1080  2023-12-01 16:57:37.471067
1081  2023-12-01 16:57:37.518904
1082  2023-12-01 16:57:37.566931
1083  2023-12-01 16:57:37.597728
1084  2023-12-01 16:57:37.644603
1085  2023-12-01 16:57:37.691481
1086  2023-12-01 16:57:37.723392
1087  2023-12-01 16:57:37.771264
1088  2023-12-01 16:57:37.818150
1089  2023-12-01 16:57:37.849068
1090  2023-12-01 16:57:37.896924
1091  2023-12-01 16:57:37.928842
1092  2023-12-01 16:57:37.976814
1093  2023-12-01 16:57:38.024675
1094  2023-12-01 16:57:38.056585
1095  2023-12-01 16:57:38.104479
1096  2023-12-01 16:57:38.152295
1097  2023-12-01 16:57:38.185234
1098  2023-12-01 16:57:38.233113
1099  2023-12-01 16:57:38.264035
1100  2023-12-01 16:57:38.312898
1101  2023-12-01 16:57:38.357786
1102  2023-12-01 16:57:38.389693
1103  2023-12-01 16:57:38.437533
1104  2023-12-01 16:57:38.485405
1105  2023-12-01 16:57:38.517320
1106  2023-12-01 16:57:38.565237
1107  2023-12-01 16:57:38.597461
1108  2023-12-01 16:57:38.645233
1109  2023-12-01 16:57:38.693142
1110  2023-12-01 16:57:38.725052
1111  2023-12-01 16:57:38.772892
1112  2023-12-01 16:57:38.804913
1113  2023-12-01 16:57:38.852785
1114  2023-12-01 16:57:38.899688
1115  2023-12-01 16:57:38.930667
1116  2023-12-01 16:57:38.978504
1117  2023-12-01 16:57:39.026411
1118  2023-12-01 16:57:39.056329
1119  2023-12-01 16:57:39.104184
1120  2023-12-01 16:57:39.150046
1121  2023-12-01 16:57:39.181997
1122  2023-12-01 16:57:39.229868
1123  2023-12-01 16:57:39.261748
1124  2023-12-01 16:57:39.307654
1125  2023-12-01 16:57:39.355549
1126  2023-12-01 16:57:39.387288
1127  2023-12-01 16:57:39.435159
1128  2023-12-01 16:57:39.483085
1129  2023-12-01 16:57:39.515006
1130  2023-12-01 16:57:39.562877
1131  2023-12-01 16:57:39.609749
1132  2023-12-01 16:57:39.641677
1133  2023-12-01 16:57:39.689542
1134  2023-12-01 16:57:39.720453
1135  2023-12-01 16:57:39.769430
1136  2023-12-01 16:57:39.816273
1137  2023-12-01 16:57:39.847190
1138  2023-12-01 16:57:39.894211
1139  2023-12-01 16:57:39.941937
1140  2023-12-01 16:57:39.973851
1141  2023-12-01 16:57:40.021793
1142  2023-12-01 16:57:40.053638
1143  2023-12-01 16:57:40.101544
1144  2023-12-01 16:57:40.149382
1145  2023-12-01 16:57:40.181297
1146  2023-12-01 16:57:40.227208
1147  2023-12-01 16:57:40.275046
1148  2023-12-01 16:57:40.305964
1149  2023-12-01 16:57:40.353836
1150  2023-12-01 16:57:40.401708
1151  2023-12-01 16:57:40.433743
1152  2023-12-01 16:57:40.481615
1153  2023-12-01 16:57:40.513530
1154  2023-12-01 16:57:40.561440
1155  2023-12-01 16:57:40.609274
1156  2023-12-01 16:57:40.639246
1157  2023-12-01 16:57:40.687097
1158  2023-12-01 16:57:40.734968
1159  2023-12-01 16:57:40.766890
1160  2023-12-01 16:57:40.812765
1161  2023-12-01 16:57:40.859647
1162  2023-12-01 16:57:40.890555
1163  2023-12-01 16:57:40.936438
1164  2023-12-01 16:57:40.984303
1165  2023-12-01 16:57:41.015220
1166  2023-12-01 16:57:41.063093
1167  2023-12-01 16:57:41.109937
1168  2023-12-01 16:57:41.140854
1169  2023-12-01 16:57:41.188759
1170  2023-12-01 16:57:41.220671
1171  2023-12-01 16:57:41.267543
1172  2023-12-01 16:57:41.314390
1173  2023-12-01 16:57:41.346305
1174  2023-12-01 16:57:41.394209
1175  2023-12-01 16:57:41.442049
1176  2023-12-01 16:57:41.473964
1177  2023-12-01 16:57:41.521882
1178  2023-12-01 16:57:41.553781
1179  2023-12-01 16:57:41.601622
1180  2023-12-01 16:57:41.649494
1181  2023-12-01 16:57:41.681545
1182  2023-12-01 16:57:41.729320
1183  2023-12-01 16:57:41.777153
1184  2023-12-01 16:57:41.809068
1185  2023-12-01 16:57:41.856972
1186  2023-12-01 16:57:41.888899
1187  2023-12-01 16:57:41.935729
1188  2023-12-01 16:57:41.982635
1189  2023-12-01 16:57:42.014552
1190  2023-12-01 16:57:42.062391
1191  2023-12-01 16:57:42.110263
1192  2023-12-01 16:57:42.142177
1193  2023-12-01 16:57:42.190050
1194  2023-12-01 16:57:42.221979
1195  2023-12-01 16:57:42.269836
1196  2023-12-01 16:57:42.317770
1197  2023-12-01 16:57:42.347761
1198  2023-12-01 16:57:42.395634
1199  2023-12-01 16:57:42.441507
1200  2023-12-01 16:57:42.473425
1201  2023-12-01 16:57:42.521295
1202  2023-12-01 16:57:42.568169
1203  2023-12-01 16:57:42.600086
1204  2023-12-01 16:57:42.647957
1205  2023-12-01 16:57:42.678875
1206  2023-12-01 16:57:42.725754
1207  2023-12-01 16:57:42.774775
1208  2023-12-01 16:57:42.806809
1209  2023-12-01 16:57:42.853653
1210  2023-12-01 16:57:42.901558
1211  2023-12-01 16:57:42.933473
1212  2023-12-01 16:57:42.981312
1213  2023-12-01 16:57:43.013226
1214  2023-12-01 16:57:43.060217
1215  2023-12-01 16:57:43.107178
1216  2023-12-01 16:57:43.139078
1217  2023-12-01 16:57:43.186981
1218  2023-12-01 16:57:43.234822
1219  2023-12-01 16:57:43.266768
1220  2023-12-01 16:57:43.313611
1221  2023-12-01 16:57:43.345526
1222  2023-12-01 16:57:43.393450
1223  2023-12-01 16:57:43.440423
1224  2023-12-01 16:57:43.471340
1225  2023-12-01 16:57:43.518281
1226  2023-12-01 16:57:43.566087
1227  2023-12-01 16:57:43.598036
1228  2023-12-01 16:57:43.644910
1229  2023-12-01 16:57:43.692749
1230  2023-12-01 16:57:43.724695
1231  2023-12-01 16:57:43.772536
1232  2023-12-01 16:57:43.804489
1233  2023-12-01 16:57:43.850367
1234  2023-12-01 16:57:43.898232
1235  2023-12-01 16:57:43.930148
1236  2023-12-01 16:57:43.977986
1237  2023-12-01 16:57:44.024903
1238  2023-12-01 16:57:44.055815
1239  2023-12-01 16:57:44.103700
1240  2023-12-01 16:57:44.151556
1241  2023-12-01 16:57:44.182440
1242  2023-12-01 16:57:44.230345
1243  2023-12-01 16:57:44.276189
1244  2023-12-01 16:57:44.307106
1245  2023-12-01 16:57:44.353057
1246  2023-12-01 16:57:44.400856
1247  2023-12-01 16:57:44.432804
1248  2023-12-01 16:57:44.480784
1249  2023-12-01 16:57:44.512699
1250  2023-12-01 16:57:44.560621
1251  2023-12-01 16:57:44.608443
1252  2023-12-01 16:57:44.640357
1253  2023-12-01 16:57:44.688261
1254  2023-12-01 16:57:44.720178
1255  2023-12-01 16:57:44.768153
1256  2023-12-01 16:57:44.815923
1257  2023-12-01 16:57:44.845809
1258  2023-12-01 16:57:44.893681
1259  2023-12-01 16:57:44.941552
1260  2023-12-01 16:57:44.973467
1261  2023-12-01 16:57:45.021339
1262  2023-12-01 16:57:45.068249
1263  2023-12-01 16:57:45.099167
1264  2023-12-01 16:57:45.147038
1265  2023-12-01 16:57:45.178918
1266  2023-12-01 16:57:45.226817
1267  2023-12-01 16:57:45.274697
1268  2023-12-01 16:57:45.304613
1269  2023-12-01 16:57:45.352613
1270  2023-12-01 16:57:45.400356
1271  2023-12-01 16:57:45.432270
1272  2023-12-01 16:57:45.480146
1273  2023-12-01 16:57:45.512063
1274  2023-12-01 16:57:45.559933
1275  2023-12-01 16:57:45.607771
1276  2023-12-01 16:57:45.639723
1277  2023-12-01 16:57:45.687558
1278  2023-12-01 16:57:45.735463
1279  2023-12-01 16:57:45.767375
1280  2023-12-01 16:57:45.815251
1281  2023-12-01 16:57:45.847131
1282  2023-12-01 16:57:45.894007
1283  2023-12-01 16:57:45.940882
1284  2023-12-01 16:57:45.972811
1285  2023-12-01 16:57:46.020714
1286  2023-12-01 16:57:46.067569
1287  2023-12-01 16:57:46.098491
1288  2023-12-01 16:57:46.146331
1289  2023-12-01 16:57:46.193239
1290  2023-12-01 16:57:46.225161
1291  2023-12-01 16:57:46.271996
1292  2023-12-01 16:57:46.318870
1293  2023-12-01 16:57:46.350818
1294  2023-12-01 16:57:46.397660
1295  2023-12-01 16:57:46.429574
1296  2023-12-01 16:57:46.477486
1297  2023-12-01 16:57:46.525397
1298  2023-12-01 16:57:46.557312
1299  2023-12-01 16:57:46.605248
1300  2023-12-01 16:57:46.637162
1301  2023-12-01 16:57:46.685136
1302  2023-12-01 16:57:46.733019
1303  2023-12-01 16:57:46.762939
1304  2023-12-01 16:57:46.810849
1305  2023-12-01 16:57:46.857686
1306  2023-12-01 16:57:46.888639
1307  2023-12-01 16:57:46.936510
1308  2023-12-01 16:57:46.982402
1309  2023-12-01 16:57:47.014303
1310  2023-12-01 16:57:47.062173
1311  2023-12-01 16:57:47.110058
1312  2023-12-01 16:57:47.142095
1313  2023-12-01 16:57:47.188985
1314  2023-12-01 16:57:47.234814
1315  2023-12-01 16:57:47.266763
1316  2023-12-01 16:57:47.314601
1317  2023-12-01 16:57:47.361513
1318  2023-12-01 16:57:47.393592
1319  2023-12-01 16:57:47.440428
1320  2023-12-01 16:57:47.471345
1321  2023-12-01 16:57:47.518221
1322  2023-12-01 16:57:47.566092
1323  2023-12-01 16:57:47.598007
1324  2023-12-01 16:57:47.645879
1325  2023-12-01 16:57:47.693751
1326  2023-12-01 16:57:47.725729
1327  2023-12-01 16:57:47.773537
1328  2023-12-01 16:57:47.805452
1329  2023-12-01 16:57:47.853422
1330  2023-12-01 16:57:47.901196
1331  2023-12-01 16:57:47.933111
1332  2023-12-01 16:57:47.979985
1333  2023-12-01 16:57:48.026893
1334  2023-12-01 16:57:48.058775
1335  2023-12-01 16:57:48.105685
1336  2023-12-01 16:57:48.137601
1337  2023-12-01 16:57:48.185469
1338  2023-12-01 16:57:48.233338
1339  2023-12-01 16:57:48.265258
1340  2023-12-01 16:57:48.313128
1341  2023-12-01 16:57:48.345046
1342  2023-12-01 16:57:48.391884
1343  2023-12-01 16:57:48.439795
1344  2023-12-01 16:57:48.471707
1345  2023-12-01 16:57:48.519575
1346  2023-12-01 16:57:48.567455
1347  2023-12-01 16:57:48.599363
1348  2023-12-01 16:57:48.647243
1349  2023-12-01 16:57:48.693116
1350  2023-12-01 16:57:48.725037
1351  2023-12-01 16:57:48.770871
1352  2023-12-01 16:57:48.817781
1353  2023-12-01 16:57:48.848663
1354  2023-12-01 16:57:48.896570
1355  2023-12-01 16:57:48.928486
1356  2023-12-01 16:57:48.974327
1357  2023-12-01 16:57:49.022200
1358  2023-12-01 16:57:49.054126
1359  2023-12-01 16:57:49.101986
1360  2023-12-01 16:57:49.149863
1361  2023-12-01 16:57:49.181777
1362  2023-12-01 16:57:49.229645
1363  2023-12-01 16:57:49.276520
1364  2023-12-01 16:57:49.307574
1365  2023-12-01 16:57:49.355445
1366  2023-12-01 16:57:49.387358
1367  2023-12-01 16:57:49.435231
1368  2023-12-01 16:57:49.483104
1369  2023-12-01 16:57:49.515053
1370  2023-12-01 16:57:49.562969
1371  2023-12-01 16:57:49.609850
1372  2023-12-01 16:57:49.641752
1373  2023-12-01 16:57:49.687593
1374  2023-12-01 16:57:49.735500
1375  2023-12-01 16:57:49.767530
1376  2023-12-01 16:57:49.815401
1377  2023-12-01 16:57:49.847317
1378  2023-12-01 16:57:49.894205
1379  2023-12-01 16:57:49.941172
1380  2023-12-01 16:57:49.972166
1381  2023-12-01 16:57:50.020013
1382  2023-12-01 16:57:50.067927
1383  2023-12-01 16:57:50.099817
1384  2023-12-01 16:57:50.147811
1385  2023-12-01 16:57:50.193678
1386  2023-12-01 16:57:50.225596
1387  2023-12-01 16:57:50.272428
1388  2023-12-01 16:57:50.304342
1389  2023-12-01 16:57:50.352260
1390  2023-12-01 16:57:50.400087
1391  2023-12-01 16:57:50.432001
1392  2023-12-01 16:57:50.478876
1393  2023-12-01 16:57:50.525752
1394  2023-12-01 16:57:50.557678
1395  2023-12-01 16:57:50.605537
1396  2023-12-01 16:57:50.637452
1397  2023-12-01 16:57:50.685332
1398  2023-12-01 16:57:50.733196
1399  2023-12-01 16:57:50.765111
1400  2023-12-01 16:57:50.813981
1401  2023-12-01 16:57:50.859858
1402  2023-12-01 16:57:50.890775
1403  2023-12-01 16:57:50.937818
1404  2023-12-01 16:57:50.983564
1405  2023-12-01 16:57:51.015479
1406  2023-12-01 16:57:51.062359
1407  2023-12-01 16:57:51.109810
1408  2023-12-01 16:57:51.141723
1409  2023-12-01 16:57:51.189777
1410  2023-12-01 16:57:51.221684
1411  2023-12-01 16:57:51.268582
1412  2023-12-01 16:57:51.316396
1413  2023-12-01 16:57:51.348358
1414  2023-12-01 16:57:51.395387
1415  2023-12-01 16:57:51.443260
1416  2023-12-01 16:57:51.475172
1417  2023-12-01 16:57:51.523107
1418  2023-12-01 16:57:51.555024
1419  2023-12-01 16:57:51.602978
1420  2023-12-01 16:57:51.648960
1421  2023-12-01 16:57:51.679893
1422  2023-12-01 16:57:51.727797
1423  2023-12-01 16:57:51.775637
1424  2023-12-01 16:57:51.807552
1425  2023-12-01 16:57:51.854427
1426  2023-12-01 16:57:51.900304
1427  2023-12-01 16:57:51.931221
1428  2023-12-01 16:57:51.979094
1429  2023-12-01 16:57:52.026967
1430  2023-12-01 16:57:52.058881
1431  2023-12-01 16:57:52.106788
1432  2023-12-01 16:57:52.138713
1433  2023-12-01 16:57:52.186540
1434  2023-12-01 16:57:52.234421
1435  2023-12-01 16:57:52.266371
1436  2023-12-01 16:57:52.314247
1437  2023-12-01 16:57:52.346158
1438  2023-12-01 16:57:52.393036
1439  2023-12-01 16:57:52.439913
1440  2023-12-01 16:57:52.471824
1441  2023-12-01 16:57:52.519660
1442  2023-12-01 16:57:52.567566
1443  2023-12-01 16:57:52.599482
1444  2023-12-01 16:57:52.646321
1445  2023-12-01 16:57:52.692218
1446  2023-12-01 16:57:52.724115
1447  2023-12-01 16:57:52.772038
1448  2023-12-01 16:57:52.803945
1449  2023-12-01 16:57:52.851927
1450  2023-12-01 16:57:52.899746
1451  2023-12-01 16:57:52.931713
1452  2023-12-01 16:57:52.979675
1453  2023-12-01 16:57:53.026679
1454  2023-12-01 16:57:53.057477
1455  2023-12-01 16:57:53.106346
1456  2023-12-01 16:57:53.137228
1457  2023-12-01 16:57:53.185205
1458  2023-12-01 16:57:53.233042
1459  2023-12-01 16:57:53.262962
1460  2023-12-01 16:57:53.310954
1461  2023-12-01 16:57:53.357866
1462  2023-12-01 16:57:53.389748
1463  2023-12-01 16:57:53.437616
1464  2023-12-01 16:57:53.485488
1465  2023-12-01 16:57:53.517416
1466  2023-12-01 16:57:53.565274
1467  2023-12-01 16:57:53.597264
1468  2023-12-01 16:57:53.645136
1469  2023-12-01 16:57:53.692011
1470  2023-12-01 16:57:53.722928
1471  2023-12-01 16:57:53.769842
1472  2023-12-01 16:57:53.817716
1473  2023-12-01 16:57:53.849626
1474  2023-12-01 16:57:53.897494
1475  2023-12-01 16:57:53.929410
1476  2023-12-01 16:57:53.977290
1477  2023-12-01 16:57:54.025153
1478  2023-12-01 16:57:54.057202
1479  2023-12-01 16:57:54.104949
1480  2023-12-01 16:57:54.136903
1481  2023-12-01 16:57:54.183738
1482  2023-12-01 16:57:54.231689
1483  2023-12-01 16:57:54.263611
1484  2023-12-01 16:57:54.311467
1485  2023-12-01 16:57:54.359345
1486  2023-12-01 16:57:54.391258
1487  2023-12-01 16:57:54.439142
1488  2023-12-01 16:57:54.471054
1489  2023-12-01 16:57:54.518921
1490  2023-12-01 16:57:54.565802
1491  2023-12-01 16:57:54.597711
1492  2023-12-01 16:57:54.644592
1493  2023-12-01 16:57:54.691461
1494  2023-12-01 16:57:54.723387
1495  2023-12-01 16:57:54.771242
1496  2023-12-01 16:57:54.819120
1497  2023-12-01 16:57:54.851026
1498  2023-12-01 16:57:54.897929
1499  2023-12-01 16:57:54.929821
1500  2023-12-01 16:57:54.977694
1501  2023-12-01 16:57:55.024697
1502  2023-12-01 16:57:55.055532
1503  2023-12-01 16:57:55.103514
1504  2023-12-01 16:57:55.149539
1505  2023-12-01 16:57:55.182506
1506  2023-12-01 16:57:55.229326
1507  2023-12-01 16:57:55.276325
1508  2023-12-01 16:57:55.307278
1509  2023-12-01 16:57:55.354117
1510  2023-12-01 16:57:55.401042
1511  2023-12-01 16:57:55.432946
1512  2023-12-01 16:57:55.480778
1513  2023-12-01 16:57:55.512693
1514  2023-12-01 16:57:55.560565
1515  2023-12-01 16:57:55.606498
1516  2023-12-01 16:57:55.638393
1517  2023-12-01 16:57:55.686441
1518  2023-12-01 16:57:55.734393
1519  2023-12-01 16:57:55.766390
1520  2023-12-01 16:57:55.814253
1521  2023-12-01 16:57:55.846176
1522  2023-12-01 16:57:55.894040
1523  2023-12-01 16:57:55.941915
1524  2023-12-01 16:57:55.973793
1525  2023-12-01 16:57:56.021858
1526  2023-12-01 16:57:56.053849
1527  2023-12-01 16:57:56.101690
1528  2023-12-01 16:57:56.148563
1529  2023-12-01 16:57:56.178514
1530  2023-12-01 16:57:56.226388
1531  2023-12-01 16:57:56.272232
1532  2023-12-01 16:57:56.304147
1533  2023-12-01 16:57:56.353059
1534  2023-12-01 16:57:56.399033
1535  2023-12-01 16:57:56.430947
1536  2023-12-01 16:57:56.477822
1537  2023-12-01 16:57:56.524697
1538  2023-12-01 16:57:56.556611
1539  2023-12-01 16:57:56.604484
1540  2023-12-01 16:57:56.651358
1541  2023-12-01 16:57:56.682275
1542  2023-12-01 16:57:56.728203
1543  2023-12-01 16:57:56.776151
1544  2023-12-01 16:57:56.808071
1545  2023-12-01 16:57:56.855932
1546  2023-12-01 16:57:56.887844
1547  2023-12-01 16:57:56.934722
1548  2023-12-01 16:57:56.981595
1549  2023-12-01 16:57:57.013476
1550  2023-12-01 16:57:57.061378
1551  2023-12-01 16:57:57.109220
1552  2023-12-01 16:57:57.141135
1553  2023-12-01 16:57:57.189126
1554  2023-12-01 16:57:57.220953
1555  2023-12-01 16:57:57.268833
1556  2023-12-01 16:57:57.316701
1557  2023-12-01 16:57:57.348580
1558  2023-12-01 16:57:57.396497
1559  2023-12-01 16:57:57.428367
1560  2023-12-01 16:57:57.476272
1561  2023-12-01 16:57:57.524142
1562  2023-12-01 16:57:57.556060
1563  2023-12-01 16:57:57.603933
1564  2023-12-01 16:57:57.651891
1565  2023-12-01 16:57:57.683800
1566  2023-12-01 16:57:57.731663
1567  2023-12-01 16:57:57.763577
1568  2023-12-01 16:57:57.810478
1569  2023-12-01 16:57:57.857296
1570  2023-12-01 16:57:57.890263
1571  2023-12-01 16:57:57.937081
1572  2023-12-01 16:57:57.984985
1573  2023-12-01 16:57:58.016907
1574  2023-12-01 16:57:58.064741
1575  2023-12-01 16:57:58.096657
1576  2023-12-01 16:57:58.142531
1577  2023-12-01 16:57:58.190404
1578  2023-12-01 16:57:58.222328
1579  2023-12-01 16:57:58.269193
1580  2023-12-01 16:57:58.316068
1581  2023-12-01 16:57:58.347982
1582  2023-12-01 16:57:58.393860
1583  2023-12-01 16:57:58.441766
1584  2023-12-01 16:57:58.473682
1585  2023-12-01 16:57:58.521518
1586  2023-12-01 16:57:58.553433
1587  2023-12-01 16:57:58.601338
1588  2023-12-01 16:57:58.648180
1589  2023-12-01 16:57:58.679130
1590  2023-12-01 16:57:58.726010
1591  2023-12-01 16:57:58.772965
1592  2023-12-01 16:57:58.804881
1593  2023-12-01 16:57:58.852760
1594  2023-12-01 16:57:58.900627
1595  2023-12-01 16:57:58.932542
1596  2023-12-01 16:57:58.979510
1597  2023-12-01 16:57:59.026291
1598  2023-12-01 16:57:59.058205
1599  2023-12-01 16:57:59.106077
1600  2023-12-01 16:57:59.137994
1601  2023-12-01 16:57:59.185832
1602  2023-12-01 16:57:59.233756
1603  2023-12-01 16:57:59.265651
1604  2023-12-01 16:57:59.313551
1605  2023-12-01 16:57:59.359402
1606  2023-12-01 16:57:59.391336
1607  2023-12-01 16:57:59.439155
1608  2023-12-01 16:57:59.471070
1609  2023-12-01 16:57:59.517944
1610  2023-12-01 16:57:59.564818
1611  2023-12-01 16:57:59.596732
1612  2023-12-01 16:57:59.644604
1613  2023-12-01 16:57:59.692486
1614  2023-12-01 16:57:59.724391
1615  2023-12-01 16:57:59.771299
1616  2023-12-01 16:57:59.818141
1617  2023-12-01 16:57:59.849060
1618  2023-12-01 16:57:59.896930
1619  2023-12-01 16:57:59.928845
1620  2023-12-01 16:57:59.976751
1621  2023-12-01 16:58:00.024589
1622  2023-12-01 16:58:00.056503
1623  2023-12-01 16:58:00.103475
1624  2023-12-01 16:58:00.150312
1625  2023-12-01 16:58:00.182226
1626  2023-12-01 16:58:00.230130
1627  2023-12-01 16:58:00.262056
1628  2023-12-01 16:58:00.309919
1629  2023-12-01 16:58:00.357798
1630  2023-12-01 16:58:00.389707
1631  2023-12-01 16:58:00.435584
1632  2023-12-01 16:58:00.483455
1633  2023-12-01 16:58:00.515385
1634  2023-12-01 16:58:00.563242
1635  2023-12-01 16:58:00.595157
1636  2023-12-01 16:58:00.643027
1637  2023-12-01 16:58:00.690905
1638  2023-12-01 16:58:00.722928
1639  2023-12-01 16:58:00.770688
1640  2023-12-01 16:58:00.817862
1641  2023-12-01 16:58:00.849899
1642  2023-12-01 16:58:00.897770
1643  2023-12-01 16:58:00.929676
1644  2023-12-01 16:58:00.977545
1645  2023-12-01 16:58:01.025422
1646  2023-12-01 16:58:01.057330
1647  2023-12-01 16:58:01.105217
1648  2023-12-01 16:58:01.137125
1649  2023-12-01 16:58:01.185170
1650  2023-12-01 16:58:01.234029
1651  2023-12-01 16:58:01.265040
1652  2023-12-01 16:58:01.312824
1653  2023-12-01 16:58:01.359661
1654  2023-12-01 16:58:01.390621
1655  2023-12-01 16:58:01.438496
1656  2023-12-01 16:58:01.470405
1657  2023-12-01 16:58:01.519279
1658  2023-12-01 16:58:01.566105
1659  2023-12-01 16:58:01.599157
1660  2023-12-01 16:58:01.646128
1661  2023-12-01 16:58:01.692954
1662  2023-12-01 16:58:01.723872
1663  2023-12-01 16:58:01.771744
1664  2023-12-01 16:58:01.803658
1665  2023-12-01 16:58:01.851530
1666  2023-12-01 16:58:01.898405
1667  2023-12-01 16:58:01.929426
1668  2023-12-01 16:58:01.976335
1669  2023-12-01 16:58:02.023206
1670  2023-12-01 16:58:02.055088
1671  2023-12-01 16:58:02.103000
1672  2023-12-01 16:58:02.150832
1673  2023-12-01 16:58:02.182746
1674  2023-12-01 16:58:02.230655
1675  2023-12-01 16:58:02.262569
1676  2023-12-01 16:58:02.310438
1677  2023-12-01 16:58:02.358309
1678  2023-12-01 16:58:02.390226
1679  2023-12-01 16:58:02.437099
1680  2023-12-01 16:58:02.484942
1681  2023-12-01 16:58:02.516886
1682  2023-12-01 16:58:02.564768
1683  2023-12-01 16:58:02.596678
1684  2023-12-01 16:58:02.644546
1685  2023-12-01 16:58:02.692424
1686  2023-12-01 16:58:02.724338
1687  2023-12-01 16:58:02.772204
1688  2023-12-01 16:58:02.804119
1689  2023-12-01 16:58:02.850960
1690  2023-12-01 16:58:02.898873
1691  2023-12-01 16:58:02.930801
1692  2023-12-01 16:58:02.978653
1693  2023-12-01 16:58:03.026494
1694  2023-12-01 16:58:03.057444
1695  2023-12-01 16:58:03.104448
1696  2023-12-01 16:58:03.152330
1697  2023-12-01 16:58:03.183285
1698  2023-12-01 16:58:03.228087
1699  2023-12-01 16:58:03.275960
1700  2023-12-01 16:58:03.307875
1701  2023-12-01 16:58:03.355791
1702  2023-12-01 16:58:03.387705
1703  2023-12-01 16:58:03.435577
1704  2023-12-01 16:58:03.483449
1705  2023-12-01 16:58:03.514371
1706  2023-12-01 16:58:03.561242
1707  2023-12-01 16:58:03.609148
1708  2023-12-01 16:58:03.641237
1709  2023-12-01 16:58:03.689113
1710  2023-12-01 16:58:03.721028
1711  2023-12-01 16:58:03.768942
1712  2023-12-01 16:58:03.816772
1713  2023-12-01 16:58:03.848686
1714  2023-12-01 16:58:03.896558
1715  2023-12-01 16:58:03.942486
1716  2023-12-01 16:58:03.974382
1717  2023-12-01 16:58:04.022266
1718  2023-12-01 16:58:04.068297
1719  2023-12-01 16:58:04.100295
1720  2023-12-01 16:58:04.148080
1721  2023-12-01 16:58:04.179965
1722  2023-12-01 16:58:04.227870
1723  2023-12-01 16:58:04.274743
1724  2023-12-01 16:58:04.305663
1725  2023-12-01 16:58:04.353554
1726  2023-12-01 16:58:04.401409
1727  2023-12-01 16:58:04.433518
1728  2023-12-01 16:58:04.481192
1729  2023-12-01 16:58:04.513108
1730  2023-12-01 16:58:04.560947
1731  2023-12-01 16:58:04.607855
1732  2023-12-01 16:58:04.638771
1733  2023-12-01 16:58:04.686644
1734  2023-12-01 16:58:04.734636
1735  2023-12-01 16:58:04.766431
1736  2023-12-01 16:58:04.813304
1737  2023-12-01 16:58:04.861315
1738  2023-12-01 16:58:04.893222
1739  2023-12-01 16:58:04.940057
1740  2023-12-01 16:58:04.972992
1741  2023-12-01 16:58:05.019002
1742  2023-12-01 16:58:05.065876
1743  2023-12-01 16:58:05.097791
1744  2023-12-01 16:58:05.145695
1745  2023-12-01 16:58:05.193535
1746  2023-12-01 16:58:05.225596
1747  2023-12-01 16:58:05.273504
1748  2023-12-01 16:58:05.305408
1749  2023-12-01 16:58:05.353254
1750  2023-12-01 16:58:05.401180
1751  2023-12-01 16:58:05.433041
1752  2023-12-01 16:58:05.480944
1753  2023-12-01 16:58:05.511863
1754  2023-12-01 16:58:05.558769
1755  2023-12-01 16:58:05.606613
1756  2023-12-01 16:58:05.638497
1757  2023-12-01 16:58:05.686364
1758  2023-12-01 16:58:05.734281
1759  2023-12-01 16:58:05.766190
1760  2023-12-01 16:58:05.814156
1761  2023-12-01 16:58:05.845970
1762  2023-12-01 16:58:05.893842
1763  2023-12-01 16:58:05.941723
1764  2023-12-01 16:58:05.973627
1765  2023-12-01 16:58:06.021501
1766  2023-12-01 16:58:06.053383
1767  2023-12-01 16:58:06.101286
1768  2023-12-01 16:58:06.149127
1769  2023-12-01 16:58:06.181041
1770  2023-12-01 16:58:06.228960
1771  2023-12-01 16:58:06.276819
1772  2023-12-01 16:58:06.307736
1773  2023-12-01 16:58:06.354610
1774  2023-12-01 16:58:06.401492
1775  2023-12-01 16:58:06.432401
1776  2023-12-01 16:58:06.478279
1777  2023-12-01 16:58:06.525122
1778  2023-12-01 16:58:06.556079
1779  2023-12-01 16:58:06.602914
1780  2023-12-01 16:58:06.648822
1781  2023-12-01 16:58:06.680741
1782  2023-12-01 16:58:06.726583
1783  2023-12-01 16:58:06.772525
1784  2023-12-01 16:58:06.804410
1785  2023-12-01 16:58:06.852247
1786  2023-12-01 16:58:06.900158
1787  2023-12-01 16:58:06.932073
1788  2023-12-01 16:58:06.977943
1789  2023-12-01 16:58:07.025818
1790  2023-12-01 16:58:07.057738
1791  2023-12-01 16:58:07.105611
1792  2023-12-01 16:58:07.137517
1793  2023-12-01 16:58:07.185371
1794  2023-12-01 16:58:07.233230
1795  2023-12-01 16:58:07.265193
1796  2023-12-01 16:58:07.313046
1797  2023-12-01 16:58:07.359891
1798  2023-12-01 16:58:07.390841
1799  2023-12-01 16:58:07.437801
1800  2023-12-01 16:58:07.485618
1801  2023-12-01 16:58:07.517523
1802  2023-12-01 16:58:07.564379
1803  2023-12-01 16:58:07.596292
1804  2023-12-01 16:58:07.644163
1805  2023-12-01 16:58:07.692037
1806  2023-12-01 16:58:07.723950
1807  2023-12-01 16:58:07.771833
1808  2023-12-01 16:58:07.819709
1809  2023-12-01 16:58:07.850578
1810  2023-12-01 16:58:07.898450
1811  2023-12-01 16:58:07.930365
1812  2023-12-01 16:58:07.978237
1813  2023-12-01 16:58:08.026109
1814  2023-12-01 16:58:08.058023
1815  2023-12-01 16:58:08.105942
1816  2023-12-01 16:58:08.137810
1817  2023-12-01 16:58:08.185682
1818  2023-12-01 16:58:08.233554
1819  2023-12-01 16:58:08.264472
1820  2023-12-01 16:58:08.311379
1821  2023-12-01 16:58:08.358404
1822  2023-12-01 16:58:08.389320
1823  2023-12-01 16:58:08.436199
1824  2023-12-01 16:58:08.483139
1825  2023-12-01 16:58:08.514089
1826  2023-12-01 16:58:08.559997
1827  2023-12-01 16:58:08.607855
1828  2023-12-01 16:58:08.638723
1829  2023-12-01 16:58:08.686633
1830  2023-12-01 16:58:08.732506
1831  2023-12-01 16:58:08.764421
1832  2023-12-01 16:58:08.812793
1833  2023-12-01 16:58:08.860665
1834  2023-12-01 16:58:08.892694
1835  2023-12-01 16:58:08.939655
1836  2023-12-01 16:58:08.972670
1837  2023-12-01 16:58:09.019644
1838  2023-12-01 16:58:09.067618
1839  2023-12-01 16:58:09.099556
1840  2023-12-01 16:58:09.147428
1841  2023-12-01 16:58:09.179341
1842  2023-12-01 16:58:09.227215
1843  2023-12-01 16:58:09.274091
1844  2023-12-01 16:58:09.306063
1845  2023-12-01 16:58:09.355035
1846  2023-12-01 16:58:09.401870
1847  2023-12-01 16:58:09.433783
1848  2023-12-01 16:58:09.481688
1849  2023-12-01 16:58:09.512724
1850  2023-12-01 16:58:09.560445
1851  2023-12-01 16:58:09.608394
1852  2023-12-01 16:58:09.640448
1853  2023-12-01 16:58:09.688288
1854  2023-12-01 16:58:09.720202
1855  2023-12-01 16:58:09.768108
1856  2023-12-01 16:58:09.815948
1857  2023-12-01 16:58:09.847892
1858  2023-12-01 16:58:09.893915
1859  2023-12-01 16:58:09.941655
1860  2023-12-01 16:58:09.973556
1861  2023-12-01 16:58:10.021431
1862  2023-12-01 16:58:10.053312
1863  2023-12-01 16:58:10.101230
1864  2023-12-01 16:58:10.149056
1865  2023-12-01 16:58:10.180970
1866  2023-12-01 16:58:10.228876
1867  2023-12-01 16:58:10.274762
1868  2023-12-01 16:58:10.306669
1869  2023-12-01 16:58:10.354540
1870  2023-12-01 16:58:10.401382
1871  2023-12-01 16:58:10.431356
1872  2023-12-01 16:58:10.478207
1873  2023-12-01 16:58:10.526048
1874  2023-12-01 16:58:10.557963
1875  2023-12-01 16:58:10.605869
1876  2023-12-01 16:58:10.637749
1877  2023-12-01 16:58:10.685653
1878  2023-12-01 16:58:10.733530
1879  2023-12-01 16:58:10.765439
1880  2023-12-01 16:58:10.812314
1881  2023-12-01 16:58:10.860186
1882  2023-12-01 16:58:10.892101
1883  2023-12-01 16:58:10.939973
1884  2023-12-01 16:58:10.971890
1885  2023-12-01 16:58:11.019764
1886  2023-12-01 16:58:11.067600
1887  2023-12-01 16:58:11.099549
1888  2023-12-01 16:58:11.147419
1889  2023-12-01 16:58:11.179336
1890  2023-12-01 16:58:11.227174
1891  2023-12-01 16:58:11.275176
1892  2023-12-01 16:58:11.307148
1893  2023-12-01 16:58:11.354110
1894  2023-12-01 16:58:11.401969
1895  2023-12-01 16:58:11.432984
1896  2023-12-01 16:58:11.482035
1897  2023-12-01 16:58:11.512987
1898  2023-12-01 16:58:11.561910
1899  2023-12-01 16:58:11.606791
1900  2023-12-01 16:58:11.638706
1901  2023-12-01 16:58:11.686543
1902  2023-12-01 16:58:11.734462
1903  2023-12-01 16:58:11.766424
1904  2023-12-01 16:58:11.814365
1905  2023-12-01 16:58:11.845289
1906  2023-12-01 16:58:11.891157
1907  2023-12-01 16:58:11.938037
1908  2023-12-01 16:58:11.983879
1909  2023-12-01 16:58:12.013837
1910  2023-12-01 16:58:12.059708
1911  2023-12-01 16:58:12.107581
1912  2023-12-01 16:58:12.139502
1913  2023-12-01 16:58:12.187333
1914  2023-12-01 16:58:12.235205
1915  2023-12-01 16:58:12.267120
1916  2023-12-01 16:58:12.315023
1917  2023-12-01 16:58:12.346937
1918  2023-12-01 16:58:12.394779
1919  2023-12-01 16:58:12.441685
1920  2023-12-01 16:58:12.473600
1921  2023-12-01 16:58:12.521493
1922  2023-12-01 16:58:12.553388
1923  2023-12-01 16:58:12.601259
1924  2023-12-01 16:58:12.650131
1925  2023-12-01 16:58:12.681015
1926  2023-12-01 16:58:12.729926
1927  2023-12-01 16:58:12.775924
1928  2023-12-01 16:58:12.806840
1929  2023-12-01 16:58:12.854679
1930  2023-12-01 16:58:12.901590
1931  2023-12-01 16:58:12.932503
1932  2023-12-01 16:58:12.980377
1933  2023-12-01 16:58:13.026305
1934  2023-12-01 16:58:13.058192
1935  2023-12-01 16:58:13.106140
1936  2023-12-01 16:58:13.138063
1937  2023-12-01 16:58:13.184931
1938  2023-12-01 16:58:13.232771
1939  2023-12-01 16:58:13.264687
1940  2023-12-01 16:58:13.312556
1941  2023-12-01 16:58:13.358468
1942  2023-12-01 16:58:13.390383
1943  2023-12-01 16:58:13.438251
1944  2023-12-01 16:58:13.486131
1945  2023-12-01 16:58:13.517067
1946  2023-12-01 16:58:13.564920
1947  2023-12-01 16:58:13.596827
1948  2023-12-01 16:58:13.644701
1949  2023-12-01 16:58:13.691545
1950  2023-12-01 16:58:13.723498
1951  2023-12-01 16:58:13.770366
1952  2023-12-01 16:58:13.819243
1953  2023-12-01 16:58:13.851151
1954  2023-12-01 16:58:13.898028
1955  2023-12-01 16:58:13.930939
1956  2023-12-01 16:58:13.978815
1957  2023-12-01 16:58:14.025683
1958  2023-12-01 16:58:14.058598
1959  2023-12-01 16:58:14.103472
1960  2023-12-01 16:58:14.150317
1961  2023-12-01 16:58:14.181265
1962  2023-12-01 16:58:14.228140
1963  2023-12-01 16:58:14.275982
1964  2023-12-01 16:58:14.306938
1965  2023-12-01 16:58:14.353808
1966  2023-12-01 16:58:14.401645
1967  2023-12-01 16:58:14.433601
1968  2023-12-01 16:58:14.481432
1969  2023-12-01 16:58:14.512349
1970  2023-12-01 16:58:14.559225
1971  2023-12-01 16:58:14.607126
1972  2023-12-01 16:58:14.639041
1973  2023-12-01 16:58:14.686922
1974  2023-12-01 16:58:14.733790
1975  2023-12-01 16:58:14.764709
1976  2023-12-01 16:58:14.812578
1977  2023-12-01 16:58:14.860451
1978  2023-12-01 16:58:14.892394
1979  2023-12-01 16:58:14.940235
1980  2023-12-01 16:58:14.972154
1981  2023-12-01 16:58:15.020023
1982  2023-12-01 16:58:15.067899
1983  2023-12-01 16:58:15.098817
1984  2023-12-01 16:58:15.146686
1985  2023-12-01 16:58:15.178616
1986  2023-12-01 16:58:15.226470
1987  2023-12-01 16:58:15.274342
1988  2023-12-01 16:58:15.306259
1989  2023-12-01 16:58:15.354100
1990  2023-12-01 16:58:15.402004
1991  2023-12-01 16:58:15.432919
1992  2023-12-01 16:58:15.480761
1993  2023-12-01 16:58:15.512709
1994  2023-12-01 16:58:15.560581
1995  2023-12-01 16:58:15.608461
1996  2023-12-01 16:58:15.640364
1997  2023-12-01 16:58:15.688266
1998  2023-12-01 16:58:15.735133
1999  2023-12-01 16:58:15.766996
2000  2023-12-01 16:58:15.814898
2001  2023-12-01 16:58:15.846813
2002  2023-12-01 16:58:15.894655
2003  2023-12-01 16:58:15.942571
2004  2023-12-01 16:58:15.974520
2005  2023-12-01 16:58:16.022356
2006  2023-12-01 16:58:16.054305
2007  2023-12-01 16:58:16.102226
2008  2023-12-01 16:58:16.150085
2009  2023-12-01 16:58:16.181995
2010  2023-12-01 16:58:16.228873
2011  2023-12-01 16:58:16.275759
2012  2023-12-01 16:58:16.306760
2013  2023-12-01 16:58:16.354801
2014  2023-12-01 16:58:16.386679
2015  2023-12-01 16:58:16.432557
2016  2023-12-01 16:58:16.480428
2017  2023-12-01 16:58:16.512473
2018  2023-12-01 16:58:16.559382
2019  2023-12-01 16:58:16.605256
2020  2023-12-01 16:58:16.652134
2021  2023-12-01 16:58:16.684044
2022  2023-12-01 16:58:16.731917
2023  2023-12-01 16:58:16.762839
2024  2023-12-01 16:58:16.809717
2025  2023-12-01 16:58:16.857550
2026  2023-12-01 16:58:16.889500
2027  2023-12-01 16:58:16.937374
2028  2023-12-01 16:58:16.985239
2029  2023-12-01 16:58:17.017156
2030  2023-12-01 16:58:17.064035
2031  2023-12-01 16:58:17.110018
2032  2023-12-01 16:58:17.141929
2033  2023-12-01 16:58:17.189813
2034  2023-12-01 16:58:17.221721
2035  2023-12-01 16:58:17.269600
2036  2023-12-01 16:58:17.317429
2037  2023-12-01 16:58:17.349383
2038  2023-12-01 16:58:17.397245
2039  2023-12-01 16:58:17.429161
2040  2023-12-01 16:58:17.476005
2041  2023-12-01 16:58:17.523910
2042  2023-12-01 16:58:17.555825
2043  2023-12-01 16:58:17.603696
2044  2023-12-01 16:58:17.651536
2045  2023-12-01 16:58:17.682453
2046  2023-12-01 16:58:17.730469
2047  2023-12-01 16:58:17.762377
2048  2023-12-01 16:58:17.810248
2049  2023-12-01 16:58:17.858119
2050  2023-12-01 16:58:17.890033
2051  2023-12-01 16:58:17.937908
2052  2023-12-01 16:58:17.984793
2053  2023-12-01 16:58:18.016666
2054  2023-12-01 16:58:18.065569
2055  2023-12-01 16:58:18.095491
2056  2023-12-01 16:58:18.142329
2057  2023-12-01 16:58:18.190229
2058  2023-12-01 16:58:18.222163
2059  2023-12-01 16:58:18.269988
2060  2023-12-01 16:58:18.317899
2061  2023-12-01 16:58:18.348826
2062  2023-12-01 16:58:18.395687
2063  2023-12-01 16:58:18.441559
2064  2023-12-01 16:58:18.473500
2065  2023-12-01 16:58:18.521361
2066  2023-12-01 16:58:18.567224
2067  2023-12-01 16:58:18.599138
2068  2023-12-01 16:58:18.647015
2069  2023-12-01 16:58:18.678926
2070  2023-12-01 16:58:18.726801
2071  2023-12-01 16:58:18.774850
2072  2023-12-01 16:58:18.806585
2073  2023-12-01 16:58:18.854460
2074  2023-12-01 16:58:18.901331
2075  2023-12-01 16:58:18.933245
2076  2023-12-01 16:58:18.981124
2077  2023-12-01 16:58:19.013034
2078  2023-12-01 16:58:19.060905
2079  2023-12-01 16:58:19.108790
2080  2023-12-01 16:58:19.140695
2081  2023-12-01 16:58:19.186588
2082  2023-12-01 16:58:19.234409
2083  2023-12-01 16:58:19.265359
2084  2023-12-01 16:58:19.312201
2085  2023-12-01 16:58:19.359035
2086  2023-12-01 16:58:19.390944
2087  2023-12-01 16:58:19.438818
2088  2023-12-01 16:58:19.470696
2089  2023-12-01 16:58:19.518600
2090  2023-12-01 16:58:19.566476
2091  2023-12-01 16:58:19.597387
2092  2023-12-01 16:58:19.644306
2093  2023-12-01 16:58:19.692139
2094  2023-12-01 16:58:19.723059
2095  2023-12-01 16:58:19.769937
2096  2023-12-01 16:58:19.817801
2097  2023-12-01 16:58:19.849714
2098  2023-12-01 16:58:19.897601
2099  2023-12-01 16:58:19.929500
2100  2023-12-01 16:58:19.977376
2101  2023-12-01 16:58:20.025243
2102  2023-12-01 16:58:20.057128
2103  2023-12-01 16:58:20.104036
2104  2023-12-01 16:58:20.151876
2105  2023-12-01 16:58:20.182825
2106  2023-12-01 16:58:20.230706
2107  2023-12-01 16:58:20.262611
2108  2023-12-01 16:58:20.310486
2109  2023-12-01 16:58:20.358365
2110  2023-12-01 16:58:20.390273
2111  2023-12-01 16:58:20.438297
2112  2023-12-01 16:58:20.470211
2113  2023-12-01 16:58:20.518084
2114  2023-12-01 16:58:20.562961
2115  2023-12-01 16:58:20.609839
2116  2023-12-01 16:58:20.641753
2117  2023-12-01 16:58:20.689627
2118  2023-12-01 16:58:20.721550
2119  2023-12-01 16:58:20.769411
2120  2023-12-01 16:58:20.817480
2121  2023-12-01 16:58:20.849346
2122  2023-12-01 16:58:20.897253
2123  2023-12-01 16:58:20.929165
2124  2023-12-01 16:58:20.977005
2125  2023-12-01 16:58:21.024907
2126  2023-12-01 16:58:21.055927
2127  2023-12-01 16:58:21.102770
2128  2023-12-01 16:58:21.151645
2129  2023-12-01 16:58:21.182588
2130  2023-12-01 16:58:21.228465
2131  2023-12-01 16:58:21.276342
2132  2023-12-01 16:58:21.308274
2133  2023-12-01 16:58:21.356127
2134  2023-12-01 16:58:21.388041
2135  2023-12-01 16:58:21.435911
2136  2023-12-01 16:58:21.483758
2137  2023-12-01 16:58:21.515703
2138  2023-12-01 16:58:21.563580
2139  2023-12-01 16:58:21.595483
2140  2023-12-01 16:58:21.643357
2141  2023-12-01 16:58:21.691197
2142  2023-12-01 16:58:21.722116
2143  2023-12-01 16:58:21.770018
2144  2023-12-01 16:58:21.816894
2145  2023-12-01 16:58:21.847813
2146  2023-12-01 16:58:21.895683
2147  2023-12-01 16:58:21.943670
2148  2023-12-01 16:58:21.975471
2149  2023-12-01 16:58:22.023341
2150  2023-12-01 16:58:22.055224
2151  2023-12-01 16:58:22.103129
2152  2023-12-01 16:58:22.151090
2153  2023-12-01 16:58:22.182916
2154  2023-12-01 16:58:22.229789
2155  2023-12-01 16:58:22.277671
2156  2023-12-01 16:58:22.309580
2157  2023-12-01 16:58:22.355463
2158  2023-12-01 16:58:22.387366
2159  2023-12-01 16:58:22.435208
2160  2023-12-01 16:58:22.483080
2161  2023-12-01 16:58:22.513125
2162  2023-12-01 16:58:22.560998
2163  2023-12-01 16:58:22.606842
2164  2023-12-01 16:58:22.638757
2165  2023-12-01 16:58:22.686795
2166  2023-12-01 16:58:22.733503
2167  2023-12-01 16:58:22.764453
2168  2023-12-01 16:58:22.810332
2169  2023-12-01 16:58:22.858176
2170  2023-12-01 16:58:22.890085
2171  2023-12-01 16:58:22.937989
2172  2023-12-01 16:58:22.984864
2173  2023-12-01 16:58:23.015791
2174  2023-12-01 16:58:23.063622
2175  2023-12-01 16:58:23.095567
2176  2023-12-01 16:58:23.141444
2177  2023-12-01 16:58:23.189319
2178  2023-12-01 16:58:23.221233
2179  2023-12-01 16:58:23.269105
2180  2023-12-01 16:58:23.316975
2181  2023-12-01 16:58:23.348887
2182  2023-12-01 16:58:23.396838
2183  2023-12-01 16:58:23.428795
2184  2023-12-01 16:58:23.476734
2185  2023-12-01 16:58:23.524749
2186  2023-12-01 16:58:23.556523
2187  2023-12-01 16:58:23.605386
2188  2023-12-01 16:58:23.651232
2189  2023-12-01 16:58:23.682149
2190  2023-12-01 16:58:23.729055
2191  2023-12-01 16:58:23.776897
2192  2023-12-01 16:58:23.807814
2193  2023-12-01 16:58:23.854689
2194  2023-12-01 16:58:23.900565
2195  2023-12-01 16:58:23.932481
2196  2023-12-01 16:58:23.980352
2197  2023-12-01 16:58:24.026270
2198  2023-12-01 16:58:24.058144
2199  2023-12-01 16:58:24.106047
2200  2023-12-01 16:58:24.137961
2201  2023-12-01 16:58:24.185839
2202  2023-12-01 16:58:24.233707
2203  2023-12-01 16:58:24.265622
2204  2023-12-01 16:58:24.311500
2205  2023-12-01 16:58:24.359370
2206  2023-12-01 16:58:24.391284
2207  2023-12-01 16:58:24.438163
2208  2023-12-01 16:58:24.485191
2209  2023-12-01 16:58:24.517972
2210  2023-12-01 16:58:24.564826
2211  2023-12-01 16:58:24.596739
2212  2023-12-01 16:58:24.644610
2213  2023-12-01 16:58:24.692485
2214  2023-12-01 16:58:24.724412
2215  2023-12-01 16:58:24.773265
2216  2023-12-01 16:58:24.818145
2217  2023-12-01 16:58:24.849029
2218  2023-12-01 16:58:24.895904
2219  2023-12-01 16:58:24.942779
2220  2023-12-01 16:58:24.973696
2221  2023-12-01 16:58:25.020606
2222  2023-12-01 16:58:25.067648
2223  2023-12-01 16:58:25.098393
2224  2023-12-01 16:58:25.145273
2225  2023-12-01 16:58:25.193141
2226  2023-12-01 16:58:25.225132
2227  2023-12-01 16:58:25.273091
2228  2023-12-01 16:58:25.305005
2229  2023-12-01 16:58:25.350890
2230  2023-12-01 16:58:25.398758
2231  2023-12-01 16:58:25.430638
2232  2023-12-01 16:58:25.478547
2233  2023-12-01 16:58:25.525899
2234  2023-12-01 16:58:25.557876
2235  2023-12-01 16:58:25.605759
2236  2023-12-01 16:58:25.636636
2237  2023-12-01 16:58:25.684536
2238  2023-12-01 16:58:25.733406
2239  2023-12-01 16:58:25.764332
2240  2023-12-01 16:58:25.810170
2241  2023-12-01 16:58:25.858076
2242  2023-12-01 16:58:25.889990
2243  2023-12-01 16:58:25.937988
2244  2023-12-01 16:58:25.984900
2245  2023-12-01 16:58:26.015816
2246  2023-12-01 16:58:26.063653
2247  2023-12-01 16:58:26.109628
2248  2023-12-01 16:58:26.140546
2249  2023-12-01 16:58:26.188451
2250  2023-12-01 16:58:26.220380
2251  2023-12-01 16:58:26.268196
2252  2023-12-01 16:58:26.314115
2253  2023-12-01 16:58:26.346019
2254  2023-12-01 16:58:26.393909
2255  2023-12-01 16:58:26.441242
2256  2023-12-01 16:58:26.473217
2257  2023-12-01 16:58:26.521088
2258  2023-12-01 16:58:26.566966
2259  2023-12-01 16:58:26.598881
2260  2023-12-01 16:58:26.644724
2261  2023-12-01 16:58:26.693626
2262  2023-12-01 16:58:26.724543
2263  2023-12-01 16:58:26.772418
2264  2023-12-01 16:58:26.804299
2265  2023-12-01 16:58:26.852179
2266  2023-12-01 16:58:26.898077
2267  2023-12-01 16:58:26.929991
2268  2023-12-01 16:58:26.977938
2269  2023-12-01 16:58:27.025841
2270  2023-12-01 16:58:27.057834
2271  2023-12-01 16:58:27.103719
2272  2023-12-01 16:58:27.151645
2273  2023-12-01 16:58:27.183543
2274  2023-12-01 16:58:27.231391
2275  2023-12-01 16:58:27.264324
2276  2023-12-01 16:58:27.311165
2277  2023-12-01 16:58:27.360165
2278  2023-12-01 16:58:27.391064
2279  2023-12-01 16:58:27.436909
2280  2023-12-01 16:58:27.484781
2281  2023-12-01 16:58:27.516696
2282  2023-12-01 16:58:27.563570
2283  2023-12-01 16:58:27.610484
2284  2023-12-01 16:58:27.642360
2285  2023-12-01 16:58:27.690260
2286  2023-12-01 16:58:27.722180
2287  2023-12-01 16:58:27.770018
2288  2023-12-01 16:58:27.817954
2289  2023-12-01 16:58:27.849867
2290  2023-12-01 16:58:27.897855
2291  2023-12-01 16:58:27.929771
2292  2023-12-01 16:58:27.977657
2293  2023-12-01 16:58:28.025526
2294  2023-12-01 16:58:28.057529
2295  2023-12-01 16:58:28.105453
2296  2023-12-01 16:58:28.137368
2297  2023-12-01 16:58:28.184252
2298  2023-12-01 16:58:28.231118
2299  2023-12-01 16:58:28.263037
2300  2023-12-01 16:58:28.307882
2301  2023-12-01 16:58:28.354789
2302  2023-12-01 16:58:28.386705
2303  2023-12-01 16:58:28.434575
2304  2023-12-01 16:58:28.482449
2305  2023-12-01 16:58:28.515359
2306  2023-12-01 16:58:28.561236
2307  2023-12-01 16:58:28.608079
2308  2023-12-01 16:58:28.638996
2309  2023-12-01 16:58:28.686893
2310  2023-12-01 16:58:28.733743
2311  2023-12-01 16:58:28.765657
2312  2023-12-01 16:58:28.814527
2313  2023-12-01 16:58:28.860404
2314  2023-12-01 16:58:28.891321
2315  2023-12-01 16:58:28.939194
2316  2023-12-01 16:58:28.971108
2317  2023-12-01 16:58:29.019159
2318  2023-12-01 16:58:29.067181
2319  2023-12-01 16:58:29.098912
2320  2023-12-01 16:58:29.146821
2321  2023-12-01 16:58:29.178743
2322  2023-12-01 16:58:29.226601
2323  2023-12-01 16:58:29.274493
2324  2023-12-01 16:58:29.304398
2325  2023-12-01 16:58:29.352264
2326  2023-12-01 16:58:29.400137
2327  2023-12-01 16:58:29.432053
2328  2023-12-01 16:58:29.479927
2329  2023-12-01 16:58:29.511842
2330  2023-12-01 16:58:29.558718
2331  2023-12-01 16:58:29.605592
2332  2023-12-01 16:58:29.637472
2333  2023-12-01 16:58:29.685345
2334  2023-12-01 16:58:29.733188
2335  2023-12-01 16:58:29.764172
2336  2023-12-01 16:58:29.811047
2337  2023-12-01 16:58:29.859917
2338  2023-12-01 16:58:29.890860
2339  2023-12-01 16:58:29.938704
2340  2023-12-01 16:58:29.984582
2341  2023-12-01 16:58:30.016495
2342  2023-12-01 16:58:30.064370
2343  2023-12-01 16:58:30.096392
2344  2023-12-01 16:58:30.143716
2345  2023-12-01 16:58:30.189715
2346  2023-12-01 16:58:30.221630
2347  2023-12-01 16:58:30.269501
2348  2023-12-01 16:58:30.318408
2349  2023-12-01 16:58:30.349288
2350  2023-12-01 16:58:30.397161
2351  2023-12-01 16:58:30.443037
2352  2023-12-01 16:58:30.474952
2353  2023-12-01 16:58:30.522824
2354  2023-12-01 16:58:30.554740
2355  2023-12-01 16:58:30.600616
2356  2023-12-01 16:58:30.646544
2357  2023-12-01 16:58:30.693402
2358  2023-12-01 16:58:30.725400
2359  2023-12-01 16:58:30.773243
2360  2023-12-01 16:58:30.805189
2361  2023-12-01 16:58:30.853076
2362  2023-12-01 16:58:30.900942
2363  2023-12-01 16:58:30.932821
2364  2023-12-01 16:58:30.980735
2365  2023-12-01 16:58:31.012648
2366  2023-12-01 16:58:31.060507
2367  2023-12-01 16:58:31.108380
2368  2023-12-01 16:58:31.140308
2369  2023-12-01 16:58:31.188172
2370  2023-12-01 16:58:31.220082
2371  2023-12-01 16:58:31.267955
2372  2023-12-01 16:58:31.315825
2373  2023-12-01 16:58:31.347778
2374  2023-12-01 16:58:31.395579
2375  2023-12-01 16:58:31.444495
2376  2023-12-01 16:58:31.475395
2377  2023-12-01 16:58:31.523280
2378  2023-12-01 16:58:31.568117
2379  2023-12-01 16:58:31.600032
2380  2023-12-01 16:58:31.646906
2381  2023-12-01 16:58:31.693822
2382  2023-12-01 16:58:31.726695
2383  2023-12-01 16:58:31.773568
2384  2023-12-01 16:58:31.805483
2385  2023-12-01 16:58:31.854528
2386  2023-12-01 16:58:31.899375
2387  2023-12-01 16:58:31.931290
2388  2023-12-01 16:58:31.979194
2389  2023-12-01 16:58:32.027077
2390  2023-12-01 16:58:32.058989
2391  2023-12-01 16:58:32.106821
2392  2023-12-01 16:58:32.138831
2393  2023-12-01 16:58:32.185663
2394  2023-12-01 16:58:32.232582
2395  2023-12-01 16:58:32.264531
2396  2023-12-01 16:58:32.312434
2397  2023-12-01 16:58:32.360279
2398  2023-12-01 16:58:32.392223
2399  2023-12-01 16:58:32.440062
2400  2023-12-01 16:58:32.472008
2401  2023-12-01 16:58:32.517854
2402  2023-12-01 16:58:32.564733
2403  2023-12-01 16:58:32.595647
2404  2023-12-01 16:58:32.644515
2405  2023-12-01 16:58:32.691425
2406  2023-12-01 16:58:32.724302
2407  2023-12-01 16:58:32.769280
2408  2023-12-01 16:58:32.818133
2409  2023-12-01 16:58:32.849046
2410  2023-12-01 16:58:32.894926
2411  2023-12-01 16:58:32.942767
2412  2023-12-01 16:58:32.974682
2413  2023-12-01 16:58:33.022556
2414  2023-12-01 16:58:33.054509
2415  2023-12-01 16:58:33.102340
2416  2023-12-01 16:58:33.150250
2417  2023-12-01 16:58:33.182272
2418  2023-12-01 16:58:33.228231
2419  2023-12-01 16:58:33.276145
2420  2023-12-01 16:58:33.308060
2421  2023-12-01 16:58:33.354998
2422  2023-12-01 16:58:33.401809
2423  2023-12-01 16:58:33.433724
2424  2023-12-01 16:58:33.481635
2425  2023-12-01 16:58:33.513575
2426  2023-12-01 16:58:33.560451
2427  2023-12-01 16:58:33.606326
2428  2023-12-01 16:58:33.638309
2429  2023-12-01 16:58:33.684304
2430  2023-12-01 16:58:33.732308
2431  2023-12-01 16:58:33.764206
2432  2023-12-01 16:58:33.812084
2433  2023-12-01 16:58:33.858967
2434  2023-12-01 16:58:33.891833
2435  2023-12-01 16:58:33.936745
2436  2023-12-01 16:58:33.984639
2437  2023-12-01 16:58:34.016553
2438  2023-12-01 16:58:34.064401
2439  2023-12-01 16:58:34.096339
2440  2023-12-01 16:58:34.145188
2441  2023-12-01 16:58:34.190135
2442  2023-12-01 16:58:34.222118
2443  2023-12-01 16:58:34.269960
2444  2023-12-01 16:58:34.318830
2445  2023-12-01 16:58:34.349886
2446  2023-12-01 16:58:34.397758
2447  2023-12-01 16:58:34.429801
2448  2023-12-01 16:58:34.477544
2449  2023-12-01 16:58:34.526415
2450  2023-12-01 16:58:34.557331
2451  2023-12-01 16:58:34.605203
2452  2023-12-01 16:58:34.637118
2453  2023-12-01 16:58:34.684990
2454  2023-12-01 16:58:34.731865
2455  2023-12-01 16:58:34.762782
2456  2023-12-01 16:58:34.810654
2457  2023-12-01 16:58:34.858562
2458  2023-12-01 16:58:34.888500
2459  2023-12-01 16:58:34.936358
2460  2023-12-01 16:58:34.983225
2461  2023-12-01 16:58:35.014160
2462  2023-12-01 16:58:35.062047
2463  2023-12-01 16:58:35.109811
2464  2023-12-01 16:58:35.141787
2465  2023-12-01 16:58:35.189653
2466  2023-12-01 16:58:35.221540
2467  2023-12-01 16:58:35.269446
2468  2023-12-01 16:58:35.317328
2469  2023-12-01 16:58:35.349229
2470  2023-12-01 16:58:35.397103
2471  2023-12-01 16:58:35.429101
2472  2023-12-01 16:58:35.477097
2473  2023-12-01 16:58:35.524968
2474  2023-12-01 16:58:35.555886
2475  2023-12-01 16:58:35.602762
2476  2023-12-01 16:58:35.649641
2477  2023-12-01 16:58:35.682515
2478  2023-12-01 16:58:35.730387
2479  2023-12-01 16:58:35.776313
2480  2023-12-01 16:58:35.808179
2481  2023-12-01 16:58:35.856089
2482  2023-12-01 16:58:35.887999
2483  2023-12-01 16:58:35.935869
2484  2023-12-01 16:58:35.982711
2485  2023-12-01 16:58:36.013628
2486  2023-12-01 16:58:36.061505
2487  2023-12-01 16:58:36.109372
2488  2023-12-01 16:58:36.141286
2489  2023-12-01 16:58:36.190205
2490  2023-12-01 16:58:36.221073
2491  2023-12-01 16:58:36.267949
2492  2023-12-01 16:58:36.314823
2493  2023-12-01 16:58:36.345750
2494  2023-12-01 16:58:36.392656
2495  2023-12-01 16:58:36.440487
2496  2023-12-01 16:58:36.472401
2497  2023-12-01 16:58:36.518314
2498  2023-12-01 16:58:36.564201
2499  2023-12-01 16:58:36.596104
2500  2023-12-01 16:58:36.641949
2501  2023-12-01 16:58:36.688869
2502  2023-12-01 16:58:36.735733
2503  2023-12-01 16:58:36.767662
2504  2023-12-01 16:58:36.815524
2505  2023-12-01 16:58:36.847591
2506  2023-12-01 16:58:36.891442
2507  2023-12-01 16:58:36.939314
2508  2023-12-01 16:58:36.970231
2509  2023-12-01 16:58:37.017156
2510  2023-12-01 16:58:37.065159
2511  2023-12-01 16:58:37.097074
2512  2023-12-01 16:58:37.144979
2513  2023-12-01 16:58:37.192853
2514  2023-12-01 16:58:37.224766
2515  2023-12-01 16:58:37.272605
2516  2023-12-01 16:58:37.304653
2517  2023-12-01 16:58:37.352561
2518  2023-12-01 16:58:37.400392
2519  2023-12-01 16:58:37.432306
2520  2023-12-01 16:58:37.480221
2521  2023-12-01 16:58:37.512127
2522  2023-12-01 16:58:37.560008
2523  2023-12-01 16:58:37.606879
2524  2023-12-01 16:58:37.637789
2525  2023-12-01 16:58:37.684634
2526  2023-12-01 16:58:37.731542
2527  2023-12-01 16:58:37.763453
2528  2023-12-01 16:58:37.811326
2529  2023-12-01 16:58:37.859205
2530  2023-12-01 16:58:37.891091
2531  2023-12-01 16:58:37.937994
2532  2023-12-01 16:58:37.984830
2533  2023-12-01 16:58:38.015787
2534  2023-12-01 16:58:38.063656
2535  2023-12-01 16:58:38.108499
2536  2023-12-01 16:58:38.140413
2537  2023-12-01 16:58:38.188287
2538  2023-12-01 16:58:38.220202
2539  2023-12-01 16:58:38.266079
2540  2023-12-01 16:58:38.313951
2541  2023-12-01 16:58:38.359867
2542  2023-12-01 16:58:38.391775
2543  2023-12-01 16:58:38.439615
2544  2023-12-01 16:58:38.471564
2545  2023-12-01 16:58:38.519435
2546  2023-12-01 16:58:38.565317
2547  2023-12-01 16:58:38.597227
2548  2023-12-01 16:58:38.645103
2549  2023-12-01 16:58:38.692970
2550  2023-12-01 16:58:38.724882
2551  2023-12-01 16:58:38.772724
2552  2023-12-01 16:58:38.804671
2553  2023-12-01 16:58:38.852545
2554  2023-12-01 16:58:38.900417
2555  2023-12-01 16:58:38.931333
2556  2023-12-01 16:58:38.978216
2557  2023-12-01 16:58:39.025085
2558  2023-12-01 16:58:39.055995
2559  2023-12-01 16:58:39.104880
2560  2023-12-01 16:58:39.151710
2561  2023-12-01 16:58:39.183627
2562  2023-12-01 16:58:39.228514
2563  2023-12-01 16:58:39.275380
2564  2023-12-01 16:58:39.306306
2565  2023-12-01 16:58:39.354209
2566  2023-12-01 16:58:39.401068
2567  2023-12-01 16:58:39.432104
2568  2023-12-01 16:58:39.480038
2569  2023-12-01 16:58:39.511913
2570  2023-12-01 16:58:39.559819
2571  2023-12-01 16:58:39.607657
2572  2023-12-01 16:58:39.639571
2573  2023-12-01 16:58:39.687477
2574  2023-12-01 16:58:39.735383
2575  2023-12-01 16:58:39.767293
2576  2023-12-01 16:58:39.815140
2577  2023-12-01 16:58:39.847054
2578  2023-12-01 16:58:39.894932
2579  2023-12-01 16:58:39.941764
2580  2023-12-01 16:58:39.972681
2581  2023-12-01 16:58:40.020586
2582  2023-12-01 16:58:40.067429
2583  2023-12-01 16:58:40.098346
2584  2023-12-01 16:58:40.146258
2585  2023-12-01 16:58:40.193239
2586  2023-12-01 16:58:40.224141
2587  2023-12-01 16:58:40.272146
2588  2023-12-01 16:58:40.318024
2589  2023-12-01 16:58:40.349937
2590  2023-12-01 16:58:40.397808
2591  2023-12-01 16:58:40.429729
2592  2023-12-01 16:58:40.477596
2593  2023-12-01 16:58:40.526473
2594  2023-12-01 16:58:40.556352
2595  2023-12-01 16:58:40.606326
2596  2023-12-01 16:58:40.651263
2597  2023-12-01 16:58:40.682181
2598  2023-12-01 16:58:40.730053
2599  2023-12-01 16:58:40.762006
2600  2023-12-01 16:58:40.809839
2601  2023-12-01 16:58:40.857749
2602  2023-12-01 16:58:40.889762
2603  2023-12-01 16:58:40.937498
2604  2023-12-01 16:58:40.985378
2605  2023-12-01 16:58:41.016369
2606  2023-12-01 16:58:41.063239
2607  2023-12-01 16:58:41.095157
2608  2023-12-01 16:58:41.143032
2609  2023-12-01 16:58:41.190901
2610  2023-12-01 16:58:41.222816
2611  2023-12-01 16:58:41.270654
2612  2023-12-01 16:58:41.317565
2613  2023-12-01 16:58:41.348479
2614  2023-12-01 16:58:41.396354
2615  2023-12-01 16:58:41.443194
2616  2023-12-01 16:58:41.474147
2617  2023-12-01 16:58:41.522058
2618  2023-12-01 16:58:41.554971
2619  2023-12-01 16:58:41.599888
2620  2023-12-01 16:58:41.645855
2621  2023-12-01 16:58:41.694755
2622  2023-12-01 16:58:41.725703
2623  2023-12-01 16:58:41.773546
2624  2023-12-01 16:58:41.805601
2625  2023-12-01 16:58:41.853334
2626  2023-12-01 16:58:41.901204
2627  2023-12-01 16:58:41.933122
2628  2023-12-01 16:58:41.980994
2629  2023-12-01 16:58:42.026837
2630  2023-12-01 16:58:42.058751
2631  2023-12-01 16:58:42.106626
2632  2023-12-01 16:58:42.138538
2633  2023-12-01 16:58:42.186410
2634  2023-12-01 16:58:42.234282
2635  2023-12-01 16:58:42.266196
2636  2023-12-01 16:58:42.313078
2637  2023-12-01 16:58:42.360022
2638  2023-12-01 16:58:42.391947
2639  2023-12-01 16:58:42.439776
2640  2023-12-01 16:58:42.471691
2641  2023-12-01 16:58:42.518551
2642  2023-12-01 16:58:42.566512
2643  2023-12-01 16:58:42.598567
2644  2023-12-01 16:58:42.646406
2645  2023-12-01 16:58:42.678421
2646  2023-12-01 16:58:42.726352
2647  2023-12-01 16:58:42.773195
2648  2023-12-01 16:58:42.805147
2649  2023-12-01 16:58:42.853030
2650  2023-12-01 16:58:42.900888
2651  2023-12-01 16:58:42.932810
2652  2023-12-01 16:58:42.980675
2653  2023-12-01 16:58:43.012591
2654  2023-12-01 16:58:43.060457
2655  2023-12-01 16:58:43.106346
2656  2023-12-01 16:58:43.138261
2657  2023-12-01 16:58:43.186153
2658  2023-12-01 16:58:43.234002
2659  2023-12-01 16:58:43.265877
2660  2023-12-01 16:58:43.313783
2661  2023-12-01 16:58:43.359629
2662  2023-12-01 16:58:43.390595
2663  2023-12-01 16:58:43.438447
2664  2023-12-01 16:58:43.470366
2665  2023-12-01 16:58:43.519236
2666  2023-12-01 16:58:43.566108
2667  2023-12-01 16:58:43.598020
2668  2023-12-01 16:58:43.645863
2669  2023-12-01 16:58:43.692854
2670  2023-12-01 16:58:43.724770
2671  2023-12-01 16:58:43.772657
2672  2023-12-01 16:58:43.804566
2673  2023-12-01 16:58:43.852426
2674  2023-12-01 16:58:43.900299
2675  2023-12-01 16:58:43.932211
2676  2023-12-01 16:58:43.978057
2677  2023-12-01 16:58:44.025030
2678  2023-12-01 16:58:44.057046
2679  2023-12-01 16:58:44.104879
2680  2023-12-01 16:58:44.136793
2681  2023-12-01 16:58:44.184667
2682  2023-12-01 16:58:44.232539
2683  2023-12-01 16:58:44.263456
2684  2023-12-01 16:58:44.310410
2685  2023-12-01 16:58:44.358283
2686  2023-12-01 16:58:44.390159
2687  2023-12-01 16:58:44.438101
2688  2023-12-01 16:58:44.470016
2689  2023-12-01 16:58:44.516927
2690  2023-12-01 16:58:44.563805
2691  2023-12-01 16:58:44.595829
2692  2023-12-01 16:58:44.643862
2693  2023-12-01 16:58:44.690745
2694  2023-12-01 16:58:44.721661
2695  2023-12-01 16:58:44.769526
2696  2023-12-01 16:58:44.817405
2697  2023-12-01 16:58:44.849319
2698  2023-12-01 16:58:44.897153
2699  2023-12-01 16:58:44.929069
2700  2023-12-01 16:58:44.976986
2701  2023-12-01 16:58:45.023879
2702  2023-12-01 16:58:45.054781
2703  2023-12-01 16:58:45.102604
2704  2023-12-01 16:58:45.150471
2705  2023-12-01 16:58:45.182348
2706  2023-12-01 16:58:45.228260
2707  2023-12-01 16:58:45.276123
2708  2023-12-01 16:58:45.308045
2709  2023-12-01 16:58:45.355919
2710  2023-12-01 16:58:45.387843
2711  2023-12-01 16:58:45.433675
2712  2023-12-01 16:58:45.481547
2713  2023-12-01 16:58:45.513462
2714  2023-12-01 16:58:45.561365
2715  2023-12-01 16:58:45.609206
2716  2023-12-01 16:58:45.641121
2717  2023-12-01 16:58:45.689027
2718  2023-12-01 16:58:45.720910
2719  2023-12-01 16:58:45.768779
2720  2023-12-01 16:58:45.816684
2721  2023-12-01 16:58:45.848566
2722  2023-12-01 16:58:45.896438
2723  2023-12-01 16:58:45.928387
2724  2023-12-01 16:58:45.976344
2725  2023-12-01 16:58:46.024211
2726  2023-12-01 16:58:46.056220
2727  2023-12-01 16:58:46.104055
2728  2023-12-01 16:58:46.151958
2729  2023-12-01 16:58:46.183875
2730  2023-12-01 16:58:46.231713
2731  2023-12-01 16:58:46.263628
2732  2023-12-01 16:58:46.310503
2733  2023-12-01 16:58:46.357408
2734  2023-12-01 16:58:46.388325
2735  2023-12-01 16:58:46.436286
2736  2023-12-01 16:58:46.484287
2737  2023-12-01 16:58:46.516202
2738  2023-12-01 16:58:46.564074
2739  2023-12-01 16:58:46.595993
2740  2023-12-01 16:58:46.642829
2741  2023-12-01 16:58:46.689705
2742  2023-12-01 16:58:46.734618
2743  2023-12-01 16:58:46.766528
2744  2023-12-01 16:58:46.815369
2745  2023-12-01 16:58:46.846333
2746  2023-12-01 16:58:46.895200
2747  2023-12-01 16:58:46.942061
2748  2023-12-01 16:58:46.973975
2749  2023-12-01 16:58:47.022848
2750  2023-12-01 16:58:47.053780
2751  2023-12-01 16:58:47.099665
2752  2023-12-01 16:58:47.147520
2753  2023-12-01 16:58:47.179428
2754  2023-12-01 16:58:47.227298
2755  2023-12-01 16:58:47.275188
2756  2023-12-01 16:58:47.307084
2757  2023-12-01 16:58:47.354959
2758  2023-12-01 16:58:47.402832
2759  2023-12-01 16:58:47.434747
2760  2023-12-01 16:58:47.482624
2761  2023-12-01 16:58:47.514535
2762  2023-12-01 16:58:47.561423
2763  2023-12-01 16:58:47.610441
2764  2023-12-01 16:58:47.640327
2765  2023-12-01 16:58:47.688240
2766  2023-12-01 16:58:47.720144
2767  2023-12-01 16:58:47.766023
2768  2023-12-01 16:58:47.813894
2769  2023-12-01 16:58:47.845815
2770  2023-12-01 16:58:47.893684
2771  2023-12-01 16:58:47.941522
2772  2023-12-01 16:58:47.972578
2773  2023-12-01 16:58:48.019455
2774  2023-12-01 16:58:48.067336
2775  2023-12-01 16:58:48.099290
2776  2023-12-01 16:58:48.147206
2777  2023-12-01 16:58:48.179122
2778  2023-12-01 16:58:48.226946
2779  2023-12-01 16:58:48.274816
2780  2023-12-01 16:58:48.306538
2781  2023-12-01 16:58:48.354412
2782  2023-12-01 16:58:48.401317
2783  2023-12-01 16:58:48.433232
2784  2023-12-01 16:58:48.481149
2785  2023-12-01 16:58:48.512066
2786  2023-12-01 16:58:48.557975
2787  2023-12-01 16:58:48.604850
2788  2023-12-01 16:58:48.636733
2789  2023-12-01 16:58:48.684639
2790  2023-12-01 16:58:48.732610
2791  2023-12-01 16:58:48.764392
2792  2023-12-01 16:58:48.812297
2793  2023-12-01 16:58:48.861180
2794  2023-12-01 16:58:48.893085
2795  2023-12-01 16:58:48.938115
2796  2023-12-01 16:58:48.983997
2797  2023-12-01 16:58:49.014912
2798  2023-12-01 16:58:49.061787
2799  2023-12-01 16:58:49.109626
2800  2023-12-01 16:58:49.141585
2801  2023-12-01 16:58:49.189489
2802  2023-12-01 16:58:49.221405
2803  2023-12-01 16:58:49.267249
2804  2023-12-01 16:58:49.315123
2805  2023-12-01 16:58:49.347041
2806  2023-12-01 16:58:49.394938
2807  2023-12-01 16:58:49.442780
2808  2023-12-01 16:58:49.474695
2809  2023-12-01 16:58:49.521604
2810  2023-12-01 16:58:49.568480
2811  2023-12-01 16:58:49.600399
2812  2023-12-01 16:58:49.646257
2813  2023-12-01 16:58:49.693113
2814  2023-12-01 16:58:49.724030
2815  2023-12-01 16:58:49.771932
2816  2023-12-01 16:58:49.803816
2817  2023-12-01 16:58:49.852728
2818  2023-12-01 16:58:49.900591
2819  2023-12-01 16:58:49.932503
2820  2023-12-01 16:58:49.979378
2821  2023-12-01 16:58:50.026263
2822  2023-12-01 16:58:50.058168
2823  2023-12-01 16:58:50.106054
2824  2023-12-01 16:58:50.152070
2825  2023-12-01 16:58:50.182980
2826  2023-12-01 16:58:50.230818
2827  2023-12-01 16:58:50.261767
2828  2023-12-01 16:58:50.308610
2829  2023-12-01 16:58:50.356482
2830  2023-12-01 16:58:50.388447
2831  2023-12-01 16:58:50.436269
2832  2023-12-01 16:58:50.483186
2833  2023-12-01 16:58:50.514093
2834  2023-12-01 16:58:50.560967
2835  2023-12-01 16:58:50.608841
2836  2023-12-01 16:58:50.640723
2837  2023-12-01 16:58:50.688611
2838  2023-12-01 16:58:50.720509
2839  2023-12-01 16:58:50.768382
2840  2023-12-01 16:58:50.816255
2841  2023-12-01 16:58:50.848169
2842  2023-12-01 16:58:50.894046
2843  2023-12-01 16:58:50.941918
2844  2023-12-01 16:58:50.972835
2845  2023-12-01 16:58:51.019711
2846  2023-12-01 16:58:51.065588
2847  2023-12-01 16:58:51.097502
2848  2023-12-01 16:58:51.145374
2849  2023-12-01 16:58:51.191252
2850  2023-12-01 16:58:51.223167
2851  2023-12-01 16:58:51.270040
2852  2023-12-01 16:58:51.316947
2853  2023-12-01 16:58:51.348857
2854  2023-12-01 16:58:51.396735
2855  2023-12-01 16:58:51.428297
2856  2023-12-01 16:58:51.476124
2857  2023-12-01 16:58:51.523035
2858  2023-12-01 16:58:51.553958
2859  2023-12-01 16:58:51.601870
2860  2023-12-01 16:58:51.649784
2861  2023-12-01 16:58:51.681657
2862  2023-12-01 16:58:51.729564
2863  2023-12-01 16:58:51.775536
2864  2023-12-01 16:58:51.807450
2865  2023-12-01 16:58:51.855329
2866  2023-12-01 16:58:51.887240
2867  2023-12-01 16:58:51.935112
2868  2023-12-01 16:58:51.981954
2869  2023-12-01 16:58:52.012907
2870  2023-12-01 16:58:52.059780
2871  2023-12-01 16:58:52.105657
2872  2023-12-01 16:58:52.137590
2873  2023-12-01 16:58:52.185444
2874  2023-12-01 16:58:52.233312
2875  2023-12-01 16:58:52.265237
2876  2023-12-01 16:58:52.313098
2877  2023-12-01 16:58:52.360971
2878  2023-12-01 16:58:52.392898
2879  2023-12-01 16:58:52.440762
2880  2023-12-01 16:58:52.484645
2881  2023-12-01 16:58:52.515564
2882  2023-12-01 16:58:52.563405
2883  2023-12-01 16:58:52.609334
2884  2023-12-01 16:58:52.641190
2885  2023-12-01 16:58:52.689092
2886  2023-12-01 16:58:52.721070
2887  2023-12-01 16:58:52.768883
2888  2023-12-01 16:58:52.816760
2889  2023-12-01 16:58:52.848636
2890  2023-12-01 16:58:52.896546
2891  2023-12-01 16:58:52.942520
2892  2023-12-01 16:58:52.974579
2893  2023-12-01 16:58:53.022419
2894  2023-12-01 16:58:53.054341
2895  2023-12-01 16:58:53.102240
2896  2023-12-01 16:58:53.150106
2897  2023-12-01 16:58:53.181991
2898  2023-12-01 16:58:53.229911
2899  2023-12-01 16:58:53.261834
2900  2023-12-01 16:58:53.307780
2901  2023-12-01 16:58:53.355721
2902  2023-12-01 16:58:53.387634
2903  2023-12-01 16:58:53.435509
2904  2023-12-01 16:58:53.483391
2905  2023-12-01 16:58:53.515291
2906  2023-12-01 16:58:53.563131
2907  2023-12-01 16:58:53.595091
2908  2023-12-01 16:58:53.642953
2909  2023-12-01 16:58:53.690822
2910  2023-12-01 16:58:53.722742
2911  2023-12-01 16:58:53.770616
2912  2023-12-01 16:58:53.818484
2913  2023-12-01 16:58:53.850392
2914  2023-12-01 16:58:53.896271
2915  2023-12-01 16:58:53.944144
2916  2023-12-01 16:58:53.974032
2917  2023-12-01 16:58:54.020937
2918  2023-12-01 16:58:54.068778
2919  2023-12-01 16:58:54.100843
2920  2023-12-01 16:58:54.148610
2921  2023-12-01 16:58:54.180514
2922  2023-12-01 16:58:54.228385
2923  2023-12-01 16:58:54.276224
2924  2023-12-01 16:58:54.308242
2925  2023-12-01 16:58:54.356189
2926  2023-12-01 16:58:54.388191
2927  2023-12-01 16:58:54.436060
2928  2023-12-01 16:58:54.483964
2929  2023-12-01 16:58:54.515879
2930  2023-12-01 16:58:54.563758
2931  2023-12-01 16:58:54.595666
2932  2023-12-01 16:58:54.641512
2933  2023-12-01 16:58:54.687422
2934  2023-12-01 16:58:54.735293
2935  2023-12-01 16:58:54.767207
2936  2023-12-01 16:58:54.815074
2937  2023-12-01 16:58:54.846995
2938  2023-12-01 16:58:54.894867
2939  2023-12-01 16:58:54.942705
2940  2023-12-01 16:58:54.973654
2941  2023-12-01 16:58:55.020501
2942  2023-12-01 16:58:55.066405
2943  2023-12-01 16:58:55.098326
2944  2023-12-01 16:58:55.146161
2945  2023-12-01 16:58:55.194036
2946  2023-12-01 16:58:55.223985
2947  2023-12-01 16:58:55.271860
2948  2023-12-01 16:58:55.303775
2949  2023-12-01 16:58:55.351662
2950  2023-12-01 16:58:55.399524
2951  2023-12-01 16:58:55.431432
2952  2023-12-01 16:58:55.479308
2953  2023-12-01 16:58:55.527180
2954  2023-12-01 16:58:55.556068
2955  2023-12-01 16:58:55.603937
2956  2023-12-01 16:58:55.651815
2957  2023-12-01 16:58:55.683761
2958  2023-12-01 16:58:55.731631
2959  2023-12-01 16:58:55.763548
2960  2023-12-01 16:58:55.811526
2961  2023-12-01 16:58:55.858290
2962  2023-12-01 16:58:55.890214
2963  2023-12-01 16:58:55.937047
2964  2023-12-01 16:58:55.984920
2965  2023-12-01 16:58:56.016835
2966  2023-12-01 16:58:56.064706
2967  2023-12-01 16:58:56.096623
2968  2023-12-01 16:58:56.144493
2969  2023-12-01 16:58:56.192403
2970  2023-12-01 16:58:56.224313
2971  2023-12-01 16:58:56.272153
2972  2023-12-01 16:58:56.304066
2973  2023-12-01 16:58:56.351941
2974  2023-12-01 16:58:56.398854
2975  2023-12-01 16:58:56.429730
2976  2023-12-01 16:58:56.477645
2977  2023-12-01 16:58:56.526513
2978  2023-12-01 16:58:56.556434
2979  2023-12-01 16:58:56.603369
2980  2023-12-01 16:58:56.651399
2981  2023-12-01 16:58:56.683316
2982  2023-12-01 16:58:56.731183
2983  2023-12-01 16:58:56.763099
2984  2023-12-01 16:58:56.809973
2985  2023-12-01 16:58:56.856850
2986  2023-12-01 16:58:56.888767
2987  2023-12-01 16:58:56.934641
2988  2023-12-01 16:58:56.982513
2989  2023-12-01 16:58:57.014428
2990  2023-12-01 16:58:57.060306
2991  2023-12-01 16:58:57.108145
2992  2023-12-01 16:58:57.140059
2993  2023-12-01 16:58:57.187964
2994  2023-12-01 16:58:57.219908
2995  2023-12-01 16:58:57.265723
2996  2023-12-01 16:58:57.313629
2997  2023-12-01 16:58:57.345543
2998  2023-12-01 16:58:57.393387
2999  2023-12-01 16:58:57.440257
3000  2023-12-01 16:58:57.471212
3001  2023-12-01 16:58:57.519087
3002  2023-12-01 16:58:57.566958
3003  2023-12-01 16:58:57.598869
3004  2023-12-01 16:58:57.646737
3005  2023-12-01 16:58:57.692614
3006  2023-12-01 16:58:57.724529
3007  2023-12-01 16:58:57.772407
3008  2023-12-01 16:58:57.804317
3009  2023-12-01 16:58:57.852156
3010  2023-12-01 16:58:57.900063
3011  2023-12-01 16:58:57.931972
3012  2023-12-01 16:58:57.979802
3013  2023-12-01 16:58:58.011682
3014  2023-12-01 16:58:58.059594
3015  2023-12-01 16:58:58.106460
3016  2023-12-01 16:58:58.138376
3017  2023-12-01 16:58:58.186249
3018  2023-12-01 16:58:58.234125
3019  2023-12-01 16:58:58.266032
3020  2023-12-01 16:58:58.313909
3021  2023-12-01 16:58:58.360783
3022  2023-12-01 16:58:58.392706
3023  2023-12-01 16:58:58.438541
3024  2023-12-01 16:58:58.486413
3025  2023-12-01 16:58:58.516383
3026  2023-12-01 16:58:58.563242
3027  2023-12-01 16:58:58.609085
3028  2023-12-01 16:58:58.640002
3029  2023-12-01 16:58:58.686878
3030  2023-12-01 16:58:58.734749
3031  2023-12-01 16:58:58.766699
3032  2023-12-01 16:58:58.815533
3033  2023-12-01 16:58:58.846491
3034  2023-12-01 16:58:58.892376
3035  2023-12-01 16:58:58.940233
3036  2023-12-01 16:58:58.972178
3037  2023-12-01 16:58:59.019986
3038  2023-12-01 16:58:59.067888
3039  2023-12-01 16:58:59.099804
3040  2023-12-01 16:58:59.145686
3041  2023-12-01 16:58:59.193562
3042  2023-12-01 16:58:59.224471
3043  2023-12-01 16:58:59.272349
3044  2023-12-01 16:58:59.304261
3045  2023-12-01 16:58:59.352268
3046  2023-12-01 16:58:59.400005
3047  2023-12-01 16:58:59.431920
3048  2023-12-01 16:58:59.481785
3049  2023-12-01 16:58:59.526658
3050  2023-12-01 16:58:59.557588
3051  2023-12-01 16:58:59.603440
3052  2023-12-01 16:58:59.651339
3053  2023-12-01 16:58:59.683214
3054  2023-12-01 16:58:59.731119
3055  2023-12-01 16:58:59.776962
3056  2023-12-01 16:58:59.808877
3057  2023-12-01 16:58:59.857748
3058  2023-12-01 16:58:59.887711
3059  2023-12-01 16:58:59.935538
3060  2023-12-01 16:58:59.984466
3061  2023-12-01 16:59:00.015325
3062  2023-12-01 16:59:00.063198
3063  2023-12-01 16:59:00.095294
3064  2023-12-01 16:59:00.142984
3065  2023-12-01 16:59:00.190729
3066  2023-12-01 16:59:00.222612
3067  2023-12-01 16:59:00.270554
3068  2023-12-01 16:59:00.318609
3069  2023-12-01 16:59:00.350538
3070  2023-12-01 16:59:00.397440
3071  2023-12-01 16:59:00.428332
3072  2023-12-01 16:59:00.476217
3073  2023-12-01 16:59:00.523099
3074  2023-12-01 16:59:00.554996
3075  2023-12-01 16:59:00.601869
3076  2023-12-01 16:59:00.648710
3077  2023-12-01 16:59:00.680660
3078  2023-12-01 16:59:00.728528
3079  2023-12-01 16:59:00.776369
3080  2023-12-01 16:59:00.808284
3081  2023-12-01 16:59:00.854290
3082  2023-12-01 16:59:00.901177
3083  2023-12-01 16:59:00.933830
3084  2023-12-01 16:59:00.977748
3085  2023-12-01 16:59:01.024656
3086  2023-12-01 16:59:01.054592
3087  2023-12-01 16:59:01.100529
3088  2023-12-01 16:59:01.146375
3089  2023-12-01 16:59:01.193502
3090  2023-12-01 16:59:01.225261
3091  2023-12-01 16:59:01.273137
3092  2023-12-01 16:59:01.305049
3093  2023-12-01 16:59:01.352922
3094  2023-12-01 16:59:01.399814
3095  2023-12-01 16:59:01.431712
3096  2023-12-01 16:59:01.478586
3097  2023-12-01 16:59:01.525430
3098  2023-12-01 16:59:01.555351
3099  2023-12-01 16:59:01.602222
3100  2023-12-01 16:59:01.650127
3101  2023-12-01 16:59:01.681046
3102  2023-12-01 16:59:01.729093
3103  2023-12-01 16:59:01.776756
3104  2023-12-01 16:59:01.808670
3105  2023-12-01 16:59:01.857541
3106  2023-12-01 16:59:01.888460
3107  2023-12-01 16:59:01.936329
3108  2023-12-01 16:59:01.983355
3109  2023-12-01 16:59:02.014166
3110  2023-12-01 16:59:02.061993
3111  2023-12-01 16:59:02.107900
3112  2023-12-01 16:59:02.139819
3113  2023-12-01 16:59:02.187699
3114  2023-12-01 16:59:02.234566
3115  2023-12-01 16:59:02.265481
3116  2023-12-01 16:59:02.311436
3117  2023-12-01 16:59:02.359312
3118  2023-12-01 16:59:02.391231
3119  2023-12-01 16:59:02.439096
3120  2023-12-01 16:59:02.471009
3121  2023-12-01 16:59:02.518889
3122  2023-12-01 16:59:02.566754
3123  2023-12-01 16:59:02.598666
3124  2023-12-01 16:59:02.645544
3125  2023-12-01 16:59:02.692417
3126  2023-12-01 16:59:02.724333
3127  2023-12-01 16:59:02.772204
3128  2023-12-01 16:59:02.805147
3129  2023-12-01 16:59:02.851960
3130  2023-12-01 16:59:02.900861
3131  2023-12-01 16:59:02.931893
3132  2023-12-01 16:59:02.979862
3133  2023-12-01 16:59:03.012722
3134  2023-12-01 16:59:03.060619
3135  2023-12-01 16:59:03.108512
3136  2023-12-01 16:59:03.137389
3137  2023-12-01 16:59:03.184266
3138  2023-12-01 16:59:03.232135
3139  2023-12-01 16:59:03.263208
3140  2023-12-01 16:59:03.309999
3141  2023-12-01 16:59:03.357841
3142  2023-12-01 16:59:03.387792
3143  2023-12-01 16:59:03.435321
3144  2023-12-01 16:59:03.481239
3145  2023-12-01 16:59:03.513190
3146  2023-12-01 16:59:03.560060
3147  2023-12-01 16:59:03.606903
3148  2023-12-01 16:59:03.638858
3149  2023-12-01 16:59:03.686727
3150  2023-12-01 16:59:03.734594
3151  2023-12-01 16:59:03.766514
3152  2023-12-01 16:59:03.813796
3153  2023-12-01 16:59:03.861681
3154  2023-12-01 16:59:03.888573
3155  2023-12-01 16:59:03.936443
3156  2023-12-01 16:59:03.984345
3157  2023-12-01 16:59:04.016232
3158  2023-12-01 16:59:04.064102
3159  2023-12-01 16:59:04.110127
3160  2023-12-01 16:59:04.142077
3161  2023-12-01 16:59:04.189944
3162  2023-12-01 16:59:04.221833
3163  2023-12-01 16:59:04.269701
3164  2023-12-01 16:59:04.316932
3165  2023-12-01 16:59:04.347883
3166  2023-12-01 16:59:04.395756
3167  2023-12-01 16:59:04.443594
3168  2023-12-01 16:59:04.474513
3169  2023-12-01 16:59:04.522418
3170  2023-12-01 16:59:04.554333
3171  2023-12-01 16:59:04.602201
3172  2023-12-01 16:59:04.649080
3173  2023-12-01 16:59:04.679962
3174  2023-12-01 16:59:04.727868
3175  2023-12-01 16:59:04.774746
3176  2023-12-01 16:59:04.805658
3177  2023-12-01 16:59:04.855555
3178  2023-12-01 16:59:04.899423
3179  2023-12-01 16:59:04.931321
3180  2023-12-01 16:59:04.979215
3181  2023-12-01 16:59:05.028081
3182  2023-12-01 16:59:05.059998
3183  2023-12-01 16:59:05.106872
3184  2023-12-01 16:59:05.136741
3185  2023-12-01 16:59:05.184628
3186  2023-12-01 16:59:05.229493
3187  2023-12-01 16:59:05.276368
3188  2023-12-01 16:59:05.307317
3189  2023-12-01 16:59:05.355188
3190  2023-12-01 16:59:05.387110
3191  2023-12-01 16:59:05.434982
3192  2023-12-01 16:59:05.480911
3193  2023-12-01 16:59:05.511864
3194  2023-12-01 16:59:05.558740
3195  2023-12-01 16:59:05.604612
3196  2023-12-01 16:59:05.651500
3197  2023-12-01 16:59:05.683416
3198  2023-12-01 16:59:05.730315
3199  2023-12-01 16:59:05.777252
3200  2023-12-01 16:59:05.808037
3201  2023-12-01 16:59:05.854912
3202  2023-12-01 16:59:05.886860
3203  2023-12-01 16:59:05.933701
3204  2023-12-01 16:59:05.981573
3205  2023-12-01 16:59:06.014625
3206  2023-12-01 16:59:06.060484
3207  2023-12-01 16:59:06.107353
3208  2023-12-01 16:59:06.139267
3209  2023-12-01 16:59:06.187245
3210  2023-12-01 16:59:06.235152
3211  2023-12-01 16:59:06.267106
3212  2023-12-01 16:59:06.315027
3213  2023-12-01 16:59:06.346976
3214  2023-12-01 16:59:06.394814
3215  2023-12-01 16:59:06.442686
3216  2023-12-01 16:59:06.474601
3217  2023-12-01 16:59:06.522544
3218  2023-12-01 16:59:06.554418
3219  2023-12-01 16:59:06.602324
3220  2023-12-01 16:59:06.650351
3221  2023-12-01 16:59:06.682281
3222  2023-12-01 16:59:06.729218
3223  2023-12-01 16:59:06.776162
3224  2023-12-01 16:59:06.808239
3225  2023-12-01 16:59:06.855133
3226  2023-12-01 16:59:06.901985
3227  2023-12-01 16:59:06.933915
3228  2023-12-01 16:59:06.980801
3229  2023-12-01 16:59:07.013684
3230  2023-12-01 16:59:07.059559
3231  2023-12-01 16:59:07.106432
3232  2023-12-01 16:59:07.138353
3233  2023-12-01 16:59:07.187267
3234  2023-12-01 16:59:07.234261
3235  2023-12-01 16:59:07.266159
3236  2023-12-01 16:59:07.314042
3237  2023-12-01 16:59:07.345946
3238  2023-12-01 16:59:07.391791
3239  2023-12-01 16:59:07.439668
3240  2023-12-01 16:59:07.471578
3241  2023-12-01 16:59:07.519450
3242  2023-12-01 16:59:07.567322
3243  2023-12-01 16:59:07.599237
3244  2023-12-01 16:59:07.647212
3245  2023-12-01 16:59:07.679126
3246  2023-12-01 16:59:07.726002
3247  2023-12-01 16:59:07.772913
3248  2023-12-01 16:59:07.803827
3249  2023-12-01 16:59:07.850704
3250  2023-12-01 16:59:07.898577
3251  2023-12-01 16:59:07.930448
3252  2023-12-01 16:59:07.978430
3253  2023-12-01 16:59:08.026313
3254  2023-12-01 16:59:08.058233
3255  2023-12-01 16:59:08.106090
3256  2023-12-01 16:59:08.138006
3257  2023-12-01 16:59:08.186146
3258  2023-12-01 16:59:08.233880
3259  2023-12-01 16:59:08.265796
3260  2023-12-01 16:59:08.313635
3261  2023-12-01 16:59:08.345583
3262  2023-12-01 16:59:08.393456
3263  2023-12-01 16:59:08.441294
3264  2023-12-01 16:59:08.473209
3265  2023-12-01 16:59:08.521081
3266  2023-12-01 16:59:08.567989
3267  2023-12-01 16:59:08.598911
3268  2023-12-01 16:59:08.646840
3269  2023-12-01 16:59:08.678620
3270  2023-12-01 16:59:08.726602
3271  2023-12-01 16:59:08.774516
3272  2023-12-01 16:59:08.806420
3273  2023-12-01 16:59:08.854262
3274  2023-12-01 16:59:08.900165
3275  2023-12-01 16:59:08.934095
3276  2023-12-01 16:59:08.979952
3277  2023-12-01 16:59:09.011889
3278  2023-12-01 16:59:09.061742
3279  2023-12-01 16:59:09.107766
3280  2023-12-01 16:59:09.139683
3281  2023-12-01 16:59:09.187569
3282  2023-12-01 16:59:09.234426
3283  2023-12-01 16:59:09.265347
3284  2023-12-01 16:59:09.313215
3285  2023-12-01 16:59:09.345131
3286  2023-12-01 16:59:09.392117
3287  2023-12-01 16:59:09.439073
3288  2023-12-01 16:59:09.471130
3289  2023-12-01 16:59:09.518860
3290  2023-12-01 16:59:09.566801
3291  2023-12-01 16:59:09.598716
3292  2023-12-01 16:59:09.646589
3293  2023-12-01 16:59:09.694583
3294  2023-12-01 16:59:09.724501
3295  2023-12-01 16:59:09.772373
3296  2023-12-01 16:59:09.804323
3297  2023-12-01 16:59:09.851163
3298  2023-12-01 16:59:09.899072
3299  2023-12-01 16:59:09.930984
3300  2023-12-01 16:59:09.977871
3301  2023-12-01 16:59:10.023730
3302  2023-12-01 16:59:10.055626
3303  2023-12-01 16:59:10.102522
3304  2023-12-01 16:59:10.150370
3305  2023-12-01 16:59:10.182320
3306  2023-12-01 16:59:10.230338
3307  2023-12-01 16:59:10.262253
3308  2023-12-01 16:59:10.310133
3309  2023-12-01 16:59:10.357995
3310  2023-12-01 16:59:10.388922
3311  2023-12-01 16:59:10.435885
3312  2023-12-01 16:59:10.483910
3313  2023-12-01 16:59:10.515822
3314  2023-12-01 16:59:10.565689
3315  2023-12-01 16:59:10.595576
3316  2023-12-01 16:59:10.643494
3317  2023-12-01 16:59:10.693364
3318  2023-12-01 16:59:10.723271
3319  2023-12-01 16:59:10.769143
3320  2023-12-01 16:59:10.817019
3321  2023-12-01 16:59:10.848932
3322  2023-12-01 16:59:10.896769
3323  2023-12-01 16:59:10.929684
3324  2023-12-01 16:59:10.976582
3325  2023-12-01 16:59:11.025464
3326  2023-12-01 16:59:11.057399
3327  2023-12-01 16:59:11.101304
3328  2023-12-01 16:59:11.149179
3329  2023-12-01 16:59:11.180096
3330  2023-12-01 16:59:11.226011
3331  2023-12-01 16:59:11.272848
3332  2023-12-01 16:59:11.304797
3333  2023-12-01 16:59:11.352726
3334  2023-12-01 16:59:11.400639
3335  2023-12-01 16:59:11.432544
3336  2023-12-01 16:59:11.480415
3337  2023-12-01 16:59:11.512299
3338  2023-12-01 16:59:11.560206
3339  2023-12-01 16:59:11.608078
3340  2023-12-01 16:59:11.639999
3341  2023-12-01 16:59:11.687865
3342  2023-12-01 16:59:11.734770
3343  2023-12-01 16:59:11.765729
3344  2023-12-01 16:59:11.812585
3345  2023-12-01 16:59:11.858466
3346  2023-12-01 16:59:11.890342
3347  2023-12-01 16:59:11.937448
3348  2023-12-01 16:59:11.985292
3349  2023-12-01 16:59:12.018202
3350  2023-12-01 16:59:12.065106
3351  2023-12-01 16:59:12.097050
3352  2023-12-01 16:59:12.143906
3353  2023-12-01 16:59:12.192927
3354  2023-12-01 16:59:12.225789
3355  2023-12-01 16:59:12.272688
3356  2023-12-01 16:59:12.320564
3357  2023-12-01 16:59:12.350496
3358  2023-12-01 16:59:12.396475
3359  2023-12-01 16:59:12.428390
3360  2023-12-01 16:59:12.476262
3361  2023-12-01 16:59:12.524134
3362  2023-12-01 16:59:12.556048
3363  2023-12-01 16:59:12.603966
3364  2023-12-01 16:59:12.651792
3365  2023-12-01 16:59:12.683707
3366  2023-12-01 16:59:12.731401
3367  2023-12-01 16:59:12.763429
3368  2023-12-01 16:59:12.811268
3369  2023-12-01 16:59:12.859140
3370  2023-12-01 16:59:12.891067
3371  2023-12-01 16:59:12.938959
3372  2023-12-01 16:59:12.970872
3373  2023-12-01 16:59:13.017716
3374  2023-12-01 16:59:13.064593
3375  2023-12-01 16:59:13.095552
3376  2023-12-01 16:59:13.142383
3377  2023-12-01 16:59:13.190292
3378  2023-12-01 16:59:13.221204
3379  2023-12-01 16:59:13.268081
3380  2023-12-01 16:59:13.315962
3381  2023-12-01 16:59:13.346872
3382  2023-12-01 16:59:13.396739
3383  2023-12-01 16:59:13.442613
3384  2023-12-01 16:59:13.474530
3385  2023-12-01 16:59:13.524364
3386  2023-12-01 16:59:13.554336
3387  2023-12-01 16:59:13.602154
3388  2023-12-01 16:59:13.652060
3389  2023-12-01 16:59:13.682992
3390  2023-12-01 16:59:13.731861
3391  2023-12-01 16:59:13.762768
3392  2023-12-01 16:59:13.810641
3393  2023-12-01 16:59:13.855509
3394  2023-12-01 16:59:13.901354
3395  2023-12-01 16:59:13.932364
3396  2023-12-01 16:59:13.979312
3397  2023-12-01 16:59:14.026228
3398  2023-12-01 16:59:14.058102
3399  2023-12-01 16:59:14.105013
3400  2023-12-01 16:59:14.151851
3401  2023-12-01 16:59:14.183766
3402  2023-12-01 16:59:14.231671
3403  2023-12-01 16:59:14.263325
3404  2023-12-01 16:59:14.309200
3405  2023-12-01 16:59:14.357074
3406  2023-12-01 16:59:14.388993
3407  2023-12-01 16:59:14.436855
3408  2023-12-01 16:59:14.484732
3409  2023-12-01 16:59:14.516648
3410  2023-12-01 16:59:14.564484
3411  2023-12-01 16:59:14.596560
3412  2023-12-01 16:59:14.644466
3413  2023-12-01 16:59:14.692303
3414  2023-12-01 16:59:14.723268
3415  2023-12-01 16:59:14.770098
3416  2023-12-01 16:59:14.818004
3417  2023-12-01 16:59:14.849934
3418  2023-12-01 16:59:14.897789
3419  2023-12-01 16:59:14.930719
3420  2023-12-01 16:59:14.977807
3421  2023-12-01 16:59:15.023530
3422  2023-12-01 16:59:15.055480
3423  2023-12-01 16:59:15.099356
3424  2023-12-01 16:59:15.147199
3425  2023-12-01 16:59:15.179112
3426  2023-12-01 16:59:15.226984
3427  2023-12-01 16:59:15.273859
3428  2023-12-01 16:59:15.304818
3429  2023-12-01 16:59:15.350688
3430  2023-12-01 16:59:15.398569
3431  2023-12-01 16:59:15.430441
3432  2023-12-01 16:59:15.478344
3433  2023-12-01 16:59:15.526329
3434  2023-12-01 16:59:15.558099
3435  2023-12-01 16:59:15.604007
3436  2023-12-01 16:59:15.650887
3437  2023-12-01 16:59:15.682886
3438  2023-12-01 16:59:15.730752
3439  2023-12-01 16:59:15.762628
3440  2023-12-01 16:59:15.810500
3441  2023-12-01 16:59:15.857375
3442  2023-12-01 16:59:15.888344
3443  2023-12-01 16:59:15.935201
3444  2023-12-01 16:59:15.983039
3445  2023-12-01 16:59:16.014992
3446  2023-12-01 16:59:16.065003
3447  2023-12-01 16:59:16.096024
3448  2023-12-01 16:59:16.142903
3449  2023-12-01 16:59:16.187777
3450  2023-12-01 16:59:16.234689
3451  2023-12-01 16:59:16.266567
3452  2023-12-01 16:59:16.312444
3453  2023-12-01 16:59:16.360371
3454  2023-12-01 16:59:16.392263
3455  2023-12-01 16:59:16.439582
3456  2023-12-01 16:59:16.471436
3457  2023-12-01 16:59:16.519372
3458  2023-12-01 16:59:16.566302
3459  2023-12-01 16:59:16.597183
3460  2023-12-01 16:59:16.645085
3461  2023-12-01 16:59:16.692972
3462  2023-12-01 16:59:16.725847
3463  2023-12-01 16:59:16.772714
3464  2023-12-01 16:59:16.804670
3465  2023-12-01 16:59:16.852531
3466  2023-12-01 16:59:16.900405
3467  2023-12-01 16:59:16.932322
3468  2023-12-01 16:59:16.980189
3469  2023-12-01 16:59:17.012106
3470  2023-12-01 16:59:17.060100
3471  2023-12-01 16:59:17.107972
3472  2023-12-01 16:59:17.138888
3473  2023-12-01 16:59:17.185787
3474  2023-12-01 16:59:17.233636
3475  2023-12-01 16:59:17.266515
3476  2023-12-01 16:59:17.312446
3477  2023-12-01 16:59:17.358317
3478  2023-12-01 16:59:17.390231
3479  2023-12-01 16:59:17.438055
3480  2023-12-01 16:59:17.482934
3481  2023-12-01 16:59:17.513851
3482  2023-12-01 16:59:17.561760
3483  2023-12-01 16:59:17.607601
3484  2023-12-01 16:59:17.639555
3485  2023-12-01 16:59:17.687388
3486  2023-12-01 16:59:17.735293
3487  2023-12-01 16:59:17.766211
3488  2023-12-01 16:59:17.814049
3489  2023-12-01 16:59:17.846002
3490  2023-12-01 16:59:17.893868
3491  2023-12-01 16:59:17.941707
3492  2023-12-01 16:59:17.973622
3493  2023-12-01 16:59:18.021529
3494  2023-12-01 16:59:18.053449
3495  2023-12-01 16:59:18.101313
3496  2023-12-01 16:59:18.147204
3497  2023-12-01 16:59:18.179107
3498  2023-12-01 16:59:18.226982
3499  2023-12-01 16:59:18.274851
3500  2023-12-01 16:59:18.306770
3501  2023-12-01 16:59:18.354637
3502  2023-12-01 16:59:18.400524
3503  2023-12-01 16:59:18.429439
3504  2023-12-01 16:59:18.477436
3505  2023-12-01 16:59:18.525280
3506  2023-12-01 16:59:18.558228
3507  2023-12-01 16:59:18.605097
3508  2023-12-01 16:59:18.653118
3509  2023-12-01 16:59:18.685053
3510  2023-12-01 16:59:18.733909
3511  2023-12-01 16:59:18.761824
3512  2023-12-01 16:59:18.807667
3513  2023-12-01 16:59:18.854583
3514  2023-12-01 16:59:18.900748
3515  2023-12-01 16:59:18.932664
3516  2023-12-01 16:59:18.980502
3517  2023-12-01 16:59:19.012416
3518  2023-12-01 16:59:19.060297
3519  2023-12-01 16:59:19.106167
3520  2023-12-01 16:59:19.137118
3521  2023-12-01 16:59:19.183992
3522  2023-12-01 16:59:19.229041
3523  2023-12-01 16:59:19.276911
3524  2023-12-01 16:59:19.308827
3525  2023-12-01 16:59:19.356701
3526  2023-12-01 16:59:19.389578
3527  2023-12-01 16:59:19.437481
3528  2023-12-01 16:59:19.485346
3529  2023-12-01 16:59:19.517262
3530  2023-12-01 16:59:19.565139
3531  2023-12-01 16:59:19.597055
3532  2023-12-01 16:59:19.644967
3533  2023-12-01 16:59:19.692793
3534  2023-12-01 16:59:19.724708
3535  2023-12-01 16:59:19.772585
3536  2023-12-01 16:59:19.818584
3537  2023-12-01 16:59:19.849501
3538  2023-12-01 16:59:19.897572
3539  2023-12-01 16:59:19.929482
3540  2023-12-01 16:59:19.977324
3541  2023-12-01 16:59:20.025196
3542  2023-12-01 16:59:20.057182
3543  2023-12-01 16:59:20.105142
3544  2023-12-01 16:59:20.137063
3545  2023-12-01 16:59:20.184896
3546  2023-12-01 16:59:20.232804
3547  2023-12-01 16:59:20.262725
3548  2023-12-01 16:59:20.308602
3549  2023-12-01 16:59:20.356488
3550  2023-12-01 16:59:20.388354
3551  2023-12-01 16:59:20.435229
3552  2023-12-01 16:59:20.482131
3553  2023-12-01 16:59:20.514056
3554  2023-12-01 16:59:20.560893
3555  2023-12-01 16:59:20.608800
3556  2023-12-01 16:59:20.640718
3557  2023-12-01 16:59:20.688605
3558  2023-12-01 16:59:20.720518
3559  2023-12-01 16:59:20.768486
3560  2023-12-01 16:59:20.816516
3561  2023-12-01 16:59:20.847540
