
1  2023-12-01 11:43:28.916814
2  2023-12-01 11:43:28.948565
3  2023-12-01 11:43:28.995270
4  2023-12-01 11:43:29.043060
5  2023-12-01 11:43:29.074115
6  2023-12-01 11:43:29.121450
7  2023-12-01 11:43:29.168506
8  2023-12-01 11:43:29.198178
9  2023-12-01 11:43:29.245119
10  2023-12-01 11:43:29.292558
11  2023-12-01 11:43:29.322804
12  2023-12-01 11:43:29.370524
13  2023-12-01 11:43:29.418622
14  2023-12-01 11:43:29.448538
15  2023-12-01 11:43:29.495591
16  2023-12-01 11:43:29.540014
17  2023-12-01 11:43:29.586478
18  2023-12-01 11:43:29.618416
19  2023-12-01 11:43:29.665091
20  2023-12-01 11:43:29.697304
21  2023-12-01 11:43:29.743782
22  2023-12-01 11:43:29.790119
23  2023-12-01 11:43:29.822024
24  2023-12-01 11:43:29.869756
25  2023-12-01 11:43:29.917674
26  2023-12-01 11:43:29.949589
27  2023-12-01 11:43:29.996952
28  2023-12-01 11:43:30.042967
29  2023-12-01 11:43:30.074589
30  2023-12-01 11:43:30.122618
31  2023-12-01 11:43:30.169524
32  2023-12-01 11:43:30.199564
33  2023-12-01 11:43:30.244871
34  2023-12-01 11:43:30.290786
35  2023-12-01 11:43:30.336328
36  2023-12-01 11:43:30.367375
37  2023-12-01 11:43:30.414681
38  2023-12-01 11:43:30.461042
39  2023-12-01 11:43:30.492441
40  2023-12-01 11:43:30.538527
41  2023-12-01 11:43:30.586599
42  2023-12-01 11:43:30.616715
43  2023-12-01 11:43:30.664527
44  2023-12-01 11:43:30.709592
45  2023-12-01 11:43:30.741190
46  2023-12-01 11:43:30.786816
47  2023-12-01 11:43:30.832757
48  2023-12-01 11:43:30.864187
49  2023-12-01 11:43:30.911515
50  2023-12-01 11:43:30.957623
51  2023-12-01 11:43:30.988927
52  2023-12-01 11:43:31.035767
53  2023-12-01 11:43:31.081540
54  2023-12-01 11:43:31.128336
55  2023-12-01 11:43:31.159647
56  2023-12-01 11:43:31.207061
57  2023-12-01 11:43:31.252548
58  2023-12-01 11:43:31.284898
59  2023-12-01 11:43:31.332570
60  2023-12-01 11:43:31.377828
61  2023-12-01 11:43:31.408996
62  2023-12-01 11:43:31.455857
63  2023-12-01 11:43:31.502098
64  2023-12-01 11:43:31.532834
65  2023-12-01 11:43:31.579546
66  2023-12-01 11:43:31.627135
67  2023-12-01 11:43:31.657604
68  2023-12-01 11:43:31.704525
69  2023-12-01 11:43:31.750915
70  2023-12-01 11:43:31.781879
71  2023-12-01 11:43:31.827729
72  2023-12-01 11:43:31.873995
73  2023-12-01 11:43:31.919419
74  2023-12-01 11:43:31.951494
75  2023-12-01 11:43:31.998563
76  2023-12-01 11:43:32.043971
77  2023-12-01 11:43:32.075334
78  2023-12-01 11:43:32.121997
79  2023-12-01 11:43:32.168722
80  2023-12-01 11:43:32.199816
81  2023-12-01 11:43:32.246051
82  2023-12-01 11:43:32.293773
83  2023-12-01 11:43:32.324888
84  2023-12-01 11:43:32.371704
85  2023-12-01 11:43:32.418518
86  2023-12-01 11:43:32.450265
87  2023-12-01 11:43:32.495980
88  2023-12-01 11:43:32.542718
89  2023-12-01 11:43:32.574701
90  2023-12-01 11:43:32.621368
91  2023-12-01 11:43:32.668512
92  2023-12-01 11:43:32.698908
93  2023-12-01 11:43:32.744878
94  2023-12-01 11:43:32.792417
95  2023-12-01 11:43:32.822560
96  2023-12-01 11:43:32.870567
97  2023-12-01 11:43:32.916930
98  2023-12-01 11:43:32.948669
99  2023-12-01 11:43:32.997407
100  2023-12-01 11:43:33.042468
101  2023-12-01 11:43:33.073123
102  2023-12-01 11:43:33.120073
103  2023-12-01 11:43:33.166772
104  2023-12-01 11:43:33.197442
105  2023-12-01 11:43:33.244570
106  2023-12-01 11:43:33.291482
107  2023-12-01 11:43:33.321659
108  2023-12-01 11:43:33.368503
109  2023-12-01 11:43:33.414343
110  2023-12-01 11:43:33.461542
111  2023-12-01 11:43:33.491770
112  2023-12-01 11:43:33.538179
113  2023-12-01 11:43:33.584844
114  2023-12-01 11:43:33.615472
115  2023-12-01 11:43:33.663192
116  2023-12-01 11:43:33.710204
117  2023-12-01 11:43:33.740988
118  2023-12-01 11:43:33.788508
119  2023-12-01 11:43:33.836683
120  2023-12-01 11:43:33.868542
121  2023-12-01 11:43:33.915386
122  2023-12-01 11:43:33.947398
123  2023-12-01 11:43:33.994185
124  2023-12-01 11:43:34.040263
125  2023-12-01 11:43:34.071693
126  2023-12-01 11:43:34.118805
127  2023-12-01 11:43:34.164789
128  2023-12-01 11:43:34.211641
129  2023-12-01 11:43:34.242881
130  2023-12-01 11:43:34.288620
131  2023-12-01 11:43:34.334419
132  2023-12-01 11:43:34.365076
133  2023-12-01 11:43:34.412589
134  2023-12-01 11:43:34.461604
135  2023-12-01 11:43:34.492447
136  2023-12-01 11:43:34.537851
137  2023-12-01 11:43:34.584226
138  2023-12-01 11:43:34.614852
139  2023-12-01 11:43:34.660775
140  2023-12-01 11:43:34.708508
141  2023-12-01 11:43:34.739119
142  2023-12-01 11:43:34.786288
143  2023-12-01 11:43:34.831848
144  2023-12-01 11:43:34.878402
145  2023-12-01 11:43:34.909957
146  2023-12-01 11:43:34.956516
147  2023-12-01 11:43:34.988142
148  2023-12-01 11:43:35.035779
149  2023-12-01 11:43:35.082540
150  2023-12-01 11:43:35.113363
151  2023-12-01 11:43:35.159535
152  2023-12-01 11:43:35.205801
153  2023-12-01 11:43:35.252586
154  2023-12-01 11:43:35.284139
155  2023-12-01 11:43:35.329325
156  2023-12-01 11:43:35.375503
157  2023-12-01 11:43:35.406538
158  2023-12-01 11:43:35.454212
159  2023-12-01 11:43:35.501033
160  2023-12-01 11:43:35.531630
161  2023-12-01 11:43:35.577893
162  2023-12-01 11:43:35.624253
163  2023-12-01 11:43:35.654746
164  2023-12-01 11:43:35.701391
165  2023-12-01 11:43:35.747591
166  2023-12-01 11:43:35.794174
167  2023-12-01 11:43:35.824951
168  2023-12-01 11:43:35.871524
169  2023-12-01 11:43:35.918184
170  2023-12-01 11:43:35.949583
171  2023-12-01 11:43:35.995540
172  2023-12-01 11:43:36.042810
173  2023-12-01 11:43:36.075545
174  2023-12-01 11:43:36.122658
175  2023-12-01 11:43:36.170520
176  2023-12-01 11:43:36.201709
177  2023-12-01 11:43:36.247656
178  2023-12-01 11:43:36.293545
179  2023-12-01 11:43:36.324542
180  2023-12-01 11:43:36.371450
181  2023-12-01 11:43:36.419237
182  2023-12-01 11:43:36.449462
183  2023-12-01 11:43:36.496907
184  2023-12-01 11:43:36.543810
185  2023-12-01 11:43:36.574967
186  2023-12-01 11:43:36.620913
187  2023-12-01 11:43:36.667516
188  2023-12-01 11:43:36.699204
189  2023-12-01 11:43:36.745103
190  2023-12-01 11:43:36.792045
191  2023-12-01 11:43:36.822639
192  2023-12-01 11:43:36.868578
193  2023-12-01 11:43:36.914519
194  2023-12-01 11:43:36.961937
195  2023-12-01 11:43:36.992100
196  2023-12-01 11:43:37.038844
197  2023-12-01 11:43:37.085354
198  2023-12-01 11:43:37.116610
199  2023-12-01 11:43:37.164878
200  2023-12-01 11:43:37.210547
201  2023-12-01 11:43:37.242497
202  2023-12-01 11:43:37.291540
203  2023-12-01 11:43:37.321948
204  2023-12-01 11:43:37.367626
205  2023-12-01 11:43:37.413765
206  2023-12-01 11:43:37.461643
207  2023-12-01 11:43:37.492893
208  2023-12-01 11:43:37.538533
209  2023-12-01 11:43:37.585320
210  2023-12-01 11:43:37.615680
211  2023-12-01 11:43:37.662507
212  2023-12-01 11:43:37.709585
213  2023-12-01 11:43:37.740333
214  2023-12-01 11:43:37.787045
215  2023-12-01 11:43:37.832881
216  2023-12-01 11:43:37.863554
217  2023-12-01 11:43:37.910200
218  2023-12-01 11:43:37.956707
219  2023-12-01 11:43:38.002619
220  2023-12-01 11:43:38.034426
221  2023-12-01 11:43:38.081196
222  2023-12-01 11:43:38.126658
223  2023-12-01 11:43:38.157724
224  2023-12-01 11:43:38.203484
225  2023-12-01 11:43:38.250869
226  2023-12-01 11:43:38.282778
227  2023-12-01 11:43:38.328533
228  2023-12-01 11:43:38.373928
229  2023-12-01 11:43:38.405639
230  2023-12-01 11:43:38.452841
231  2023-12-01 11:43:38.499200
232  2023-12-01 11:43:38.530317
233  2023-12-01 11:43:38.577093
234  2023-12-01 11:43:38.623643
235  2023-12-01 11:43:38.669529
236  2023-12-01 11:43:38.700550
237  2023-12-01 11:43:38.747023
238  2023-12-01 11:43:38.793625
239  2023-12-01 11:43:38.823933
240  2023-12-01 11:43:38.871541
241  2023-12-01 11:43:38.918714
242  2023-12-01 11:43:38.950607
243  2023-12-01 11:43:38.997544
244  2023-12-01 11:43:39.042772
245  2023-12-01 11:43:39.074492
246  2023-12-01 11:43:39.120931
247  2023-12-01 11:43:39.166535
248  2023-12-01 11:43:39.197623
249  2023-12-01 11:43:39.244580
250  2023-12-01 11:43:39.290535
251  2023-12-01 11:43:39.322529
252  2023-12-01 11:43:39.369527
253  2023-12-01 11:43:39.415079
254  2023-12-01 11:43:39.447067
255  2023-12-01 11:43:39.493596
256  2023-12-01 11:43:39.538510
257  2023-12-01 11:43:39.584943
258  2023-12-01 11:43:39.616931
259  2023-12-01 11:43:39.662684
260  2023-12-01 11:43:39.708522
261  2023-12-01 11:43:39.740518
262  2023-12-01 11:43:39.786654
263  2023-12-01 11:43:39.834935
264  2023-12-01 11:43:39.864624
265  2023-12-01 11:43:39.911796
266  2023-12-01 11:43:39.957609
267  2023-12-01 11:43:39.988681
268  2023-12-01 11:43:40.035443
269  2023-12-01 11:43:40.083426
270  2023-12-01 11:43:40.114526
271  2023-12-01 11:43:40.162122
272  2023-12-01 11:43:40.207736
273  2023-12-01 11:43:40.238950
274  2023-12-01 11:43:40.285459
275  2023-12-01 11:43:40.332281
276  2023-12-01 11:43:40.363256
277  2023-12-01 11:43:40.410020
278  2023-12-01 11:43:40.456690
279  2023-12-01 11:43:40.488584
280  2023-12-01 11:43:40.535600
281  2023-12-01 11:43:40.581275
282  2023-12-01 11:43:40.627972
283  2023-12-01 11:43:40.658898
284  2023-12-01 11:43:40.705548
285  2023-12-01 11:43:40.751623
286  2023-12-01 11:43:40.783181
287  2023-12-01 11:43:40.830308
288  2023-12-01 11:43:40.875605
289  2023-12-01 11:43:40.907765
290  2023-12-01 11:43:40.952670
291  2023-12-01 11:43:41.000528
292  2023-12-01 11:43:41.031952
293  2023-12-01 11:43:41.077620
294  2023-12-01 11:43:41.124366
295  2023-12-01 11:43:41.154716
296  2023-12-01 11:43:41.201833
297  2023-12-01 11:43:41.249437
298  2023-12-01 11:43:41.280031
299  2023-12-01 11:43:41.326944
300  2023-12-01 11:43:41.374518
301  2023-12-01 11:43:41.405515
302  2023-12-01 11:43:41.452461
303  2023-12-01 11:43:41.498624
304  2023-12-01 11:43:41.530968
305  2023-12-01 11:43:41.576547
306  2023-12-01 11:43:41.623136
307  2023-12-01 11:43:41.669541
308  2023-12-01 11:43:41.700603
309  2023-12-01 11:43:41.747922
310  2023-12-01 11:43:41.793550
311  2023-12-01 11:43:41.824682
312  2023-12-01 11:43:41.870663
313  2023-12-01 11:43:41.916389
314  2023-12-01 11:43:41.946871
315  2023-12-01 11:43:41.992727
316  2023-12-01 11:43:42.039536
317  2023-12-01 11:43:42.085551
318  2023-12-01 11:43:42.116767
319  2023-12-01 11:43:42.164576
320  2023-12-01 11:43:42.196770
321  2023-12-01 11:43:42.245004
322  2023-12-01 11:43:42.291142
323  2023-12-01 11:43:42.323082
324  2023-12-01 11:43:42.368365
325  2023-12-01 11:43:42.415323
326  2023-12-01 11:43:42.461295
327  2023-12-01 11:43:42.492151
328  2023-12-01 11:43:42.539533
329  2023-12-01 11:43:42.586582
330  2023-12-01 11:43:42.617717
331  2023-12-01 11:43:42.663549
332  2023-12-01 11:43:42.711570
333  2023-12-01 11:43:42.743559
334  2023-12-01 11:43:42.788791
335  2023-12-01 11:43:42.834867
336  2023-12-01 11:43:42.866131
337  2023-12-01 11:43:42.911992
338  2023-12-01 11:43:42.958404
339  2023-12-01 11:43:42.989735
340  2023-12-01 11:43:43.035521
341  2023-12-01 11:43:43.082347
342  2023-12-01 11:43:43.113342
343  2023-12-01 11:43:43.158972
344  2023-12-01 11:43:43.205374
345  2023-12-01 11:43:43.251252
346  2023-12-01 11:43:43.281418
347  2023-12-01 11:43:43.328018
348  2023-12-01 11:43:43.376001
349  2023-12-01 11:43:43.407255
350  2023-12-01 11:43:43.453209
351  2023-12-01 11:43:43.501144
352  2023-12-01 11:43:43.530137
353  2023-12-01 11:43:43.576551
354  2023-12-01 11:43:43.623204
355  2023-12-01 11:43:43.670540
356  2023-12-01 11:43:43.701738
357  2023-12-01 11:43:43.748638
358  2023-12-01 11:43:43.779820
359  2023-12-01 11:43:43.826415
360  2023-12-01 11:43:43.872786
361  2023-12-01 11:43:43.919681
362  2023-12-01 11:43:43.951159
363  2023-12-01 11:43:43.996436
364  2023-12-01 11:43:44.042831
365  2023-12-01 11:43:44.074528
366  2023-12-01 11:43:44.120627
367  2023-12-01 11:43:44.168353
368  2023-12-01 11:43:44.200532
369  2023-12-01 11:43:44.246152
370  2023-12-01 11:43:44.292610
371  2023-12-01 11:43:44.322845
372  2023-12-01 11:43:44.370089
373  2023-12-01 11:43:44.416204
374  2023-12-01 11:43:44.447602
375  2023-12-01 11:43:44.494760
376  2023-12-01 11:43:44.541071
377  2023-12-01 11:43:44.572923
378  2023-12-01 11:43:44.620453
379  2023-12-01 11:43:44.667513
380  2023-12-01 11:43:44.698553
381  2023-12-01 11:43:44.745576
382  2023-12-01 11:43:44.791729
383  2023-12-01 11:43:44.823276
384  2023-12-01 11:43:44.869582
385  2023-12-01 11:43:44.916795
386  2023-12-01 11:43:44.947711
387  2023-12-01 11:43:44.993628
388  2023-12-01 11:43:45.040796
389  2023-12-01 11:43:45.071455
390  2023-12-01 11:43:45.117582
391  2023-12-01 11:43:45.163830
392  2023-12-01 11:43:45.210698
393  2023-12-01 11:43:45.241658
394  2023-12-01 11:43:45.289502
395  2023-12-01 11:43:45.336007
396  2023-12-01 11:43:45.366536
397  2023-12-01 11:43:45.413577
398  2023-12-01 11:43:45.459207
399  2023-12-01 11:43:45.490866
400  2023-12-01 11:43:45.535641
401  2023-12-01 11:43:45.583078
402  2023-12-01 11:43:45.613652
403  2023-12-01 11:43:45.659619
404  2023-12-01 11:43:45.706533
405  2023-12-01 11:43:45.753434
406  2023-12-01 11:43:45.784085
407  2023-12-01 11:43:45.831029
408  2023-12-01 11:43:45.877066
409  2023-12-01 11:43:45.908575
410  2023-12-01 11:43:45.955232
411  2023-12-01 11:43:46.001656
412  2023-12-01 11:43:46.032199
413  2023-12-01 11:43:46.078614
414  2023-12-01 11:43:46.126131
415  2023-12-01 11:43:46.156599
416  2023-12-01 11:43:46.202814
417  2023-12-01 11:43:46.249072
418  2023-12-01 11:43:46.280129
419  2023-12-01 11:43:46.326948
420  2023-12-01 11:43:46.374772
421  2023-12-01 11:43:46.419402
422  2023-12-01 11:43:46.450579
423  2023-12-01 11:43:46.497417
424  2023-12-01 11:43:46.544108
425  2023-12-01 11:43:46.575511
426  2023-12-01 11:43:46.621811
427  2023-12-01 11:43:46.668705
428  2023-12-01 11:43:46.699542
429  2023-12-01 11:43:46.746951
430  2023-12-01 11:43:46.792993
431  2023-12-01 11:43:46.824001
432  2023-12-01 11:43:46.871579
433  2023-12-01 11:43:46.918577
434  2023-12-01 11:43:46.947756
435  2023-12-01 11:43:46.993774
436  2023-12-01 11:43:47.039931
437  2023-12-01 11:43:47.085906
438  2023-12-01 11:43:47.117026
439  2023-12-01 11:43:47.164382
440  2023-12-01 11:43:47.211516
441  2023-12-01 11:43:47.241766
442  2023-12-01 11:43:47.287839
443  2023-12-01 11:43:47.335244
444  2023-12-01 11:43:47.366581
445  2023-12-01 11:43:47.414289
446  2023-12-01 11:43:47.460850
447  2023-12-01 11:43:47.492663
448  2023-12-01 11:43:47.538089
449  2023-12-01 11:43:47.583979
450  2023-12-01 11:43:47.614306
451  2023-12-01 11:43:47.660451
452  2023-12-01 11:43:47.706536
453  2023-12-01 11:43:47.738520
454  2023-12-01 11:43:47.785099
455  2023-12-01 11:43:47.832046
456  2023-12-01 11:43:47.864499
457  2023-12-01 11:43:47.910556
458  2023-12-01 11:43:47.957613
459  2023-12-01 11:43:48.003545
460  2023-12-01 11:43:48.034427
461  2023-12-01 11:43:48.081038
462  2023-12-01 11:43:48.127238
463  2023-12-01 11:43:48.157668
464  2023-12-01 11:43:48.202515
465  2023-12-01 11:43:48.249235
466  2023-12-01 11:43:48.294430
467  2023-12-01 11:43:48.325295
468  2023-12-01 11:43:48.371055
469  2023-12-01 11:43:48.417442
470  2023-12-01 11:43:48.449062
471  2023-12-01 11:43:48.495038
472  2023-12-01 11:43:48.541530
473  2023-12-01 11:43:48.572552
474  2023-12-01 11:43:48.619485
475  2023-12-01 11:43:48.665561
476  2023-12-01 11:43:48.696760
477  2023-12-01 11:43:48.743583
478  2023-12-01 11:43:48.790647
479  2023-12-01 11:43:48.821558
480  2023-12-01 11:43:48.869529
481  2023-12-01 11:43:48.915698
482  2023-12-01 11:43:48.946629
483  2023-12-01 11:43:48.993371
484  2023-12-01 11:43:49.039310
485  2023-12-01 11:43:49.085841
486  2023-12-01 11:43:49.116738
487  2023-12-01 11:43:49.163547
488  2023-12-01 11:43:49.210550
489  2023-12-01 11:43:49.241618
490  2023-12-01 11:43:49.288049
491  2023-12-01 11:43:49.335538
492  2023-12-01 11:43:49.365399
493  2023-12-01 11:43:49.412301
494  2023-12-01 11:43:49.460563
495  2023-12-01 11:43:49.491309
496  2023-12-01 11:43:49.538406
497  2023-12-01 11:43:49.584443
498  2023-12-01 11:43:49.614737
499  2023-12-01 11:43:49.661622
500  2023-12-01 11:43:49.707532
501  2023-12-01 11:43:49.738333
502  2023-12-01 11:43:49.784273
503  2023-12-01 11:43:49.831296
504  2023-12-01 11:43:49.878608
505  2023-12-01 11:43:49.908299
506  2023-12-01 11:43:49.955767
507  2023-12-01 11:43:50.002392
508  2023-12-01 11:43:50.033946
509  2023-12-01 11:43:50.079574
510  2023-12-01 11:43:50.125811
511  2023-12-01 11:43:50.157080
512  2023-12-01 11:43:50.203498
513  2023-12-01 11:43:50.249761
514  2023-12-01 11:43:50.280549
515  2023-12-01 11:43:50.327307
516  2023-12-01 11:43:50.374164
517  2023-12-01 11:43:50.405525
518  2023-12-01 11:43:50.451822
519  2023-12-01 11:43:50.497341
520  2023-12-01 11:43:50.543698
521  2023-12-01 11:43:50.574681
522  2023-12-01 11:43:50.621496
523  2023-12-01 11:43:50.667545
524  2023-12-01 11:43:50.697591
525  2023-12-01 11:43:50.745535
526  2023-12-01 11:43:50.793428
527  2023-12-01 11:43:50.825257
528  2023-12-01 11:43:50.872070
529  2023-12-01 11:43:50.918376
530  2023-12-01 11:43:50.948868
531  2023-12-01 11:43:50.997544
532  2023-12-01 11:43:51.045495
533  2023-12-01 11:43:51.074814
534  2023-12-01 11:43:51.121122
535  2023-12-01 11:43:51.168360
536  2023-12-01 11:43:51.200067
537  2023-12-01 11:43:51.246388
538  2023-12-01 11:43:51.292797
539  2023-12-01 11:43:51.324706
540  2023-12-01 11:43:51.370537
541  2023-12-01 11:43:51.416682
542  2023-12-01 11:43:51.447669
543  2023-12-01 11:43:51.494748
544  2023-12-01 11:43:51.542583
545  2023-12-01 11:43:51.573283
546  2023-12-01 11:43:51.620541
547  2023-12-01 11:43:51.666580
548  2023-12-01 11:43:51.697218
549  2023-12-01 11:43:51.743299
550  2023-12-01 11:43:51.789670
551  2023-12-01 11:43:51.836262
552  2023-12-01 11:43:51.866551
553  2023-12-01 11:43:51.913688
554  2023-12-01 11:43:51.959904
555  2023-12-01 11:43:51.991086
556  2023-12-01 11:43:52.039544
557  2023-12-01 11:43:52.086562
558  2023-12-01 11:43:52.116488
559  2023-12-01 11:43:52.162795
560  2023-12-01 11:43:52.209560
561  2023-12-01 11:43:52.240459
562  2023-12-01 11:43:52.286105
563  2023-12-01 11:43:52.332984
564  2023-12-01 11:43:52.363962
565  2023-12-01 11:43:52.411532
566  2023-12-01 11:43:52.459307
567  2023-12-01 11:43:52.490081
568  2023-12-01 11:43:52.536536
569  2023-12-01 11:43:52.584056
570  2023-12-01 11:43:52.615292
571  2023-12-01 11:43:52.663234
572  2023-12-01 11:43:52.710600
573  2023-12-01 11:43:52.741726
574  2023-12-01 11:43:52.788199
575  2023-12-01 11:43:52.835045
576  2023-12-01 11:43:52.865332
577  2023-12-01 11:43:52.911562
578  2023-12-01 11:43:52.956937
579  2023-12-01 11:43:53.002820
580  2023-12-01 11:43:53.033461
581  2023-12-01 11:43:53.079721
582  2023-12-01 11:43:53.126581
583  2023-12-01 11:43:53.158563
584  2023-12-01 11:43:53.205261
585  2023-12-01 11:43:53.251989
586  2023-12-01 11:43:53.282143
587  2023-12-01 11:43:53.329807
588  2023-12-01 11:43:53.376514
589  2023-12-01 11:43:53.408345
590  2023-12-01 11:43:53.455541
591  2023-12-01 11:43:53.502464
592  2023-12-01 11:43:53.533222
593  2023-12-01 11:43:53.579633
594  2023-12-01 11:43:53.625563
595  2023-12-01 11:43:53.657182
596  2023-12-01 11:43:53.704678
597  2023-12-01 11:43:53.751932
598  2023-12-01 11:43:53.783184
599  2023-12-01 11:43:53.830060
600  2023-12-01 11:43:53.876570
601  2023-12-01 11:43:53.907427
602  2023-12-01 11:43:53.954304
603  2023-12-01 11:43:53.999797
604  2023-12-01 11:43:54.030612
605  2023-12-01 11:43:54.077496
606  2023-12-01 11:43:54.123694
607  2023-12-01 11:43:54.154735
608  2023-12-01 11:43:54.200551
609  2023-12-01 11:43:54.246913
610  2023-12-01 11:43:54.293060
611  2023-12-01 11:43:54.323766
612  2023-12-01 11:43:54.370307
613  2023-12-01 11:43:54.416866
614  2023-12-01 11:43:54.448516
615  2023-12-01 11:43:54.493994
616  2023-12-01 11:43:54.541170
617  2023-12-01 11:43:54.572177
618  2023-12-01 11:43:54.618724
619  2023-12-01 11:43:54.665628
620  2023-12-01 11:43:54.697262
621  2023-12-01 11:43:54.743407
622  2023-12-01 11:43:54.789546
623  2023-12-01 11:43:54.836200
624  2023-12-01 11:43:54.867549
625  2023-12-01 11:43:54.913288
626  2023-12-01 11:43:54.959777
627  2023-12-01 11:43:54.990591
628  2023-12-01 11:43:55.037622
629  2023-12-01 11:43:55.083989
630  2023-12-01 11:43:55.115569
631  2023-12-01 11:43:55.161623
632  2023-12-01 11:43:55.208033
633  2023-12-01 11:43:55.238848
634  2023-12-01 11:43:55.285436
635  2023-12-01 11:43:55.331275
636  2023-12-01 11:43:55.378141
637  2023-12-01 11:43:55.409147
638  2023-12-01 11:43:55.455866
639  2023-12-01 11:43:55.502699
640  2023-12-01 11:43:55.533624
641  2023-12-01 11:43:55.578965
642  2023-12-01 11:43:55.625674
643  2023-12-01 11:43:55.657278
644  2023-12-01 11:43:55.703413
645  2023-12-01 11:43:55.750223
646  2023-12-01 11:43:55.781615
647  2023-12-01 11:43:55.829090
648  2023-12-01 11:43:55.874927
649  2023-12-01 11:43:55.906818
650  2023-12-01 11:43:55.953869
651  2023-12-01 11:43:55.999917
652  2023-12-01 11:43:56.030532
653  2023-12-01 11:43:56.077340
654  2023-12-01 11:43:56.124051
655  2023-12-01 11:43:56.154720
656  2023-12-01 11:43:56.200825
657  2023-12-01 11:43:56.247268
658  2023-12-01 11:43:56.293171
659  2023-12-01 11:43:56.325237
660  2023-12-01 11:43:56.371940
661  2023-12-01 11:43:56.419859
662  2023-12-01 11:43:56.452104
663  2023-12-01 11:43:56.499754
664  2023-12-01 11:43:56.531005
665  2023-12-01 11:43:56.578335
666  2023-12-01 11:43:56.624560
667  2023-12-01 11:43:56.655248
668  2023-12-01 11:43:56.702597
669  2023-12-01 11:43:56.748355
670  2023-12-01 11:43:56.794691
671  2023-12-01 11:43:56.826145
672  2023-12-01 11:43:56.872058
673  2023-12-01 11:43:56.919042
674  2023-12-01 11:43:56.949381
675  2023-12-01 11:43:56.996719
676  2023-12-01 11:43:57.043531
677  2023-12-01 11:43:57.074525
678  2023-12-01 11:43:57.120934
679  2023-12-01 11:43:57.167693
680  2023-12-01 11:43:57.198863
681  2023-12-01 11:43:57.246996
682  2023-12-01 11:43:57.292794
683  2023-12-01 11:43:57.324532
684  2023-12-01 11:43:57.371173
685  2023-12-01 11:43:57.417230
686  2023-12-01 11:43:57.447527
687  2023-12-01 11:43:57.495875
688  2023-12-01 11:43:57.543720
689  2023-12-01 11:43:57.575140
690  2023-12-01 11:43:57.620754
691  2023-12-01 11:43:57.667645
692  2023-12-01 11:43:57.699468
693  2023-12-01 11:43:57.746332
694  2023-12-01 11:43:57.792758
695  2023-12-01 11:43:57.823868
696  2023-12-01 11:43:57.869860
697  2023-12-01 11:43:57.916625
698  2023-12-01 11:43:57.947317
699  2023-12-01 11:43:57.993602
700  2023-12-01 11:43:58.041367
701  2023-12-01 11:43:58.072629
702  2023-12-01 11:43:58.118891
703  2023-12-01 11:43:58.165324
704  2023-12-01 11:43:58.211307
705  2023-12-01 11:43:58.243146
706  2023-12-01 11:43:58.290472
707  2023-12-01 11:43:58.322657
708  2023-12-01 11:43:58.367892
709  2023-12-01 11:43:58.414692
710  2023-12-01 11:43:58.460613
711  2023-12-01 11:43:58.491698
712  2023-12-01 11:43:58.538386
713  2023-12-01 11:43:58.583690
714  2023-12-01 11:43:58.614638
715  2023-12-01 11:43:58.661369
716  2023-12-01 11:43:58.707591
717  2023-12-01 11:43:58.738951
718  2023-12-01 11:43:58.787034
719  2023-12-01 11:43:58.835379
720  2023-12-01 11:43:58.866887
721  2023-12-01 11:43:58.914806
722  2023-12-01 11:43:58.946782
723  2023-12-01 11:43:58.994151
724  2023-12-01 11:43:59.040528
725  2023-12-01 11:43:59.071594
726  2023-12-01 11:43:59.117953
727  2023-12-01 11:43:59.166012
728  2023-12-01 11:43:59.197318
729  2023-12-01 11:43:59.244523
730  2023-12-01 11:43:59.291053
731  2023-12-01 11:43:59.322808
732  2023-12-01 11:43:59.368547
733  2023-12-01 11:43:59.415036
734  2023-12-01 11:43:59.461010
735  2023-12-01 11:43:59.492704
736  2023-12-01 11:43:59.538749
737  2023-12-01 11:43:59.585960
738  2023-12-01 11:43:59.616492
739  2023-12-01 11:43:59.664317
740  2023-12-01 11:43:59.710927
741  2023-12-01 11:43:59.742186
742  2023-12-01 11:43:59.789003
743  2023-12-01 11:43:59.835550
744  2023-12-01 11:43:59.866586
745  2023-12-01 11:43:59.912578
746  2023-12-01 11:43:59.959988
747  2023-12-01 11:43:59.991670
748  2023-12-01 11:44:00.038375
749  2023-12-01 11:44:00.085843
750  2023-12-01 11:44:00.117122
751  2023-12-01 11:44:00.164737
752  2023-12-01 11:44:00.210510
753  2023-12-01 11:44:00.240332
754  2023-12-01 11:44:00.286708
755  2023-12-01 11:44:00.333553
756  2023-12-01 11:44:00.365213
757  2023-12-01 11:44:00.411798
758  2023-12-01 11:44:00.458608
759  2023-12-01 11:44:00.490161
760  2023-12-01 11:44:00.535409
761  2023-12-01 11:44:00.581883
762  2023-12-01 11:44:00.613405
763  2023-12-01 11:44:00.660269
764  2023-12-01 11:44:00.707328
765  2023-12-01 11:44:00.739287
766  2023-12-01 11:44:00.785859
767  2023-12-01 11:44:00.832335
768  2023-12-01 11:44:00.863107
769  2023-12-01 11:44:00.909579
770  2023-12-01 11:44:00.955695
771  2023-12-01 11:44:01.002562
772  2023-12-01 11:44:01.033299
773  2023-12-01 11:44:01.080344
774  2023-12-01 11:44:01.126378
775  2023-12-01 11:44:01.157814
776  2023-12-01 11:44:01.204325
777  2023-12-01 11:44:01.251201
778  2023-12-01 11:44:01.282121
779  2023-12-01 11:44:01.328662
780  2023-12-01 11:44:01.374649
781  2023-12-01 11:44:01.405415
782  2023-12-01 11:44:01.451773
783  2023-12-01 11:44:01.498571
784  2023-12-01 11:44:01.530560
785  2023-12-01 11:44:01.576689
786  2023-12-01 11:44:01.622646
787  2023-12-01 11:44:01.668556
788  2023-12-01 11:44:01.700747
789  2023-12-01 11:44:01.748787
790  2023-12-01 11:44:01.794209
791  2023-12-01 11:44:01.826256
792  2023-12-01 11:44:01.873604
793  2023-12-01 11:44:01.918949
794  2023-12-01 11:44:01.949657
795  2023-12-01 11:44:01.996556
796  2023-12-01 11:44:02.041267
797  2023-12-01 11:44:02.072185
798  2023-12-01 11:44:02.118796
799  2023-12-01 11:44:02.165672
800  2023-12-01 11:44:02.197562
801  2023-12-01 11:44:02.244372
802  2023-12-01 11:44:02.290887
803  2023-12-01 11:44:02.321507
804  2023-12-01 11:44:02.369960
805  2023-12-01 11:44:02.416834
806  2023-12-01 11:44:02.447469
807  2023-12-01 11:44:02.493760
808  2023-12-01 11:44:02.540557
809  2023-12-01 11:44:02.572578
810  2023-12-01 11:44:02.618778
811  2023-12-01 11:44:02.666134
812  2023-12-01 11:44:02.696758
813  2023-12-01 11:44:02.742868
814  2023-12-01 11:44:02.788919
815  2023-12-01 11:44:02.835301
816  2023-12-01 11:44:02.867347
817  2023-12-01 11:44:02.914020
818  2023-12-01 11:44:02.961349
819  2023-12-01 11:44:02.991510
820  2023-12-01 11:44:03.037966
821  2023-12-01 11:44:03.085663
822  2023-12-01 11:44:03.116802
823  2023-12-01 11:44:03.163654
824  2023-12-01 11:44:03.209671
825  2023-12-01 11:44:03.240997
826  2023-12-01 11:44:03.287200
827  2023-12-01 11:44:03.333440
828  2023-12-01 11:44:03.364174
829  2023-12-01 11:44:03.411467
830  2023-12-01 11:44:03.458178
831  2023-12-01 11:44:03.490276
832  2023-12-01 11:44:03.538377
833  2023-12-01 11:44:03.584301
834  2023-12-01 11:44:03.614927
835  2023-12-01 11:44:03.660840
836  2023-12-01 11:44:03.706543
837  2023-12-01 11:44:03.753735
838  2023-12-01 11:44:03.785059
839  2023-12-01 11:44:03.829833
840  2023-12-01 11:44:03.876737
841  2023-12-01 11:44:03.907101
842  2023-12-01 11:44:03.953815
843  2023-12-01 11:44:03.999827
844  2023-12-01 11:44:04.032819
845  2023-12-01 11:44:04.078855
846  2023-12-01 11:44:04.126113
847  2023-12-01 11:44:04.155769
848  2023-12-01 11:44:04.201608
849  2023-12-01 11:44:04.248723
850  2023-12-01 11:44:04.294136
851  2023-12-01 11:44:04.325663
852  2023-12-01 11:44:04.370907
853  2023-12-01 11:44:04.417770
854  2023-12-01 11:44:04.447817
855  2023-12-01 11:44:04.496129
856  2023-12-01 11:44:04.542255
857  2023-12-01 11:44:04.573177
858  2023-12-01 11:44:04.620870
859  2023-12-01 11:44:04.667559
860  2023-12-01 11:44:04.699424
861  2023-12-01 11:44:04.745552
862  2023-12-01 11:44:04.791620
863  2023-12-01 11:44:04.822564
864  2023-12-01 11:44:04.869556
865  2023-12-01 11:44:04.915677
866  2023-12-01 11:44:04.946878
867  2023-12-01 11:44:04.993859
868  2023-12-01 11:44:05.041243
869  2023-12-01 11:44:05.072802
870  2023-12-01 11:44:05.119361
871  2023-12-01 11:44:05.165484
872  2023-12-01 11:44:05.210850
873  2023-12-01 11:44:05.242812
874  2023-12-01 11:44:05.289873
875  2023-12-01 11:44:05.335689
876  2023-12-01 11:44:05.367446
877  2023-12-01 11:44:05.413254
878  2023-12-01 11:44:05.460619
879  2023-12-01 11:44:05.490594
880  2023-12-01 11:44:05.538509
881  2023-12-01 11:44:05.586256
882  2023-12-01 11:44:05.617725
883  2023-12-01 11:44:05.664810
884  2023-12-01 11:44:05.711217
885  2023-12-01 11:44:05.743108
886  2023-12-01 11:44:05.789718
887  2023-12-01 11:44:05.822904
888  2023-12-01 11:44:05.868553
889  2023-12-01 11:44:05.915105
890  2023-12-01 11:44:05.946946
891  2023-12-01 11:44:05.992099
892  2023-12-01 11:44:06.038771
893  2023-12-01 11:44:06.085681
894  2023-12-01 11:44:06.115629
895  2023-12-01 11:44:06.162336
896  2023-12-01 11:44:06.210223
897  2023-12-01 11:44:06.240667
898  2023-12-01 11:44:06.288102
899  2023-12-01 11:44:06.335579
900  2023-12-01 11:44:06.365657
901  2023-12-01 11:44:06.412313
902  2023-12-01 11:44:06.458656
903  2023-12-01 11:44:06.489809
904  2023-12-01 11:44:06.536275
905  2023-12-01 11:44:06.581957
906  2023-12-01 11:44:06.612884
907  2023-12-01 11:44:06.659210
908  2023-12-01 11:44:06.705344
909  2023-12-01 11:44:06.752914
910  2023-12-01 11:44:06.784097
911  2023-12-01 11:44:06.830721
912  2023-12-01 11:44:06.877452
913  2023-12-01 11:44:06.908564
914  2023-12-01 11:44:06.955603
915  2023-12-01 11:44:07.001177
916  2023-12-01 11:44:07.033065
917  2023-12-01 11:44:07.078878
918  2023-12-01 11:44:07.125716
919  2023-12-01 11:44:07.156161
920  2023-12-01 11:44:07.202410
921  2023-12-01 11:44:07.248801
922  2023-12-01 11:44:07.280538
923  2023-12-01 11:44:07.327645
924  2023-12-01 11:44:07.374511
925  2023-12-01 11:44:07.405557
926  2023-12-01 11:44:07.451154
927  2023-12-01 11:44:07.497623
928  2023-12-01 11:44:07.544333
929  2023-12-01 11:44:07.575782
930  2023-12-01 11:44:07.623266
931  2023-12-01 11:44:07.655122
932  2023-12-01 11:44:07.701618
933  2023-12-01 11:44:07.748689
934  2023-12-01 11:44:07.794211
935  2023-12-01 11:44:07.826163
936  2023-12-01 11:44:07.873368
937  2023-12-01 11:44:07.919715
938  2023-12-01 11:44:07.951943
939  2023-12-01 11:44:07.998847
940  2023-12-01 11:44:08.030701
941  2023-12-01 11:44:08.076544
942  2023-12-01 11:44:08.122772
943  2023-12-01 11:44:08.155162
944  2023-12-01 11:44:08.200871
945  2023-12-01 11:44:08.247703
946  2023-12-01 11:44:08.293670
947  2023-12-01 11:44:08.324578
948  2023-12-01 11:44:08.371342
949  2023-12-01 11:44:08.417550
950  2023-12-01 11:44:08.448304
951  2023-12-01 11:44:08.495588
952  2023-12-01 11:44:08.543029
953  2023-12-01 11:44:08.574841
954  2023-12-01 11:44:08.620936
955  2023-12-01 11:44:08.669683
956  2023-12-01 11:44:08.699237
957  2023-12-01 11:44:08.746731
958  2023-12-01 11:44:08.792305
959  2023-12-01 11:44:08.823690
960  2023-12-01 11:44:08.871528
961  2023-12-01 11:44:08.918428
962  2023-12-01 11:44:08.950644
963  2023-12-01 11:44:08.995830
964  2023-12-01 11:44:09.041963
965  2023-12-01 11:44:09.072276
966  2023-12-01 11:44:09.119900
967  2023-12-01 11:44:09.166118
968  2023-12-01 11:44:09.197862
969  2023-12-01 11:44:09.242857
970  2023-12-01 11:44:09.290793
971  2023-12-01 11:44:09.335782
972  2023-12-01 11:44:09.367465
973  2023-12-01 11:44:09.412939
974  2023-12-01 11:44:09.460410
975  2023-12-01 11:44:09.491646
976  2023-12-01 11:44:09.538862
977  2023-12-01 11:44:09.584480
978  2023-12-01 11:44:09.615772
979  2023-12-01 11:44:09.661789
980  2023-12-01 11:44:09.708552
981  2023-12-01 11:44:09.740581
982  2023-12-01 11:44:09.786661
983  2023-12-01 11:44:09.833793
984  2023-12-01 11:44:09.864781
985  2023-12-01 11:44:09.911220
986  2023-12-01 11:44:09.956978
987  2023-12-01 11:44:09.988917
988  2023-12-01 11:44:10.035659
989  2023-12-01 11:44:10.082171
990  2023-12-01 11:44:10.113483
991  2023-12-01 11:44:10.159777
992  2023-12-01 11:44:10.207596
993  2023-12-01 11:44:10.238000
994  2023-12-01 11:44:10.283891
995  2023-12-01 11:44:10.330575
996  2023-12-01 11:44:10.376992
997  2023-12-01 11:44:10.407730
998  2023-12-01 11:44:10.454641
999  2023-12-01 11:44:10.500687
1000  2023-12-01 11:44:10.531542
1001  2023-12-01 11:44:10.577809
1002  2023-12-01 11:44:10.624398
1003  2023-12-01 11:44:10.655146
1004  2023-12-01 11:44:10.702170
1005  2023-12-01 11:44:10.749582
1006  2023-12-01 11:44:10.795568
1007  2023-12-01 11:44:10.827543
1008  2023-12-01 11:44:10.873624
1009  2023-12-01 11:44:10.904671
1010  2023-12-01 11:44:10.950600
1011  2023-12-01 11:44:10.998002
1012  2023-12-01 11:44:11.043766
1013  2023-12-01 11:44:11.075385
1014  2023-12-01 11:44:11.121940
1015  2023-12-01 11:44:11.168508
1016  2023-12-01 11:44:11.199734
1017  2023-12-01 11:44:11.246271
1018  2023-12-01 11:44:11.293625
1019  2023-12-01 11:44:11.323549
1020  2023-12-01 11:44:11.369641
1021  2023-12-01 11:44:11.416150
1022  2023-12-01 11:44:11.447767
1023  2023-12-01 11:44:11.496080
1024  2023-12-01 11:44:11.542375
1025  2023-12-01 11:44:11.573352
1026  2023-12-01 11:44:11.620032
1027  2023-12-01 11:44:11.666914
1028  2023-12-01 11:44:11.696968
1029  2023-12-01 11:44:11.743631
1030  2023-12-01 11:44:11.791276
1031  2023-12-01 11:44:11.822780
1032  2023-12-01 11:44:11.868756
1033  2023-12-01 11:44:11.916633
1034  2023-12-01 11:44:11.949244
1035  2023-12-01 11:44:11.995831
1036  2023-12-01 11:44:12.041626
1037  2023-12-01 11:44:12.071866
1038  2023-12-01 11:44:12.119571
1039  2023-12-01 11:44:12.167531
1040  2023-12-01 11:44:12.198292
1041  2023-12-01 11:44:12.244722
1042  2023-12-01 11:44:12.290570
1043  2023-12-01 11:44:12.336298
1044  2023-12-01 11:44:12.367647
1045  2023-12-01 11:44:12.414415
1046  2023-12-01 11:44:12.462426
1047  2023-12-01 11:44:12.491576
1048  2023-12-01 11:44:12.538563
1049  2023-12-01 11:44:12.584575
1050  2023-12-01 11:44:12.615339
1051  2023-12-01 11:44:12.662093
1052  2023-12-01 11:44:12.709567
1053  2023-12-01 11:44:12.740843
1054  2023-12-01 11:44:12.787297
1055  2023-12-01 11:44:12.834612
1056  2023-12-01 11:44:12.865964
1057  2023-12-01 11:44:12.913692
1058  2023-12-01 11:44:12.959671
1059  2023-12-01 11:44:12.990650
1060  2023-12-01 11:44:13.038550
1061  2023-12-01 11:44:13.085568
1062  2023-12-01 11:44:13.115737
1063  2023-12-01 11:44:13.162994
1064  2023-12-01 11:44:13.208825
1065  2023-12-01 11:44:13.238831
1066  2023-12-01 11:44:13.286771
1067  2023-12-01 11:44:13.332758
1068  2023-12-01 11:44:13.364277
1069  2023-12-01 11:44:13.411097
1070  2023-12-01 11:44:13.457884
1071  2023-12-01 11:44:13.488914
1072  2023-12-01 11:44:13.535545
1073  2023-12-01 11:44:13.582076
1074  2023-12-01 11:44:13.613311
1075  2023-12-01 11:44:13.660590
1076  2023-12-01 11:44:13.707617
1077  2023-12-01 11:44:13.752576
1078  2023-12-01 11:44:13.783574
1079  2023-12-01 11:44:13.830724
1080  2023-12-01 11:44:13.876808
1081  2023-12-01 11:44:13.906877
1082  2023-12-01 11:44:13.954130
1083  2023-12-01 11:44:14.000821
1084  2023-12-01 11:44:14.032083
1085  2023-12-01 11:44:14.077698
1086  2023-12-01 11:44:14.125050
1087  2023-12-01 11:44:14.155947
1088  2023-12-01 11:44:14.202566
1089  2023-12-01 11:44:14.250742
1090  2023-12-01 11:44:14.282733
1091  2023-12-01 11:44:14.328817
1092  2023-12-01 11:44:14.374829
1093  2023-12-01 11:44:14.406144
1094  2023-12-01 11:44:14.452655
1095  2023-12-01 11:44:14.500749
1096  2023-12-01 11:44:14.532622
1097  2023-12-01 11:44:14.579354
1098  2023-12-01 11:44:14.625362
1099  2023-12-01 11:44:14.656455
1100  2023-12-01 11:44:14.703526
1101  2023-12-01 11:44:14.750618
1102  2023-12-01 11:44:14.782000
1103  2023-12-01 11:44:14.829573
1104  2023-12-01 11:44:14.876554
1105  2023-12-01 11:44:14.908693
1106  2023-12-01 11:44:14.954763
1107  2023-12-01 11:44:15.001348
1108  2023-12-01 11:44:15.031669
1109  2023-12-01 11:44:15.077921
1110  2023-12-01 11:44:15.124744
1111  2023-12-01 11:44:15.155243
1112  2023-12-01 11:44:15.201780
1113  2023-12-01 11:44:15.247601
1114  2023-12-01 11:44:15.294993
1115  2023-12-01 11:44:15.326449
1116  2023-12-01 11:44:15.373451
1117  2023-12-01 11:44:15.420394
1118  2023-12-01 11:44:15.449646
1119  2023-12-01 11:44:15.496161
1120  2023-12-01 11:44:15.543149
1121  2023-12-01 11:44:15.574000
1122  2023-12-01 11:44:15.622157
1123  2023-12-01 11:44:15.667710
1124  2023-12-01 11:44:15.699632
1125  2023-12-01 11:44:15.745939
1126  2023-12-01 11:44:15.791894
1127  2023-12-01 11:44:15.822929
1128  2023-12-01 11:44:15.868583
1129  2023-12-01 11:44:15.916431
1130  2023-12-01 11:44:15.947385
1131  2023-12-01 11:44:15.993649
1132  2023-12-01 11:44:16.041624
1133  2023-12-01 11:44:16.073695
1134  2023-12-01 11:44:16.121636
1135  2023-12-01 11:44:16.168773
1136  2023-12-01 11:44:16.199650
1137  2023-12-01 11:44:16.246246
1138  2023-12-01 11:44:16.293576
1139  2023-12-01 11:44:16.323647
1140  2023-12-01 11:44:16.370146
1141  2023-12-01 11:44:16.416470
1142  2023-12-01 11:44:16.447221
1143  2023-12-01 11:44:16.494612
1144  2023-12-01 11:44:16.541982
1145  2023-12-01 11:44:16.574556
1146  2023-12-01 11:44:16.620114
1147  2023-12-01 11:44:16.668803
1148  2023-12-01 11:44:16.699822
1149  2023-12-01 11:44:16.748633
1150  2023-12-01 11:44:16.796566
1151  2023-12-01 11:44:16.828563
1152  2023-12-01 11:44:16.872723
1153  2023-12-01 11:44:16.918597
1154  2023-12-01 11:44:16.949746
1155  2023-12-01 11:44:16.996101
1156  2023-12-01 11:44:17.044071
1157  2023-12-01 11:44:17.075951
1158  2023-12-01 11:44:17.122252
1159  2023-12-01 11:44:17.167889
1160  2023-12-01 11:44:17.199433
1161  2023-12-01 11:44:17.246193
1162  2023-12-01 11:44:17.293625
1163  2023-12-01 11:44:17.324461
1164  2023-12-01 11:44:17.371618
1165  2023-12-01 11:44:17.418286
1166  2023-12-01 11:44:17.449617
1167  2023-12-01 11:44:17.496738
1168  2023-12-01 11:44:17.543572
1169  2023-12-01 11:44:17.575457
1170  2023-12-01 11:44:17.622758
1171  2023-12-01 11:44:17.668811
1172  2023-12-01 11:44:17.699729
1173  2023-12-01 11:44:17.747919
1174  2023-12-01 11:44:17.779690
1175  2023-12-01 11:44:17.825974
1176  2023-12-01 11:44:17.871709
1177  2023-12-01 11:44:17.918277
1178  2023-12-01 11:44:17.948797
1179  2023-12-01 11:44:17.994910
1180  2023-12-01 11:44:18.043559
1181  2023-12-01 11:44:18.076572
1182  2023-12-01 11:44:18.120040
1183  2023-12-01 11:44:18.167326
1184  2023-12-01 11:44:18.198394
1185  2023-12-01 11:44:18.244650
1186  2023-12-01 11:44:18.290794
1187  2023-12-01 11:44:18.322191
1188  2023-12-01 11:44:18.368939
1189  2023-12-01 11:44:18.416601
1190  2023-12-01 11:44:18.447359
1191  2023-12-01 11:44:18.494620
1192  2023-12-01 11:44:18.541812
1193  2023-12-01 11:44:18.571570
1194  2023-12-01 11:44:18.618096
1195  2023-12-01 11:44:18.664249
1196  2023-12-01 11:44:18.711101
1197  2023-12-01 11:44:18.742374
1198  2023-12-01 11:44:18.788679
1199  2023-12-01 11:44:18.836788
1200  2023-12-01 11:44:18.866952
1201  2023-12-01 11:44:18.914628
1202  2023-12-01 11:44:18.961439
1203  2023-12-01 11:44:18.993807
1204  2023-12-01 11:44:19.039857
1205  2023-12-01 11:44:19.085771
1206  2023-12-01 11:44:19.116797
1207  2023-12-01 11:44:19.162447
1208  2023-12-01 11:44:19.208630
1209  2023-12-01 11:44:19.239547
1210  2023-12-01 11:44:19.286592
1211  2023-12-01 11:44:19.333627
1212  2023-12-01 11:44:19.363998
1213  2023-12-01 11:44:19.410522
1214  2023-12-01 11:44:19.456565
1215  2023-12-01 11:44:19.502556
1216  2023-12-01 11:44:19.534556
1217  2023-12-01 11:44:19.580509
1218  2023-12-01 11:44:19.626593
1219  2023-12-01 11:44:19.658548
1220  2023-12-01 11:44:19.706625
1221  2023-12-01 11:44:19.752595
1222  2023-12-01 11:44:19.782636
1223  2023-12-01 11:44:19.829023
1224  2023-12-01 11:44:19.875350
1225  2023-12-01 11:44:19.906071
1226  2023-12-01 11:44:19.952954
1227  2023-12-01 11:44:19.999372
1228  2023-12-01 11:44:20.045022
1229  2023-12-01 11:44:20.076504
1230  2023-12-01 11:44:20.123519
1231  2023-12-01 11:44:20.171355
1232  2023-12-01 11:44:20.201822
1233  2023-12-01 11:44:20.247243
1234  2023-12-01 11:44:20.293652
1235  2023-12-01 11:44:20.325388
1236  2023-12-01 11:44:20.371669
1237  2023-12-01 11:44:20.418830
1238  2023-12-01 11:44:20.450332
1239  2023-12-01 11:44:20.495666
1240  2023-12-01 11:44:20.541909
1241  2023-12-01 11:44:20.573545
1242  2023-12-01 11:44:20.619975
1243  2023-12-01 11:44:20.666534
1244  2023-12-01 11:44:20.699317
1245  2023-12-01 11:44:20.746927
1246  2023-12-01 11:44:20.793657
1247  2023-12-01 11:44:20.827564
1248  2023-12-01 11:44:20.870648
1249  2023-12-01 11:44:20.918302
1250  2023-12-01 11:44:20.949570
1251  2023-12-01 11:44:20.996583
1252  2023-12-01 11:44:21.043090
1253  2023-12-01 11:44:21.073600
1254  2023-12-01 11:44:21.120569
1255  2023-12-01 11:44:21.167142
1256  2023-12-01 11:44:21.197693
1257  2023-12-01 11:44:21.244181
1258  2023-12-01 11:44:21.291050
1259  2023-12-01 11:44:21.322339
1260  2023-12-01 11:44:21.370648
1261  2023-12-01 11:44:21.414189
1262  2023-12-01 11:44:21.461505
1263  2023-12-01 11:44:21.493420
1264  2023-12-01 11:44:21.540862
1265  2023-12-01 11:44:21.571625
1266  2023-12-01 11:44:21.618479
1267  2023-12-01 11:44:21.663943
1268  2023-12-01 11:44:21.710298
1269  2023-12-01 11:44:21.741237
1270  2023-12-01 11:44:21.787349
1271  2023-12-01 11:44:21.834229
1272  2023-12-01 11:44:21.865719
1273  2023-12-01 11:44:21.913138
1274  2023-12-01 11:44:21.959531
1275  2023-12-01 11:44:21.990849
1276  2023-12-01 11:44:22.037713
1277  2023-12-01 11:44:22.082937
1278  2023-12-01 11:44:22.113918
1279  2023-12-01 11:44:22.160510
1280  2023-12-01 11:44:22.207006
1281  2023-12-01 11:44:22.238644
1282  2023-12-01 11:44:22.284659
1283  2023-12-01 11:44:22.330863
1284  2023-12-01 11:44:22.379961
1285  2023-12-01 11:44:22.409973
1286  2023-12-01 11:44:22.458508
1287  2023-12-01 11:44:22.502500
1288  2023-12-01 11:44:22.533610
1289  2023-12-01 11:44:22.580791
1290  2023-12-01 11:44:22.627254
1291  2023-12-01 11:44:22.657940
1292  2023-12-01 11:44:22.704027
1293  2023-12-01 11:44:22.751117
1294  2023-12-01 11:44:22.781857
1295  2023-12-01 11:44:22.828556
1296  2023-12-01 11:44:22.876847
1297  2023-12-01 11:44:22.906491
1298  2023-12-01 11:44:22.952568
1299  2023-12-01 11:44:22.999565
1300  2023-12-01 11:44:23.044240
1301  2023-12-01 11:44:23.076248
1302  2023-12-01 11:44:23.122128
1303  2023-12-01 11:44:23.168758
1304  2023-12-01 11:44:23.199331
1305  2023-12-01 11:44:23.245457
1306  2023-12-01 11:44:23.292643
1307  2023-12-01 11:44:23.324566
1308  2023-12-01 11:44:23.371497
1309  2023-12-01 11:44:23.418691
1310  2023-12-01 11:44:23.450929
1311  2023-12-01 11:44:23.497799
1312  2023-12-01 11:44:23.542569
1313  2023-12-01 11:44:23.572885
1314  2023-12-01 11:44:23.619421
1315  2023-12-01 11:44:23.666687
1316  2023-12-01 11:44:23.697546
1317  2023-12-01 11:44:23.744113
1318  2023-12-01 11:44:23.790759
1319  2023-12-01 11:44:23.822211
1320  2023-12-01 11:44:23.869452
1321  2023-12-01 11:44:23.916733
1322  2023-12-01 11:44:23.947331
1323  2023-12-01 11:44:23.995127
1324  2023-12-01 11:44:24.041077
1325  2023-12-01 11:44:24.072903
1326  2023-12-01 11:44:24.118601
1327  2023-12-01 11:44:24.165509
1328  2023-12-01 11:44:24.196600
1329  2023-12-01 11:44:24.243035
1330  2023-12-01 11:44:24.289234
1331  2023-12-01 11:44:24.335814
1332  2023-12-01 11:44:24.366406
1333  2023-12-01 11:44:24.413845
1334  2023-12-01 11:44:24.459556
1335  2023-12-01 11:44:24.490623
1336  2023-12-01 11:44:24.538129
1337  2023-12-01 11:44:24.585004
1338  2023-12-01 11:44:24.615746
1339  2023-12-01 11:44:24.663479
1340  2023-12-01 11:44:24.710762
1341  2023-12-01 11:44:24.741970
1342  2023-12-01 11:44:24.789644
1343  2023-12-01 11:44:24.834803
1344  2023-12-01 11:44:24.866189
1345  2023-12-01 11:44:24.912779
1346  2023-12-01 11:44:24.958417
1347  2023-12-01 11:44:24.990122
1348  2023-12-01 11:44:25.035932
1349  2023-12-01 11:44:25.082156
1350  2023-12-01 11:44:25.114041
1351  2023-12-01 11:44:25.161540
1352  2023-12-01 11:44:25.208219
1353  2023-12-01 11:44:25.237992
1354  2023-12-01 11:44:25.284876
1355  2023-12-01 11:44:25.330712
1356  2023-12-01 11:44:25.377047
1357  2023-12-01 11:44:25.408796
1358  2023-12-01 11:44:25.455219
1359  2023-12-01 11:44:25.501652
1360  2023-12-01 11:44:25.532692
1361  2023-12-01 11:44:25.579072
1362  2023-12-01 11:44:25.625588
1363  2023-12-01 11:44:25.656404
1364  2023-12-01 11:44:25.703621
1365  2023-12-01 11:44:25.749967
1366  2023-12-01 11:44:25.781958
1367  2023-12-01 11:44:25.828035
1368  2023-12-01 11:44:25.874729
1369  2023-12-01 11:44:25.905290
1370  2023-12-01 11:44:25.951647
1371  2023-12-01 11:44:25.997715
1372  2023-12-01 11:44:26.043841
1373  2023-12-01 11:44:26.075627
1374  2023-12-01 11:44:26.122791
1375  2023-12-01 11:44:26.169143
1376  2023-12-01 11:44:26.199405
1377  2023-12-01 11:44:26.246267
1378  2023-12-01 11:44:26.294626
1379  2023-12-01 11:44:26.324014
1380  2023-12-01 11:44:26.371590
1381  2023-12-01 11:44:26.418209
1382  2023-12-01 11:44:26.448970
1383  2023-12-01 11:44:26.495878
1384  2023-12-01 11:44:26.542692
1385  2023-12-01 11:44:26.573373
1386  2023-12-01 11:44:26.619668
1387  2023-12-01 11:44:26.666451
1388  2023-12-01 11:44:26.697635
1389  2023-12-01 11:44:26.743869
1390  2023-12-01 11:44:26.792035
1391  2023-12-01 11:44:26.822040
1392  2023-12-01 11:44:26.869701
1393  2023-12-01 11:44:26.914996
1394  2023-12-01 11:44:26.946949
1395  2023-12-01 11:44:26.993413
1396  2023-12-01 11:44:27.040264
1397  2023-12-01 11:44:27.086165
1398  2023-12-01 11:44:27.117393
1399  2023-12-01 11:44:27.162960
1400  2023-12-01 11:44:27.210546
1401  2023-12-01 11:44:27.241145
1402  2023-12-01 11:44:27.288614
1403  2023-12-01 11:44:27.333644
1404  2023-12-01 11:44:27.365193
1405  2023-12-01 11:44:27.412788
1406  2023-12-01 11:44:27.460676
1407  2023-12-01 11:44:27.491658
1408  2023-12-01 11:44:27.537369
1409  2023-12-01 11:44:27.583824
1410  2023-12-01 11:44:27.615246
1411  2023-12-01 11:44:27.661237
1412  2023-12-01 11:44:27.707417
1413  2023-12-01 11:44:27.738588
1414  2023-12-01 11:44:27.785090
1415  2023-12-01 11:44:27.831600
1416  2023-12-01 11:44:27.879082
1417  2023-12-01 11:44:27.908762
1418  2023-12-01 11:44:27.954900
1419  2023-12-01 11:44:28.002652
1420  2023-12-01 11:44:28.033730
1421  2023-12-01 11:44:28.079785
1422  2023-12-01 11:44:28.126951
1423  2023-12-01 11:44:28.157870
1424  2023-12-01 11:44:28.205360
1425  2023-12-01 11:44:28.251561
1426  2023-12-01 11:44:28.282774
1427  2023-12-01 11:44:28.329197
1428  2023-12-01 11:44:28.376590
1429  2023-12-01 11:44:28.407523
1430  2023-12-01 11:44:28.454469
1431  2023-12-01 11:44:28.499578
1432  2023-12-01 11:44:28.530562
1433  2023-12-01 11:44:28.577082
1434  2023-12-01 11:44:28.624175
1435  2023-12-01 11:44:28.655836
1436  2023-12-01 11:44:28.702653
1437  2023-12-01 11:44:28.749697
1438  2023-12-01 11:44:28.794613
1439  2023-12-01 11:44:28.826037
1440  2023-12-01 11:44:28.873460
1441  2023-12-01 11:44:28.921430
1442  2023-12-01 11:44:28.951382
1443  2023-12-01 11:44:28.998980
1444  2023-12-01 11:44:29.029758
1445  2023-12-01 11:44:29.076861
1446  2023-12-01 11:44:29.122412
1447  2023-12-01 11:44:29.169351
1448  2023-12-01 11:44:29.200706
1449  2023-12-01 11:44:29.247381
1450  2023-12-01 11:44:29.294528
1451  2023-12-01 11:44:29.325062
1452  2023-12-01 11:44:29.370577
1453  2023-12-01 11:44:29.417595
1454  2023-12-01 11:44:29.448577
1455  2023-12-01 11:44:29.494893
1456  2023-12-01 11:44:29.542132
1457  2023-12-01 11:44:29.572587
1458  2023-12-01 11:44:29.619691
1459  2023-12-01 11:44:29.666050
1460  2023-12-01 11:44:29.696325
1461  2023-12-01 11:44:29.742875
1462  2023-12-01 11:44:29.788672
1463  2023-12-01 11:44:29.835061
1464  2023-12-01 11:44:29.866252
1465  2023-12-01 11:44:29.912329
1466  2023-12-01 11:44:29.959854
1467  2023-12-01 11:44:29.991624
1468  2023-12-01 11:44:30.036768
1469  2023-12-01 11:44:30.083604
1470  2023-12-01 11:44:30.114039
1471  2023-12-01 11:44:30.161211
1472  2023-12-01 11:44:30.207396
1473  2023-12-01 11:44:30.238481
1474  2023-12-01 11:44:30.284773
1475  2023-12-01 11:44:30.331576
1476  2023-12-01 11:44:30.377565
1477  2023-12-01 11:44:30.409342
1478  2023-12-01 11:44:30.456573
1479  2023-12-01 11:44:30.504240
1480  2023-12-01 11:44:30.534957
1481  2023-12-01 11:44:30.581485
1482  2023-12-01 11:44:30.627435
1483  2023-12-01 11:44:30.657935
1484  2023-12-01 11:44:30.705224
1485  2023-12-01 11:44:30.751258
1486  2023-12-01 11:44:30.781234
1487  2023-12-01 11:44:30.828577
1488  2023-12-01 11:44:30.874752
1489  2023-12-01 11:44:30.905604
1490  2023-12-01 11:44:30.952819
1491  2023-12-01 11:44:30.998768
1492  2023-12-01 11:44:31.030525
1493  2023-12-01 11:44:31.077803
1494  2023-12-01 11:44:31.123696
1495  2023-12-01 11:44:31.154659
1496  2023-12-01 11:44:31.200554
1497  2023-12-01 11:44:31.248429
1498  2023-12-01 11:44:31.294772
1499  2023-12-01 11:44:31.325749
1500  2023-12-01 11:44:31.372463
1501  2023-12-01 11:44:31.418945
1502  2023-12-01 11:44:31.450922
1503  2023-12-01 11:44:31.498589
1504  2023-12-01 11:44:31.544427
1505  2023-12-01 11:44:31.575693
1506  2023-12-01 11:44:31.621509
1507  2023-12-01 11:44:31.667984
1508  2023-12-01 11:44:31.699190
1509  2023-12-01 11:44:31.744814
1510  2023-12-01 11:44:31.791771
1511  2023-12-01 11:44:31.823109
1512  2023-12-01 11:44:31.870520
1513  2023-12-01 11:44:31.919052
1514  2023-12-01 11:44:31.950217
1515  2023-12-01 11:44:31.995562
1516  2023-12-01 11:44:32.042757
1517  2023-12-01 11:44:32.073708
1518  2023-12-01 11:44:32.120031
1519  2023-12-01 11:44:32.166369
1520  2023-12-01 11:44:32.198277
1521  2023-12-01 11:44:32.245849
1522  2023-12-01 11:44:32.291138
1523  2023-12-01 11:44:32.322631
1524  2023-12-01 11:44:32.370134
1525  2023-12-01 11:44:32.416732
1526  2023-12-01 11:44:32.447179
1527  2023-12-01 11:44:32.494033
1528  2023-12-01 11:44:32.540485
1529  2023-12-01 11:44:32.571604
1530  2023-12-01 11:44:32.618025
1531  2023-12-01 11:44:32.663817
1532  2023-12-01 11:44:32.710762
1533  2023-12-01 11:44:32.741632
1534  2023-12-01 11:44:32.787458
1535  2023-12-01 11:44:32.833841
1536  2023-12-01 11:44:32.865035
1537  2023-12-01 11:44:32.910827
1538  2023-12-01 11:44:32.957046
1539  2023-12-01 11:44:32.988064
1540  2023-12-01 11:44:33.035278
1541  2023-12-01 11:44:33.081352
1542  2023-12-01 11:44:33.128536
1543  2023-12-01 11:44:33.159353
1544  2023-12-01 11:44:33.206540
1545  2023-12-01 11:44:33.239557
1546  2023-12-01 11:44:33.285824
1547  2023-12-01 11:44:33.333712
1548  2023-12-01 11:44:33.365353
1549  2023-12-01 11:44:33.412894
1550  2023-12-01 11:44:33.460461
1551  2023-12-01 11:44:33.494530
1552  2023-12-01 11:44:33.540655
1553  2023-12-01 11:44:33.572612
1554  2023-12-01 11:44:33.617916
1555  2023-12-01 11:44:33.664590
1556  2023-12-01 11:44:33.710563
1557  2023-12-01 11:44:33.741784
1558  2023-12-01 11:44:33.787919
1559  2023-12-01 11:44:33.834588
1560  2023-12-01 11:44:33.865621
1561  2023-12-01 11:44:33.912150
1562  2023-12-01 11:44:33.958805
1563  2023-12-01 11:44:33.990678
1564  2023-12-01 11:44:34.037633
1565  2023-12-01 11:44:34.084644
1566  2023-12-01 11:44:34.114594
1567  2023-12-01 11:44:34.160278
1568  2023-12-01 11:44:34.207709
1569  2023-12-01 11:44:34.238852
1570  2023-12-01 11:44:34.285057
1571  2023-12-01 11:44:34.332440
1572  2023-12-01 11:44:34.364175
1573  2023-12-01 11:44:34.410630
1574  2023-12-01 11:44:34.457591
1575  2023-12-01 11:44:34.488053
1576  2023-12-01 11:44:34.534730
1577  2023-12-01 11:44:34.584712
1578  2023-12-01 11:44:34.627664
1579  2023-12-01 11:44:34.658909
1580  2023-12-01 11:44:34.704428
1581  2023-12-01 11:44:34.751388
1582  2023-12-01 11:44:34.782771
1583  2023-12-01 11:44:34.828540
1584  2023-12-01 11:44:34.874572
1585  2023-12-01 11:44:34.905629
1586  2023-12-01 11:44:34.951781
1587  2023-12-01 11:44:34.998223
1588  2023-12-01 11:44:35.044959
1589  2023-12-01 11:44:35.076023
1590  2023-12-01 11:44:35.122011
1591  2023-12-01 11:44:35.168582
1592  2023-12-01 11:44:35.199725
1593  2023-12-01 11:44:35.247344
1594  2023-12-01 11:44:35.293235
1595  2023-12-01 11:44:35.324251
1596  2023-12-01 11:44:35.371178
1597  2023-12-01 11:44:35.417555
1598  2023-12-01 11:44:35.448599
1599  2023-12-01 11:44:35.495273
1600  2023-12-01 11:44:35.542651
1601  2023-12-01 11:44:35.573708
1602  2023-12-01 11:44:35.621442
1603  2023-12-01 11:44:35.666560
1604  2023-12-01 11:44:35.697914
1605  2023-12-01 11:44:35.744464
1606  2023-12-01 11:44:35.791604
1607  2023-12-01 11:44:35.822293
1608  2023-12-01 11:44:35.868511
1609  2023-12-01 11:44:35.915608
1610  2023-12-01 11:44:35.947480
1611  2023-12-01 11:44:35.994617
1612  2023-12-01 11:44:36.040683
1613  2023-12-01 11:44:36.072096
1614  2023-12-01 11:44:36.118494
1615  2023-12-01 11:44:36.164777
1616  2023-12-01 11:44:36.212289
1617  2023-12-01 11:44:36.241853
1618  2023-12-01 11:44:36.288538
1619  2023-12-01 11:44:36.335242
1620  2023-12-01 11:44:36.365088
1621  2023-12-01 11:44:36.411669
1622  2023-12-01 11:44:36.457506
1623  2023-12-01 11:44:36.489018
1624  2023-12-01 11:44:36.535170
1625  2023-12-01 11:44:36.581646
1626  2023-12-01 11:44:36.627586
1627  2023-12-01 11:44:36.661058
1628  2023-12-01 11:44:36.707082
1629  2023-12-01 11:44:36.737934
1630  2023-12-01 11:44:36.783875
1631  2023-12-01 11:44:36.830245
1632  2023-12-01 11:44:36.877177
1633  2023-12-01 11:44:36.908737
1634  2023-12-01 11:44:36.955227
1635  2023-12-01 11:44:37.002846
1636  2023-12-01 11:44:37.032920
1637  2023-12-01 11:44:37.078669
1638  2023-12-01 11:44:37.126301
1639  2023-12-01 11:44:37.157020
1640  2023-12-01 11:44:37.204442
1641  2023-12-01 11:44:37.252211
1642  2023-12-01 11:44:37.283096
1643  2023-12-01 11:44:37.329389
1644  2023-12-01 11:44:37.376675
1645  2023-12-01 11:44:37.407680
1646  2023-12-01 11:44:37.453934
1647  2023-12-01 11:44:37.500205
1648  2023-12-01 11:44:37.531713
1649  2023-12-01 11:44:37.578284
1650  2023-12-01 11:44:37.624170
1651  2023-12-01 11:44:37.654648
1652  2023-12-01 11:44:37.701684
1653  2023-12-01 11:44:37.748600
1654  2023-12-01 11:44:37.780328
1655  2023-12-01 11:44:37.827998
1656  2023-12-01 11:44:37.872413
1657  2023-12-01 11:44:37.919610
1658  2023-12-01 11:44:37.950933
1659  2023-12-01 11:44:37.996771
1660  2023-12-01 11:44:38.043842
1661  2023-12-01 11:44:38.074165
1662  2023-12-01 11:44:38.120624
1663  2023-12-01 11:44:38.167269
1664  2023-12-01 11:44:38.197730
1665  2023-12-01 11:44:38.244801
1666  2023-12-01 11:44:38.292251
1667  2023-12-01 11:44:38.322539
1668  2023-12-01 11:44:38.368893
1669  2023-12-01 11:44:38.415592
1670  2023-12-01 11:44:38.461489
1671  2023-12-01 11:44:38.492844
1672  2023-12-01 11:44:38.539830
1673  2023-12-01 11:44:38.571619
1674  2023-12-01 11:44:38.618759
1675  2023-12-01 11:44:38.665374
1676  2023-12-01 11:44:38.696691
1677  2023-12-01 11:44:38.743579
1678  2023-12-01 11:44:38.790282
1679  2023-12-01 11:44:38.821718
1680  2023-12-01 11:44:38.868629
1681  2023-12-01 11:44:38.916165
1682  2023-12-01 11:44:38.947675
1683  2023-12-01 11:44:38.993686
1684  2023-12-01 11:44:39.039680
1685  2023-12-01 11:44:39.072106
1686  2023-12-01 11:44:39.117723
1687  2023-12-01 11:44:39.163709
1688  2023-12-01 11:44:39.210621
1689  2023-12-01 11:44:39.241604
1690  2023-12-01 11:44:39.288552
1691  2023-12-01 11:44:39.334402
1692  2023-12-01 11:44:39.366304
1693  2023-12-01 11:44:39.411951
1694  2023-12-01 11:44:39.458186
1695  2023-12-01 11:44:39.491434
1696  2023-12-01 11:44:39.535797
1697  2023-12-01 11:44:39.583015
1698  2023-12-01 11:44:39.613891
1699  2023-12-01 11:44:39.659997
1700  2023-12-01 11:44:39.707949
1701  2023-12-01 11:44:39.738615
1702  2023-12-01 11:44:39.785480
1703  2023-12-01 11:44:39.832198
1704  2023-12-01 11:44:39.877204
1705  2023-12-01 11:44:39.909172
1706  2023-12-01 11:44:39.956955
1707  2023-12-01 11:44:39.990097
1708  2023-12-01 11:44:40.035408
1709  2023-12-01 11:44:40.083808
1710  2023-12-01 11:44:40.114775
1711  2023-12-01 11:44:40.163112
1712  2023-12-01 11:44:40.207479
1713  2023-12-01 11:44:40.237990
1714  2023-12-01 11:44:40.285059
1715  2023-12-01 11:44:40.331043
1716  2023-12-01 11:44:40.377618
1717  2023-12-01 11:44:40.408196
1718  2023-12-01 11:44:40.455520
1719  2023-12-01 11:44:40.501829
1720  2023-12-01 11:44:40.531867
1721  2023-12-01 11:44:40.578907
1722  2023-12-01 11:44:40.627027
1723  2023-12-01 11:44:40.655868
1724  2023-12-01 11:44:40.703137
1725  2023-12-01 11:44:40.749849
1726  2023-12-01 11:44:40.780981
1727  2023-12-01 11:44:40.827918
1728  2023-12-01 11:44:40.875587
1729  2023-12-01 11:44:40.905971
1730  2023-12-01 11:44:40.952493
1731  2023-12-01 11:44:40.998684
1732  2023-12-01 11:44:41.030709
1733  2023-12-01 11:44:41.078797
1734  2023-12-01 11:44:41.125461
1735  2023-12-01 11:44:41.156784
1736  2023-12-01 11:44:41.205121
1737  2023-12-01 11:44:41.253715
1738  2023-12-01 11:44:41.283604
1739  2023-12-01 11:44:41.332615
1740  2023-12-01 11:44:41.364294
1741  2023-12-01 11:44:41.409092
1742  2023-12-01 11:44:41.455187
1743  2023-12-01 11:44:41.501578
1744  2023-12-01 11:44:41.532349
1745  2023-12-01 11:44:41.579224
1746  2023-12-01 11:44:41.625295
1747  2023-12-01 11:44:41.656353
1748  2023-12-01 11:44:41.703318
1749  2023-12-01 11:44:41.749376
1750  2023-12-01 11:44:41.779972
1751  2023-12-01 11:44:41.826608
1752  2023-12-01 11:44:41.873665
1753  2023-12-01 11:44:41.918897
1754  2023-12-01 11:44:41.950201
1755  2023-12-01 11:44:41.997008
1756  2023-12-01 11:44:42.044633
1757  2023-12-01 11:44:42.075675
1758  2023-12-01 11:44:42.122844
1759  2023-12-01 11:44:42.154955
1760  2023-12-01 11:44:42.201515
1761  2023-12-01 11:44:42.248331
1762  2023-12-01 11:44:42.279601
1763  2023-12-01 11:44:42.326354
1764  2023-12-01 11:44:42.373099
1765  2023-12-01 11:44:42.419595
1766  2023-12-01 11:44:42.451265
1767  2023-12-01 11:44:42.497923
1768  2023-12-01 11:44:42.542515
1769  2023-12-01 11:44:42.573095
1770  2023-12-01 11:44:42.620638
1771  2023-12-01 11:44:42.668388
1772  2023-12-01 11:44:42.699334
1773  2023-12-01 11:44:42.745040
1774  2023-12-01 11:44:42.791670
1775  2023-12-01 11:44:42.822117
1776  2023-12-01 11:44:42.868827
1777  2023-12-01 11:44:42.914728
1778  2023-12-01 11:44:42.961609
1779  2023-12-01 11:44:42.991731
1780  2023-12-01 11:44:43.038331
1781  2023-12-01 11:44:43.086241
1782  2023-12-01 11:44:43.117817
1783  2023-12-01 11:44:43.164364
1784  2023-12-01 11:44:43.211243
1785  2023-12-01 11:44:43.242479
1786  2023-12-01 11:44:43.289750
1787  2023-12-01 11:44:43.336168
1788  2023-12-01 11:44:43.367090
1789  2023-12-01 11:44:43.413429
1790  2023-12-01 11:44:43.459600
1791  2023-12-01 11:44:43.491351
1792  2023-12-01 11:44:43.536404
1793  2023-12-01 11:44:43.582463
1794  2023-12-01 11:44:43.612839
1795  2023-12-01 11:44:43.659794
1796  2023-12-01 11:44:43.706589
1797  2023-12-01 11:44:43.752491
1798  2023-12-01 11:44:43.784969
1799  2023-12-01 11:44:43.830338
1800  2023-12-01 11:44:43.877487
1801  2023-12-01 11:44:43.908882
1802  2023-12-01 11:44:43.955821
1803  2023-12-01 11:44:44.002477
1804  2023-12-01 11:44:44.034249
1805  2023-12-01 11:44:44.081997
1806  2023-12-01 11:44:44.126252
1807  2023-12-01 11:44:44.157192
1808  2023-12-01 11:44:44.204187
1809  2023-12-01 11:44:44.249195
1810  2023-12-01 11:44:44.280372
1811  2023-12-01 11:44:44.326269
1812  2023-12-01 11:44:44.372826
1813  2023-12-01 11:44:44.418497
1814  2023-12-01 11:44:44.450542
1815  2023-12-01 11:44:44.496990
1816  2023-12-01 11:44:44.542680
1817  2023-12-01 11:44:44.573176
1818  2023-12-01 11:44:44.619851
1819  2023-12-01 11:44:44.665979
1820  2023-12-01 11:44:44.697143
1821  2023-12-01 11:44:44.744517
1822  2023-12-01 11:44:44.791553
1823  2023-12-01 11:44:44.822514
1824  2023-12-01 11:44:44.870173
1825  2023-12-01 11:44:44.916754
1826  2023-12-01 11:44:44.947190
1827  2023-12-01 11:44:44.993712
1828  2023-12-01 11:44:45.041494
1829  2023-12-01 11:44:45.085713
1830  2023-12-01 11:44:45.117206
1831  2023-12-01 11:44:45.163587
1832  2023-12-01 11:44:45.210219
1833  2023-12-01 11:44:45.241781
1834  2023-12-01 11:44:45.288025
1835  2023-12-01 11:44:45.334123
1836  2023-12-01 11:44:45.365131
1837  2023-12-01 11:44:45.411009
1838  2023-12-01 11:44:45.458131
1839  2023-12-01 11:44:45.488990
1840  2023-12-01 11:44:45.535987
1841  2023-12-01 11:44:45.582317
1842  2023-12-01 11:44:45.627960
1843  2023-12-01 11:44:45.659137
1844  2023-12-01 11:44:45.705637
1845  2023-12-01 11:44:45.751125
1846  2023-12-01 11:44:45.782450
1847  2023-12-01 11:44:45.828623
1848  2023-12-01 11:44:45.874809
1849  2023-12-01 11:44:45.906761
1850  2023-12-01 11:44:45.954916
1851  2023-12-01 11:44:46.001495
1852  2023-12-01 11:44:46.031716
1853  2023-12-01 11:44:46.078135
1854  2023-12-01 11:44:46.124136
1855  2023-12-01 11:44:46.154886
1856  2023-12-01 11:44:46.201900
1857  2023-12-01 11:44:46.248567
1858  2023-12-01 11:44:46.280055
1859  2023-12-01 11:44:46.325990
1860  2023-12-01 11:44:46.372188
1861  2023-12-01 11:44:46.419624
1862  2023-12-01 11:44:46.451545
1863  2023-12-01 11:44:46.498918
1864  2023-12-01 11:44:46.529640
1865  2023-12-01 11:44:46.577320
1866  2023-12-01 11:44:46.625369
1867  2023-12-01 11:44:46.656562
1868  2023-12-01 11:44:46.700030
1869  2023-12-01 11:44:46.746879
1870  2023-12-01 11:44:46.792620
1871  2023-12-01 11:44:46.823596
1872  2023-12-01 11:44:46.869882
1873  2023-12-01 11:44:46.917541
1874  2023-12-01 11:44:46.948684
1875  2023-12-01 11:44:46.996447
1876  2023-12-01 11:44:47.043738
1877  2023-12-01 11:44:47.074276
1878  2023-12-01 11:44:47.120475
1879  2023-12-01 11:44:47.166821
1880  2023-12-01 11:44:47.196631
1881  2023-12-01 11:44:47.243700
1882  2023-12-01 11:44:47.290918
1883  2023-12-01 11:44:47.322774
1884  2023-12-01 11:44:47.369111
1885  2023-12-01 11:44:47.415161
1886  2023-12-01 11:44:47.446478
1887  2023-12-01 11:44:47.492233
1888  2023-12-01 11:44:47.539458
1889  2023-12-01 11:44:47.571340
1890  2023-12-01 11:44:47.617284
1891  2023-12-01 11:44:47.663189
1892  2023-12-01 11:44:47.709045
1893  2023-12-01 11:44:47.740841
1894  2023-12-01 11:44:47.787649
1895  2023-12-01 11:44:47.833534
1896  2023-12-01 11:44:47.864600
1897  2023-12-01 11:44:47.910795
1898  2023-12-01 11:44:47.956842
1899  2023-12-01 11:44:48.002914
1900  2023-12-01 11:44:48.034539
1901  2023-12-01 11:44:48.082777
1902  2023-12-01 11:44:48.113718
1903  2023-12-01 11:44:48.161168
1904  2023-12-01 11:44:48.208111
1905  2023-12-01 11:44:48.239600
1906  2023-12-01 11:44:48.285656
1907  2023-12-01 11:44:48.332275
1908  2023-12-01 11:44:48.363755
1909  2023-12-01 11:44:48.410999
1910  2023-12-01 11:44:48.456880
1911  2023-12-01 11:44:48.502498
1912  2023-12-01 11:44:48.532752
1913  2023-12-01 11:44:48.578827
1914  2023-12-01 11:44:48.626790
1915  2023-12-01 11:44:48.656833
1916  2023-12-01 11:44:48.702717
1917  2023-12-01 11:44:48.751633
1918  2023-12-01 11:44:48.780907
1919  2023-12-01 11:44:48.828629
1920  2023-12-01 11:44:48.873648
1921  2023-12-01 11:44:48.905189
1922  2023-12-01 11:44:48.951905
1923  2023-12-01 11:44:48.997468
1924  2023-12-01 11:44:49.043703
1925  2023-12-01 11:44:49.075635
1926  2023-12-01 11:44:49.122691
1927  2023-12-01 11:44:49.169547
1928  2023-12-01 11:44:49.201061
1929  2023-12-01 11:44:49.248932
1930  2023-12-01 11:44:49.280048
1931  2023-12-01 11:44:49.327247
1932  2023-12-01 11:44:49.375610
1933  2023-12-01 11:44:49.419678
1934  2023-12-01 11:44:49.450882
1935  2023-12-01 11:44:49.497583
1936  2023-12-01 11:44:49.529527
1937  2023-12-01 11:44:49.575606
1938  2023-12-01 11:44:49.622725
1939  2023-12-01 11:44:49.668594
1940  2023-12-01 11:44:49.699145
1941  2023-12-01 11:44:49.746861
1942  2023-12-01 11:44:49.794344
1943  2023-12-01 11:44:49.824952
1944  2023-12-01 11:44:49.871585
1945  2023-12-01 11:44:49.917184
1946  2023-12-01 11:44:49.948175
1947  2023-12-01 11:44:49.995721
1948  2023-12-01 11:44:50.041054
1949  2023-12-01 11:44:50.071654
1950  2023-12-01 11:44:50.117651
1951  2023-12-01 11:44:50.163863
1952  2023-12-01 11:44:50.210110
1953  2023-12-01 11:44:50.241048
1954  2023-12-01 11:44:50.287135
1955  2023-12-01 11:44:50.333230
1956  2023-12-01 11:44:50.363854
1957  2023-12-01 11:44:50.410991
1958  2023-12-01 11:44:50.457190
1959  2023-12-01 11:44:50.488062
1960  2023-12-01 11:44:50.534504
1961  2023-12-01 11:44:50.581093
1962  2023-12-01 11:44:50.627379
1963  2023-12-01 11:44:50.658323
1964  2023-12-01 11:44:50.705344
1965  2023-12-01 11:44:50.751455
1966  2023-12-01 11:44:50.781789
1967  2023-12-01 11:44:50.828141
1968  2023-12-01 11:44:50.874622
1969  2023-12-01 11:44:50.906030
1970  2023-12-01 11:44:50.953616
1971  2023-12-01 11:44:50.999356
1972  2023-12-01 11:44:51.029642
1973  2023-12-01 11:44:51.076597
1974  2023-12-01 11:44:51.123616
1975  2023-12-01 11:44:51.169426
1976  2023-12-01 11:44:51.200396
1977  2023-12-01 11:44:51.247760
1978  2023-12-01 11:44:51.294310
1979  2023-12-01 11:44:51.323742
1980  2023-12-01 11:44:51.370537
1981  2023-12-01 11:44:51.418754
1982  2023-12-01 11:44:51.450822
1983  2023-12-01 11:44:51.496523
1984  2023-12-01 11:44:51.542352
1985  2023-12-01 11:44:51.572685
1986  2023-12-01 11:44:51.618785
1987  2023-12-01 11:44:51.665629
1988  2023-12-01 11:44:51.710633
1989  2023-12-01 11:44:51.742479
1990  2023-12-01 11:44:51.788635
1991  2023-12-01 11:44:51.834605
1992  2023-12-01 11:44:51.866588
1993  2023-12-01 11:44:51.913008
1994  2023-12-01 11:44:51.960504
1995  2023-12-01 11:44:51.992623
1996  2023-12-01 11:44:52.039342
1997  2023-12-01 11:44:52.086301
1998  2023-12-01 11:44:52.115891
1999  2023-12-01 11:44:52.163395
2000  2023-12-01 11:44:52.210618
2001  2023-12-01 11:44:52.241252
2002  2023-12-01 11:44:52.288378
2003  2023-12-01 11:44:52.335117
2004  2023-12-01 11:44:52.365777
2005  2023-12-01 11:44:52.411829
2006  2023-12-01 11:44:52.458863
2007  2023-12-01 11:44:52.490865
2008  2023-12-01 11:44:52.536601
2009  2023-12-01 11:44:52.583141
2010  2023-12-01 11:44:52.613860
2011  2023-12-01 11:44:52.659611
2012  2023-12-01 11:44:52.706493
2013  2023-12-01 11:44:52.751869
2014  2023-12-01 11:44:52.784832
2015  2023-12-01 11:44:52.831004
2016  2023-12-01 11:44:52.878671
2017  2023-12-01 11:44:52.909586
2018  2023-12-01 11:44:52.954940
2019  2023-12-01 11:44:53.002564
2020  2023-12-01 11:44:53.034893
2021  2023-12-01 11:44:53.081726
2022  2023-12-01 11:44:53.113498
2023  2023-12-01 11:44:53.158765
2024  2023-12-01 11:44:53.205893
2025  2023-12-01 11:44:53.251589
2026  2023-12-01 11:44:53.282909
2027  2023-12-01 11:44:53.329848
2028  2023-12-01 11:44:53.377085
2029  2023-12-01 11:44:53.408276
2030  2023-12-01 11:44:53.454798
2031  2023-12-01 11:44:53.503307
2032  2023-12-01 11:44:53.535259
2033  2023-12-01 11:44:53.582420
2034  2023-12-01 11:44:53.626856
2035  2023-12-01 11:44:53.657766
2036  2023-12-01 11:44:53.704269
2037  2023-12-01 11:44:53.751272
2038  2023-12-01 11:44:53.781674
2039  2023-12-01 11:44:53.828799
2040  2023-12-01 11:44:53.876061
2041  2023-12-01 11:44:53.906673
2042  2023-12-01 11:44:53.953854
2043  2023-12-01 11:44:54.000128
2044  2023-12-01 11:44:54.031341
2045  2023-12-01 11:44:54.078142
2046  2023-12-01 11:44:54.125298
2047  2023-12-01 11:44:54.157324
2048  2023-12-01 11:44:54.202665
2049  2023-12-01 11:44:54.249464
2050  2023-12-01 11:44:54.279715
2051  2023-12-01 11:44:54.326608
2052  2023-12-01 11:44:54.372891
2053  2023-12-01 11:44:54.419602
2054  2023-12-01 11:44:54.450380
2055  2023-12-01 11:44:54.496526
2056  2023-12-01 11:44:54.543397
2057  2023-12-01 11:44:54.573896
2058  2023-12-01 11:44:54.620336
2059  2023-12-01 11:44:54.666531
2060  2023-12-01 11:44:54.697878
2061  2023-12-01 11:44:54.744520
2062  2023-12-01 11:44:54.791089
2063  2023-12-01 11:44:54.822409
2064  2023-12-01 11:44:54.869955
2065  2023-12-01 11:44:54.915704
2066  2023-12-01 11:44:54.947776
2067  2023-12-01 11:44:54.993687
2068  2023-12-01 11:44:55.040959
2069  2023-12-01 11:44:55.073470
2070  2023-12-01 11:44:55.118752
2071  2023-12-01 11:44:55.166937
2072  2023-12-01 11:44:55.199083
2073  2023-12-01 11:44:55.244860
2074  2023-12-01 11:44:55.292922
2075  2023-12-01 11:44:55.322653
2076  2023-12-01 11:44:55.369608
2077  2023-12-01 11:44:55.417120
2078  2023-12-01 11:44:55.448113
2079  2023-12-01 11:44:55.495959
2080  2023-12-01 11:44:55.544222
2081  2023-12-01 11:44:55.575207
2082  2023-12-01 11:44:55.622048
2083  2023-12-01 11:44:55.668889
2084  2023-12-01 11:44:55.699699
2085  2023-12-01 11:44:55.746445
2086  2023-12-01 11:44:55.793842
2087  2023-12-01 11:44:55.825701
2088  2023-12-01 11:44:55.873577
2089  2023-12-01 11:44:55.905094
2090  2023-12-01 11:44:55.952964
2091  2023-12-01 11:44:55.999818
2092  2023-12-01 11:44:56.030473
2093  2023-12-01 11:44:56.077500
2094  2023-12-01 11:44:56.122448
2095  2023-12-01 11:44:56.168751
2096  2023-12-01 11:44:56.199886
2097  2023-12-01 11:44:56.246258
2098  2023-12-01 11:44:56.293306
2099  2023-12-01 11:44:56.323813
2100  2023-12-01 11:44:56.370599
2101  2023-12-01 11:44:56.416515
2102  2023-12-01 11:44:56.448077
2103  2023-12-01 11:44:56.495755
2104  2023-12-01 11:44:56.542258
2105  2023-12-01 11:44:56.572023
2106  2023-12-01 11:44:56.618011
2107  2023-12-01 11:44:56.664058
2108  2023-12-01 11:44:56.711000
2109  2023-12-01 11:44:56.741850
2110  2023-12-01 11:44:56.789310
2111  2023-12-01 11:44:56.821350
2112  2023-12-01 11:44:56.867843
2113  2023-12-01 11:44:56.914047
2114  2023-12-01 11:44:56.960440
2115  2023-12-01 11:44:56.992214
2116  2023-12-01 11:44:57.039478
2117  2023-12-01 11:44:57.086605
2118  2023-12-01 11:44:57.117387
2119  2023-12-01 11:44:57.163853
2120  2023-12-01 11:44:57.212095
2121  2023-12-01 11:44:57.244634
2122  2023-12-01 11:44:57.289725
2123  2023-12-01 11:44:57.335810
2124  2023-12-01 11:44:57.366806
2125  2023-12-01 11:44:57.413144
2126  2023-12-01 11:44:57.459448
2127  2023-12-01 11:44:57.490739
2128  2023-12-01 11:44:57.536766
2129  2023-12-01 11:44:57.583770
2130  2023-12-01 11:44:57.614742
2131  2023-12-01 11:44:57.661799
2132  2023-12-01 11:44:57.708597
2133  2023-12-01 11:44:57.739807
2134  2023-12-01 11:44:57.787858
2135  2023-12-01 11:44:57.832924
2136  2023-12-01 11:44:57.863962
2137  2023-12-01 11:44:57.911616
2138  2023-12-01 11:44:57.957984
2139  2023-12-01 11:44:57.989393
2140  2023-12-01 11:44:58.036925
2141  2023-12-01 11:44:58.082618
2142  2023-12-01 11:44:58.128535
2143  2023-12-01 11:44:58.158926
2144  2023-12-01 11:44:58.205438
2145  2023-12-01 11:44:58.252145
2146  2023-12-01 11:44:58.284223
2147  2023-12-01 11:44:58.332425
2148  2023-12-01 11:44:58.379704
2149  2023-12-01 11:44:58.408017
2150  2023-12-01 11:44:58.454884
2151  2023-12-01 11:44:58.501533
2152  2023-12-01 11:44:58.532831
2153  2023-12-01 11:44:58.580153
2154  2023-12-01 11:44:58.626233
2155  2023-12-01 11:44:58.657212
2156  2023-12-01 11:44:58.703522
2157  2023-12-01 11:44:58.749443
2158  2023-12-01 11:44:58.782677
2159  2023-12-01 11:44:58.827609
2160  2023-12-01 11:44:58.874672
2161  2023-12-01 11:44:58.904590
2162  2023-12-01 11:44:58.950940
2163  2023-12-01 11:44:58.997954
2164  2023-12-01 11:44:59.044680
2165  2023-12-01 11:44:59.074809
2166  2023-12-01 11:44:59.122111
2167  2023-12-01 11:44:59.167579
2168  2023-12-01 11:44:59.198837
2169  2023-12-01 11:44:59.246751
2170  2023-12-01 11:44:59.294618
2171  2023-12-01 11:44:59.327556
2172  2023-12-01 11:44:59.371608
2173  2023-12-01 11:44:59.419205
2174  2023-12-01 11:44:59.451463
2175  2023-12-01 11:44:59.495398
2176  2023-12-01 11:44:59.542807
2177  2023-12-01 11:44:59.574897
2178  2023-12-01 11:44:59.621729
2179  2023-12-01 11:44:59.668659
2180  2023-12-01 11:44:59.697844
2181  2023-12-01 11:44:59.744683
2182  2023-12-01 11:44:59.791498
2183  2023-12-01 11:44:59.823512
2184  2023-12-01 11:44:59.870252
2185  2023-12-01 11:44:59.917527
2186  2023-12-01 11:44:59.948604
2187  2023-12-01 11:44:59.994821
2188  2023-12-01 11:45:00.042569
2189  2023-12-01 11:45:00.071636
2190  2023-12-01 11:45:00.118739
2191  2023-12-01 11:45:00.164548
2192  2023-12-01 11:45:00.211023
2193  2023-12-01 11:45:00.242009
2194  2023-12-01 11:45:00.288020
2195  2023-12-01 11:45:00.334876
2196  2023-12-01 11:45:00.365650
2197  2023-12-01 11:45:00.413856
2198  2023-12-01 11:45:00.463130
2199  2023-12-01 11:45:00.493102
2200  2023-12-01 11:45:00.539582
2201  2023-12-01 11:45:00.586020
2202  2023-12-01 11:45:00.616079
2203  2023-12-01 11:45:00.662631
2204  2023-12-01 11:45:00.709856
2205  2023-12-01 11:45:00.740869
2206  2023-12-01 11:45:00.786928
2207  2023-12-01 11:45:00.833062
2208  2023-12-01 11:45:00.863773
2209  2023-12-01 11:45:00.911161
2210  2023-12-01 11:45:00.958347
2211  2023-12-01 11:45:00.988779
2212  2023-12-01 11:45:01.035418
2213  2023-12-01 11:45:01.082933
2214  2023-12-01 11:45:01.114252
2215  2023-12-01 11:45:01.161942
2216  2023-12-01 11:45:01.207124
2217  2023-12-01 11:45:01.253168
2218  2023-12-01 11:45:01.283788
2219  2023-12-01 11:45:01.330316
2220  2023-12-01 11:45:01.377640
2221  2023-12-01 11:45:01.408615
2222  2023-12-01 11:45:01.454791
2223  2023-12-01 11:45:01.502518
2224  2023-12-01 11:45:01.532750
2225  2023-12-01 11:45:01.580648
2226  2023-12-01 11:45:01.628258
2227  2023-12-01 11:45:01.659333
2228  2023-12-01 11:45:01.707118
2229  2023-12-01 11:45:01.753752
2230  2023-12-01 11:45:01.784596
2231  2023-12-01 11:45:01.830669
2232  2023-12-01 11:45:01.876860
2233  2023-12-01 11:45:01.906978
2234  2023-12-01 11:45:01.953771
2235  2023-12-01 11:45:02.001786
2236  2023-12-01 11:45:02.033521
2237  2023-12-01 11:45:02.079540
2238  2023-12-01 11:45:02.126117
2239  2023-12-01 11:45:02.156697
2240  2023-12-01 11:45:02.204539
2241  2023-12-01 11:45:02.252435
2242  2023-12-01 11:45:02.283303
2243  2023-12-01 11:45:02.330890
2244  2023-12-01 11:45:02.377834
2245  2023-12-01 11:45:02.407843
2246  2023-12-01 11:45:02.453869
2247  2023-12-01 11:45:02.499510
2248  2023-12-01 11:45:02.529957
2249  2023-12-01 11:45:02.577276
2250  2023-12-01 11:45:02.624004
2251  2023-12-01 11:45:02.656250
2252  2023-12-01 11:45:02.703276
2253  2023-12-01 11:45:02.751292
2254  2023-12-01 11:45:02.781192
2255  2023-12-01 11:45:02.829048
2256  2023-12-01 11:45:02.875596
2257  2023-12-01 11:45:02.906618
2258  2023-12-01 11:45:02.953696
2259  2023-12-01 11:45:03.001486
2260  2023-12-01 11:45:03.030477
2261  2023-12-01 11:45:03.076830
2262  2023-12-01 11:45:03.122855
2263  2023-12-01 11:45:03.169709
2264  2023-12-01 11:45:03.200568
2265  2023-12-01 11:45:03.247598
2266  2023-12-01 11:45:03.293370
2267  2023-12-01 11:45:03.324481
2268  2023-12-01 11:45:03.371832
2269  2023-12-01 11:45:03.418909
2270  2023-12-01 11:45:03.449543
2271  2023-12-01 11:45:03.497987
2272  2023-12-01 11:45:03.543593
2273  2023-12-01 11:45:03.575019
2274  2023-12-01 11:45:03.621123
2275  2023-12-01 11:45:03.666820
2276  2023-12-01 11:45:03.697593
2277  2023-12-01 11:45:03.744114
2278  2023-12-01 11:45:03.789811
2279  2023-12-01 11:45:03.835967
2280  2023-12-01 11:45:03.866883
2281  2023-12-01 11:45:03.913251
2282  2023-12-01 11:45:03.962707
2283  2023-12-01 11:45:03.991533
2284  2023-12-01 11:45:04.037624
2285  2023-12-01 11:45:04.084822
2286  2023-12-01 11:45:04.115515
2287  2023-12-01 11:45:04.162335
2288  2023-12-01 11:45:04.209032
2289  2023-12-01 11:45:04.239625
2290  2023-12-01 11:45:04.285612
2291  2023-12-01 11:45:04.333157
2292  2023-12-01 11:45:04.364327
2293  2023-12-01 11:45:04.412055
2294  2023-12-01 11:45:04.458812
2295  2023-12-01 11:45:04.489524
2296  2023-12-01 11:45:04.537256
2297  2023-12-01 11:45:04.581993
2298  2023-12-01 11:45:04.613212
2299  2023-12-01 11:45:04.658882
2300  2023-12-01 11:45:04.705493
2301  2023-12-01 11:45:04.751488
2302  2023-12-01 11:45:04.781940
2303  2023-12-01 11:45:04.827514
2304  2023-12-01 11:45:04.874755
2305  2023-12-01 11:45:04.905616
2306  2023-12-01 11:45:04.950707
2307  2023-12-01 11:45:04.998569
2308  2023-12-01 11:45:05.030484
2309  2023-12-01 11:45:05.077367
2310  2023-12-01 11:45:05.123917
2311  2023-12-01 11:45:05.155006
2312  2023-12-01 11:45:05.201556
2313  2023-12-01 11:45:05.247826
2314  2023-12-01 11:45:05.294387
2315  2023-12-01 11:45:05.324790
2316  2023-12-01 11:45:05.371684
2317  2023-12-01 11:45:05.418350
2318  2023-12-01 11:45:05.450175
2319  2023-12-01 11:45:05.497024
2320  2023-12-01 11:45:05.544938
2321  2023-12-01 11:45:05.574744
2322  2023-12-01 11:45:05.620844
2323  2023-12-01 11:45:05.667274
2324  2023-12-01 11:45:05.698364
2325  2023-12-01 11:45:05.745778
2326  2023-12-01 11:45:05.792326
2327  2023-12-01 11:45:05.823212
2328  2023-12-01 11:45:05.868946
2329  2023-12-01 11:45:05.916997
2330  2023-12-01 11:45:05.947886
2331  2023-12-01 11:45:05.996566
2332  2023-12-01 11:45:06.041915
2333  2023-12-01 11:45:06.074265
2334  2023-12-01 11:45:06.120701
2335  2023-12-01 11:45:06.165607
2336  2023-12-01 11:45:06.197614
2337  2023-12-01 11:45:06.243075
2338  2023-12-01 11:45:06.289897
2339  2023-12-01 11:45:06.336083
2340  2023-12-01 11:45:06.367521
2341  2023-12-01 11:45:06.413420
2342  2023-12-01 11:45:06.459589
2343  2023-12-01 11:45:06.491809
2344  2023-12-01 11:45:06.537785
2345  2023-12-01 11:45:06.585090
2346  2023-12-01 11:45:06.616300
2347  2023-12-01 11:45:06.663327
2348  2023-12-01 11:45:06.709796
2349  2023-12-01 11:45:06.740901
2350  2023-12-01 11:45:06.787024
2351  2023-12-01 11:45:06.832552
2352  2023-12-01 11:45:06.863539
2353  2023-12-01 11:45:06.910408
2354  2023-12-01 11:45:06.957065
2355  2023-12-01 11:45:06.988610
2356  2023-12-01 11:45:07.034563
2357  2023-12-01 11:45:07.081953
2358  2023-12-01 11:45:07.127491
2359  2023-12-01 11:45:07.159706
2360  2023-12-01 11:45:07.204613
2361  2023-12-01 11:45:07.250185
2362  2023-12-01 11:45:07.282248
2363  2023-12-01 11:45:07.328905
2364  2023-12-01 11:45:07.375787
2365  2023-12-01 11:45:07.406540
2366  2023-12-01 11:45:07.453092
2367  2023-12-01 11:45:07.499045
2368  2023-12-01 11:45:07.530437
2369  2023-12-01 11:45:07.577262
2370  2023-12-01 11:45:07.624242
2371  2023-12-01 11:45:07.655638
2372  2023-12-01 11:45:07.702735
2373  2023-12-01 11:45:07.749037
2374  2023-12-01 11:45:07.779812
2375  2023-12-01 11:45:07.826041
2376  2023-12-01 11:45:07.872788
2377  2023-12-01 11:45:07.919559
2378  2023-12-01 11:45:07.950589
2379  2023-12-01 11:45:07.995849
2380  2023-12-01 11:45:08.042638
2381  2023-12-01 11:45:08.073998
2382  2023-12-01 11:45:08.122109
2383  2023-12-01 11:45:08.167540
2384  2023-12-01 11:45:08.201699
2385  2023-12-01 11:45:08.247725
2386  2023-12-01 11:45:08.294015
2387  2023-12-01 11:45:08.322998
2388  2023-12-01 11:45:08.369110
2389  2023-12-01 11:45:08.415638
2390  2023-12-01 11:45:08.447026
2391  2023-12-01 11:45:08.493290
2392  2023-12-01 11:45:08.539092
2393  2023-12-01 11:45:08.571185
2394  2023-12-01 11:45:08.617648
2395  2023-12-01 11:45:08.663158
2396  2023-12-01 11:45:08.709680
2397  2023-12-01 11:45:08.740203
2398  2023-12-01 11:45:08.787548
2399  2023-12-01 11:45:08.834309
2400  2023-12-01 11:45:08.864796
2401  2023-12-01 11:45:08.911851
2402  2023-12-01 11:45:08.958989
2403  2023-12-01 11:45:08.990088
2404  2023-12-01 11:45:09.037608
2405  2023-12-01 11:45:09.083655
2406  2023-12-01 11:45:09.115892
2407  2023-12-01 11:45:09.162830
2408  2023-12-01 11:45:09.208668
2409  2023-12-01 11:45:09.241325
2410  2023-12-01 11:45:09.286756
2411  2023-12-01 11:45:09.334918
2412  2023-12-01 11:45:09.364656
2413  2023-12-01 11:45:09.411155
2414  2023-12-01 11:45:09.457063
2415  2023-12-01 11:45:09.502411
2416  2023-12-01 11:45:09.533958
2417  2023-12-01 11:45:09.580227
2418  2023-12-01 11:45:09.627542
2419  2023-12-01 11:45:09.658700
2420  2023-12-01 11:45:09.706766
2421  2023-12-01 11:45:09.753456
2422  2023-12-01 11:45:09.783396
2423  2023-12-01 11:45:09.828853
2424  2023-12-01 11:45:09.875280
2425  2023-12-01 11:45:09.906009
2426  2023-12-01 11:45:09.952356
2427  2023-12-01 11:45:09.998419
2428  2023-12-01 11:45:10.045017
2429  2023-12-01 11:45:10.075597
2430  2023-12-01 11:45:10.121865
2431  2023-12-01 11:45:10.168461
2432  2023-12-01 11:45:10.201152
2433  2023-12-01 11:45:10.247899
2434  2023-12-01 11:45:10.294372
2435  2023-12-01 11:45:10.325448
2436  2023-12-01 11:45:10.371907
2437  2023-12-01 11:45:10.418620
2438  2023-12-01 11:45:10.450393
2439  2023-12-01 11:45:10.496792
2440  2023-12-01 11:45:10.542803
2441  2023-12-01 11:45:10.573507
2442  2023-12-01 11:45:10.620605
2443  2023-12-01 11:45:10.668860
2444  2023-12-01 11:45:10.698720
2445  2023-12-01 11:45:10.745095
2446  2023-12-01 11:45:10.791731
2447  2023-12-01 11:45:10.824150
2448  2023-12-01 11:45:10.871429
2449  2023-12-01 11:45:10.916716
2450  2023-12-01 11:45:10.947639
2451  2023-12-01 11:45:10.994899
2452  2023-12-01 11:45:11.041932
2453  2023-12-01 11:45:11.072884
2454  2023-12-01 11:45:11.119757
2455  2023-12-01 11:45:11.164938
2456  2023-12-01 11:45:11.197002
2457  2023-12-01 11:45:11.244015
2458  2023-12-01 11:45:11.291076
2459  2023-12-01 11:45:11.322040
2460  2023-12-01 11:45:11.369791
2461  2023-12-01 11:45:11.417818
2462  2023-12-01 11:45:11.448761
2463  2023-12-01 11:45:11.495544
2464  2023-12-01 11:45:11.544520
2465  2023-12-01 11:45:11.574628
2466  2023-12-01 11:45:11.620636
2467  2023-12-01 11:45:11.666887
2468  2023-12-01 11:45:11.697104
2469  2023-12-01 11:45:11.743265
2470  2023-12-01 11:45:11.789780
2471  2023-12-01 11:45:11.836173
2472  2023-12-01 11:45:11.866593
2473  2023-12-01 11:45:11.914303
2474  2023-12-01 11:45:11.961687
2475  2023-12-01 11:45:11.993648
2476  2023-12-01 11:45:12.040604
2477  2023-12-01 11:45:12.071650
2478  2023-12-01 11:45:12.119655
2479  2023-12-01 11:45:12.167519
2480  2023-12-01 11:45:12.199605
2481  2023-12-01 11:45:12.247243
2482  2023-12-01 11:45:12.294614
2483  2023-12-01 11:45:12.325847
2484  2023-12-01 11:45:12.370648
2485  2023-12-01 11:45:12.416359
2486  2023-12-01 11:45:12.447151
2487  2023-12-01 11:45:12.494719
2488  2023-12-01 11:45:12.540600
2489  2023-12-01 11:45:12.571565
2490  2023-12-01 11:45:12.617832
2491  2023-12-01 11:45:12.663905
2492  2023-12-01 11:45:12.710392
2493  2023-12-01 11:45:12.741792
2494  2023-12-01 11:45:12.791634
2495  2023-12-01 11:45:12.835718
2496  2023-12-01 11:45:12.866854
2497  2023-12-01 11:45:12.913596
2498  2023-12-01 11:45:12.961050
2499  2023-12-01 11:45:12.991471
2500  2023-12-01 11:45:13.037468
2501  2023-12-01 11:45:13.083545
2502  2023-12-01 11:45:13.115282
2503  2023-12-01 11:45:13.161825
2504  2023-12-01 11:45:13.209132
2505  2023-12-01 11:45:13.240537
2506  2023-12-01 11:45:13.286034
2507  2023-12-01 11:45:13.333627
2508  2023-12-01 11:45:13.366631
2509  2023-12-01 11:45:13.411582
2510  2023-12-01 11:45:13.458639
2511  2023-12-01 11:45:13.488748
2512  2023-12-01 11:45:13.535550
2513  2023-12-01 11:45:13.582240
2514  2023-12-01 11:45:13.613751
2515  2023-12-01 11:45:13.660836
2516  2023-12-01 11:45:13.706694
2517  2023-12-01 11:45:13.753152
2518  2023-12-01 11:45:13.784253
2519  2023-12-01 11:45:13.830905
2520  2023-12-01 11:45:13.876779
2521  2023-12-01 11:45:13.907631
2522  2023-12-01 11:45:13.954286
2523  2023-12-01 11:45:14.000504
2524  2023-12-01 11:45:14.031531
2525  2023-12-01 11:45:14.077419
2526  2023-12-01 11:45:14.124546
2527  2023-12-01 11:45:14.156603
2528  2023-12-01 11:45:14.202650
2529  2023-12-01 11:45:14.248762
2530  2023-12-01 11:45:14.297934
2531  2023-12-01 11:45:14.326840
2532  2023-12-01 11:45:14.373666
2533  2023-12-01 11:45:14.405830
2534  2023-12-01 11:45:14.450734
2535  2023-12-01 11:45:14.497057
2536  2023-12-01 11:45:14.543061
2537  2023-12-01 11:45:14.574821
2538  2023-12-01 11:45:14.620926
2539  2023-12-01 11:45:14.668506
2540  2023-12-01 11:45:14.699804
2541  2023-12-01 11:45:14.745917
2542  2023-12-01 11:45:14.792458
2543  2023-12-01 11:45:14.824563
2544  2023-12-01 11:45:14.869652
2545  2023-12-01 11:45:14.916700
2546  2023-12-01 11:45:14.949385
2547  2023-12-01 11:45:14.993164
2548  2023-12-01 11:45:15.039804
2549  2023-12-01 11:45:15.072093
2550  2023-12-01 11:45:15.118365
2551  2023-12-01 11:45:15.164841
2552  2023-12-01 11:45:15.210790
2553  2023-12-01 11:45:15.242831
2554  2023-12-01 11:45:15.289072
2555  2023-12-01 11:45:15.334590
2556  2023-12-01 11:45:15.366818
2557  2023-12-01 11:45:15.413033
2558  2023-12-01 11:45:15.462435
2559  2023-12-01 11:45:15.490824
2560  2023-12-01 11:45:15.536754
2561  2023-12-01 11:45:15.583733
2562  2023-12-01 11:45:15.614107
2563  2023-12-01 11:45:15.659967
2564  2023-12-01 11:45:15.707628
2565  2023-12-01 11:45:15.738622
2566  2023-12-01 11:45:15.784715
2567  2023-12-01 11:45:15.832826
2568  2023-12-01 11:45:15.865935
2569  2023-12-01 11:45:15.910998
2570  2023-12-01 11:45:15.958195
2571  2023-12-01 11:45:15.988846
2572  2023-12-01 11:45:16.036421
2573  2023-12-01 11:45:16.081557
2574  2023-12-01 11:45:16.127485
2575  2023-12-01 11:45:16.158907
2576  2023-12-01 11:45:16.204568
2577  2023-12-01 11:45:16.251871
2578  2023-12-01 11:45:16.281715
2579  2023-12-01 11:45:16.328593
2580  2023-12-01 11:45:16.376535
2581  2023-12-01 11:45:16.407526
2582  2023-12-01 11:45:16.455856
2583  2023-12-01 11:45:16.502664
2584  2023-12-01 11:45:16.534619
2585  2023-12-01 11:45:16.580535
2586  2023-12-01 11:45:16.626309
2587  2023-12-01 11:45:16.656913
2588  2023-12-01 11:45:16.702471
2589  2023-12-01 11:45:16.749502
2590  2023-12-01 11:45:16.780275
2591  2023-12-01 11:45:16.826809
2592  2023-12-01 11:45:16.872683
2593  2023-12-01 11:45:16.919300
2594  2023-12-01 11:45:16.950551
2595  2023-12-01 11:45:16.998454
2596  2023-12-01 11:45:17.032518
2597  2023-12-01 11:45:17.076454
2598  2023-12-01 11:45:17.125576
2599  2023-12-01 11:45:17.169544
2600  2023-12-01 11:45:17.201080
2601  2023-12-01 11:45:17.245689
2602  2023-12-01 11:45:17.292201
2603  2023-12-01 11:45:17.322846
2604  2023-12-01 11:45:17.369809
2605  2023-12-01 11:45:17.416643
2606  2023-12-01 11:45:17.447760
2607  2023-12-01 11:45:17.496588
2608  2023-12-01 11:45:17.542426
2609  2023-12-01 11:45:17.573500
2610  2023-12-01 11:45:17.620173
2611  2023-12-01 11:45:17.664940
2612  2023-12-01 11:45:17.711475
2613  2023-12-01 11:45:17.743401
2614  2023-12-01 11:45:17.789856
2615  2023-12-01 11:45:17.835858
2616  2023-12-01 11:45:17.867753
2617  2023-12-01 11:45:17.914138
2618  2023-12-01 11:45:17.961550
2619  2023-12-01 11:45:17.993241
2620  2023-12-01 11:45:18.038951
2621  2023-12-01 11:45:18.086328
2622  2023-12-01 11:45:18.117968
2623  2023-12-01 11:45:18.164509
2624  2023-12-01 11:45:18.211746
2625  2023-12-01 11:45:18.243746
2626  2023-12-01 11:45:18.289049
2627  2023-12-01 11:45:18.335340
2628  2023-12-01 11:45:18.366629
2629  2023-12-01 11:45:18.413314
2630  2023-12-01 11:45:18.459816
2631  2023-12-01 11:45:18.491015
2632  2023-12-01 11:45:18.537753
2633  2023-12-01 11:45:18.585039
2634  2023-12-01 11:45:18.615606
2635  2023-12-01 11:45:18.663790
2636  2023-12-01 11:45:18.709655
2637  2023-12-01 11:45:18.741714
2638  2023-12-01 11:45:18.788758
2639  2023-12-01 11:45:18.832832
2640  2023-12-01 11:45:18.864385
2641  2023-12-01 11:45:18.911261
2642  2023-12-01 11:45:18.958849
2643  2023-12-01 11:45:18.990025
2644  2023-12-01 11:45:19.035722
2645  2023-12-01 11:45:19.083087
2646  2023-12-01 11:45:19.114057
2647  2023-12-01 11:45:19.159776
2648  2023-12-01 11:45:19.207380
2649  2023-12-01 11:45:19.239449
2650  2023-12-01 11:45:19.286674
2651  2023-12-01 11:45:19.335622
2652  2023-12-01 11:45:19.368671
2653  2023-12-01 11:45:19.412573
2654  2023-12-01 11:45:19.461536
2655  2023-12-01 11:45:19.491372
2656  2023-12-01 11:45:19.537029
2657  2023-12-01 11:45:19.583739
2658  2023-12-01 11:45:19.614933
2659  2023-12-01 11:45:19.662649
2660  2023-12-01 11:45:19.709228
2661  2023-12-01 11:45:19.740325
2662  2023-12-01 11:45:19.786681
2663  2023-12-01 11:45:19.833094
2664  2023-12-01 11:45:19.863496
2665  2023-12-01 11:45:19.911014
2666  2023-12-01 11:45:19.957992
2667  2023-12-01 11:45:19.988291
2668  2023-12-01 11:45:20.035079
2669  2023-12-01 11:45:20.081016
2670  2023-12-01 11:45:20.127187
2671  2023-12-01 11:45:20.158965
2672  2023-12-01 11:45:20.205871
2673  2023-12-01 11:45:20.251855
2674  2023-12-01 11:45:20.283356
2675  2023-12-01 11:45:20.330405
2676  2023-12-01 11:45:20.377639
2677  2023-12-01 11:45:20.408175
2678  2023-12-01 11:45:20.455329
2679  2023-12-01 11:45:20.502158
2680  2023-12-01 11:45:20.534297
2681  2023-12-01 11:45:20.578778
2682  2023-12-01 11:45:20.627356
2683  2023-12-01 11:45:20.658630
2684  2023-12-01 11:45:20.703346
2685  2023-12-01 11:45:20.750234
2686  2023-12-01 11:45:20.780864
2687  2023-12-01 11:45:20.827290
2688  2023-12-01 11:45:20.873615
2689  2023-12-01 11:45:20.905018
2690  2023-12-01 11:45:20.950751
2691  2023-12-01 11:45:20.996453
2692  2023-12-01 11:45:21.043990
2693  2023-12-01 11:45:21.074241
2694  2023-12-01 11:45:21.120109
2695  2023-12-01 11:45:21.166808
2696  2023-12-01 11:45:21.198695
2697  2023-12-01 11:45:21.245305
2698  2023-12-01 11:45:21.291796
2699  2023-12-01 11:45:21.322880
2700  2023-12-01 11:45:21.368852
2701  2023-12-01 11:45:21.416283
2702  2023-12-01 11:45:21.447799
2703  2023-12-01 11:45:21.495663
2704  2023-12-01 11:45:21.541723
2705  2023-12-01 11:45:21.573675
2706  2023-12-01 11:45:21.620688
2707  2023-12-01 11:45:21.666736
2708  2023-12-01 11:45:21.699455
2709  2023-12-01 11:45:21.746490
2710  2023-12-01 11:45:21.795116
2711  2023-12-01 11:45:21.823686
2712  2023-12-01 11:45:21.870118
2713  2023-12-01 11:45:21.916477
2714  2023-12-01 11:45:21.948002
2715  2023-12-01 11:45:21.993511
2716  2023-12-01 11:45:22.041885
2717  2023-12-01 11:45:22.072190
2718  2023-12-01 11:45:22.118879
2719  2023-12-01 11:45:22.167704
2720  2023-12-01 11:45:22.199095
2721  2023-12-01 11:45:22.244281
2722  2023-12-01 11:45:22.292316
2723  2023-12-01 11:45:22.324099
2724  2023-12-01 11:45:22.372191
2725  2023-12-01 11:45:22.415675
2726  2023-12-01 11:45:22.447052
2727  2023-12-01 11:45:22.493878
2728  2023-12-01 11:45:22.539787
2729  2023-12-01 11:45:22.571115
2730  2023-12-01 11:45:22.617572
2731  2023-12-01 11:45:22.664324
2732  2023-12-01 11:45:22.709912
2733  2023-12-01 11:45:22.740240
2734  2023-12-01 11:45:22.786031
2735  2023-12-01 11:45:22.833280
2736  2023-12-01 11:45:22.865816
2737  2023-12-01 11:45:22.909954
2738  2023-12-01 11:45:22.956086
2739  2023-12-01 11:45:22.987909
2740  2023-12-01 11:45:23.034167
2741  2023-12-01 11:45:23.080686
2742  2023-12-01 11:45:23.127735
2743  2023-12-01 11:45:23.159071
2744  2023-12-01 11:45:23.204351
2745  2023-12-01 11:45:23.253006
2746  2023-12-01 11:45:23.283090
2747  2023-12-01 11:45:23.329832
2748  2023-12-01 11:45:23.377893
2749  2023-12-01 11:45:23.409091
2750  2023-12-01 11:45:23.455695
2751  2023-12-01 11:45:23.502644
2752  2023-12-01 11:45:23.533258
2753  2023-12-01 11:45:23.579450
2754  2023-12-01 11:45:23.627827
2755  2023-12-01 11:45:23.657888
2756  2023-12-01 11:45:23.704093
2757  2023-12-01 11:45:23.752106
2758  2023-12-01 11:45:23.783216
2759  2023-12-01 11:45:23.829391
2760  2023-12-01 11:45:23.876497
2761  2023-12-01 11:45:23.908529
2762  2023-12-01 11:45:23.955715
2763  2023-12-01 11:45:24.004459
2764  2023-12-01 11:45:24.033301
2765  2023-12-01 11:45:24.081153
2766  2023-12-01 11:45:24.127137
2767  2023-12-01 11:45:24.157711
2768  2023-12-01 11:45:24.204031
2769  2023-12-01 11:45:24.251225
2770  2023-12-01 11:45:24.281868
2771  2023-12-01 11:45:24.328472
2772  2023-12-01 11:45:24.374500
2773  2023-12-01 11:45:24.405470
2774  2023-12-01 11:45:24.451572
2775  2023-12-01 11:45:24.498423
2776  2023-12-01 11:45:24.529456
2777  2023-12-01 11:45:24.575299
2778  2023-12-01 11:45:24.621262
2779  2023-12-01 11:45:24.668831
2780  2023-12-01 11:45:24.699637
2781  2023-12-01 11:45:24.745904
2782  2023-12-01 11:45:24.792771
2783  2023-12-01 11:45:24.823855
2784  2023-12-01 11:45:24.870881
2785  2023-12-01 11:45:24.917454
2786  2023-12-01 11:45:24.948672
2787  2023-12-01 11:45:24.995456
2788  2023-12-01 11:45:25.043296
2789  2023-12-01 11:45:25.074330
2790  2023-12-01 11:45:25.121247
2791  2023-12-01 11:45:25.166771
2792  2023-12-01 11:45:25.197950
2793  2023-12-01 11:45:25.244346
2794  2023-12-01 11:45:25.290856
2795  2023-12-01 11:45:25.322911
2796  2023-12-01 11:45:25.369856
2797  2023-12-01 11:45:25.416710
2798  2023-12-01 11:45:25.448172
2799  2023-12-01 11:45:25.494346
2800  2023-12-01 11:45:25.541839
2801  2023-12-01 11:45:25.573635
2802  2023-12-01 11:45:25.619800
2803  2023-12-01 11:45:25.667328
2804  2023-12-01 11:45:25.698970
2805  2023-12-01 11:45:25.744748
2806  2023-12-01 11:45:25.793332
2807  2023-12-01 11:45:25.822029
2808  2023-12-01 11:45:25.868326
2809  2023-12-01 11:45:25.915656
2810  2023-12-01 11:45:25.947253
2811  2023-12-01 11:45:25.993125
2812  2023-12-01 11:45:26.040099
2813  2023-12-01 11:45:26.085773
2814  2023-12-01 11:45:26.117719
2815  2023-12-01 11:45:26.165846
2816  2023-12-01 11:45:26.196665
2817  2023-12-01 11:45:26.243590
2818  2023-12-01 11:45:26.290818
2819  2023-12-01 11:45:26.323543
2820  2023-12-01 11:45:26.367572
2821  2023-12-01 11:45:26.412879
2822  2023-12-01 11:45:26.459895
2823  2023-12-01 11:45:26.491149
2824  2023-12-01 11:45:26.537754
2825  2023-12-01 11:45:26.584301
2826  2023-12-01 11:45:26.615576
2827  2023-12-01 11:45:26.662866
2828  2023-12-01 11:45:26.709348
2829  2023-12-01 11:45:26.739809
2830  2023-12-01 11:45:26.786473
2831  2023-12-01 11:45:26.832584
2832  2023-12-01 11:45:26.878034
2833  2023-12-01 11:45:26.908640
2834  2023-12-01 11:45:26.955090
2835  2023-12-01 11:45:27.001583
2836  2023-12-01 11:45:27.032864
2837  2023-12-01 11:45:27.079693
2838  2023-12-01 11:45:27.125717
2839  2023-12-01 11:45:27.157435
2840  2023-12-01 11:45:27.204768
2841  2023-12-01 11:45:27.251437
2842  2023-12-01 11:45:27.282406
2843  2023-12-01 11:45:27.329346
2844  2023-12-01 11:45:27.376306
2845  2023-12-01 11:45:27.407363
2846  2023-12-01 11:45:27.456035
2847  2023-12-01 11:45:27.500347
2848  2023-12-01 11:45:27.532540
2849  2023-12-01 11:45:27.578210
2850  2023-12-01 11:45:27.623737
2851  2023-12-01 11:45:27.655715
2852  2023-12-01 11:45:27.703233
2853  2023-12-01 11:45:27.749991
2854  2023-12-01 11:45:27.781090
2855  2023-12-01 11:45:27.827720
2856  2023-12-01 11:45:27.875426
2857  2023-12-01 11:45:27.905189
2858  2023-12-01 11:45:27.952224
2859  2023-12-01 11:45:28.000220
2860  2023-12-01 11:45:28.044278
2861  2023-12-01 11:45:28.075039
2862  2023-12-01 11:45:28.121950
2863  2023-12-01 11:45:28.169159
2864  2023-12-01 11:45:28.200314
2865  2023-12-01 11:45:28.247262
2866  2023-12-01 11:45:28.294855
2867  2023-12-01 11:45:28.325642
2868  2023-12-01 11:45:28.372656
2869  2023-12-01 11:45:28.418145
2870  2023-12-01 11:45:28.449657
2871  2023-12-01 11:45:28.497050
2872  2023-12-01 11:45:28.542939
2873  2023-12-01 11:45:28.571986
2874  2023-12-01 11:45:28.618787
2875  2023-12-01 11:45:28.664928
2876  2023-12-01 11:45:28.696573
2877  2023-12-01 11:45:28.742239
2878  2023-12-01 11:45:28.790124
2879  2023-12-01 11:45:28.821877
2880  2023-12-01 11:45:28.870599
2881  2023-12-01 11:45:28.915835
2882  2023-12-01 11:45:28.947170
2883  2023-12-01 11:45:28.991985
2884  2023-12-01 11:45:29.040111
2885  2023-12-01 11:45:29.084889
2886  2023-12-01 11:45:29.115962
2887  2023-12-01 11:45:29.162939
2888  2023-12-01 11:45:29.209556
2889  2023-12-01 11:45:29.240059
2890  2023-12-01 11:45:29.286906
2891  2023-12-01 11:45:29.332696
2892  2023-12-01 11:45:29.364919
2893  2023-12-01 11:45:29.410654
2894  2023-12-01 11:45:29.456339
2895  2023-12-01 11:45:29.503561
2896  2023-12-01 11:45:29.535842
2897  2023-12-01 11:45:29.580281
2898  2023-12-01 11:45:29.627972
2899  2023-12-01 11:45:29.659205
2900  2023-12-01 11:45:29.705475
2901  2023-12-01 11:45:29.752118
2902  2023-12-01 11:45:29.783275
2903  2023-12-01 11:45:29.829870
2904  2023-12-01 11:45:29.876659
2905  2023-12-01 11:45:29.907825
2906  2023-12-01 11:45:29.954362
2907  2023-12-01 11:45:30.000500
2908  2023-12-01 11:45:30.031921
2909  2023-12-01 11:45:30.078883
2910  2023-12-01 11:45:30.124811
2911  2023-12-01 11:45:30.156181
2912  2023-12-01 11:45:30.203652
2913  2023-12-01 11:45:30.249765
2914  2023-12-01 11:45:30.281426
2915  2023-12-01 11:45:30.327882
2916  2023-12-01 11:45:30.374665
2917  2023-12-01 11:45:30.405692
2918  2023-12-01 11:45:30.452796
2919  2023-12-01 11:45:30.498595
2920  2023-12-01 11:45:30.530218
2921  2023-12-01 11:45:30.577182
2922  2023-12-01 11:45:30.624454
2923  2023-12-01 11:45:30.655198
2924  2023-12-01 11:45:30.702745
2925  2023-12-01 11:45:30.750792
2926  2023-12-01 11:45:30.781098
2927  2023-12-01 11:45:30.826288
2928  2023-12-01 11:45:30.872935
2929  2023-12-01 11:45:30.919037
2930  2023-12-01 11:45:30.950390
2931  2023-12-01 11:45:30.996322
2932  2023-12-01 11:45:31.044710
2933  2023-12-01 11:45:31.074313
2934  2023-12-01 11:45:31.121851
2935  2023-12-01 11:45:31.168876
2936  2023-12-01 11:45:31.201319
2937  2023-12-01 11:45:31.247624
2938  2023-12-01 11:45:31.295441
2939  2023-12-01 11:45:31.324629
2940  2023-12-01 11:45:31.371875
2941  2023-12-01 11:45:31.418707
2942  2023-12-01 11:45:31.450725
2943  2023-12-01 11:45:31.497160
2944  2023-12-01 11:45:31.543646
2945  2023-12-01 11:45:31.576095
2946  2023-12-01 11:45:31.621602
2947  2023-12-01 11:45:31.667985
2948  2023-12-01 11:45:31.699557
2949  2023-12-01 11:45:31.745693
2950  2023-12-01 11:45:31.795300
2951  2023-12-01 11:45:31.824986
2952  2023-12-01 11:45:31.873413
2953  2023-12-01 11:45:31.920448
2954  2023-12-01 11:45:31.950182
2955  2023-12-01 11:45:31.998271
2956  2023-12-01 11:45:32.046697
2957  2023-12-01 11:45:32.075410
2958  2023-12-01 11:45:32.122693
2959  2023-12-01 11:45:32.168553
2960  2023-12-01 11:45:32.199283
2961  2023-12-01 11:45:32.245658
2962  2023-12-01 11:45:32.292255
2963  2023-12-01 11:45:32.322971
2964  2023-12-01 11:45:32.368494
2965  2023-12-01 11:45:32.416049
2966  2023-12-01 11:45:32.446309
2967  2023-12-01 11:45:32.495110
2968  2023-12-01 11:45:32.541825
2969  2023-12-01 11:45:32.574463
2970  2023-12-01 11:45:32.618708
2971  2023-12-01 11:45:32.665441
2972  2023-12-01 11:45:32.696319
2973  2023-12-01 11:45:32.743029
2974  2023-12-01 11:45:32.789667
2975  2023-12-01 11:45:32.835926
2976  2023-12-01 11:45:32.866253
2977  2023-12-01 11:45:32.912140
2978  2023-12-01 11:45:32.959773
2979  2023-12-01 11:45:32.989866
2980  2023-12-01 11:45:33.038031
2981  2023-12-01 11:45:33.085947
2982  2023-12-01 11:45:33.115632
2983  2023-12-01 11:45:33.161696
2984  2023-12-01 11:45:33.208064
2985  2023-12-01 11:45:33.238771
2986  2023-12-01 11:45:33.285913
2987  2023-12-01 11:45:33.331659
2988  2023-12-01 11:45:33.379472
2989  2023-12-01 11:45:33.408625
2990  2023-12-01 11:45:33.456989
2991  2023-12-01 11:45:33.503127
2992  2023-12-01 11:45:33.533531
2993  2023-12-01 11:45:33.581259
2994  2023-12-01 11:45:33.627545
2995  2023-12-01 11:45:33.658485
2996  2023-12-01 11:45:33.705557
2997  2023-12-01 11:45:33.752024
2998  2023-12-01 11:45:33.782078
2999  2023-12-01 11:45:33.828523
3000  2023-12-01 11:45:33.874564
3001  2023-12-01 11:45:33.905318
3002  2023-12-01 11:45:33.951764
3003  2023-12-01 11:45:33.998454
3004  2023-12-01 11:45:34.045254
3005  2023-12-01 11:45:34.074658
3006  2023-12-01 11:45:34.121577
3007  2023-12-01 11:45:34.167088
3008  2023-12-01 11:45:34.198418
3009  2023-12-01 11:45:34.244934
3010  2023-12-01 11:45:34.292801
3011  2023-12-01 11:45:34.324382
3012  2023-12-01 11:45:34.370226
3013  2023-12-01 11:45:34.416663
3014  2023-12-01 11:45:34.447749
3015  2023-12-01 11:45:34.493729
3016  2023-12-01 11:45:34.540884
3017  2023-12-01 11:45:34.571724
3018  2023-12-01 11:45:34.621758
3019  2023-12-01 11:45:34.666612
3020  2023-12-01 11:45:34.697251
3021  2023-12-01 11:45:34.744199
3022  2023-12-01 11:45:34.790391
3023  2023-12-01 11:45:34.835878
3024  2023-12-01 11:45:34.866702
3025  2023-12-01 11:45:34.913939
3026  2023-12-01 11:45:34.960283
3027  2023-12-01 11:45:34.991382
3028  2023-12-01 11:45:35.038780
3029  2023-12-01 11:45:35.085060
3030  2023-12-01 11:45:35.116692
3031  2023-12-01 11:45:35.165341
3032  2023-12-01 11:45:35.212375
3033  2023-12-01 11:45:35.242858
3034  2023-12-01 11:45:35.288355
3035  2023-12-01 11:45:35.335613
3036  2023-12-01 11:45:35.366468
3037  2023-12-01 11:45:35.412624
3038  2023-12-01 11:45:35.458902
3039  2023-12-01 11:45:35.490535
3040  2023-12-01 11:45:35.537466
3041  2023-12-01 11:45:35.583520
3042  2023-12-01 11:45:35.615081
3043  2023-12-01 11:45:35.661839
3044  2023-12-01 11:45:35.708105
3045  2023-12-01 11:45:35.740066
3046  2023-12-01 11:45:35.785192
3047  2023-12-01 11:45:35.830733
3048  2023-12-01 11:45:35.876703
3049  2023-12-01 11:45:35.907951
3050  2023-12-01 11:45:35.954221
3051  2023-12-01 11:45:36.000574
3052  2023-12-01 11:45:36.032345
3053  2023-12-01 11:45:36.079094
3054  2023-12-01 11:45:36.126001
3055  2023-12-01 11:45:36.157227
3056  2023-12-01 11:45:36.205542
3057  2023-12-01 11:45:36.250217
3058  2023-12-01 11:45:36.282136
3059  2023-12-01 11:45:36.328681
3060  2023-12-01 11:45:36.375454
3061  2023-12-01 11:45:36.405919
3062  2023-12-01 11:45:36.452758
3063  2023-12-01 11:45:36.498635
3064  2023-12-01 11:45:36.529604
3065  2023-12-01 11:45:36.577599
3066  2023-12-01 11:45:36.622714
3067  2023-12-01 11:45:36.670614
3068  2023-12-01 11:45:36.701615
3069  2023-12-01 11:45:36.748265
3070  2023-12-01 11:45:36.794482
3071  2023-12-01 11:45:36.825700
3072  2023-12-01 11:45:36.872234
3073  2023-12-01 11:45:36.917922
3074  2023-12-01 11:45:36.949617
3075  2023-12-01 11:45:36.995728
3076  2023-12-01 11:45:37.041687
3077  2023-12-01 11:45:37.072933
3078  2023-12-01 11:45:37.119600
3079  2023-12-01 11:45:37.167820
3080  2023-12-01 11:45:37.198697
3081  2023-12-01 11:45:37.245448
3082  2023-12-01 11:45:37.293052
3083  2023-12-01 11:45:37.323559
3084  2023-12-01 11:45:37.369701
3085  2023-12-01 11:45:37.417430
3086  2023-12-01 11:45:37.447987
3087  2023-12-01 11:45:37.494878
3088  2023-12-01 11:45:37.540910
3089  2023-12-01 11:45:37.571371
3090  2023-12-01 11:45:37.618519
3091  2023-12-01 11:45:37.665010
3092  2023-12-01 11:45:37.710675
3093  2023-12-01 11:45:37.741715
3094  2023-12-01 11:45:37.790261
3095  2023-12-01 11:45:37.835899
3096  2023-12-01 11:45:37.866460
3097  2023-12-01 11:45:37.912247
3098  2023-12-01 11:45:37.959287
3099  2023-12-01 11:45:37.989697
3100  2023-12-01 11:45:38.035135
3101  2023-12-01 11:45:38.082321
3102  2023-12-01 11:45:38.127768
3103  2023-12-01 11:45:38.159265
3104  2023-12-01 11:45:38.206847
3105  2023-12-01 11:45:38.254043
3106  2023-12-01 11:45:38.283781
3107  2023-12-01 11:45:38.329609
3108  2023-12-01 11:45:38.376104
3109  2023-12-01 11:45:38.406835
3110  2023-12-01 11:45:38.454930
3111  2023-12-01 11:45:38.501816
3112  2023-12-01 11:45:38.533039
3113  2023-12-01 11:45:38.578561
3114  2023-12-01 11:45:38.625155
3115  2023-12-01 11:45:38.656107
3116  2023-12-01 11:45:38.702260
3117  2023-12-01 11:45:38.749500
3118  2023-12-01 11:45:38.781775
3119  2023-12-01 11:45:38.827672
3120  2023-12-01 11:45:38.872757
3121  2023-12-01 11:45:38.904411
3122  2023-12-01 11:45:38.950676
3123  2023-12-01 11:45:38.998122
3124  2023-12-01 11:45:39.044869
3125  2023-12-01 11:45:39.074675
3126  2023-12-01 11:45:39.121505
3127  2023-12-01 11:45:39.168918
3128  2023-12-01 11:45:39.198982
3129  2023-12-01 11:45:39.246019
3130  2023-12-01 11:45:39.294579
3131  2023-12-01 11:45:39.324764
3132  2023-12-01 11:45:39.373445
3133  2023-12-01 11:45:39.419283
3134  2023-12-01 11:45:39.451362
3135  2023-12-01 11:45:39.498770
3136  2023-12-01 11:45:39.544362
3137  2023-12-01 11:45:39.576110
3138  2023-12-01 11:45:39.622932
3139  2023-12-01 11:45:39.669793
3140  2023-12-01 11:45:39.700590
3141  2023-12-01 11:45:39.746616
3142  2023-12-01 11:45:39.793584
3143  2023-12-01 11:45:39.825055
3144  2023-12-01 11:45:39.871791
3145  2023-12-01 11:45:39.919502
3146  2023-12-01 11:45:39.950472
3147  2023-12-01 11:45:39.995923
3148  2023-12-01 11:45:40.042800
3149  2023-12-01 11:45:40.074618
3150  2023-12-01 11:45:40.120204
3151  2023-12-01 11:45:40.167718
3152  2023-12-01 11:45:40.198249
3153  2023-12-01 11:45:40.245299
3154  2023-12-01 11:45:40.290708
3155  2023-12-01 11:45:40.322251
3156  2023-12-01 11:45:40.368960
3157  2023-12-01 11:45:40.415655
3158  2023-12-01 11:45:40.446750
3159  2023-12-01 11:45:40.494882
3160  2023-12-01 11:45:40.543693
3161  2023-12-01 11:45:40.572650
3162  2023-12-01 11:45:40.620997
3163  2023-12-01 11:45:40.667526
3164  2023-12-01 11:45:40.696667
3165  2023-12-01 11:45:40.742602
3166  2023-12-01 11:45:40.788924
3167  2023-12-01 11:45:40.834994
3168  2023-12-01 11:45:40.866213
3169  2023-12-01 11:45:40.912860
3170  2023-12-01 11:45:40.959147
3171  2023-12-01 11:45:40.990403
3172  2023-12-01 11:45:41.036870
3173  2023-12-01 11:45:41.082913
3174  2023-12-01 11:45:41.114070
3175  2023-12-01 11:45:41.162772
3176  2023-12-01 11:45:41.207679
3177  2023-12-01 11:45:41.238197
3178  2023-12-01 11:45:41.285359
3179  2023-12-01 11:45:41.330939
3180  2023-12-01 11:45:41.376810
3181  2023-12-01 11:45:41.407554
3182  2023-12-01 11:45:41.453678
3183  2023-12-01 11:45:41.501586
3184  2023-12-01 11:45:41.531549
3185  2023-12-01 11:45:41.580549
3186  2023-12-01 11:45:41.627534
3187  2023-12-01 11:45:41.658642
3188  2023-12-01 11:45:41.706773
3189  2023-12-01 11:45:41.751756
3190  2023-12-01 11:45:41.782696
3191  2023-12-01 11:45:41.828852
3192  2023-12-01 11:45:41.875452
3193  2023-12-01 11:45:41.906019
3194  2023-12-01 11:45:41.952692
3195  2023-12-01 11:45:41.999373
3196  2023-12-01 11:45:42.030560
3197  2023-12-01 11:45:42.078464
3198  2023-12-01 11:45:42.125069
3199  2023-12-01 11:45:42.156090
3200  2023-12-01 11:45:42.203587
3201  2023-12-01 11:45:42.249525
3202  2023-12-01 11:45:42.279797
3203  2023-12-01 11:45:42.325788
3204  2023-12-01 11:45:42.372779
3205  2023-12-01 11:45:42.419037
3206  2023-12-01 11:45:42.450428
3207  2023-12-01 11:45:42.496636
3208  2023-12-01 11:45:42.543507
3209  2023-12-01 11:45:42.574333
3210  2023-12-01 11:45:42.621074
3211  2023-12-01 11:45:42.668340
3212  2023-12-01 11:45:42.701458
3213  2023-12-01 11:45:42.746157
3214  2023-12-01 11:45:42.794274
3215  2023-12-01 11:45:42.822717
3216  2023-12-01 11:45:42.869352
3217  2023-12-01 11:45:42.915354
3218  2023-12-01 11:45:42.946404
3219  2023-12-01 11:45:42.992353
3220  2023-12-01 11:45:43.039445
3221  2023-12-01 11:45:43.086365
3222  2023-12-01 11:45:43.117623
3223  2023-12-01 11:45:43.164982
3224  2023-12-01 11:45:43.198155
3225  2023-12-01 11:45:43.244413
3226  2023-12-01 11:45:43.290096
3227  2023-12-01 11:45:43.334208
3228  2023-12-01 11:45:43.365120
3229  2023-12-01 11:45:43.412996
3230  2023-12-01 11:45:43.458445
3231  2023-12-01 11:45:43.489431
3232  2023-12-01 11:45:43.536015
3233  2023-12-01 11:45:43.582091
3234  2023-12-01 11:45:43.613967
3235  2023-12-01 11:45:43.660696
3236  2023-12-01 11:45:43.707628
3237  2023-12-01 11:45:43.737938
3238  2023-12-01 11:45:43.784881
3239  2023-12-01 11:45:43.831552
3240  2023-12-01 11:45:43.878308
3241  2023-12-01 11:45:43.909861
3242  2023-12-01 11:45:43.956881
3243  2023-12-01 11:45:44.002645
3244  2023-12-01 11:45:44.033547
3245  2023-12-01 11:45:44.079803
3246  2023-12-01 11:45:44.126250
3247  2023-12-01 11:45:44.156704
3248  2023-12-01 11:45:44.205787
3249  2023-12-01 11:45:44.251994
3250  2023-12-01 11:45:44.283993
3251  2023-12-01 11:45:44.329273
3252  2023-12-01 11:45:44.375025
3253  2023-12-01 11:45:44.405420
3254  2023-12-01 11:45:44.451737
3255  2023-12-01 11:45:44.497641
3256  2023-12-01 11:45:44.543506
3257  2023-12-01 11:45:44.574598
3258  2023-12-01 11:45:44.620983
3259  2023-12-01 11:45:44.667317
3260  2023-12-01 11:45:44.699371
3261  2023-12-01 11:45:44.744947
3262  2023-12-01 11:45:44.794649
3263  2023-12-01 11:45:44.822909
3264  2023-12-01 11:45:44.868744
3265  2023-12-01 11:45:44.914905
3266  2023-12-01 11:45:44.960665
3267  2023-12-01 11:45:44.992581
3268  2023-12-01 11:45:45.038343
3269  2023-12-01 11:45:45.085393
3270  2023-12-01 11:45:45.117259
3271  2023-12-01 11:45:45.165295
3272  2023-12-01 11:45:45.210966
3273  2023-12-01 11:45:45.243504
3274  2023-12-01 11:45:45.289044
3275  2023-12-01 11:45:45.338702
3276  2023-12-01 11:45:45.370267
3277  2023-12-01 11:45:45.413508
3278  2023-12-01 11:45:45.460851
3279  2023-12-01 11:45:45.492187
3280  2023-12-01 11:45:45.538926
3281  2023-12-01 11:45:45.585986
3282  2023-12-01 11:45:45.617259
3283  2023-12-01 11:45:45.663990
3284  2023-12-01 11:45:45.711144
3285  2023-12-01 11:45:45.742142
3286  2023-12-01 11:45:45.788706
3287  2023-12-01 11:45:45.834272
3288  2023-12-01 11:45:45.865168
3289  2023-12-01 11:45:45.913334
3290  2023-12-01 11:45:45.961702
3291  2023-12-01 11:45:45.990717
3292  2023-12-01 11:45:46.035967
3293  2023-12-01 11:45:46.082077
3294  2023-12-01 11:45:46.113310
3295  2023-12-01 11:45:46.160793
3296  2023-12-01 11:45:46.206447
3297  2023-12-01 11:45:46.237928
3298  2023-12-01 11:45:46.284208
3299  2023-12-01 11:45:46.331811
3300  2023-12-01 11:45:46.362862
3301  2023-12-01 11:45:46.410601
3302  2023-12-01 11:45:46.457511
3303  2023-12-01 11:45:46.501723
3304  2023-12-01 11:45:46.533070
3305  2023-12-01 11:45:46.579363
3306  2023-12-01 11:45:46.626196
3307  2023-12-01 11:45:46.657443
3308  2023-12-01 11:45:46.702994
3309  2023-12-01 11:45:46.749106
3310  2023-12-01 11:45:46.779867
3311  2023-12-01 11:45:46.827530
3312  2023-12-01 11:45:46.874808
3313  2023-12-01 11:45:46.905864
3314  2023-12-01 11:45:46.952641
3315  2023-12-01 11:45:47.001721
3316  2023-12-01 11:45:47.030419
3317  2023-12-01 11:45:47.076895
3318  2023-12-01 11:45:47.123810
3319  2023-12-01 11:45:47.155809
3320  2023-12-01 11:45:47.202381
3321  2023-12-01 11:45:47.247548
3322  2023-12-01 11:45:47.294607
3323  2023-12-01 11:45:47.325506
3324  2023-12-01 11:45:47.373435
3325  2023-12-01 11:45:47.419054
3326  2023-12-01 11:45:47.450343
3327  2023-12-01 11:45:47.497433
3328  2023-12-01 11:45:47.544209
3329  2023-12-01 11:45:47.576104
3330  2023-12-01 11:45:47.620666
3331  2023-12-01 11:45:47.667038
3332  2023-12-01 11:45:47.697626
3333  2023-12-01 11:45:47.745578
3334  2023-12-01 11:45:47.791559
3335  2023-12-01 11:45:47.823391
3336  2023-12-01 11:45:47.869627
3337  2023-12-01 11:45:47.916568
3338  2023-12-01 11:45:47.947760
3339  2023-12-01 11:45:47.993994
3340  2023-12-01 11:45:48.041278
3341  2023-12-01 11:45:48.073201
3342  2023-12-01 11:45:48.119936
3343  2023-12-01 11:45:48.168764
3344  2023-12-01 11:45:48.200776
3345  2023-12-01 11:45:48.244887
3346  2023-12-01 11:45:48.291801
3347  2023-12-01 11:45:48.322274
3348  2023-12-01 11:45:48.369177
3349  2023-12-01 11:45:48.417305
3350  2023-12-01 11:45:48.448062
3351  2023-12-01 11:45:48.494726
3352  2023-12-01 11:45:48.541006
3353  2023-12-01 11:45:48.571427
3354  2023-12-01 11:45:48.617165
3355  2023-12-01 11:45:48.664561
3356  2023-12-01 11:45:48.708676
3357  2023-12-01 11:45:48.738955
3358  2023-12-01 11:45:48.784956
3359  2023-12-01 11:45:48.831225
3360  2023-12-01 11:45:48.877587
3361  2023-12-01 11:45:48.908963
3362  2023-12-01 11:45:48.956654
3363  2023-12-01 11:45:48.988215
3364  2023-12-01 11:45:49.036773
3365  2023-12-01 11:45:49.083404
3366  2023-12-01 11:45:49.115322
3367  2023-12-01 11:45:49.161883
3368  2023-12-01 11:45:49.207852
3369  2023-12-01 11:45:49.239666
3370  2023-12-01 11:45:49.287731
3371  2023-12-01 11:45:49.331725
3372  2023-12-01 11:45:49.362993
3373  2023-12-01 11:45:49.409555
3374  2023-12-01 11:45:49.456927
3375  2023-12-01 11:45:49.502897
3376  2023-12-01 11:45:49.534016
3377  2023-12-01 11:45:49.581134
3378  2023-12-01 11:45:49.627686
3379  2023-12-01 11:45:49.657381
3380  2023-12-01 11:45:49.704636
3381  2023-12-01 11:45:49.752359
3382  2023-12-01 11:45:49.783821
3383  2023-12-01 11:45:49.833672
3384  2023-12-01 11:45:49.875676
3385  2023-12-01 11:45:49.906596
3386  2023-12-01 11:45:49.952575
3387  2023-12-01 11:45:49.999454
3388  2023-12-01 11:45:50.030896
3389  2023-12-01 11:45:50.078092
3390  2023-12-01 11:45:50.124837
3391  2023-12-01 11:45:50.155651
3392  2023-12-01 11:45:50.202616
3393  2023-12-01 11:45:50.249118
3394  2023-12-01 11:45:50.281832
3395  2023-12-01 11:45:50.326683
3396  2023-12-01 11:45:50.374890
3397  2023-12-01 11:45:50.418699
3398  2023-12-01 11:45:50.449648
3399  2023-12-01 11:45:50.496537
3400  2023-12-01 11:45:50.543069
3401  2023-12-01 11:45:50.574392
3402  2023-12-01 11:45:50.620758
3403  2023-12-01 11:45:50.667908
3404  2023-12-01 11:45:50.699304
3405  2023-12-01 11:45:50.745942
3406  2023-12-01 11:45:50.792128
3407  2023-12-01 11:45:50.824656
3408  2023-12-01 11:45:50.872027
3409  2023-12-01 11:45:50.917660
3410  2023-12-01 11:45:50.947731
3411  2023-12-01 11:45:50.993620
3412  2023-12-01 11:45:51.039844
3413  2023-12-01 11:45:51.071251
3414  2023-12-01 11:45:51.117939
3415  2023-12-01 11:45:51.165664
3416  2023-12-01 11:45:51.197132
3417  2023-12-01 11:45:51.242885
3418  2023-12-01 11:45:51.290807
3419  2023-12-01 11:45:51.321724
3420  2023-12-01 11:45:51.368812
3421  2023-12-01 11:45:51.415087
3422  2023-12-01 11:45:51.464085
3423  2023-12-01 11:45:51.494855
3424  2023-12-01 11:45:51.540567
3425  2023-12-01 11:45:51.585506
3426  2023-12-01 11:45:51.616485
3427  2023-12-01 11:45:51.662723
3428  2023-12-01 11:45:51.708506
3429  2023-12-01 11:45:51.739738
3430  2023-12-01 11:45:51.786395
3431  2023-12-01 11:45:51.834658
3432  2023-12-01 11:45:51.863547
3433  2023-12-01 11:45:51.911292
3434  2023-12-01 11:45:51.958555
3435  2023-12-01 11:45:51.992331
3436  2023-12-01 11:45:52.035131
3437  2023-12-01 11:45:52.082470
3438  2023-12-01 11:45:52.113323
3439  2023-12-01 11:45:52.159162
3440  2023-12-01 11:45:52.205973
3441  2023-12-01 11:45:52.253071
3442  2023-12-01 11:45:52.283731
3443  2023-12-01 11:45:52.329555
3444  2023-12-01 11:45:52.377415
3445  2023-12-01 11:45:52.407348
3446  2023-12-01 11:45:52.455611
3447  2023-12-01 11:45:52.503470
3448  2023-12-01 11:45:52.531679
3449  2023-12-01 11:45:52.578980
3450  2023-12-01 11:45:52.625730
3451  2023-12-01 11:45:52.657115
3452  2023-12-01 11:45:52.703088
3453  2023-12-01 11:45:52.750521
3454  2023-12-01 11:45:52.780180
3455  2023-12-01 11:45:52.827743
3456  2023-12-01 11:45:52.875984
3457  2023-12-01 11:45:52.921932
3458  2023-12-01 11:45:52.951694
3459  2023-12-01 11:45:52.998971
3460  2023-12-01 11:45:53.046430
3461  2023-12-01 11:45:53.074858
3462  2023-12-01 11:45:53.122082
3463  2023-12-01 11:45:53.168887
3464  2023-12-01 11:45:53.199455
3465  2023-12-01 11:45:53.246308
3466  2023-12-01 11:45:53.293833
3467  2023-12-01 11:45:53.325506
3468  2023-12-01 11:45:53.371706
3469  2023-12-01 11:45:53.418697
3470  2023-12-01 11:45:53.450686
3471  2023-12-01 11:45:53.495791
3472  2023-12-01 11:45:53.542616
3473  2023-12-01 11:45:53.575656
3474  2023-12-01 11:45:53.619645
3475  2023-12-01 11:45:53.665942
3476  2023-12-01 11:45:53.696395
3477  2023-12-01 11:45:53.743183
3478  2023-12-01 11:45:53.789698
3479  2023-12-01 11:45:53.821902
3480  2023-12-01 11:45:53.869254
3481  2023-12-01 11:45:53.916701
3482  2023-12-01 11:45:53.949026
3483  2023-12-01 11:45:53.995786
3484  2023-12-01 11:45:54.042731
3485  2023-12-01 11:45:54.072771
3486  2023-12-01 11:45:54.118886
3487  2023-12-01 11:45:54.166480
3488  2023-12-01 11:45:54.211095
3489  2023-12-01 11:45:54.242121
3490  2023-12-01 11:45:54.289140
3491  2023-12-01 11:45:54.334943
3492  2023-12-01 11:45:54.365898
3493  2023-12-01 11:45:54.411864
3494  2023-12-01 11:45:54.458942
3495  2023-12-01 11:45:54.490483
3496  2023-12-01 11:45:54.538529
3497  2023-12-01 11:45:54.582943
3498  2023-12-01 11:45:54.615614
3499  2023-12-01 11:45:54.663564
3500  2023-12-01 11:45:54.709256
3501  2023-12-01 11:45:54.741466
3502  2023-12-01 11:45:54.786135
3503  2023-12-01 11:45:54.833010
3504  2023-12-01 11:45:54.864764
3505  2023-12-01 11:45:54.910739
3506  2023-12-01 11:45:54.957148
3507  2023-12-01 11:45:54.987832
3508  2023-12-01 11:45:55.033492
3509  2023-12-01 11:45:55.079875
3510  2023-12-01 11:45:55.125691
3511  2023-12-01 11:45:55.157712
3512  2023-12-01 11:45:55.205024
3513  2023-12-01 11:45:55.250489
3514  2023-12-01 11:45:55.281252
3515  2023-12-01 11:45:55.327748
3516  2023-12-01 11:45:55.373720
3517  2023-12-01 11:45:55.419855
3518  2023-12-01 11:45:55.450570
3519  2023-12-01 11:45:55.496096
3520  2023-12-01 11:45:55.544933
3521  2023-12-01 11:45:55.573245
3522  2023-12-01 11:45:55.622716
3523  2023-12-01 11:45:55.666300
3524  2023-12-01 11:45:55.696724
3525  2023-12-01 11:45:55.743797
3526  2023-12-01 11:45:55.789683
3527  2023-12-01 11:45:55.836088
3528  2023-12-01 11:45:55.867235
3529  2023-12-01 11:45:55.913448
3530  2023-12-01 11:45:55.959621
3531  2023-12-01 11:45:55.992695
3532  2023-12-01 11:45:56.037936
3533  2023-12-01 11:45:56.084684
3534  2023-12-01 11:45:56.114380
3535  2023-12-01 11:45:56.160786
3536  2023-12-01 11:45:56.207204
3537  2023-12-01 11:45:56.238610
3538  2023-12-01 11:45:56.284805
3539  2023-12-01 11:45:56.330959
3540  2023-12-01 11:45:56.377771
3541  2023-12-01 11:45:56.408897
3542  2023-12-01 11:45:56.455373
3543  2023-12-01 11:45:56.504592
3544  2023-12-01 11:45:56.534105
3545  2023-12-01 11:45:56.581573
3546  2023-12-01 11:45:56.626373
3547  2023-12-01 11:45:56.657331
3548  2023-12-01 11:45:56.704524
3549  2023-12-01 11:45:56.750923
3550  2023-12-01 11:45:56.781405
3551  2023-12-01 11:45:56.827768
3552  2023-12-01 11:45:56.875867
3553  2023-12-01 11:45:56.906514
3554  2023-12-01 11:45:56.953257
3555  2023-12-01 11:45:57.000518
3556  2023-12-01 11:45:57.032651
3557  2023-12-01 11:45:57.079317
3558  2023-12-01 11:45:57.127372
3559  2023-12-01 11:45:57.158294
3560  2023-12-01 11:45:57.204642
3561  2023-12-01 11:45:57.253896
