
1  2023-10-20 12:25:58.183078
2  2023-10-20 12:25:58.231200
3  2023-10-20 12:25:58.263114
4  2023-10-20 12:25:58.295001
5  2023-10-20 12:25:58.326941
6  2023-10-20 12:25:58.358863
7  2023-10-20 12:25:58.390770
8  2023-10-20 12:25:58.423653
9  2023-10-20 12:25:58.455608
10  2023-10-20 12:25:58.487483
11  2023-10-20 12:25:58.519401
12  2023-10-20 12:25:58.551346
13  2023-10-20 12:25:58.583230
14  2023-10-20 12:25:58.631102
15  2023-10-20 12:25:58.663017
16  2023-10-20 12:25:58.694967
17  2023-10-20 12:25:58.726877
18  2023-10-20 12:25:58.758762
19  2023-10-20 12:25:58.791723
20  2023-10-20 12:25:58.823657
21  2023-10-20 12:25:58.855599
22  2023-10-20 12:25:58.887512
23  2023-10-20 12:25:58.919441
24  2023-10-20 12:25:58.951355
25  2023-10-20 12:25:58.983270
26  2023-10-20 12:25:59.031181
27  2023-10-20 12:25:59.063095
28  2023-10-20 12:25:59.095041
29  2023-10-20 12:25:59.126956
30  2023-10-20 12:25:59.158867
31  2023-10-20 12:25:59.191750
32  2023-10-20 12:25:59.222675
33  2023-10-20 12:25:59.255627
34  2023-10-20 12:25:59.287529
35  2023-10-20 12:25:59.319409
36  2023-10-20 12:25:59.351362
37  2023-10-20 12:25:59.383244
38  2023-10-20 12:25:59.431108
39  2023-10-20 12:25:59.463063
40  2023-10-20 12:25:59.494985
41  2023-10-20 12:25:59.526888
42  2023-10-20 12:25:59.559763
43  2023-10-20 12:25:59.590752
44  2023-10-20 12:25:59.622667
45  2023-10-20 12:25:59.655579
46  2023-10-20 12:25:59.687493
47  2023-10-20 12:25:59.719408
48  2023-10-20 12:25:59.751322
49  2023-10-20 12:25:59.783236
50  2023-10-20 12:25:59.831147
51  2023-10-20 12:25:59.863098
52  2023-10-20 12:25:59.895011
53  2023-10-20 12:25:59.926927
54  2023-10-20 12:25:59.958808
55  2023-10-20 12:25:59.990756
56  2023-10-20 12:26:00.023631
57  2023-10-20 12:26:00.055578
58  2023-10-20 12:26:00.087493
59  2023-10-20 12:26:00.119415
60  2023-10-20 12:26:00.151287
61  2023-10-20 12:26:00.183203
62  2023-10-20 12:26:00.231075
63  2023-10-20 12:26:00.263030
64  2023-10-20 12:26:00.294935
65  2023-10-20 12:26:00.326850
66  2023-10-20 12:26:00.359730
67  2023-10-20 12:26:00.391683
68  2023-10-20 12:26:00.423599
69  2023-10-20 12:26:00.455505
70  2023-10-20 12:26:00.487429
71  2023-10-20 12:26:00.519340
72  2023-10-20 12:26:00.551216
73  2023-10-20 12:26:00.583131
74  2023-10-20 12:26:00.631036
75  2023-10-20 12:26:00.662946
76  2023-10-20 12:26:00.695829
77  2023-10-20 12:26:00.727770
78  2023-10-20 12:26:00.759704
79  2023-10-20 12:26:00.791621
80  2023-10-20 12:26:00.823487
81  2023-10-20 12:26:00.855401
82  2023-10-20 12:26:00.887316
83  2023-10-20 12:26:00.919232
84  2023-10-20 12:26:00.951172
85  2023-10-20 12:26:00.999016
86  2023-10-20 12:26:01.032029
87  2023-10-20 12:26:01.062976
88  2023-10-20 12:26:01.094894
89  2023-10-20 12:26:01.127772
90  2023-10-20 12:26:01.159685
91  2023-10-20 12:26:01.191600
92  2023-10-20 12:26:01.223626
93  2023-10-20 12:26:01.255528
94  2023-10-20 12:26:01.287451
95  2023-10-20 12:26:01.319356
96  2023-10-20 12:26:01.351229
97  2023-10-20 12:26:01.399100
98  2023-10-20 12:26:01.431019
99  2023-10-20 12:26:01.462991
100  2023-10-20 12:26:01.494845
101  2023-10-20 12:26:01.526799
102  2023-10-20 12:26:01.558705
103  2023-10-20 12:26:01.590753
104  2023-10-20 12:26:01.623627
105  2023-10-20 12:26:01.655581
106  2023-10-20 12:26:01.687630
107  2023-10-20 12:26:01.719545
108  2023-10-20 12:26:01.751411
109  2023-10-20 12:26:01.799240
110  2023-10-20 12:26:01.831155
111  2023-10-20 12:26:01.863070
112  2023-10-20 12:26:01.895013
113  2023-10-20 12:26:01.926899
114  2023-10-20 12:26:01.958812
115  2023-10-20 12:26:01.990736
116  2023-10-20 12:26:02.023639
117  2023-10-20 12:26:02.055596
118  2023-10-20 12:26:02.087498
119  2023-10-20 12:26:02.119381
120  2023-10-20 12:26:02.151297
121  2023-10-20 12:26:02.199168
122  2023-10-20 12:26:02.231082
123  2023-10-20 12:26:02.263042
124  2023-10-20 12:26:02.294910
125  2023-10-20 12:26:02.326864
126  2023-10-20 12:26:02.359737
127  2023-10-20 12:26:02.390756
128  2023-10-20 12:26:02.423301
129  2023-10-20 12:26:02.455249
130  2023-10-20 12:26:02.487135
131  2023-10-20 12:26:02.519110
132  2023-10-20 12:26:02.551020
133  2023-10-20 12:26:02.599597
134  2023-10-20 12:26:02.631488
135  2023-10-20 12:26:02.663418
136  2023-10-20 12:26:02.695319
137  2023-10-20 12:26:02.727240
138  2023-10-20 12:26:02.759158
139  2023-10-20 12:26:02.791061
140  2023-10-20 12:26:02.822989
141  2023-10-20 12:26:02.854904
142  2023-10-20 12:26:02.886818
143  2023-10-20 12:26:02.918821
144  2023-10-20 12:26:02.951734
145  2023-10-20 12:26:02.999660
146  2023-10-20 12:26:03.030627
147  2023-10-20 12:26:03.063539
148  2023-10-20 12:26:03.095454
149  2023-10-20 12:26:03.127368
150  2023-10-20 12:26:03.159282
151  2023-10-20 12:26:03.191197
152  2023-10-20 12:26:03.223111
153  2023-10-20 12:26:03.255026
154  2023-10-20 12:26:03.286940
155  2023-10-20 12:26:03.318855
156  2023-10-20 12:26:03.350769
157  2023-10-20 12:26:03.399638
158  2023-10-20 12:26:03.431553
159  2023-10-20 12:26:03.463467
160  2023-10-20 12:26:03.495532
161  2023-10-20 12:26:03.527446
162  2023-10-20 12:26:03.559360
163  2023-10-20 12:26:03.591275
164  2023-10-20 12:26:03.623189
165  2023-10-20 12:26:03.655105
166  2023-10-20 12:26:03.687018
167  2023-10-20 12:26:03.718932
168  2023-10-20 12:26:03.750860
169  2023-10-20 12:26:03.799735
170  2023-10-20 12:26:03.830702
171  2023-10-20 12:26:03.863615
172  2023-10-20 12:26:03.895532
173  2023-10-20 12:26:03.927443
174  2023-10-20 12:26:03.959480
175  2023-10-20 12:26:03.991422
176  2023-10-20 12:26:04.023308
177  2023-10-20 12:26:04.055221
178  2023-10-20 12:26:04.087137
179  2023-10-20 12:26:04.119097
180  2023-10-20 12:26:04.150974
181  2023-10-20 12:26:04.198836
182  2023-10-20 12:26:04.231749
183  2023-10-20 12:26:04.263877
184  2023-10-20 12:26:04.294793
185  2023-10-20 12:26:04.327705
186  2023-10-20 12:26:04.359620
187  2023-10-20 12:26:04.391534
188  2023-10-20 12:26:04.423791
189  2023-10-20 12:26:04.455799
190  2023-10-20 12:26:04.487714
191  2023-10-20 12:26:04.519628
192  2023-10-20 12:26:04.567614
193  2023-10-20 12:26:04.599479
194  2023-10-20 12:26:04.631429
195  2023-10-20 12:26:04.663308
196  2023-10-20 12:26:04.695222
197  2023-10-20 12:26:04.727136
198  2023-10-20 12:26:04.759101
199  2023-10-20 12:26:04.790965
200  2023-10-20 12:26:04.822881
201  2023-10-20 12:26:04.854794
202  2023-10-20 12:26:04.886709
203  2023-10-20 12:26:04.919622
204  2023-10-20 12:26:04.967492
205  2023-10-20 12:26:04.999453
206  2023-10-20 12:26:05.031322
207  2023-10-20 12:26:05.063291
208  2023-10-20 12:26:05.095150
209  2023-10-20 12:26:05.127119
210  2023-10-20 12:26:05.160012
211  2023-10-20 12:26:05.190894
212  2023-10-20 12:26:05.222816
213  2023-10-20 12:26:05.254760
214  2023-10-20 12:26:05.287635
215  2023-10-20 12:26:05.319584
216  2023-10-20 12:26:05.367421
217  2023-10-20 12:26:05.399335
218  2023-10-20 12:26:05.431251
219  2023-10-20 12:26:05.463195
220  2023-10-20 12:26:05.495103
221  2023-10-20 12:26:05.527016
222  2023-10-20 12:26:05.558785
223  2023-10-20 12:26:05.590735
224  2023-10-20 12:26:05.623680
225  2023-10-20 12:26:05.655674
226  2023-10-20 12:26:05.687553
227  2023-10-20 12:26:05.719502
228  2023-10-20 12:26:05.767373
229  2023-10-20 12:26:05.799284
230  2023-10-20 12:26:05.831200
231  2023-10-20 12:26:05.863105
232  2023-10-20 12:26:05.895036
233  2023-10-20 12:26:05.926970
234  2023-10-20 12:26:05.958865
235  2023-10-20 12:26:05.991737
236  2023-10-20 12:26:06.023686
237  2023-10-20 12:26:06.055655
238  2023-10-20 12:26:06.087708
239  2023-10-20 12:26:06.119665
240  2023-10-20 12:26:06.167538
241  2023-10-20 12:26:06.199442
242  2023-10-20 12:26:06.231366
243  2023-10-20 12:26:06.263271
244  2023-10-20 12:26:06.295177
245  2023-10-20 12:26:06.327066
246  2023-10-20 12:26:06.359014
247  2023-10-20 12:26:06.390938
248  2023-10-20 12:26:06.422810
249  2023-10-20 12:26:06.454760
250  2023-10-20 12:26:06.486639
251  2023-10-20 12:26:06.519550
252  2023-10-20 12:26:06.567537
253  2023-10-20 12:26:06.599451
254  2023-10-20 12:26:06.631399
255  2023-10-20 12:26:06.663312
256  2023-10-20 12:26:06.695195
257  2023-10-20 12:26:06.727109
258  2023-10-20 12:26:06.759024
259  2023-10-20 12:26:06.791937
260  2023-10-20 12:26:06.823890
261  2023-10-20 12:26:06.854767
262  2023-10-20 12:26:06.886681
263  2023-10-20 12:26:06.919593
264  2023-10-20 12:26:06.967465
265  2023-10-20 12:26:06.999382
266  2023-10-20 12:26:07.031294
267  2023-10-20 12:26:07.063241
268  2023-10-20 12:26:07.095217
269  2023-10-20 12:26:07.127226
270  2023-10-20 12:26:07.159151
271  2023-10-20 12:26:07.191136
272  2023-10-20 12:26:07.223056
273  2023-10-20 12:26:07.254983
274  2023-10-20 12:26:07.286884
275  2023-10-20 12:26:07.318759
276  2023-10-20 12:26:07.366673
277  2023-10-20 12:26:07.399543
278  2023-10-20 12:26:07.431490
279  2023-10-20 12:26:07.463405
280  2023-10-20 12:26:07.495286
281  2023-10-20 12:26:07.527236
282  2023-10-20 12:26:07.559146
283  2023-10-20 12:26:07.591060
284  2023-10-20 12:26:07.622975
285  2023-10-20 12:26:07.654888
286  2023-10-20 12:26:07.686812
287  2023-10-20 12:26:07.719730
288  2023-10-20 12:26:07.766591
289  2023-10-20 12:26:07.799471
290  2023-10-20 12:26:07.831421
291  2023-10-20 12:26:07.863334
292  2023-10-20 12:26:07.895273
293  2023-10-20 12:26:07.927163
294  2023-10-20 12:26:07.959099
295  2023-10-20 12:26:07.990991
296  2023-10-20 12:26:08.022873
297  2023-10-20 12:26:08.054820
298  2023-10-20 12:26:08.086737
299  2023-10-20 12:26:08.118617
300  2023-10-20 12:26:08.167486
301  2023-10-20 12:26:08.199400
302  2023-10-20 12:26:08.231348
303  2023-10-20 12:26:08.263264
304  2023-10-20 12:26:08.295175
305  2023-10-20 12:26:08.327058
306  2023-10-20 12:26:08.359003
307  2023-10-20 12:26:08.390921
308  2023-10-20 12:26:08.423850
309  2023-10-20 12:26:08.454745
310  2023-10-20 12:26:08.486630
311  2023-10-20 12:26:08.535540
312  2023-10-20 12:26:08.567413
313  2023-10-20 12:26:08.599358
314  2023-10-20 12:26:08.631273
315  2023-10-20 12:26:08.663157
316  2023-10-20 12:26:08.695178
317  2023-10-20 12:26:08.727170
318  2023-10-20 12:26:08.759698
319  2023-10-20 12:26:08.790729
320  2023-10-20 12:26:08.823578
321  2023-10-20 12:26:08.855494
322  2023-10-20 12:26:08.887514
323  2023-10-20 12:26:08.935530
324  2023-10-20 12:26:08.967395
325  2023-10-20 12:26:08.999342
326  2023-10-20 12:26:09.031257
327  2023-10-20 12:26:09.063164
328  2023-10-20 12:26:09.095086
329  2023-10-20 12:26:09.127003
330  2023-10-20 12:26:09.158882
331  2023-10-20 12:26:09.190834
332  2023-10-20 12:26:09.222741
333  2023-10-20 12:26:09.254667
334  2023-10-20 12:26:09.287575
335  2023-10-20 12:26:09.335435
336  2023-10-20 12:26:09.367356
337  2023-10-20 12:26:09.399269
338  2023-10-20 12:26:09.431185
339  2023-10-20 12:26:09.463108
340  2023-10-20 12:26:09.494981
341  2023-10-20 12:26:09.526945
342  2023-10-20 12:26:09.558840
343  2023-10-20 12:26:09.590759
344  2023-10-20 12:26:09.622673
345  2023-10-20 12:26:09.655551
346  2023-10-20 12:26:09.687465
347  2023-10-20 12:26:09.735361
348  2023-10-20 12:26:09.767289
349  2023-10-20 12:26:09.799191
350  2023-10-20 12:26:09.831080
351  2023-10-20 12:26:09.863028
352  2023-10-20 12:26:09.894966
353  2023-10-20 12:26:09.927853
354  2023-10-20 12:26:09.958771
355  2023-10-20 12:26:09.990652
356  2023-10-20 12:26:10.023601
357  2023-10-20 12:26:10.055479
358  2023-10-20 12:26:10.087426
359  2023-10-20 12:26:10.135293
360  2023-10-20 12:26:10.167228
361  2023-10-20 12:26:10.199125
362  2023-10-20 12:26:10.231044
363  2023-10-20 12:26:10.262956
364  2023-10-20 12:26:10.294863
365  2023-10-20 12:26:10.326787
366  2023-10-20 12:26:10.358698
367  2023-10-20 12:26:10.390611
368  2023-10-20 12:26:10.423527
369  2023-10-20 12:26:10.455437
370  2023-10-20 12:26:10.487353
371  2023-10-20 12:26:10.535224
372  2023-10-20 12:26:10.567257
373  2023-10-20 12:26:10.599141
374  2023-10-20 12:26:10.631055
375  2023-10-20 12:26:10.663054
376  2023-10-20 12:26:10.694962
377  2023-10-20 12:26:10.726876
378  2023-10-20 12:26:10.758795
379  2023-10-20 12:26:10.790708
380  2023-10-20 12:26:10.822588
381  2023-10-20 12:26:10.855546
382  2023-10-20 12:26:10.887447
383  2023-10-20 12:26:10.935313
384  2023-10-20 12:26:10.967233
385  2023-10-20 12:26:10.999159
386  2023-10-20 12:26:11.031077
387  2023-10-20 12:26:11.062976
388  2023-10-20 12:26:11.094891
389  2023-10-20 12:26:11.126798
390  2023-10-20 12:26:11.158687
391  2023-10-20 12:26:11.190634
392  2023-10-20 12:26:11.223555
393  2023-10-20 12:26:11.255470
394  2023-10-20 12:26:11.287342
395  2023-10-20 12:26:11.335242
396  2023-10-20 12:26:11.367153
397  2023-10-20 12:26:11.399083
398  2023-10-20 12:26:11.430990
399  2023-10-20 12:26:11.462903
400  2023-10-20 12:26:11.494819
401  2023-10-20 12:26:11.527730
402  2023-10-20 12:26:11.559643
403  2023-10-20 12:26:11.591571
404  2023-10-20 12:26:11.623472
405  2023-10-20 12:26:11.655388
406  2023-10-20 12:26:11.687270
407  2023-10-20 12:26:11.735105
408  2023-10-20 12:26:11.767031
409  2023-10-20 12:26:11.798946
410  2023-10-20 12:26:11.831822
411  2023-10-20 12:26:11.863737
412  2023-10-20 12:26:11.895692
413  2023-10-20 12:26:11.927611
414  2023-10-20 12:26:11.959496
415  2023-10-20 12:26:11.991434
416  2023-10-20 12:26:12.023340
417  2023-10-20 12:26:12.055256
418  2023-10-20 12:26:12.103120
419  2023-10-20 12:26:12.135042
420  2023-10-20 12:26:12.166947
421  2023-10-20 12:26:12.198870
422  2023-10-20 12:26:12.230783
423  2023-10-20 12:26:12.262707
424  2023-10-20 12:26:12.294616
425  2023-10-20 12:26:12.327533
426  2023-10-20 12:26:12.359442
427  2023-10-20 12:26:12.391365
428  2023-10-20 12:26:12.423269
429  2023-10-20 12:26:12.455184
430  2023-10-20 12:26:12.503058
431  2023-10-20 12:26:12.534966
432  2023-10-20 12:26:12.566880
433  2023-10-20 12:26:12.598798
434  2023-10-20 12:26:12.630710
435  2023-10-20 12:26:12.662624
436  2023-10-20 12:26:12.695506
437  2023-10-20 12:26:12.727460
438  2023-10-20 12:26:12.759370
439  2023-10-20 12:26:12.791281
440  2023-10-20 12:26:12.823198
441  2023-10-20 12:26:12.855110
442  2023-10-20 12:26:12.902992
443  2023-10-20 12:26:12.934897
444  2023-10-20 12:26:12.966814
445  2023-10-20 12:26:12.998724
446  2023-10-20 12:26:13.030728
447  2023-10-20 12:26:13.062644
448  2023-10-20 12:26:13.095559
449  2023-10-20 12:26:13.127470
450  2023-10-20 12:26:13.159382
451  2023-10-20 12:26:13.191298
452  2023-10-20 12:26:13.223210
453  2023-10-20 12:26:13.255117
454  2023-10-20 12:26:13.303017
455  2023-10-20 12:26:13.334928
456  2023-10-20 12:26:13.366836
457  2023-10-20 12:26:13.398747
458  2023-10-20 12:26:13.431619
459  2023-10-20 12:26:13.463534
460  2023-10-20 12:26:13.495480
461  2023-10-20 12:26:13.527398
462  2023-10-20 12:26:13.559303
463  2023-10-20 12:26:13.591223
464  2023-10-20 12:26:13.623136
465  2023-10-20 12:26:13.655051
466  2023-10-20 12:26:13.702939
467  2023-10-20 12:26:13.734839
468  2023-10-20 12:26:13.766756
469  2023-10-20 12:26:13.798637
470  2023-10-20 12:26:13.831547
471  2023-10-20 12:26:13.863462
472  2023-10-20 12:26:13.895407
473  2023-10-20 12:26:13.927323
474  2023-10-20 12:26:13.960202
475  2023-10-20 12:26:13.991120
476  2023-10-20 12:26:14.023034
477  2023-10-20 12:26:14.054990
478  2023-10-20 12:26:14.102854
479  2023-10-20 12:26:14.134769
480  2023-10-20 12:26:14.167682
481  2023-10-20 12:26:14.199561
482  2023-10-20 12:26:14.231475
483  2023-10-20 12:26:14.263390
484  2023-10-20 12:26:14.295341
485  2023-10-20 12:26:14.327251
486  2023-10-20 12:26:14.359166
487  2023-10-20 12:26:14.391083
488  2023-10-20 12:26:14.422962
489  2023-10-20 12:26:14.454927
490  2023-10-20 12:26:14.503745
491  2023-10-20 12:26:14.534663
492  2023-10-20 12:26:14.567574
493  2023-10-20 12:26:14.599489
494  2023-10-20 12:26:14.631435
495  2023-10-20 12:26:14.663351
496  2023-10-20 12:26:14.695239
497  2023-10-20 12:26:14.727179
498  2023-10-20 12:26:14.759061
499  2023-10-20 12:26:14.791010
500  2023-10-20 12:26:14.822890
501  2023-10-20 12:26:14.854804
502  2023-10-20 12:26:14.902678
503  2023-10-20 12:26:14.934590
504  2023-10-20 12:26:14.967545
505  2023-10-20 12:26:14.999450
506  2023-10-20 12:26:15.031331
507  2023-10-20 12:26:15.063245
508  2023-10-20 12:26:15.095160
509  2023-10-20 12:26:15.127106
510  2023-10-20 12:26:15.158989
511  2023-10-20 12:26:15.190909
512  2023-10-20 12:26:15.222818
513  2023-10-20 12:26:15.254732
514  2023-10-20 12:26:15.302646
515  2023-10-20 12:26:15.334518
516  2023-10-20 12:26:15.367430
517  2023-10-20 12:26:15.399345
518  2023-10-20 12:26:15.431260
519  2023-10-20 12:26:15.463173
520  2023-10-20 12:26:15.495088
521  2023-10-20 12:26:15.527002
522  2023-10-20 12:26:15.558917
523  2023-10-20 12:26:15.590831
524  2023-10-20 12:26:15.622746
525  2023-10-20 12:26:15.654660
526  2023-10-20 12:26:15.702532
527  2023-10-20 12:26:15.735443
528  2023-10-20 12:26:15.767358
529  2023-10-20 12:26:15.799272
530  2023-10-20 12:26:15.831187
531  2023-10-20 12:26:15.863101
532  2023-10-20 12:26:15.895016
533  2023-10-20 12:26:15.926930
534  2023-10-20 12:26:15.958846
535  2023-10-20 12:26:15.990759
536  2023-10-20 12:26:16.023671
537  2023-10-20 12:26:16.071542
538  2023-10-20 12:26:16.103457
539  2023-10-20 12:26:16.135371
540  2023-10-20 12:26:16.167286
541  2023-10-20 12:26:16.199200
542  2023-10-20 12:26:16.231115
543  2023-10-20 12:26:16.263029
544  2023-10-20 12:26:16.294943
545  2023-10-20 12:26:16.326858
546  2023-10-20 12:26:16.358773
547  2023-10-20 12:26:16.390687
548  2023-10-20 12:26:16.422628
549  2023-10-20 12:26:16.470538
550  2023-10-20 12:26:16.503451
551  2023-10-20 12:26:16.535371
552  2023-10-20 12:26:16.567279
553  2023-10-20 12:26:16.599193
554  2023-10-20 12:26:16.631107
555  2023-10-20 12:26:16.663054
556  2023-10-20 12:26:16.694936
557  2023-10-20 12:26:16.726851
558  2023-10-20 12:26:16.758765
559  2023-10-20 12:26:16.790710
560  2023-10-20 12:26:16.822594
561  2023-10-20 12:26:16.870509
562  2023-10-20 12:26:16.903503
563  2023-10-20 12:26:16.935417
564  2023-10-20 12:26:16.967416
565  2023-10-20 12:26:16.999364
566  2023-10-20 12:26:17.031245
567  2023-10-20 12:26:17.063159
568  2023-10-20 12:26:17.095074
569  2023-10-20 12:26:17.127042
570  2023-10-20 12:26:17.158903
571  2023-10-20 12:26:17.190909
572  2023-10-20 12:26:17.222823
573  2023-10-20 12:26:17.270695
574  2023-10-20 12:26:17.303607
575  2023-10-20 12:26:17.335533
576  2023-10-20 12:26:17.367436
577  2023-10-20 12:26:17.399350
578  2023-10-20 12:26:17.431319
579  2023-10-20 12:26:17.463233
580  2023-10-20 12:26:17.495147
581  2023-10-20 12:26:17.527071
582  2023-10-20 12:26:17.558976
583  2023-10-20 12:26:17.590891
584  2023-10-20 12:26:17.622805
585  2023-10-20 12:26:17.670677
586  2023-10-20 12:26:17.702591
587  2023-10-20 12:26:17.734506
588  2023-10-20 12:26:17.767417
589  2023-10-20 12:26:17.799332
590  2023-10-20 12:26:17.831378
591  2023-10-20 12:26:17.863291
592  2023-10-20 12:26:17.895205
593  2023-10-20 12:26:17.927120
594  2023-10-20 12:26:17.959036
595  2023-10-20 12:26:17.990948
596  2023-10-20 12:26:18.022863
597  2023-10-20 12:26:18.071732
598  2023-10-20 12:26:18.102649
599  2023-10-20 12:26:18.135563
600  2023-10-20 12:26:18.167477
601  2023-10-20 12:26:18.199407
602  2023-10-20 12:26:18.231306
603  2023-10-20 12:26:18.263220
604  2023-10-20 12:26:18.295135
605  2023-10-20 12:26:18.327048
606  2023-10-20 12:26:18.358963
607  2023-10-20 12:26:18.390878
608  2023-10-20 12:26:18.422833
609  2023-10-20 12:26:18.470664
610  2023-10-20 12:26:18.502608
611  2023-10-20 12:26:18.535490
612  2023-10-20 12:26:18.567404
613  2023-10-20 12:26:18.599319
614  2023-10-20 12:26:18.631261
615  2023-10-20 12:26:18.663253
616  2023-10-20 12:26:18.695168
617  2023-10-20 12:26:18.727119
618  2023-10-20 12:26:18.759065
619  2023-10-20 12:26:18.790998
620  2023-10-20 12:26:18.822866
621  2023-10-20 12:26:18.870767
622  2023-10-20 12:26:18.902648
623  2023-10-20 12:26:18.935560
624  2023-10-20 12:26:18.967615
625  2023-10-20 12:26:18.998665
626  2023-10-20 12:26:19.030650
627  2023-10-20 12:26:19.063562
628  2023-10-20 12:26:19.095483
629  2023-10-20 12:26:19.127488
630  2023-10-20 12:26:19.159403
631  2023-10-20 12:26:19.191317
632  2023-10-20 12:26:19.223232
633  2023-10-20 12:26:19.271103
634  2023-10-20 12:26:19.303018
635  2023-10-20 12:26:19.334948
636  2023-10-20 12:26:19.366847
637  2023-10-20 12:26:19.398761
638  2023-10-20 12:26:19.430683
639  2023-10-20 12:26:19.462825
640  2023-10-20 12:26:19.494771
641  2023-10-20 12:26:19.526654
642  2023-10-20 12:26:19.559565
643  2023-10-20 12:26:19.591480
644  2023-10-20 12:26:19.623498
645  2023-10-20 12:26:19.671369
646  2023-10-20 12:26:19.703340
647  2023-10-20 12:26:19.735254
648  2023-10-20 12:26:19.767168
649  2023-10-20 12:26:19.799083
650  2023-10-20 12:26:19.831000
651  2023-10-20 12:26:19.862912
652  2023-10-20 12:26:19.894826
653  2023-10-20 12:26:19.926741
654  2023-10-20 12:26:19.958696
655  2023-10-20 12:26:19.990570
656  2023-10-20 12:26:20.039482
657  2023-10-20 12:26:20.071353
658  2023-10-20 12:26:20.103332
659  2023-10-20 12:26:20.135302
660  2023-10-20 12:26:20.167299
661  2023-10-20 12:26:20.199599
662  2023-10-20 12:26:20.230657
663  2023-10-20 12:26:20.262571
664  2023-10-20 12:26:20.295483
665  2023-10-20 12:26:20.327398
666  2023-10-20 12:26:20.359312
667  2023-10-20 12:26:20.391226
668  2023-10-20 12:26:20.439098
669  2023-10-20 12:26:20.471012
670  2023-10-20 12:26:20.502941
671  2023-10-20 12:26:20.534841
672  2023-10-20 12:26:20.567753
673  2023-10-20 12:26:20.598670
674  2023-10-20 12:26:20.630585
675  2023-10-20 12:26:20.663497
676  2023-10-20 12:26:20.695411
677  2023-10-20 12:26:20.727325
678  2023-10-20 12:26:20.759240
679  2023-10-20 12:26:20.791160
680  2023-10-20 12:26:20.839026
681  2023-10-20 12:26:20.870940
682  2023-10-20 12:26:20.902855
683  2023-10-20 12:26:20.934769
684  2023-10-20 12:26:20.966684
685  2023-10-20 12:26:20.998677
686  2023-10-20 12:26:21.030605
687  2023-10-20 12:26:21.062588
688  2023-10-20 12:26:21.095500
689  2023-10-20 12:26:21.127465
690  2023-10-20 12:26:21.159367
691  2023-10-20 12:26:21.191321
692  2023-10-20 12:26:21.239193
693  2023-10-20 12:26:21.271107
694  2023-10-20 12:26:21.303022
695  2023-10-20 12:26:21.334983
696  2023-10-20 12:26:21.366851
697  2023-10-20 12:26:21.398765
698  2023-10-20 12:26:21.430680
699  2023-10-20 12:26:21.462633
700  2023-10-20 12:26:21.494550
701  2023-10-20 12:26:21.527420
702  2023-10-20 12:26:21.559335
703  2023-10-20 12:26:21.591249
704  2023-10-20 12:26:21.639121
705  2023-10-20 12:26:21.671035
706  2023-10-20 12:26:21.702950
707  2023-10-20 12:26:21.734864
708  2023-10-20 12:26:21.766779
709  2023-10-20 12:26:21.798731
710  2023-10-20 12:26:21.830608
711  2023-10-20 12:26:21.863519
712  2023-10-20 12:26:21.895434
713  2023-10-20 12:26:21.927348
714  2023-10-20 12:26:21.959263
715  2023-10-20 12:26:21.991177
716  2023-10-20 12:26:22.039049
717  2023-10-20 12:26:22.070963
718  2023-10-20 12:26:22.103014
719  2023-10-20 12:26:22.134933
720  2023-10-20 12:26:22.166843
721  2023-10-20 12:26:22.198757
722  2023-10-20 12:26:22.230795
723  2023-10-20 12:26:22.262835
724  2023-10-20 12:26:22.294749
725  2023-10-20 12:26:22.327726
726  2023-10-20 12:26:22.358642
727  2023-10-20 12:26:22.391554
728  2023-10-20 12:26:22.439437
729  2023-10-20 12:26:22.471340
730  2023-10-20 12:26:22.503388
731  2023-10-20 12:26:22.535302
732  2023-10-20 12:26:22.567222
733  2023-10-20 12:26:22.599130
734  2023-10-20 12:26:22.631082
735  2023-10-20 12:26:22.662998
736  2023-10-20 12:26:22.695008
737  2023-10-20 12:26:22.726923
738  2023-10-20 12:26:22.758837
739  2023-10-20 12:26:22.790793
740  2023-10-20 12:26:22.838664
741  2023-10-20 12:26:22.871586
742  2023-10-20 12:26:22.902536
743  2023-10-20 12:26:22.935447
744  2023-10-20 12:26:22.967399
745  2023-10-20 12:26:22.999311
746  2023-10-20 12:26:23.031191
747  2023-10-20 12:26:23.063105
748  2023-10-20 12:26:23.095020
749  2023-10-20 12:26:23.126949
750  2023-10-20 12:26:23.158823
751  2023-10-20 12:26:23.190738
752  2023-10-20 12:26:23.239025
753  2023-10-20 12:26:23.270940
754  2023-10-20 12:26:23.302956
755  2023-10-20 12:26:23.335320
756  2023-10-20 12:26:23.367235
757  2023-10-20 12:26:23.399149
758  2023-10-20 12:26:23.431064
759  2023-10-20 12:26:23.462978
760  2023-10-20 12:26:23.494893
761  2023-10-20 12:26:23.526807
762  2023-10-20 12:26:23.559719
763  2023-10-20 12:26:23.606593
764  2023-10-20 12:26:23.638508
765  2023-10-20 12:26:23.671419
766  2023-10-20 12:26:23.703339
767  2023-10-20 12:26:23.735248
768  2023-10-20 12:26:23.767163
769  2023-10-20 12:26:23.799077
770  2023-10-20 12:26:23.831005
771  2023-10-20 12:26:23.862906
772  2023-10-20 12:26:23.894820
773  2023-10-20 12:26:23.926735
774  2023-10-20 12:26:23.958690
775  2023-10-20 12:26:24.006566
776  2023-10-20 12:26:24.039503
777  2023-10-20 12:26:24.071397
778  2023-10-20 12:26:24.103262
779  2023-10-20 12:26:24.135210
780  2023-10-20 12:26:24.167095
781  2023-10-20 12:26:24.199005
782  2023-10-20 12:26:24.230922
783  2023-10-20 12:26:24.262834
784  2023-10-20 12:26:24.294782
785  2023-10-20 12:26:24.326663
786  2023-10-20 12:26:24.358577
787  2023-10-20 12:26:24.407446
788  2023-10-20 12:26:24.439361
789  2023-10-20 12:26:24.471275
790  2023-10-20 12:26:24.503189
791  2023-10-20 12:26:24.535104
792  2023-10-20 12:26:24.567018
793  2023-10-20 12:26:24.598933
794  2023-10-20 12:26:24.630849
795  2023-10-20 12:26:24.663801
796  2023-10-20 12:26:24.694756
797  2023-10-20 12:26:24.726670
798  2023-10-20 12:26:24.758717
799  2023-10-20 12:26:24.807631
800  2023-10-20 12:26:24.838590
801  2023-10-20 12:26:24.871538
802  2023-10-20 12:26:24.903607
803  2023-10-20 12:26:24.935521
804  2023-10-20 12:26:24.967478
805  2023-10-20 12:26:24.999468
806  2023-10-20 12:26:25.031383
807  2023-10-20 12:26:25.062930
808  2023-10-20 12:26:25.094843
809  2023-10-20 12:26:25.126792
810  2023-10-20 12:26:25.158672
811  2023-10-20 12:26:25.206581
812  2023-10-20 12:26:25.239455
813  2023-10-20 12:26:25.271370
814  2023-10-20 12:26:25.303284
815  2023-10-20 12:26:25.335239
816  2023-10-20 12:26:25.367261
817  2023-10-20 12:26:25.399176
818  2023-10-20 12:26:25.431090
819  2023-10-20 12:26:25.463163
820  2023-10-20 12:26:25.495077
821  2023-10-20 12:26:25.527139
822  2023-10-20 12:26:25.559208
823  2023-10-20 12:26:25.607080
824  2023-10-20 12:26:25.638994
825  2023-10-20 12:26:25.670909
826  2023-10-20 12:26:25.702823
827  2023-10-20 12:26:25.734738
828  2023-10-20 12:26:25.766799
829  2023-10-20 12:26:25.798714
830  2023-10-20 12:26:25.830628
831  2023-10-20 12:26:25.862635
832  2023-10-20 12:26:25.894549
833  2023-10-20 12:26:25.927462
834  2023-10-20 12:26:25.959376
835  2023-10-20 12:26:26.007247
836  2023-10-20 12:26:26.039193
837  2023-10-20 12:26:26.071076
838  2023-10-20 12:26:26.102991
839  2023-10-20 12:26:26.134905
840  2023-10-20 12:26:26.166855
841  2023-10-20 12:26:26.198734
842  2023-10-20 12:26:26.230648
843  2023-10-20 12:26:26.262563
844  2023-10-20 12:26:26.295475
845  2023-10-20 12:26:26.327389
846  2023-10-20 12:26:26.359304
847  2023-10-20 12:26:26.407175
848  2023-10-20 12:26:26.439090
849  2023-10-20 12:26:26.471101
850  2023-10-20 12:26:26.503016
851  2023-10-20 12:26:26.534930
852  2023-10-20 12:26:26.566845
853  2023-10-20 12:26:26.598759
854  2023-10-20 12:26:26.631686
855  2023-10-20 12:26:26.663585
856  2023-10-20 12:26:26.695500
857  2023-10-20 12:26:26.727418
858  2023-10-20 12:26:26.758798
859  2023-10-20 12:26:26.807667
860  2023-10-20 12:26:26.838584
861  2023-10-20 12:26:26.871496
862  2023-10-20 12:26:26.903410
863  2023-10-20 12:26:26.935325
864  2023-10-20 12:26:26.967239
865  2023-10-20 12:26:26.999154
866  2023-10-20 12:26:27.031068
867  2023-10-20 12:26:27.062970
868  2023-10-20 12:26:27.094879
869  2023-10-20 12:26:27.127791
870  2023-10-20 12:26:27.159706
871  2023-10-20 12:26:27.207577
872  2023-10-20 12:26:27.239494
873  2023-10-20 12:26:27.271406
874  2023-10-20 12:26:27.303320
875  2023-10-20 12:26:27.336267
876  2023-10-20 12:26:27.367182
877  2023-10-20 12:26:27.399064
878  2023-10-20 12:26:27.432034
879  2023-10-20 12:26:27.462930
880  2023-10-20 12:26:27.495841
881  2023-10-20 12:26:27.527720
882  2023-10-20 12:26:27.575592
883  2023-10-20 12:26:27.607541
884  2023-10-20 12:26:27.639421
885  2023-10-20 12:26:27.671334
886  2023-10-20 12:26:27.703248
887  2023-10-20 12:26:27.735281
888  2023-10-20 12:26:27.767197
889  2023-10-20 12:26:27.799110
890  2023-10-20 12:26:27.831024
891  2023-10-20 12:26:27.863249
892  2023-10-20 12:26:27.895210
893  2023-10-20 12:26:27.927175
894  2023-10-20 12:26:27.974996
895  2023-10-20 12:26:28.006911
896  2023-10-20 12:26:28.038825
897  2023-10-20 12:26:28.070740
898  2023-10-20 12:26:28.102654
899  2023-10-20 12:26:28.135601
900  2023-10-20 12:26:28.166483
901  2023-10-20 12:26:28.199395
902  2023-10-20 12:26:28.231343
903  2023-10-20 12:26:28.263257
904  2023-10-20 12:26:28.295170
905  2023-10-20 12:26:28.327090
906  2023-10-20 12:26:28.375923
907  2023-10-20 12:26:28.406840
908  2023-10-20 12:26:28.439752
909  2023-10-20 12:26:28.471665
910  2023-10-20 12:26:28.502582
911  2023-10-20 12:26:28.535509
912  2023-10-20 12:26:28.567411
913  2023-10-20 12:26:28.599388
914  2023-10-20 12:26:28.631239
915  2023-10-20 12:26:28.663156
916  2023-10-20 12:26:28.695076
917  2023-10-20 12:26:28.726986
918  2023-10-20 12:26:28.774884
919  2023-10-20 12:26:28.806804
920  2023-10-20 12:26:28.839712
921  2023-10-20 12:26:28.871627
922  2023-10-20 12:26:28.903507
923  2023-10-20 12:26:28.935424
924  2023-10-20 12:26:28.967367
925  2023-10-20 12:26:28.999303
926  2023-10-20 12:26:29.031167
927  2023-10-20 12:26:29.063094
928  2023-10-20 12:26:29.095034
929  2023-10-20 12:26:29.126945
930  2023-10-20 12:26:29.174820
931  2023-10-20 12:26:29.206744
932  2023-10-20 12:26:29.238611
933  2023-10-20 12:26:29.271563
934  2023-10-20 12:26:29.303436
935  2023-10-20 12:26:29.335384
936  2023-10-20 12:26:29.367266
937  2023-10-20 12:26:29.399557
938  2023-10-20 12:26:29.431464
939  2023-10-20 12:26:29.463342
940  2023-10-20 12:26:29.495286
941  2023-10-20 12:26:29.527199
942  2023-10-20 12:26:29.575041
943  2023-10-20 12:26:29.606956
944  2023-10-20 12:26:29.638906
945  2023-10-20 12:26:29.670841
946  2023-10-20 12:26:29.702699
947  2023-10-20 12:26:29.734656
948  2023-10-20 12:26:29.766571
949  2023-10-20 12:26:29.799473
950  2023-10-20 12:26:29.831369
951  2023-10-20 12:26:29.863297
952  2023-10-20 12:26:29.895213
953  2023-10-20 12:26:29.927131
954  2023-10-20 12:26:29.975000
955  2023-10-20 12:26:30.006884
956  2023-10-20 12:26:30.039136
957  2023-10-20 12:26:30.071127
958  2023-10-20 12:26:30.103050
959  2023-10-20 12:26:30.134976
960  2023-10-20 12:26:30.166807
961  2023-10-20 12:26:30.198793
962  2023-10-20 12:26:30.230704
963  2023-10-20 12:26:30.262623
964  2023-10-20 12:26:30.294539
965  2023-10-20 12:26:30.327477
966  2023-10-20 12:26:30.375318
967  2023-10-20 12:26:30.407364
968  2023-10-20 12:26:30.439279
969  2023-10-20 12:26:30.471227
970  2023-10-20 12:26:30.503129
971  2023-10-20 12:26:30.535073
972  2023-10-20 12:26:30.566989
973  2023-10-20 12:26:30.598942
974  2023-10-20 12:26:30.630818
975  2023-10-20 12:26:30.662732
976  2023-10-20 12:26:30.694645
977  2023-10-20 12:26:30.726575
978  2023-10-20 12:26:30.775434
979  2023-10-20 12:26:30.807357
980  2023-10-20 12:26:30.839260
981  2023-10-20 12:26:30.871174
982  2023-10-20 12:26:30.903091
983  2023-10-20 12:26:30.935004
984  2023-10-20 12:26:30.966933
985  2023-10-20 12:26:30.998799
986  2023-10-20 12:26:31.030748
987  2023-10-20 12:26:31.063627
988  2023-10-20 12:26:31.094592
989  2023-10-20 12:26:31.143452
990  2023-10-20 12:26:31.175486
991  2023-10-20 12:26:31.207407
992  2023-10-20 12:26:31.239273
993  2023-10-20 12:26:31.271221
994  2023-10-20 12:26:31.303134
995  2023-10-20 12:26:31.335051
996  2023-10-20 12:26:31.366793
997  2023-10-20 12:26:31.398672
998  2023-10-20 12:26:31.430587
999  2023-10-20 12:26:31.463524
1000  2023-10-20 12:26:31.495385
1001  2023-10-20 12:26:31.543288
1002  2023-10-20 12:26:31.575201
1003  2023-10-20 12:26:31.607086
1004  2023-10-20 12:26:31.638998
1005  2023-10-20 12:26:31.670947
1006  2023-10-20 12:26:31.702869
1007  2023-10-20 12:26:31.734779
1008  2023-10-20 12:26:31.766689
1009  2023-10-20 12:26:31.798601
1010  2023-10-20 12:26:31.830524
1011  2023-10-20 12:26:31.863431
1012  2023-10-20 12:26:31.895345
1013  2023-10-20 12:26:31.943217
1014  2023-10-20 12:26:31.975129
1015  2023-10-20 12:26:32.007012
1016  2023-10-20 12:26:32.038926
1017  2023-10-20 12:26:32.070880
1018  2023-10-20 12:26:32.102802
1019  2023-10-20 12:26:32.134702
1020  2023-10-20 12:26:32.166618
1021  2023-10-20 12:26:32.198532
1022  2023-10-20 12:26:32.231465
1023  2023-10-20 12:26:32.263359
1024  2023-10-20 12:26:32.295272
1025  2023-10-20 12:26:32.343142
1026  2023-10-20 12:26:32.375058
1027  2023-10-20 12:26:32.406942
1028  2023-10-20 12:26:32.438902
1029  2023-10-20 12:26:32.470810
1030  2023-10-20 12:26:32.503713
1031  2023-10-20 12:26:32.535635
1032  2023-10-20 12:26:32.567545
1033  2023-10-20 12:26:32.599451
1034  2023-10-20 12:26:32.631341
1035  2023-10-20 12:26:32.663255
1036  2023-10-20 12:26:32.695168
1037  2023-10-20 12:26:32.743071
1038  2023-10-20 12:26:32.774987
1039  2023-10-20 12:26:32.806918
1040  2023-10-20 12:26:32.838813
1041  2023-10-20 12:26:32.870732
1042  2023-10-20 12:26:32.902647
1043  2023-10-20 12:26:32.934557
1044  2023-10-20 12:26:32.967494
1045  2023-10-20 12:26:32.999395
1046  2023-10-20 12:26:33.031298
1047  2023-10-20 12:26:33.063213
1048  2023-10-20 12:26:33.095128
1049  2023-10-20 12:26:33.143000
1050  2023-10-20 12:26:33.174931
1051  2023-10-20 12:26:33.206829
1052  2023-10-20 12:26:33.238710
1053  2023-10-20 12:26:33.270626
1054  2023-10-20 12:26:33.302572
1055  2023-10-20 12:26:33.335485
1056  2023-10-20 12:26:33.366525
1057  2023-10-20 12:26:33.399528
1058  2023-10-20 12:26:33.431439
1059  2023-10-20 12:26:33.463355
1060  2023-10-20 12:26:33.495264
1061  2023-10-20 12:26:33.543135
1062  2023-10-20 12:26:33.575051
1063  2023-10-20 12:26:33.606965
1064  2023-10-20 12:26:33.638887
1065  2023-10-20 12:26:33.670762
1066  2023-10-20 12:26:33.702713
1067  2023-10-20 12:26:33.734623
1068  2023-10-20 12:26:33.766633
1069  2023-10-20 12:26:33.799548
1070  2023-10-20 12:26:33.830466
1071  2023-10-20 12:26:33.863389
1072  2023-10-20 12:26:33.895289
1073  2023-10-20 12:26:33.943160
1074  2023-10-20 12:26:33.975075
1075  2023-10-20 12:26:34.006991
1076  2023-10-20 12:26:34.038911
1077  2023-10-20 12:26:34.070823
1078  2023-10-20 12:26:34.102736
1079  2023-10-20 12:26:34.134647
1080  2023-10-20 12:26:34.166569
1081  2023-10-20 12:26:34.198480
1082  2023-10-20 12:26:34.231413
1083  2023-10-20 12:26:34.263312
1084  2023-10-20 12:26:34.295219
1085  2023-10-20 12:26:34.343088
1086  2023-10-20 12:26:34.375002
1087  2023-10-20 12:26:34.406925
1088  2023-10-20 12:26:34.438833
1089  2023-10-20 12:26:34.470747
1090  2023-10-20 12:26:34.502678
1091  2023-10-20 12:26:34.534578
1092  2023-10-20 12:26:34.566500
1093  2023-10-20 12:26:34.599414
1094  2023-10-20 12:26:34.631317
1095  2023-10-20 12:26:34.663230
1096  2023-10-20 12:26:34.695145
1097  2023-10-20 12:26:34.743015
1098  2023-10-20 12:26:34.774930
1099  2023-10-20 12:26:34.806857
1100  2023-10-20 12:26:34.838763
1101  2023-10-20 12:26:34.870642
1102  2023-10-20 12:26:34.902593
1103  2023-10-20 12:26:34.935519
1104  2023-10-20 12:26:34.967412
1105  2023-10-20 12:26:34.999297
1106  2023-10-20 12:26:35.031247
1107  2023-10-20 12:26:35.063158
1108  2023-10-20 12:26:35.110998
1109  2023-10-20 12:26:35.142948
1110  2023-10-20 12:26:35.174861
1111  2023-10-20 12:26:35.206782
1112  2023-10-20 12:26:35.238656
1113  2023-10-20 12:26:35.270606
1114  2023-10-20 12:26:35.302522
1115  2023-10-20 12:26:35.335439
1116  2023-10-20 12:26:35.367345
1117  2023-10-20 12:26:35.399257
1118  2023-10-20 12:26:35.431171
1119  2023-10-20 12:26:35.463088
1120  2023-10-20 12:26:35.510926
1121  2023-10-20 12:26:35.542874
1122  2023-10-20 12:26:35.574787
1123  2023-10-20 12:26:35.606705
1124  2023-10-20 12:26:35.638584
1125  2023-10-20 12:26:35.670534
1126  2023-10-20 12:26:35.703410
1127  2023-10-20 12:26:35.735368
1128  2023-10-20 12:26:35.767270
1129  2023-10-20 12:26:35.799194
1130  2023-10-20 12:26:35.831101
1131  2023-10-20 12:26:35.863014
1132  2023-10-20 12:26:35.910854
1133  2023-10-20 12:26:35.942805
1134  2023-10-20 12:26:35.974714
1135  2023-10-20 12:26:36.006628
1136  2023-10-20 12:26:36.038547
1137  2023-10-20 12:26:36.070462
1138  2023-10-20 12:26:36.103338
1139  2023-10-20 12:26:36.135288
1140  2023-10-20 12:26:36.167199
1141  2023-10-20 12:26:36.199113
1142  2023-10-20 12:26:36.231029
1143  2023-10-20 12:26:36.262944
1144  2023-10-20 12:26:36.310782
1145  2023-10-20 12:26:36.342735
1146  2023-10-20 12:26:36.374618
1147  2023-10-20 12:26:36.406608
1148  2023-10-20 12:26:36.439521
1149  2023-10-20 12:26:36.471430
1150  2023-10-20 12:26:36.503365
1151  2023-10-20 12:26:36.535273
1152  2023-10-20 12:26:36.567181
1153  2023-10-20 12:26:36.599098
1154  2023-10-20 12:26:36.631011
1155  2023-10-20 12:26:36.662941
1156  2023-10-20 12:26:36.710760
1157  2023-10-20 12:26:36.742691
1158  2023-10-20 12:26:36.774622
1159  2023-10-20 12:26:36.806542
1160  2023-10-20 12:26:36.838466
1161  2023-10-20 12:26:36.871362
1162  2023-10-20 12:26:36.903284
1163  2023-10-20 12:26:36.935194
1164  2023-10-20 12:26:36.967106
1165  2023-10-20 12:26:36.999022
1166  2023-10-20 12:26:37.030934
1167  2023-10-20 12:26:37.062850
1168  2023-10-20 12:26:37.110687
1169  2023-10-20 12:26:37.142639
1170  2023-10-20 12:26:37.174548
1171  2023-10-20 12:26:37.207477
1172  2023-10-20 12:26:37.239377
1173  2023-10-20 12:26:37.271257
1174  2023-10-20 12:26:37.303205
1175  2023-10-20 12:26:37.335127
1176  2023-10-20 12:26:37.367035
1177  2023-10-20 12:26:37.398950
1178  2023-10-20 12:26:37.430865
1179  2023-10-20 12:26:37.462781
1180  2023-10-20 12:26:37.510646
1181  2023-10-20 12:26:37.542579
1182  2023-10-20 12:26:37.575481
1183  2023-10-20 12:26:37.607407
1184  2023-10-20 12:26:37.639307
1185  2023-10-20 12:26:37.671185
1186  2023-10-20 12:26:37.703099
1187  2023-10-20 12:26:37.735046
1188  2023-10-20 12:26:37.766994
1189  2023-10-20 12:26:37.798908
1190  2023-10-20 12:26:37.830995
1191  2023-10-20 12:26:37.862921
1192  2023-10-20 12:26:37.910800
1193  2023-10-20 12:26:37.942662
1194  2023-10-20 12:26:37.974613
1195  2023-10-20 12:26:38.006523
1196  2023-10-20 12:26:38.039436
1197  2023-10-20 12:26:38.071318
1198  2023-10-20 12:26:38.103232
1199  2023-10-20 12:26:38.135180
1200  2023-10-20 12:26:38.167095
1201  2023-10-20 12:26:38.199009
1202  2023-10-20 12:26:38.230890
1203  2023-10-20 12:26:38.262804
1204  2023-10-20 12:26:38.310707
1205  2023-10-20 12:26:38.342590
1206  2023-10-20 12:26:38.374542
1207  2023-10-20 12:26:38.407499
1208  2023-10-20 12:26:38.438506
1209  2023-10-20 12:26:38.471383
1210  2023-10-20 12:26:38.503328
1211  2023-10-20 12:26:38.535247
1212  2023-10-20 12:26:38.567162
1213  2023-10-20 12:26:38.599073
1214  2023-10-20 12:26:38.631002
1215  2023-10-20 12:26:38.678585
1216  2023-10-20 12:26:38.710498
1217  2023-10-20 12:26:38.743377
1218  2023-10-20 12:26:38.775290
1219  2023-10-20 12:26:38.807364
1220  2023-10-20 12:26:38.839361
1221  2023-10-20 12:26:38.871264
1222  2023-10-20 12:26:38.903135
1223  2023-10-20 12:26:38.934785
1224  2023-10-20 12:26:38.966750
1225  2023-10-20 12:26:38.998742
1226  2023-10-20 12:26:39.030656
1227  2023-10-20 12:26:39.078520
1228  2023-10-20 12:26:39.111402
1229  2023-10-20 12:26:39.143316
1230  2023-10-20 12:26:39.175262
1231  2023-10-20 12:26:39.207174
1232  2023-10-20 12:26:39.239092
1233  2023-10-20 12:26:39.271006
1234  2023-10-20 12:26:39.302889
1235  2023-10-20 12:26:39.334803
1236  2023-10-20 12:26:39.366760
1237  2023-10-20 12:26:39.398664
1238  2023-10-20 12:26:39.430576
1239  2023-10-20 12:26:39.478453
1240  2023-10-20 12:26:39.511330
1241  2023-10-20 12:26:39.543244
1242  2023-10-20 12:26:39.575158
1243  2023-10-20 12:26:39.607073
1244  2023-10-20 12:26:39.639019
1245  2023-10-20 12:26:39.670932
1246  2023-10-20 12:26:39.702816
1247  2023-10-20 12:26:39.734731
1248  2023-10-20 12:26:39.766678
1249  2023-10-20 12:26:39.798601
1250  2023-10-20 12:26:39.830506
1251  2023-10-20 12:26:39.879343
1252  2023-10-20 12:26:39.911258
1253  2023-10-20 12:26:39.943172
1254  2023-10-20 12:26:39.975087
1255  2023-10-20 12:26:40.007001
1256  2023-10-20 12:26:40.038914
1257  2023-10-20 12:26:40.070830
1258  2023-10-20 12:26:40.102744
1259  2023-10-20 12:26:40.134659
1260  2023-10-20 12:26:40.166607
1261  2023-10-20 12:26:40.198524
1262  2023-10-20 12:26:40.231400
1263  2023-10-20 12:26:40.279271
1264  2023-10-20 12:26:40.311186
1265  2023-10-20 12:26:40.343100
1266  2023-10-20 12:26:40.375051
1267  2023-10-20 12:26:40.406929
1268  2023-10-20 12:26:40.438849
1269  2023-10-20 12:26:40.470758
1270  2023-10-20 12:26:40.502744
1271  2023-10-20 12:26:40.534668
1272  2023-10-20 12:26:40.566582
1273  2023-10-20 12:26:40.598497
1274  2023-10-20 12:26:40.631457
1275  2023-10-20 12:26:40.679285
1276  2023-10-20 12:26:40.711228
1277  2023-10-20 12:26:40.743109
1278  2023-10-20 12:26:40.775023
1279  2023-10-20 12:26:40.806938
1280  2023-10-20 12:26:40.838896
1281  2023-10-20 12:26:40.870875
1282  2023-10-20 12:26:40.902795
1283  2023-10-20 12:26:40.934703
1284  2023-10-20 12:26:40.966654
1285  2023-10-20 12:26:40.998565
1286  2023-10-20 12:26:41.030447
1287  2023-10-20 12:26:41.079500
1288  2023-10-20 12:26:41.111411
1289  2023-10-20 12:26:41.143325
1290  2023-10-20 12:26:41.174567
1291  2023-10-20 12:26:41.206492
1292  2023-10-20 12:26:41.239404
1293  2023-10-20 12:26:41.271318
1294  2023-10-20 12:26:41.303233
1295  2023-10-20 12:26:41.335147
1296  2023-10-20 12:26:41.367062
1297  2023-10-20 12:26:41.398976
1298  2023-10-20 12:26:41.431436
1299  2023-10-20 12:26:41.478387
1300  2023-10-20 12:26:41.510426
1301  2023-10-20 12:26:41.543375
1302  2023-10-20 12:26:41.575284
1303  2023-10-20 12:26:41.607167
1304  2023-10-20 12:26:41.639144
1305  2023-10-20 12:26:41.671029
1306  2023-10-20 12:26:41.702546
1307  2023-10-20 12:26:41.734547
1308  2023-10-20 12:26:41.766461
1309  2023-10-20 12:26:41.798411
1310  2023-10-20 12:26:41.831346
1311  2023-10-20 12:26:41.879342
1312  2023-10-20 12:26:41.911292
1313  2023-10-20 12:26:41.943207
1314  2023-10-20 12:26:41.975121
1315  2023-10-20 12:26:42.007036
1316  2023-10-20 12:26:42.038991
1317  2023-10-20 12:26:42.070864
1318  2023-10-20 12:26:42.102779
1319  2023-10-20 12:26:42.134695
1320  2023-10-20 12:26:42.166608
1321  2023-10-20 12:26:42.198522
1322  2023-10-20 12:26:42.230437
1323  2023-10-20 12:26:42.279306
1324  2023-10-20 12:26:42.311220
1325  2023-10-20 12:26:42.343135
1326  2023-10-20 12:26:42.375049
1327  2023-10-20 12:26:42.406963
1328  2023-10-20 12:26:42.438878
1329  2023-10-20 12:26:42.470792
1330  2023-10-20 12:26:42.502712
1331  2023-10-20 12:26:42.534621
1332  2023-10-20 12:26:42.566536
1333  2023-10-20 12:26:42.598450
1334  2023-10-20 12:26:42.647369
1335  2023-10-20 12:26:42.679343
1336  2023-10-20 12:26:42.711258
1337  2023-10-20 12:26:42.743172
1338  2023-10-20 12:26:42.775087
1339  2023-10-20 12:26:42.807001
1340  2023-10-20 12:26:42.838916
1341  2023-10-20 12:26:42.870830
1342  2023-10-20 12:26:42.902745
1343  2023-10-20 12:26:42.934659
1344  2023-10-20 12:26:42.966574
1345  2023-10-20 12:26:42.998520
1346  2023-10-20 12:26:43.047357
1347  2023-10-20 12:26:43.079273
1348  2023-10-20 12:26:43.111186
1349  2023-10-20 12:26:43.143033
1350  2023-10-20 12:26:43.174947
1351  2023-10-20 12:26:43.206830
1352  2023-10-20 12:26:43.238785
1353  2023-10-20 12:26:43.270695
1354  2023-10-20 12:26:43.302609
1355  2023-10-20 12:26:43.334525
1356  2023-10-20 12:26:43.366466
1357  2023-10-20 12:26:43.399350
1358  2023-10-20 12:26:43.447222
1359  2023-10-20 12:26:43.479136
1360  2023-10-20 12:26:43.511051
1361  2023-10-20 12:26:43.543059
1362  2023-10-20 12:26:43.574959
1363  2023-10-20 12:26:43.606874
1364  2023-10-20 12:26:43.638788
1365  2023-10-20 12:26:43.670739
1366  2023-10-20 12:26:43.702652
1367  2023-10-20 12:26:43.734532
1368  2023-10-20 12:26:43.767443
1369  2023-10-20 12:26:43.799403
1370  2023-10-20 12:26:43.846479
1371  2023-10-20 12:26:43.878428
1372  2023-10-20 12:26:43.911357
1373  2023-10-20 12:26:43.943219
1374  2023-10-20 12:26:43.975134
1375  2023-10-20 12:26:44.007079
1376  2023-10-20 12:26:44.039013
1377  2023-10-20 12:26:44.071048
1378  2023-10-20 12:26:44.103052
1379  2023-10-20 12:26:44.134885
1380  2023-10-20 12:26:44.166846
1381  2023-10-20 12:26:44.198888
1382  2023-10-20 12:26:44.246803
1383  2023-10-20 12:26:44.278694
1384  2023-10-20 12:26:44.310600
1385  2023-10-20 12:26:44.342719
1386  2023-10-20 12:26:44.374747
1387  2023-10-20 12:26:44.406700
1388  2023-10-20 12:26:44.438614
1389  2023-10-20 12:26:44.470529
1390  2023-10-20 12:26:44.502478
1391  2023-10-20 12:26:44.535355
1392  2023-10-20 12:26:44.567270
1393  2023-10-20 12:26:44.599285
1394  2023-10-20 12:26:44.647318
1395  2023-10-20 12:26:44.679213
1396  2023-10-20 12:26:44.711097
1397  2023-10-20 12:26:44.743077
1398  2023-10-20 12:26:44.774992
1399  2023-10-20 12:26:44.806906
1400  2023-10-20 12:26:44.838821
1401  2023-10-20 12:26:44.870735
1402  2023-10-20 12:26:44.902813
1403  2023-10-20 12:26:44.934727
1404  2023-10-20 12:26:44.967053
1405  2023-10-20 12:26:44.998968
1406  2023-10-20 12:26:45.046850
1407  2023-10-20 12:26:45.078913
1408  2023-10-20 12:26:45.110849
1409  2023-10-20 12:26:45.142769
1410  2023-10-20 12:26:45.174736
1411  2023-10-20 12:26:45.206681
1412  2023-10-20 12:26:45.239562
1413  2023-10-20 12:26:45.270479
1414  2023-10-20 12:26:45.302394
1415  2023-10-20 12:26:45.334343
1416  2023-10-20 12:26:45.367220
1417  2023-10-20 12:26:45.399134
1418  2023-10-20 12:26:45.447006
1419  2023-10-20 12:26:45.478921
1420  2023-10-20 12:26:45.510835
1421  2023-10-20 12:26:45.542781
1422  2023-10-20 12:26:45.574664
1423  2023-10-20 12:26:45.606616
1424  2023-10-20 12:26:45.638530
1425  2023-10-20 12:26:45.670445
1426  2023-10-20 12:26:45.703356
1427  2023-10-20 12:26:45.735272
1428  2023-10-20 12:26:45.767185
1429  2023-10-20 12:26:45.799100
1430  2023-10-20 12:26:45.846972
1431  2023-10-20 12:26:45.878886
1432  2023-10-20 12:26:45.910835
1433  2023-10-20 12:26:45.942715
1434  2023-10-20 12:26:45.974686
1435  2023-10-20 12:26:46.006648
1436  2023-10-20 12:26:46.038562
1437  2023-10-20 12:26:46.070476
1438  2023-10-20 12:26:46.103388
1439  2023-10-20 12:26:46.135303
1440  2023-10-20 12:26:46.167251
1441  2023-10-20 12:26:46.215121
1442  2023-10-20 12:26:46.247039
1443  2023-10-20 12:26:46.279064
1444  2023-10-20 12:26:46.310975
1445  2023-10-20 12:26:46.342889
1446  2023-10-20 12:26:46.374838
1447  2023-10-20 12:26:46.406718
1448  2023-10-20 12:26:46.438633
1449  2023-10-20 12:26:46.470547
1450  2023-10-20 12:26:46.502501
1451  2023-10-20 12:26:46.535373
1452  2023-10-20 12:26:46.566430
1453  2023-10-20 12:26:46.615299
1454  2023-10-20 12:26:46.647213
1455  2023-10-20 12:26:46.679128
1456  2023-10-20 12:26:46.711042
1457  2023-10-20 12:26:46.742957
1458  2023-10-20 12:26:46.774871
1459  2023-10-20 12:26:46.806786
1460  2023-10-20 12:26:46.838700
1461  2023-10-20 12:26:46.870615
1462  2023-10-20 12:26:46.902529
1463  2023-10-20 12:26:46.934493
1464  2023-10-20 12:26:46.966479
1465  2023-10-20 12:26:47.014350
1466  2023-10-20 12:26:47.047262
1467  2023-10-20 12:26:47.079176
1468  2023-10-20 12:26:47.111091
1469  2023-10-20 12:26:47.143005
1470  2023-10-20 12:26:47.174954
1471  2023-10-20 12:26:47.206869
1472  2023-10-20 12:26:47.239781
1473  2023-10-20 12:26:47.270698
1474  2023-10-20 12:26:47.302612
1475  2023-10-20 12:26:47.334583
1476  2023-10-20 12:26:47.367441
1477  2023-10-20 12:26:47.415323
1478  2023-10-20 12:26:47.447225
1479  2023-10-20 12:26:47.479139
1480  2023-10-20 12:26:47.511054
1481  2023-10-20 12:26:47.543145
1482  2023-10-20 12:26:47.575060
1483  2023-10-20 12:26:47.606974
1484  2023-10-20 12:26:47.638889
1485  2023-10-20 12:26:47.670836
1486  2023-10-20 12:26:47.702750
1487  2023-10-20 12:26:47.734632
1488  2023-10-20 12:26:47.766546
1489  2023-10-20 12:26:47.814519
1490  2023-10-20 12:26:47.846496
1491  2023-10-20 12:26:47.878502
1492  2023-10-20 12:26:47.911411
1493  2023-10-20 12:26:47.942456
1494  2023-10-20 12:26:47.974364
1495  2023-10-20 12:26:48.007331
1496  2023-10-20 12:26:48.039257
1497  2023-10-20 12:26:48.071126
1498  2023-10-20 12:26:48.103040
1499  2023-10-20 12:26:48.134955
1500  2023-10-20 12:26:48.166869
1501  2023-10-20 12:26:48.214741
1502  2023-10-20 12:26:48.246655
1503  2023-10-20 12:26:48.278570
1504  2023-10-20 12:26:48.311482
1505  2023-10-20 12:26:48.342579
1506  2023-10-20 12:26:48.374493
1507  2023-10-20 12:26:48.406408
1508  2023-10-20 12:26:48.439320
1509  2023-10-20 12:26:48.471234
1510  2023-10-20 12:26:48.503084
1511  2023-10-20 12:26:48.535001
1512  2023-10-20 12:26:48.566915
1513  2023-10-20 12:26:48.614801
1514  2023-10-20 12:26:48.646701
1515  2023-10-20 12:26:48.678616
1516  2023-10-20 12:26:48.710530
1517  2023-10-20 12:26:48.742445
1518  2023-10-20 12:26:48.774359
1519  2023-10-20 12:26:48.806388
1520  2023-10-20 12:26:48.838988
1521  2023-10-20 12:26:48.870904
1522  2023-10-20 12:26:48.902817
1523  2023-10-20 12:26:48.934732
1524  2023-10-20 12:26:48.966646
1525  2023-10-20 12:26:49.015516
1526  2023-10-20 12:26:49.047476
1527  2023-10-20 12:26:49.079372
1528  2023-10-20 12:26:49.111263
1529  2023-10-20 12:26:49.143173
1530  2023-10-20 12:26:49.175087
1531  2023-10-20 12:26:49.207033
1532  2023-10-20 12:26:49.238916
1533  2023-10-20 12:26:49.270831
1534  2023-10-20 12:26:49.302745
1535  2023-10-20 12:26:49.334692
1536  2023-10-20 12:26:49.366574
1537  2023-10-20 12:26:49.414480
1538  2023-10-20 12:26:49.446360
1539  2023-10-20 12:26:49.479272
1540  2023-10-20 12:26:49.511187
1541  2023-10-20 12:26:49.543101
1542  2023-10-20 12:26:49.575015
1543  2023-10-20 12:26:49.606930
1544  2023-10-20 12:26:49.638844
1545  2023-10-20 12:26:49.670759
1546  2023-10-20 12:26:49.702673
1547  2023-10-20 12:26:49.734587
1548  2023-10-20 12:26:49.766502
1549  2023-10-20 12:26:49.814373
1550  2023-10-20 12:26:49.846456
1551  2023-10-20 12:26:49.879368
1552  2023-10-20 12:26:49.911282
1553  2023-10-20 12:26:49.943197
1554  2023-10-20 12:26:49.975111
1555  2023-10-20 12:26:50.007026
1556  2023-10-20 12:26:50.038940
1557  2023-10-20 12:26:50.070854
1558  2023-10-20 12:26:50.102769
1559  2023-10-20 12:26:50.134686
1560  2023-10-20 12:26:50.182725
1561  2023-10-20 12:26:50.214640
1562  2023-10-20 12:26:50.246554
1563  2023-10-20 12:26:50.278469
1564  2023-10-20 12:26:50.310383
1565  2023-10-20 12:26:50.343295
1566  2023-10-20 12:26:50.375209
1567  2023-10-20 12:26:50.407208
1568  2023-10-20 12:26:50.440145
1569  2023-10-20 12:26:50.472218
1570  2023-10-20 12:26:50.503100
1571  2023-10-20 12:26:50.535015
1572  2023-10-20 12:26:50.583915
1573  2023-10-20 12:26:50.615832
1574  2023-10-20 12:26:50.647714
1575  2023-10-20 12:26:50.679938
1576  2023-10-20 12:26:50.711818
1577  2023-10-20 12:26:50.743842
1578  2023-10-20 12:26:50.775021
1579  2023-10-20 12:26:50.807940
1580  2023-10-20 12:26:50.839035
1581  2023-10-20 12:26:50.871986
1582  2023-10-20 12:26:50.902943
1583  2023-10-20 12:26:50.935886
1584  2023-10-20 12:26:50.983773
1585  2023-10-20 12:26:51.015684
1586  2023-10-20 12:26:51.047585
1587  2023-10-20 12:26:51.079516
1588  2023-10-20 12:26:51.111431
1589  2023-10-20 12:26:51.143336
1590  2023-10-20 12:26:51.175214
1591  2023-10-20 12:26:51.207129
1592  2023-10-20 12:26:51.239043
1593  2023-10-20 12:26:51.270957
1594  2023-10-20 12:26:51.302871
1595  2023-10-20 12:26:51.335859
1596  2023-10-20 12:26:51.383673
1597  2023-10-20 12:26:51.414572
1598  2023-10-20 12:26:51.446486
1599  2023-10-20 12:26:51.479437
1600  2023-10-20 12:26:51.511361
1601  2023-10-20 12:26:51.543261
1602  2023-10-20 12:26:51.575179
1603  2023-10-20 12:26:51.607091
1604  2023-10-20 12:26:51.639001
1605  2023-10-20 12:26:51.670916
1606  2023-10-20 12:26:51.702830
1607  2023-10-20 12:26:51.734713
1608  2023-10-20 12:26:51.782587
1609  2023-10-20 12:26:51.814501
1610  2023-10-20 12:26:51.846414
1611  2023-10-20 12:26:51.879352
1612  2023-10-20 12:26:51.911293
1613  2023-10-20 12:26:51.943155
1614  2023-10-20 12:26:51.975094
1615  2023-10-20 12:26:52.007020
1616  2023-10-20 12:26:52.038899
1617  2023-10-20 12:26:52.070813
1618  2023-10-20 12:26:52.103761
1619  2023-10-20 12:26:52.134675
1620  2023-10-20 12:26:52.182526
1621  2023-10-20 12:26:52.215428
1622  2023-10-20 12:26:52.246373
1623  2023-10-20 12:26:52.279283
1624  2023-10-20 12:26:52.311170
1625  2023-10-20 12:26:52.344141
1626  2023-10-20 12:26:52.375032
1627  2023-10-20 12:26:52.406912
1628  2023-10-20 12:26:52.439867
1629  2023-10-20 12:26:52.471780
1630  2023-10-20 12:26:52.503698
1631  2023-10-20 12:26:52.534606
1632  2023-10-20 12:26:52.583472
1633  2023-10-20 12:26:52.615353
1634  2023-10-20 12:26:52.647268
1635  2023-10-20 12:26:52.679359
1636  2023-10-20 12:26:52.711267
1637  2023-10-20 12:26:52.743149
1638  2023-10-20 12:26:52.775063
1639  2023-10-20 12:26:52.807102
1640  2023-10-20 12:26:52.838985
1641  2023-10-20 12:26:52.870899
1642  2023-10-20 12:26:52.902813
1643  2023-10-20 12:26:52.934866
1644  2023-10-20 12:26:52.982682
1645  2023-10-20 12:26:53.014606
1646  2023-10-20 12:26:53.047541
1647  2023-10-20 12:26:53.079466
1648  2023-10-20 12:26:53.111370
1649  2023-10-20 12:26:53.143290
1650  2023-10-20 12:26:53.175201
1651  2023-10-20 12:26:53.207112
1652  2023-10-20 12:26:53.239028
1653  2023-10-20 12:26:53.270910
1654  2023-10-20 12:26:53.302825
1655  2023-10-20 12:26:53.334740
1656  2023-10-20 12:26:53.383638
1657  2023-10-20 12:26:53.414526
1658  2023-10-20 12:26:53.447436
1659  2023-10-20 12:26:53.479387
1660  2023-10-20 12:26:53.511318
1661  2023-10-20 12:26:53.543243
1662  2023-10-20 12:26:53.575128
1663  2023-10-20 12:26:53.607008
1664  2023-10-20 12:26:53.639038
1665  2023-10-20 12:26:53.670987
1666  2023-10-20 12:26:53.702902
1667  2023-10-20 12:26:53.734838
1668  2023-10-20 12:26:53.782688
1669  2023-10-20 12:26:53.814601
1670  2023-10-20 12:26:53.846520
1671  2023-10-20 12:26:53.879429
1672  2023-10-20 12:26:53.911342
1673  2023-10-20 12:26:53.943276
1674  2023-10-20 12:26:53.975140
1675  2023-10-20 12:26:54.007052
1676  2023-10-20 12:26:54.038967
1677  2023-10-20 12:26:54.070925
1678  2023-10-20 12:26:54.102823
1679  2023-10-20 12:26:54.151362
1680  2023-10-20 12:26:54.183280
1681  2023-10-20 12:26:54.215192
1682  2023-10-20 12:26:54.247150
1683  2023-10-20 12:26:54.279019
1684  2023-10-20 12:26:54.310941
1685  2023-10-20 12:26:54.342900
1686  2023-10-20 12:26:54.374796
1687  2023-10-20 12:26:54.406677
1688  2023-10-20 12:26:54.438591
1689  2023-10-20 12:26:54.470507
1690  2023-10-20 12:26:54.502454
1691  2023-10-20 12:26:54.551343
1692  2023-10-20 12:26:54.583241
1693  2023-10-20 12:26:54.615154
1694  2023-10-20 12:26:54.647066
1695  2023-10-20 12:26:54.678946
1696  2023-10-20 12:26:54.710895
1697  2023-10-20 12:26:54.742809
1698  2023-10-20 12:26:54.774721
1699  2023-10-20 12:26:54.806604
1700  2023-10-20 12:26:54.838552
1701  2023-10-20 12:26:54.870470
1702  2023-10-20 12:26:54.903388
1703  2023-10-20 12:26:54.951266
1704  2023-10-20 12:26:54.983162
1705  2023-10-20 12:26:55.015080
1706  2023-10-20 12:26:55.046997
1707  2023-10-20 12:26:55.078874
1708  2023-10-20 12:26:55.110820
1709  2023-10-20 12:26:55.142753
1710  2023-10-20 12:26:55.174661
1711  2023-10-20 12:26:55.206565
1712  2023-10-20 12:26:55.238481
1713  2023-10-20 12:26:55.271406
1714  2023-10-20 12:26:55.303394
1715  2023-10-20 12:26:55.350263
1716  2023-10-20 12:26:55.383191
1717  2023-10-20 12:26:55.415094
1718  2023-10-20 12:26:55.446973
1719  2023-10-20 12:26:55.478888
1720  2023-10-20 12:26:55.510837
1721  2023-10-20 12:26:55.542574
1722  2023-10-20 12:26:55.574465
1723  2023-10-20 12:26:55.606397
1724  2023-10-20 12:26:55.638350
1725  2023-10-20 12:26:55.671348
1726  2023-10-20 12:26:55.703251
1727  2023-10-20 12:26:55.751129
1728  2023-10-20 12:26:55.783143
1729  2023-10-20 12:26:55.815058
1730  2023-10-20 12:26:55.846940
1731  2023-10-20 12:26:55.878887
1732  2023-10-20 12:26:55.910801
1733  2023-10-20 12:26:55.942717
1734  2023-10-20 12:26:55.974638
1735  2023-10-20 12:26:56.006544
1736  2023-10-20 12:26:56.038459
1737  2023-10-20 12:26:56.071375
1738  2023-10-20 12:26:56.103288
1739  2023-10-20 12:26:56.151161
1740  2023-10-20 12:26:56.183086
1741  2023-10-20 12:26:56.214985
1742  2023-10-20 12:26:56.246901
1743  2023-10-20 12:26:56.278783
1744  2023-10-20 12:26:56.310697
1745  2023-10-20 12:26:56.342643
1746  2023-10-20 12:26:56.374556
1747  2023-10-20 12:26:56.406474
1748  2023-10-20 12:26:56.438355
1749  2023-10-20 12:26:56.470318
1750  2023-10-20 12:26:56.503214
1751  2023-10-20 12:26:56.551100
1752  2023-10-20 12:26:56.583005
1753  2023-10-20 12:26:56.614971
1754  2023-10-20 12:26:56.646854
1755  2023-10-20 12:26:56.678772
1756  2023-10-20 12:26:56.710682
1757  2023-10-20 12:26:56.742714
1758  2023-10-20 12:26:56.774620
1759  2023-10-20 12:26:56.806526
1760  2023-10-20 12:26:56.838408
1761  2023-10-20 12:26:56.871372
1762  2023-10-20 12:26:56.903267
1763  2023-10-20 12:26:56.951158
1764  2023-10-20 12:26:56.983021
1765  2023-10-20 12:26:57.014968
1766  2023-10-20 12:26:57.046888
1767  2023-10-20 12:26:57.078798
1768  2023-10-20 12:26:57.110678
1769  2023-10-20 12:26:57.142785
1770  2023-10-20 12:26:57.174696
1771  2023-10-20 12:26:57.206633
1772  2023-10-20 12:26:57.238496
1773  2023-10-20 12:26:57.270410
1774  2023-10-20 12:26:57.302360
1775  2023-10-20 12:26:57.351194
1776  2023-10-20 12:26:57.383142
1777  2023-10-20 12:26:57.415105
1778  2023-10-20 12:26:57.447074
1779  2023-10-20 12:26:57.478988
1780  2023-10-20 12:26:57.510871
1781  2023-10-20 12:26:57.542790
1782  2023-10-20 12:26:57.574748
1783  2023-10-20 12:26:57.606646
1784  2023-10-20 12:26:57.638529
1785  2023-10-20 12:26:57.670477
1786  2023-10-20 12:26:57.718365
1787  2023-10-20 12:26:57.751260
1788  2023-10-20 12:26:57.783203
1789  2023-10-20 12:26:57.815094
1790  2023-10-20 12:26:57.847003
1791  2023-10-20 12:26:57.878917
1792  2023-10-20 12:26:57.910799
1793  2023-10-20 12:26:57.942753
1794  2023-10-20 12:26:57.974659
1795  2023-10-20 12:26:58.006577
1796  2023-10-20 12:26:58.038457
1797  2023-10-20 12:26:58.070371
1798  2023-10-20 12:26:58.119288
1799  2023-10-20 12:26:58.151186
1800  2023-10-20 12:26:58.183103
1801  2023-10-20 12:26:58.215011
1802  2023-10-20 12:26:58.247157
1803  2023-10-20 12:26:58.279070
1804  2023-10-20 12:26:58.311057
1805  2023-10-20 12:26:58.343002
1806  2023-10-20 12:26:58.374886
1807  2023-10-20 12:26:58.406834
1808  2023-10-20 12:26:58.438754
1809  2023-10-20 12:26:58.470598
1810  2023-10-20 12:26:58.518580
1811  2023-10-20 12:26:58.550452
1812  2023-10-20 12:26:58.582403
1813  2023-10-20 12:26:58.614316
1814  2023-10-20 12:26:58.647223
1815  2023-10-20 12:26:58.679139
1816  2023-10-20 12:26:58.711071
1817  2023-10-20 12:26:58.742967
1818  2023-10-20 12:26:58.774881
1819  2023-10-20 12:26:58.806797
1820  2023-10-20 12:26:58.838710
1821  2023-10-20 12:26:58.870634
1822  2023-10-20 12:26:58.918498
1823  2023-10-20 12:26:58.950379
1824  2023-10-20 12:26:58.982331
1825  2023-10-20 12:26:59.015241
1826  2023-10-20 12:26:59.047155
1827  2023-10-20 12:26:59.079081
1828  2023-10-20 12:26:59.110949
1829  2023-10-20 12:26:59.142863
1830  2023-10-20 12:26:59.174818
1831  2023-10-20 12:26:59.206756
1832  2023-10-20 12:26:59.238640
1833  2023-10-20 12:26:59.270535
1834  2023-10-20 12:26:59.318424
1835  2023-10-20 12:26:59.351306
1836  2023-10-20 12:26:59.383263
1837  2023-10-20 12:26:59.415185
1838  2023-10-20 12:26:59.447079
1839  2023-10-20 12:26:59.478994
1840  2023-10-20 12:26:59.510910
1841  2023-10-20 12:26:59.542824
1842  2023-10-20 12:26:59.574740
1843  2023-10-20 12:26:59.606651
1844  2023-10-20 12:26:59.638569
1845  2023-10-20 12:26:59.670495
1846  2023-10-20 12:26:59.718355
1847  2023-10-20 12:26:59.751285
1848  2023-10-20 12:26:59.783282
1849  2023-10-20 12:26:59.815222
1850  2023-10-20 12:26:59.847138
1851  2023-10-20 12:26:59.879050
1852  2023-10-20 12:26:59.910933
1853  2023-10-20 12:26:59.942848
1854  2023-10-20 12:26:59.974793
1855  2023-10-20 12:27:00.006721
1856  2023-10-20 12:27:00.038632
1857  2023-10-20 12:27:00.070505
1858  2023-10-20 12:27:00.118377
1859  2023-10-20 12:27:00.151303
1860  2023-10-20 12:27:00.183252
1861  2023-10-20 12:27:00.215152
1862  2023-10-20 12:27:00.247075
1863  2023-10-20 12:27:00.278982
1864  2023-10-20 12:27:00.310945
1865  2023-10-20 12:27:00.342892
1866  2023-10-20 12:27:00.374808
1867  2023-10-20 12:27:00.406768
1868  2023-10-20 12:27:00.438690
1869  2023-10-20 12:27:00.470609
1870  2023-10-20 12:27:00.518513
1871  2023-10-20 12:27:00.550422
1872  2023-10-20 12:27:00.582401
1873  2023-10-20 12:27:00.615279
1874  2023-10-20 12:27:00.647228
1875  2023-10-20 12:27:00.679141
1876  2023-10-20 12:27:00.711022
1877  2023-10-20 12:27:00.742967
1878  2023-10-20 12:27:00.774881
1879  2023-10-20 12:27:00.806796
1880  2023-10-20 12:27:00.838716
1881  2023-10-20 12:27:00.870635
1882  2023-10-20 12:27:00.918498
1883  2023-10-20 12:27:00.950382
1884  2023-10-20 12:27:00.982296
1885  2023-10-20 12:27:01.015251
1886  2023-10-20 12:27:01.047173
1887  2023-10-20 12:27:01.079068
1888  2023-10-20 12:27:01.110982
1889  2023-10-20 12:27:01.142866
1890  2023-10-20 12:27:01.174809
1891  2023-10-20 12:27:01.206735
1892  2023-10-20 12:27:01.238642
1893  2023-10-20 12:27:01.270523
1894  2023-10-20 12:27:01.318430
1895  2023-10-20 12:27:01.351307
1896  2023-10-20 12:27:01.383349
1897  2023-10-20 12:27:01.414301
1898  2023-10-20 12:27:01.447219
1899  2023-10-20 12:27:01.479126
1900  2023-10-20 12:27:01.511006
1901  2023-10-20 12:27:01.543021
1902  2023-10-20 12:27:01.574962
1903  2023-10-20 12:27:01.606876
1904  2023-10-20 12:27:01.638791
1905  2023-10-20 12:27:01.686666
1906  2023-10-20 12:27:01.718595
1907  2023-10-20 12:27:01.750501
1908  2023-10-20 12:27:01.782375
1909  2023-10-20 12:27:01.815320
1910  2023-10-20 12:27:01.847252
1911  2023-10-20 12:27:01.879151
1912  2023-10-20 12:27:01.911030
1913  2023-10-20 12:27:01.942944
1914  2023-10-20 12:27:01.974891
1915  2023-10-20 12:27:02.006805
1916  2023-10-20 12:27:02.038744
1917  2023-10-20 12:27:02.086599
1918  2023-10-20 12:27:02.118513
1919  2023-10-20 12:27:02.150388
1920  2023-10-20 12:27:02.182337
1921  2023-10-20 12:27:02.214254
1922  2023-10-20 12:27:02.247185
1923  2023-10-20 12:27:02.279088
1924  2023-10-20 12:27:02.310994
1925  2023-10-20 12:27:02.342872
1926  2023-10-20 12:27:02.374823
1927  2023-10-20 12:27:02.406748
1928  2023-10-20 12:27:02.438649
1929  2023-10-20 12:27:02.486526
1930  2023-10-20 12:27:02.518433
1931  2023-10-20 12:27:02.551373
1932  2023-10-20 12:27:02.583261
1933  2023-10-20 12:27:02.615142
1934  2023-10-20 12:27:02.647089
1935  2023-10-20 12:27:02.679005
1936  2023-10-20 12:27:02.710920
1937  2023-10-20 12:27:02.742800
1938  2023-10-20 12:27:02.774715
1939  2023-10-20 12:27:02.806661
1940  2023-10-20 12:27:02.838583
1941  2023-10-20 12:27:02.886464
1942  2023-10-20 12:27:02.919413
1943  2023-10-20 12:27:02.951328
1944  2023-10-20 12:27:02.983242
1945  2023-10-20 12:27:03.015156
1946  2023-10-20 12:27:03.047071
1947  2023-10-20 12:27:03.078988
1948  2023-10-20 12:27:03.110902
1949  2023-10-20 12:27:03.142814
1950  2023-10-20 12:27:03.174729
1951  2023-10-20 12:27:03.206686
1952  2023-10-20 12:27:03.238597
1953  2023-10-20 12:27:03.286432
1954  2023-10-20 12:27:03.318380
1955  2023-10-20 12:27:03.350305
1956  2023-10-20 12:27:03.383207
1957  2023-10-20 12:27:03.415131
1958  2023-10-20 12:27:03.446999
1959  2023-10-20 12:27:03.478913
1960  2023-10-20 12:27:03.510828
1961  2023-10-20 12:27:03.542782
1962  2023-10-20 12:27:03.574714
1963  2023-10-20 12:27:03.606602
1964  2023-10-20 12:27:03.638519
1965  2023-10-20 12:27:03.686395
1966  2023-10-20 12:27:03.718305
1967  2023-10-20 12:27:03.751097
1968  2023-10-20 12:27:03.783044
1969  2023-10-20 12:27:03.815001
1970  2023-10-20 12:27:03.846915
1971  2023-10-20 12:27:03.878880
1972  2023-10-20 12:27:03.910744
1973  2023-10-20 12:27:03.942659
1974  2023-10-20 12:27:03.974573
1975  2023-10-20 12:27:04.006527
1976  2023-10-20 12:27:04.038441
1977  2023-10-20 12:27:04.086315
1978  2023-10-20 12:27:04.119185
1979  2023-10-20 12:27:04.151100
1980  2023-10-20 12:27:04.183014
1981  2023-10-20 12:27:04.214929
1982  2023-10-20 12:27:04.246843
1983  2023-10-20 12:27:04.278757
1984  2023-10-20 12:27:04.310672
1985  2023-10-20 12:27:04.342586
1986  2023-10-20 12:27:04.374501
1987  2023-10-20 12:27:04.406524
1988  2023-10-20 12:27:04.438469
1989  2023-10-20 12:27:04.486341
1990  2023-10-20 12:27:04.518256
1991  2023-10-20 12:27:04.551167
1992  2023-10-20 12:27:04.583082
1993  2023-10-20 12:27:04.614996
1994  2023-10-20 12:27:04.646911
1995  2023-10-20 12:27:04.678825
1996  2023-10-20 12:27:04.710740
1997  2023-10-20 12:27:04.742654
1998  2023-10-20 12:27:04.774568
1999  2023-10-20 12:27:04.806483
2000  2023-10-20 12:27:04.838397
2001  2023-10-20 12:27:04.886411
2002  2023-10-20 12:27:04.918290
2003  2023-10-20 12:27:04.951202
2004  2023-10-20 12:27:04.983116
2005  2023-10-20 12:27:05.015030
2006  2023-10-20 12:27:05.046945
2007  2023-10-20 12:27:05.078859
2008  2023-10-20 12:27:05.110774
2009  2023-10-20 12:27:05.142688
2010  2023-10-20 12:27:05.174603
2011  2023-10-20 12:27:05.206518
2012  2023-10-20 12:27:05.254496
2013  2023-10-20 12:27:05.286422
2014  2023-10-20 12:27:05.318305
2015  2023-10-20 12:27:05.351218
2016  2023-10-20 12:27:05.383131
2017  2023-10-20 12:27:05.415046
2018  2023-10-20 12:27:05.446960
2019  2023-10-20 12:27:05.478875
2020  2023-10-20 12:27:05.510789
2021  2023-10-20 12:27:05.542706
2022  2023-10-20 12:27:05.574618
2023  2023-10-20 12:27:05.606533
2024  2023-10-20 12:27:05.655402
2025  2023-10-20 12:27:05.686477
2026  2023-10-20 12:27:05.718395
2027  2023-10-20 12:27:05.750424
2028  2023-10-20 12:27:05.782284
2029  2023-10-20 12:27:05.815195
2030  2023-10-20 12:27:05.847109
2031  2023-10-20 12:27:05.879138
2032  2023-10-20 12:27:05.911120
2033  2023-10-20 12:27:05.943022
2034  2023-10-20 12:27:05.974936
2035  2023-10-20 12:27:06.006691
2036  2023-10-20 12:27:06.054562
2037  2023-10-20 12:27:06.087510
2038  2023-10-20 12:27:06.118424
2039  2023-10-20 12:27:06.151303
2040  2023-10-20 12:27:06.182297
2041  2023-10-20 12:27:06.214248
2042  2023-10-20 12:27:06.247205
2043  2023-10-20 12:27:06.279146
2044  2023-10-20 12:27:06.311061
2045  2023-10-20 12:27:06.343049
2046  2023-10-20 12:27:06.374964
2047  2023-10-20 12:27:06.406910
2048  2023-10-20 12:27:06.454781
2049  2023-10-20 12:27:06.486664
2050  2023-10-20 12:27:06.518579
2051  2023-10-20 12:27:06.550581
2052  2023-10-20 12:27:06.582581
2053  2023-10-20 12:27:06.614445
2054  2023-10-20 12:27:06.646359
2055  2023-10-20 12:27:06.679271
2056  2023-10-20 12:27:06.710233
2057  2023-10-20 12:27:06.743100
2058  2023-10-20 12:27:06.775015
2059  2023-10-20 12:27:06.806929
2060  2023-10-20 12:27:06.854911
2061  2023-10-20 12:27:06.886825
2062  2023-10-20 12:27:06.918775
2063  2023-10-20 12:27:06.950658
2064  2023-10-20 12:27:06.982582
2065  2023-10-20 12:27:07.014483
2066  2023-10-20 12:27:07.046668
2067  2023-10-20 12:27:07.078582
2068  2023-10-20 12:27:07.110496
2069  2023-10-20 12:27:07.142411
2070  2023-10-20 12:27:07.174325
2071  2023-10-20 12:27:07.207240
2072  2023-10-20 12:27:07.255109
2073  2023-10-20 12:27:07.287152
2074  2023-10-20 12:27:07.319067
2075  2023-10-20 12:27:07.350981
2076  2023-10-20 12:27:07.382896
2077  2023-10-20 12:27:07.414810
2078  2023-10-20 12:27:07.446733
2079  2023-10-20 12:27:07.478640
2080  2023-10-20 12:27:07.510553
2081  2023-10-20 12:27:07.542468
2082  2023-10-20 12:27:07.574382
2083  2023-10-20 12:27:07.607294
2084  2023-10-20 12:27:07.655166
2085  2023-10-20 12:27:07.687194
2086  2023-10-20 12:27:07.719182
2087  2023-10-20 12:27:07.751096
2088  2023-10-20 12:27:07.783011
2089  2023-10-20 12:27:07.814925
2090  2023-10-20 12:27:07.846840
2091  2023-10-20 12:27:07.878754
2092  2023-10-20 12:27:07.910705
2093  2023-10-20 12:27:07.942583
2094  2023-10-20 12:27:07.974497
2095  2023-10-20 12:27:08.006444
2096  2023-10-20 12:27:08.055335
2097  2023-10-20 12:27:08.087247
2098  2023-10-20 12:27:08.119110
2099  2023-10-20 12:27:08.151024
2100  2023-10-20 12:27:08.182939
2101  2023-10-20 12:27:08.214883
2102  2023-10-20 12:27:08.246768
2103  2023-10-20 12:27:08.278686
2104  2023-10-20 12:27:08.310758
2105  2023-10-20 12:27:08.342672
2106  2023-10-20 12:27:08.374733
2107  2023-10-20 12:27:08.406697
2108  2023-10-20 12:27:08.454569
2109  2023-10-20 12:27:08.486483
2110  2023-10-20 12:27:08.518398
2111  2023-10-20 12:27:08.550313
2112  2023-10-20 12:27:08.582228
2113  2023-10-20 12:27:08.615139
2114  2023-10-20 12:27:08.647060
2115  2023-10-20 12:27:08.678967
2116  2023-10-20 12:27:08.710882
2117  2023-10-20 12:27:08.742963
2118  2023-10-20 12:27:08.774877
2119  2023-10-20 12:27:08.806792
2120  2023-10-20 12:27:08.854668
2121  2023-10-20 12:27:08.886578
2122  2023-10-20 12:27:08.918493
2123  2023-10-20 12:27:08.951404
2124  2023-10-20 12:27:08.982342
2125  2023-10-20 12:27:09.015253
2126  2023-10-20 12:27:09.047283
2127  2023-10-20 12:27:09.079198
2128  2023-10-20 12:27:09.111112
2129  2023-10-20 12:27:09.143033
2130  2023-10-20 12:27:09.174941
2131  2023-10-20 12:27:09.222813
2132  2023-10-20 12:27:09.254380
2133  2023-10-20 12:27:09.287259
2134  2023-10-20 12:27:09.319223
2135  2023-10-20 12:27:09.351176
2136  2023-10-20 12:27:09.383091
2137  2023-10-20 12:27:09.415006
2138  2023-10-20 12:27:09.446920
2139  2023-10-20 12:27:09.478834
2140  2023-10-20 12:27:09.510748
2141  2023-10-20 12:27:09.542665
2142  2023-10-20 12:27:09.574587
2143  2023-10-20 12:27:09.622491
2144  2023-10-20 12:27:09.654364
2145  2023-10-20 12:27:09.687165
2146  2023-10-20 12:27:09.719079
2147  2023-10-20 12:27:09.750993
2148  2023-10-20 12:27:09.782979
2149  2023-10-20 12:27:09.814894
2150  2023-10-20 12:27:09.846808
2151  2023-10-20 12:27:09.878756
2152  2023-10-20 12:27:09.910640
2153  2023-10-20 12:27:09.942551
2154  2023-10-20 12:27:09.974466
2155  2023-10-20 12:27:10.022337
2156  2023-10-20 12:27:10.055249
2157  2023-10-20 12:27:10.086166
2158  2023-10-20 12:27:10.119078
2159  2023-10-20 12:27:10.150993
2160  2023-10-20 12:27:10.182909
2161  2023-10-20 12:27:10.214822
2162  2023-10-20 12:27:10.246736
2163  2023-10-20 12:27:10.278650
2164  2023-10-20 12:27:10.311562
2165  2023-10-20 12:27:10.343477
2166  2023-10-20 12:27:10.375392
2167  2023-10-20 12:27:10.423250
2168  2023-10-20 12:27:10.455261
2169  2023-10-20 12:27:10.487127
2170  2023-10-20 12:27:10.519042
2171  2023-10-20 12:27:10.551037
2172  2023-10-20 12:27:10.582952
2173  2023-10-20 12:27:10.614898
2174  2023-10-20 12:27:10.646894
2175  2023-10-20 12:27:10.678814
2176  2023-10-20 12:27:10.710759
2177  2023-10-20 12:27:10.742639
2178  2023-10-20 12:27:10.774551
2179  2023-10-20 12:27:10.822423
2180  2023-10-20 12:27:10.854337
2181  2023-10-20 12:27:10.887249
2182  2023-10-20 12:27:10.919199
2183  2023-10-20 12:27:10.951078
2184  2023-10-20 12:27:10.982993
2185  2023-10-20 12:27:11.014907
2186  2023-10-20 12:27:11.046857
2187  2023-10-20 12:27:11.078736
2188  2023-10-20 12:27:11.110650
2189  2023-10-20 12:27:11.142565
2190  2023-10-20 12:27:11.174479
2191  2023-10-20 12:27:11.223348
2192  2023-10-20 12:27:11.255263
2193  2023-10-20 12:27:11.287177
2194  2023-10-20 12:27:11.319092
2195  2023-10-20 12:27:11.351006
2196  2023-10-20 12:27:11.382920
2197  2023-10-20 12:27:11.414835
2198  2023-10-20 12:27:11.446749
2199  2023-10-20 12:27:11.478664
2200  2023-10-20 12:27:11.510578
2201  2023-10-20 12:27:11.543490
2202  2023-10-20 12:27:11.574407
2203  2023-10-20 12:27:11.622278
2204  2023-10-20 12:27:11.655190
2205  2023-10-20 12:27:11.687105
2206  2023-10-20 12:27:11.719019
2207  2023-10-20 12:27:11.750934
2208  2023-10-20 12:27:11.782848
2209  2023-10-20 12:27:11.814763
2210  2023-10-20 12:27:11.846709
2211  2023-10-20 12:27:11.878592
2212  2023-10-20 12:27:11.910506
2213  2023-10-20 12:27:11.942420
2214  2023-10-20 12:27:11.974335
2215  2023-10-20 12:27:12.023204
2216  2023-10-20 12:27:12.054264
2217  2023-10-20 12:27:12.087217
2218  2023-10-20 12:27:12.118464
2219  2023-10-20 12:27:12.151343
2220  2023-10-20 12:27:12.183257
2221  2023-10-20 12:27:12.214207
2222  2023-10-20 12:27:12.247220
2223  2023-10-20 12:27:12.279260
2224  2023-10-20 12:27:12.310296
2225  2023-10-20 12:27:12.343208
2226  2023-10-20 12:27:12.375122
2227  2023-10-20 12:27:12.423025
2228  2023-10-20 12:27:12.454945
2229  2023-10-20 12:27:12.486822
2230  2023-10-20 12:27:12.518737
2231  2023-10-20 12:27:12.550687
2232  2023-10-20 12:27:12.582602
2233  2023-10-20 12:27:12.614480
2234  2023-10-20 12:27:12.646394
2235  2023-10-20 12:27:12.678344
2236  2023-10-20 12:27:12.711221
2237  2023-10-20 12:27:12.743135
2238  2023-10-20 12:27:12.791007
2239  2023-10-20 12:27:12.822922
2240  2023-10-20 12:27:12.854836
2241  2023-10-20 12:27:12.886750
2242  2023-10-20 12:27:12.918665
2243  2023-10-20 12:27:12.950580
2244  2023-10-20 12:27:12.982501
2245  2023-10-20 12:27:13.014474
2246  2023-10-20 12:27:13.046421
2247  2023-10-20 12:27:13.078336
2248  2023-10-20 12:27:13.111255
2249  2023-10-20 12:27:13.143162
2250  2023-10-20 12:27:13.191034
2251  2023-10-20 12:27:13.222948
2252  2023-10-20 12:27:13.254863
2253  2023-10-20 12:27:13.286777
2254  2023-10-20 12:27:13.318691
2255  2023-10-20 12:27:13.350608
2256  2023-10-20 12:27:13.382520
2257  2023-10-20 12:27:13.415464
2258  2023-10-20 12:27:13.447347
2259  2023-10-20 12:27:13.480286
2260  2023-10-20 12:27:13.511176
2261  2023-10-20 12:27:13.543090
2262  2023-10-20 12:27:13.590962
2263  2023-10-20 12:27:13.622879
2264  2023-10-20 12:27:13.654791
2265  2023-10-20 12:27:13.686705
2266  2023-10-20 12:27:13.718628
2267  2023-10-20 12:27:13.752471
2268  2023-10-20 12:27:13.782430
2269  2023-10-20 12:27:13.814379
2270  2023-10-20 12:27:13.848286
2271  2023-10-20 12:27:13.879204
2272  2023-10-20 12:27:13.911133
2273  2023-10-20 12:27:13.944030
2274  2023-10-20 12:27:13.991899
2275  2023-10-20 12:27:14.023816
2276  2023-10-20 12:27:14.055727
2277  2023-10-20 12:27:14.087642
2278  2023-10-20 12:27:14.119568
2279  2023-10-20 12:27:14.151474
2280  2023-10-20 12:27:14.183357
2281  2023-10-20 12:27:14.215270
2282  2023-10-20 12:27:14.247185
2283  2023-10-20 12:27:14.280104
2284  2023-10-20 12:27:14.312021
2285  2023-10-20 12:27:14.343955
2286  2023-10-20 12:27:14.391827
2287  2023-10-20 12:27:14.423742
2288  2023-10-20 12:27:14.455655
2289  2023-10-20 12:27:14.487574
2290  2023-10-20 12:27:14.519454
2291  2023-10-20 12:27:14.551404
2292  2023-10-20 12:27:14.583330
2293  2023-10-20 12:27:14.615248
2294  2023-10-20 12:27:14.647171
2295  2023-10-20 12:27:14.679175
2296  2023-10-20 12:27:14.711087
2297  2023-10-20 12:27:14.743004
2298  2023-10-20 12:27:14.790874
2299  2023-10-20 12:27:14.823796
2300  2023-10-20 12:27:14.855715
2301  2023-10-20 12:27:14.887614
2302  2023-10-20 12:27:14.919543
2303  2023-10-20 12:27:14.951460
2304  2023-10-20 12:27:14.983370
2305  2023-10-20 12:27:15.015275
2306  2023-10-20 12:27:15.047189
2307  2023-10-20 12:27:15.079138
2308  2023-10-20 12:27:15.111011
2309  2023-10-20 12:27:15.142950
2310  2023-10-20 12:27:15.190801
2311  2023-10-20 12:27:15.222715
2312  2023-10-20 12:27:15.254624
2313  2023-10-20 12:27:15.286514
2314  2023-10-20 12:27:15.319425
2315  2023-10-20 12:27:15.350412
2316  2023-10-20 12:27:15.383442
2317  2023-10-20 12:27:15.415374
2318  2023-10-20 12:27:15.447274
2319  2023-10-20 12:27:15.479163
2320  2023-10-20 12:27:15.511243
2321  2023-10-20 12:27:15.543122
2322  2023-10-20 12:27:15.590963
2323  2023-10-20 12:27:15.622917
2324  2023-10-20 12:27:15.654814
2325  2023-10-20 12:27:15.686751
2326  2023-10-20 12:27:15.718709
2327  2023-10-20 12:27:15.750743
2328  2023-10-20 12:27:15.782648
2329  2023-10-20 12:27:15.814568
2330  2023-10-20 12:27:15.846485
2331  2023-10-20 12:27:15.878403
2332  2023-10-20 12:27:15.911275
2333  2023-10-20 12:27:15.943190
2334  2023-10-20 12:27:15.991109
2335  2023-10-20 12:27:16.022979
2336  2023-10-20 12:27:16.054922
2337  2023-10-20 12:27:16.086836
2338  2023-10-20 12:27:16.118767
2339  2023-10-20 12:27:16.150633
2340  2023-10-20 12:27:16.183576
2341  2023-10-20 12:27:16.214515
2342  2023-10-20 12:27:16.247508
2343  2023-10-20 12:27:16.279453
2344  2023-10-20 12:27:16.311367
2345  2023-10-20 12:27:16.343287
2346  2023-10-20 12:27:16.391168
2347  2023-10-20 12:27:16.423038
2348  2023-10-20 12:27:16.454952
2349  2023-10-20 12:27:16.486897
2350  2023-10-20 12:27:16.519808
2351  2023-10-20 12:27:16.551723
2352  2023-10-20 12:27:16.584634
2353  2023-10-20 12:27:16.614557
2354  2023-10-20 12:27:16.647467
2355  2023-10-20 12:27:16.678380
2356  2023-10-20 12:27:16.711307
2357  2023-10-20 12:27:16.758181
2358  2023-10-20 12:27:16.791084
2359  2023-10-20 12:27:16.822998
2360  2023-10-20 12:27:16.854799
2361  2023-10-20 12:27:16.886784
2362  2023-10-20 12:27:16.918739
2363  2023-10-20 12:27:16.951682
2364  2023-10-20 12:27:16.983646
2365  2023-10-20 12:27:17.015572
2366  2023-10-20 12:27:17.046444
2367  2023-10-20 12:27:17.078365
2368  2023-10-20 12:27:17.110394
2369  2023-10-20 12:27:17.158261
2370  2023-10-20 12:27:17.191164
2371  2023-10-20 12:27:17.223077
2372  2023-10-20 12:27:17.254990
2373  2023-10-20 12:27:17.286903
2374  2023-10-20 12:27:17.318785
2375  2023-10-20 12:27:17.350700
2376  2023-10-20 12:27:17.382653
2377  2023-10-20 12:27:17.414529
2378  2023-10-20 12:27:17.446443
2379  2023-10-20 12:27:17.478391
2380  2023-10-20 12:27:17.510304
2381  2023-10-20 12:27:17.558176
2382  2023-10-20 12:27:17.591118
2383  2023-10-20 12:27:17.623003
2384  2023-10-20 12:27:17.654915
2385  2023-10-20 12:27:17.686829
2386  2023-10-20 12:27:17.718713
2387  2023-10-20 12:27:17.751674
2388  2023-10-20 12:27:17.783574
2389  2023-10-20 12:27:17.814492
2390  2023-10-20 12:27:17.846402
2391  2023-10-20 12:27:17.878321
2392  2023-10-20 12:27:17.911328
2393  2023-10-20 12:27:17.958187
2394  2023-10-20 12:27:17.991067
2395  2023-10-20 12:27:18.023023
2396  2023-10-20 12:27:18.054917
2397  2023-10-20 12:27:18.086834
2398  2023-10-20 12:27:18.118744
2399  2023-10-20 12:27:18.150662
2400  2023-10-20 12:27:18.182574
2401  2023-10-20 12:27:18.214490
2402  2023-10-20 12:27:18.246404
2403  2023-10-20 12:27:18.278287
2404  2023-10-20 12:27:18.310234
2405  2023-10-20 12:27:18.359123
2406  2023-10-20 12:27:18.391018
2407  2023-10-20 12:27:18.422902
2408  2023-10-20 12:27:18.454816
2409  2023-10-20 12:27:18.486763
2410  2023-10-20 12:27:18.518643
2411  2023-10-20 12:27:18.550602
2412  2023-10-20 12:27:18.582530
2413  2023-10-20 12:27:18.614426
2414  2023-10-20 12:27:18.646339
2415  2023-10-20 12:27:18.678257
2416  2023-10-20 12:27:18.710174
2417  2023-10-20 12:27:18.759038
2418  2023-10-20 12:27:18.790944
2419  2023-10-20 12:27:18.822862
2420  2023-10-20 12:27:18.854777
2421  2023-10-20 12:27:18.886687
2422  2023-10-20 12:27:18.918571
2423  2023-10-20 12:27:18.950586
2424  2023-10-20 12:27:18.982616
2425  2023-10-20 12:27:19.014533
2426  2023-10-20 12:27:19.046449
2427  2023-10-20 12:27:19.078476
2428  2023-10-20 12:27:19.110428
2429  2023-10-20 12:27:19.159289
2430  2023-10-20 12:27:19.190234
2431  2023-10-20 12:27:19.223125
2432  2023-10-20 12:27:19.255003
2433  2023-10-20 12:27:19.286961
2434  2023-10-20 12:27:19.318963
2435  2023-10-20 12:27:19.350912
2436  2023-10-20 12:27:19.382825
2437  2023-10-20 12:27:19.414775
2438  2023-10-20 12:27:19.446621
2439  2023-10-20 12:27:19.478544
2440  2023-10-20 12:27:19.510598
2441  2023-10-20 12:27:19.558484
2442  2023-10-20 12:27:19.590381
2443  2023-10-20 12:27:19.622298
2444  2023-10-20 12:27:19.654617
2445  2023-10-20 12:27:19.686625
2446  2023-10-20 12:27:19.718489
2447  2023-10-20 12:27:19.750515
2448  2023-10-20 12:27:19.782510
2449  2023-10-20 12:27:19.814428
2450  2023-10-20 12:27:19.847349
2451  2023-10-20 12:27:19.878254
2452  2023-10-20 12:27:19.911135
2453  2023-10-20 12:27:19.959062
2454  2023-10-20 12:27:19.990958
2455  2023-10-20 12:27:20.022869
2456  2023-10-20 12:27:20.054782
2457  2023-10-20 12:27:20.086703
2458  2023-10-20 12:27:20.118586
2459  2023-10-20 12:27:20.150536
2460  2023-10-20 12:27:20.182443
2461  2023-10-20 12:27:20.215368
2462  2023-10-20 12:27:20.247283
2463  2023-10-20 12:27:20.279151
2464  2023-10-20 12:27:20.327070
2465  2023-10-20 12:27:20.358973
2466  2023-10-20 12:27:20.390883
2467  2023-10-20 12:27:20.422798
2468  2023-10-20 12:27:20.454606
2469  2023-10-20 12:27:20.486545
2470  2023-10-20 12:27:20.518438
2471  2023-10-20 12:27:20.550379
2472  2023-10-20 12:27:20.583359
2473  2023-10-20 12:27:20.615276
2474  2023-10-20 12:27:20.647186
2475  2023-10-20 12:27:20.679069
2476  2023-10-20 12:27:20.726978
2477  2023-10-20 12:27:20.758892
2478  2023-10-20 12:27:20.790810
2479  2023-10-20 12:27:20.822716
2480  2023-10-20 12:27:20.854642
2481  2023-10-20 12:27:20.886557
2482  2023-10-20 12:27:20.918582
2483  2023-10-20 12:27:20.950453
2484  2023-10-20 12:27:20.983398
2485  2023-10-20 12:27:21.015325
2486  2023-10-20 12:27:21.047195
2487  2023-10-20 12:27:21.079108
2488  2023-10-20 12:27:21.127018
2489  2023-10-20 12:27:21.159069
2490  2023-10-20 12:27:21.190990
2491  2023-10-20 12:27:21.222893
2492  2023-10-20 12:27:21.254799
2493  2023-10-20 12:27:21.286713
2494  2023-10-20 12:27:21.318604
2495  2023-10-20 12:27:21.350508
2496  2023-10-20 12:27:21.382468
2497  2023-10-20 12:27:21.414373
2498  2023-10-20 12:27:21.446287
2499  2023-10-20 12:27:21.479163
2500  2023-10-20 12:27:21.527069
2501  2023-10-20 12:27:21.558273
2502  2023-10-20 12:27:21.591150
2503  2023-10-20 12:27:21.623187
2504  2023-10-20 12:27:21.655081
2505  2023-10-20 12:27:21.687013
2506  2023-10-20 12:27:21.718911
2507  2023-10-20 12:27:21.750820
2508  2023-10-20 12:27:21.782739
2509  2023-10-20 12:27:21.814650
2510  2023-10-20 12:27:21.846575
2511  2023-10-20 12:27:21.878490
2512  2023-10-20 12:27:21.926321
2513  2023-10-20 12:27:21.958235
2514  2023-10-20 12:27:21.991147
2515  2023-10-20 12:27:22.023097
2516  2023-10-20 12:27:22.055007
2517  2023-10-20 12:27:22.086925
2518  2023-10-20 12:27:22.118804
2519  2023-10-20 12:27:22.150718
2520  2023-10-20 12:27:22.182680
2521  2023-10-20 12:27:22.214599
2522  2023-10-20 12:27:22.246618
2523  2023-10-20 12:27:22.278513
2524  2023-10-20 12:27:22.326394
2525  2023-10-20 12:27:22.358400
2526  2023-10-20 12:27:22.390347
2527  2023-10-20 12:27:22.422379
2528  2023-10-20 12:27:22.455258
2529  2023-10-20 12:27:22.487182
2530  2023-10-20 12:27:22.518125
2531  2023-10-20 12:27:22.551042
2532  2023-10-20 12:27:22.582914
2533  2023-10-20 12:27:22.614862
2534  2023-10-20 12:27:22.646776
2535  2023-10-20 12:27:22.678690
2536  2023-10-20 12:27:22.726584
2537  2023-10-20 12:27:22.758486
2538  2023-10-20 12:27:22.790400
2539  2023-10-20 12:27:22.822301
2540  2023-10-20 12:27:22.854219
2541  2023-10-20 12:27:22.886135
2542  2023-10-20 12:27:22.919074
2543  2023-10-20 12:27:22.950927
2544  2023-10-20 12:27:22.982841
2545  2023-10-20 12:27:23.014786
2546  2023-10-20 12:27:23.046704
2547  2023-10-20 12:27:23.078622
2548  2023-10-20 12:27:23.126506
2549  2023-10-20 12:27:23.158402
2550  2023-10-20 12:27:23.190321
2551  2023-10-20 12:27:23.222232
2552  2023-10-20 12:27:23.255154
2553  2023-10-20 12:27:23.287064
2554  2023-10-20 12:27:23.318974
2555  2023-10-20 12:27:23.350854
2556  2023-10-20 12:27:23.382801
2557  2023-10-20 12:27:23.414714
2558  2023-10-20 12:27:23.446629
2559  2023-10-20 12:27:23.478545
2560  2023-10-20 12:27:23.526414
2561  2023-10-20 12:27:23.558342
2562  2023-10-20 12:27:23.590244
2563  2023-10-20 12:27:23.623158
2564  2023-10-20 12:27:23.655040
2565  2023-10-20 12:27:23.686986
2566  2023-10-20 12:27:23.718905
2567  2023-10-20 12:27:23.750799
2568  2023-10-20 12:27:23.782741
2569  2023-10-20 12:27:23.814644
2570  2023-10-20 12:27:23.846527
2571  2023-10-20 12:27:23.878478
2572  2023-10-20 12:27:23.926352
2573  2023-10-20 12:27:23.958229
2574  2023-10-20 12:27:23.991194
2575  2023-10-20 12:27:24.022089
2576  2023-10-20 12:27:24.055002
2577  2023-10-20 12:27:24.086916
2578  2023-10-20 12:27:24.118839
2579  2023-10-20 12:27:24.150711
2580  2023-10-20 12:27:24.182657
2581  2023-10-20 12:27:24.214582
2582  2023-10-20 12:27:24.246489
2583  2023-10-20 12:27:24.294360
2584  2023-10-20 12:27:24.326283
2585  2023-10-20 12:27:24.358258
2586  2023-10-20 12:27:24.390163
2587  2023-10-20 12:27:24.422807
2588  2023-10-20 12:27:24.454720
2589  2023-10-20 12:27:24.486752
2590  2023-10-20 12:27:24.518664
2591  2023-10-20 12:27:24.550596
2592  2023-10-20 12:27:24.582498
2593  2023-10-20 12:27:24.614419
2594  2023-10-20 12:27:24.646329
2595  2023-10-20 12:27:24.694195
2596  2023-10-20 12:27:24.726114
2597  2023-10-20 12:27:24.759028
2598  2023-10-20 12:27:24.790936
2599  2023-10-20 12:27:24.822858
2600  2023-10-20 12:27:24.854770
2601  2023-10-20 12:27:24.886652
2602  2023-10-20 12:27:24.918593
2603  2023-10-20 12:27:24.950475
2604  2023-10-20 12:27:24.983387
2605  2023-10-20 12:27:25.014350
2606  2023-10-20 12:27:25.047257
2607  2023-10-20 12:27:25.095122
2608  2023-10-20 12:27:25.127003
2609  2023-10-20 12:27:25.158923
2610  2023-10-20 12:27:25.190867
2611  2023-10-20 12:27:25.222746
2612  2023-10-20 12:27:25.254695
2613  2023-10-20 12:27:25.286625
2614  2023-10-20 12:27:25.318527
2615  2023-10-20 12:27:25.350451
2616  2023-10-20 12:27:25.382371
2617  2023-10-20 12:27:25.415230
2618  2023-10-20 12:27:25.446181
2619  2023-10-20 12:27:25.494147
2620  2023-10-20 12:27:25.526149
2621  2023-10-20 12:27:25.559071
2622  2023-10-20 12:27:25.590998
2623  2023-10-20 12:27:25.622894
2624  2023-10-20 12:27:25.654770
2625  2023-10-20 12:27:25.686720
2626  2023-10-20 12:27:25.718734
2627  2023-10-20 12:27:25.750659
2628  2023-10-20 12:27:25.782521
2629  2023-10-20 12:27:25.814435
2630  2023-10-20 12:27:25.846385
2631  2023-10-20 12:27:25.895219
2632  2023-10-20 12:27:25.927167
2633  2023-10-20 12:27:25.959086
2634  2023-10-20 12:27:25.991007
2635  2023-10-20 12:27:26.022877
2636  2023-10-20 12:27:26.054791
2637  2023-10-20 12:27:26.086739
2638  2023-10-20 12:27:26.118651
2639  2023-10-20 12:27:26.150582
2640  2023-10-20 12:27:26.182574
2641  2023-10-20 12:27:26.214567
2642  2023-10-20 12:27:26.246482
2643  2023-10-20 12:27:26.294495
2644  2023-10-20 12:27:26.326441
2645  2023-10-20 12:27:26.358358
2646  2023-10-20 12:27:26.390259
2647  2023-10-20 12:27:26.423173
2648  2023-10-20 12:27:26.455122
2649  2023-10-20 12:27:26.487002
2650  2023-10-20 12:27:26.518916
2651  2023-10-20 12:27:26.550829
2652  2023-10-20 12:27:26.582750
2653  2023-10-20 12:27:26.615656
2654  2023-10-20 12:27:26.646586
2655  2023-10-20 12:27:26.694477
2656  2023-10-20 12:27:26.726359
2657  2023-10-20 12:27:26.758273
2658  2023-10-20 12:27:26.790262
2659  2023-10-20 12:27:26.822140
2660  2023-10-20 12:27:26.855052
2661  2023-10-20 12:27:26.887003
2662  2023-10-20 12:27:26.918925
2663  2023-10-20 12:27:26.950827
2664  2023-10-20 12:27:26.982710
2665  2023-10-20 12:27:27.014625
2666  2023-10-20 12:27:27.046582
2667  2023-10-20 12:27:27.094453
2668  2023-10-20 12:27:27.126368
2669  2023-10-20 12:27:27.158402
2670  2023-10-20 12:27:27.190357
2671  2023-10-20 12:27:27.222232
2672  2023-10-20 12:27:27.254233
2673  2023-10-20 12:27:27.286262
2674  2023-10-20 12:27:27.319140
2675  2023-10-20 12:27:27.351054
2676  2023-10-20 12:27:27.382968
2677  2023-10-20 12:27:27.414915
2678  2023-10-20 12:27:27.446828
2679  2023-10-20 12:27:27.494668
2680  2023-10-20 12:27:27.526618
2681  2023-10-20 12:27:27.558542
2682  2023-10-20 12:27:27.590455
2683  2023-10-20 12:27:27.622326
2684  2023-10-20 12:27:27.654241
2685  2023-10-20 12:27:27.686260
2686  2023-10-20 12:27:27.719220
2687  2023-10-20 12:27:27.751134
2688  2023-10-20 12:27:27.783124
2689  2023-10-20 12:27:27.815038
2690  2023-10-20 12:27:27.846953
2691  2023-10-20 12:27:27.894825
2692  2023-10-20 12:27:27.926531
2693  2023-10-20 12:27:27.958397
2694  2023-10-20 12:27:27.990327
2695  2023-10-20 12:27:28.022301
2696  2023-10-20 12:27:28.054215
2697  2023-10-20 12:27:28.086151
2698  2023-10-20 12:27:28.119065
2699  2023-10-20 12:27:28.151071
2700  2023-10-20 12:27:28.182985
2701  2023-10-20 12:27:28.214900
2702  2023-10-20 12:27:28.262771
2703  2023-10-20 12:27:28.294688
2704  2023-10-20 12:27:28.326602
2705  2023-10-20 12:27:28.358552
2706  2023-10-20 12:27:28.390462
2707  2023-10-20 12:27:28.422375
2708  2023-10-20 12:27:28.454290
2709  2023-10-20 12:27:28.487170
2710  2023-10-20 12:27:28.519084
2711  2023-10-20 12:27:28.550061
2712  2023-10-20 12:27:28.582939
2713  2023-10-20 12:27:28.614885
2714  2023-10-20 12:27:28.662724
2715  2023-10-20 12:27:28.694639
2716  2023-10-20 12:27:28.726585
2717  2023-10-20 12:27:28.758469
2718  2023-10-20 12:27:28.790387
2719  2023-10-20 12:27:28.822349
2720  2023-10-20 12:27:28.854265
2721  2023-10-20 12:27:28.886223
2722  2023-10-20 12:27:28.919091
2723  2023-10-20 12:27:28.951005
2724  2023-10-20 12:27:28.982920
2725  2023-10-20 12:27:29.014834
2726  2023-10-20 12:27:29.062706
2727  2023-10-20 12:27:29.094621
2728  2023-10-20 12:27:29.126535
2729  2023-10-20 12:27:29.158487
2730  2023-10-20 12:27:29.190365
2731  2023-10-20 12:27:29.222308
2732  2023-10-20 12:27:29.255190
2733  2023-10-20 12:27:29.287140
2734  2023-10-20 12:27:29.319019
2735  2023-10-20 12:27:29.350974
2736  2023-10-20 12:27:29.382918
2737  2023-10-20 12:27:29.414885
2738  2023-10-20 12:27:29.462736
2739  2023-10-20 12:27:29.494653
2740  2023-10-20 12:27:29.526533
2741  2023-10-20 12:27:29.558447
2742  2023-10-20 12:27:29.590448
2743  2023-10-20 12:27:29.622514
2744  2023-10-20 12:27:29.654387
2745  2023-10-20 12:27:29.687134
2746  2023-10-20 12:27:29.718066
2747  2023-10-20 12:27:29.751031
2748  2023-10-20 12:27:29.782945
2749  2023-10-20 12:27:29.814860
2750  2023-10-20 12:27:29.862732
2751  2023-10-20 12:27:29.894646
2752  2023-10-20 12:27:29.926561
2753  2023-10-20 12:27:29.958475
2754  2023-10-20 12:27:29.990389
2755  2023-10-20 12:27:30.022304
2756  2023-10-20 12:27:30.054218
2757  2023-10-20 12:27:30.086133
2758  2023-10-20 12:27:30.119047
2759  2023-10-20 12:27:30.150959
2760  2023-10-20 12:27:30.182873
2761  2023-10-20 12:27:30.214788
2762  2023-10-20 12:27:30.262662
2763  2023-10-20 12:27:30.294574
2764  2023-10-20 12:27:30.326582
2765  2023-10-20 12:27:30.358583
2766  2023-10-20 12:27:30.390498
2767  2023-10-20 12:27:30.422412
2768  2023-10-20 12:27:30.454448
2769  2023-10-20 12:27:30.487440
2770  2023-10-20 12:27:30.519387
2771  2023-10-20 12:27:30.551269
2772  2023-10-20 12:27:30.583232
2773  2023-10-20 12:27:30.614150
2774  2023-10-20 12:27:30.663136
2775  2023-10-20 12:27:30.695017
2776  2023-10-20 12:27:30.726931
2777  2023-10-20 12:27:30.758846
2778  2023-10-20 12:27:30.790795
2779  2023-10-20 12:27:30.822718
2780  2023-10-20 12:27:30.854589
2781  2023-10-20 12:27:30.886585
2782  2023-10-20 12:27:30.919510
2783  2023-10-20 12:27:30.950460
2784  2023-10-20 12:27:30.982367
2785  2023-10-20 12:27:31.014282
2786  2023-10-20 12:27:31.062154
2787  2023-10-20 12:27:31.094068
2788  2023-10-20 12:27:31.127020
2789  2023-10-20 12:27:31.158894
2790  2023-10-20 12:27:31.190809
2791  2023-10-20 12:27:31.222723
2792  2023-10-20 12:27:31.254665
2793  2023-10-20 12:27:31.286584
2794  2023-10-20 12:27:31.318468
2795  2023-10-20 12:27:31.350381
2796  2023-10-20 12:27:31.382328
2797  2023-10-20 12:27:31.414210
2798  2023-10-20 12:27:31.462122
2799  2023-10-20 12:27:31.494993
2800  2023-10-20 12:27:31.526908
2801  2023-10-20 12:27:31.558822
2802  2023-10-20 12:27:31.590737
2803  2023-10-20 12:27:31.622562
2804  2023-10-20 12:27:31.654552
2805  2023-10-20 12:27:31.686520
2806  2023-10-20 12:27:31.718434
2807  2023-10-20 12:27:31.750349
2808  2023-10-20 12:27:31.783262
2809  2023-10-20 12:27:31.831178
2810  2023-10-20 12:27:31.862051
2811  2023-10-20 12:27:31.894961
2812  2023-10-20 12:27:31.926875
2813  2023-10-20 12:27:31.958825
2814  2023-10-20 12:27:31.990740
2815  2023-10-20 12:27:32.022618
2816  2023-10-20 12:27:32.054608
2817  2023-10-20 12:27:32.086584
2818  2023-10-20 12:27:32.118575
2819  2023-10-20 12:27:32.150488
2820  2023-10-20 12:27:32.182402
2821  2023-10-20 12:27:32.230273
2822  2023-10-20 12:27:32.262227
2823  2023-10-20 12:27:32.294134
2824  2023-10-20 12:27:32.327014
2825  2023-10-20 12:27:32.358005
2826  2023-10-20 12:27:32.390371
2827  2023-10-20 12:27:32.422353
2828  2023-10-20 12:27:32.454263
2829  2023-10-20 12:27:32.486149
2830  2023-10-20 12:27:32.518063
2831  2023-10-20 12:27:32.551151
2832  2023-10-20 12:27:32.583113
2833  2023-10-20 12:27:32.631029
2834  2023-10-20 12:27:32.662892
2835  2023-10-20 12:27:32.694806
2836  2023-10-20 12:27:32.726721
2837  2023-10-20 12:27:32.758635
2838  2023-10-20 12:27:32.790552
2839  2023-10-20 12:27:32.822465
2840  2023-10-20 12:27:32.854379
2841  2023-10-20 12:27:32.887290
2842  2023-10-20 12:27:32.918253
2843  2023-10-20 12:27:32.951119
2844  2023-10-20 12:27:32.983034
2845  2023-10-20 12:27:33.030905
2846  2023-10-20 12:27:33.062820
2847  2023-10-20 12:27:33.094734
2848  2023-10-20 12:27:33.126679
2849  2023-10-20 12:27:33.158563
2850  2023-10-20 12:27:33.190526
2851  2023-10-20 12:27:33.222392
2852  2023-10-20 12:27:33.254361
2853  2023-10-20 12:27:33.286221
2854  2023-10-20 12:27:33.318135
2855  2023-10-20 12:27:33.351050
2856  2023-10-20 12:27:33.382961
2857  2023-10-20 12:27:33.430867
2858  2023-10-20 12:27:33.462778
2859  2023-10-20 12:27:33.494662
2860  2023-10-20 12:27:33.526576
2861  2023-10-20 12:27:33.558494
2862  2023-10-20 12:27:33.590552
2863  2023-10-20 12:27:33.622553
2864  2023-10-20 12:27:33.654591
2865  2023-10-20 12:27:33.686506
2866  2023-10-20 12:27:33.718420
2867  2023-10-20 12:27:33.751332
2868  2023-10-20 12:27:33.782250
2869  2023-10-20 12:27:33.831167
2870  2023-10-20 12:27:33.863032
2871  2023-10-20 12:27:33.894947
2872  2023-10-20 12:27:33.926913
2873  2023-10-20 12:27:33.958807
2874  2023-10-20 12:27:33.990691
2875  2023-10-20 12:27:34.022605
2876  2023-10-20 12:27:34.054519
2877  2023-10-20 12:27:34.086465
2878  2023-10-20 12:27:34.118348
2879  2023-10-20 12:27:34.151260
2880  2023-10-20 12:27:34.183174
2881  2023-10-20 12:27:34.231046
2882  2023-10-20 12:27:34.263011
2883  2023-10-20 12:27:34.294875
2884  2023-10-20 12:27:34.326789
2885  2023-10-20 12:27:34.358704
2886  2023-10-20 12:27:34.390618
2887  2023-10-20 12:27:34.422533
2888  2023-10-20 12:27:34.455480
2889  2023-10-20 12:27:34.486467
2890  2023-10-20 12:27:34.518381
2891  2023-10-20 12:27:34.550303
2892  2023-10-20 12:27:34.583208
2893  2023-10-20 12:27:34.631080
2894  2023-10-20 12:27:34.663012
2895  2023-10-20 12:27:34.694953
2896  2023-10-20 12:27:34.726867
2897  2023-10-20 12:27:34.758782
2898  2023-10-20 12:27:34.790717
2899  2023-10-20 12:27:34.822610
2900  2023-10-20 12:27:34.854525
2901  2023-10-20 12:27:34.886439
2902  2023-10-20 12:27:34.918387
2903  2023-10-20 12:27:34.951276
2904  2023-10-20 12:27:34.982183
2905  2023-10-20 12:27:35.031052
2906  2023-10-20 12:27:35.062971
2907  2023-10-20 12:27:35.094717
2908  2023-10-20 12:27:35.126595
2909  2023-10-20 12:27:35.158550
2910  2023-10-20 12:27:35.190464
2911  2023-10-20 12:27:35.222531
2912  2023-10-20 12:27:35.254481
2913  2023-10-20 12:27:35.286361
2914  2023-10-20 12:27:35.318276
2915  2023-10-20 12:27:35.350190
2916  2023-10-20 12:27:35.383102
2917  2023-10-20 12:27:35.431135
2918  2023-10-20 12:27:35.463050
2919  2023-10-20 12:27:35.494068
2920  2023-10-20 12:27:35.526984
2921  2023-10-20 12:27:35.558895
2922  2023-10-20 12:27:35.590809
2923  2023-10-20 12:27:35.622724
2924  2023-10-20 12:27:35.654638
2925  2023-10-20 12:27:35.686552
2926  2023-10-20 12:27:35.718472
2927  2023-10-20 12:27:35.750381
2928  2023-10-20 12:27:35.798253
2929  2023-10-20 12:27:35.831167
2930  2023-10-20 12:27:35.862178
2931  2023-10-20 12:27:35.894638
2932  2023-10-20 12:27:35.926553
2933  2023-10-20 12:27:35.958507
2934  2023-10-20 12:27:35.990426
2935  2023-10-20 12:27:36.022296
2936  2023-10-20 12:27:36.054210
2937  2023-10-20 12:27:36.086180
2938  2023-10-20 12:27:36.119048
2939  2023-10-20 12:27:36.150951
2940  2023-10-20 12:27:36.198824
2941  2023-10-20 12:27:36.230737
2942  2023-10-20 12:27:36.262652
2943  2023-10-20 12:27:36.294608
2944  2023-10-20 12:27:36.326481
2945  2023-10-20 12:27:36.358395
2946  2023-10-20 12:27:36.390327
2947  2023-10-20 12:27:36.422277
2948  2023-10-20 12:27:36.454156
2949  2023-10-20 12:27:36.486071
2950  2023-10-20 12:27:36.518995
2951  2023-10-20 12:27:36.550897
2952  2023-10-20 12:27:36.598769
2953  2023-10-20 12:27:36.630683
2954  2023-10-20 12:27:36.662598
2955  2023-10-20 12:27:36.694512
2956  2023-10-20 12:27:36.726467
2957  2023-10-20 12:27:36.758426
2958  2023-10-20 12:27:36.790382
2959  2023-10-20 12:27:36.822296
2960  2023-10-20 12:27:36.854367
2961  2023-10-20 12:27:36.886281
2962  2023-10-20 12:27:36.918196
2963  2023-10-20 12:27:36.952107
2964  2023-10-20 12:27:36.998979
2965  2023-10-20 12:27:37.031939
2966  2023-10-20 12:27:37.062808
2967  2023-10-20 12:27:37.094801
2968  2023-10-20 12:27:37.126759
2969  2023-10-20 12:27:37.158855
2970  2023-10-20 12:27:37.190751
2971  2023-10-20 12:27:37.222791
2972  2023-10-20 12:27:37.254797
2973  2023-10-20 12:27:37.287723
2974  2023-10-20 12:27:37.319620
2975  2023-10-20 12:27:37.351552
2976  2023-10-20 12:27:37.399411
2977  2023-10-20 12:27:37.431340
2978  2023-10-20 12:27:37.464296
2979  2023-10-20 12:27:37.495341
2980  2023-10-20 12:27:37.528242
2981  2023-10-20 12:27:37.560159
2982  2023-10-20 12:27:37.592065
2983  2023-10-20 12:27:37.623979
2984  2023-10-20 12:27:37.655896
2985  2023-10-20 12:27:37.687841
2986  2023-10-20 12:27:37.719595
2987  2023-10-20 12:27:37.751575
2988  2023-10-20 12:27:37.799453
2989  2023-10-20 12:27:37.831338
2990  2023-10-20 12:27:37.863278
2991  2023-10-20 12:27:37.896195
2992  2023-10-20 12:27:37.928111
2993  2023-10-20 12:27:37.960024
2994  2023-10-20 12:27:37.991965
2995  2023-10-20 12:27:38.023852
2996  2023-10-20 12:27:38.055767
2997  2023-10-20 12:27:38.087679
2998  2023-10-20 12:27:38.119609
2999  2023-10-20 12:27:38.151510
3000  2023-10-20 12:27:38.199643
3001  2023-10-20 12:27:38.231559
3002  2023-10-20 12:27:38.263470
3003  2023-10-20 12:27:38.295386
3004  2023-10-20 12:27:38.327465
3005  2023-10-20 12:27:38.359379
3006  2023-10-20 12:27:38.391294
3007  2023-10-20 12:27:38.423205
3008  2023-10-20 12:27:38.456138
3009  2023-10-20 12:27:38.487007
3010  2023-10-20 12:27:38.518955
3011  2023-10-20 12:27:38.550869
3012  2023-10-20 12:27:38.598708
3013  2023-10-20 12:27:38.631649
3014  2023-10-20 12:27:38.663570
3015  2023-10-20 12:27:38.695482
3016  2023-10-20 12:27:38.727529
3017  2023-10-20 12:27:38.759463
3018  2023-10-20 12:27:38.791353
3019  2023-10-20 12:27:38.823278
3020  2023-10-20 12:27:38.855181
3021  2023-10-20 12:27:38.887098
3022  2023-10-20 12:27:38.919030
3023  2023-10-20 12:27:38.950936
3024  2023-10-20 12:27:38.998798
3025  2023-10-20 12:27:39.030815
3026  2023-10-20 12:27:39.062732
3027  2023-10-20 12:27:39.094651
3028  2023-10-20 12:27:39.126561
3029  2023-10-20 12:27:39.158477
3030  2023-10-20 12:27:39.190488
3031  2023-10-20 12:27:39.222402
3032  2023-10-20 12:27:39.254320
3033  2023-10-20 12:27:39.286231
3034  2023-10-20 12:27:39.318146
3035  2023-10-20 12:27:39.367019
3036  2023-10-20 12:27:39.398930
3037  2023-10-20 12:27:39.430844
3038  2023-10-20 12:27:39.462759
3039  2023-10-20 12:27:39.494672
3040  2023-10-20 12:27:39.526586
3041  2023-10-20 12:27:39.558502
3042  2023-10-20 12:27:39.590440
3043  2023-10-20 12:27:39.622342
3044  2023-10-20 12:27:39.654245
3045  2023-10-20 12:27:39.686159
3046  2023-10-20 12:27:39.719039
3047  2023-10-20 12:27:39.766944
3048  2023-10-20 12:27:39.798866
3049  2023-10-20 12:27:39.830739
3050  2023-10-20 12:27:39.862693
3051  2023-10-20 12:27:39.894569
3052  2023-10-20 12:27:39.926495
3053  2023-10-20 12:27:39.958456
3054  2023-10-20 12:27:39.990400
3055  2023-10-20 12:27:40.024178
3056  2023-10-20 12:27:40.055096
3057  2023-10-20 12:27:40.087110
3058  2023-10-20 12:27:40.118999
3059  2023-10-20 12:27:40.166108
3060  2023-10-20 12:27:40.199134
3061  2023-10-20 12:27:40.232064
3062  2023-10-20 12:27:40.264078
3063  2023-10-20 12:27:40.294000
3064  2023-10-20 12:27:40.326881
3065  2023-10-20 12:27:40.358830
3066  2023-10-20 12:27:40.391739
3067  2023-10-20 12:27:40.423651
3068  2023-10-20 12:27:40.455566
3069  2023-10-20 12:27:40.486453
3070  2023-10-20 12:27:40.518404
3071  2023-10-20 12:27:40.566286
3072  2023-10-20 12:27:40.598203
3073  2023-10-20 12:27:40.631094
3074  2023-10-20 12:27:40.663012
3075  2023-10-20 12:27:40.694953
3076  2023-10-20 12:27:40.726853
3077  2023-10-20 12:27:40.758754
3078  2023-10-20 12:27:40.791671
3079  2023-10-20 12:27:40.823581
3080  2023-10-20 12:27:40.855495
3081  2023-10-20 12:27:40.886381
3082  2023-10-20 12:27:40.918333
3083  2023-10-20 12:27:40.966173
3084  2023-10-20 12:27:40.998081
3085  2023-10-20 12:27:41.031025
3086  2023-10-20 12:27:41.062941
3087  2023-10-20 12:27:41.095818
3088  2023-10-20 12:27:41.126768
3089  2023-10-20 12:27:41.159700
3090  2023-10-20 12:27:41.191594
3091  2023-10-20 12:27:41.223508
3092  2023-10-20 12:27:41.255501
3093  2023-10-20 12:27:41.286429
3094  2023-10-20 12:27:41.318334
3095  2023-10-20 12:27:41.366172
3096  2023-10-20 12:27:41.399110
3097  2023-10-20 12:27:41.431023
3098  2023-10-20 12:27:41.463941
3099  2023-10-20 12:27:41.495857
3100  2023-10-20 12:27:41.526766
3101  2023-10-20 12:27:41.558681
3102  2023-10-20 12:27:41.591601
3103  2023-10-20 12:27:41.623508
3104  2023-10-20 12:27:41.654433
3105  2023-10-20 12:27:41.686338
3106  2023-10-20 12:27:41.718254
3107  2023-10-20 12:27:41.766132
3108  2023-10-20 12:27:41.799041
3109  2023-10-20 12:27:41.830955
3110  2023-10-20 12:27:41.862870
3111  2023-10-20 12:27:41.894785
3112  2023-10-20 12:27:41.926696
3113  2023-10-20 12:27:41.958613
3114  2023-10-20 12:27:41.990526
3115  2023-10-20 12:27:42.022441
3116  2023-10-20 12:27:42.054361
3117  2023-10-20 12:27:42.086269
3118  2023-10-20 12:27:42.118149
3119  2023-10-20 12:27:42.166053
3120  2023-10-20 12:27:42.197971
3121  2023-10-20 12:27:42.230900
3122  2023-10-20 12:27:42.262795
3123  2023-10-20 12:27:42.294709
3124  2023-10-20 12:27:42.326601
3125  2023-10-20 12:27:42.358544
3126  2023-10-20 12:27:42.390458
3127  2023-10-20 12:27:42.422370
3128  2023-10-20 12:27:42.455248
3129  2023-10-20 12:27:42.487196
3130  2023-10-20 12:27:42.518077
3131  2023-10-20 12:27:42.566991
3132  2023-10-20 12:27:42.598907
3133  2023-10-20 12:27:42.630848
3134  2023-10-20 12:27:42.662886
3135  2023-10-20 12:27:42.694250
3136  2023-10-20 12:27:42.726229
3137  2023-10-20 12:27:42.758143
3138  2023-10-20 12:27:42.791112
3139  2023-10-20 12:27:42.823027
3140  2023-10-20 12:27:42.854982
3141  2023-10-20 12:27:42.886883
3142  2023-10-20 12:27:42.917996
3143  2023-10-20 12:27:42.966881
3144  2023-10-20 12:27:42.998800
3145  2023-10-20 12:27:43.030697
3146  2023-10-20 12:27:43.062612
3147  2023-10-20 12:27:43.094527
3148  2023-10-20 12:27:43.126467
3149  2023-10-20 12:27:43.158350
3150  2023-10-20 12:27:43.190268
3151  2023-10-20 12:27:43.222190
3152  2023-10-20 12:27:43.254098
3153  2023-10-20 12:27:43.287021
3154  2023-10-20 12:27:43.334886
3155  2023-10-20 12:27:43.366810
3156  2023-10-20 12:27:43.398706
3157  2023-10-20 12:27:43.430617
3158  2023-10-20 12:27:43.462503
3159  2023-10-20 12:27:43.494477
3160  2023-10-20 12:27:43.526363
3161  2023-10-20 12:27:43.558279
3162  2023-10-20 12:27:43.590190
3163  2023-10-20 12:27:43.622113
3164  2023-10-20 12:27:43.654027
3165  2023-10-20 12:27:43.686945
3166  2023-10-20 12:27:43.734807
3167  2023-10-20 12:27:43.766719
3168  2023-10-20 12:27:43.798633
3169  2023-10-20 12:27:43.830571
3170  2023-10-20 12:27:43.862431
3171  2023-10-20 12:27:43.894382
3172  2023-10-20 12:27:43.926293
3173  2023-10-20 12:27:43.959206
3174  2023-10-20 12:27:43.990122
3175  2023-10-20 12:27:44.022038
3176  2023-10-20 12:27:44.054949
3177  2023-10-20 12:27:44.086898
3178  2023-10-20 12:27:44.134867
3179  2023-10-20 12:27:44.166770
3180  2023-10-20 12:27:44.198686
3181  2023-10-20 12:27:44.230603
3182  2023-10-20 12:27:44.262515
3183  2023-10-20 12:27:44.294439
3184  2023-10-20 12:27:44.326345
3185  2023-10-20 12:27:44.358257
3186  2023-10-20 12:27:44.390190
3187  2023-10-20 12:27:44.423053
3188  2023-10-20 12:27:44.453970
3189  2023-10-20 12:27:44.486934
3190  2023-10-20 12:27:44.534786
3191  2023-10-20 12:27:44.566700
3192  2023-10-20 12:27:44.598615
3193  2023-10-20 12:27:44.630625
3194  2023-10-20 12:27:44.662631
3195  2023-10-20 12:27:44.694545
3196  2023-10-20 12:27:44.726459
3197  2023-10-20 12:27:44.758387
3198  2023-10-20 12:27:44.790304
3199  2023-10-20 12:27:44.823200
3200  2023-10-20 12:27:44.855084
3201  2023-10-20 12:27:44.886033
3202  2023-10-20 12:27:44.934899
3203  2023-10-20 12:27:44.966817
3204  2023-10-20 12:27:44.998697
3205  2023-10-20 12:27:45.030644
3206  2023-10-20 12:27:45.062558
3207  2023-10-20 12:27:45.094473
3208  2023-10-20 12:27:45.126405
3209  2023-10-20 12:27:45.158277
3210  2023-10-20 12:27:45.190217
3211  2023-10-20 12:27:45.222136
3212  2023-10-20 12:27:45.255046
3213  2023-10-20 12:27:45.286940
3214  2023-10-20 12:27:45.334841
3215  2023-10-20 12:27:45.366763
3216  2023-10-20 12:27:45.398656
3217  2023-10-20 12:27:45.430572
3218  2023-10-20 12:27:45.462497
3219  2023-10-20 12:27:45.494369
3220  2023-10-20 12:27:45.526283
3221  2023-10-20 12:27:45.558198
3222  2023-10-20 12:27:45.590143
3223  2023-10-20 12:27:45.622075
3224  2023-10-20 12:27:45.653973
3225  2023-10-20 12:27:45.686017
3226  2023-10-20 12:27:45.734888
3227  2023-10-20 12:27:45.766797
3228  2023-10-20 12:27:45.798715
3229  2023-10-20 12:27:45.830646
3230  2023-10-20 12:27:45.862541
3231  2023-10-20 12:27:45.894459
3232  2023-10-20 12:27:45.926377
3233  2023-10-20 12:27:45.958291
3234  2023-10-20 12:27:45.990199
3235  2023-10-20 12:27:46.022114
3236  2023-10-20 12:27:46.054029
3237  2023-10-20 12:27:46.085948
3238  2023-10-20 12:27:46.134813
3239  2023-10-20 12:27:46.166730
3240  2023-10-20 12:27:46.198646
3241  2023-10-20 12:27:46.230556
3242  2023-10-20 12:27:46.262469
3243  2023-10-20 12:27:46.294382
3244  2023-10-20 12:27:46.326305
3245  2023-10-20 12:27:46.358207
3246  2023-10-20 12:27:46.390128
3247  2023-10-20 12:27:46.422046
3248  2023-10-20 12:27:46.454922
3249  2023-10-20 12:27:46.486837
3250  2023-10-20 12:27:46.534712
3251  2023-10-20 12:27:46.566654
3252  2023-10-20 12:27:46.598568
3253  2023-10-20 12:27:46.630482
3254  2023-10-20 12:27:46.662407
3255  2023-10-20 12:27:46.694322
3256  2023-10-20 12:27:46.726224
3257  2023-10-20 12:27:46.758142
3258  2023-10-20 12:27:46.790054
3259  2023-10-20 12:27:46.822982
3260  2023-10-20 12:27:46.854907
3261  2023-10-20 12:27:46.902720
3262  2023-10-20 12:27:46.934668
3263  2023-10-20 12:27:46.966579
3264  2023-10-20 12:27:46.998496
3265  2023-10-20 12:27:47.030418
3266  2023-10-20 12:27:47.062325
3267  2023-10-20 12:27:47.094237
3268  2023-10-20 12:27:47.127152
3269  2023-10-20 12:27:47.159082
3270  2023-10-20 12:27:47.190958
3271  2023-10-20 12:27:47.222896
3272  2023-10-20 12:27:47.254812
3273  2023-10-20 12:27:47.302650
3274  2023-10-20 12:27:47.334595
3275  2023-10-20 12:27:47.366479
3276  2023-10-20 12:27:47.398428
3277  2023-10-20 12:27:47.430315
3278  2023-10-20 12:27:47.462225
3279  2023-10-20 12:27:47.494179
3280  2023-10-20 12:27:47.526082
3281  2023-10-20 12:27:47.558005
3282  2023-10-20 12:27:47.589935
3283  2023-10-20 12:27:47.622829
3284  2023-10-20 12:27:47.654739
3285  2023-10-20 12:27:47.702675
3286  2023-10-20 12:27:47.734620
3287  2023-10-20 12:27:47.766534
3288  2023-10-20 12:27:47.798482
3289  2023-10-20 12:27:47.830462
3290  2023-10-20 12:27:47.862396
3291  2023-10-20 12:27:47.894299
3292  2023-10-20 12:27:47.926207
3293  2023-10-20 12:27:47.958118
3294  2023-10-20 12:27:47.990040
3295  2023-10-20 12:27:48.021952
3296  2023-10-20 12:27:48.054867
3297  2023-10-20 12:27:48.102700
3298  2023-10-20 12:27:48.133965
3299  2023-10-20 12:27:48.166874
3300  2023-10-20 12:27:48.198866
3301  2023-10-20 12:27:48.230779
3302  2023-10-20 12:27:48.262701
3303  2023-10-20 12:27:48.294613
3304  2023-10-20 12:27:48.326494
3305  2023-10-20 12:27:48.358438
3306  2023-10-20 12:27:48.390367
3307  2023-10-20 12:27:48.422391
3308  2023-10-20 12:27:48.454323
3309  2023-10-20 12:27:48.502176
3310  2023-10-20 12:27:48.534183
3311  2023-10-20 12:27:48.566097
3312  2023-10-20 12:27:48.598018
3313  2023-10-20 12:27:48.629932
3314  2023-10-20 12:27:48.662851
3315  2023-10-20 12:27:48.694765
3316  2023-10-20 12:27:48.726669
3317  2023-10-20 12:27:48.758582
3318  2023-10-20 12:27:48.790497
3319  2023-10-20 12:27:48.822433
3320  2023-10-20 12:27:48.854327
3321  2023-10-20 12:27:48.902199
3322  2023-10-20 12:27:48.934115
3323  2023-10-20 12:27:48.966032
3324  2023-10-20 12:27:48.997947
3325  2023-10-20 12:27:49.030893
3326  2023-10-20 12:27:49.062877
3327  2023-10-20 12:27:49.094825
3328  2023-10-20 12:27:49.126737
3329  2023-10-20 12:27:49.158658
3330  2023-10-20 12:27:49.190567
3331  2023-10-20 12:27:49.222487
3332  2023-10-20 12:27:49.254398
3333  2023-10-20 12:27:49.302268
3334  2023-10-20 12:27:49.334199
3335  2023-10-20 12:27:49.366105
3336  2023-10-20 12:27:49.399010
3337  2023-10-20 12:27:49.430890
3338  2023-10-20 12:27:49.462815
3339  2023-10-20 12:27:49.494731
3340  2023-10-20 12:27:49.526667
3341  2023-10-20 12:27:49.558582
3342  2023-10-20 12:27:49.590500
3343  2023-10-20 12:27:49.622412
3344  2023-10-20 12:27:49.654332
3345  2023-10-20 12:27:49.702163
3346  2023-10-20 12:27:49.734110
3347  2023-10-20 12:27:49.766029
3348  2023-10-20 12:27:49.797941
3349  2023-10-20 12:27:49.830877
3350  2023-10-20 12:27:49.862733
3351  2023-10-20 12:27:49.894647
3352  2023-10-20 12:27:49.926594
3353  2023-10-20 12:27:49.958512
3354  2023-10-20 12:27:49.990438
3355  2023-10-20 12:27:50.022305
3356  2023-10-20 12:27:50.054268
3357  2023-10-20 12:27:50.102196
3358  2023-10-20 12:27:50.134233
3359  2023-10-20 12:27:50.166248
3360  2023-10-20 12:27:50.198153
3361  2023-10-20 12:27:50.230063
3362  2023-10-20 12:27:50.262940
3363  2023-10-20 12:27:50.294894
3364  2023-10-20 12:27:50.326813
3365  2023-10-20 12:27:50.358726
3366  2023-10-20 12:27:50.390644
3367  2023-10-20 12:27:50.422512
3368  2023-10-20 12:27:50.454429
3369  2023-10-20 12:27:50.502299
3370  2023-10-20 12:27:50.535244
3371  2023-10-20 12:27:50.566165
3372  2023-10-20 12:27:50.598087
3373  2023-10-20 12:27:50.630996
3374  2023-10-20 12:27:50.662873
3375  2023-10-20 12:27:50.694791
3376  2023-10-20 12:27:50.726729
3377  2023-10-20 12:27:50.758653
3378  2023-10-20 12:27:50.790528
3379  2023-10-20 12:27:50.822440
3380  2023-10-20 12:27:50.870313
3381  2023-10-20 12:27:50.902226
3382  2023-10-20 12:27:50.934141
3383  2023-10-20 12:27:50.966094
3384  2023-10-20 12:27:50.998008
3385  2023-10-20 12:27:51.029923
3386  2023-10-20 12:27:51.062796
3387  2023-10-20 12:27:51.094710
3388  2023-10-20 12:27:51.126659
3389  2023-10-20 12:27:51.158573
3390  2023-10-20 12:27:51.190651
3391  2023-10-20 12:27:51.222533
3392  2023-10-20 12:27:51.270436
3393  2023-10-20 12:27:51.302384
3394  2023-10-20 12:27:51.334273
3395  2023-10-20 12:27:51.366180
3396  2023-10-20 12:27:51.398095
3397  2023-10-20 12:27:51.430011
3398  2023-10-20 12:27:51.461924
3399  2023-10-20 12:27:51.494803
3400  2023-10-20 12:27:51.526753
3401  2023-10-20 12:27:51.558666
3402  2023-10-20 12:27:51.590598
3403  2023-10-20 12:27:51.622461
3404  2023-10-20 12:27:51.670392
3405  2023-10-20 12:27:51.702247
3406  2023-10-20 12:27:51.734162
3407  2023-10-20 12:27:51.766108
3408  2023-10-20 12:27:51.798027
3409  2023-10-20 12:27:51.830972
3410  2023-10-20 12:27:51.862817
3411  2023-10-20 12:27:51.894731
3412  2023-10-20 12:27:51.926680
3413  2023-10-20 12:27:51.958562
3414  2023-10-20 12:27:51.990513
3415  2023-10-20 12:27:52.022389
3416  2023-10-20 12:27:52.070304
3417  2023-10-20 12:27:52.102175
3418  2023-10-20 12:27:52.134090
3419  2023-10-20 12:27:52.167035
3420  2023-10-20 12:27:52.197970
3421  2023-10-20 12:27:52.230864
3422  2023-10-20 12:27:52.262911
3423  2023-10-20 12:27:52.294877
3424  2023-10-20 12:27:52.326774
3425  2023-10-20 12:27:52.358688
3426  2023-10-20 12:27:52.390608
3427  2023-10-20 12:27:52.422517
3428  2023-10-20 12:27:52.470384
3429  2023-10-20 12:27:52.502300
3430  2023-10-20 12:27:52.534224
3431  2023-10-20 12:27:52.566241
3432  2023-10-20 12:27:52.598158
3433  2023-10-20 12:27:52.630062
3434  2023-10-20 12:27:52.663020
3435  2023-10-20 12:27:52.694891
3436  2023-10-20 12:27:52.726848
3437  2023-10-20 12:27:52.758769
3438  2023-10-20 12:27:52.790676
3439  2023-10-20 12:27:52.822581
3440  2023-10-20 12:27:52.870456
3441  2023-10-20 12:27:52.902384
3442  2023-10-20 12:27:52.934249
3443  2023-10-20 12:27:52.966196
3444  2023-10-20 12:27:52.998112
3445  2023-10-20 12:27:53.031023
3446  2023-10-20 12:27:53.062905
3447  2023-10-20 12:27:53.094819
3448  2023-10-20 12:27:53.126734
3449  2023-10-20 12:27:53.158648
3450  2023-10-20 12:27:53.190649
3451  2023-10-20 12:27:53.222560
3452  2023-10-20 12:27:53.270515
3453  2023-10-20 12:27:53.302429
3454  2023-10-20 12:27:53.334378
3455  2023-10-20 12:27:53.366784
3456  2023-10-20 12:27:53.398736
3457  2023-10-20 12:27:53.430634
3458  2023-10-20 12:27:53.462578
3459  2023-10-20 12:27:53.494495
3460  2023-10-20 12:27:53.526377
3461  2023-10-20 12:27:53.558323
3462  2023-10-20 12:27:53.590249
3463  2023-10-20 12:27:53.622161
3464  2023-10-20 12:27:53.670026
3465  2023-10-20 12:27:53.701992
3466  2023-10-20 12:27:53.734903
3467  2023-10-20 12:27:53.766818
3468  2023-10-20 12:27:53.798763
3469  2023-10-20 12:27:53.830684
3470  2023-10-20 12:27:53.862684
3471  2023-10-20 12:27:53.894598
3472  2023-10-20 12:27:53.926545
3473  2023-10-20 12:27:53.958461
3474  2023-10-20 12:27:53.990341
3475  2023-10-20 12:27:54.022286
3476  2023-10-20 12:27:54.070153
3477  2023-10-20 12:27:54.102109
3478  2023-10-20 12:27:54.134023
3479  2023-10-20 12:27:54.166892
3480  2023-10-20 12:27:54.198845
3481  2023-10-20 12:27:54.230768
3482  2023-10-20 12:27:54.262682
3483  2023-10-20 12:27:54.294631
3484  2023-10-20 12:27:54.326548
3485  2023-10-20 12:27:54.358426
3486  2023-10-20 12:27:54.390372
3487  2023-10-20 12:27:54.438259
3488  2023-10-20 12:27:54.470228
3489  2023-10-20 12:27:54.502144
3490  2023-10-20 12:27:54.535055
3491  2023-10-20 12:27:54.566011
3492  2023-10-20 12:27:54.598883
3493  2023-10-20 12:27:54.630797
3494  2023-10-20 12:27:54.662716
3495  2023-10-20 12:27:54.694693
3496  2023-10-20 12:27:54.726839
3497  2023-10-20 12:27:54.758795
3498  2023-10-20 12:27:54.790698
3499  2023-10-20 12:27:54.838570
3500  2023-10-20 12:27:54.870485
3501  2023-10-20 12:27:54.902475
3502  2023-10-20 12:27:54.934389
3503  2023-10-20 12:27:54.966345
3504  2023-10-20 12:27:54.998260
3505  2023-10-20 12:27:55.030133
3506  2023-10-20 12:27:55.062079
3507  2023-10-20 12:27:55.094121
3508  2023-10-20 12:27:55.126005
3509  2023-10-20 12:27:55.157957
3510  2023-10-20 12:27:55.190242
3511  2023-10-20 12:27:55.238129
3512  2023-10-20 12:27:55.271041
3513  2023-10-20 12:27:55.301958
3514  2023-10-20 12:27:55.334869
3515  2023-10-20 12:27:55.366948
3516  2023-10-20 12:27:55.398862
3517  2023-10-20 12:27:55.430777
3518  2023-10-20 12:27:55.462691
3519  2023-10-20 12:27:55.494645
3520  2023-10-20 12:27:55.526520
3521  2023-10-20 12:27:55.558435
3522  2023-10-20 12:27:55.590407
3523  2023-10-20 12:27:55.638221
3524  2023-10-20 12:27:55.670168
3525  2023-10-20 12:27:55.703117
3526  2023-10-20 12:27:55.734961
3527  2023-10-20 12:27:55.766876
3528  2023-10-20 12:27:55.798821
3529  2023-10-20 12:27:55.830739
3530  2023-10-20 12:27:55.862619
3531  2023-10-20 12:27:55.894534
3532  2023-10-20 12:27:55.926448
3533  2023-10-20 12:27:55.958402
3534  2023-10-20 12:27:55.990277
3535  2023-10-20 12:27:56.038179
3536  2023-10-20 12:27:56.071061
3537  2023-10-20 12:27:56.101977
3538  2023-10-20 12:27:56.134924
3539  2023-10-20 12:27:56.166843
3540  2023-10-20 12:27:56.198718
3541  2023-10-20 12:27:56.230634
3542  2023-10-20 12:27:56.262580
3543  2023-10-20 12:27:56.294494
3544  2023-10-20 12:27:56.326376
3545  2023-10-20 12:27:56.358290
3546  2023-10-20 12:27:56.390205
3547  2023-10-20 12:27:56.438076
3548  2023-10-20 12:27:56.470023
3549  2023-10-20 12:27:56.501940
3550  2023-10-20 12:27:56.534817
3551  2023-10-20 12:27:56.566732
3552  2023-10-20 12:27:56.598646
3553  2023-10-20 12:27:56.630595
3554  2023-10-20 12:27:56.662554
3555  2023-10-20 12:27:56.694499
3556  2023-10-20 12:27:56.726414
3557  2023-10-20 12:27:56.758330
3558  2023-10-20 12:27:56.790299
3559  2023-10-20 12:27:56.838114
3560  2023-10-20 12:27:56.870029
3561  2023-10-20 12:27:56.901943
