
1  2023-11-10 15:14:07.152590
2  2023-11-10 15:14:07.183538
3  2023-11-10 15:14:07.215452
4  2023-11-10 15:14:07.247367
5  2023-11-10 15:14:07.295238
6  2023-11-10 15:14:07.328151
7  2023-11-10 15:14:07.360034
8  2023-11-10 15:14:07.391979
9  2023-11-10 15:14:07.423900
10  2023-11-10 15:14:07.455816
11  2023-11-10 15:14:07.487693
12  2023-11-10 15:14:07.519657
13  2023-11-10 15:14:07.552250
14  2023-11-10 15:14:07.584199
15  2023-11-10 15:14:07.616070
16  2023-11-10 15:14:07.647987
17  2023-11-10 15:14:07.695859
18  2023-11-10 15:14:07.727804
19  2023-11-10 15:14:07.759717
20  2023-11-10 15:14:07.791644
21  2023-11-10 15:14:07.823517
22  2023-11-10 15:14:07.855996
23  2023-11-10 15:14:07.887906
24  2023-11-10 15:14:07.919823
25  2023-11-10 15:14:07.951732
26  2023-11-10 15:14:07.983643
27  2023-11-10 15:14:08.015563
28  2023-11-10 15:14:08.047479
29  2023-11-10 15:14:08.095348
30  2023-11-10 15:14:08.128231
31  2023-11-10 15:14:08.160145
32  2023-11-10 15:14:08.192063
33  2023-11-10 15:14:08.223988
34  2023-11-10 15:14:08.255888
35  2023-11-10 15:14:08.287807
36  2023-11-10 15:14:08.319749
37  2023-11-10 15:14:08.351491
38  2023-11-10 15:14:08.383409
39  2023-11-10 15:14:08.415317
40  2023-11-10 15:14:08.448231
41  2023-11-10 15:14:08.496104
42  2023-11-10 15:14:08.528101
43  2023-11-10 15:14:08.560016
44  2023-11-10 15:14:08.591930
45  2023-11-10 15:14:08.623844
46  2023-11-10 15:14:08.655759
47  2023-11-10 15:14:08.687674
48  2023-11-10 15:14:08.719589
49  2023-11-10 15:14:08.751502
50  2023-11-10 15:14:08.783417
51  2023-11-10 15:14:08.815373
52  2023-11-10 15:14:08.847288
53  2023-11-10 15:14:08.896117
54  2023-11-10 15:14:08.928033
55  2023-11-10 15:14:08.959831
56  2023-11-10 15:14:08.991747
57  2023-11-10 15:14:09.023661
58  2023-11-10 15:14:09.055582
59  2023-11-10 15:14:09.087523
60  2023-11-10 15:14:09.119514
61  2023-11-10 15:14:09.151565
62  2023-11-10 15:14:09.183480
63  2023-11-10 15:14:09.215394
64  2023-11-10 15:14:09.247309
65  2023-11-10 15:14:09.295181
66  2023-11-10 15:14:09.328093
67  2023-11-10 15:14:09.360008
68  2023-11-10 15:14:09.391922
69  2023-11-10 15:14:09.423837
70  2023-11-10 15:14:09.455752
71  2023-11-10 15:14:09.487666
72  2023-11-10 15:14:09.519581
73  2023-11-10 15:14:09.551496
74  2023-11-10 15:14:09.583481
75  2023-11-10 15:14:09.615399
76  2023-11-10 15:14:09.647313
77  2023-11-10 15:14:09.695183
78  2023-11-10 15:14:09.728100
79  2023-11-10 15:14:09.759981
80  2023-11-10 15:14:09.791931
81  2023-11-10 15:14:09.823844
82  2023-11-10 15:14:09.855757
83  2023-11-10 15:14:09.887670
84  2023-11-10 15:14:09.919599
85  2023-11-10 15:14:09.951506
86  2023-11-10 15:14:09.984379
87  2023-11-10 15:14:10.015301
88  2023-11-10 15:14:10.048242
89  2023-11-10 15:14:10.096142
90  2023-11-10 15:14:10.128053
91  2023-11-10 15:14:10.159992
92  2023-11-10 15:14:10.191918
93  2023-11-10 15:14:10.223797
94  2023-11-10 15:14:10.255712
95  2023-11-10 15:14:10.287761
96  2023-11-10 15:14:10.319571
97  2023-11-10 15:14:10.352455
98  2023-11-10 15:14:10.383405
99  2023-11-10 15:14:10.415314
100  2023-11-10 15:14:10.448197
101  2023-11-10 15:14:10.496109
102  2023-11-10 15:14:10.528015
103  2023-11-10 15:14:10.559933
104  2023-11-10 15:14:10.591907
105  2023-11-10 15:14:10.623786
106  2023-11-10 15:14:10.655710
107  2023-11-10 15:14:10.687615
108  2023-11-10 15:14:10.719563
109  2023-11-10 15:14:10.751475
110  2023-11-10 15:14:10.784357
111  2023-11-10 15:14:10.815314
112  2023-11-10 15:14:10.864142
113  2023-11-10 15:14:10.895267
114  2023-11-10 15:14:10.928229
115  2023-11-10 15:14:10.960231
116  2023-11-10 15:14:10.992145
117  2023-11-10 15:14:11.024089
118  2023-11-10 15:14:11.056055
119  2023-11-10 15:14:11.087969
120  2023-11-10 15:14:11.119884
121  2023-11-10 15:14:11.151799
122  2023-11-10 15:14:11.183714
123  2023-11-10 15:14:11.215628
124  2023-11-10 15:14:11.263508
125  2023-11-10 15:14:11.295415
126  2023-11-10 15:14:11.328328
127  2023-11-10 15:14:11.360242
128  2023-11-10 15:14:11.392157
129  2023-11-10 15:14:11.424078
130  2023-11-10 15:14:11.455986
131  2023-11-10 15:14:11.487900
132  2023-11-10 15:14:11.519815
133  2023-11-10 15:14:11.551730
134  2023-11-10 15:14:11.583644
135  2023-11-10 15:14:11.615596
136  2023-11-10 15:14:11.663523
137  2023-11-10 15:14:11.695425
138  2023-11-10 15:14:11.728344
139  2023-11-10 15:14:11.760262
140  2023-11-10 15:14:11.792215
141  2023-11-10 15:14:11.824108
142  2023-11-10 15:14:11.855998
143  2023-11-10 15:14:11.887999
144  2023-11-10 15:14:11.919913
145  2023-11-10 15:14:11.951828
146  2023-11-10 15:14:11.983743
147  2023-11-10 15:14:12.015675
148  2023-11-10 15:14:12.063540
149  2023-11-10 15:14:12.095461
150  2023-11-10 15:14:12.127359
151  2023-11-10 15:14:12.159274
152  2023-11-10 15:14:12.192195
153  2023-11-10 15:14:12.224131
154  2023-11-10 15:14:12.256049
155  2023-11-10 15:14:12.287951
156  2023-11-10 15:14:12.319928
157  2023-11-10 15:14:12.351894
158  2023-11-10 15:14:12.383916
159  2023-11-10 15:14:12.415852
160  2023-11-10 15:14:12.463725
161  2023-11-10 15:14:12.495639
162  2023-11-10 15:14:12.527554
163  2023-11-10 15:14:12.559476
164  2023-11-10 15:14:12.591396
165  2023-11-10 15:14:12.623298
166  2023-11-10 15:14:12.655212
167  2023-11-10 15:14:12.688125
168  2023-11-10 15:14:12.720040
169  2023-11-10 15:14:12.751955
170  2023-11-10 15:14:12.783870
171  2023-11-10 15:14:12.815785
172  2023-11-10 15:14:12.863758
173  2023-11-10 15:14:12.895675
174  2023-11-10 15:14:12.927645
175  2023-11-10 15:14:12.959644
176  2023-11-10 15:14:12.991563
177  2023-11-10 15:14:13.023489
178  2023-11-10 15:14:13.055358
179  2023-11-10 15:14:13.088301
180  2023-11-10 15:14:13.119224
181  2023-11-10 15:14:13.152141
182  2023-11-10 15:14:13.184046
183  2023-11-10 15:14:13.215929
184  2023-11-10 15:14:13.263518
185  2023-11-10 15:14:13.295432
186  2023-11-10 15:14:13.327378
187  2023-11-10 15:14:13.360259
188  2023-11-10 15:14:13.392212
189  2023-11-10 15:14:13.424123
190  2023-11-10 15:14:13.456003
191  2023-11-10 15:14:13.487918
192  2023-11-10 15:14:13.519866
193  2023-11-10 15:14:13.551747
194  2023-11-10 15:14:13.583697
195  2023-11-10 15:14:13.615583
196  2023-11-10 15:14:13.663614
197  2023-11-10 15:14:13.695483
198  2023-11-10 15:14:13.727398
199  2023-11-10 15:14:13.759313
200  2023-11-10 15:14:13.791274
201  2023-11-10 15:14:13.823176
202  2023-11-10 15:14:13.856095
203  2023-11-10 15:14:13.887969
204  2023-11-10 15:14:13.919922
205  2023-11-10 15:14:13.951828
206  2023-11-10 15:14:13.983744
207  2023-11-10 15:14:14.015627
208  2023-11-10 15:14:14.063533
209  2023-11-10 15:14:14.095457
210  2023-11-10 15:14:14.127358
211  2023-11-10 15:14:14.159375
212  2023-11-10 15:14:14.191295
213  2023-11-10 15:14:14.224209
214  2023-11-10 15:14:14.255181
215  2023-11-10 15:14:14.288140
216  2023-11-10 15:14:14.320008
217  2023-11-10 15:14:14.351923
218  2023-11-10 15:14:14.383837
219  2023-11-10 15:14:14.431739
220  2023-11-10 15:14:14.463654
221  2023-11-10 15:14:14.495569
222  2023-11-10 15:14:14.527599
223  2023-11-10 15:14:14.559524
224  2023-11-10 15:14:14.591438
225  2023-11-10 15:14:14.623345
226  2023-11-10 15:14:14.655219
227  2023-11-10 15:14:14.688131
228  2023-11-10 15:14:14.720084
229  2023-11-10 15:14:14.751679
230  2023-11-10 15:14:14.783671
231  2023-11-10 15:14:14.831542
232  2023-11-10 15:14:14.864421
233  2023-11-10 15:14:14.896335
234  2023-11-10 15:14:14.927251
235  2023-11-10 15:14:14.960164
236  2023-11-10 15:14:14.992079
237  2023-11-10 15:14:15.023993
238  2023-11-10 15:14:15.056032
239  2023-11-10 15:14:15.087977
240  2023-11-10 15:14:15.119896
241  2023-11-10 15:14:15.151810
242  2023-11-10 15:14:15.183581
243  2023-11-10 15:14:15.231529
244  2023-11-10 15:14:15.263452
245  2023-11-10 15:14:15.295370
246  2023-11-10 15:14:15.327272
247  2023-11-10 15:14:15.360191
248  2023-11-10 15:14:15.392125
249  2023-11-10 15:14:15.424017
250  2023-11-10 15:14:15.455897
251  2023-11-10 15:14:15.487811
252  2023-11-10 15:14:15.519759
253  2023-11-10 15:14:15.551667
254  2023-11-10 15:14:15.583592
255  2023-11-10 15:14:15.631466
256  2023-11-10 15:14:15.663342
257  2023-11-10 15:14:15.853835
258  2023-11-10 15:14:15.858820
259  2023-11-10 15:14:15.887743
260  2023-11-10 15:14:15.919690
261  2023-11-10 15:14:15.951617
262  2023-11-10 15:14:15.983486
263  2023-11-10 15:14:16.031398
264  2023-11-10 15:14:16.063317
265  2023-11-10 15:14:16.095187
266  2023-11-10 15:14:16.128130
267  2023-11-10 15:14:16.159242
268  2023-11-10 15:14:16.192167
269  2023-11-10 15:14:16.224072
270  2023-11-10 15:14:16.255989
271  2023-11-10 15:14:16.287900
272  2023-11-10 15:14:16.319818
273  2023-11-10 15:14:16.351736
274  2023-11-10 15:14:16.383612
275  2023-11-10 15:14:16.431561
276  2023-11-10 15:14:16.463527
277  2023-11-10 15:14:16.495422
278  2023-11-10 15:14:16.527408
279  2023-11-10 15:14:16.559283
280  2023-11-10 15:14:16.591237
281  2023-11-10 15:14:16.624145
282  2023-11-10 15:14:16.656057
283  2023-11-10 15:14:16.687939
284  2023-11-10 15:14:16.719853
285  2023-11-10 15:14:16.751799
286  2023-11-10 15:14:16.783721
287  2023-11-10 15:14:16.831596
288  2023-11-10 15:14:16.863523
289  2023-11-10 15:14:16.895424
290  2023-11-10 15:14:16.927299
291  2023-11-10 15:14:16.960211
292  2023-11-10 15:14:16.992166
293  2023-11-10 15:14:17.024090
294  2023-11-10 15:14:17.055994
295  2023-11-10 15:14:17.087869
296  2023-11-10 15:14:17.119820
297  2023-11-10 15:14:17.151738
298  2023-11-10 15:14:17.183618
299  2023-11-10 15:14:17.231616
300  2023-11-10 15:14:17.263530
301  2023-11-10 15:14:17.295532
302  2023-11-10 15:14:17.327482
303  2023-11-10 15:14:17.359352
304  2023-11-10 15:14:17.391311
305  2023-11-10 15:14:17.423226
306  2023-11-10 15:14:17.456148
307  2023-11-10 15:14:17.488040
308  2023-11-10 15:14:17.519923
309  2023-11-10 15:14:17.551872
310  2023-11-10 15:14:17.583782
311  2023-11-10 15:14:17.631658
312  2023-11-10 15:14:17.663569
313  2023-11-10 15:14:17.695486
314  2023-11-10 15:14:17.727408
315  2023-11-10 15:14:17.760280
316  2023-11-10 15:14:17.792195
317  2023-11-10 15:14:17.824158
318  2023-11-10 15:14:17.856057
319  2023-11-10 15:14:17.887971
320  2023-11-10 15:14:17.919854
321  2023-11-10 15:14:17.951798
322  2023-11-10 15:14:17.983849
323  2023-11-10 15:14:18.031690
324  2023-11-10 15:14:18.063754
325  2023-11-10 15:14:18.095743
326  2023-11-10 15:14:18.127652
327  2023-11-10 15:14:18.159542
328  2023-11-10 15:14:18.191457
329  2023-11-10 15:14:18.223411
330  2023-11-10 15:14:18.255317
331  2023-11-10 15:14:18.288198
332  2023-11-10 15:14:18.320113
333  2023-11-10 15:14:18.352038
334  2023-11-10 15:14:18.399900
335  2023-11-10 15:14:18.431814
336  2023-11-10 15:14:18.463763
337  2023-11-10 15:14:18.495644
338  2023-11-10 15:14:18.528568
339  2023-11-10 15:14:18.559473
340  2023-11-10 15:14:18.591388
341  2023-11-10 15:14:18.623449
342  2023-11-10 15:14:18.655353
343  2023-11-10 15:14:18.688267
344  2023-11-10 15:14:18.720236
345  2023-11-10 15:14:18.751282
346  2023-11-10 15:14:18.799154
347  2023-11-10 15:14:18.832066
348  2023-11-10 15:14:18.864056
349  2023-11-10 15:14:18.896049
350  2023-11-10 15:14:18.927964
351  2023-11-10 15:14:18.959878
352  2023-11-10 15:14:18.991824
353  2023-11-10 15:14:19.023708
354  2023-11-10 15:14:19.055622
355  2023-11-10 15:14:19.087570
356  2023-11-10 15:14:19.119459
357  2023-11-10 15:14:19.151374
358  2023-11-10 15:14:19.199298
359  2023-11-10 15:14:19.231214
360  2023-11-10 15:14:19.264126
361  2023-11-10 15:14:19.296041
362  2023-11-10 15:14:19.327956
363  2023-11-10 15:14:19.359870
364  2023-11-10 15:14:19.391785
365  2023-11-10 15:14:19.423700
366  2023-11-10 15:14:19.455724
367  2023-11-10 15:14:19.487639
368  2023-11-10 15:14:19.519553
369  2023-11-10 15:14:19.551468
370  2023-11-10 15:14:19.600337
371  2023-11-10 15:14:19.631254
372  2023-11-10 15:14:19.664166
373  2023-11-10 15:14:19.696115
374  2023-11-10 15:14:19.727996
375  2023-11-10 15:14:19.759910
376  2023-11-10 15:14:19.791825
377  2023-11-10 15:14:19.823772
378  2023-11-10 15:14:19.855695
379  2023-11-10 15:14:19.887569
380  2023-11-10 15:14:19.919484
381  2023-11-10 15:14:19.951443
382  2023-11-10 15:14:20.000268
383  2023-11-10 15:14:20.031219
384  2023-11-10 15:14:20.064143
385  2023-11-10 15:14:20.096012
386  2023-11-10 15:14:20.127927
387  2023-11-10 15:14:20.159882
388  2023-11-10 15:14:20.191953
389  2023-11-10 15:14:20.223880
390  2023-11-10 15:14:20.255795
391  2023-11-10 15:14:20.287741
392  2023-11-10 15:14:20.319661
393  2023-11-10 15:14:20.351539
394  2023-11-10 15:14:20.399411
395  2023-11-10 15:14:20.431326
396  2023-11-10 15:14:20.463303
397  2023-11-10 15:14:20.495248
398  2023-11-10 15:14:20.527256
399  2023-11-10 15:14:20.560169
400  2023-11-10 15:14:20.592090
401  2023-11-10 15:14:20.623998
402  2023-11-10 15:14:20.656094
403  2023-11-10 15:14:20.687548
404  2023-11-10 15:14:20.719463
405  2023-11-10 15:14:20.751377
406  2023-11-10 15:14:20.799249
407  2023-11-10 15:14:20.831164
408  2023-11-10 15:14:20.864076
409  2023-11-10 15:14:20.895991
410  2023-11-10 15:14:20.927906
411  2023-11-10 15:14:20.959820
412  2023-11-10 15:14:20.991737
413  2023-11-10 15:14:21.023668
414  2023-11-10 15:14:21.055564
415  2023-11-10 15:14:21.087479
416  2023-11-10 15:14:21.119395
417  2023-11-10 15:14:21.152344
418  2023-11-10 15:14:21.200181
419  2023-11-10 15:14:21.232134
420  2023-11-10 15:14:21.264007
421  2023-11-10 15:14:21.398699
422  2023-11-10 15:14:21.423580
423  2023-11-10 15:14:21.455495
424  2023-11-10 15:14:21.487451
425  2023-11-10 15:14:21.519405
426  2023-11-10 15:14:21.551458
427  2023-11-10 15:14:21.599330
428  2023-11-10 15:14:21.631244
429  2023-11-10 15:14:21.664157
430  2023-11-10 15:14:21.696122
431  2023-11-10 15:14:21.727986
432  2023-11-10 15:14:21.759900
433  2023-11-10 15:14:21.791815
434  2023-11-10 15:14:21.823730
435  2023-11-10 15:14:21.855674
436  2023-11-10 15:14:21.887723
437  2023-11-10 15:14:21.919638
438  2023-11-10 15:14:21.967638
439  2023-11-10 15:14:21.999557
440  2023-11-10 15:14:22.031595
441  2023-11-10 15:14:22.063462
442  2023-11-10 15:14:22.095377
443  2023-11-10 15:14:22.128289
444  2023-11-10 15:14:22.159237
445  2023-11-10 15:14:22.192156
446  2023-11-10 15:14:22.224033
447  2023-11-10 15:14:22.255947
448  2023-11-10 15:14:22.287941
449  2023-11-10 15:14:22.319933
450  2023-11-10 15:14:22.367919
451  2023-11-10 15:14:22.399801
452  2023-11-10 15:14:22.431716
453  2023-11-10 15:14:22.463630
454  2023-11-10 15:14:22.495682
455  2023-11-10 15:14:22.527596
456  2023-11-10 15:14:22.559511
457  2023-11-10 15:14:22.591425
458  2023-11-10 15:14:22.623340
459  2023-11-10 15:14:22.656252
460  2023-11-10 15:14:22.688167
461  2023-11-10 15:14:22.720081
462  2023-11-10 15:14:22.767954
463  2023-11-10 15:14:22.799950
464  2023-11-10 15:14:22.831864
465  2023-11-10 15:14:22.863856
466  2023-11-10 15:14:22.895694
467  2023-11-10 15:14:22.927608
468  2023-11-10 15:14:22.959523
469  2023-11-10 15:14:22.991468
470  2023-11-10 15:14:23.024204
471  2023-11-10 15:14:23.056124
472  2023-11-10 15:14:23.088033
473  2023-11-10 15:14:23.119979
474  2023-11-10 15:14:23.167820
475  2023-11-10 15:14:23.199773
476  2023-11-10 15:14:23.231649
477  2023-11-10 15:14:23.263564
478  2023-11-10 15:14:23.295399
479  2023-11-10 15:14:23.327356
480  2023-11-10 15:14:23.359271
481  2023-11-10 15:14:23.392141
482  2023-11-10 15:14:23.424181
483  2023-11-10 15:14:23.456143
484  2023-11-10 15:14:23.488043
485  2023-11-10 15:14:23.519925
486  2023-11-10 15:14:23.567890
487  2023-11-10 15:14:23.599808
488  2023-11-10 15:14:23.631722
489  2023-11-10 15:14:23.663712
490  2023-11-10 15:14:23.695685
491  2023-11-10 15:14:23.727553
492  2023-11-10 15:14:23.759468
493  2023-11-10 15:14:23.791382
494  2023-11-10 15:14:23.823297
495  2023-11-10 15:14:23.856209
496  2023-11-10 15:14:23.888124
497  2023-11-10 15:14:23.920038
498  2023-11-10 15:14:23.967910
499  2023-11-10 15:14:23.999825
500  2023-11-10 15:14:24.031740
501  2023-11-10 15:14:24.063654
502  2023-11-10 15:14:24.095569
503  2023-11-10 15:14:24.127484
504  2023-11-10 15:14:24.159398
505  2023-11-10 15:14:24.191313
506  2023-11-10 15:14:24.223228
507  2023-11-10 15:14:24.256148
508  2023-11-10 15:14:24.288122
509  2023-11-10 15:14:24.320037
510  2023-11-10 15:14:24.367959
511  2023-11-10 15:14:24.399874
512  2023-11-10 15:14:24.431788
513  2023-11-10 15:14:24.463703
514  2023-11-10 15:14:24.495619
515  2023-11-10 15:14:24.527532
516  2023-11-10 15:14:24.559447
517  2023-11-10 15:14:24.591362
518  2023-11-10 15:14:24.623276
519  2023-11-10 15:14:24.656189
520  2023-11-10 15:14:24.688109
521  2023-11-10 15:14:24.720018
522  2023-11-10 15:14:24.768117
523  2023-11-10 15:14:24.800032
524  2023-11-10 15:14:24.831947
525  2023-11-10 15:14:24.863862
526  2023-11-10 15:14:24.895788
527  2023-11-10 15:14:24.927691
528  2023-11-10 15:14:24.959605
529  2023-11-10 15:14:24.991551
530  2023-11-10 15:14:25.023436
531  2023-11-10 15:14:25.055349
532  2023-11-10 15:14:25.087264
533  2023-11-10 15:14:25.120176
534  2023-11-10 15:14:25.168048
535  2023-11-10 15:14:25.200000
536  2023-11-10 15:14:25.231911
537  2023-11-10 15:14:25.263792
538  2023-11-10 15:14:25.295707
539  2023-11-10 15:14:25.327667
540  2023-11-10 15:14:25.359536
541  2023-11-10 15:14:25.391451
542  2023-11-10 15:14:25.423365
543  2023-11-10 15:14:25.455280
544  2023-11-10 15:14:25.487238
545  2023-11-10 15:14:25.520107
546  2023-11-10 15:14:25.567979
547  2023-11-10 15:14:25.599893
548  2023-11-10 15:14:25.631808
549  2023-11-10 15:14:25.663758
550  2023-11-10 15:14:25.695637
551  2023-11-10 15:14:25.727552
552  2023-11-10 15:14:25.759467
553  2023-11-10 15:14:25.791381
554  2023-11-10 15:14:25.823343
555  2023-11-10 15:14:25.856208
556  2023-11-10 15:14:25.887487
557  2023-11-10 15:14:25.935368
558  2023-11-10 15:14:25.967274
559  2023-11-10 15:14:25.999189
560  2023-11-10 15:14:26.032101
561  2023-11-10 15:14:26.064016
562  2023-11-10 15:14:26.095930
563  2023-11-10 15:14:26.127845
564  2023-11-10 15:14:26.159759
565  2023-11-10 15:14:26.191674
566  2023-11-10 15:14:26.223595
567  2023-11-10 15:14:26.255504
568  2023-11-10 15:14:26.287418
569  2023-11-10 15:14:26.336288
570  2023-11-10 15:14:26.367205
571  2023-11-10 15:14:26.400117
572  2023-11-10 15:14:26.438016
573  2023-11-10 15:14:26.464088
574  2023-11-10 15:14:26.496003
575  2023-11-10 15:14:26.527950
576  2023-11-10 15:14:26.559832
577  2023-11-10 15:14:26.591747
578  2023-11-10 15:14:26.623661
579  2023-11-10 15:14:26.655608
580  2023-11-10 15:14:26.687491
581  2023-11-10 15:14:26.735434
582  2023-11-10 15:14:26.767390
583  2023-11-10 15:14:26.799305
584  2023-11-10 15:14:26.831219
585  2023-11-10 15:14:26.864131
586  2023-11-10 15:14:26.896046
587  2023-11-10 15:14:26.927961
588  2023-11-10 15:14:26.959875
589  2023-11-10 15:14:26.991904
590  2023-11-10 15:14:27.023819
591  2023-11-10 15:14:27.055884
592  2023-11-10 15:14:27.087798
593  2023-11-10 15:14:27.135670
594  2023-11-10 15:14:27.167591
595  2023-11-10 15:14:27.199500
596  2023-11-10 15:14:27.231414
597  2023-11-10 15:14:27.263329
598  2023-11-10 15:14:27.296406
599  2023-11-10 15:14:27.328320
600  2023-11-10 15:14:27.360237
601  2023-11-10 15:14:27.392167
602  2023-11-10 15:14:27.424064
603  2023-11-10 15:14:27.456144
604  2023-11-10 15:14:27.489055
605  2023-11-10 15:14:27.535963
606  2023-11-10 15:14:27.567890
607  2023-11-10 15:14:27.599761
608  2023-11-10 15:14:27.631674
609  2023-11-10 15:14:27.663588
610  2023-11-10 15:14:27.695502
611  2023-11-10 15:14:27.728416
612  2023-11-10 15:14:27.760376
613  2023-11-10 15:14:27.791246
614  2023-11-10 15:14:27.824195
615  2023-11-10 15:14:27.856073
616  2023-11-10 15:14:27.888020
617  2023-11-10 15:14:27.935869
618  2023-11-10 15:14:27.967776
619  2023-11-10 15:14:28.000174
620  2023-11-10 15:14:28.032141
621  2023-11-10 15:14:28.064052
622  2023-11-10 15:14:28.095975
623  2023-11-10 15:14:28.127881
624  2023-11-10 15:14:28.159796
625  2023-11-10 15:14:28.191710
626  2023-11-10 15:14:28.223626
627  2023-11-10 15:14:28.255657
628  2023-11-10 15:14:28.288607
629  2023-11-10 15:14:28.335443
630  2023-11-10 15:14:28.368378
631  2023-11-10 15:14:28.400271
632  2023-11-10 15:14:28.432219
633  2023-11-10 15:14:28.463275
634  2023-11-10 15:14:28.495184
635  2023-11-10 15:14:28.528097
636  2023-11-10 15:14:28.560017
637  2023-11-10 15:14:28.591984
638  2023-11-10 15:14:28.623872
639  2023-11-10 15:14:28.655755
640  2023-11-10 15:14:28.688706
641  2023-11-10 15:14:28.735555
642  2023-11-10 15:14:28.767491
643  2023-11-10 15:14:28.799413
644  2023-11-10 15:14:28.832315
645  2023-11-10 15:14:28.863245
646  2023-11-10 15:14:28.896147
647  2023-11-10 15:14:28.928033
648  2023-11-10 15:14:28.959942
649  2023-11-10 15:14:28.991891
650  2023-11-10 15:14:29.023805
651  2023-11-10 15:14:29.055685
652  2023-11-10 15:14:29.087648
653  2023-11-10 15:14:29.135471
654  2023-11-10 15:14:29.168414
655  2023-11-10 15:14:29.200324
656  2023-11-10 15:14:29.231215
657  2023-11-10 15:14:29.264132
658  2023-11-10 15:14:29.296042
659  2023-11-10 15:14:29.327990
660  2023-11-10 15:14:29.359872
661  2023-11-10 15:14:29.391820
662  2023-11-10 15:14:29.423700
663  2023-11-10 15:14:29.455650
664  2023-11-10 15:14:29.503487
665  2023-11-10 15:14:29.535438
666  2023-11-10 15:14:29.568347
667  2023-11-10 15:14:29.599266
668  2023-11-10 15:14:29.632172
669  2023-11-10 15:14:29.664107
670  2023-11-10 15:14:29.695974
671  2023-11-10 15:14:29.727918
672  2023-11-10 15:14:29.759804
673  2023-11-10 15:14:29.791750
674  2023-11-10 15:14:29.823671
675  2023-11-10 15:14:29.855547
676  2023-11-10 15:14:29.903465
677  2023-11-10 15:14:29.935334
678  2023-11-10 15:14:29.967287
679  2023-11-10 15:14:29.999209
680  2023-11-10 15:14:30.032104
681  2023-11-10 15:14:30.064023
682  2023-11-10 15:14:30.095935
683  2023-11-10 15:14:30.127819
684  2023-11-10 15:14:30.159780
685  2023-11-10 15:14:30.191648
686  2023-11-10 15:14:30.223602
687  2023-11-10 15:14:30.255478
688  2023-11-10 15:14:30.303409
689  2023-11-10 15:14:30.335310
690  2023-11-10 15:14:30.368218
691  2023-11-10 15:14:30.400134
692  2023-11-10 15:14:30.431937
693  2023-11-10 15:14:30.463910
694  2023-11-10 15:14:30.495876
695  2023-11-10 15:14:30.527797
696  2023-11-10 15:14:30.559715
697  2023-11-10 15:14:30.591636
698  2023-11-10 15:14:30.623539
699  2023-11-10 15:14:30.655462
700  2023-11-10 15:14:30.703328
701  2023-11-10 15:14:30.735242
702  2023-11-10 15:14:30.768153
703  2023-11-10 15:14:30.800064
704  2023-11-10 15:14:30.831978
705  2023-11-10 15:14:30.863893
706  2023-11-10 15:14:30.895777
707  2023-11-10 15:14:30.927691
708  2023-11-10 15:14:30.959659
709  2023-11-10 15:14:30.991576
710  2023-11-10 15:14:31.023435
711  2023-11-10 15:14:31.055350
712  2023-11-10 15:14:31.103255
713  2023-11-10 15:14:31.136179
714  2023-11-10 15:14:31.168079
715  2023-11-10 15:14:31.199998
716  2023-11-10 15:14:31.231911
717  2023-11-10 15:14:31.263923
718  2023-11-10 15:14:31.295806
719  2023-11-10 15:14:31.327721
720  2023-11-10 15:14:31.359675
721  2023-11-10 15:14:31.391713
722  2023-11-10 15:14:31.423499
723  2023-11-10 15:14:31.455433
724  2023-11-10 15:14:31.503284
725  2023-11-10 15:14:31.536214
726  2023-11-10 15:14:31.568079
727  2023-11-10 15:14:31.600029
728  2023-11-10 15:14:31.631953
729  2023-11-10 15:14:31.663853
730  2023-11-10 15:14:31.695773
731  2023-11-10 15:14:31.727695
732  2023-11-10 15:14:31.759707
733  2023-11-10 15:14:31.791684
734  2023-11-10 15:14:31.823610
735  2023-11-10 15:14:31.855534
736  2023-11-10 15:14:31.903403
737  2023-11-10 15:14:31.935270
738  2023-11-10 15:14:31.967218
739  2023-11-10 15:14:32.000097
740  2023-11-10 15:14:32.044008
741  2023-11-10 15:14:32.063959
742  2023-11-10 15:14:32.095841
743  2023-11-10 15:14:32.127755
744  2023-11-10 15:14:32.159701
745  2023-11-10 15:14:32.191634
746  2023-11-10 15:14:32.223536
747  2023-11-10 15:14:32.255456
748  2023-11-10 15:14:32.303327
749  2023-11-10 15:14:32.335232
750  2023-11-10 15:14:32.368109
751  2023-11-10 15:14:32.399127
752  2023-11-10 15:14:32.432071
753  2023-11-10 15:14:32.463989
754  2023-11-10 15:14:32.495971
755  2023-11-10 15:14:32.527889
756  2023-11-10 15:14:32.559803
757  2023-11-10 15:14:32.591722
758  2023-11-10 15:14:32.623648
759  2023-11-10 15:14:32.655546
760  2023-11-10 15:14:32.703419
761  2023-11-10 15:14:32.735334
762  2023-11-10 15:14:32.767245
763  2023-11-10 15:14:32.800127
764  2023-11-10 15:14:32.832075
765  2023-11-10 15:14:32.863990
766  2023-11-10 15:14:32.895871
767  2023-11-10 15:14:32.927786
768  2023-11-10 15:14:32.959738
769  2023-11-10 15:14:32.991651
770  2023-11-10 15:14:33.023563
771  2023-11-10 15:14:33.055486
772  2023-11-10 15:14:33.104316
773  2023-11-10 15:14:33.135266
774  2023-11-10 15:14:33.168169
775  2023-11-10 15:14:33.200061
776  2023-11-10 15:14:33.232002
777  2023-11-10 15:14:33.263919
778  2023-11-10 15:14:33.295834
779  2023-11-10 15:14:33.327717
780  2023-11-10 15:14:33.359633
781  2023-11-10 15:14:33.391597
782  2023-11-10 15:14:33.423519
783  2023-11-10 15:14:33.471364
784  2023-11-10 15:14:33.503282
785  2023-11-10 15:14:33.535197
786  2023-11-10 15:14:33.568121
787  2023-11-10 15:14:33.600025
788  2023-11-10 15:14:33.631938
789  2023-11-10 15:14:33.663851
790  2023-11-10 15:14:33.695763
791  2023-11-10 15:14:33.728645
792  2023-11-10 15:14:33.759562
793  2023-11-10 15:14:33.791524
794  2023-11-10 15:14:33.823424
795  2023-11-10 15:14:33.871300
796  2023-11-10 15:14:33.903211
797  2023-11-10 15:14:33.936133
798  2023-11-10 15:14:33.968037
799  2023-11-10 15:14:33.999960
800  2023-11-10 15:14:34.031868
801  2023-11-10 15:14:34.063780
802  2023-11-10 15:14:34.095695
803  2023-11-10 15:14:34.127622
804  2023-11-10 15:14:34.159531
805  2023-11-10 15:14:34.191407
806  2023-11-10 15:14:34.223370
807  2023-11-10 15:14:34.271242
808  2023-11-10 15:14:34.303145
809  2023-11-10 15:14:34.336053
810  2023-11-10 15:14:34.367968
811  2023-11-10 15:14:34.399851
812  2023-11-10 15:14:34.431802
813  2023-11-10 15:14:34.463712
814  2023-11-10 15:14:34.495635
815  2023-11-10 15:14:34.527542
816  2023-11-10 15:14:34.559463
817  2023-11-10 15:14:34.591338
818  2023-11-10 15:14:34.624281
819  2023-11-10 15:14:34.672127
820  2023-11-10 15:14:34.704082
821  2023-11-10 15:14:34.736044
822  2023-11-10 15:14:34.767959
823  2023-11-10 15:14:34.799843
824  2023-11-10 15:14:34.831757
825  2023-11-10 15:14:34.863708
826  2023-11-10 15:14:34.895623
827  2023-11-10 15:14:34.927524
828  2023-11-10 15:14:34.959487
829  2023-11-10 15:14:34.992398
830  2023-11-10 15:14:35.023362
831  2023-11-10 15:14:35.072185
832  2023-11-10 15:14:35.104100
833  2023-11-10 15:14:35.136014
834  2023-11-10 15:14:35.167968
835  2023-11-10 15:14:35.199844
836  2023-11-10 15:14:35.231758
837  2023-11-10 15:14:35.263844
838  2023-11-10 15:14:35.295626
839  2023-11-10 15:14:35.327537
840  2023-11-10 15:14:35.359417
841  2023-11-10 15:14:35.392329
842  2023-11-10 15:14:35.423287
843  2023-11-10 15:14:35.472116
844  2023-11-10 15:14:35.503939
845  2023-11-10 15:14:35.535888
846  2023-11-10 15:14:35.567799
847  2023-11-10 15:14:35.599683
848  2023-11-10 15:14:35.631597
849  2023-11-10 15:14:35.663518
850  2023-11-10 15:14:35.695470
851  2023-11-10 15:14:35.727372
852  2023-11-10 15:14:35.759357
853  2023-11-10 15:14:35.792269
854  2023-11-10 15:14:35.823223
855  2023-11-10 15:14:35.872055
856  2023-11-10 15:14:35.904003
857  2023-11-10 15:14:35.935885
858  2023-11-10 15:14:35.967800
859  2023-11-10 15:14:35.999714
860  2023-11-10 15:14:36.031673
861  2023-11-10 15:14:36.063578
862  2023-11-10 15:14:36.095458
863  2023-11-10 15:14:36.127373
864  2023-11-10 15:14:36.160323
865  2023-11-10 15:14:36.191243
866  2023-11-10 15:14:36.224114
867  2023-11-10 15:14:36.271986
868  2023-11-10 15:14:36.303901
869  2023-11-10 15:14:36.335816
870  2023-11-10 15:14:36.367768
871  2023-11-10 15:14:36.399645
872  2023-11-10 15:14:36.431563
873  2023-11-10 15:14:36.463474
874  2023-11-10 15:14:36.495528
875  2023-11-10 15:14:36.527443
876  2023-11-10 15:14:36.559357
877  2023-11-10 15:14:36.592269
878  2023-11-10 15:14:36.624184
879  2023-11-10 15:14:36.672056
880  2023-11-10 15:14:36.703971
881  2023-11-10 15:14:36.735891
882  2023-11-10 15:14:36.767800
883  2023-11-10 15:14:36.799715
884  2023-11-10 15:14:36.831633
885  2023-11-10 15:14:36.863547
886  2023-11-10 15:14:36.895459
887  2023-11-10 15:14:36.927373
888  2023-11-10 15:14:36.959288
889  2023-11-10 15:14:36.992200
890  2023-11-10 15:14:37.040072
891  2023-11-10 15:14:37.071987
892  2023-11-10 15:14:37.103901
893  2023-11-10 15:14:37.135484
894  2023-11-10 15:14:37.167399
895  2023-11-10 15:14:37.199414
896  2023-11-10 15:14:37.231297
897  2023-11-10 15:14:37.263211
898  2023-11-10 15:14:37.295230
899  2023-11-10 15:14:37.328142
900  2023-11-10 15:14:37.360106
901  2023-11-10 15:14:37.392023
902  2023-11-10 15:14:37.439973
903  2023-11-10 15:14:37.471856
904  2023-11-10 15:14:37.503771
905  2023-11-10 15:14:37.535720
906  2023-11-10 15:14:37.567647
907  2023-11-10 15:14:37.599515
908  2023-11-10 15:14:37.631429
909  2023-11-10 15:14:37.663374
910  2023-11-10 15:14:37.695299
911  2023-11-10 15:14:37.727173
912  2023-11-10 15:14:37.760085
913  2023-11-10 15:14:37.792000
914  2023-11-10 15:14:37.839872
915  2023-11-10 15:14:37.871787
916  2023-11-10 15:14:37.903701
917  2023-11-10 15:14:37.935622
918  2023-11-10 15:14:37.967531
919  2023-11-10 15:14:37.999445
920  2023-11-10 15:14:38.032358
921  2023-11-10 15:14:38.064273
922  2023-11-10 15:14:38.095189
923  2023-11-10 15:14:38.128101
924  2023-11-10 15:14:38.160016
925  2023-11-10 15:14:38.191932
926  2023-11-10 15:14:38.239803
927  2023-11-10 15:14:38.271718
928  2023-11-10 15:14:38.303632
929  2023-11-10 15:14:38.335547
930  2023-11-10 15:14:38.367463
931  2023-11-10 15:14:38.399377
932  2023-11-10 15:14:38.432346
933  2023-11-10 15:14:38.464203
934  2023-11-10 15:14:38.496118
935  2023-11-10 15:14:38.528085
936  2023-11-10 15:14:38.559947
937  2023-11-10 15:14:38.592031
938  2023-11-10 15:14:38.639812
939  2023-11-10 15:14:38.671834
940  2023-11-10 15:14:38.703806
941  2023-11-10 15:14:38.735718
942  2023-11-10 15:14:38.767749
943  2023-11-10 15:14:38.799663
944  2023-11-10 15:14:38.831642
945  2023-11-10 15:14:38.863590
946  2023-11-10 15:14:38.895472
947  2023-11-10 15:14:38.927386
948  2023-11-10 15:14:38.960298
949  2023-11-10 15:14:38.991252
950  2023-11-10 15:14:39.040085
951  2023-11-10 15:14:39.072034
952  2023-11-10 15:14:39.103915
953  2023-11-10 15:14:39.135829
954  2023-11-10 15:14:39.167744
955  2023-11-10 15:14:39.199689
956  2023-11-10 15:14:39.231617
957  2023-11-10 15:14:39.263488
958  2023-11-10 15:14:39.295402
959  2023-11-10 15:14:39.327362
960  2023-11-10 15:14:39.359262
961  2023-11-10 15:14:39.392144
962  2023-11-10 15:14:39.440016
963  2023-11-10 15:14:39.471930
964  2023-11-10 15:14:39.503583
965  2023-11-10 15:14:39.535566
966  2023-11-10 15:14:39.567531
967  2023-11-10 15:14:39.599446
968  2023-11-10 15:14:39.631362
969  2023-11-10 15:14:39.663275
970  2023-11-10 15:14:39.695189
971  2023-11-10 15:14:39.728102
972  2023-11-10 15:14:39.760016
973  2023-11-10 15:14:39.791931
974  2023-11-10 15:14:39.839737
975  2023-11-10 15:14:39.871652
976  2023-11-10 15:14:39.903567
977  2023-11-10 15:14:39.936481
978  2023-11-10 15:14:39.968407
979  2023-11-10 15:14:40.000128
980  2023-11-10 15:14:40.032125
981  2023-11-10 15:14:40.063999
982  2023-11-10 15:14:40.095911
983  2023-11-10 15:14:40.127826
984  2023-11-10 15:14:40.159771
985  2023-11-10 15:14:40.191700
986  2023-11-10 15:14:40.239543
987  2023-11-10 15:14:40.271574
988  2023-11-10 15:14:40.303493
989  2023-11-10 15:14:40.335439
990  2023-11-10 15:14:40.367436
991  2023-11-10 15:14:40.399342
992  2023-11-10 15:14:40.431225
993  2023-11-10 15:14:40.464137
994  2023-11-10 15:14:40.496083
995  2023-11-10 15:14:40.528016
996  2023-11-10 15:14:40.559881
997  2023-11-10 15:14:40.591796
998  2023-11-10 15:14:40.639668
999  2023-11-10 15:14:40.671582
1000  2023-11-10 15:14:40.703497
1001  2023-11-10 15:14:40.735553
1002  2023-11-10 15:14:40.767468
1003  2023-11-10 15:14:40.799382
1004  2023-11-10 15:14:40.831297
1005  2023-11-10 15:14:40.863212
1006  2023-11-10 15:14:40.896125
1007  2023-11-10 15:14:40.928038
1008  2023-11-10 15:14:40.959953
1009  2023-11-10 15:14:41.007979
1010  2023-11-10 15:14:41.039895
1011  2023-11-10 15:14:41.071919
1012  2023-11-10 15:14:41.103833
1013  2023-11-10 15:14:41.135748
1014  2023-11-10 15:14:41.167663
1015  2023-11-10 15:14:41.199671
1016  2023-11-10 15:14:41.231593
1017  2023-11-10 15:14:41.263499
1018  2023-11-10 15:14:41.295413
1019  2023-11-10 15:14:41.327328
1020  2023-11-10 15:14:41.359243
1021  2023-11-10 15:14:41.408112
1022  2023-11-10 15:14:41.440031
1023  2023-11-10 15:14:41.472014
1024  2023-11-10 15:14:41.504041
1025  2023-11-10 15:14:41.535956
1026  2023-11-10 15:14:41.567871
1027  2023-11-10 15:14:41.599785
1028  2023-11-10 15:14:41.631700
1029  2023-11-10 15:14:41.663615
1030  2023-11-10 15:14:41.695529
1031  2023-11-10 15:14:41.727444
1032  2023-11-10 15:14:41.759359
1033  2023-11-10 15:14:41.807231
1034  2023-11-10 15:14:41.839145
1035  2023-11-10 15:14:41.871193
1036  2023-11-10 15:14:41.904112
1037  2023-11-10 15:14:41.936163
1038  2023-11-10 15:14:41.968078
1039  2023-11-10 15:14:42.000146
1040  2023-11-10 15:14:42.032061
1041  2023-11-10 15:14:42.063976
1042  2023-11-10 15:14:42.095890
1043  2023-11-10 15:14:42.127805
1044  2023-11-10 15:14:42.159720
1045  2023-11-10 15:14:42.207735
1046  2023-11-10 15:14:42.239694
1047  2023-11-10 15:14:42.271747
1048  2023-11-10 15:14:42.303662
1049  2023-11-10 15:14:42.335576
1050  2023-11-10 15:14:42.367491
1051  2023-11-10 15:14:42.399406
1052  2023-11-10 15:14:42.431321
1053  2023-11-10 15:14:42.463235
1054  2023-11-10 15:14:42.496148
1055  2023-11-10 15:14:42.528095
1056  2023-11-10 15:14:42.559977
1057  2023-11-10 15:14:42.607891
1058  2023-11-10 15:14:42.639838
1059  2023-11-10 15:14:42.671788
1060  2023-11-10 15:14:42.703750
1061  2023-11-10 15:14:42.735712
1062  2023-11-10 15:14:42.767652
1063  2023-11-10 15:14:42.799572
1064  2023-11-10 15:14:42.831483
1065  2023-11-10 15:14:42.863319
1066  2023-11-10 15:14:42.895285
1067  2023-11-10 15:14:42.927284
1068  2023-11-10 15:14:42.959213
1069  2023-11-10 15:14:43.007265
1070  2023-11-10 15:14:43.039291
1071  2023-11-10 15:14:43.071248
1072  2023-11-10 15:14:43.104119
1073  2023-11-10 15:14:43.136126
1074  2023-11-10 15:14:43.168041
1075  2023-11-10 15:14:43.200050
1076  2023-11-10 15:14:43.231964
1077  2023-11-10 15:14:43.263879
1078  2023-11-10 15:14:43.295863
1079  2023-11-10 15:14:43.327778
1080  2023-11-10 15:14:43.359693
1081  2023-11-10 15:14:43.407565
1082  2023-11-10 15:14:43.439479
1083  2023-11-10 15:14:43.471394
1084  2023-11-10 15:14:43.503510
1085  2023-11-10 15:14:43.535425
1086  2023-11-10 15:14:43.567340
1087  2023-11-10 15:14:43.599254
1088  2023-11-10 15:14:43.632170
1089  2023-11-10 15:14:43.664083
1090  2023-11-10 15:14:43.696040
1091  2023-11-10 15:14:43.727912
1092  2023-11-10 15:14:43.759833
1093  2023-11-10 15:14:43.807699
1094  2023-11-10 15:14:43.840649
1095  2023-11-10 15:14:43.871528
1096  2023-11-10 15:14:43.903594
1097  2023-11-10 15:14:43.936658
1098  2023-11-10 15:14:43.968572
1099  2023-11-10 15:14:44.000614
1100  2023-11-10 15:14:44.032539
1101  2023-11-10 15:14:44.064513
1102  2023-11-10 15:14:44.096434
1103  2023-11-10 15:14:44.128324
1104  2023-11-10 15:14:44.160372
1105  2023-11-10 15:14:44.208232
1106  2023-11-10 15:14:44.240117
1107  2023-11-10 15:14:44.272192
1108  2023-11-10 15:14:44.304232
1109  2023-11-10 15:14:44.336130
1110  2023-11-10 15:14:44.368021
1111  2023-11-10 15:14:44.399933
1112  2023-11-10 15:14:44.431878
1113  2023-11-10 15:14:44.463913
1114  2023-11-10 15:14:44.495828
1115  2023-11-10 15:14:44.527741
1116  2023-11-10 15:14:44.575618
1117  2023-11-10 15:14:44.607538
1118  2023-11-10 15:14:44.639549
1119  2023-11-10 15:14:44.671463
1120  2023-11-10 15:14:44.704038
1121  2023-11-10 15:14:44.735953
1122  2023-11-10 15:14:44.767954
1123  2023-11-10 15:14:44.799814
1124  2023-11-10 15:14:44.832761
1125  2023-11-10 15:14:44.863644
1126  2023-11-10 15:14:44.895558
1127  2023-11-10 15:14:44.927511
1128  2023-11-10 15:14:44.975384
1129  2023-11-10 15:14:45.008258
1130  2023-11-10 15:14:45.040206
1131  2023-11-10 15:14:45.072119
1132  2023-11-10 15:14:45.104001
1133  2023-11-10 15:14:45.135950
1134  2023-11-10 15:14:45.167870
1135  2023-11-10 15:14:45.199785
1136  2023-11-10 15:14:45.231660
1137  2023-11-10 15:14:45.263443
1138  2023-11-10 15:14:45.295428
1139  2023-11-10 15:14:45.327388
1140  2023-11-10 15:14:45.375330
1141  2023-11-10 15:14:45.407373
1142  2023-11-10 15:14:45.439343
1143  2023-11-10 15:14:45.471257
1144  2023-11-10 15:14:45.503232
1145  2023-11-10 15:14:45.536118
1146  2023-11-10 15:14:45.568034
1147  2023-11-10 15:14:45.599970
1148  2023-11-10 15:14:45.631880
1149  2023-11-10 15:14:45.663774
1150  2023-11-10 15:14:45.695657
1151  2023-11-10 15:14:45.727600
1152  2023-11-10 15:14:45.776443
1153  2023-11-10 15:14:45.807389
1154  2023-11-10 15:14:45.840304
1155  2023-11-10 15:14:45.872219
1156  2023-11-10 15:14:45.904142
1157  2023-11-10 15:14:45.936047
1158  2023-11-10 15:14:45.967967
1159  2023-11-10 15:14:45.999875
1160  2023-11-10 15:14:46.031795
1161  2023-11-10 15:14:46.063835
1162  2023-11-10 15:14:46.095804
1163  2023-11-10 15:14:46.127750
1164  2023-11-10 15:14:46.175591
1165  2023-11-10 15:14:46.207657
1166  2023-11-10 15:14:46.239648
1167  2023-11-10 15:14:46.271599
1168  2023-11-10 15:14:46.303476
1169  2023-11-10 15:14:46.335423
1170  2023-11-10 15:14:46.367357
1171  2023-11-10 15:14:46.399267
1172  2023-11-10 15:14:46.432166
1173  2023-11-10 15:14:46.464089
1174  2023-11-10 15:14:46.495997
1175  2023-11-10 15:14:46.527911
1176  2023-11-10 15:14:46.575781
1177  2023-11-10 15:14:46.607662
1178  2023-11-10 15:14:46.639617
1179  2023-11-10 15:14:46.671539
1180  2023-11-10 15:14:46.703443
1181  2023-11-10 15:14:46.735355
1182  2023-11-10 15:14:46.767236
1183  2023-11-10 15:14:46.799187
1184  2023-11-10 15:14:46.832093
1185  2023-11-10 15:14:46.864011
1186  2023-11-10 15:14:46.895892
1187  2023-11-10 15:14:46.927807
1188  2023-11-10 15:14:46.975711
1189  2023-11-10 15:14:47.007633
1190  2023-11-10 15:14:47.039538
1191  2023-11-10 15:14:47.071453
1192  2023-11-10 15:14:47.104368
1193  2023-11-10 15:14:47.136282
1194  2023-11-10 15:14:47.168204
1195  2023-11-10 15:14:47.200109
1196  2023-11-10 15:14:47.232029
1197  2023-11-10 15:14:47.263944
1198  2023-11-10 15:14:47.295823
1199  2023-11-10 15:14:47.327769
1200  2023-11-10 15:14:47.375656
1201  2023-11-10 15:14:47.407561
1202  2023-11-10 15:14:47.439475
1203  2023-11-10 15:14:47.471393
1204  2023-11-10 15:14:47.503299
1205  2023-11-10 15:14:47.536228
1206  2023-11-10 15:14:47.568165
1207  2023-11-10 15:14:47.600044
1208  2023-11-10 15:14:47.631955
1209  2023-11-10 15:14:47.663840
1210  2023-11-10 15:14:47.695955
1211  2023-11-10 15:14:47.727837
1212  2023-11-10 15:14:47.775744
1213  2023-11-10 15:14:47.807652
1214  2023-11-10 15:14:47.839572
1215  2023-11-10 15:14:47.871486
1216  2023-11-10 15:14:47.903402
1217  2023-11-10 15:14:47.935330
1218  2023-11-10 15:14:47.968227
1219  2023-11-10 15:14:48.000157
1220  2023-11-10 15:14:48.032054
1221  2023-11-10 15:14:48.063969
1222  2023-11-10 15:14:48.095853
1223  2023-11-10 15:14:48.127802
1224  2023-11-10 15:14:48.175674
1225  2023-11-10 15:14:48.207603
1226  2023-11-10 15:14:48.239500
1227  2023-11-10 15:14:48.271413
1228  2023-11-10 15:14:48.303329
1229  2023-11-10 15:14:48.335262
1230  2023-11-10 15:14:48.368165
1231  2023-11-10 15:14:48.400042
1232  2023-11-10 15:14:48.431991
1233  2023-11-10 15:14:48.463906
1234  2023-11-10 15:14:48.495815
1235  2023-11-10 15:14:48.543688
1236  2023-11-10 15:14:48.575579
1237  2023-11-10 15:14:48.607528
1238  2023-11-10 15:14:48.639434
1239  2023-11-10 15:14:48.671350
1240  2023-11-10 15:14:48.703262
1241  2023-11-10 15:14:48.735175
1242  2023-11-10 15:14:48.768114
1243  2023-11-10 15:14:48.800003
1244  2023-11-10 15:14:48.831923
1245  2023-11-10 15:14:48.863802
1246  2023-11-10 15:14:48.895715
1247  2023-11-10 15:14:48.943615
1248  2023-11-10 15:14:48.975550
1249  2023-11-10 15:14:49.007449
1250  2023-11-10 15:14:49.039367
1251  2023-11-10 15:14:49.071284
1252  2023-11-10 15:14:49.104193
1253  2023-11-10 15:14:49.136115
1254  2023-11-10 15:14:49.168020
1255  2023-11-10 15:14:49.199936
1256  2023-11-10 15:14:49.231849
1257  2023-11-10 15:14:49.263764
1258  2023-11-10 15:14:49.295729
1259  2023-11-10 15:14:49.343663
1260  2023-11-10 15:14:49.375594
1261  2023-11-10 15:14:49.407505
1262  2023-11-10 15:14:49.439398
1263  2023-11-10 15:14:49.471327
1264  2023-11-10 15:14:49.503240
1265  2023-11-10 15:14:49.535154
1266  2023-11-10 15:14:49.568068
1267  2023-11-10 15:14:49.599979
1268  2023-11-10 15:14:49.631889
1269  2023-11-10 15:14:49.663804
1270  2023-11-10 15:14:49.695718
1271  2023-11-10 15:14:49.743595
1272  2023-11-10 15:14:49.775509
1273  2023-11-10 15:14:49.807422
1274  2023-11-10 15:14:49.839339
1275  2023-11-10 15:14:49.871249
1276  2023-11-10 15:14:49.904157
1277  2023-11-10 15:14:49.936079
1278  2023-11-10 15:14:49.967993
1279  2023-11-10 15:14:49.999908
1280  2023-11-10 15:14:50.031823
1281  2023-11-10 15:14:50.063738
1282  2023-11-10 15:14:50.095666
1283  2023-11-10 15:14:50.143536
1284  2023-11-10 15:14:50.175435
1285  2023-11-10 15:14:50.207355
1286  2023-11-10 15:14:50.239259
1287  2023-11-10 15:14:50.272180
1288  2023-11-10 15:14:50.304100
1289  2023-11-10 15:14:50.336008
1290  2023-11-10 15:14:50.367915
1291  2023-11-10 15:14:50.399832
1292  2023-11-10 15:14:50.431767
1293  2023-11-10 15:14:50.463668
1294  2023-11-10 15:14:50.495583
1295  2023-11-10 15:14:50.543454
1296  2023-11-10 15:14:50.575368
1297  2023-11-10 15:14:50.607282
1298  2023-11-10 15:14:50.640163
1299  2023-11-10 15:14:50.672127
1300  2023-11-10 15:14:50.704034
1301  2023-11-10 15:14:50.735939
1302  2023-11-10 15:14:50.767852
1303  2023-11-10 15:14:50.799766
1304  2023-11-10 15:14:50.831693
1305  2023-11-10 15:14:50.863597
1306  2023-11-10 15:14:50.895536
1307  2023-11-10 15:14:50.943382
1308  2023-11-10 15:14:50.976290
1309  2023-11-10 15:14:51.008209
1310  2023-11-10 15:14:51.040094
1311  2023-11-10 15:14:51.072009
1312  2023-11-10 15:14:51.103971
1313  2023-11-10 15:14:51.135868
1314  2023-11-10 15:14:51.167785
1315  2023-11-10 15:14:51.199668
1316  2023-11-10 15:14:51.232580
1317  2023-11-10 15:14:51.263539
1318  2023-11-10 15:14:51.295444
1319  2023-11-10 15:14:51.344305
1320  2023-11-10 15:14:51.375233
1321  2023-11-10 15:14:51.408143
1322  2023-11-10 15:14:51.439824
1323  2023-11-10 15:14:51.471813
1324  2023-11-10 15:14:51.503767
1325  2023-11-10 15:14:51.535685
1326  2023-11-10 15:14:51.567597
1327  2023-11-10 15:14:51.599472
1328  2023-11-10 15:14:51.631386
1329  2023-11-10 15:14:51.663351
1330  2023-11-10 15:14:51.696213
1331  2023-11-10 15:14:51.744133
1332  2023-11-10 15:14:51.776034
1333  2023-11-10 15:14:51.807959
1334  2023-11-10 15:14:51.839829
1335  2023-11-10 15:14:51.871776
1336  2023-11-10 15:14:51.903683
1337  2023-11-10 15:14:51.935614
1338  2023-11-10 15:14:51.967514
1339  2023-11-10 15:14:51.999402
1340  2023-11-10 15:14:52.031317
1341  2023-11-10 15:14:52.064229
1342  2023-11-10 15:14:52.096144
1343  2023-11-10 15:14:52.144016
1344  2023-11-10 15:14:52.175930
1345  2023-11-10 15:14:52.207886
1346  2023-11-10 15:14:52.239760
1347  2023-11-10 15:14:52.271674
1348  2023-11-10 15:14:52.303589
1349  2023-11-10 15:14:52.335504
1350  2023-11-10 15:14:52.367450
1351  2023-11-10 15:14:52.399333
1352  2023-11-10 15:14:52.431248
1353  2023-11-10 15:14:52.464160
1354  2023-11-10 15:14:52.512032
1355  2023-11-10 15:14:52.543946
1356  2023-11-10 15:14:52.575861
1357  2023-11-10 15:14:52.607776
1358  2023-11-10 15:14:52.639691
1359  2023-11-10 15:14:52.671605
1360  2023-11-10 15:14:52.703520
1361  2023-11-10 15:14:52.736466
1362  2023-11-10 15:14:52.767349
1363  2023-11-10 15:14:52.799264
1364  2023-11-10 15:14:52.832176
1365  2023-11-10 15:14:52.864125
1366  2023-11-10 15:14:52.911998
1367  2023-11-10 15:14:52.943911
1368  2023-11-10 15:14:52.975792
1369  2023-11-10 15:14:53.007707
1370  2023-11-10 15:14:53.039674
1371  2023-11-10 15:14:53.071536
1372  2023-11-10 15:14:53.103450
1373  2023-11-10 15:14:53.135365
1374  2023-11-10 15:14:53.167280
1375  2023-11-10 15:14:53.200192
1376  2023-11-10 15:14:53.232107
1377  2023-11-10 15:14:53.264021
1378  2023-11-10 15:14:53.311893
1379  2023-11-10 15:14:53.343808
1380  2023-11-10 15:14:53.375723
1381  2023-11-10 15:14:53.407637
1382  2023-11-10 15:14:53.439552
1383  2023-11-10 15:14:53.471467
1384  2023-11-10 15:14:53.503381
1385  2023-11-10 15:14:53.535296
1386  2023-11-10 15:14:53.568210
1387  2023-11-10 15:14:53.600138
1388  2023-11-10 15:14:53.632037
1389  2023-11-10 15:14:53.663952
1390  2023-11-10 15:14:53.711824
1391  2023-11-10 15:14:53.743775
1392  2023-11-10 15:14:53.775684
1393  2023-11-10 15:14:53.807568
1394  2023-11-10 15:14:53.839483
1395  2023-11-10 15:14:53.871397
1396  2023-11-10 15:14:53.903345
1397  2023-11-10 15:14:53.935227
1398  2023-11-10 15:14:53.968139
1399  2023-11-10 15:14:54.000054
1400  2023-11-10 15:14:54.032002
1401  2023-11-10 15:14:54.063884
1402  2023-11-10 15:14:54.111787
1403  2023-11-10 15:14:54.143669
1404  2023-11-10 15:14:54.175584
1405  2023-11-10 15:14:54.207499
1406  2023-11-10 15:14:54.239465
1407  2023-11-10 15:14:54.271328
1408  2023-11-10 15:14:54.303243
1409  2023-11-10 15:14:54.336155
1410  2023-11-10 15:14:54.368070
1411  2023-11-10 15:14:54.399984
1412  2023-11-10 15:14:54.432077
1413  2023-11-10 15:14:54.463991
1414  2023-11-10 15:14:54.511863
1415  2023-11-10 15:14:54.543778
1416  2023-11-10 15:14:54.575693
1417  2023-11-10 15:14:54.607607
1418  2023-11-10 15:14:54.639531
1419  2023-11-10 15:14:54.671437
1420  2023-11-10 15:14:54.703351
1421  2023-11-10 15:14:54.735268
1422  2023-11-10 15:14:54.767181
1423  2023-11-10 15:14:54.800093
1424  2023-11-10 15:14:54.832008
1425  2023-11-10 15:14:54.863957
1426  2023-11-10 15:14:54.911794
1427  2023-11-10 15:14:54.944737
1428  2023-11-10 15:14:54.975624
1429  2023-11-10 15:14:55.007538
1430  2023-11-10 15:14:55.039453
1431  2023-11-10 15:14:55.072366
1432  2023-11-10 15:14:55.104319
1433  2023-11-10 15:14:55.135197
1434  2023-11-10 15:14:55.168109
1435  2023-11-10 15:14:55.200058
1436  2023-11-10 15:14:55.231939
1437  2023-11-10 15:14:55.263853
1438  2023-11-10 15:14:55.311725
1439  2023-11-10 15:14:55.343640
1440  2023-11-10 15:14:55.375554
1441  2023-11-10 15:14:55.407508
1442  2023-11-10 15:14:55.439384
1443  2023-11-10 15:14:55.471298
1444  2023-11-10 15:14:55.503213
1445  2023-11-10 15:14:55.536125
1446  2023-11-10 15:14:55.568040
1447  2023-11-10 15:14:55.599954
1448  2023-11-10 15:14:55.631869
1449  2023-11-10 15:14:55.663784
1450  2023-11-10 15:14:55.711656
1451  2023-11-10 15:14:55.743571
1452  2023-11-10 15:14:55.775485
1453  2023-11-10 15:14:55.807400
1454  2023-11-10 15:14:55.839314
1455  2023-11-10 15:14:55.871229
1456  2023-11-10 15:14:55.904141
1457  2023-11-10 15:14:55.936056
1458  2023-11-10 15:14:55.968056
1459  2023-11-10 15:14:55.999970
1460  2023-11-10 15:14:56.031885
1461  2023-11-10 15:14:56.079757
1462  2023-11-10 15:14:56.111672
1463  2023-11-10 15:14:56.143702
1464  2023-11-10 15:14:56.175617
1465  2023-11-10 15:14:56.207531
1466  2023-11-10 15:14:56.239570
1467  2023-11-10 15:14:56.271485
1468  2023-11-10 15:14:56.303400
1469  2023-11-10 15:14:56.335314
1470  2023-11-10 15:14:56.367229
1471  2023-11-10 15:14:56.400141
1472  2023-11-10 15:14:56.432056
1473  2023-11-10 15:14:56.479928
1474  2023-11-10 15:14:56.511842
1475  2023-11-10 15:14:56.543757
1476  2023-11-10 15:14:56.575672
1477  2023-11-10 15:14:56.607586
1478  2023-11-10 15:14:56.639501
1479  2023-11-10 15:14:56.671416
1480  2023-11-10 15:14:56.703363
1481  2023-11-10 15:14:56.736275
1482  2023-11-10 15:14:56.768189
1483  2023-11-10 15:14:56.800104
1484  2023-11-10 15:14:56.832018
1485  2023-11-10 15:14:56.879890
1486  2023-11-10 15:14:56.911805
1487  2023-11-10 15:14:56.943753
1488  2023-11-10 15:14:56.975634
1489  2023-11-10 15:14:57.007549
1490  2023-11-10 15:14:57.039544
1491  2023-11-10 15:14:57.071463
1492  2023-11-10 15:14:57.103480
1493  2023-11-10 15:14:57.135633
1494  2023-11-10 15:14:57.167534
1495  2023-11-10 15:14:57.199473
1496  2023-11-10 15:14:57.231451
1497  2023-11-10 15:14:57.279334
1498  2023-11-10 15:14:57.311206
1499  2023-11-10 15:14:57.344118
1500  2023-11-10 15:14:57.376108
1501  2023-11-10 15:14:57.408055
1502  2023-11-10 15:14:57.440015
1503  2023-11-10 15:14:57.471932
1504  2023-11-10 15:14:57.503847
1505  2023-11-10 15:14:57.535866
1506  2023-11-10 15:14:57.567865
1507  2023-11-10 15:14:57.599864
1508  2023-11-10 15:14:57.631779
1509  2023-11-10 15:14:57.679651
1510  2023-11-10 15:14:57.711574
1511  2023-11-10 15:14:57.743530
1512  2023-11-10 15:14:57.775438
1513  2023-11-10 15:14:57.807310
1514  2023-11-10 15:14:57.839224
1515  2023-11-10 15:14:57.872137
1516  2023-11-10 15:14:57.904132
1517  2023-11-10 15:14:57.935245
1518  2023-11-10 15:14:57.968157
1519  2023-11-10 15:14:58.000188
1520  2023-11-10 15:14:58.032102
1521  2023-11-10 15:14:58.079974
1522  2023-11-10 15:14:58.111889
1523  2023-11-10 15:14:58.143803
1524  2023-11-10 15:14:58.175718
1525  2023-11-10 15:14:58.207633
1526  2023-11-10 15:14:58.239547
1527  2023-11-10 15:14:58.271462
1528  2023-11-10 15:14:58.303450
1529  2023-11-10 15:14:58.335502
1530  2023-11-10 15:14:58.367451
1531  2023-11-10 15:14:58.399519
1532  2023-11-10 15:14:58.431433
1533  2023-11-10 15:14:58.479305
1534  2023-11-10 15:14:58.511339
1535  2023-11-10 15:14:58.543253
1536  2023-11-10 15:14:58.576167
1537  2023-11-10 15:14:58.607201
1538  2023-11-10 15:14:58.640113
1539  2023-11-10 15:14:58.672028
1540  2023-11-10 15:14:58.703942
1541  2023-11-10 15:14:58.735857
1542  2023-11-10 15:14:58.767780
1543  2023-11-10 15:14:58.799808
1544  2023-11-10 15:14:58.831723
1545  2023-11-10 15:14:58.879595
1546  2023-11-10 15:14:58.911540
1547  2023-11-10 15:14:58.943431
1548  2023-11-10 15:14:58.975377
1549  2023-11-10 15:14:59.007291
1550  2023-11-10 15:14:59.039206
1551  2023-11-10 15:14:59.072153
1552  2023-11-10 15:14:59.104033
1553  2023-11-10 15:14:59.135947
1554  2023-11-10 15:14:59.167862
1555  2023-11-10 15:14:59.199809
1556  2023-11-10 15:14:59.231691
1557  2023-11-10 15:14:59.279564
1558  2023-11-10 15:14:59.311603
1559  2023-11-10 15:14:59.343518
1560  2023-11-10 15:14:59.375433
1561  2023-11-10 15:14:59.407506
1562  2023-11-10 15:14:59.439491
1563  2023-11-10 15:14:59.471406
1564  2023-11-10 15:14:59.503321
1565  2023-11-10 15:14:59.536233
1566  2023-11-10 15:14:59.568148
1567  2023-11-10 15:14:59.600062
1568  2023-11-10 15:14:59.631977
1569  2023-11-10 15:14:59.679849
1570  2023-11-10 15:14:59.711763
1571  2023-11-10 15:14:59.743789
1572  2023-11-10 15:14:59.775703
1573  2023-11-10 15:14:59.807618
1574  2023-11-10 15:14:59.839533
1575  2023-11-10 15:14:59.871447
1576  2023-11-10 15:14:59.903362
1577  2023-11-10 15:14:59.936279
1578  2023-11-10 15:14:59.968189
1579  2023-11-10 15:15:00.000109
1580  2023-11-10 15:15:00.047975
1581  2023-11-10 15:15:00.080922
1582  2023-11-10 15:15:00.111976
1583  2023-11-10 15:15:00.144905
1584  2023-11-10 15:15:00.176821
1585  2023-11-10 15:15:00.208751
1586  2023-11-10 15:15:00.239621
1587  2023-11-10 15:15:00.271537
1588  2023-11-10 15:15:00.304479
1589  2023-11-10 15:15:00.336377
1590  2023-11-10 15:15:00.368278
1591  2023-11-10 15:15:00.400247
1592  2023-11-10 15:15:00.448068
1593  2023-11-10 15:15:00.480065
1594  2023-11-10 15:15:00.512008
1595  2023-11-10 15:15:00.543922
1596  2023-11-10 15:15:00.575850
1597  2023-11-10 15:15:00.607880
1598  2023-11-10 15:15:00.639569
1599  2023-11-10 15:15:00.671484
1600  2023-11-10 15:15:00.703424
1601  2023-11-10 15:15:00.736312
1602  2023-11-10 15:15:00.768226
1603  2023-11-10 15:15:00.800141
1604  2023-11-10 15:15:00.848692
1605  2023-11-10 15:15:00.880613
1606  2023-11-10 15:15:00.911382
1607  2023-11-10 15:15:00.943300
1608  2023-11-10 15:15:00.975256
1609  2023-11-10 15:15:01.008167
1610  2023-11-10 15:15:01.040133
1611  2023-11-10 15:15:01.071998
1612  2023-11-10 15:15:01.103911
1613  2023-11-10 15:15:01.135867
1614  2023-11-10 15:15:01.168771
1615  2023-11-10 15:15:01.200683
1616  2023-11-10 15:15:01.248562
1617  2023-11-10 15:15:01.280472
1618  2023-11-10 15:15:01.312355
1619  2023-11-10 15:15:01.343302
1620  2023-11-10 15:15:01.376216
1621  2023-11-10 15:15:01.408124
1622  2023-11-10 15:15:01.440045
1623  2023-11-10 15:15:01.471960
1624  2023-11-10 15:15:01.503843
1625  2023-11-10 15:15:01.535793
1626  2023-11-10 15:15:01.567672
1627  2023-11-10 15:15:01.599588
1628  2023-11-10 15:15:01.647491
1629  2023-11-10 15:15:01.680404
1630  2023-11-10 15:15:01.712317
1631  2023-11-10 15:15:01.744201
1632  2023-11-10 15:15:01.776120
1633  2023-11-10 15:15:01.808059
1634  2023-11-10 15:15:01.839978
1635  2023-11-10 15:15:01.871883
1636  2023-11-10 15:15:01.903803
1637  2023-11-10 15:15:01.935690
1638  2023-11-10 15:15:01.967605
1639  2023-11-10 15:15:01.999548
1640  2023-11-10 15:15:02.047430
1641  2023-11-10 15:15:02.079347
1642  2023-11-10 15:15:02.112215
1643  2023-11-10 15:15:02.143172
1644  2023-11-10 15:15:02.176099
1645  2023-11-10 15:15:02.208005
1646  2023-11-10 15:15:02.239939
1647  2023-11-10 15:15:02.271834
1648  2023-11-10 15:15:02.303705
1649  2023-11-10 15:15:02.335648
1650  2023-11-10 15:15:02.367798
1651  2023-11-10 15:15:02.399847
1652  2023-11-10 15:15:02.447724
1653  2023-11-10 15:15:02.479660
1654  2023-11-10 15:15:02.511540
1655  2023-11-10 15:15:02.543456
1656  2023-11-10 15:15:02.575368
1657  2023-11-10 15:15:02.607283
1658  2023-11-10 15:15:02.639198
1659  2023-11-10 15:15:02.672125
1660  2023-11-10 15:15:02.704025
1661  2023-11-10 15:15:02.735938
1662  2023-11-10 15:15:02.767852
1663  2023-11-10 15:15:02.799771
1664  2023-11-10 15:15:02.847608
1665  2023-11-10 15:15:02.879566
1666  2023-11-10 15:15:02.911473
1667  2023-11-10 15:15:02.943404
1668  2023-11-10 15:15:02.975298
1669  2023-11-10 15:15:03.007212
1670  2023-11-10 15:15:03.040146
1671  2023-11-10 15:15:03.072011
1672  2023-11-10 15:15:03.103957
1673  2023-11-10 15:15:03.135869
1674  2023-11-10 15:15:03.167690
1675  2023-11-10 15:15:03.199598
1676  2023-11-10 15:15:03.247503
1677  2023-11-10 15:15:03.279416
1678  2023-11-10 15:15:03.311398
1679  2023-11-10 15:15:03.343373
1680  2023-11-10 15:15:03.375287
1681  2023-11-10 15:15:03.407200
1682  2023-11-10 15:15:03.440108
1683  2023-11-10 15:15:03.472027
1684  2023-11-10 15:15:03.503940
1685  2023-11-10 15:15:03.535859
1686  2023-11-10 15:15:03.567772
1687  2023-11-10 15:15:03.615641
1688  2023-11-10 15:15:03.647558
1689  2023-11-10 15:15:03.679543
1690  2023-11-10 15:15:03.711491
1691  2023-11-10 15:15:03.743541
1692  2023-11-10 15:15:03.775454
1693  2023-11-10 15:15:03.807378
1694  2023-11-10 15:15:03.839345
1695  2023-11-10 15:15:03.872322
1696  2023-11-10 15:15:03.904242
1697  2023-11-10 15:15:03.936117
1698  2023-11-10 15:15:03.968077
1699  2023-11-10 15:15:04.015935
1700  2023-11-10 15:15:04.047818
1701  2023-11-10 15:15:04.079764
1702  2023-11-10 15:15:04.111682
1703  2023-11-10 15:15:04.143593
1704  2023-11-10 15:15:04.175477
1705  2023-11-10 15:15:04.207426
1706  2023-11-10 15:15:04.239339
1707  2023-11-10 15:15:04.271282
1708  2023-11-10 15:15:04.304173
1709  2023-11-10 15:15:04.336084
1710  2023-11-10 15:15:04.368001
1711  2023-11-10 15:15:04.415867
1712  2023-11-10 15:15:04.447782
1713  2023-11-10 15:15:04.479695
1714  2023-11-10 15:15:04.511614
1715  2023-11-10 15:15:04.543528
1716  2023-11-10 15:15:04.575439
1717  2023-11-10 15:15:04.607357
1718  2023-11-10 15:15:04.639270
1719  2023-11-10 15:15:04.672197
1720  2023-11-10 15:15:04.704101
1721  2023-11-10 15:15:04.736009
1722  2023-11-10 15:15:04.767924
1723  2023-11-10 15:15:04.815798
1724  2023-11-10 15:15:04.847680
1725  2023-11-10 15:15:04.880593
1726  2023-11-10 15:15:04.911544
1727  2023-11-10 15:15:04.943454
1728  2023-11-10 15:15:04.975368
1729  2023-11-10 15:15:05.007290
1730  2023-11-10 15:15:05.039202
1731  2023-11-10 15:15:05.072111
1732  2023-11-10 15:15:05.104020
1733  2023-11-10 15:15:05.135967
1734  2023-11-10 15:15:05.167857
1735  2023-11-10 15:15:05.215729
1736  2023-11-10 15:15:05.247665
1737  2023-11-10 15:15:05.279572
1738  2023-11-10 15:15:05.311477
1739  2023-11-10 15:15:05.343387
1740  2023-11-10 15:15:05.375301
1741  2023-11-10 15:15:05.408182
1742  2023-11-10 15:15:05.440125
1743  2023-11-10 15:15:05.472043
1744  2023-11-10 15:15:05.504157
1745  2023-11-10 15:15:05.536088
1746  2023-11-10 15:15:05.567997
1747  2023-11-10 15:15:05.615859
1748  2023-11-10 15:15:05.647776
1749  2023-11-10 15:15:05.679658
1750  2023-11-10 15:15:05.711612
1751  2023-11-10 15:15:05.743673
1752  2023-11-10 15:15:05.775569
1753  2023-11-10 15:15:05.807480
1754  2023-11-10 15:15:05.839393
1755  2023-11-10 15:15:05.871307
1756  2023-11-10 15:15:05.903233
1757  2023-11-10 15:15:05.936155
1758  2023-11-10 15:15:05.968073
1759  2023-11-10 15:15:06.015924
1760  2023-11-10 15:15:06.047838
1761  2023-11-10 15:15:06.079759
1762  2023-11-10 15:15:06.111640
1763  2023-11-10 15:15:06.143585
1764  2023-11-10 15:15:06.175501
1765  2023-11-10 15:15:06.207483
1766  2023-11-10 15:15:06.239397
1767  2023-11-10 15:15:06.271432
1768  2023-11-10 15:15:06.303349
1769  2023-11-10 15:15:06.335322
1770  2023-11-10 15:15:06.367240
1771  2023-11-10 15:15:06.416137
1772  2023-11-10 15:15:06.448030
1773  2023-11-10 15:15:06.479903
1774  2023-11-10 15:15:06.511847
1775  2023-11-10 15:15:06.543764
1776  2023-11-10 15:15:06.575681
1777  2023-11-10 15:15:06.607593
1778  2023-11-10 15:15:06.639509
1779  2023-11-10 15:15:06.671427
1780  2023-11-10 15:15:06.703337
1781  2023-11-10 15:15:06.736251
1782  2023-11-10 15:15:06.768134
1783  2023-11-10 15:15:06.816039
1784  2023-11-10 15:15:06.847958
1785  2023-11-10 15:15:06.879865
1786  2023-11-10 15:15:06.911780
1787  2023-11-10 15:15:06.943695
1788  2023-11-10 15:15:06.975697
1789  2023-11-10 15:15:07.007615
1790  2023-11-10 15:15:07.039539
1791  2023-11-10 15:15:07.071448
1792  2023-11-10 15:15:07.103380
1793  2023-11-10 15:15:07.135275
1794  2023-11-10 15:15:07.168199
1795  2023-11-10 15:15:07.216054
1796  2023-11-10 15:15:07.247971
1797  2023-11-10 15:15:07.279853
1798  2023-11-10 15:15:07.311767
1799  2023-11-10 15:15:07.343714
1800  2023-11-10 15:15:07.375628
1801  2023-11-10 15:15:07.407545
1802  2023-11-10 15:15:07.439460
1803  2023-11-10 15:15:07.471369
1804  2023-11-10 15:15:07.503292
1805  2023-11-10 15:15:07.536198
1806  2023-11-10 15:15:07.584083
1807  2023-11-10 15:15:07.615992
1808  2023-11-10 15:15:07.647903
1809  2023-11-10 15:15:07.679783
1810  2023-11-10 15:15:07.711698
1811  2023-11-10 15:15:07.743668
1812  2023-11-10 15:15:07.775554
1813  2023-11-10 15:15:07.807473
1814  2023-11-10 15:15:07.839388
1815  2023-11-10 15:15:07.871308
1816  2023-11-10 15:15:07.903220
1817  2023-11-10 15:15:07.936133
1818  2023-11-10 15:15:07.984092
1819  2023-11-10 15:15:08.015921
1820  2023-11-10 15:15:08.047836
1821  2023-11-10 15:15:08.079714
1822  2023-11-10 15:15:08.111629
1823  2023-11-10 15:15:08.143576
1824  2023-11-10 15:15:08.175492
1825  2023-11-10 15:15:08.207407
1826  2023-11-10 15:15:08.239320
1827  2023-11-10 15:15:08.272228
1828  2023-11-10 15:15:08.304148
1829  2023-11-10 15:15:08.336076
1830  2023-11-10 15:15:08.383934
1831  2023-11-10 15:15:08.415847
1832  2023-11-10 15:15:08.447766
1833  2023-11-10 15:15:08.479645
1834  2023-11-10 15:15:08.511560
1835  2023-11-10 15:15:08.543509
1836  2023-11-10 15:15:08.575424
1837  2023-11-10 15:15:08.607337
1838  2023-11-10 15:15:08.639218
1839  2023-11-10 15:15:08.672130
1840  2023-11-10 15:15:08.704045
1841  2023-11-10 15:15:08.735960
1842  2023-11-10 15:15:08.783832
1843  2023-11-10 15:15:08.815747
1844  2023-11-10 15:15:08.847816
1845  2023-11-10 15:15:08.879731
1846  2023-11-10 15:15:08.911805
1847  2023-11-10 15:15:08.943720
1848  2023-11-10 15:15:08.975635
1849  2023-11-10 15:15:09.007550
1850  2023-11-10 15:15:09.039504
1851  2023-11-10 15:15:09.072376
1852  2023-11-10 15:15:09.104317
1853  2023-11-10 15:15:09.136205
1854  2023-11-10 15:15:09.184078
1855  2023-11-10 15:15:09.215992
1856  2023-11-10 15:15:09.247907
1857  2023-11-10 15:15:09.279868
1858  2023-11-10 15:15:09.311738
1859  2023-11-10 15:15:09.343651
1860  2023-11-10 15:15:09.375565
1861  2023-11-10 15:15:09.407519
1862  2023-11-10 15:15:09.439429
1863  2023-11-10 15:15:09.471309
1864  2023-11-10 15:15:09.503224
1865  2023-11-10 15:15:09.535171
1866  2023-11-10 15:15:09.584008
1867  2023-11-10 15:15:09.615961
1868  2023-11-10 15:15:09.647863
1869  2023-11-10 15:15:09.679752
1870  2023-11-10 15:15:09.711667
1871  2023-11-10 15:15:09.743621
1872  2023-11-10 15:15:09.775538
1873  2023-11-10 15:15:09.807411
1874  2023-11-10 15:15:09.839326
1875  2023-11-10 15:15:09.871274
1876  2023-11-10 15:15:09.903188
1877  2023-11-10 15:15:09.936067
1878  2023-11-10 15:15:09.983970
1879  2023-11-10 15:15:10.015853
1880  2023-11-10 15:15:10.047768
1881  2023-11-10 15:15:10.079709
1882  2023-11-10 15:15:10.111631
1883  2023-11-10 15:15:10.143512
1884  2023-11-10 15:15:10.175427
1885  2023-11-10 15:15:10.207349
1886  2023-11-10 15:15:10.240262
1887  2023-11-10 15:15:10.272181
1888  2023-11-10 15:15:10.304091
1889  2023-11-10 15:15:10.336085
1890  2023-11-10 15:15:10.383957
1891  2023-11-10 15:15:10.415872
1892  2023-11-10 15:15:10.447787
1893  2023-11-10 15:15:10.479701
1894  2023-11-10 15:15:10.511616
1895  2023-11-10 15:15:10.543531
1896  2023-11-10 15:15:10.575446
1897  2023-11-10 15:15:10.607360
1898  2023-11-10 15:15:10.639275
1899  2023-11-10 15:15:10.671189
1900  2023-11-10 15:15:10.704102
1901  2023-11-10 15:15:10.736016
1902  2023-11-10 15:15:10.784073
1903  2023-11-10 15:15:10.816032
1904  2023-11-10 15:15:10.847946
1905  2023-11-10 15:15:10.879861
1906  2023-11-10 15:15:10.911776
1907  2023-11-10 15:15:10.943691
1908  2023-11-10 15:15:10.975605
1909  2023-11-10 15:15:11.007520
1910  2023-11-10 15:15:11.039435
1911  2023-11-10 15:15:11.071433
1912  2023-11-10 15:15:11.103394
1913  2023-11-10 15:15:11.151360
1914  2023-11-10 15:15:11.183313
1915  2023-11-10 15:15:11.215228
1916  2023-11-10 15:15:11.248141
1917  2023-11-10 15:15:11.280088
1918  2023-11-10 15:15:11.311970
1919  2023-11-10 15:15:11.343884
1920  2023-11-10 15:15:11.375799
1921  2023-11-10 15:15:11.407744
1922  2023-11-10 15:15:11.439628
1923  2023-11-10 15:15:11.471265
1924  2023-11-10 15:15:11.504191
1925  2023-11-10 15:15:11.552049
1926  2023-11-10 15:15:11.583964
1927  2023-11-10 15:15:11.615879
1928  2023-11-10 15:15:11.647793
1929  2023-11-10 15:15:11.679708
1930  2023-11-10 15:15:11.711779
1931  2023-11-10 15:15:11.743694
1932  2023-11-10 15:15:11.775609
1933  2023-11-10 15:15:11.807523
1934  2023-11-10 15:15:11.839438
1935  2023-11-10 15:15:11.871353
1936  2023-11-10 15:15:11.903395
1937  2023-11-10 15:15:11.951267
1938  2023-11-10 15:15:11.984179
1939  2023-11-10 15:15:12.016093
1940  2023-11-10 15:15:12.048008
1941  2023-11-10 15:15:12.079922
1942  2023-11-10 15:15:12.111837
1943  2023-11-10 15:15:12.143752
1944  2023-11-10 15:15:12.175671
1945  2023-11-10 15:15:12.207581
1946  2023-11-10 15:15:12.239496
1947  2023-11-10 15:15:12.271410
1948  2023-11-10 15:15:12.303325
1949  2023-11-10 15:15:12.351197
1950  2023-11-10 15:15:12.384109
1951  2023-11-10 15:15:12.416025
1952  2023-11-10 15:15:12.447940
1953  2023-11-10 15:15:12.479854
1954  2023-11-10 15:15:12.511769
1955  2023-11-10 15:15:12.543684
1956  2023-11-10 15:15:12.575599
1957  2023-11-10 15:15:12.608524
1958  2023-11-10 15:15:12.639428
1959  2023-11-10 15:15:12.672340
1960  2023-11-10 15:15:12.703257
1961  2023-11-10 15:15:12.752127
1962  2023-11-10 15:15:12.784043
1963  2023-11-10 15:15:12.815961
1964  2023-11-10 15:15:12.847871
1965  2023-11-10 15:15:12.879785
1966  2023-11-10 15:15:12.911874
1967  2023-11-10 15:15:12.943828
1968  2023-11-10 15:15:12.975703
1969  2023-11-10 15:15:13.007618
1970  2023-11-10 15:15:13.039533
1971  2023-11-10 15:15:13.071519
1972  2023-11-10 15:15:13.103451
1973  2023-11-10 15:15:13.151365
1974  2023-11-10 15:15:13.183309
1975  2023-11-10 15:15:13.215378
1976  2023-11-10 15:15:13.247293
1977  2023-11-10 15:15:13.280213
1978  2023-11-10 15:15:13.312167
1979  2023-11-10 15:15:13.344035
1980  2023-11-10 15:15:13.375949
1981  2023-11-10 15:15:13.407864
1982  2023-11-10 15:15:13.440034
1983  2023-11-10 15:15:13.472020
1984  2023-11-10 15:15:13.503935
1985  2023-11-10 15:15:13.551806
1986  2023-11-10 15:15:13.583721
1987  2023-11-10 15:15:13.615668
1988  2023-11-10 15:15:13.647689
1989  2023-11-10 15:15:13.679652
1990  2023-11-10 15:15:13.711566
1991  2023-11-10 15:15:13.743545
1992  2023-11-10 15:15:13.775428
1993  2023-11-10 15:15:13.807310
1994  2023-11-10 15:15:13.839225
1995  2023-11-10 15:15:13.872137
1996  2023-11-10 15:15:13.904052
1997  2023-11-10 15:15:13.951924
1998  2023-11-10 15:15:13.983838
1999  2023-11-10 15:15:14.015753
2000  2023-11-10 15:15:14.047668
2001  2023-11-10 15:15:14.079583
2002  2023-11-10 15:15:14.111691
2003  2023-11-10 15:15:14.143606
2004  2023-11-10 15:15:14.175524
2005  2023-11-10 15:15:14.207435
2006  2023-11-10 15:15:14.239350
2007  2023-11-10 15:15:14.271264
2008  2023-11-10 15:15:14.304177
2009  2023-11-10 15:15:14.352049
2010  2023-11-10 15:15:14.383963
2011  2023-11-10 15:15:14.415878
2012  2023-11-10 15:15:14.447792
2013  2023-11-10 15:15:14.479707
2014  2023-11-10 15:15:14.511628
2015  2023-11-10 15:15:14.543537
2016  2023-11-10 15:15:14.575451
2017  2023-11-10 15:15:14.608365
2018  2023-11-10 15:15:14.639387
2019  2023-11-10 15:15:14.672299
2020  2023-11-10 15:15:14.704214
2021  2023-11-10 15:15:14.752086
2022  2023-11-10 15:15:14.784000
2023  2023-11-10 15:15:14.815958
2024  2023-11-10 15:15:14.847830
2025  2023-11-10 15:15:14.879744
2026  2023-11-10 15:15:14.911659
2027  2023-11-10 15:15:14.943604
2028  2023-11-10 15:15:14.975488
2029  2023-11-10 15:15:15.007403
2030  2023-11-10 15:15:15.039318
2031  2023-11-10 15:15:15.072263
2032  2023-11-10 15:15:15.120137
2033  2023-11-10 15:15:15.152058
2034  2023-11-10 15:15:15.183962
2035  2023-11-10 15:15:15.215846
2036  2023-11-10 15:15:15.247803
2037  2023-11-10 15:15:15.279713
2038  2023-11-10 15:15:15.311753
2039  2023-11-10 15:15:15.343667
2040  2023-11-10 15:15:15.375582
2041  2023-11-10 15:15:15.407497
2042  2023-11-10 15:15:15.439411
2043  2023-11-10 15:15:15.471326
2044  2023-11-10 15:15:15.519198
2045  2023-11-10 15:15:15.552110
2046  2023-11-10 15:15:15.584025
2047  2023-11-10 15:15:15.616099
2048  2023-11-10 15:15:15.648015
2049  2023-11-10 15:15:15.679928
2050  2023-11-10 15:15:15.711843
2051  2023-11-10 15:15:15.743873
2052  2023-11-10 15:15:15.775788
2053  2023-11-10 15:15:15.807702
2054  2023-11-10 15:15:15.839617
2055  2023-11-10 15:15:15.871692
2056  2023-11-10 15:15:15.919667
2057  2023-11-10 15:15:15.951577
2058  2023-11-10 15:15:15.983502
2059  2023-11-10 15:15:16.015431
2060  2023-11-10 15:15:16.049341
2061  2023-11-10 15:15:16.080258
2062  2023-11-10 15:15:16.112172
2063  2023-11-10 15:15:16.145143
2064  2023-11-10 15:15:16.177042
2065  2023-11-10 15:15:16.208962
2066  2023-11-10 15:15:16.239831
2067  2023-11-10 15:15:16.272972
2068  2023-11-10 15:15:16.320789
2069  2023-11-10 15:15:16.352704
2070  2023-11-10 15:15:16.384617
2071  2023-11-10 15:15:16.416539
2072  2023-11-10 15:15:16.448420
2073  2023-11-10 15:15:16.480359
2074  2023-11-10 15:15:16.513271
2075  2023-11-10 15:15:16.544198
2076  2023-11-10 15:15:16.576266
2077  2023-11-10 15:15:16.608197
2078  2023-11-10 15:15:16.640070
2079  2023-11-10 15:15:16.671984
2080  2023-11-10 15:15:16.719857
2081  2023-11-10 15:15:16.751772
2082  2023-11-10 15:15:16.784723
2083  2023-11-10 15:15:16.815648
2084  2023-11-10 15:15:16.847687
2085  2023-11-10 15:15:16.879602
2086  2023-11-10 15:15:16.912012
2087  2023-11-10 15:15:16.943899
2088  2023-11-10 15:15:16.975918
2089  2023-11-10 15:15:17.007835
2090  2023-11-10 15:15:17.039750
2091  2023-11-10 15:15:17.071803
2092  2023-11-10 15:15:17.119674
2093  2023-11-10 15:15:17.151597
2094  2023-11-10 15:15:17.183515
2095  2023-11-10 15:15:17.216383
2096  2023-11-10 15:15:17.247301
2097  2023-11-10 15:15:17.280213
2098  2023-11-10 15:15:17.312130
2099  2023-11-10 15:15:17.344074
2100  2023-11-10 15:15:17.375987
2101  2023-11-10 15:15:17.407951
2102  2023-11-10 15:15:17.439904
2103  2023-11-10 15:15:17.472029
2104  2023-11-10 15:15:17.520886
2105  2023-11-10 15:15:17.552789
2106  2023-11-10 15:15:17.583709
2107  2023-11-10 15:15:17.615621
2108  2023-11-10 15:15:17.649567
2109  2023-11-10 15:15:17.680418
2110  2023-11-10 15:15:17.712364
2111  2023-11-10 15:15:17.743481
2112  2023-11-10 15:15:17.776392
2113  2023-11-10 15:15:17.808306
2114  2023-11-10 15:15:17.840290
2115  2023-11-10 15:15:17.873301
2116  2023-11-10 15:15:17.920311
2117  2023-11-10 15:15:17.953221
2118  2023-11-10 15:15:17.984101
2119  2023-11-10 15:15:18.016014
2120  2023-11-10 15:15:18.047962
2121  2023-11-10 15:15:18.080883
2122  2023-11-10 15:15:18.111853
2123  2023-11-10 15:15:18.143766
2124  2023-11-10 15:15:18.175761
2125  2023-11-10 15:15:18.207721
2126  2023-11-10 15:15:18.240629
2127  2023-11-10 15:15:18.272539
2128  2023-11-10 15:15:18.320418
2129  2023-11-10 15:15:18.352334
2130  2023-11-10 15:15:18.384236
2131  2023-11-10 15:15:18.416185
2132  2023-11-10 15:15:18.448148
2133  2023-11-10 15:15:18.480067
2134  2023-11-10 15:15:18.511980
2135  2023-11-10 15:15:18.543863
2136  2023-11-10 15:15:18.575808
2137  2023-11-10 15:15:18.607736
2138  2023-11-10 15:15:18.639770
2139  2023-11-10 15:15:18.687763
2140  2023-11-10 15:15:18.719648
2141  2023-11-10 15:15:18.751596
2142  2023-11-10 15:15:18.783556
2143  2023-11-10 15:15:18.815480
2144  2023-11-10 15:15:18.847385
2145  2023-11-10 15:15:18.879311
2146  2023-11-10 15:15:18.912215
2147  2023-11-10 15:15:18.944129
2148  2023-11-10 15:15:18.976008
2149  2023-11-10 15:15:19.007968
2150  2023-11-10 15:15:19.039874
2151  2023-11-10 15:15:19.087709
2152  2023-11-10 15:15:19.119666
2153  2023-11-10 15:15:19.151575
2154  2023-11-10 15:15:19.184486
2155  2023-11-10 15:15:19.216365
2156  2023-11-10 15:15:19.248406
2157  2023-11-10 15:15:19.280373
2158  2023-11-10 15:15:19.312268
2159  2023-11-10 15:15:19.344152
2160  2023-11-10 15:15:19.376139
2161  2023-11-10 15:15:19.408127
2162  2023-11-10 15:15:19.440044
2163  2023-11-10 15:15:19.488001
2164  2023-11-10 15:15:19.519903
2165  2023-11-10 15:15:19.551793
2166  2023-11-10 15:15:19.583740
2167  2023-11-10 15:15:19.615783
2168  2023-11-10 15:15:19.647692
2169  2023-11-10 15:15:19.679622
2170  2023-11-10 15:15:19.711534
2171  2023-11-10 15:15:19.743506
2172  2023-11-10 15:15:19.775410
2173  2023-11-10 15:15:19.807325
2174  2023-11-10 15:15:19.840247
2175  2023-11-10 15:15:19.888128
2176  2023-11-10 15:15:19.920022
2177  2023-11-10 15:15:19.951948
2178  2023-11-10 15:15:19.983851
2179  2023-11-10 15:15:20.015735
2180  2023-11-10 15:15:20.047650
2181  2023-11-10 15:15:20.079603
2182  2023-11-10 15:15:20.111520
2183  2023-11-10 15:15:20.143438
2184  2023-11-10 15:15:20.175340
2185  2023-11-10 15:15:20.207256
2186  2023-11-10 15:15:20.240172
2187  2023-11-10 15:15:20.288039
2188  2023-11-10 15:15:20.319955
2189  2023-11-10 15:15:20.351867
2190  2023-11-10 15:15:20.383793
2191  2023-11-10 15:15:20.415697
2192  2023-11-10 15:15:20.447612
2193  2023-11-10 15:15:20.479544
2194  2023-11-10 15:15:20.511443
2195  2023-11-10 15:15:20.543351
2196  2023-11-10 15:15:20.575271
2197  2023-11-10 15:15:20.608184
2198  2023-11-10 15:15:20.640099
2199  2023-11-10 15:15:20.687938
2200  2023-11-10 15:15:20.719885
2201  2023-11-10 15:15:20.751800
2202  2023-11-10 15:15:20.783715
2203  2023-11-10 15:15:20.815643
2204  2023-11-10 15:15:20.847547
2205  2023-11-10 15:15:20.879473
2206  2023-11-10 15:15:20.911374
2207  2023-11-10 15:15:20.943295
2208  2023-11-10 15:15:20.975202
2209  2023-11-10 15:15:21.008119
2210  2023-11-10 15:15:21.040029
2211  2023-11-10 15:15:21.087869
2212  2023-11-10 15:15:21.119814
2213  2023-11-10 15:15:21.151728
2214  2023-11-10 15:15:21.183675
2215  2023-11-10 15:15:21.215559
2216  2023-11-10 15:15:21.247472
2217  2023-11-10 15:15:21.279525
2218  2023-11-10 15:15:21.311431
2219  2023-11-10 15:15:21.343350
2220  2023-11-10 15:15:21.375262
2221  2023-11-10 15:15:21.407174
2222  2023-11-10 15:15:21.440104
2223  2023-11-10 15:15:21.487928
2224  2023-11-10 15:15:21.519843
2225  2023-11-10 15:15:21.551793
2226  2023-11-10 15:15:21.583728
2227  2023-11-10 15:15:21.615637
2228  2023-11-10 15:15:21.647502
2229  2023-11-10 15:15:21.680414
2230  2023-11-10 15:15:21.711368
2231  2023-11-10 15:15:21.744255
2232  2023-11-10 15:15:21.776188
2233  2023-11-10 15:15:21.808105
2234  2023-11-10 15:15:21.840011
2235  2023-11-10 15:15:21.887859
2236  2023-11-10 15:15:21.919774
2237  2023-11-10 15:15:21.951720
2238  2023-11-10 15:15:21.983649
2239  2023-11-10 15:15:22.015554
2240  2023-11-10 15:15:22.047432
2241  2023-11-10 15:15:22.080376
2242  2023-11-10 15:15:22.111294
2243  2023-11-10 15:15:22.144211
2244  2023-11-10 15:15:22.176119
2245  2023-11-10 15:15:22.208003
2246  2023-11-10 15:15:22.239944
2247  2023-11-10 15:15:22.287820
2248  2023-11-10 15:15:22.319728
2249  2023-11-10 15:15:22.351668
2250  2023-11-10 15:15:22.383566
2251  2023-11-10 15:15:22.415492
2252  2023-11-10 15:15:22.447396
2253  2023-11-10 15:15:22.479318
2254  2023-11-10 15:15:22.511229
2255  2023-11-10 15:15:22.544165
2256  2023-11-10 15:15:22.576051
2257  2023-11-10 15:15:22.607960
2258  2023-11-10 15:15:22.655833
2259  2023-11-10 15:15:22.687758
2260  2023-11-10 15:15:22.719667
2261  2023-11-10 15:15:22.751585
2262  2023-11-10 15:15:22.783497
2263  2023-11-10 15:15:22.816414
2264  2023-11-10 15:15:22.847294
2265  2023-11-10 15:15:22.880217
2266  2023-11-10 15:15:22.912163
2267  2023-11-10 15:15:22.944064
2268  2023-11-10 15:15:22.975986
2269  2023-11-10 15:15:23.007889
2270  2023-11-10 15:15:23.055768
2271  2023-11-10 15:15:23.087683
2272  2023-11-10 15:15:23.119597
2273  2023-11-10 15:15:23.151544
2274  2023-11-10 15:15:23.183439
2275  2023-11-10 15:15:23.216345
2276  2023-11-10 15:15:23.247258
2277  2023-11-10 15:15:23.280165
2278  2023-11-10 15:15:23.312084
2279  2023-11-10 15:15:23.343990
2280  2023-11-10 15:15:23.375915
2281  2023-11-10 15:15:23.407828
2282  2023-11-10 15:15:23.455699
2283  2023-11-10 15:15:23.487614
2284  2023-11-10 15:15:23.519543
2285  2023-11-10 15:15:23.551411
2286  2023-11-10 15:15:23.584324
2287  2023-11-10 15:15:23.616238
2288  2023-11-10 15:15:23.647190
2289  2023-11-10 15:15:23.680067
2290  2023-11-10 15:15:23.712007
2291  2023-11-10 15:15:23.743929
2292  2023-11-10 15:15:23.775812
2293  2023-11-10 15:15:23.807753
2294  2023-11-10 15:15:23.855637
2295  2023-11-10 15:15:23.887554
2296  2023-11-10 15:15:23.920426
2297  2023-11-10 15:15:23.951377
2298  2023-11-10 15:15:23.983289
2299  2023-11-10 15:15:24.016201
2300  2023-11-10 15:15:24.048117
2301  2023-11-10 15:15:24.080000
2302  2023-11-10 15:15:24.111946
2303  2023-11-10 15:15:24.143859
2304  2023-11-10 15:15:24.175799
2305  2023-11-10 15:15:24.207713
2306  2023-11-10 15:15:24.255664
2307  2023-11-10 15:15:24.287577
2308  2023-11-10 15:15:24.319510
2309  2023-11-10 15:15:24.351370
2310  2023-11-10 15:15:24.384313
2311  2023-11-10 15:15:24.416235
2312  2023-11-10 15:15:24.448161
2313  2023-11-10 15:15:24.480026
2314  2023-11-10 15:15:24.511941
2315  2023-11-10 15:15:24.543888
2316  2023-11-10 15:15:24.575801
2317  2023-11-10 15:15:24.607724
2318  2023-11-10 15:15:24.655599
2319  2023-11-10 15:15:24.687514
2320  2023-11-10 15:15:24.719386
2321  2023-11-10 15:15:24.751301
2322  2023-11-10 15:15:24.783253
2323  2023-11-10 15:15:24.816155
2324  2023-11-10 15:15:24.848042
2325  2023-11-10 15:15:24.879957
2326  2023-11-10 15:15:24.911872
2327  2023-11-10 15:15:24.943821
2328  2023-11-10 15:15:24.975729
2329  2023-11-10 15:15:25.007651
2330  2023-11-10 15:15:25.055523
2331  2023-11-10 15:15:25.087435
2332  2023-11-10 15:15:25.119317
2333  2023-11-10 15:15:25.152256
2334  2023-11-10 15:15:25.184144
2335  2023-11-10 15:15:25.216093
2336  2023-11-10 15:15:25.248047
2337  2023-11-10 15:15:25.279965
2338  2023-11-10 15:15:25.311844
2339  2023-11-10 15:15:25.343759
2340  2023-11-10 15:15:25.375698
2341  2023-11-10 15:15:25.408115
2342  2023-11-10 15:15:25.455987
2343  2023-11-10 15:15:25.487981
2344  2023-11-10 15:15:25.519945
2345  2023-11-10 15:15:25.551858
2346  2023-11-10 15:15:25.583773
2347  2023-11-10 15:15:25.615726
2348  2023-11-10 15:15:25.647635
2349  2023-11-10 15:15:25.679558
2350  2023-11-10 15:15:25.711432
2351  2023-11-10 15:15:25.743346
2352  2023-11-10 15:15:25.775292
2353  2023-11-10 15:15:25.808173
2354  2023-11-10 15:15:25.856045
2355  2023-11-10 15:15:25.887960
2356  2023-11-10 15:15:25.919875
2357  2023-11-10 15:15:25.951789
2358  2023-11-10 15:15:25.983704
2359  2023-11-10 15:15:26.015619
2360  2023-11-10 15:15:26.047533
2361  2023-11-10 15:15:26.079494
2362  2023-11-10 15:15:26.111363
2363  2023-11-10 15:15:26.143277
2364  2023-11-10 15:15:26.176189
2365  2023-11-10 15:15:26.224061
2366  2023-11-10 15:15:26.255976
2367  2023-11-10 15:15:26.287891
2368  2023-11-10 15:15:26.319805
2369  2023-11-10 15:15:26.351720
2370  2023-11-10 15:15:26.383635
2371  2023-11-10 15:15:26.415549
2372  2023-11-10 15:15:26.447492
2373  2023-11-10 15:15:26.480376
2374  2023-11-10 15:15:26.511293
2375  2023-11-10 15:15:26.543208
2376  2023-11-10 15:15:26.576120
2377  2023-11-10 15:15:26.623992
2378  2023-11-10 15:15:26.655907
2379  2023-11-10 15:15:26.687937
2380  2023-11-10 15:15:26.719851
2381  2023-11-10 15:15:26.751766
2382  2023-11-10 15:15:26.783681
2383  2023-11-10 15:15:26.815595
2384  2023-11-10 15:15:26.847510
2385  2023-11-10 15:15:26.879425
2386  2023-11-10 15:15:26.911339
2387  2023-11-10 15:15:26.943297
2388  2023-11-10 15:15:26.976166
2389  2023-11-10 15:15:27.024084
2390  2023-11-10 15:15:27.055953
2391  2023-11-10 15:15:27.087868
2392  2023-11-10 15:15:27.119829
2393  2023-11-10 15:15:27.151797
2394  2023-11-10 15:15:27.183710
2395  2023-11-10 15:15:27.215625
2396  2023-11-10 15:15:27.247567
2397  2023-11-10 15:15:27.279521
2398  2023-11-10 15:15:27.311490
2399  2023-11-10 15:15:27.343405
2400  2023-11-10 15:15:27.375320
2401  2023-11-10 15:15:27.423192
2402  2023-11-10 15:15:27.456107
2403  2023-11-10 15:15:27.488019
2404  2023-11-10 15:15:27.519967
2405  2023-11-10 15:15:27.551848
2406  2023-11-10 15:15:27.583763
2407  2023-11-10 15:15:27.615711
2408  2023-11-10 15:15:27.647592
2409  2023-11-10 15:15:27.679507
2410  2023-11-10 15:15:27.711421
2411  2023-11-10 15:15:27.743532
2412  2023-11-10 15:15:27.775528
2413  2023-11-10 15:15:27.823535
2414  2023-11-10 15:15:27.856447
2415  2023-11-10 15:15:27.887364
2416  2023-11-10 15:15:27.920277
2417  2023-11-10 15:15:27.951194
2418  2023-11-10 15:15:27.984106
2419  2023-11-10 15:15:28.016021
2420  2023-11-10 15:15:28.048010
2421  2023-11-10 15:15:28.079896
2422  2023-11-10 15:15:28.111810
2423  2023-11-10 15:15:28.143761
2424  2023-11-10 15:15:28.175675
2425  2023-11-10 15:15:28.223638
2426  2023-11-10 15:15:28.255553
2427  2023-11-10 15:15:28.287556
2428  2023-11-10 15:15:28.319555
2429  2023-11-10 15:15:28.351537
2430  2023-11-10 15:15:28.383452
2431  2023-11-10 15:15:28.415367
2432  2023-11-10 15:15:28.447327
2433  2023-11-10 15:15:28.479196
2434  2023-11-10 15:15:28.511589
2435  2023-11-10 15:15:28.543541
2436  2023-11-10 15:15:28.575418
2437  2023-11-10 15:15:28.623290
2438  2023-11-10 15:15:28.656203
2439  2023-11-10 15:15:28.688117
2440  2023-11-10 15:15:28.720032
2441  2023-11-10 15:15:28.751947
2442  2023-11-10 15:15:28.783861
2443  2023-11-10 15:15:28.815776
2444  2023-11-10 15:15:28.847691
2445  2023-11-10 15:15:28.879605
2446  2023-11-10 15:15:28.911520
2447  2023-11-10 15:15:28.943469
2448  2023-11-10 15:15:28.975349
2449  2023-11-10 15:15:29.023348
2450  2023-11-10 15:15:29.055227
2451  2023-11-10 15:15:29.088139
2452  2023-11-10 15:15:29.120086
2453  2023-11-10 15:15:29.152004
2454  2023-11-10 15:15:29.183884
2455  2023-11-10 15:15:29.215798
2456  2023-11-10 15:15:29.247744
2457  2023-11-10 15:15:29.279667
2458  2023-11-10 15:15:29.311542
2459  2023-11-10 15:15:29.343456
2460  2023-11-10 15:15:29.375371
2461  2023-11-10 15:15:29.423243
2462  2023-11-10 15:15:29.455242
2463  2023-11-10 15:15:29.488154
2464  2023-11-10 15:15:29.520070
2465  2023-11-10 15:15:29.551983
2466  2023-11-10 15:15:29.583898
2467  2023-11-10 15:15:29.615813
2468  2023-11-10 15:15:29.647727
2469  2023-11-10 15:15:29.679642
2470  2023-11-10 15:15:29.711556
2471  2023-11-10 15:15:29.743471
2472  2023-11-10 15:15:29.776385
2473  2023-11-10 15:15:29.823311
2474  2023-11-10 15:15:29.856198
2475  2023-11-10 15:15:29.888084
2476  2023-11-10 15:15:29.919999
2477  2023-11-10 15:15:29.951944
2478  2023-11-10 15:15:29.983909
2479  2023-11-10 15:15:30.015888
2480  2023-11-10 15:15:30.047802
2481  2023-11-10 15:15:30.079717
2482  2023-11-10 15:15:30.111429
2483  2023-11-10 15:15:30.143616
2484  2023-11-10 15:15:30.191520
2485  2023-11-10 15:15:30.223392
2486  2023-11-10 15:15:30.255306
2487  2023-11-10 15:15:30.288250
2488  2023-11-10 15:15:30.320133
2489  2023-11-10 15:15:30.352048
2490  2023-11-10 15:15:30.383962
2491  2023-11-10 15:15:30.415877
2492  2023-11-10 15:15:30.447792
2493  2023-11-10 15:15:30.479706
2494  2023-11-10 15:15:30.511621
2495  2023-11-10 15:15:30.543536
2496  2023-11-10 15:15:30.591408
2497  2023-11-10 15:15:30.623323
2498  2023-11-10 15:15:30.655399
2499  2023-11-10 15:15:30.687304
2500  2023-11-10 15:15:30.719269
2501  2023-11-10 15:15:30.752191
2502  2023-11-10 15:15:30.784096
2503  2023-11-10 15:15:30.816010
2504  2023-11-10 15:15:30.847925
2505  2023-11-10 15:15:30.879840
2506  2023-11-10 15:15:30.911755
2507  2023-11-10 15:15:30.943700
2508  2023-11-10 15:15:30.991541
2509  2023-11-10 15:15:31.023456
2510  2023-11-10 15:15:31.055371
2511  2023-11-10 15:15:31.087285
2512  2023-11-10 15:15:31.120197
2513  2023-11-10 15:15:31.152119
2514  2023-11-10 15:15:31.184027
2515  2023-11-10 15:15:31.215941
2516  2023-11-10 15:15:31.247856
2517  2023-11-10 15:15:31.279771
2518  2023-11-10 15:15:31.311686
2519  2023-11-10 15:15:31.343600
2520  2023-11-10 15:15:31.391470
2521  2023-11-10 15:15:31.423385
2522  2023-11-10 15:15:31.455300
2523  2023-11-10 15:15:31.487245
2524  2023-11-10 15:15:31.520138
2525  2023-11-10 15:15:31.552041
2526  2023-11-10 15:15:31.583956
2527  2023-11-10 15:15:31.615902
2528  2023-11-10 15:15:31.647973
2529  2023-11-10 15:15:31.679888
2530  2023-11-10 15:15:31.711895
2531  2023-11-10 15:15:31.743810
2532  2023-11-10 15:15:31.791719
2533  2023-11-10 15:15:31.823661
2534  2023-11-10 15:15:31.855549
2535  2023-11-10 15:15:31.887463
2536  2023-11-10 15:15:31.919378
2537  2023-11-10 15:15:31.951445
2538  2023-11-10 15:15:31.983392
2539  2023-11-10 15:15:32.015275
2540  2023-11-10 15:15:32.048187
2541  2023-11-10 15:15:32.080102
2542  2023-11-10 15:15:32.112017
2543  2023-11-10 15:15:32.143932
2544  2023-11-10 15:15:32.191803
2545  2023-11-10 15:15:32.223718
2546  2023-11-10 15:15:32.255803
2547  2023-11-10 15:15:32.287718
2548  2023-11-10 15:15:32.320680
2549  2023-11-10 15:15:32.352576
2550  2023-11-10 15:15:32.384500
2551  2023-11-10 15:15:32.416375
2552  2023-11-10 15:15:32.448289
2553  2023-11-10 15:15:32.480637
2554  2023-11-10 15:15:32.512555
2555  2023-11-10 15:15:32.544622
2556  2023-11-10 15:15:32.592497
2557  2023-11-10 15:15:32.625044
2558  2023-11-10 15:15:32.656962
2559  2023-11-10 15:15:32.688873
2560  2023-11-10 15:15:32.720793
2561  2023-11-10 15:15:32.752704
2562  2023-11-10 15:15:32.785584
2563  2023-11-10 15:15:32.817499
2564  2023-11-10 15:15:32.849413
2565  2023-11-10 15:15:32.880331
2566  2023-11-10 15:15:32.912245
2567  2023-11-10 15:15:32.944188
2568  2023-11-10 15:15:32.993070
2569  2023-11-10 15:15:33.024979
2570  2023-11-10 15:15:33.055893
2571  2023-11-10 15:15:33.087907
2572  2023-11-10 15:15:33.119816
2573  2023-11-10 15:15:33.151740
2574  2023-11-10 15:15:33.183622
2575  2023-11-10 15:15:33.215572
2576  2023-11-10 15:15:33.248477
2577  2023-11-10 15:15:33.280363
2578  2023-11-10 15:15:33.312277
2579  2023-11-10 15:15:33.345189
2580  2023-11-10 15:15:33.392098
2581  2023-11-10 15:15:33.424013
2582  2023-11-10 15:15:33.455926
2583  2023-11-10 15:15:33.487841
2584  2023-11-10 15:15:33.519756
2585  2023-11-10 15:15:33.551687
2586  2023-11-10 15:15:33.583586
2587  2023-11-10 15:15:33.615528
2588  2023-11-10 15:15:33.647415
2589  2023-11-10 15:15:33.679339
2590  2023-11-10 15:15:33.711423
2591  2023-11-10 15:15:33.759288
2592  2023-11-10 15:15:33.792165
2593  2023-11-10 15:15:33.824108
2594  2023-11-10 15:15:33.856030
2595  2023-11-10 15:15:33.888935
2596  2023-11-10 15:15:33.921818
2597  2023-11-10 15:15:33.952821
2598  2023-11-10 15:15:33.983868
2599  2023-11-10 15:15:34.015830
2600  2023-11-10 15:15:34.048777
2601  2023-11-10 15:15:34.080656
2602  2023-11-10 15:15:34.111574
2603  2023-11-10 15:15:34.160443
2604  2023-11-10 15:15:34.192359
2605  2023-11-10 15:15:34.223308
2606  2023-11-10 15:15:34.255222
2607  2023-11-10 15:15:34.288162
2608  2023-11-10 15:15:34.321046
2609  2023-11-10 15:15:34.351967
2610  2023-11-10 15:15:34.383846
2611  2023-11-10 15:15:34.415775
2612  2023-11-10 15:15:34.448712
2613  2023-11-10 15:15:34.480629
2614  2023-11-10 15:15:34.512504
2615  2023-11-10 15:15:34.560399
2616  2023-11-10 15:15:34.594285
2617  2023-11-10 15:15:34.624233
2618  2023-11-10 15:15:34.656118
2619  2023-11-10 15:15:34.688063
2620  2023-11-10 15:15:34.719949
2621  2023-11-10 15:15:34.751863
2622  2023-11-10 15:15:34.783805
2623  2023-11-10 15:15:34.816724
2624  2023-11-10 15:15:34.848647
2625  2023-11-10 15:15:34.880553
2626  2023-11-10 15:15:34.912480
2627  2023-11-10 15:15:34.960346
2628  2023-11-10 15:15:34.992263
2629  2023-11-10 15:15:35.024153
2630  2023-11-10 15:15:35.056048
2631  2023-11-10 15:15:35.087993
2632  2023-11-10 15:15:35.119910
2633  2023-11-10 15:15:35.152821
2634  2023-11-10 15:15:35.183743
2635  2023-11-10 15:15:35.215622
2636  2023-11-10 15:15:35.247575
2637  2023-11-10 15:15:35.280508
2638  2023-11-10 15:15:35.313361
2639  2023-11-10 15:15:35.360235
2640  2023-11-10 15:15:35.393148
2641  2023-11-10 15:15:35.423069
2642  2023-11-10 15:15:35.455980
2643  2023-11-10 15:15:35.487928
2644  2023-11-10 15:15:35.519844
2645  2023-11-10 15:15:35.551757
2646  2023-11-10 15:15:35.583667
2647  2023-11-10 15:15:35.615588
2648  2023-11-10 15:15:35.647468
2649  2023-11-10 15:15:35.679416
2650  2023-11-10 15:15:35.711337
2651  2023-11-10 15:15:35.759211
2652  2023-11-10 15:15:35.792090
2653  2023-11-10 15:15:35.824029
2654  2023-11-10 15:15:35.855911
2655  2023-11-10 15:15:35.887826
2656  2023-11-10 15:15:35.919780
2657  2023-11-10 15:15:35.951690
2658  2023-11-10 15:15:35.983607
2659  2023-11-10 15:15:36.015485
2660  2023-11-10 15:15:36.047441
2661  2023-11-10 15:15:36.080186
2662  2023-11-10 15:15:36.112174
2663  2023-11-10 15:15:36.160045
2664  2023-11-10 15:15:36.191926
2665  2023-11-10 15:15:36.223841
2666  2023-11-10 15:15:36.255754
2667  2023-11-10 15:15:36.287669
2668  2023-11-10 15:15:36.319621
2669  2023-11-10 15:15:36.351536
2670  2023-11-10 15:15:36.383456
2671  2023-11-10 15:15:36.415327
2672  2023-11-10 15:15:36.447287
2673  2023-11-10 15:15:36.480189
2674  2023-11-10 15:15:36.512103
2675  2023-11-10 15:15:36.559975
2676  2023-11-10 15:15:36.591890
2677  2023-11-10 15:15:36.623805
2678  2023-11-10 15:15:36.655720
2679  2023-11-10 15:15:36.687599
2680  2023-11-10 15:15:36.719551
2681  2023-11-10 15:15:36.751468
2682  2023-11-10 15:15:36.783373
2683  2023-11-10 15:15:36.815303
2684  2023-11-10 15:15:36.848207
2685  2023-11-10 15:15:36.880124
2686  2023-11-10 15:15:36.912034
2687  2023-11-10 15:15:36.959910
2688  2023-11-10 15:15:36.991822
2689  2023-11-10 15:15:37.023738
2690  2023-11-10 15:15:37.055616
2691  2023-11-10 15:15:37.087538
2692  2023-11-10 15:15:37.119494
2693  2023-11-10 15:15:37.152395
2694  2023-11-10 15:15:37.183315
2695  2023-11-10 15:15:37.216222
2696  2023-11-10 15:15:37.248144
2697  2023-11-10 15:15:37.280017
2698  2023-11-10 15:15:37.311964
2699  2023-11-10 15:15:37.359840
2700  2023-11-10 15:15:37.391753
2701  2023-11-10 15:15:37.423665
2702  2023-11-10 15:15:37.455580
2703  2023-11-10 15:15:37.487505
2704  2023-11-10 15:15:37.519416
2705  2023-11-10 15:15:37.551326
2706  2023-11-10 15:15:37.583258
2707  2023-11-10 15:15:37.616167
2708  2023-11-10 15:15:37.648063
2709  2023-11-10 15:15:37.679946
2710  2023-11-10 15:15:37.727818
2711  2023-11-10 15:15:37.759733
2712  2023-11-10 15:15:37.791684
2713  2023-11-10 15:15:37.823598
2714  2023-11-10 15:15:37.855536
2715  2023-11-10 15:15:37.887435
2716  2023-11-10 15:15:37.919348
2717  2023-11-10 15:15:37.951254
2718  2023-11-10 15:15:37.983177
2719  2023-11-10 15:15:38.016081
2720  2023-11-10 15:15:38.047963
2721  2023-11-10 15:15:38.079910
2722  2023-11-10 15:15:38.127794
2723  2023-11-10 15:15:38.159703
2724  2023-11-10 15:15:38.191613
2725  2023-11-10 15:15:38.223542
2726  2023-11-10 15:15:38.255451
2727  2023-11-10 15:15:38.287381
2728  2023-11-10 15:15:38.320236
2729  2023-11-10 15:15:38.351189
2730  2023-11-10 15:15:38.384091
2731  2023-11-10 15:15:38.416013
2732  2023-11-10 15:15:38.447929
2733  2023-11-10 15:15:38.479809
2734  2023-11-10 15:15:38.527933
2735  2023-11-10 15:15:38.559848
2736  2023-11-10 15:15:38.591796
2737  2023-11-10 15:15:38.623715
2738  2023-11-10 15:15:38.655629
2739  2023-11-10 15:15:38.687552
2740  2023-11-10 15:15:38.719421
2741  2023-11-10 15:15:38.751381
2742  2023-11-10 15:15:38.784285
2743  2023-11-10 15:15:38.816200
2744  2023-11-10 15:15:38.848077
2745  2023-11-10 15:15:38.879992
2746  2023-11-10 15:15:38.927893
2747  2023-11-10 15:15:38.959811
2748  2023-11-10 15:15:38.992718
2749  2023-11-10 15:15:39.023608
2750  2023-11-10 15:15:39.055561
2751  2023-11-10 15:15:39.087437
2752  2023-11-10 15:15:39.119392
2753  2023-11-10 15:15:39.152305
2754  2023-11-10 15:15:39.184220
2755  2023-11-10 15:15:39.216135
2756  2023-11-10 15:15:39.248041
2757  2023-11-10 15:15:39.279957
2758  2023-11-10 15:15:39.327827
2759  2023-11-10 15:15:39.359742
2760  2023-11-10 15:15:39.391625
2761  2023-11-10 15:15:39.423569
2762  2023-11-10 15:15:39.455484
2763  2023-11-10 15:15:39.488398
2764  2023-11-10 15:15:39.519283
2765  2023-11-10 15:15:39.552195
2766  2023-11-10 15:15:39.584165
2767  2023-11-10 15:15:39.616090
2768  2023-11-10 15:15:39.647970
2769  2023-11-10 15:15:39.679853
2770  2023-11-10 15:15:39.727753
2771  2023-11-10 15:15:39.759640
2772  2023-11-10 15:15:39.791596
2773  2023-11-10 15:15:39.823514
2774  2023-11-10 15:15:39.855417
2775  2023-11-10 15:15:39.887339
2776  2023-11-10 15:15:39.920211
2777  2023-11-10 15:15:39.952174
2778  2023-11-10 15:15:39.984074
2779  2023-11-10 15:15:40.015988
2780  2023-11-10 15:15:40.047905
2781  2023-11-10 15:15:40.079784
2782  2023-11-10 15:15:40.127692
2783  2023-11-10 15:15:40.159607
2784  2023-11-10 15:15:40.191534
2785  2023-11-10 15:15:40.223441
2786  2023-11-10 15:15:40.255356
2787  2023-11-10 15:15:40.287277
2788  2023-11-10 15:15:40.319176
2789  2023-11-10 15:15:40.352056
2790  2023-11-10 15:15:40.384007
2791  2023-11-10 15:15:40.415918
2792  2023-11-10 15:15:40.447832
2793  2023-11-10 15:15:40.479719
2794  2023-11-10 15:15:40.527623
2795  2023-11-10 15:15:40.559502
2796  2023-11-10 15:15:40.591467
2797  2023-11-10 15:15:40.624358
2798  2023-11-10 15:15:40.655279
2799  2023-11-10 15:15:40.687305
2800  2023-11-10 15:15:40.720176
2801  2023-11-10 15:15:40.752086
2802  2023-11-10 15:15:40.784037
2803  2023-11-10 15:15:40.815951
2804  2023-11-10 15:15:40.847857
2805  2023-11-10 15:15:40.879745
2806  2023-11-10 15:15:40.927666
2807  2023-11-10 15:15:40.959540
2808  2023-11-10 15:15:40.991446
2809  2023-11-10 15:15:41.024392
2810  2023-11-10 15:15:41.055276
2811  2023-11-10 15:15:41.087226
2812  2023-11-10 15:15:41.120102
2813  2023-11-10 15:15:41.152017
2814  2023-11-10 15:15:41.184090
2815  2023-11-10 15:15:41.216083
2816  2023-11-10 15:15:41.248069
2817  2023-11-10 15:15:41.279984
2818  2023-11-10 15:15:41.327856
2819  2023-11-10 15:15:41.359769
2820  2023-11-10 15:15:41.391654
2821  2023-11-10 15:15:41.423567
2822  2023-11-10 15:15:41.455521
2823  2023-11-10 15:15:41.487441
2824  2023-11-10 15:15:41.519355
2825  2023-11-10 15:15:41.551350
2826  2023-11-10 15:15:41.583325
2827  2023-11-10 15:15:41.616202
2828  2023-11-10 15:15:41.648159
2829  2023-11-10 15:15:41.696114
2830  2023-11-10 15:15:41.728092
2831  2023-11-10 15:15:41.760124
2832  2023-11-10 15:15:41.792004
2833  2023-11-10 15:15:41.823919
2834  2023-11-10 15:15:41.855834
2835  2023-11-10 15:15:41.887748
2836  2023-11-10 15:15:41.920686
2837  2023-11-10 15:15:41.951578
2838  2023-11-10 15:15:41.983492
2839  2023-11-10 15:15:42.015450
2840  2023-11-10 15:15:42.048319
2841  2023-11-10 15:15:42.096192
2842  2023-11-10 15:15:42.128106
2843  2023-11-10 15:15:42.160020
2844  2023-11-10 15:15:42.191935
2845  2023-11-10 15:15:42.223850
2846  2023-11-10 15:15:42.255764
2847  2023-11-10 15:15:42.287679
2848  2023-11-10 15:15:42.319594
2849  2023-11-10 15:15:42.352507
2850  2023-11-10 15:15:42.383423
2851  2023-11-10 15:15:42.415338
2852  2023-11-10 15:15:42.448292
2853  2023-11-10 15:15:42.496122
2854  2023-11-10 15:15:42.528071
2855  2023-11-10 15:15:42.559951
2856  2023-11-10 15:15:42.591866
2857  2023-11-10 15:15:42.623781
2858  2023-11-10 15:15:42.655736
2859  2023-11-10 15:15:42.687666
2860  2023-11-10 15:15:42.719524
2861  2023-11-10 15:15:42.751439
2862  2023-11-10 15:15:42.784352
2863  2023-11-10 15:15:42.815354
2864  2023-11-10 15:15:42.848235
2865  2023-11-10 15:15:42.896110
2866  2023-11-10 15:15:42.928022
2867  2023-11-10 15:15:42.959936
2868  2023-11-10 15:15:42.991990
2869  2023-11-10 15:15:43.023896
2870  2023-11-10 15:15:43.055811
2871  2023-11-10 15:15:43.087725
2872  2023-11-10 15:15:43.119737
2873  2023-11-10 15:15:43.151688
2874  2023-11-10 15:15:43.183566
2875  2023-11-10 15:15:43.215545
2876  2023-11-10 15:15:43.247642
2877  2023-11-10 15:15:43.295655
2878  2023-11-10 15:15:43.327611
2879  2023-11-10 15:15:43.359563
2880  2023-11-10 15:15:43.391518
2881  2023-11-10 15:15:43.423433
2882  2023-11-10 15:15:43.455436
2883  2023-11-10 15:15:43.487397
2884  2023-11-10 15:15:43.520407
2885  2023-11-10 15:15:43.551324
2886  2023-11-10 15:15:43.583238
2887  2023-11-10 15:15:43.616151
2888  2023-11-10 15:15:43.648067
2889  2023-11-10 15:15:43.695937
2890  2023-11-10 15:15:43.727852
2891  2023-11-10 15:15:43.759766
2892  2023-11-10 15:15:43.791714
2893  2023-11-10 15:15:43.823596
2894  2023-11-10 15:15:43.855510
2895  2023-11-10 15:15:43.887425
2896  2023-11-10 15:15:43.920337
2897  2023-11-10 15:15:43.951255
2898  2023-11-10 15:15:43.984167
2899  2023-11-10 15:15:44.016097
2900  2023-11-10 15:15:44.047996
2901  2023-11-10 15:15:44.095927
2902  2023-11-10 15:15:44.127842
2903  2023-11-10 15:15:44.159762
2904  2023-11-10 15:15:44.191671
2905  2023-11-10 15:15:44.223586
2906  2023-11-10 15:15:44.255501
2907  2023-11-10 15:15:44.287415
2908  2023-11-10 15:15:44.319383
2909  2023-11-10 15:15:44.352242
2910  2023-11-10 15:15:44.384157
2911  2023-11-10 15:15:44.416184
2912  2023-11-10 15:15:44.448153
2913  2023-11-10 15:15:44.495998
2914  2023-11-10 15:15:44.527994
2915  2023-11-10 15:15:44.559923
2916  2023-11-10 15:15:44.591838
2917  2023-11-10 15:15:44.623790
2918  2023-11-10 15:15:44.655704
2919  2023-11-10 15:15:44.687698
2920  2023-11-10 15:15:44.719572
2921  2023-11-10 15:15:44.751487
2922  2023-11-10 15:15:44.783443
2923  2023-11-10 15:15:44.815349
2924  2023-11-10 15:15:44.848369
2925  2023-11-10 15:15:44.896241
2926  2023-11-10 15:15:44.928155
2927  2023-11-10 15:15:44.960070
2928  2023-11-10 15:15:44.991985
2929  2023-11-10 15:15:45.023899
2930  2023-11-10 15:15:45.055814
2931  2023-11-10 15:15:45.087729
2932  2023-11-10 15:15:45.119643
2933  2023-11-10 15:15:45.151558
2934  2023-11-10 15:15:45.183473
2935  2023-11-10 15:15:45.215387
2936  2023-11-10 15:15:45.263259
2937  2023-11-10 15:15:45.295174
2938  2023-11-10 15:15:45.328100
2939  2023-11-10 15:15:45.360001
2940  2023-11-10 15:15:45.391915
2941  2023-11-10 15:15:45.423830
2942  2023-11-10 15:15:45.455745
2943  2023-11-10 15:15:45.487660
2944  2023-11-10 15:15:45.519475
2945  2023-11-10 15:15:45.552427
2946  2023-11-10 15:15:45.583344
2947  2023-11-10 15:15:45.616254
2948  2023-11-10 15:15:45.664277
2949  2023-11-10 15:15:45.695306
2950  2023-11-10 15:15:45.728178
2951  2023-11-10 15:15:45.760094
2952  2023-11-10 15:15:45.792102
2953  2023-11-10 15:15:45.824049
2954  2023-11-10 15:15:45.855931
2955  2023-11-10 15:15:45.887846
2956  2023-11-10 15:15:45.919767
2957  2023-11-10 15:15:45.951702
2958  2023-11-10 15:15:45.983677
2959  2023-11-10 15:15:46.015592
2960  2023-11-10 15:15:46.063464
2961  2023-11-10 15:15:46.095379
2962  2023-11-10 15:15:46.127428
2963  2023-11-10 15:15:46.160341
2964  2023-11-10 15:15:46.192256
2965  2023-11-10 15:15:46.223173
2966  2023-11-10 15:15:46.256085
2967  2023-11-10 15:15:46.287999
2968  2023-11-10 15:15:46.319914
2969  2023-11-10 15:15:46.351829
2970  2023-11-10 15:15:46.383743
2971  2023-11-10 15:15:46.415661
2972  2023-11-10 15:15:46.463530
2973  2023-11-10 15:15:46.495445
2974  2023-11-10 15:15:46.528357
2975  2023-11-10 15:15:46.559274
2976  2023-11-10 15:15:46.592186
2977  2023-11-10 15:15:46.624101
2978  2023-11-10 15:15:46.656015
2979  2023-11-10 15:15:46.687930
2980  2023-11-10 15:15:46.719845
2981  2023-11-10 15:15:46.751759
2982  2023-11-10 15:15:46.783674
2983  2023-11-10 15:15:46.815640
2984  2023-11-10 15:15:46.863461
2985  2023-11-10 15:15:46.895375
2986  2023-11-10 15:15:46.928294
2987  2023-11-10 15:15:46.960202
2988  2023-11-10 15:15:46.992233
2989  2023-11-10 15:15:47.024186
2990  2023-11-10 15:15:47.056061
2991  2023-11-10 15:15:47.087976
2992  2023-11-10 15:15:47.120067
2993  2023-11-10 15:15:47.152082
2994  2023-11-10 15:15:47.184029
2995  2023-11-10 15:15:47.215945
2996  2023-11-10 15:15:47.263787
2997  2023-11-10 15:15:47.295725
2998  2023-11-10 15:15:47.327612
2999  2023-11-10 15:15:47.359610
3000  2023-11-10 15:15:47.391487
3001  2023-11-10 15:15:47.423402
3002  2023-11-10 15:15:47.455407
3003  2023-11-10 15:15:47.488352
3004  2023-11-10 15:15:47.519268
3005  2023-11-10 15:15:47.552180
3006  2023-11-10 15:15:47.584095
3007  2023-11-10 15:15:47.616010
3008  2023-11-10 15:15:47.663882
3009  2023-11-10 15:15:47.695796
3010  2023-11-10 15:15:47.727718
3011  2023-11-10 15:15:47.759626
3012  2023-11-10 15:15:47.791540
3013  2023-11-10 15:15:47.823455
3014  2023-11-10 15:15:47.855370
3015  2023-11-10 15:15:47.887392
3016  2023-11-10 15:15:47.919307
3017  2023-11-10 15:15:47.952220
3018  2023-11-10 15:15:47.984149
3019  2023-11-10 15:15:48.016049
3020  2023-11-10 15:15:48.063921
3021  2023-11-10 15:15:48.096858
3022  2023-11-10 15:15:48.127750
3023  2023-11-10 15:15:48.161660
3024  2023-11-10 15:15:48.193601
3025  2023-11-10 15:15:48.224534
3026  2023-11-10 15:15:48.257435
3027  2023-11-10 15:15:48.289362
3028  2023-11-10 15:15:48.321275
3029  2023-11-10 15:15:48.353148
3030  2023-11-10 15:15:48.385103
3031  2023-11-10 15:15:48.417010
3032  2023-11-10 15:15:48.464879
3033  2023-11-10 15:15:48.496833
3034  2023-11-10 15:15:48.528788
3035  2023-11-10 15:15:48.560705
3036  2023-11-10 15:15:48.593585
3037  2023-11-10 15:15:48.625500
3038  2023-11-10 15:15:48.656421
3039  2023-11-10 15:15:48.688380
3040  2023-11-10 15:15:48.720276
3041  2023-11-10 15:15:48.752205
3042  2023-11-10 15:15:48.784113
3043  2023-11-10 15:15:48.816027
3044  2023-11-10 15:15:48.864886
3045  2023-11-10 15:15:48.896806
3046  2023-11-10 15:15:48.928725
3047  2023-11-10 15:15:48.960640
3048  2023-11-10 15:15:48.992551
3049  2023-11-10 15:15:49.024476
3050  2023-11-10 15:15:49.056393
3051  2023-11-10 15:15:49.088298
3052  2023-11-10 15:15:49.120224
3053  2023-11-10 15:15:49.152126
3054  2023-11-10 15:15:49.184038
3055  2023-11-10 15:15:49.231913
3056  2023-11-10 15:15:49.263824
3057  2023-11-10 15:15:49.295791
3058  2023-11-10 15:15:49.327746
3059  2023-11-10 15:15:49.359680
3060  2023-11-10 15:15:49.391584
3061  2023-11-10 15:15:49.423564
3062  2023-11-10 15:15:49.455462
3063  2023-11-10 15:15:49.487385
3064  2023-11-10 15:15:49.520254
3065  2023-11-10 15:15:49.552169
3066  2023-11-10 15:15:49.584126
3067  2023-11-10 15:15:49.631986
3068  2023-11-10 15:15:49.663904
3069  2023-11-10 15:15:49.695818
3070  2023-11-10 15:15:49.727731
3071  2023-11-10 15:15:49.759664
3072  2023-11-10 15:15:49.791562
3073  2023-11-10 15:15:49.824481
3074  2023-11-10 15:15:49.856355
3075  2023-11-10 15:15:49.887305
3076  2023-11-10 15:15:49.920185
3077  2023-11-10 15:15:49.952099
3078  2023-11-10 15:15:49.984014
3079  2023-11-10 15:15:50.031886
3080  2023-11-10 15:15:50.063829
3081  2023-11-10 15:15:50.095758
3082  2023-11-10 15:15:50.128662
3083  2023-11-10 15:15:50.159587
3084  2023-11-10 15:15:50.192457
3085  2023-11-10 15:15:50.223409
3086  2023-11-10 15:15:50.255339
3087  2023-11-10 15:15:50.289250
3088  2023-11-10 15:15:50.321165
3089  2023-11-10 15:15:50.353058
3090  2023-11-10 15:15:50.383975
3091  2023-11-10 15:15:50.432814
3092  2023-11-10 15:15:50.463755
3093  2023-11-10 15:15:50.495696
3094  2023-11-10 15:15:50.528601
3095  2023-11-10 15:15:50.560506
3096  2023-11-10 15:15:50.592418
3097  2023-11-10 15:15:50.623340
3098  2023-11-10 15:15:50.656250
3099  2023-11-10 15:15:50.688169
3100  2023-11-10 15:15:50.720079
3101  2023-11-10 15:15:50.751992
3102  2023-11-10 15:15:50.783876
3103  2023-11-10 15:15:50.832751
3104  2023-11-10 15:15:50.863663
3105  2023-11-10 15:15:50.895580
3106  2023-11-10 15:15:50.928523
3107  2023-11-10 15:15:50.960436
3108  2023-11-10 15:15:50.993349
3109  2023-11-10 15:15:51.024268
3110  2023-11-10 15:15:51.055188
3111  2023-11-10 15:15:51.088216
3112  2023-11-10 15:15:51.121121
3113  2023-11-10 15:15:51.152041
3114  2023-11-10 15:15:51.183918
3115  2023-11-10 15:15:51.232822
3116  2023-11-10 15:15:51.263705
3117  2023-11-10 15:15:51.295707
3118  2023-11-10 15:15:51.328675
3119  2023-11-10 15:15:51.359576
3120  2023-11-10 15:15:51.391495
3121  2023-11-10 15:15:51.423399
3122  2023-11-10 15:15:51.455315
3123  2023-11-10 15:15:51.488245
3124  2023-11-10 15:15:51.519262
3125  2023-11-10 15:15:51.551267
3126  2023-11-10 15:15:51.584273
3127  2023-11-10 15:15:51.632200
3128  2023-11-10 15:15:51.664243
3129  2023-11-10 15:15:51.695267
3130  2023-11-10 15:15:51.728146
3131  2023-11-10 15:15:51.760068
3132  2023-11-10 15:15:51.792019
3133  2023-11-10 15:15:51.823932
3134  2023-11-10 15:15:51.855889
3135  2023-11-10 15:15:51.887760
3136  2023-11-10 15:15:51.919713
3137  2023-11-10 15:15:51.951630
3138  2023-11-10 15:15:51.983541
3139  2023-11-10 15:15:52.031411
3140  2023-11-10 15:15:52.063332
3141  2023-11-10 15:15:52.095254
3142  2023-11-10 15:15:52.127203
3143  2023-11-10 15:15:52.160113
3144  2023-11-10 15:15:52.192036
3145  2023-11-10 15:15:52.223912
3146  2023-11-10 15:15:52.255825
3147  2023-11-10 15:15:52.287909
3148  2023-11-10 15:15:52.319795
3149  2023-11-10 15:15:52.351722
3150  2023-11-10 15:15:52.383675
3151  2023-11-10 15:15:52.431526
3152  2023-11-10 15:15:52.463445
3153  2023-11-10 15:15:52.495358
3154  2023-11-10 15:15:52.527239
3155  2023-11-10 15:15:52.560188
3156  2023-11-10 15:15:52.592098
3157  2023-11-10 15:15:52.624016
3158  2023-11-10 15:15:52.655895
3159  2023-11-10 15:15:52.687810
3160  2023-11-10 15:15:52.719759
3161  2023-11-10 15:15:52.751688
3162  2023-11-10 15:15:52.799685
3163  2023-11-10 15:15:52.831607
3164  2023-11-10 15:15:52.863473
3165  2023-11-10 15:15:52.895387
3166  2023-11-10 15:15:52.927302
3167  2023-11-10 15:15:52.960214
3168  2023-11-10 15:15:52.992129
3169  2023-11-10 15:15:53.024043
3170  2023-11-10 15:15:53.055985
3171  2023-11-10 15:15:53.087873
3172  2023-11-10 15:15:53.119787
3173  2023-11-10 15:15:53.151731
3174  2023-11-10 15:15:53.199611
3175  2023-11-10 15:15:53.231518
3176  2023-11-10 15:15:53.263518
3177  2023-11-10 15:15:53.295403
3178  2023-11-10 15:15:53.327348
3179  2023-11-10 15:15:53.359268
3180  2023-11-10 15:15:53.392177
3181  2023-11-10 15:15:53.424090
3182  2023-11-10 15:15:53.456011
3183  2023-11-10 15:15:53.487918
3184  2023-11-10 15:15:53.519834
3185  2023-11-10 15:15:53.551756
3186  2023-11-10 15:15:53.599623
3187  2023-11-10 15:15:53.631551
3188  2023-11-10 15:15:53.663456
3189  2023-11-10 15:15:53.695373
3190  2023-11-10 15:15:53.727248
3191  2023-11-10 15:15:53.760160
3192  2023-11-10 15:15:53.792108
3193  2023-11-10 15:15:53.824026
3194  2023-11-10 15:15:53.855940
3195  2023-11-10 15:15:53.887857
3196  2023-11-10 15:15:53.919733
3197  2023-11-10 15:15:53.951671
3198  2023-11-10 15:15:53.999556
3199  2023-11-10 15:15:54.031472
3200  2023-11-10 15:15:54.063387
3201  2023-11-10 15:15:54.095299
3202  2023-11-10 15:15:54.128176
3203  2023-11-10 15:15:54.160135
3204  2023-11-10 15:15:54.192037
3205  2023-11-10 15:15:54.223951
3206  2023-11-10 15:15:54.255866
3207  2023-11-10 15:15:54.287781
3208  2023-11-10 15:15:54.319712
3209  2023-11-10 15:15:54.351615
3210  2023-11-10 15:15:54.399482
3211  2023-11-10 15:15:54.431395
3212  2023-11-10 15:15:54.463315
3213  2023-11-10 15:15:54.495228
3214  2023-11-10 15:15:54.528149
3215  2023-11-10 15:15:54.560022
3216  2023-11-10 15:15:54.591970
3217  2023-11-10 15:15:54.623885
3218  2023-11-10 15:15:54.655804
3219  2023-11-10 15:15:54.687680
3220  2023-11-10 15:15:54.719595
3221  2023-11-10 15:15:54.751558
3222  2023-11-10 15:15:54.800424
3223  2023-11-10 15:15:54.831320
3224  2023-11-10 15:15:54.864211
3225  2023-11-10 15:15:54.896126
3226  2023-11-10 15:15:54.928038
3227  2023-11-10 15:15:54.959953
3228  2023-11-10 15:15:54.991924
3229  2023-11-10 15:15:55.023890
3230  2023-11-10 15:15:55.055836
3231  2023-11-10 15:15:55.087749
3232  2023-11-10 15:15:55.119666
3233  2023-11-10 15:15:55.151585
3234  2023-11-10 15:15:55.199454
3235  2023-11-10 15:15:55.231366
3236  2023-11-10 15:15:55.263289
3237  2023-11-10 15:15:55.295206
3238  2023-11-10 15:15:55.328110
3239  2023-11-10 15:15:55.360023
3240  2023-11-10 15:15:55.391939
3241  2023-11-10 15:15:55.423853
3242  2023-11-10 15:15:55.455896
3243  2023-11-10 15:15:55.487812
3244  2023-11-10 15:15:55.519851
3245  2023-11-10 15:15:55.551798
3246  2023-11-10 15:15:55.599682
3247  2023-11-10 15:15:55.632029
3248  2023-11-10 15:15:55.664091
3249  2023-11-10 15:15:55.696107
3250  2023-11-10 15:15:55.728019
3251  2023-11-10 15:15:55.759901
3252  2023-11-10 15:15:55.791888
3253  2023-11-10 15:15:55.823802
3254  2023-11-10 15:15:55.855794
3255  2023-11-10 15:15:55.887703
3256  2023-11-10 15:15:55.919636
3257  2023-11-10 15:15:55.951552
3258  2023-11-10 15:15:55.999408
3259  2023-11-10 15:15:56.031320
3260  2023-11-10 15:15:56.064220
3261  2023-11-10 15:15:56.096153
3262  2023-11-10 15:15:56.128062
3263  2023-11-10 15:15:56.159977
3264  2023-11-10 15:15:56.191859
3265  2023-11-10 15:15:56.223810
3266  2023-11-10 15:15:56.255720
3267  2023-11-10 15:15:56.287634
3268  2023-11-10 15:15:56.320581
3269  2023-11-10 15:15:56.351433
3270  2023-11-10 15:15:56.400303
3271  2023-11-10 15:15:56.431260
3272  2023-11-10 15:15:56.464179
3273  2023-11-10 15:15:56.496079
3274  2023-11-10 15:15:56.527996
3275  2023-11-10 15:15:56.559875
3276  2023-11-10 15:15:56.591790
3277  2023-11-10 15:15:56.623738
3278  2023-11-10 15:15:56.655646
3279  2023-11-10 15:15:56.687566
3280  2023-11-10 15:15:56.719449
3281  2023-11-10 15:15:56.767370
3282  2023-11-10 15:15:56.800233
3283  2023-11-10 15:15:56.831190
3284  2023-11-10 15:15:56.864136
3285  2023-11-10 15:15:56.896049
3286  2023-11-10 15:15:56.927997
3287  2023-11-10 15:15:56.959932
3288  2023-11-10 15:15:56.991884
3289  2023-11-10 15:15:57.023819
3290  2023-11-10 15:15:57.055708
3291  2023-11-10 15:15:57.087635
3292  2023-11-10 15:15:57.119557
3293  2023-11-10 15:15:57.167424
3294  2023-11-10 15:15:57.200291
3295  2023-11-10 15:15:57.232215
3296  2023-11-10 15:15:57.264164
3297  2023-11-10 15:15:57.296078
3298  2023-11-10 15:15:57.328039
3299  2023-11-10 15:15:57.360034
3300  2023-11-10 15:15:57.392057
3301  2023-11-10 15:15:57.424004
3302  2023-11-10 15:15:57.455929
3303  2023-11-10 15:15:57.487939
3304  2023-11-10 15:15:57.519823
3305  2023-11-10 15:15:57.567727
3306  2023-11-10 15:15:57.599764
3307  2023-11-10 15:15:57.631731
3308  2023-11-10 15:15:57.663682
3309  2023-11-10 15:15:57.695594
3310  2023-11-10 15:15:57.727509
3311  2023-11-10 15:15:57.759431
3312  2023-11-10 15:15:57.791304
3313  2023-11-10 15:15:57.824216
3314  2023-11-10 15:15:57.856170
3315  2023-11-10 15:15:57.888076
3316  2023-11-10 15:15:57.919960
3317  2023-11-10 15:15:57.967881
3318  2023-11-10 15:15:57.999772
3319  2023-11-10 15:15:58.031661
3320  2023-11-10 15:15:58.063614
3321  2023-11-10 15:15:58.095521
3322  2023-11-10 15:15:58.127435
3323  2023-11-10 15:15:58.160350
3324  2023-11-10 15:15:58.192269
3325  2023-11-10 15:15:58.224147
3326  2023-11-10 15:15:58.256093
3327  2023-11-10 15:15:58.288011
3328  2023-11-10 15:15:58.319925
3329  2023-11-10 15:15:58.367799
3330  2023-11-10 15:15:58.399702
3331  2023-11-10 15:15:58.431592
3332  2023-11-10 15:15:58.463506
3333  2023-11-10 15:15:58.495463
3334  2023-11-10 15:15:58.527377
3335  2023-11-10 15:15:58.559294
3336  2023-11-10 15:15:58.592162
3337  2023-11-10 15:15:58.624077
3338  2023-11-10 15:15:58.655992
3339  2023-11-10 15:15:58.687907
3340  2023-11-10 15:15:58.719821
3341  2023-11-10 15:15:58.767693
3342  2023-11-10 15:15:58.799608
3343  2023-11-10 15:15:58.831522
3344  2023-11-10 15:15:58.864443
3345  2023-11-10 15:15:58.895352
3346  2023-11-10 15:15:58.927299
3347  2023-11-10 15:15:58.960179
3348  2023-11-10 15:15:58.992145
3349  2023-11-10 15:15:59.024044
3350  2023-11-10 15:15:59.055923
3351  2023-11-10 15:15:59.087868
3352  2023-11-10 15:15:59.119826
3353  2023-11-10 15:15:59.167773
3354  2023-11-10 15:15:59.199722
3355  2023-11-10 15:15:59.231602
3356  2023-11-10 15:15:59.263729
3357  2023-11-10 15:15:59.295645
3358  2023-11-10 15:15:59.327593
3359  2023-11-10 15:15:59.359535
3360  2023-11-10 15:15:59.391389
3361  2023-11-10 15:15:59.423303
3362  2023-11-10 15:15:59.456254
3363  2023-11-10 15:15:59.488166
3364  2023-11-10 15:15:59.520045
3365  2023-11-10 15:15:59.567917
3366  2023-11-10 15:15:59.599832
3367  2023-11-10 15:15:59.631746
3368  2023-11-10 15:15:59.663661
3369  2023-11-10 15:15:59.695742
3370  2023-11-10 15:15:59.727624
3371  2023-11-10 15:15:59.759538
3372  2023-11-10 15:15:59.791453
3373  2023-11-10 15:15:59.823367
3374  2023-11-10 15:15:59.855282
3375  2023-11-10 15:15:59.888194
3376  2023-11-10 15:15:59.920109
3377  2023-11-10 15:15:59.967981
3378  2023-11-10 15:15:59.999896
3379  2023-11-10 15:16:00.032809
3380  2023-11-10 15:16:00.064724
3381  2023-11-10 15:16:00.095640
3382  2023-11-10 15:16:00.127554
3383  2023-11-10 15:16:00.160473
3384  2023-11-10 15:16:00.192382
3385  2023-11-10 15:16:00.223298
3386  2023-11-10 15:16:00.255213
3387  2023-11-10 15:16:00.288125
3388  2023-11-10 15:16:00.335997
3389  2023-11-10 15:16:00.367946
3390  2023-11-10 15:16:00.399858
3391  2023-11-10 15:16:00.431741
3392  2023-11-10 15:16:00.463656
3393  2023-11-10 15:16:00.495607
3394  2023-11-10 15:16:00.527522
3395  2023-11-10 15:16:00.559400
3396  2023-11-10 15:16:00.591314
3397  2023-11-10 15:16:00.624227
3398  2023-11-10 15:16:00.656141
3399  2023-11-10 15:16:00.688056
3400  2023-11-10 15:16:00.735928
3401  2023-11-10 15:16:00.767842
3402  2023-11-10 15:16:00.799757
3403  2023-11-10 15:16:00.831707
3404  2023-11-10 15:16:00.863638
3405  2023-11-10 15:16:00.895641
3406  2023-11-10 15:16:00.927559
3407  2023-11-10 15:16:00.959508
3408  2023-11-10 15:16:00.991385
3409  2023-11-10 15:16:01.024297
3410  2023-11-10 15:16:01.055214
3411  2023-11-10 15:16:01.088126
3412  2023-11-10 15:16:01.135999
3413  2023-11-10 15:16:01.167913
3414  2023-11-10 15:16:01.199859
3415  2023-11-10 15:16:01.231773
3416  2023-11-10 15:16:01.263219
3417  2023-11-10 15:16:01.296131
3418  2023-11-10 15:16:01.328046
3419  2023-11-10 15:16:01.360017
3420  2023-11-10 15:16:01.391932
3421  2023-11-10 15:16:01.423847
3422  2023-11-10 15:16:01.455761
3423  2023-11-10 15:16:01.487676
3424  2023-11-10 15:16:01.535548
3425  2023-11-10 15:16:01.567463
3426  2023-11-10 15:16:01.599410
3427  2023-11-10 15:16:01.631296
3428  2023-11-10 15:16:01.664205
3429  2023-11-10 15:16:01.696165
3430  2023-11-10 15:16:01.728078
3431  2023-11-10 15:16:01.759993
3432  2023-11-10 15:16:01.791908
3433  2023-11-10 15:16:01.823857
3434  2023-11-10 15:16:01.855737
3435  2023-11-10 15:16:01.887652
3436  2023-11-10 15:16:01.935524
3437  2023-11-10 15:16:01.967438
3438  2023-11-10 15:16:01.999404
3439  2023-11-10 15:16:02.031313
3440  2023-11-10 15:16:02.064180
3441  2023-11-10 15:16:02.096094
3442  2023-11-10 15:16:02.128009
3443  2023-11-10 15:16:02.159930
3444  2023-11-10 15:16:02.191838
3445  2023-11-10 15:16:02.223753
3446  2023-11-10 15:16:02.255668
3447  2023-11-10 15:16:02.287582
3448  2023-11-10 15:16:02.335454
3449  2023-11-10 15:16:02.367306
3450  2023-11-10 15:16:02.400219
3451  2023-11-10 15:16:02.432133
3452  2023-11-10 15:16:02.464047
3453  2023-11-10 15:16:02.495962
3454  2023-11-10 15:16:02.527877
3455  2023-11-10 15:16:02.560814
3456  2023-11-10 15:16:02.591706
3457  2023-11-10 15:16:02.623621
3458  2023-11-10 15:16:02.655574
3459  2023-11-10 15:16:02.687503
3460  2023-11-10 15:16:02.735356
3461  2023-11-10 15:16:02.767623
3462  2023-11-10 15:16:02.799564
3463  2023-11-10 15:16:02.831452
3464  2023-11-10 15:16:02.863416
3465  2023-11-10 15:16:02.895281
3466  2023-11-10 15:16:02.928193
3467  2023-11-10 15:16:02.960116
3468  2023-11-10 15:16:02.992063
3469  2023-11-10 15:16:03.023971
3470  2023-11-10 15:16:03.055852
3471  2023-11-10 15:16:03.087767
3472  2023-11-10 15:16:03.135639
3473  2023-11-10 15:16:03.167700
3474  2023-11-10 15:16:03.199677
3475  2023-11-10 15:16:03.231530
3476  2023-11-10 15:16:03.263444
3477  2023-11-10 15:16:03.295359
3478  2023-11-10 15:16:03.327316
3479  2023-11-10 15:16:03.360227
3480  2023-11-10 15:16:03.392100
3481  2023-11-10 15:16:03.424015
3482  2023-11-10 15:16:03.455956
3483  2023-11-10 15:16:03.487844
3484  2023-11-10 15:16:03.535717
3485  2023-11-10 15:16:03.567631
3486  2023-11-10 15:16:03.599677
3487  2023-11-10 15:16:03.631591
3488  2023-11-10 15:16:03.663554
3489  2023-11-10 15:16:03.695420
3490  2023-11-10 15:16:03.727335
3491  2023-11-10 15:16:03.760247
3492  2023-11-10 15:16:03.792162
3493  2023-11-10 15:16:03.824077
3494  2023-11-10 15:16:03.856025
3495  2023-11-10 15:16:03.887906
3496  2023-11-10 15:16:03.935870
3497  2023-11-10 15:16:03.967828
3498  2023-11-10 15:16:03.999816
3499  2023-11-10 15:16:04.031779
3500  2023-11-10 15:16:04.063694
3501  2023-11-10 15:16:04.095656
3502  2023-11-10 15:16:04.127566
3503  2023-11-10 15:16:04.159530
3504  2023-11-10 15:16:04.192447
3505  2023-11-10 15:16:04.223441
3506  2023-11-10 15:16:04.256354
3507  2023-11-10 15:16:04.303228
3508  2023-11-10 15:16:04.336279
3509  2023-11-10 15:16:04.367232
3510  2023-11-10 15:16:04.399358
3511  2023-11-10 15:16:04.431272
3512  2023-11-10 15:16:04.464184
3513  2023-11-10 15:16:04.498134
3514  2023-11-10 15:16:04.530034
3515  2023-11-10 15:16:04.561954
3516  2023-11-10 15:16:04.592873
3517  2023-11-10 15:16:04.624791
3518  2023-11-10 15:16:04.657703
3519  2023-11-10 15:16:04.703545
3520  2023-11-10 15:16:04.737487
3521  2023-11-10 15:16:04.769415
3522  2023-11-10 15:16:04.800286
3523  2023-11-10 15:16:04.833231
3524  2023-11-10 15:16:04.865144
3525  2023-11-10 15:16:04.897058
3526  2023-11-10 15:16:04.928973
3527  2023-11-10 15:16:04.961881
3528  2023-11-10 15:16:04.992802
3529  2023-11-10 15:16:05.024717
3530  2023-11-10 15:16:05.056639
3531  2023-11-10 15:16:05.105513
3532  2023-11-10 15:16:05.137430
3533  2023-11-10 15:16:05.169333
3534  2023-11-10 15:16:05.201256
3535  2023-11-10 15:16:05.233177
3536  2023-11-10 15:16:05.265074
3537  2023-11-10 15:16:05.296988
3538  2023-11-10 15:16:05.328904
3539  2023-11-10 15:16:05.360812
3540  2023-11-10 15:16:05.392733
3541  2023-11-10 15:16:05.424674
3542  2023-11-10 15:16:05.456591
3543  2023-11-10 15:16:05.504502
3544  2023-11-10 15:16:05.536437
3545  2023-11-10 15:16:05.568333
3546  2023-11-10 15:16:05.600259
3547  2023-11-10 15:16:05.632651
3548  2023-11-10 15:16:05.664561
3549  2023-11-10 15:16:05.696472
3550  2023-11-10 15:16:05.728403
3551  2023-11-10 15:16:05.760406
3552  2023-11-10 15:16:05.792402
3553  2023-11-10 15:16:05.824301
3554  2023-11-10 15:16:05.856231
3555  2023-11-10 15:16:05.904162
3556  2023-11-10 15:16:05.936207
3557  2023-11-10 15:16:05.968119
3558  2023-11-10 15:16:06.000022
3559  2023-11-10 15:16:06.031941
3560  2023-11-10 15:16:06.063856
3561  2023-11-10 15:16:06.095771
