
1  2023-10-20 12:11:37.046238
2  2023-10-20 12:11:37.093951
3  2023-10-20 12:11:37.126878
4  2023-10-20 12:11:37.158860
5  2023-10-20 12:11:37.190751
6  2023-10-20 12:11:37.222699
7  2023-10-20 12:11:37.254613
8  2023-10-20 12:11:37.286487
9  2023-10-20 12:11:37.318402
10  2023-10-20 12:11:37.350357
11  2023-10-20 12:11:37.382230
12  2023-10-20 12:11:37.414189
13  2023-10-20 12:11:37.446059
14  2023-10-20 12:11:37.493959
15  2023-10-20 12:11:37.526843
16  2023-10-20 12:11:37.558793
17  2023-10-20 12:11:37.590719
18  2023-10-20 12:11:37.622586
19  2023-10-20 12:11:37.654500
20  2023-10-20 12:11:37.686452
21  2023-10-20 12:11:37.718371
22  2023-10-20 12:11:37.750243
23  2023-10-20 12:11:37.782192
24  2023-10-20 12:11:37.814106
25  2023-10-20 12:11:37.846027
26  2023-10-20 12:11:37.893975
27  2023-10-20 12:11:37.926887
28  2023-10-20 12:11:37.958802
29  2023-10-20 12:11:37.990716
30  2023-10-20 12:11:38.022630
31  2023-10-20 12:11:38.054545
32  2023-10-20 12:11:38.086459
33  2023-10-20 12:11:38.118374
34  2023-10-20 12:11:38.150289
35  2023-10-20 12:11:38.182203
36  2023-10-20 12:11:38.214117
37  2023-10-20 12:11:38.246031
38  2023-10-20 12:11:38.294902
39  2023-10-20 12:11:38.326850
40  2023-10-20 12:11:38.358874
41  2023-10-20 12:11:38.390730
42  2023-10-20 12:11:38.422645
43  2023-10-20 12:11:38.454559
44  2023-10-20 12:11:38.486537
45  2023-10-20 12:11:38.518462
46  2023-10-20 12:11:38.550376
47  2023-10-20 12:11:38.582291
48  2023-10-20 12:11:38.614241
49  2023-10-20 12:11:38.646120
50  2023-10-20 12:11:38.694082
51  2023-10-20 12:11:38.726993
52  2023-10-20 12:11:38.758908
53  2023-10-20 12:11:38.790822
54  2023-10-20 12:11:38.822736
55  2023-10-20 12:11:38.854651
56  2023-10-20 12:11:38.886566
57  2023-10-20 12:11:38.918480
58  2023-10-20 12:11:38.950394
59  2023-10-20 12:11:38.983306
60  2023-10-20 12:11:39.014322
61  2023-10-20 12:11:39.046237
62  2023-10-20 12:11:39.094142
63  2023-10-20 12:11:39.127083
64  2023-10-20 12:11:39.158997
65  2023-10-20 12:11:39.190928
66  2023-10-20 12:11:39.222827
67  2023-10-20 12:11:39.254750
68  2023-10-20 12:11:39.286655
69  2023-10-20 12:11:39.318569
70  2023-10-20 12:11:39.350484
71  2023-10-20 12:11:39.382398
72  2023-10-20 12:11:39.414312
73  2023-10-20 12:11:39.446227
74  2023-10-20 12:11:39.494098
75  2023-10-20 12:11:39.527011
76  2023-10-20 12:11:39.558926
77  2023-10-20 12:11:39.590846
78  2023-10-20 12:11:39.622753
79  2023-10-20 12:11:39.654667
80  2023-10-20 12:11:39.686582
81  2023-10-20 12:11:39.718496
82  2023-10-20 12:11:39.749926
83  2023-10-20 12:11:39.782838
84  2023-10-20 12:11:39.814821
85  2023-10-20 12:11:39.846748
86  2023-10-20 12:11:39.894619
87  2023-10-20 12:11:39.926533
88  2023-10-20 12:11:39.958448
89  2023-10-20 12:11:39.990363
90  2023-10-20 12:11:40.022357
91  2023-10-20 12:11:40.054258
92  2023-10-20 12:11:40.086176
93  2023-10-20 12:11:40.118056
94  2023-10-20 12:11:40.150005
95  2023-10-20 12:11:40.182087
96  2023-10-20 12:11:40.214038
97  2023-10-20 12:11:40.245952
98  2023-10-20 12:11:40.294046
99  2023-10-20 12:11:40.326049
100  2023-10-20 12:11:40.357963
101  2023-10-20 12:11:40.390876
102  2023-10-20 12:11:40.422790
103  2023-10-20 12:11:40.454704
104  2023-10-20 12:11:40.486619
105  2023-10-20 12:11:40.518555
106  2023-10-20 12:11:40.550470
107  2023-10-20 12:11:40.582385
108  2023-10-20 12:11:40.614298
109  2023-10-20 12:11:40.647212
110  2023-10-20 12:11:40.695083
111  2023-10-20 12:11:40.726999
112  2023-10-20 12:11:40.757942
113  2023-10-20 12:11:40.790840
114  2023-10-20 12:11:40.822739
115  2023-10-20 12:11:40.854653
116  2023-10-20 12:11:40.886602
117  2023-10-20 12:11:40.918200
118  2023-10-20 12:11:40.950083
119  2023-10-20 12:11:40.982037
120  2023-10-20 12:11:41.014943
121  2023-10-20 12:11:41.046857
122  2023-10-20 12:11:41.094860
123  2023-10-20 12:11:41.126883
124  2023-10-20 12:11:41.158829
125  2023-10-20 12:11:41.190742
126  2023-10-20 12:11:41.222626
127  2023-10-20 12:11:41.254540
128  2023-10-20 12:11:41.286455
129  2023-10-20 12:11:41.318369
130  2023-10-20 12:11:41.350283
131  2023-10-20 12:11:41.382197
132  2023-10-20 12:11:41.414112
133  2023-10-20 12:11:41.446027
134  2023-10-20 12:11:41.493898
135  2023-10-20 12:11:41.526810
136  2023-10-20 12:11:41.558724
137  2023-10-20 12:11:41.590638
138  2023-10-20 12:11:41.622619
139  2023-10-20 12:11:41.654539
140  2023-10-20 12:11:41.686833
141  2023-10-20 12:11:41.718747
142  2023-10-20 12:11:41.750662
143  2023-10-20 12:11:41.782576
144  2023-10-20 12:11:41.814490
145  2023-10-20 12:11:41.846485
146  2023-10-20 12:11:41.894357
147  2023-10-20 12:11:41.926273
148  2023-10-20 12:11:41.958186
149  2023-10-20 12:11:41.990100
150  2023-10-20 12:11:42.023012
151  2023-10-20 12:11:42.053929
152  2023-10-20 12:11:42.086841
153  2023-10-20 12:11:42.118755
154  2023-10-20 12:11:42.150669
155  2023-10-20 12:11:42.182687
156  2023-10-20 12:11:42.214707
157  2023-10-20 12:11:42.246621
158  2023-10-20 12:11:42.294493
159  2023-10-20 12:11:42.326516
160  2023-10-20 12:11:42.358430
161  2023-10-20 12:11:42.390357
162  2023-10-20 12:11:42.422399
163  2023-10-20 12:11:42.454303
164  2023-10-20 12:11:42.486219
165  2023-10-20 12:11:42.518214
166  2023-10-20 12:11:42.550129
167  2023-10-20 12:11:42.582043
168  2023-10-20 12:11:42.613957
169  2023-10-20 12:11:42.646869
170  2023-10-20 12:11:42.694741
171  2023-10-20 12:11:42.726656
172  2023-10-20 12:11:42.758570
173  2023-10-20 12:11:42.790484
174  2023-10-20 12:11:42.822398
175  2023-10-20 12:11:42.854325
176  2023-10-20 12:11:42.886227
177  2023-10-20 12:11:42.918206
178  2023-10-20 12:11:42.950123
179  2023-10-20 12:11:42.983004
180  2023-10-20 12:11:43.013952
181  2023-10-20 12:11:43.046467
182  2023-10-20 12:11:43.094338
183  2023-10-20 12:11:43.126253
184  2023-10-20 12:11:43.158167
185  2023-10-20 12:11:43.191166
186  2023-10-20 12:11:43.222088
187  2023-10-20 12:11:43.253997
188  2023-10-20 12:11:43.286909
189  2023-10-20 12:11:43.318823
190  2023-10-20 12:11:43.350786
191  2023-10-20 12:11:43.382753
192  2023-10-20 12:11:43.414780
193  2023-10-20 12:11:43.446684
194  2023-10-20 12:11:43.494605
195  2023-10-20 12:11:43.526386
196  2023-10-20 12:11:43.558291
197  2023-10-20 12:11:43.590169
198  2023-10-20 12:11:43.623081
199  2023-10-20 12:11:43.654047
200  2023-10-20 12:11:43.686910
201  2023-10-20 12:11:43.718163
202  2023-10-20 12:11:43.750077
203  2023-10-20 12:11:43.782082
204  2023-10-20 12:11:43.813957
205  2023-10-20 12:11:43.846915
206  2023-10-20 12:11:43.894787
207  2023-10-20 12:11:43.926701
208  2023-10-20 12:11:43.958748
209  2023-10-20 12:11:43.990662
210  2023-10-20 12:11:44.022576
211  2023-10-20 12:11:44.054589
212  2023-10-20 12:11:44.086042
213  2023-10-20 12:11:44.117979
214  2023-10-20 12:11:44.149925
215  2023-10-20 12:11:44.182804
216  2023-10-20 12:11:44.214719
217  2023-10-20 12:11:44.246633
218  2023-10-20 12:11:44.294504
219  2023-10-20 12:11:44.326419
220  2023-10-20 12:11:44.358333
221  2023-10-20 12:11:44.390247
222  2023-10-20 12:11:44.422162
223  2023-10-20 12:11:44.455074
224  2023-10-20 12:11:44.486988
225  2023-10-20 12:11:44.518931
226  2023-10-20 12:11:44.550817
227  2023-10-20 12:11:44.582731
228  2023-10-20 12:11:44.614646
229  2023-10-20 12:11:44.647570
230  2023-10-20 12:11:44.694834
231  2023-10-20 12:11:44.726772
232  2023-10-20 12:11:44.758695
233  2023-10-20 12:11:44.790656
234  2023-10-20 12:11:44.822608
235  2023-10-20 12:11:44.854577
236  2023-10-20 12:11:44.886491
237  2023-10-20 12:11:44.918406
238  2023-10-20 12:11:44.950444
239  2023-10-20 12:11:44.982361
240  2023-10-20 12:11:45.014242
241  2023-10-20 12:11:45.046156
242  2023-10-20 12:11:45.094028
243  2023-10-20 12:11:45.125942
244  2023-10-20 12:11:45.158854
245  2023-10-20 12:11:45.190769
246  2023-10-20 12:11:45.222682
247  2023-10-20 12:11:45.254718
248  2023-10-20 12:11:45.286632
249  2023-10-20 12:11:45.318546
250  2023-10-20 12:11:45.350080
251  2023-10-20 12:11:45.381994
252  2023-10-20 12:11:45.413908
253  2023-10-20 12:11:45.446820
254  2023-10-20 12:11:45.494692
255  2023-10-20 12:11:45.526606
256  2023-10-20 12:11:45.558521
257  2023-10-20 12:11:45.590435
258  2023-10-20 12:11:45.622450
259  2023-10-20 12:11:45.654331
260  2023-10-20 12:11:45.686246
261  2023-10-20 12:11:45.718254
262  2023-10-20 12:11:45.750125
263  2023-10-20 12:11:45.782041
264  2023-10-20 12:11:45.814004
265  2023-10-20 12:11:45.845918
266  2023-10-20 12:11:45.894822
267  2023-10-20 12:11:45.926702
268  2023-10-20 12:11:45.958616
269  2023-10-20 12:11:45.990582
270  2023-10-20 12:11:46.022538
271  2023-10-20 12:11:46.054443
272  2023-10-20 12:11:46.086357
273  2023-10-20 12:11:46.118409
274  2023-10-20 12:11:46.150421
275  2023-10-20 12:11:46.182379
276  2023-10-20 12:11:46.214300
277  2023-10-20 12:11:46.246208
278  2023-10-20 12:11:46.294079
279  2023-10-20 12:11:46.327026
280  2023-10-20 12:11:46.357908
281  2023-10-20 12:11:46.390820
282  2023-10-20 12:11:46.422003
283  2023-10-20 12:11:46.453970
284  2023-10-20 12:11:46.486830
285  2023-10-20 12:11:46.518744
286  2023-10-20 12:11:46.550658
287  2023-10-20 12:11:46.582573
288  2023-10-20 12:11:46.614487
289  2023-10-20 12:11:46.646401
290  2023-10-20 12:11:46.694390
291  2023-10-20 12:11:46.726305
292  2023-10-20 12:11:46.758869
293  2023-10-20 12:11:46.790789
294  2023-10-20 12:11:46.822693
295  2023-10-20 12:11:46.854607
296  2023-10-20 12:11:46.886601
297  2023-10-20 12:11:46.918515
298  2023-10-20 12:11:46.950505
299  2023-10-20 12:11:46.982419
300  2023-10-20 12:11:47.014335
301  2023-10-20 12:11:47.046248
302  2023-10-20 12:11:47.094120
303  2023-10-20 12:11:47.126034
304  2023-10-20 12:11:47.157948
305  2023-10-20 12:11:47.190860
306  2023-10-20 12:11:47.222774
307  2023-10-20 12:11:47.254689
308  2023-10-20 12:11:47.286603
309  2023-10-20 12:11:47.318517
310  2023-10-20 12:11:47.350432
311  2023-10-20 12:11:47.382346
312  2023-10-20 12:11:47.414261
313  2023-10-20 12:11:47.446178
314  2023-10-20 12:11:47.494046
315  2023-10-20 12:11:47.526958
316  2023-10-20 12:11:47.557875
317  2023-10-20 12:11:47.590787
318  2023-10-20 12:11:47.622785
319  2023-10-20 12:11:47.654695
320  2023-10-20 12:11:47.686614
321  2023-10-20 12:11:47.718532
322  2023-10-20 12:11:47.750442
323  2023-10-20 12:11:47.782326
324  2023-10-20 12:11:47.814288
325  2023-10-20 12:11:47.846198
326  2023-10-20 12:11:47.895025
327  2023-10-20 12:11:47.925973
328  2023-10-20 12:11:47.957896
329  2023-10-20 12:11:47.990767
330  2023-10-20 12:11:48.022681
331  2023-10-20 12:11:48.054634
332  2023-10-20 12:11:48.086546
333  2023-10-20 12:11:48.118469
334  2023-10-20 12:11:48.150339
335  2023-10-20 12:11:48.182293
336  2023-10-20 12:11:48.214207
337  2023-10-20 12:11:48.246121
338  2023-10-20 12:11:48.293993
339  2023-10-20 12:11:48.325940
340  2023-10-20 12:11:48.358866
341  2023-10-20 12:11:48.390775
342  2023-10-20 12:11:48.422834
343  2023-10-20 12:11:48.454743
344  2023-10-20 12:11:48.486697
345  2023-10-20 12:11:48.518571
346  2023-10-20 12:11:48.550486
347  2023-10-20 12:11:48.582186
348  2023-10-20 12:11:48.614143
349  2023-10-20 12:11:48.646015
350  2023-10-20 12:11:48.694549
351  2023-10-20 12:11:48.726516
352  2023-10-20 12:11:48.758430
353  2023-10-20 12:11:48.790345
354  2023-10-20 12:11:48.822259
355  2023-10-20 12:11:48.854173
356  2023-10-20 12:11:48.886088
357  2023-10-20 12:11:48.918002
358  2023-10-20 12:11:48.949916
359  2023-10-20 12:11:48.981890
360  2023-10-20 12:11:49.013860
361  2023-10-20 12:11:49.046812
362  2023-10-20 12:11:49.094715
363  2023-10-20 12:11:49.126629
364  2023-10-20 12:11:49.158729
365  2023-10-20 12:11:49.190644
366  2023-10-20 12:11:49.222558
367  2023-10-20 12:11:49.254473
368  2023-10-20 12:11:49.286387
369  2023-10-20 12:11:49.318303
370  2023-10-20 12:11:49.350216
371  2023-10-20 12:11:49.382130
372  2023-10-20 12:11:49.414044
373  2023-10-20 12:11:49.445959
374  2023-10-20 12:11:49.493830
375  2023-10-20 12:11:49.526742
376  2023-10-20 12:11:49.558656
377  2023-10-20 12:11:49.590571
378  2023-10-20 12:11:49.622698
379  2023-10-20 12:11:49.654615
380  2023-10-20 12:11:49.686538
381  2023-10-20 12:11:49.718441
382  2023-10-20 12:11:49.750355
383  2023-10-20 12:11:49.782310
384  2023-10-20 12:11:49.814223
385  2023-10-20 12:11:49.846098
386  2023-10-20 12:11:49.893970
387  2023-10-20 12:11:49.926882
388  2023-10-20 12:11:49.958796
389  2023-10-20 12:11:49.990753
390  2023-10-20 12:11:50.022716
391  2023-10-20 12:11:50.054752
392  2023-10-20 12:11:50.086733
393  2023-10-20 12:11:50.118642
394  2023-10-20 12:11:50.150589
395  2023-10-20 12:11:50.182543
396  2023-10-20 12:11:50.214457
397  2023-10-20 12:11:50.246371
398  2023-10-20 12:11:50.294243
399  2023-10-20 12:11:50.326193
400  2023-10-20 12:11:50.358106
401  2023-10-20 12:11:50.389986
402  2023-10-20 12:11:50.422898
403  2023-10-20 12:11:50.454825
404  2023-10-20 12:11:50.486759
405  2023-10-20 12:11:50.518649
406  2023-10-20 12:11:50.550555
407  2023-10-20 12:11:50.582470
408  2023-10-20 12:11:50.614420
409  2023-10-20 12:11:50.646299
410  2023-10-20 12:11:50.694858
411  2023-10-20 12:11:50.726772
412  2023-10-20 12:11:50.758686
413  2023-10-20 12:11:50.790601
414  2023-10-20 12:11:50.822516
415  2023-10-20 12:11:50.854429
416  2023-10-20 12:11:50.886344
417  2023-10-20 12:11:50.918262
418  2023-10-20 12:11:50.950172
419  2023-10-20 12:11:50.982087
420  2023-10-20 12:11:51.014999
421  2023-10-20 12:11:51.046914
422  2023-10-20 12:11:51.094784
423  2023-10-20 12:11:51.126699
424  2023-10-20 12:11:51.158615
425  2023-10-20 12:11:51.190528
426  2023-10-20 12:11:51.222442
427  2023-10-20 12:11:51.254424
428  2023-10-20 12:11:51.286398
429  2023-10-20 12:11:51.318312
430  2023-10-20 12:11:51.351224
431  2023-10-20 12:11:51.383139
432  2023-10-20 12:11:51.414055
433  2023-10-20 12:11:51.446968
434  2023-10-20 12:11:51.494846
435  2023-10-20 12:11:51.526786
436  2023-10-20 12:11:51.558669
437  2023-10-20 12:11:51.590596
438  2023-10-20 12:11:51.622497
439  2023-10-20 12:11:51.654489
440  2023-10-20 12:11:51.686438
441  2023-10-20 12:11:51.718176
442  2023-10-20 12:11:51.750090
443  2023-10-20 12:11:51.782007
444  2023-10-20 12:11:51.814951
445  2023-10-20 12:11:51.846743
446  2023-10-20 12:11:51.894776
447  2023-10-20 12:11:51.926751
448  2023-10-20 12:11:51.958622
449  2023-10-20 12:11:51.990589
450  2023-10-20 12:11:52.022500
451  2023-10-20 12:11:52.054414
452  2023-10-20 12:11:52.086471
453  2023-10-20 12:11:52.118487
454  2023-10-20 12:11:52.150437
455  2023-10-20 12:11:52.182394
456  2023-10-20 12:11:52.214358
457  2023-10-20 12:11:52.246261
458  2023-10-20 12:11:52.294095
459  2023-10-20 12:11:52.326009
460  2023-10-20 12:11:52.357960
461  2023-10-20 12:11:52.390898
462  2023-10-20 12:11:52.422750
463  2023-10-20 12:11:52.454695
464  2023-10-20 12:11:52.486609
465  2023-10-20 12:11:52.518492
466  2023-10-20 12:11:52.550437
467  2023-10-20 12:11:52.582367
468  2023-10-20 12:11:52.614269
469  2023-10-20 12:11:52.646151
470  2023-10-20 12:11:52.694065
471  2023-10-20 12:11:52.725937
472  2023-10-20 12:11:52.758879
473  2023-10-20 12:11:52.790796
474  2023-10-20 12:11:52.822745
475  2023-10-20 12:11:52.854600
476  2023-10-20 12:11:52.886532
477  2023-10-20 12:11:52.918450
478  2023-10-20 12:11:52.950365
479  2023-10-20 12:11:52.982249
480  2023-10-20 12:11:53.014163
481  2023-10-20 12:11:53.046078
482  2023-10-20 12:11:53.093949
483  2023-10-20 12:11:53.125865
484  2023-10-20 12:11:53.158774
485  2023-10-20 12:11:53.190731
486  2023-10-20 12:11:53.222634
487  2023-10-20 12:11:53.254550
488  2023-10-20 12:11:53.286465
489  2023-10-20 12:11:53.318379
490  2023-10-20 12:11:53.350294
491  2023-10-20 12:11:53.382225
492  2023-10-20 12:11:53.414132
493  2023-10-20 12:11:53.446035
494  2023-10-20 12:11:53.493876
495  2023-10-20 12:11:53.525831
496  2023-10-20 12:11:53.558733
497  2023-10-20 12:11:53.590647
498  2023-10-20 12:11:53.622561
499  2023-10-20 12:11:53.654481
500  2023-10-20 12:11:53.686391
501  2023-10-20 12:11:53.718403
502  2023-10-20 12:11:53.750318
503  2023-10-20 12:11:53.782269
504  2023-10-20 12:11:53.814185
505  2023-10-20 12:11:53.846069
506  2023-10-20 12:11:53.893964
507  2023-10-20 12:11:53.925886
508  2023-10-20 12:11:53.957796
509  2023-10-20 12:11:53.990705
510  2023-10-20 12:11:54.022619
511  2023-10-20 12:11:54.054542
512  2023-10-20 12:11:54.086448
513  2023-10-20 12:11:54.118370
514  2023-10-20 12:11:54.150276
515  2023-10-20 12:11:54.182190
516  2023-10-20 12:11:54.214112
517  2023-10-20 12:11:54.246028
518  2023-10-20 12:11:54.293893
519  2023-10-20 12:11:54.325815
520  2023-10-20 12:11:54.358686
521  2023-10-20 12:11:54.390635
522  2023-10-20 12:11:54.422553
523  2023-10-20 12:11:54.454459
524  2023-10-20 12:11:54.486293
525  2023-10-20 12:11:54.518177
526  2023-10-20 12:11:54.550135
527  2023-10-20 12:11:54.581997
528  2023-10-20 12:11:54.614056
529  2023-10-20 12:11:54.645918
530  2023-10-20 12:11:54.693806
531  2023-10-20 12:11:54.725734
532  2023-10-20 12:11:54.758648
533  2023-10-20 12:11:54.790560
534  2023-10-20 12:11:54.822478
535  2023-10-20 12:11:54.854393
536  2023-10-20 12:11:54.886382
537  2023-10-20 12:11:54.917785
538  2023-10-20 12:11:54.950701
539  2023-10-20 12:11:54.982614
540  2023-10-20 12:11:55.014605
541  2023-10-20 12:11:55.046518
542  2023-10-20 12:11:55.094392
543  2023-10-20 12:11:55.126312
544  2023-10-20 12:11:55.158221
545  2023-10-20 12:11:55.190102
546  2023-10-20 12:11:55.222047
547  2023-10-20 12:11:55.253961
548  2023-10-20 12:11:55.285879
549  2023-10-20 12:11:55.318795
550  2023-10-20 12:11:55.350672
551  2023-10-20 12:11:55.382617
552  2023-10-20 12:11:55.414535
553  2023-10-20 12:11:55.446459
554  2023-10-20 12:11:55.494317
555  2023-10-20 12:11:55.526234
556  2023-10-20 12:11:55.558155
557  2023-10-20 12:11:55.590029
558  2023-10-20 12:11:55.621995
559  2023-10-20 12:11:55.653889
560  2023-10-20 12:11:55.685817
561  2023-10-20 12:11:55.718718
562  2023-10-20 12:11:55.750636
563  2023-10-20 12:11:55.782521
564  2023-10-20 12:11:55.814478
565  2023-10-20 12:11:55.846388
566  2023-10-20 12:11:55.894275
567  2023-10-20 12:11:55.926159
568  2023-10-20 12:11:55.958080
569  2023-10-20 12:11:55.989957
570  2023-10-20 12:11:56.021908
571  2023-10-20 12:11:56.053821
572  2023-10-20 12:11:56.086730
573  2023-10-20 12:11:56.118663
574  2023-10-20 12:11:56.150558
575  2023-10-20 12:11:56.182471
576  2023-10-20 12:11:56.214385
577  2023-10-20 12:11:56.246301
578  2023-10-20 12:11:56.294182
579  2023-10-20 12:11:56.326090
580  2023-10-20 12:11:56.358000
581  2023-10-20 12:11:56.389918
582  2023-10-20 12:11:56.421833
583  2023-10-20 12:11:56.453751
584  2023-10-20 12:11:56.486656
585  2023-10-20 12:11:56.518572
586  2023-10-20 12:11:56.550485
587  2023-10-20 12:11:56.582415
588  2023-10-20 12:11:56.614325
589  2023-10-20 12:11:56.646254
590  2023-10-20 12:11:56.694101
591  2023-10-20 12:11:56.726022
592  2023-10-20 12:11:56.757938
593  2023-10-20 12:11:56.789844
594  2023-10-20 12:11:56.821759
595  2023-10-20 12:11:56.854671
596  2023-10-20 12:11:56.886585
597  2023-10-20 12:11:56.918501
598  2023-10-20 12:11:56.950412
599  2023-10-20 12:11:56.982296
600  2023-10-20 12:11:57.014248
601  2023-10-20 12:11:57.046172
602  2023-10-20 12:11:57.094025
603  2023-10-20 12:11:57.126519
604  2023-10-20 12:11:57.158432
605  2023-10-20 12:11:57.190316
606  2023-10-20 12:11:57.222274
607  2023-10-20 12:11:57.254188
608  2023-10-20 12:11:57.286096
609  2023-10-20 12:11:57.318005
610  2023-10-20 12:11:57.349917
611  2023-10-20 12:11:57.381833
612  2023-10-20 12:11:57.414753
613  2023-10-20 12:11:57.446668
614  2023-10-20 12:11:57.494530
615  2023-10-20 12:11:57.526448
616  2023-10-20 12:11:57.558354
617  2023-10-20 12:11:57.590274
618  2023-10-20 12:11:57.622189
619  2023-10-20 12:11:57.654070
620  2023-10-20 12:11:57.685984
621  2023-10-20 12:11:57.717937
622  2023-10-20 12:11:57.749904
623  2023-10-20 12:11:57.781906
624  2023-10-20 12:11:57.813819
625  2023-10-20 12:11:57.846740
626  2023-10-20 12:11:57.894614
627  2023-10-20 12:11:57.926519
628  2023-10-20 12:11:57.958445
629  2023-10-20 12:11:57.990350
630  2023-10-20 12:11:58.022259
631  2023-10-20 12:11:58.054186
632  2023-10-20 12:11:58.086091
633  2023-10-20 12:11:58.118006
634  2023-10-20 12:11:58.150916
635  2023-10-20 12:11:58.182832
636  2023-10-20 12:11:58.214716
637  2023-10-20 12:11:58.246661
638  2023-10-20 12:11:58.294534
639  2023-10-20 12:11:58.326446
640  2023-10-20 12:11:58.358697
641  2023-10-20 12:11:58.390607
642  2023-10-20 12:11:58.422522
643  2023-10-20 12:11:58.454437
644  2023-10-20 12:11:58.486351
645  2023-10-20 12:11:58.518264
646  2023-10-20 12:11:58.550186
647  2023-10-20 12:11:58.582111
648  2023-10-20 12:11:58.614010
649  2023-10-20 12:11:58.646919
650  2023-10-20 12:11:58.694790
651  2023-10-20 12:11:58.726735
652  2023-10-20 12:11:58.758589
653  2023-10-20 12:11:58.790541
654  2023-10-20 12:11:58.822452
655  2023-10-20 12:11:58.855338
656  2023-10-20 12:11:58.886277
657  2023-10-20 12:11:58.918197
658  2023-10-20 12:11:58.950099
659  2023-10-20 12:11:58.981988
660  2023-10-20 12:11:59.014935
661  2023-10-20 12:11:59.046851
662  2023-10-20 12:11:59.094686
663  2023-10-20 12:11:59.126633
664  2023-10-20 12:11:59.158546
665  2023-10-20 12:11:59.190463
666  2023-10-20 12:11:59.222344
667  2023-10-20 12:11:59.254290
668  2023-10-20 12:11:59.286243
669  2023-10-20 12:11:59.318211
670  2023-10-20 12:11:59.351104
671  2023-10-20 12:11:59.382020
672  2023-10-20 12:11:59.413934
673  2023-10-20 12:11:59.446817
674  2023-10-20 12:11:59.494725
675  2023-10-20 12:11:59.526603
676  2023-10-20 12:11:59.558557
677  2023-10-20 12:11:59.590543
678  2023-10-20 12:11:59.622458
679  2023-10-20 12:11:59.654410
680  2023-10-20 12:11:59.686288
681  2023-10-20 12:11:59.718201
682  2023-10-20 12:11:59.750114
683  2023-10-20 12:11:59.782044
684  2023-10-20 12:11:59.813953
685  2023-10-20 12:11:59.846854
686  2023-10-20 12:11:59.894737
687  2023-10-20 12:11:59.926653
688  2023-10-20 12:11:59.958555
689  2023-10-20 12:11:59.990472
690  2023-10-20 12:12:00.022385
691  2023-10-20 12:12:00.054300
692  2023-10-20 12:12:00.086223
693  2023-10-20 12:12:00.118126
694  2023-10-20 12:12:00.150041
695  2023-10-20 12:12:00.181956
696  2023-10-20 12:12:00.213869
697  2023-10-20 12:12:00.246791
698  2023-10-20 12:12:00.294662
699  2023-10-20 12:12:00.326568
700  2023-10-20 12:12:00.358483
701  2023-10-20 12:12:00.390367
702  2023-10-20 12:12:00.422311
703  2023-10-20 12:12:00.454229
704  2023-10-20 12:12:00.486137
705  2023-10-20 12:12:00.518054
706  2023-10-20 12:12:00.549970
707  2023-10-20 12:12:00.581882
708  2023-10-20 12:12:00.613805
709  2023-10-20 12:12:00.645713
710  2023-10-20 12:12:00.694582
711  2023-10-20 12:12:00.726495
712  2023-10-20 12:12:00.758415
713  2023-10-20 12:12:00.790324
714  2023-10-20 12:12:00.822239
715  2023-10-20 12:12:00.855119
716  2023-10-20 12:12:00.886091
717  2023-10-20 12:12:00.917953
718  2023-10-20 12:12:00.949897
719  2023-10-20 12:12:00.982776
720  2023-10-20 12:12:01.014691
721  2023-10-20 12:12:01.046638
722  2023-10-20 12:12:01.094476
723  2023-10-20 12:12:01.126422
724  2023-10-20 12:12:01.158336
725  2023-10-20 12:12:01.190250
726  2023-10-20 12:12:01.222134
727  2023-10-20 12:12:01.254088
728  2023-10-20 12:12:01.285997
729  2023-10-20 12:12:01.318586
730  2023-10-20 12:12:01.350606
731  2023-10-20 12:12:01.382478
732  2023-10-20 12:12:01.414393
733  2023-10-20 12:12:01.446340
734  2023-10-20 12:12:01.493959
735  2023-10-20 12:12:01.525965
736  2023-10-20 12:12:01.557879
737  2023-10-20 12:12:01.589794
738  2023-10-20 12:12:01.621708
739  2023-10-20 12:12:01.654642
740  2023-10-20 12:12:01.686504
741  2023-10-20 12:12:01.718450
742  2023-10-20 12:12:01.750364
743  2023-10-20 12:12:01.782290
744  2023-10-20 12:12:01.814161
745  2023-10-20 12:12:01.846076
746  2023-10-20 12:12:01.893947
747  2023-10-20 12:12:01.925862
748  2023-10-20 12:12:01.957813
749  2023-10-20 12:12:01.990689
750  2023-10-20 12:12:02.022640
751  2023-10-20 12:12:02.054516
752  2023-10-20 12:12:02.086431
753  2023-10-20 12:12:02.118377
754  2023-10-20 12:12:02.150293
755  2023-10-20 12:12:02.182224
756  2023-10-20 12:12:02.214088
757  2023-10-20 12:12:02.246003
758  2023-10-20 12:12:02.294873
759  2023-10-20 12:12:02.325801
760  2023-10-20 12:12:02.358702
761  2023-10-20 12:12:02.390616
762  2023-10-20 12:12:02.422530
763  2023-10-20 12:12:02.454445
764  2023-10-20 12:12:02.486359
765  2023-10-20 12:12:02.518298
766  2023-10-20 12:12:02.550188
767  2023-10-20 12:12:02.582102
768  2023-10-20 12:12:02.614017
769  2023-10-20 12:12:02.645962
770  2023-10-20 12:12:02.693841
771  2023-10-20 12:12:02.726717
772  2023-10-20 12:12:02.758629
773  2023-10-20 12:12:02.790543
774  2023-10-20 12:12:02.822490
775  2023-10-20 12:12:02.854403
776  2023-10-20 12:12:02.886286
777  2023-10-20 12:12:02.918201
778  2023-10-20 12:12:02.950149
779  2023-10-20 12:12:02.982076
780  2023-10-20 12:12:03.013944
781  2023-10-20 12:12:03.045858
782  2023-10-20 12:12:03.094727
783  2023-10-20 12:12:03.126641
784  2023-10-20 12:12:03.158556
785  2023-10-20 12:12:03.190470
786  2023-10-20 12:12:03.222384
787  2023-10-20 12:12:03.254298
788  2023-10-20 12:12:03.286213
789  2023-10-20 12:12:03.318161
790  2023-10-20 12:12:03.350042
791  2023-10-20 12:12:03.381956
792  2023-10-20 12:12:03.413871
793  2023-10-20 12:12:03.445785
794  2023-10-20 12:12:03.494654
795  2023-10-20 12:12:03.526676
796  2023-10-20 12:12:03.558648
797  2023-10-20 12:12:03.590562
798  2023-10-20 12:12:03.622476
799  2023-10-20 12:12:03.654391
800  2023-10-20 12:12:03.686305
801  2023-10-20 12:12:03.718220
802  2023-10-20 12:12:03.750134
803  2023-10-20 12:12:03.782050
804  2023-10-20 12:12:03.813963
805  2023-10-20 12:12:03.845877
806  2023-10-20 12:12:03.893749
807  2023-10-20 12:12:03.926667
808  2023-10-20 12:12:03.958575
809  2023-10-20 12:12:03.990489
810  2023-10-20 12:12:04.022403
811  2023-10-20 12:12:04.054318
812  2023-10-20 12:12:04.086232
813  2023-10-20 12:12:04.118147
814  2023-10-20 12:12:04.150087
815  2023-10-20 12:12:04.181975
816  2023-10-20 12:12:04.213890
817  2023-10-20 12:12:04.245804
818  2023-10-20 12:12:04.294673
819  2023-10-20 12:12:04.326587
820  2023-10-20 12:12:04.358533
821  2023-10-20 12:12:04.390416
822  2023-10-20 12:12:04.422330
823  2023-10-20 12:12:04.454245
824  2023-10-20 12:12:04.486191
825  2023-10-20 12:12:04.518073
826  2023-10-20 12:12:04.549988
827  2023-10-20 12:12:04.581902
828  2023-10-20 12:12:04.614860
829  2023-10-20 12:12:04.645764
830  2023-10-20 12:12:04.693789
831  2023-10-20 12:12:04.725712
832  2023-10-20 12:12:04.758632
833  2023-10-20 12:12:04.790547
834  2023-10-20 12:12:04.822461
835  2023-10-20 12:12:04.854375
836  2023-10-20 12:12:04.886290
837  2023-10-20 12:12:04.918204
838  2023-10-20 12:12:04.950119
839  2023-10-20 12:12:04.982033
840  2023-10-20 12:12:05.013947
841  2023-10-20 12:12:05.045862
842  2023-10-20 12:12:05.093733
843  2023-10-20 12:12:05.126645
844  2023-10-20 12:12:05.158612
845  2023-10-20 12:12:05.190608
846  2023-10-20 12:12:05.222522
847  2023-10-20 12:12:05.254437
848  2023-10-20 12:12:05.286351
849  2023-10-20 12:12:05.318265
850  2023-10-20 12:12:05.350180
851  2023-10-20 12:12:05.382094
852  2023-10-20 12:12:05.414008
853  2023-10-20 12:12:05.445923
854  2023-10-20 12:12:05.493795
855  2023-10-20 12:12:05.526738
856  2023-10-20 12:12:05.558673
857  2023-10-20 12:12:05.590535
858  2023-10-20 12:12:05.622449
859  2023-10-20 12:12:05.654403
860  2023-10-20 12:12:05.686278
861  2023-10-20 12:12:05.718192
862  2023-10-20 12:12:05.750107
863  2023-10-20 12:12:05.782021
864  2023-10-20 12:12:05.813936
865  2023-10-20 12:12:05.845850
866  2023-10-20 12:12:05.893721
867  2023-10-20 12:12:05.925636
868  2023-10-20 12:12:05.958368
869  2023-10-20 12:12:05.990283
870  2023-10-20 12:12:06.022197
871  2023-10-20 12:12:06.054111
872  2023-10-20 12:12:06.086026
873  2023-10-20 12:12:06.117940
874  2023-10-20 12:12:06.149855
875  2023-10-20 12:12:06.181769
876  2023-10-20 12:12:06.213683
877  2023-10-20 12:12:06.246595
878  2023-10-20 12:12:06.294466
879  2023-10-20 12:12:06.326381
880  2023-10-20 12:12:06.358295
881  2023-10-20 12:12:06.390210
882  2023-10-20 12:12:06.422124
883  2023-10-20 12:12:06.454038
884  2023-10-20 12:12:06.485953
885  2023-10-20 12:12:06.518865
886  2023-10-20 12:12:06.550779
887  2023-10-20 12:12:06.582693
888  2023-10-20 12:12:06.614608
889  2023-10-20 12:12:06.646525
890  2023-10-20 12:12:06.694428
891  2023-10-20 12:12:06.726342
892  2023-10-20 12:12:06.758299
893  2023-10-20 12:12:06.790172
894  2023-10-20 12:12:06.822146
895  2023-10-20 12:12:06.854185
896  2023-10-20 12:12:06.886067
897  2023-10-20 12:12:06.917980
898  2023-10-20 12:12:06.949929
899  2023-10-20 12:12:06.981849
900  2023-10-20 12:12:07.013723
901  2023-10-20 12:12:07.046635
902  2023-10-20 12:12:07.094506
903  2023-10-20 12:12:07.126421
904  2023-10-20 12:12:07.158368
905  2023-10-20 12:12:07.190281
906  2023-10-20 12:12:07.222164
907  2023-10-20 12:12:07.254078
908  2023-10-20 12:12:07.286024
909  2023-10-20 12:12:07.317940
910  2023-10-20 12:12:07.349821
911  2023-10-20 12:12:07.381735
912  2023-10-20 12:12:07.414199
913  2023-10-20 12:12:07.446092
914  2023-10-20 12:12:07.493999
915  2023-10-20 12:12:07.525913
916  2023-10-20 12:12:07.557828
917  2023-10-20 12:12:07.589742
918  2023-10-20 12:12:07.622654
919  2023-10-20 12:12:07.654568
920  2023-10-20 12:12:07.686482
921  2023-10-20 12:12:07.718397
922  2023-10-20 12:12:07.750311
923  2023-10-20 12:12:07.782226
924  2023-10-20 12:12:07.814153
925  2023-10-20 12:12:07.846054
926  2023-10-20 12:12:07.893926
927  2023-10-20 12:12:07.926838
928  2023-10-20 12:12:07.957755
929  2023-10-20 12:12:07.990481
930  2023-10-20 12:12:08.022395
931  2023-10-20 12:12:08.054310
932  2023-10-20 12:12:08.086224
933  2023-10-20 12:12:08.118376
934  2023-10-20 12:12:08.150291
935  2023-10-20 12:12:08.182205
936  2023-10-20 12:12:08.214119
937  2023-10-20 12:12:08.246033
938  2023-10-20 12:12:08.293905
939  2023-10-20 12:12:08.325869
940  2023-10-20 12:12:08.357774
941  2023-10-20 12:12:08.390645
942  2023-10-20 12:12:08.422560
943  2023-10-20 12:12:08.454474
944  2023-10-20 12:12:08.486428
945  2023-10-20 12:12:08.518303
946  2023-10-20 12:12:08.550217
947  2023-10-20 12:12:08.582143
948  2023-10-20 12:12:08.614091
949  2023-10-20 12:12:08.645960
950  2023-10-20 12:12:08.693871
951  2023-10-20 12:12:08.725746
952  2023-10-20 12:12:08.757661
953  2023-10-20 12:12:08.790572
954  2023-10-20 12:12:08.822487
955  2023-10-20 12:12:08.854401
956  2023-10-20 12:12:08.886315
957  2023-10-20 12:12:08.918230
958  2023-10-20 12:12:08.950181
959  2023-10-20 12:12:08.982066
960  2023-10-20 12:12:09.013973
961  2023-10-20 12:12:09.045887
962  2023-10-20 12:12:09.094756
963  2023-10-20 12:12:09.125673
964  2023-10-20 12:12:09.158585
965  2023-10-20 12:12:09.190499
966  2023-10-20 12:12:09.222414
967  2023-10-20 12:12:09.254328
968  2023-10-20 12:12:09.286243
969  2023-10-20 12:12:09.318157
970  2023-10-20 12:12:09.351069
971  2023-10-20 12:12:09.381986
972  2023-10-20 12:12:09.413900
973  2023-10-20 12:12:09.446812
974  2023-10-20 12:12:09.493686
975  2023-10-20 12:12:09.526446
976  2023-10-20 12:12:09.558414
977  2023-10-20 12:12:09.590328
978  2023-10-20 12:12:09.622282
979  2023-10-20 12:12:09.654240
980  2023-10-20 12:12:09.686155
981  2023-10-20 12:12:09.718813
982  2023-10-20 12:12:09.750727
983  2023-10-20 12:12:09.782641
984  2023-10-20 12:12:09.814560
985  2023-10-20 12:12:09.846470
986  2023-10-20 12:12:09.894342
987  2023-10-20 12:12:09.926256
988  2023-10-20 12:12:09.958244
989  2023-10-20 12:12:09.990127
990  2023-10-20 12:12:10.022082
991  2023-10-20 12:12:10.054029
992  2023-10-20 12:12:10.085943
993  2023-10-20 12:12:10.117888
994  2023-10-20 12:12:10.150770
995  2023-10-20 12:12:10.182683
996  2023-10-20 12:12:10.214598
997  2023-10-20 12:12:10.246512
998  2023-10-20 12:12:10.294384
999  2023-10-20 12:12:10.326013
1000  2023-10-20 12:12:10.357925
1001  2023-10-20 12:12:10.389807
1002  2023-10-20 12:12:10.421721
1003  2023-10-20 12:12:10.453676
1004  2023-10-20 12:12:10.486547
1005  2023-10-20 12:12:10.518461
1006  2023-10-20 12:12:10.550457
1007  2023-10-20 12:12:10.582372
1008  2023-10-20 12:12:10.614286
1009  2023-10-20 12:12:10.646201
1010  2023-10-20 12:12:10.694072
1011  2023-10-20 12:12:10.725986
1012  2023-10-20 12:12:10.757901
1013  2023-10-20 12:12:10.789815
1014  2023-10-20 12:12:10.821729
1015  2023-10-20 12:12:10.853644
1016  2023-10-20 12:12:10.886556
1017  2023-10-20 12:12:10.918470
1018  2023-10-20 12:12:10.950384
1019  2023-10-20 12:12:10.982299
1020  2023-10-20 12:12:11.014213
1021  2023-10-20 12:12:11.046130
1022  2023-10-20 12:12:11.093999
1023  2023-10-20 12:12:11.125913
1024  2023-10-20 12:12:11.157828
1025  2023-10-20 12:12:11.189742
1026  2023-10-20 12:12:11.222654
1027  2023-10-20 12:12:11.254568
1028  2023-10-20 12:12:11.286483
1029  2023-10-20 12:12:11.318397
1030  2023-10-20 12:12:11.350311
1031  2023-10-20 12:12:11.382347
1032  2023-10-20 12:12:11.414261
1033  2023-10-20 12:12:11.446175
1034  2023-10-20 12:12:11.494047
1035  2023-10-20 12:12:11.526078
1036  2023-10-20 12:12:11.557993
1037  2023-10-20 12:12:11.589907
1038  2023-10-20 12:12:11.621821
1039  2023-10-20 12:12:11.653736
1040  2023-10-20 12:12:11.685650
1041  2023-10-20 12:12:11.718562
1042  2023-10-20 12:12:11.750476
1043  2023-10-20 12:12:11.782391
1044  2023-10-20 12:12:11.814305
1045  2023-10-20 12:12:11.846219
1046  2023-10-20 12:12:11.894091
1047  2023-10-20 12:12:11.926005
1048  2023-10-20 12:12:11.957920
1049  2023-10-20 12:12:11.989834
1050  2023-10-20 12:12:12.022751
1051  2023-10-20 12:12:12.053671
1052  2023-10-20 12:12:12.086575
1053  2023-10-20 12:12:12.118489
1054  2023-10-20 12:12:12.150439
1055  2023-10-20 12:12:12.182318
1056  2023-10-20 12:12:12.214232
1057  2023-10-20 12:12:12.246146
1058  2023-10-20 12:12:12.294018
1059  2023-10-20 12:12:12.325939
1060  2023-10-20 12:12:12.357880
1061  2023-10-20 12:12:12.389761
1062  2023-10-20 12:12:12.421675
1063  2023-10-20 12:12:12.453741
1064  2023-10-20 12:12:12.485700
1065  2023-10-20 12:12:12.518318
1066  2023-10-20 12:12:12.550290
1067  2023-10-20 12:12:12.582188
1068  2023-10-20 12:12:12.614134
1069  2023-10-20 12:12:12.646056
1070  2023-10-20 12:12:12.693923
1071  2023-10-20 12:12:12.725960
1072  2023-10-20 12:12:12.758000
1073  2023-10-20 12:12:12.789915
1074  2023-10-20 12:12:12.821862
1075  2023-10-20 12:12:12.853744
1076  2023-10-20 12:12:12.885659
1077  2023-10-20 12:12:12.918570
1078  2023-10-20 12:12:12.950485
1079  2023-10-20 12:12:12.982404
1080  2023-10-20 12:12:13.014313
1081  2023-10-20 12:12:13.046228
1082  2023-10-20 12:12:13.094099
1083  2023-10-20 12:12:13.126014
1084  2023-10-20 12:12:13.157928
1085  2023-10-20 12:12:13.189842
1086  2023-10-20 12:12:13.221757
1087  2023-10-20 12:12:13.253824
1088  2023-10-20 12:12:13.285739
1089  2023-10-20 12:12:13.317653
1090  2023-10-20 12:12:13.350565
1091  2023-10-20 12:12:13.382479
1092  2023-10-20 12:12:13.414394
1093  2023-10-20 12:12:13.446308
1094  2023-10-20 12:12:13.494362
1095  2023-10-20 12:12:13.526276
1096  2023-10-20 12:12:13.558190
1097  2023-10-20 12:12:13.590105
1098  2023-10-20 12:12:13.622019
1099  2023-10-20 12:12:13.654054
1100  2023-10-20 12:12:13.686847
1101  2023-10-20 12:12:13.718760
1102  2023-10-20 12:12:13.749676
1103  2023-10-20 12:12:13.782689
1104  2023-10-20 12:12:13.814603
1105  2023-10-20 12:12:13.846517
1106  2023-10-20 12:12:13.894404
1107  2023-10-20 12:12:13.926303
1108  2023-10-20 12:12:13.958221
1109  2023-10-20 12:12:13.990133
1110  2023-10-20 12:12:14.022063
1111  2023-10-20 12:12:14.053961
1112  2023-10-20 12:12:14.085875
1113  2023-10-20 12:12:14.117863
1114  2023-10-20 12:12:14.149817
1115  2023-10-20 12:12:14.182731
1116  2023-10-20 12:12:14.214643
1117  2023-10-20 12:12:14.246558
1118  2023-10-20 12:12:14.294429
1119  2023-10-20 12:12:14.326676
1120  2023-10-20 12:12:14.358583
1121  2023-10-20 12:12:14.390566
1122  2023-10-20 12:12:14.422605
1123  2023-10-20 12:12:14.454551
1124  2023-10-20 12:12:14.486473
1125  2023-10-20 12:12:14.518348
1126  2023-10-20 12:12:14.550263
1127  2023-10-20 12:12:14.582177
1128  2023-10-20 12:12:14.614101
1129  2023-10-20 12:12:14.646006
1130  2023-10-20 12:12:14.694910
1131  2023-10-20 12:12:14.726790
1132  2023-10-20 12:12:14.758740
1133  2023-10-20 12:12:14.790649
1134  2023-10-20 12:12:14.822563
1135  2023-10-20 12:12:14.854447
1136  2023-10-20 12:12:14.886405
1137  2023-10-20 12:12:14.918275
1138  2023-10-20 12:12:14.950195
1139  2023-10-20 12:12:14.982104
1140  2023-10-20 12:12:15.014023
1141  2023-10-20 12:12:15.045933
1142  2023-10-20 12:12:15.093804
1143  2023-10-20 12:12:15.126750
1144  2023-10-20 12:12:15.158682
1145  2023-10-20 12:12:15.189547
1146  2023-10-20 12:12:15.222493
1147  2023-10-20 12:12:15.254406
1148  2023-10-20 12:12:15.286289
1149  2023-10-20 12:12:15.318236
1150  2023-10-20 12:12:15.350143
1151  2023-10-20 12:12:15.382032
1152  2023-10-20 12:12:15.413946
1153  2023-10-20 12:12:15.446858
1154  2023-10-20 12:12:15.493731
1155  2023-10-20 12:12:15.525646
1156  2023-10-20 12:12:15.558559
1157  2023-10-20 12:12:15.590472
1158  2023-10-20 12:12:15.622387
1159  2023-10-20 12:12:15.654335
1160  2023-10-20 12:12:15.686216
1161  2023-10-20 12:12:15.718160
1162  2023-10-20 12:12:15.750078
1163  2023-10-20 12:12:15.781992
1164  2023-10-20 12:12:15.814908
1165  2023-10-20 12:12:15.846784
1166  2023-10-20 12:12:15.894657
1167  2023-10-20 12:12:15.926571
1168  2023-10-20 12:12:15.958520
1169  2023-10-20 12:12:15.990431
1170  2023-10-20 12:12:16.022319
1171  2023-10-20 12:12:16.054228
1172  2023-10-20 12:12:16.086142
1173  2023-10-20 12:12:16.118096
1174  2023-10-20 12:12:16.149997
1175  2023-10-20 12:12:16.182921
1176  2023-10-20 12:12:16.213835
1177  2023-10-20 12:12:16.246747
1178  2023-10-20 12:12:16.294668
1179  2023-10-20 12:12:16.326620
1180  2023-10-20 12:12:16.358527
1181  2023-10-20 12:12:16.390409
1182  2023-10-20 12:12:16.422355
1183  2023-10-20 12:12:16.454239
1184  2023-10-20 12:12:16.486211
1185  2023-10-20 12:12:16.518067
1186  2023-10-20 12:12:16.549981
1187  2023-10-20 12:12:16.581896
1188  2023-10-20 12:12:16.613811
1189  2023-10-20 12:12:16.645747
1190  2023-10-20 12:12:16.694641
1191  2023-10-20 12:12:16.726552
1192  2023-10-20 12:12:16.758422
1193  2023-10-20 12:12:16.790368
1194  2023-10-20 12:12:16.822285
1195  2023-10-20 12:12:16.854166
1196  2023-10-20 12:12:16.886080
1197  2023-10-20 12:12:16.918024
1198  2023-10-20 12:12:16.949942
1199  2023-10-20 12:12:16.981855
1200  2023-10-20 12:12:17.014735
1201  2023-10-20 12:12:17.046649
1202  2023-10-20 12:12:17.094521
1203  2023-10-20 12:12:17.126436
1204  2023-10-20 12:12:17.158382
1205  2023-10-20 12:12:17.190293
1206  2023-10-20 12:12:17.222210
1207  2023-10-20 12:12:17.254591
1208  2023-10-20 12:12:17.286504
1209  2023-10-20 12:12:17.318533
1210  2023-10-20 12:12:17.350397
1211  2023-10-20 12:12:17.382364
1212  2023-10-20 12:12:17.414255
1213  2023-10-20 12:12:17.446181
1214  2023-10-20 12:12:17.494045
1215  2023-10-20 12:12:17.526924
1216  2023-10-20 12:12:17.557849
1217  2023-10-20 12:12:17.589755
1218  2023-10-20 12:12:17.621821
1219  2023-10-20 12:12:17.654707
1220  2023-10-20 12:12:17.686608
1221  2023-10-20 12:12:17.718555
1222  2023-10-20 12:12:17.750492
1223  2023-10-20 12:12:17.782351
1224  2023-10-20 12:12:17.814311
1225  2023-10-20 12:12:17.846180
1226  2023-10-20 12:12:17.894052
1227  2023-10-20 12:12:17.926016
1228  2023-10-20 12:12:17.957924
1229  2023-10-20 12:12:17.989834
1230  2023-10-20 12:12:18.021740
1231  2023-10-20 12:12:18.053662
1232  2023-10-20 12:12:18.086566
1233  2023-10-20 12:12:18.118565
1234  2023-10-20 12:12:18.150496
1235  2023-10-20 12:12:18.182394
1236  2023-10-20 12:12:18.214306
1237  2023-10-20 12:12:18.246220
1238  2023-10-20 12:12:18.294093
1239  2023-10-20 12:12:18.326420
1240  2023-10-20 12:12:18.358339
1241  2023-10-20 12:12:18.390328
1242  2023-10-20 12:12:18.422244
1243  2023-10-20 12:12:18.454161
1244  2023-10-20 12:12:18.486078
1245  2023-10-20 12:12:18.517955
1246  2023-10-20 12:12:18.549869
1247  2023-10-20 12:12:18.581840
1248  2023-10-20 12:12:18.613731
1249  2023-10-20 12:12:18.646643
1250  2023-10-20 12:12:18.694513
1251  2023-10-20 12:12:18.726427
1252  2023-10-20 12:12:18.758343
1253  2023-10-20 12:12:18.790392
1254  2023-10-20 12:12:18.822310
1255  2023-10-20 12:12:18.854190
1256  2023-10-20 12:12:18.886105
1257  2023-10-20 12:12:18.918057
1258  2023-10-20 12:12:18.949932
1259  2023-10-20 12:12:18.981881
1260  2023-10-20 12:12:19.013798
1261  2023-10-20 12:12:19.045708
1262  2023-10-20 12:12:19.093823
1263  2023-10-20 12:12:19.126703
1264  2023-10-20 12:12:19.157648
1265  2023-10-20 12:12:19.190564
1266  2023-10-20 12:12:19.222489
1267  2023-10-20 12:12:19.254397
1268  2023-10-20 12:12:19.286305
1269  2023-10-20 12:12:19.318219
1270  2023-10-20 12:12:19.350102
1271  2023-10-20 12:12:19.382055
1272  2023-10-20 12:12:19.413933
1273  2023-10-20 12:12:19.445881
1274  2023-10-20 12:12:19.493675
1275  2023-10-20 12:12:19.526602
1276  2023-10-20 12:12:19.557520
1277  2023-10-20 12:12:19.590431
1278  2023-10-20 12:12:19.622413
1279  2023-10-20 12:12:19.654331
1280  2023-10-20 12:12:19.686245
1281  2023-10-20 12:12:19.718155
1282  2023-10-20 12:12:19.750038
1283  2023-10-20 12:12:19.781988
1284  2023-10-20 12:12:19.813909
1285  2023-10-20 12:12:19.845820
1286  2023-10-20 12:12:19.893686
1287  2023-10-20 12:12:19.926605
1288  2023-10-20 12:12:19.958519
1289  2023-10-20 12:12:19.990426
1290  2023-10-20 12:12:20.022338
1291  2023-10-20 12:12:20.054280
1292  2023-10-20 12:12:20.086187
1293  2023-10-20 12:12:20.118082
1294  2023-10-20 12:12:20.150004
1295  2023-10-20 12:12:20.181912
1296  2023-10-20 12:12:20.213829
1297  2023-10-20 12:12:20.245743
1298  2023-10-20 12:12:20.293618
1299  2023-10-20 12:12:20.325530
1300  2023-10-20 12:12:20.358465
1301  2023-10-20 12:12:20.390353
1302  2023-10-20 12:12:20.422267
1303  2023-10-20 12:12:20.454183
1304  2023-10-20 12:12:20.486097
1305  2023-10-20 12:12:20.518013
1306  2023-10-20 12:12:20.549892
1307  2023-10-20 12:12:20.581807
1308  2023-10-20 12:12:20.613755
1309  2023-10-20 12:12:20.646664
1310  2023-10-20 12:12:20.693542
1311  2023-10-20 12:12:20.726458
1312  2023-10-20 12:12:20.758366
1313  2023-10-20 12:12:20.790279
1314  2023-10-20 12:12:20.822193
1315  2023-10-20 12:12:20.854109
1316  2023-10-20 12:12:20.886032
1317  2023-10-20 12:12:20.917937
1318  2023-10-20 12:12:20.949850
1319  2023-10-20 12:12:20.981768
1320  2023-10-20 12:12:21.013650
1321  2023-10-20 12:12:21.045593
1322  2023-10-20 12:12:21.094465
1323  2023-10-20 12:12:21.126378
1324  2023-10-20 12:12:21.158293
1325  2023-10-20 12:12:21.190207
1326  2023-10-20 12:12:21.222122
1327  2023-10-20 12:12:21.254037
1328  2023-10-20 12:12:21.285959
1329  2023-10-20 12:12:21.317832
1330  2023-10-20 12:12:21.350786
1331  2023-10-20 12:12:21.381697
1332  2023-10-20 12:12:21.414606
1333  2023-10-20 12:12:21.446527
1334  2023-10-20 12:12:21.494392
1335  2023-10-20 12:12:21.526307
1336  2023-10-20 12:12:21.558189
1337  2023-10-20 12:12:21.590138
1338  2023-10-20 12:12:21.622050
1339  2023-10-20 12:12:21.653970
1340  2023-10-20 12:12:21.685898
1341  2023-10-20 12:12:21.717794
1342  2023-10-20 12:12:21.749673
1343  2023-10-20 12:12:21.782636
1344  2023-10-20 12:12:21.814501
1345  2023-10-20 12:12:21.846444
1346  2023-10-20 12:12:21.894321
1347  2023-10-20 12:12:21.926231
1348  2023-10-20 12:12:21.958159
1349  2023-10-20 12:12:21.990061
1350  2023-10-20 12:12:22.021981
1351  2023-10-20 12:12:22.053890
1352  2023-10-20 12:12:22.085773
1353  2023-10-20 12:12:22.117717
1354  2023-10-20 12:12:22.149637
1355  2023-10-20 12:12:22.181549
1356  2023-10-20 12:12:22.214427
1357  2023-10-20 12:12:22.246379
1358  2023-10-20 12:12:22.294249
1359  2023-10-20 12:12:22.326160
1360  2023-10-20 12:12:22.358080
1361  2023-10-20 12:12:22.389986
1362  2023-10-20 12:12:22.421902
1363  2023-10-20 12:12:22.453884
1364  2023-10-20 12:12:22.485884
1365  2023-10-20 12:12:22.517788
1366  2023-10-20 12:12:22.549701
1367  2023-10-20 12:12:22.581616
1368  2023-10-20 12:12:22.613525
1369  2023-10-20 12:12:22.646446
1370  2023-10-20 12:12:22.694308
1371  2023-10-20 12:12:22.726220
1372  2023-10-20 12:12:22.758140
1373  2023-10-20 12:12:22.790050
1374  2023-10-20 12:12:22.821967
1375  2023-10-20 12:12:22.853890
1376  2023-10-20 12:12:22.885796
1377  2023-10-20 12:12:22.917710
1378  2023-10-20 12:12:22.949628
1379  2023-10-20 12:12:22.982503
1380  2023-10-20 12:12:23.014417
1381  2023-10-20 12:12:23.046364
1382  2023-10-20 12:12:23.094235
1383  2023-10-20 12:12:23.126149
1384  2023-10-20 12:12:23.158034
1385  2023-10-20 12:12:23.190945
1386  2023-10-20 12:12:23.221892
1387  2023-10-20 12:12:23.253807
1388  2023-10-20 12:12:23.285719
1389  2023-10-20 12:12:23.318604
1390  2023-10-20 12:12:23.350516
1391  2023-10-20 12:12:23.382429
1392  2023-10-20 12:12:23.414344
1393  2023-10-20 12:12:23.446261
1394  2023-10-20 12:12:23.494164
1395  2023-10-20 12:12:23.526045
1396  2023-10-20 12:12:23.558009
1397  2023-10-20 12:12:23.589908
1398  2023-10-20 12:12:23.621846
1399  2023-10-20 12:12:23.653733
1400  2023-10-20 12:12:23.685657
1401  2023-10-20 12:12:23.718530
1402  2023-10-20 12:12:23.750486
1403  2023-10-20 12:12:23.782387
1404  2023-10-20 12:12:23.814305
1405  2023-10-20 12:12:23.846222
1406  2023-10-20 12:12:23.894091
1407  2023-10-20 12:12:23.926005
1408  2023-10-20 12:12:23.957919
1409  2023-10-20 12:12:23.989832
1410  2023-10-20 12:12:24.021746
1411  2023-10-20 12:12:24.053661
1412  2023-10-20 12:12:24.085577
1413  2023-10-20 12:12:24.117492
1414  2023-10-20 12:12:24.150404
1415  2023-10-20 12:12:24.182285
1416  2023-10-20 12:12:24.214199
1417  2023-10-20 12:12:24.246114
1418  2023-10-20 12:12:24.294018
1419  2023-10-20 12:12:24.325935
1420  2023-10-20 12:12:24.357849
1421  2023-10-20 12:12:24.389758
1422  2023-10-20 12:12:24.421675
1423  2023-10-20 12:12:24.453593
1424  2023-10-20 12:12:24.485501
1425  2023-10-20 12:12:24.518413
1426  2023-10-20 12:12:24.550330
1427  2023-10-20 12:12:24.582243
1428  2023-10-20 12:12:24.614158
1429  2023-10-20 12:12:24.646070
1430  2023-10-20 12:12:24.693947
1431  2023-10-20 12:12:24.725872
1432  2023-10-20 12:12:24.757775
1433  2023-10-20 12:12:24.789655
1434  2023-10-20 12:12:24.821604
1435  2023-10-20 12:12:24.854482
1436  2023-10-20 12:12:24.886440
1437  2023-10-20 12:12:24.918342
1438  2023-10-20 12:12:24.950257
1439  2023-10-20 12:12:24.982165
1440  2023-10-20 12:12:25.014053
1441  2023-10-20 12:12:25.046021
1442  2023-10-20 12:12:25.093869
1443  2023-10-20 12:12:25.125783
1444  2023-10-20 12:12:25.157698
1445  2023-10-20 12:12:25.189619
1446  2023-10-20 12:12:25.222529
1447  2023-10-20 12:12:25.254409
1448  2023-10-20 12:12:25.286363
1449  2023-10-20 12:12:25.318270
1450  2023-10-20 12:12:25.350152
1451  2023-10-20 12:12:25.382098
1452  2023-10-20 12:12:25.414024
1453  2023-10-20 12:12:25.445926
1454  2023-10-20 12:12:25.493804
1455  2023-10-20 12:12:25.525716
1456  2023-10-20 12:12:25.557658
1457  2023-10-20 12:12:25.589635
1458  2023-10-20 12:12:25.622547
1459  2023-10-20 12:12:25.654430
1460  2023-10-20 12:12:25.686344
1461  2023-10-20 12:12:25.718290
1462  2023-10-20 12:12:25.750206
1463  2023-10-20 12:12:25.782121
1464  2023-10-20 12:12:25.814002
1465  2023-10-20 12:12:25.845916
1466  2023-10-20 12:12:25.893788
1467  2023-10-20 12:12:25.925702
1468  2023-10-20 12:12:25.957647
1469  2023-10-20 12:12:25.989561
1470  2023-10-20 12:12:26.022474
1471  2023-10-20 12:12:26.054357
1472  2023-10-20 12:12:26.086271
1473  2023-10-20 12:12:26.118220
1474  2023-10-20 12:12:26.150132
1475  2023-10-20 12:12:26.182045
1476  2023-10-20 12:12:26.213929
1477  2023-10-20 12:12:26.245843
1478  2023-10-20 12:12:26.293715
1479  2023-10-20 12:12:26.325629
1480  2023-10-20 12:12:26.357576
1481  2023-10-20 12:12:26.390455
1482  2023-10-20 12:12:26.422370
1483  2023-10-20 12:12:26.454284
1484  2023-10-20 12:12:26.486198
1485  2023-10-20 12:12:26.518144
1486  2023-10-20 12:12:26.550130
1487  2023-10-20 12:12:26.582102
1488  2023-10-20 12:12:26.614105
1489  2023-10-20 12:12:26.646020
1490  2023-10-20 12:12:26.693894
1491  2023-10-20 12:12:26.725775
1492  2023-10-20 12:12:26.757724
1493  2023-10-20 12:12:26.789633
1494  2023-10-20 12:12:26.821547
1495  2023-10-20 12:12:26.854429
1496  2023-10-20 12:12:26.886344
1497  2023-10-20 12:12:26.918258
1498  2023-10-20 12:12:26.950172
1499  2023-10-20 12:12:26.982120
1500  2023-10-20 12:12:27.014001
1501  2023-10-20 12:12:27.045915
1502  2023-10-20 12:12:27.093787
1503  2023-10-20 12:12:27.125702
1504  2023-10-20 12:12:27.157646
1505  2023-10-20 12:12:27.189565
1506  2023-10-20 12:12:27.222442
1507  2023-10-20 12:12:27.254356
1508  2023-10-20 12:12:27.286304
1509  2023-10-20 12:12:27.318216
1510  2023-10-20 12:12:27.350100
1511  2023-10-20 12:12:27.382045
1512  2023-10-20 12:12:27.413928
1513  2023-10-20 12:12:27.445843
1514  2023-10-20 12:12:27.493714
1515  2023-10-20 12:12:27.525629
1516  2023-10-20 12:12:27.557575
1517  2023-10-20 12:12:27.590455
1518  2023-10-20 12:12:27.622369
1519  2023-10-20 12:12:27.654283
1520  2023-10-20 12:12:27.686198
1521  2023-10-20 12:12:27.718112
1522  2023-10-20 12:12:27.750027
1523  2023-10-20 12:12:27.782023
1524  2023-10-20 12:12:27.813940
1525  2023-10-20 12:12:27.845851
1526  2023-10-20 12:12:27.893723
1527  2023-10-20 12:12:27.925637
1528  2023-10-20 12:12:27.957552
1529  2023-10-20 12:12:27.990464
1530  2023-10-20 12:12:28.022378
1531  2023-10-20 12:12:28.054379
1532  2023-10-20 12:12:28.086294
1533  2023-10-20 12:12:28.118308
1534  2023-10-20 12:12:28.150256
1535  2023-10-20 12:12:28.182181
1536  2023-10-20 12:12:28.214085
1537  2023-10-20 12:12:28.245999
1538  2023-10-20 12:12:28.293871
1539  2023-10-20 12:12:28.325785
1540  2023-10-20 12:12:28.357699
1541  2023-10-20 12:12:28.389614
1542  2023-10-20 12:12:28.422525
1543  2023-10-20 12:12:28.453545
1544  2023-10-20 12:12:28.486492
1545  2023-10-20 12:12:28.518406
1546  2023-10-20 12:12:28.550320
1547  2023-10-20 12:12:28.582235
1548  2023-10-20 12:12:28.614149
1549  2023-10-20 12:12:28.646064
1550  2023-10-20 12:12:28.693943
1551  2023-10-20 12:12:28.725849
1552  2023-10-20 12:12:28.757764
1553  2023-10-20 12:12:28.789678
1554  2023-10-20 12:12:28.821593
1555  2023-10-20 12:12:28.854588
1556  2023-10-20 12:12:28.885529
1557  2023-10-20 12:12:28.918486
1558  2023-10-20 12:12:28.950400
1559  2023-10-20 12:12:28.982366
1560  2023-10-20 12:12:29.014229
1561  2023-10-20 12:12:29.046143
1562  2023-10-20 12:12:29.094015
1563  2023-10-20 12:12:29.125929
1564  2023-10-20 12:12:29.157883
1565  2023-10-20 12:12:29.189793
1566  2023-10-20 12:12:29.221673
1567  2023-10-20 12:12:29.253587
1568  2023-10-20 12:12:29.285501
1569  2023-10-20 12:12:29.318460
1570  2023-10-20 12:12:29.350327
1571  2023-10-20 12:12:29.382242
1572  2023-10-20 12:12:29.414156
1573  2023-10-20 12:12:29.446106
1574  2023-10-20 12:12:29.493942
1575  2023-10-20 12:12:29.525889
1576  2023-10-20 12:12:29.557771
1577  2023-10-20 12:12:29.589685
1578  2023-10-20 12:12:29.621599
1579  2023-10-20 12:12:29.653550
1580  2023-10-20 12:12:29.686425
1581  2023-10-20 12:12:29.718340
1582  2023-10-20 12:12:29.750254
1583  2023-10-20 12:12:29.782213
1584  2023-10-20 12:12:29.814118
1585  2023-10-20 12:12:29.845997
1586  2023-10-20 12:12:29.893869
1587  2023-10-20 12:12:29.925783
1588  2023-10-20 12:12:29.957698
1589  2023-10-20 12:12:29.989652
1590  2023-10-20 12:12:30.021526
1591  2023-10-20 12:12:30.054438
1592  2023-10-20 12:12:30.086353
1593  2023-10-20 12:12:30.118267
1594  2023-10-20 12:12:30.150222
1595  2023-10-20 12:12:30.182096
1596  2023-10-20 12:12:30.214010
1597  2023-10-20 12:12:30.245706
1598  2023-10-20 12:12:30.293619
1599  2023-10-20 12:12:30.325534
1600  2023-10-20 12:12:30.358445
1601  2023-10-20 12:12:30.390360
1602  2023-10-20 12:12:30.422371
1603  2023-10-20 12:12:30.454285
1604  2023-10-20 12:12:30.486200
1605  2023-10-20 12:12:30.518114
1606  2023-10-20 12:12:30.550153
1607  2023-10-20 12:12:30.582068
1608  2023-10-20 12:12:30.613982
1609  2023-10-20 12:12:30.645896
1610  2023-10-20 12:12:30.694766
1611  2023-10-20 12:12:30.726852
1612  2023-10-20 12:12:30.757884
1613  2023-10-20 12:12:30.789789
1614  2023-10-20 12:12:30.821703
1615  2023-10-20 12:12:30.854649
1616  2023-10-20 12:12:30.885532
1617  2023-10-20 12:12:30.918574
1618  2023-10-20 12:12:30.949524
1619  2023-10-20 12:12:30.982464
1620  2023-10-20 12:12:31.014317
1621  2023-10-20 12:12:31.046231
1622  2023-10-20 12:12:31.094103
1623  2023-10-20 12:12:31.126017
1624  2023-10-20 12:12:31.157932
1625  2023-10-20 12:12:31.189853
1626  2023-10-20 12:12:31.221760
1627  2023-10-20 12:12:31.253675
1628  2023-10-20 12:12:31.285589
1629  2023-10-20 12:12:31.318533
1630  2023-10-20 12:12:31.350482
1631  2023-10-20 12:12:31.382417
1632  2023-10-20 12:12:31.414332
1633  2023-10-20 12:12:31.446246
1634  2023-10-20 12:12:31.494118
1635  2023-10-20 12:12:31.526032
1636  2023-10-20 12:12:31.557947
1637  2023-10-20 12:12:31.589861
1638  2023-10-20 12:12:31.621775
1639  2023-10-20 12:12:31.654688
1640  2023-10-20 12:12:31.686602
1641  2023-10-20 12:12:31.718516
1642  2023-10-20 12:12:31.750430
1643  2023-10-20 12:12:31.782431
1644  2023-10-20 12:12:31.814348
1645  2023-10-20 12:12:31.846260
1646  2023-10-20 12:12:31.894134
1647  2023-10-20 12:12:31.926046
1648  2023-10-20 12:12:31.958084
1649  2023-10-20 12:12:31.989939
1650  2023-10-20 12:12:32.021854
1651  2023-10-20 12:12:32.053868
1652  2023-10-20 12:12:32.085826
1653  2023-10-20 12:12:32.117740
1654  2023-10-20 12:12:32.149688
1655  2023-10-20 12:12:32.181569
1656  2023-10-20 12:12:32.213483
1657  2023-10-20 12:12:32.246395
1658  2023-10-20 12:12:32.294266
1659  2023-10-20 12:12:32.326218
1660  2023-10-20 12:12:32.358134
1661  2023-10-20 12:12:32.390010
1662  2023-10-20 12:12:32.421924
1663  2023-10-20 12:12:32.453882
1664  2023-10-20 12:12:32.485793
1665  2023-10-20 12:12:32.517667
1666  2023-10-20 12:12:32.550579
1667  2023-10-20 12:12:32.581496
1668  2023-10-20 12:12:32.614408
1669  2023-10-20 12:12:32.646420
1670  2023-10-20 12:12:32.694292
1671  2023-10-20 12:12:32.726206
1672  2023-10-20 12:12:32.758127
1673  2023-10-20 12:12:32.790035
1674  2023-10-20 12:12:32.821950
1675  2023-10-20 12:12:32.853864
1676  2023-10-20 12:12:32.885778
1677  2023-10-20 12:12:32.917692
1678  2023-10-20 12:12:32.949607
1679  2023-10-20 12:12:32.981521
1680  2023-10-20 12:12:33.013436
1681  2023-10-20 12:12:33.045638
1682  2023-10-20 12:12:33.093609
1683  2023-10-20 12:12:33.125524
1684  2023-10-20 12:12:33.158438
1685  2023-10-20 12:12:33.190350
1686  2023-10-20 12:12:33.222264
1687  2023-10-20 12:12:33.254179
1688  2023-10-20 12:12:33.286093
1689  2023-10-20 12:12:33.318008
1690  2023-10-20 12:12:33.349923
1691  2023-10-20 12:12:33.381836
1692  2023-10-20 12:12:33.413751
1693  2023-10-20 12:12:33.446704
1694  2023-10-20 12:12:33.493537
1695  2023-10-20 12:12:33.525486
1696  2023-10-20 12:12:33.558363
1697  2023-10-20 12:12:33.590277
1698  2023-10-20 12:12:33.622191
1699  2023-10-20 12:12:33.654225
1700  2023-10-20 12:12:33.686167
1701  2023-10-20 12:12:33.718132
1702  2023-10-20 12:12:33.750047
1703  2023-10-20 12:12:33.782054
1704  2023-10-20 12:12:33.813987
1705  2023-10-20 12:12:33.845911
1706  2023-10-20 12:12:33.893773
1707  2023-10-20 12:12:33.925687
1708  2023-10-20 12:12:33.957602
1709  2023-10-20 12:12:33.989516
1710  2023-10-20 12:12:34.022431
1711  2023-10-20 12:12:34.054342
1712  2023-10-20 12:12:34.086257
1713  2023-10-20 12:12:34.118171
1714  2023-10-20 12:12:34.150085
1715  2023-10-20 12:12:34.182000
1716  2023-10-20 12:12:34.213916
1717  2023-10-20 12:12:34.245830
1718  2023-10-20 12:12:34.293700
1719  2023-10-20 12:12:34.325615
1720  2023-10-20 12:12:34.357529
1721  2023-10-20 12:12:34.389444
1722  2023-10-20 12:12:34.422356
1723  2023-10-20 12:12:34.454270
1724  2023-10-20 12:12:34.486185
1725  2023-10-20 12:12:34.518099
1726  2023-10-20 12:12:34.550014
1727  2023-10-20 12:12:34.581928
1728  2023-10-20 12:12:34.613842
1729  2023-10-20 12:12:34.645459
1730  2023-10-20 12:12:34.693409
1731  2023-10-20 12:12:34.726321
1732  2023-10-20 12:12:34.758235
1733  2023-10-20 12:12:34.790150
1734  2023-10-20 12:12:34.822064
1735  2023-10-20 12:12:34.853979
1736  2023-10-20 12:12:34.885893
1737  2023-10-20 12:12:34.917927
1738  2023-10-20 12:12:34.949722
1739  2023-10-20 12:12:34.981636
1740  2023-10-20 12:12:35.013550
1741  2023-10-20 12:12:35.046462
1742  2023-10-20 12:12:35.094334
1743  2023-10-20 12:12:35.125888
1744  2023-10-20 12:12:35.157804
1745  2023-10-20 12:12:35.189776
1746  2023-10-20 12:12:35.221763
1747  2023-10-20 12:12:35.253677
1748  2023-10-20 12:12:35.285592
1749  2023-10-20 12:12:35.317540
1750  2023-10-20 12:12:35.350418
1751  2023-10-20 12:12:35.382332
1752  2023-10-20 12:12:35.414247
1753  2023-10-20 12:12:35.446191
1754  2023-10-20 12:12:35.494033
1755  2023-10-20 12:12:35.525981
1756  2023-10-20 12:12:35.557861
1757  2023-10-20 12:12:35.589776
1758  2023-10-20 12:12:35.622687
1759  2023-10-20 12:12:35.653638
1760  2023-10-20 12:12:35.686516
1761  2023-10-20 12:12:35.718430
1762  2023-10-20 12:12:35.750419
1763  2023-10-20 12:12:35.782337
1764  2023-10-20 12:12:35.814251
1765  2023-10-20 12:12:35.846201
1766  2023-10-20 12:12:35.894037
1767  2023-10-20 12:12:35.926127
1768  2023-10-20 12:12:35.958041
1769  2023-10-20 12:12:35.989956
1770  2023-10-20 12:12:36.021881
1771  2023-10-20 12:12:36.053909
1772  2023-10-20 12:12:36.085823
1773  2023-10-20 12:12:36.117737
1774  2023-10-20 12:12:36.149652
1775  2023-10-20 12:12:36.181566
1776  2023-10-20 12:12:36.213481
1777  2023-10-20 12:12:36.246392
1778  2023-10-20 12:12:36.294264
1779  2023-10-20 12:12:36.326178
1780  2023-10-20 12:12:36.358092
1781  2023-10-20 12:12:36.390007
1782  2023-10-20 12:12:36.421921
1783  2023-10-20 12:12:36.453836
1784  2023-10-20 12:12:36.485750
1785  2023-10-20 12:12:36.518663
1786  2023-10-20 12:12:36.550385
1787  2023-10-20 12:12:36.582299
1788  2023-10-20 12:12:36.614215
1789  2023-10-20 12:12:36.646130
1790  2023-10-20 12:12:36.694000
1791  2023-10-20 12:12:36.725974
1792  2023-10-20 12:12:36.757828
1793  2023-10-20 12:12:36.789742
1794  2023-10-20 12:12:36.821657
1795  2023-10-20 12:12:36.854609
1796  2023-10-20 12:12:36.885485
1797  2023-10-20 12:12:36.918397
1798  2023-10-20 12:12:36.950359
1799  2023-10-20 12:12:36.982260
1800  2023-10-20 12:12:37.014150
1801  2023-10-20 12:12:37.046055
1802  2023-10-20 12:12:37.093926
1803  2023-10-20 12:12:37.126009
1804  2023-10-20 12:12:37.157956
1805  2023-10-20 12:12:37.189880
1806  2023-10-20 12:12:37.221752
1807  2023-10-20 12:12:37.253666
1808  2023-10-20 12:12:37.285616
1809  2023-10-20 12:12:37.317526
1810  2023-10-20 12:12:37.349409
1811  2023-10-20 12:12:37.382321
1812  2023-10-20 12:12:37.414236
1813  2023-10-20 12:12:37.446192
1814  2023-10-20 12:12:37.494021
1815  2023-10-20 12:12:37.525936
1816  2023-10-20 12:12:37.557861
1817  2023-10-20 12:12:37.589764
1818  2023-10-20 12:12:37.621679
1819  2023-10-20 12:12:37.653593
1820  2023-10-20 12:12:37.685507
1821  2023-10-20 12:12:37.717422
1822  2023-10-20 12:12:37.750334
1823  2023-10-20 12:12:37.782264
1824  2023-10-20 12:12:37.814163
1825  2023-10-20 12:12:37.846077
1826  2023-10-20 12:12:37.893948
1827  2023-10-20 12:12:37.925863
1828  2023-10-20 12:12:37.957777
1829  2023-10-20 12:12:37.989866
1830  2023-10-20 12:12:38.022802
1831  2023-10-20 12:12:38.053686
1832  2023-10-20 12:12:38.085600
1833  2023-10-20 12:12:38.118513
1834  2023-10-20 12:12:38.150460
1835  2023-10-20 12:12:38.183373
1836  2023-10-20 12:12:38.215253
1837  2023-10-20 12:12:38.247211
1838  2023-10-20 12:12:38.295091
1839  2023-10-20 12:12:38.327112
1840  2023-10-20 12:12:38.359031
1841  2023-10-20 12:12:38.390996
1842  2023-10-20 12:12:38.422895
1843  2023-10-20 12:12:38.454812
1844  2023-10-20 12:12:38.486737
1845  2023-10-20 12:12:38.518639
1846  2023-10-20 12:12:38.550552
1847  2023-10-20 12:12:38.582469
1848  2023-10-20 12:12:38.614349
1849  2023-10-20 12:12:38.646264
1850  2023-10-20 12:12:38.694134
1851  2023-10-20 12:12:38.726049
1852  2023-10-20 12:12:38.757971
1853  2023-10-20 12:12:38.790910
1854  2023-10-20 12:12:38.821792
1855  2023-10-20 12:12:38.854736
1856  2023-10-20 12:12:38.886643
1857  2023-10-20 12:12:38.918579
1858  2023-10-20 12:12:38.950485
1859  2023-10-20 12:12:38.982398
1860  2023-10-20 12:12:39.014278
1861  2023-10-20 12:12:39.046221
1862  2023-10-20 12:12:39.094093
1863  2023-10-20 12:12:39.126007
1864  2023-10-20 12:12:39.157891
1865  2023-10-20 12:12:39.189804
1866  2023-10-20 12:12:39.221720
1867  2023-10-20 12:12:39.253760
1868  2023-10-20 12:12:39.286672
1869  2023-10-20 12:12:39.317589
1870  2023-10-20 12:12:39.350501
1871  2023-10-20 12:12:39.382415
1872  2023-10-20 12:12:39.414372
1873  2023-10-20 12:12:39.446277
1874  2023-10-20 12:12:39.494163
1875  2023-10-20 12:12:39.526122
1876  2023-10-20 12:12:39.558123
1877  2023-10-20 12:12:39.590035
1878  2023-10-20 12:12:39.621946
1879  2023-10-20 12:12:39.653865
1880  2023-10-20 12:12:39.685776
1881  2023-10-20 12:12:39.717659
1882  2023-10-20 12:12:39.750570
1883  2023-10-20 12:12:39.781487
1884  2023-10-20 12:12:39.814400
1885  2023-10-20 12:12:39.846313
1886  2023-10-20 12:12:39.894219
1887  2023-10-20 12:12:39.926136
1888  2023-10-20 12:12:39.958175
1889  2023-10-20 12:12:39.990257
1890  2023-10-20 12:12:40.022174
1891  2023-10-20 12:12:40.055074
1892  2023-10-20 12:12:40.085994
1893  2023-10-20 12:12:40.117904
1894  2023-10-20 12:12:40.150785
1895  2023-10-20 12:12:40.182699
1896  2023-10-20 12:12:40.214622
1897  2023-10-20 12:12:40.246539
1898  2023-10-20 12:12:40.294365
1899  2023-10-20 12:12:40.327378
1900  2023-10-20 12:12:40.358295
1901  2023-10-20 12:12:40.390177
1902  2023-10-20 12:12:40.423126
1903  2023-10-20 12:12:40.455049
1904  2023-10-20 12:12:40.485920
1905  2023-10-20 12:12:40.517876
1906  2023-10-20 12:12:40.549761
1907  2023-10-20 12:12:40.582692
1908  2023-10-20 12:12:40.613610
1909  2023-10-20 12:12:40.646489
1910  2023-10-20 12:12:40.694393
1911  2023-10-20 12:12:40.726276
1912  2023-10-20 12:12:40.758222
1913  2023-10-20 12:12:40.790104
1914  2023-10-20 12:12:40.822428
1915  2023-10-20 12:12:40.854429
1916  2023-10-20 12:12:40.886328
1917  2023-10-20 12:12:40.918252
1918  2023-10-20 12:12:40.950168
1919  2023-10-20 12:12:40.982084
1920  2023-10-20 12:12:41.014987
1921  2023-10-20 12:12:41.046919
1922  2023-10-20 12:12:41.094788
1923  2023-10-20 12:12:41.125875
1924  2023-10-20 12:12:41.157789
1925  2023-10-20 12:12:41.189743
1926  2023-10-20 12:12:41.221688
1927  2023-10-20 12:12:41.253625
1928  2023-10-20 12:12:41.286515
1929  2023-10-20 12:12:41.317396
1930  2023-10-20 12:12:41.350308
1931  2023-10-20 12:12:41.382254
1932  2023-10-20 12:12:41.414172
1933  2023-10-20 12:12:41.446052
1934  2023-10-20 12:12:41.493954
1935  2023-10-20 12:12:41.526852
1936  2023-10-20 12:12:41.557752
1937  2023-10-20 12:12:41.589666
1938  2023-10-20 12:12:41.621703
1939  2023-10-20 12:12:41.654662
1940  2023-10-20 12:12:41.686530
1941  2023-10-20 12:12:41.718443
1942  2023-10-20 12:12:41.749361
1943  2023-10-20 12:12:41.783309
1944  2023-10-20 12:12:41.814215
1945  2023-10-20 12:12:41.846131
1946  2023-10-20 12:12:41.894007
1947  2023-10-20 12:12:41.925751
1948  2023-10-20 12:12:41.957619
1949  2023-10-20 12:12:41.989567
1950  2023-10-20 12:12:42.021488
1951  2023-10-20 12:12:42.054396
1952  2023-10-20 12:12:42.086337
1953  2023-10-20 12:12:42.118300
1954  2023-10-20 12:12:42.150333
1955  2023-10-20 12:12:42.182324
1956  2023-10-20 12:12:42.214245
1957  2023-10-20 12:12:42.246161
1958  2023-10-20 12:12:42.294034
1959  2023-10-20 12:12:42.325939
1960  2023-10-20 12:12:42.357854
1961  2023-10-20 12:12:42.389734
1962  2023-10-20 12:12:42.422541
1963  2023-10-20 12:12:42.453590
1964  2023-10-20 12:12:42.485502
1965  2023-10-20 12:12:42.517373
1966  2023-10-20 12:12:42.549675
1967  2023-10-20 12:12:42.581658
1968  2023-10-20 12:12:42.613639
1969  2023-10-20 12:12:42.645553
1970  2023-10-20 12:12:42.693422
1971  2023-10-20 12:12:42.726290
1972  2023-10-20 12:12:42.758206
1973  2023-10-20 12:12:42.790155
1974  2023-10-20 12:12:42.822123
1975  2023-10-20 12:12:42.853978
1976  2023-10-20 12:12:42.885899
1977  2023-10-20 12:12:42.917813
1978  2023-10-20 12:12:42.949728
1979  2023-10-20 12:12:42.981726
1980  2023-10-20 12:12:43.014605
1981  2023-10-20 12:12:43.046582
1982  2023-10-20 12:12:43.094421
1983  2023-10-20 12:12:43.125437
1984  2023-10-20 12:12:43.158379
1985  2023-10-20 12:12:43.190227
1986  2023-10-20 12:12:43.222193
1987  2023-10-20 12:12:43.254089
1988  2023-10-20 12:12:43.286166
1989  2023-10-20 12:12:43.318085
1990  2023-10-20 12:12:43.351001
1991  2023-10-20 12:12:43.381913
1992  2023-10-20 12:12:43.413946
1993  2023-10-20 12:12:43.445884
1994  2023-10-20 12:12:43.493743
1995  2023-10-20 12:12:43.525615
1996  2023-10-20 12:12:43.557561
1997  2023-10-20 12:12:43.589476
1998  2023-10-20 12:12:43.621358
1999  2023-10-20 12:12:43.654318
2000  2023-10-20 12:12:43.686218
2001  2023-10-20 12:12:43.718130
2002  2023-10-20 12:12:43.750097
2003  2023-10-20 12:12:43.782076
2004  2023-10-20 12:12:43.813964
2005  2023-10-20 12:12:43.845877
2006  2023-10-20 12:12:43.893751
2007  2023-10-20 12:12:43.925683
2008  2023-10-20 12:12:43.957583
2009  2023-10-20 12:12:43.989527
2010  2023-10-20 12:12:44.021374
2011  2023-10-20 12:12:44.054322
2012  2023-10-20 12:12:44.086238
2013  2023-10-20 12:12:44.118148
2014  2023-10-20 12:12:44.150093
2015  2023-10-20 12:12:44.182045
2016  2023-10-20 12:12:44.213992
2017  2023-10-20 12:12:44.245983
2018  2023-10-20 12:12:44.293855
2019  2023-10-20 12:12:44.325769
2020  2023-10-20 12:12:44.357691
2021  2023-10-20 12:12:44.389564
2022  2023-10-20 12:12:44.421484
2023  2023-10-20 12:12:44.453424
2024  2023-10-20 12:12:44.486337
2025  2023-10-20 12:12:44.518269
2026  2023-10-20 12:12:44.550166
2027  2023-10-20 12:12:44.582079
2028  2023-10-20 12:12:44.613996
2029  2023-10-20 12:12:44.645907
2030  2023-10-20 12:12:44.693781
2031  2023-10-20 12:12:44.725707
2032  2023-10-20 12:12:44.757610
2033  2023-10-20 12:12:44.789525
2034  2023-10-20 12:12:44.821479
2035  2023-10-20 12:12:44.854456
2036  2023-10-20 12:12:44.885400
2037  2023-10-20 12:12:44.918295
2038  2023-10-20 12:12:44.950199
2039  2023-10-20 12:12:44.982082
2040  2023-10-20 12:12:45.014030
2041  2023-10-20 12:12:45.045943
2042  2023-10-20 12:12:45.093816
2043  2023-10-20 12:12:45.125736
2044  2023-10-20 12:12:45.157642
2045  2023-10-20 12:12:45.189525
2046  2023-10-20 12:12:45.221500
2047  2023-10-20 12:12:45.253389
2048  2023-10-20 12:12:45.286297
2049  2023-10-20 12:12:45.318218
2050  2023-10-20 12:12:45.350128
2051  2023-10-20 12:12:45.382044
2052  2023-10-20 12:12:45.413954
2053  2023-10-20 12:12:45.445871
2054  2023-10-20 12:12:45.493750
2055  2023-10-20 12:12:45.525662
2056  2023-10-20 12:12:45.557576
2057  2023-10-20 12:12:45.590451
2058  2023-10-20 12:12:45.621404
2059  2023-10-20 12:12:45.653314
2060  2023-10-20 12:12:45.686232
2061  2023-10-20 12:12:45.718138
2062  2023-10-20 12:12:45.750079
2063  2023-10-20 12:12:45.781954
2064  2023-10-20 12:12:45.813869
2065  2023-10-20 12:12:45.845850
2066  2023-10-20 12:12:45.893726
2067  2023-10-20 12:12:45.925640
2068  2023-10-20 12:12:45.957553
2069  2023-10-20 12:12:45.989468
2070  2023-10-20 12:12:46.022346
2071  2023-10-20 12:12:46.054299
2072  2023-10-20 12:12:46.086208
2073  2023-10-20 12:12:46.118123
2074  2023-10-20 12:12:46.150004
2075  2023-10-20 12:12:46.181918
2076  2023-10-20 12:12:46.213866
2077  2023-10-20 12:12:46.245790
2078  2023-10-20 12:12:46.293672
2079  2023-10-20 12:12:46.325567
2080  2023-10-20 12:12:46.357481
2081  2023-10-20 12:12:46.389362
2082  2023-10-20 12:12:46.422273
2083  2023-10-20 12:12:46.454243
2084  2023-10-20 12:12:46.486144
2085  2023-10-20 12:12:46.518047
2086  2023-10-20 12:12:46.549982
2087  2023-10-20 12:12:46.581878
2088  2023-10-20 12:12:46.613792
2089  2023-10-20 12:12:46.645705
2090  2023-10-20 12:12:46.693546
2091  2023-10-20 12:12:46.725492
2092  2023-10-20 12:12:46.757411
2093  2023-10-20 12:12:46.790333
2094  2023-10-20 12:12:46.822250
2095  2023-10-20 12:12:46.854115
2096  2023-10-20 12:12:46.886064
2097  2023-10-20 12:12:46.917975
2098  2023-10-20 12:12:46.949890
2099  2023-10-20 12:12:46.981773
2100  2023-10-20 12:12:47.013687
2101  2023-10-20 12:12:47.045637
2102  2023-10-20 12:12:47.093472
2103  2023-10-20 12:12:47.125426
2104  2023-10-20 12:12:47.158339
2105  2023-10-20 12:12:47.190214
2106  2023-10-20 12:12:47.222159
2107  2023-10-20 12:12:47.254042
2108  2023-10-20 12:12:47.285989
2109  2023-10-20 12:12:47.317920
2110  2023-10-20 12:12:47.349819
2111  2023-10-20 12:12:47.381713
2112  2023-10-20 12:12:47.413614
2113  2023-10-20 12:12:47.445683
2114  2023-10-20 12:12:47.493550
2115  2023-10-20 12:12:47.525464
2116  2023-10-20 12:12:47.558374
2117  2023-10-20 12:12:47.590304
2118  2023-10-20 12:12:47.622172
2119  2023-10-20 12:12:47.654125
2120  2023-10-20 12:12:47.686032
2121  2023-10-20 12:12:47.717947
2122  2023-10-20 12:12:47.749864
2123  2023-10-20 12:12:47.781791
2124  2023-10-20 12:12:47.813692
2125  2023-10-20 12:12:47.845610
2126  2023-10-20 12:12:47.893444
2127  2023-10-20 12:12:47.925389
2128  2023-10-20 12:12:47.958303
2129  2023-10-20 12:12:47.990242
2130  2023-10-20 12:12:48.022129
2131  2023-10-20 12:12:48.054013
2132  2023-10-20 12:12:48.085960
2133  2023-10-20 12:12:48.117873
2134  2023-10-20 12:12:48.149786
2135  2023-10-20 12:12:48.181670
2136  2023-10-20 12:12:48.213585
2137  2023-10-20 12:12:48.245483
2138  2023-10-20 12:12:48.293430
2139  2023-10-20 12:12:48.325343
2140  2023-10-20 12:12:48.358279
2141  2023-10-20 12:12:48.390171
2142  2023-10-20 12:12:48.422084
2143  2023-10-20 12:12:48.454001
2144  2023-10-20 12:12:48.485921
2145  2023-10-20 12:12:48.517841
2146  2023-10-20 12:12:48.549770
2147  2023-10-20 12:12:48.581625
2148  2023-10-20 12:12:48.613575
2149  2023-10-20 12:12:48.646173
2150  2023-10-20 12:12:48.694151
2151  2023-10-20 12:12:48.726065
2152  2023-10-20 12:12:48.757984
2153  2023-10-20 12:12:48.789901
2154  2023-10-20 12:12:48.821891
2155  2023-10-20 12:12:48.853806
2156  2023-10-20 12:12:48.885717
2157  2023-10-20 12:12:48.917692
2158  2023-10-20 12:12:48.949605
2159  2023-10-20 12:12:48.981486
2160  2023-10-20 12:12:49.013400
2161  2023-10-20 12:12:49.045349
2162  2023-10-20 12:12:49.094226
2163  2023-10-20 12:12:49.126139
2164  2023-10-20 12:12:49.158044
2165  2023-10-20 12:12:49.189965
2166  2023-10-20 12:12:49.221841
2167  2023-10-20 12:12:49.253786
2168  2023-10-20 12:12:49.285627
2169  2023-10-20 12:12:49.317527
2170  2023-10-20 12:12:49.349506
2171  2023-10-20 12:12:49.382387
2172  2023-10-20 12:12:49.414299
2173  2023-10-20 12:12:49.446252
2174  2023-10-20 12:12:49.494085
2175  2023-10-20 12:12:49.526030
2176  2023-10-20 12:12:49.557948
2177  2023-10-20 12:12:49.589861
2178  2023-10-20 12:12:49.621775
2179  2023-10-20 12:12:49.653689
2180  2023-10-20 12:12:49.685571
2181  2023-10-20 12:12:49.717520
2182  2023-10-20 12:12:49.749429
2183  2023-10-20 12:12:49.781349
2184  2023-10-20 12:12:49.814226
2185  2023-10-20 12:12:49.846140
2186  2023-10-20 12:12:49.894011
2187  2023-10-20 12:12:49.925926
2188  2023-10-20 12:12:49.957879
2189  2023-10-20 12:12:49.989786
2190  2023-10-20 12:12:50.021710
2191  2023-10-20 12:12:50.053583
2192  2023-10-20 12:12:50.085536
2193  2023-10-20 12:12:50.117445
2194  2023-10-20 12:12:50.150357
2195  2023-10-20 12:12:50.181275
2196  2023-10-20 12:12:50.214152
2197  2023-10-20 12:12:50.246067
2198  2023-10-20 12:12:50.293939
2199  2023-10-20 12:12:50.325853
2200  2023-10-20 12:12:50.357802
2201  2023-10-20 12:12:50.390705
2202  2023-10-20 12:12:50.421635
2203  2023-10-20 12:12:50.453510
2204  2023-10-20 12:12:50.486432
2205  2023-10-20 12:12:50.518338
2206  2023-10-20 12:12:50.549286
2207  2023-10-20 12:12:50.582216
2208  2023-10-20 12:12:50.614112
2209  2023-10-20 12:12:50.646029
2210  2023-10-20 12:12:50.693989
2211  2023-10-20 12:12:50.725910
2212  2023-10-20 12:12:50.757855
2213  2023-10-20 12:12:50.789771
2214  2023-10-20 12:12:50.821685
2215  2023-10-20 12:12:50.853568
2216  2023-10-20 12:12:50.885482
2217  2023-10-20 12:12:50.917398
2218  2023-10-20 12:12:50.949318
2219  2023-10-20 12:12:50.982234
2220  2023-10-20 12:12:51.014106
2221  2023-10-20 12:12:51.046020
2222  2023-10-20 12:12:51.093891
2223  2023-10-20 12:12:51.125806
2224  2023-10-20 12:12:51.157757
2225  2023-10-20 12:12:51.189665
2226  2023-10-20 12:12:51.221575
2227  2023-10-20 12:12:51.253597
2228  2023-10-20 12:12:51.285512
2229  2023-10-20 12:12:51.317598
2230  2023-10-20 12:12:51.349557
2231  2023-10-20 12:12:51.381480
2232  2023-10-20 12:12:51.414349
2233  2023-10-20 12:12:51.446264
2234  2023-10-20 12:12:51.494135
2235  2023-10-20 12:12:51.526050
2236  2023-10-20 12:12:51.557965
2237  2023-10-20 12:12:51.590208
2238  2023-10-20 12:12:51.622157
2239  2023-10-20 12:12:51.654072
2240  2023-10-20 12:12:51.685987
2241  2023-10-20 12:12:51.717932
2242  2023-10-20 12:12:51.749848
2243  2023-10-20 12:12:51.782218
2244  2023-10-20 12:12:51.814253
2245  2023-10-20 12:12:51.846244
2246  2023-10-20 12:12:51.894155
2247  2023-10-20 12:12:51.926030
2248  2023-10-20 12:12:51.957945
2249  2023-10-20 12:12:51.989898
2250  2023-10-20 12:12:52.021825
2251  2023-10-20 12:12:52.053688
2252  2023-10-20 12:12:52.085602
2253  2023-10-20 12:12:52.117558
2254  2023-10-20 12:12:52.149620
2255  2023-10-20 12:12:52.182478
2256  2023-10-20 12:12:52.213449
2257  2023-10-20 12:12:52.245411
2258  2023-10-20 12:12:52.294232
2259  2023-10-20 12:12:52.326181
2260  2023-10-20 12:12:52.358096
2261  2023-10-20 12:12:52.389976
2262  2023-10-20 12:12:52.421890
2263  2023-10-20 12:12:52.453840
2264  2023-10-20 12:12:52.485751
2265  2023-10-20 12:12:52.517633
2266  2023-10-20 12:12:52.549547
2267  2023-10-20 12:12:52.581462
2268  2023-10-20 12:12:52.613552
2269  2023-10-20 12:12:52.645430
2270  2023-10-20 12:12:52.693480
2271  2023-10-20 12:12:52.725340
2272  2023-10-20 12:12:52.757254
2273  2023-10-20 12:12:52.790166
2274  2023-10-20 12:12:52.822080
2275  2023-10-20 12:12:52.853995
2276  2023-10-20 12:12:52.885909
2277  2023-10-20 12:12:52.917823
2278  2023-10-20 12:12:52.949738
2279  2023-10-20 12:12:52.981699
2280  2023-10-20 12:12:53.013660
2281  2023-10-20 12:12:53.045797
2282  2023-10-20 12:12:53.093640
2283  2023-10-20 12:12:53.125533
2284  2023-10-20 12:12:53.157531
2285  2023-10-20 12:12:53.189492
2286  2023-10-20 12:12:53.221523
2287  2023-10-20 12:12:53.253437
2288  2023-10-20 12:12:53.285351
2289  2023-10-20 12:12:53.318298
2290  2023-10-20 12:12:53.350268
2291  2023-10-20 12:12:53.382183
2292  2023-10-20 12:12:53.414097
2293  2023-10-20 12:12:53.446043
2294  2023-10-20 12:12:53.493927
2295  2023-10-20 12:12:53.525835
2296  2023-10-20 12:12:53.557712
2297  2023-10-20 12:12:53.589626
2298  2023-10-20 12:12:53.621541
2299  2023-10-20 12:12:53.653493
2300  2023-10-20 12:12:53.686367
2301  2023-10-20 12:12:53.718281
2302  2023-10-20 12:12:53.750195
2303  2023-10-20 12:12:53.782110
2304  2023-10-20 12:12:53.814024
2305  2023-10-20 12:12:53.846077
2306  2023-10-20 12:12:53.893976
2307  2023-10-20 12:12:53.925891
2308  2023-10-20 12:12:53.957805
2309  2023-10-20 12:12:53.989719
2310  2023-10-20 12:12:54.021634
2311  2023-10-20 12:12:54.053548
2312  2023-10-20 12:12:54.085476
2313  2023-10-20 12:12:54.117390
2314  2023-10-20 12:12:54.149304
2315  2023-10-20 12:12:54.182216
2316  2023-10-20 12:12:54.214130
2317  2023-10-20 12:12:54.246049
2318  2023-10-20 12:12:54.293916
2319  2023-10-20 12:12:54.325831
2320  2023-10-20 12:12:54.357745
2321  2023-10-20 12:12:54.389665
2322  2023-10-20 12:12:54.421576
2323  2023-10-20 12:12:54.453488
2324  2023-10-20 12:12:54.486400
2325  2023-10-20 12:12:54.518315
2326  2023-10-20 12:12:54.550229
2327  2023-10-20 12:12:54.582143
2328  2023-10-20 12:12:54.614058
2329  2023-10-20 12:12:54.646020
2330  2023-10-20 12:12:54.694013
2331  2023-10-20 12:12:54.725956
2332  2023-10-20 12:12:54.757810
2333  2023-10-20 12:12:54.789809
2334  2023-10-20 12:12:54.821724
2335  2023-10-20 12:12:54.853670
2336  2023-10-20 12:12:54.885552
2337  2023-10-20 12:12:54.917466
2338  2023-10-20 12:12:54.949414
2339  2023-10-20 12:12:54.981341
2340  2023-10-20 12:12:55.014207
2341  2023-10-20 12:12:55.046121
2342  2023-10-20 12:12:55.093993
2343  2023-10-20 12:12:55.125907
2344  2023-10-20 12:12:55.157860
2345  2023-10-20 12:12:55.189770
2346  2023-10-20 12:12:55.221650
2347  2023-10-20 12:12:55.253567
2348  2023-10-20 12:12:55.285512
2349  2023-10-20 12:12:55.317435
2350  2023-10-20 12:12:55.349308
2351  2023-10-20 12:12:55.381726
2352  2023-10-20 12:12:55.413638
2353  2023-10-20 12:12:55.445553
2354  2023-10-20 12:12:55.493424
2355  2023-10-20 12:12:55.526338
2356  2023-10-20 12:12:55.558252
2357  2023-10-20 12:12:55.590165
2358  2023-10-20 12:12:55.622079
2359  2023-10-20 12:12:55.653994
2360  2023-10-20 12:12:55.685908
2361  2023-10-20 12:12:55.717822
2362  2023-10-20 12:12:55.749736
2363  2023-10-20 12:12:55.781651
2364  2023-10-20 12:12:55.813565
2365  2023-10-20 12:12:55.845480
2366  2023-10-20 12:12:55.893414
2367  2023-10-20 12:12:55.925406
2368  2023-10-20 12:12:55.957320
2369  2023-10-20 12:12:55.989269
2370  2023-10-20 12:12:56.022178
2371  2023-10-20 12:12:56.054061
2372  2023-10-20 12:12:56.085975
2373  2023-10-20 12:12:56.117921
2374  2023-10-20 12:12:56.149975
2375  2023-10-20 12:12:56.181855
2376  2023-10-20 12:12:56.213770
2377  2023-10-20 12:12:56.245684
2378  2023-10-20 12:12:56.293688
2379  2023-10-20 12:12:56.325642
2380  2023-10-20 12:12:56.357554
2381  2023-10-20 12:12:56.389431
2382  2023-10-20 12:12:56.422343
2383  2023-10-20 12:12:56.453302
2384  2023-10-20 12:12:56.485613
2385  2023-10-20 12:12:56.517548
2386  2023-10-20 12:12:56.549463
2387  2023-10-20 12:12:56.581377
2388  2023-10-20 12:12:56.613324
2389  2023-10-20 12:12:56.645334
2390  2023-10-20 12:12:56.693251
2391  2023-10-20 12:12:56.726117
2392  2023-10-20 12:12:56.758031
2393  2023-10-20 12:12:56.789946
2394  2023-10-20 12:12:56.821860
2395  2023-10-20 12:12:56.853774
2396  2023-10-20 12:12:56.885689
2397  2023-10-20 12:12:56.917603
2398  2023-10-20 12:12:56.949647
2399  2023-10-20 12:12:56.981563
2400  2023-10-20 12:12:57.013477
2401  2023-10-20 12:12:57.045392
2402  2023-10-20 12:12:57.093547
2403  2023-10-20 12:12:57.125462
2404  2023-10-20 12:12:57.157495
2405  2023-10-20 12:12:57.189409
2406  2023-10-20 12:12:57.221324
2407  2023-10-20 12:12:57.253238
2408  2023-10-20 12:12:57.286155
2409  2023-10-20 12:12:57.318064
2410  2023-10-20 12:12:57.349978
2411  2023-10-20 12:12:57.382027
2412  2023-10-20 12:12:57.413807
2413  2023-10-20 12:12:57.445721
2414  2023-10-20 12:12:57.493593
2415  2023-10-20 12:12:57.525540
2416  2023-10-20 12:12:57.557458
2417  2023-10-20 12:12:57.590334
2418  2023-10-20 12:12:57.621251
2419  2023-10-20 12:12:57.654286
2420  2023-10-20 12:12:57.686165
2421  2023-10-20 12:12:57.718080
2422  2023-10-20 12:12:57.749994
2423  2023-10-20 12:12:57.781956
2424  2023-10-20 12:12:57.813860
2425  2023-10-20 12:12:57.845737
2426  2023-10-20 12:12:57.893609
2427  2023-10-20 12:12:57.925523
2428  2023-10-20 12:12:57.957439
2429  2023-10-20 12:12:57.990380
2430  2023-10-20 12:12:58.021306
2431  2023-10-20 12:12:58.054178
2432  2023-10-20 12:12:58.086092
2433  2023-10-20 12:12:58.118007
2434  2023-10-20 12:12:58.150030
2435  2023-10-20 12:12:58.181945
2436  2023-10-20 12:12:58.213859
2437  2023-10-20 12:12:58.245805
2438  2023-10-20 12:12:58.293645
2439  2023-10-20 12:12:58.325560
2440  2023-10-20 12:12:58.357551
2441  2023-10-20 12:12:58.389470
2442  2023-10-20 12:12:58.421380
2443  2023-10-20 12:12:58.453386
2444  2023-10-20 12:12:58.485300
2445  2023-10-20 12:12:58.517214
2446  2023-10-20 12:12:58.550126
2447  2023-10-20 12:12:58.582188
2448  2023-10-20 12:12:58.614102
2449  2023-10-20 12:12:58.646095
2450  2023-10-20 12:12:58.694086
2451  2023-10-20 12:12:58.726001
2452  2023-10-20 12:12:58.757915
2453  2023-10-20 12:12:58.789829
2454  2023-10-20 12:12:58.821744
2455  2023-10-20 12:12:58.853668
2456  2023-10-20 12:12:58.885572
2457  2023-10-20 12:12:58.917487
2458  2023-10-20 12:12:58.949507
2459  2023-10-20 12:12:58.982420
2460  2023-10-20 12:12:59.013456
2461  2023-10-20 12:12:59.045316
2462  2023-10-20 12:12:59.094185
2463  2023-10-20 12:12:59.126180
2464  2023-10-20 12:12:59.158094
2465  2023-10-20 12:12:59.190011
2466  2023-10-20 12:12:59.221923
2467  2023-10-20 12:12:59.253837
2468  2023-10-20 12:12:59.285752
2469  2023-10-20 12:12:59.317758
2470  2023-10-20 12:12:59.349714
2471  2023-10-20 12:12:59.381631
2472  2023-10-20 12:12:59.413542
2473  2023-10-20 12:12:59.445495
2474  2023-10-20 12:12:59.493328
2475  2023-10-20 12:12:59.526277
2476  2023-10-20 12:12:59.558154
2477  2023-10-20 12:12:59.590069
2478  2023-10-20 12:12:59.621983
2479  2023-10-20 12:12:59.653928
2480  2023-10-20 12:12:59.685843
2481  2023-10-20 12:12:59.717726
2482  2023-10-20 12:12:59.749641
2483  2023-10-20 12:12:59.781596
2484  2023-10-20 12:12:59.813512
2485  2023-10-20 12:12:59.845384
2486  2023-10-20 12:12:59.893255
2487  2023-10-20 12:12:59.926167
2488  2023-10-20 12:12:59.958081
2489  2023-10-20 12:12:59.990027
2490  2023-10-20 12:13:00.021946
2491  2023-10-20 12:13:00.053824
2492  2023-10-20 12:13:00.085739
2493  2023-10-20 12:13:00.117701
2494  2023-10-20 12:13:00.149600
2495  2023-10-20 12:13:00.181482
2496  2023-10-20 12:13:00.213396
2497  2023-10-20 12:13:00.245342
2498  2023-10-20 12:13:00.294180
2499  2023-10-20 12:13:00.326025
2500  2023-10-20 12:13:00.357940
2501  2023-10-20 12:13:00.389823
2502  2023-10-20 12:13:00.421833
2503  2023-10-20 12:13:00.453748
2504  2023-10-20 12:13:00.485662
2505  2023-10-20 12:13:00.517576
2506  2023-10-20 12:13:00.549491
2507  2023-10-20 12:13:00.581405
2508  2023-10-20 12:13:00.613320
2509  2023-10-20 12:13:00.645234
2510  2023-10-20 12:13:00.694103
2511  2023-10-20 12:13:00.726017
2512  2023-10-20 12:13:00.757932
2513  2023-10-20 12:13:00.789994
2514  2023-10-20 12:13:00.821944
2515  2023-10-20 12:13:00.853825
2516  2023-10-20 12:13:00.885737
2517  2023-10-20 12:13:00.917767
2518  2023-10-20 12:13:00.949689
2519  2023-10-20 12:13:00.981645
2520  2023-10-20 12:13:01.013510
2521  2023-10-20 12:13:01.045547
2522  2023-10-20 12:13:01.093574
2523  2023-10-20 12:13:01.125473
2524  2023-10-20 12:13:01.157390
2525  2023-10-20 12:13:01.189332
2526  2023-10-20 12:13:01.222213
2527  2023-10-20 12:13:01.254157
2528  2023-10-20 12:13:01.286079
2529  2023-10-20 12:13:01.317989
2530  2023-10-20 12:13:01.349871
2531  2023-10-20 12:13:01.381785
2532  2023-10-20 12:13:01.413699
2533  2023-10-20 12:13:01.445649
2534  2023-10-20 12:13:01.493531
2535  2023-10-20 12:13:01.525434
2536  2023-10-20 12:13:01.557314
2537  2023-10-20 12:13:01.589228
2538  2023-10-20 12:13:01.622140
2539  2023-10-20 12:13:01.654054
2540  2023-10-20 12:13:01.685969
2541  2023-10-20 12:13:01.717883
2542  2023-10-20 12:13:01.749798
2543  2023-10-20 12:13:01.781723
2544  2023-10-20 12:13:01.813626
2545  2023-10-20 12:13:01.845541
2546  2023-10-20 12:13:01.893412
2547  2023-10-20 12:13:01.927367
2548  2023-10-20 12:13:01.958238
2549  2023-10-20 12:13:01.990153
2550  2023-10-20 12:13:02.022067
2551  2023-10-20 12:13:02.053981
2552  2023-10-20 12:13:02.085896
2553  2023-10-20 12:13:02.117946
2554  2023-10-20 12:13:02.149973
2555  2023-10-20 12:13:02.183194
2556  2023-10-20 12:13:02.214067
2557  2023-10-20 12:13:02.245970
2558  2023-10-20 12:13:02.293977
2559  2023-10-20 12:13:02.326922
2560  2023-10-20 12:13:02.359838
2561  2023-10-20 12:13:02.390746
2562  2023-10-20 12:13:02.422664
2563  2023-10-20 12:13:02.454590
2564  2023-10-20 12:13:02.486334
2565  2023-10-20 12:13:02.518345
2566  2023-10-20 12:13:02.550267
2567  2023-10-20 12:13:02.583253
2568  2023-10-20 12:13:02.615159
2569  2023-10-20 12:13:02.647058
2570  2023-10-20 12:13:02.694946
2571  2023-10-20 12:13:02.726861
2572  2023-10-20 12:13:02.758775
2573  2023-10-20 12:13:02.790696
2574  2023-10-20 12:13:02.822588
2575  2023-10-20 12:13:02.854592
2576  2023-10-20 12:13:02.886497
2577  2023-10-20 12:13:02.918418
2578  2023-10-20 12:13:02.950323
2579  2023-10-20 12:13:02.983235
2580  2023-10-20 12:13:03.014154
2581  2023-10-20 12:13:03.046037
2582  2023-10-20 12:13:03.094945
2583  2023-10-20 12:13:03.126820
2584  2023-10-20 12:13:03.158767
2585  2023-10-20 12:13:03.190697
2586  2023-10-20 12:13:03.222612
2587  2023-10-20 12:13:03.254526
2588  2023-10-20 12:13:03.286422
2589  2023-10-20 12:13:03.318336
2590  2023-10-20 12:13:03.350258
2591  2023-10-20 12:13:03.382169
2592  2023-10-20 12:13:03.414051
2593  2023-10-20 12:13:03.445998
2594  2023-10-20 12:13:03.493866
2595  2023-10-20 12:13:03.525780
2596  2023-10-20 12:13:03.557844
2597  2023-10-20 12:13:03.589756
2598  2023-10-20 12:13:03.621666
2599  2023-10-20 12:13:03.653586
2600  2023-10-20 12:13:03.685502
2601  2023-10-20 12:13:03.717409
2602  2023-10-20 12:13:03.750318
2603  2023-10-20 12:13:03.782234
2604  2023-10-20 12:13:03.814164
2605  2023-10-20 12:13:03.846078
2606  2023-10-20 12:13:03.893936
2607  2023-10-20 12:13:03.925849
2608  2023-10-20 12:13:03.957762
2609  2023-10-20 12:13:03.989678
2610  2023-10-20 12:13:04.021623
2611  2023-10-20 12:13:04.053525
2612  2023-10-20 12:13:04.085390
2613  2023-10-20 12:13:04.118355
2614  2023-10-20 12:13:04.150215
2615  2023-10-20 12:13:04.182145
2616  2023-10-20 12:13:04.214056
2617  2023-10-20 12:13:04.245990
2618  2023-10-20 12:13:04.293865
2619  2023-10-20 12:13:04.325797
2620  2023-10-20 12:13:04.357691
2621  2023-10-20 12:13:04.389604
2622  2023-10-20 12:13:04.421520
2623  2023-10-20 12:13:04.453448
2624  2023-10-20 12:13:04.486136
2625  2023-10-20 12:13:04.517996
2626  2023-10-20 12:13:04.549459
2627  2023-10-20 12:13:04.581377
2628  2023-10-20 12:13:04.614301
2629  2023-10-20 12:13:04.647212
2630  2023-10-20 12:13:04.694106
2631  2023-10-20 12:13:04.727001
2632  2023-10-20 12:13:04.757874
2633  2023-10-20 12:13:04.789843
2634  2023-10-20 12:13:04.822701
2635  2023-10-20 12:13:04.853618
2636  2023-10-20 12:13:04.886554
2637  2023-10-20 12:13:04.917478
2638  2023-10-20 12:13:04.949412
2639  2023-10-20 12:13:04.983318
2640  2023-10-20 12:13:05.015229
2641  2023-10-20 12:13:05.047130
2642  2023-10-20 12:13:05.095016
2643  2023-10-20 12:13:05.126939
2644  2023-10-20 12:13:05.157801
2645  2023-10-20 12:13:05.189716
2646  2023-10-20 12:13:05.222674
2647  2023-10-20 12:13:05.254588
2648  2023-10-20 12:13:05.286490
2649  2023-10-20 12:13:05.317430
2650  2023-10-20 12:13:05.349321
2651  2023-10-20 12:13:05.383245
2652  2023-10-20 12:13:05.415157
2653  2023-10-20 12:13:05.447058
2654  2023-10-20 12:13:05.494928
2655  2023-10-20 12:13:05.526841
2656  2023-10-20 12:13:05.557759
2657  2023-10-20 12:13:05.589643
2658  2023-10-20 12:13:05.622556
2659  2023-10-20 12:13:05.654470
2660  2023-10-20 12:13:05.686385
2661  2023-10-20 12:13:05.717301
2662  2023-10-20 12:13:05.749280
2663  2023-10-20 12:13:05.783152
2664  2023-10-20 12:13:05.815091
2665  2023-10-20 12:13:05.845987
2666  2023-10-20 12:13:05.894871
2667  2023-10-20 12:13:05.925772
2668  2023-10-20 12:13:05.957655
2669  2023-10-20 12:13:05.989619
2670  2023-10-20 12:13:06.022353
2671  2023-10-20 12:13:06.054362
2672  2023-10-20 12:13:06.086277
2673  2023-10-20 12:13:06.117873
2674  2023-10-20 12:13:06.150041
2675  2023-10-20 12:13:06.182040
2676  2023-10-20 12:13:06.213955
2677  2023-10-20 12:13:06.245870
2678  2023-10-20 12:13:06.293742
2679  2023-10-20 12:13:06.325655
2680  2023-10-20 12:13:06.357567
2681  2023-10-20 12:13:06.389452
2682  2023-10-20 12:13:06.421399
2683  2023-10-20 12:13:06.453312
2684  2023-10-20 12:13:06.486224
2685  2023-10-20 12:13:06.518107
2686  2023-10-20 12:13:06.550021
2687  2023-10-20 12:13:06.581968
2688  2023-10-20 12:13:06.613885
2689  2023-10-20 12:13:06.645797
2690  2023-10-20 12:13:06.693638
2691  2023-10-20 12:13:06.725589
2692  2023-10-20 12:13:06.757465
2693  2023-10-20 12:13:06.789379
2694  2023-10-20 12:13:06.822292
2695  2023-10-20 12:13:06.854262
2696  2023-10-20 12:13:06.886122
2697  2023-10-20 12:13:06.918034
2698  2023-10-20 12:13:06.949984
2699  2023-10-20 12:13:06.981897
2700  2023-10-20 12:13:07.013809
2701  2023-10-20 12:13:07.045407
2702  2023-10-20 12:13:07.093419
2703  2023-10-20 12:13:07.125333
2704  2023-10-20 12:13:07.158201
2705  2023-10-20 12:13:07.190114
2706  2023-10-20 12:13:07.222076
2707  2023-10-20 12:13:07.253975
2708  2023-10-20 12:13:07.285887
2709  2023-10-20 12:13:07.317814
2710  2023-10-20 12:13:07.349718
2711  2023-10-20 12:13:07.381632
2712  2023-10-20 12:13:07.413548
2713  2023-10-20 12:13:07.445475
2714  2023-10-20 12:13:07.493331
2715  2023-10-20 12:13:07.525245
2716  2023-10-20 12:13:07.558163
2717  2023-10-20 12:13:07.590040
2718  2023-10-20 12:13:07.621985
2719  2023-10-20 12:13:07.653923
2720  2023-10-20 12:13:07.685819
2721  2023-10-20 12:13:07.717728
2722  2023-10-20 12:13:07.749644
2723  2023-10-20 12:13:07.781575
2724  2023-10-20 12:13:07.813473
2725  2023-10-20 12:13:07.845402
2726  2023-10-20 12:13:07.893258
2727  2023-10-20 12:13:07.925176
2728  2023-10-20 12:13:07.958107
2729  2023-10-20 12:13:07.990015
2730  2023-10-20 12:13:08.021881
2731  2023-10-20 12:13:08.053826
2732  2023-10-20 12:13:08.085791
2733  2023-10-20 12:13:08.117775
2734  2023-10-20 12:13:08.149694
2735  2023-10-20 12:13:08.181625
2736  2023-10-20 12:13:08.213520
2737  2023-10-20 12:13:08.245435
2738  2023-10-20 12:13:08.293313
2739  2023-10-20 12:13:08.326232
2740  2023-10-20 12:13:08.358158
2741  2023-10-20 12:13:08.390013
2742  2023-10-20 12:13:08.421960
2743  2023-10-20 12:13:08.453877
2744  2023-10-20 12:13:08.485790
2745  2023-10-20 12:13:08.517706
2746  2023-10-20 12:13:08.549616
2747  2023-10-20 12:13:08.581541
2748  2023-10-20 12:13:08.613469
2749  2023-10-20 12:13:08.645363
2750  2023-10-20 12:13:08.693231
2751  2023-10-20 12:13:08.725152
2752  2023-10-20 12:13:08.758075
2753  2023-10-20 12:13:08.789941
2754  2023-10-20 12:13:08.821888
2755  2023-10-20 12:13:08.853801
2756  2023-10-20 12:13:08.885715
2757  2023-10-20 12:13:08.917628
2758  2023-10-20 12:13:08.949551
2759  2023-10-20 12:13:08.981467
2760  2023-10-20 12:13:09.013372
2761  2023-10-20 12:13:09.045287
2762  2023-10-20 12:13:09.093160
2763  2023-10-20 12:13:09.126071
2764  2023-10-20 12:13:09.157983
2765  2023-10-20 12:13:09.189868
2766  2023-10-20 12:13:09.221782
2767  2023-10-20 12:13:09.253729
2768  2023-10-20 12:13:09.285655
2769  2023-10-20 12:13:09.317565
2770  2023-10-20 12:13:09.349471
2771  2023-10-20 12:13:09.381383
2772  2023-10-20 12:13:09.413305
2773  2023-10-20 12:13:09.446211
2774  2023-10-20 12:13:09.493086
2775  2023-10-20 12:13:09.526004
2776  2023-10-20 12:13:09.557883
2777  2023-10-20 12:13:09.589795
2778  2023-10-20 12:13:09.621709
2779  2023-10-20 12:13:09.653661
2780  2023-10-20 12:13:09.685588
2781  2023-10-20 12:13:09.717486
2782  2023-10-20 12:13:09.749396
2783  2023-10-20 12:13:09.781320
2784  2023-10-20 12:13:09.814225
2785  2023-10-20 12:13:09.845139
2786  2023-10-20 12:13:09.893978
2787  2023-10-20 12:13:09.925923
2788  2023-10-20 12:13:09.957837
2789  2023-10-20 12:13:09.989722
2790  2023-10-20 12:13:10.021671
2791  2023-10-20 12:13:10.053591
2792  2023-10-20 12:13:10.085511
2793  2023-10-20 12:13:10.117410
2794  2023-10-20 12:13:10.149348
2795  2023-10-20 12:13:10.181238
2796  2023-10-20 12:13:10.213158
2797  2023-10-20 12:13:10.246066
2798  2023-10-20 12:13:10.293937
2799  2023-10-20 12:13:10.325879
2800  2023-10-20 12:13:10.357867
2801  2023-10-20 12:13:10.389745
2802  2023-10-20 12:13:10.421660
2803  2023-10-20 12:13:10.453608
2804  2023-10-20 12:13:10.485523
2805  2023-10-20 12:13:10.517500
2806  2023-10-20 12:13:10.549403
2807  2023-10-20 12:13:10.581323
2808  2023-10-20 12:13:10.613306
2809  2023-10-20 12:13:10.645214
2810  2023-10-20 12:13:10.693099
2811  2023-10-20 12:13:10.725995
2812  2023-10-20 12:13:10.757912
2813  2023-10-20 12:13:10.789823
2814  2023-10-20 12:13:10.821738
2815  2023-10-20 12:13:10.853621
2816  2023-10-20 12:13:10.885578
2817  2023-10-20 12:13:10.917484
2818  2023-10-20 12:13:10.949394
2819  2023-10-20 12:13:10.981308
2820  2023-10-20 12:13:11.013225
2821  2023-10-20 12:13:11.045143
2822  2023-10-20 12:13:11.093976
2823  2023-10-20 12:13:11.125930
2824  2023-10-20 12:13:11.157838
2825  2023-10-20 12:13:11.189752
2826  2023-10-20 12:13:11.221634
2827  2023-10-20 12:13:11.253587
2828  2023-10-20 12:13:11.285507
2829  2023-10-20 12:13:11.317416
2830  2023-10-20 12:13:11.349342
2831  2023-10-20 12:13:11.381236
2832  2023-10-20 12:13:11.413151
2833  2023-10-20 12:13:11.446085
2834  2023-10-20 12:13:11.493941
2835  2023-10-20 12:13:11.525849
2836  2023-10-20 12:13:11.557772
2837  2023-10-20 12:13:11.589683
2838  2023-10-20 12:13:11.621561
2839  2023-10-20 12:13:11.653509
2840  2023-10-20 12:13:11.685391
2841  2023-10-20 12:13:11.717672
2842  2023-10-20 12:13:11.749589
2843  2023-10-20 12:13:11.781584
2844  2023-10-20 12:13:11.813479
2845  2023-10-20 12:13:11.845437
2846  2023-10-20 12:13:11.893348
2847  2023-10-20 12:13:11.925299
2848  2023-10-20 12:13:11.957212
2849  2023-10-20 12:13:11.989127
2850  2023-10-20 12:13:12.022034
2851  2023-10-20 12:13:12.053917
2852  2023-10-20 12:13:12.085864
2853  2023-10-20 12:13:12.117777
2854  2023-10-20 12:13:12.149693
2855  2023-10-20 12:13:12.181607
2856  2023-10-20 12:13:12.213524
2857  2023-10-20 12:13:12.245435
2858  2023-10-20 12:13:12.293314
2859  2023-10-20 12:13:12.325219
2860  2023-10-20 12:13:12.358102
2861  2023-10-20 12:13:12.390049
2862  2023-10-20 12:13:12.421930
2863  2023-10-20 12:13:12.453846
2864  2023-10-20 12:13:12.485795
2865  2023-10-20 12:13:12.517708
2866  2023-10-20 12:13:12.549620
2867  2023-10-20 12:13:12.581554
2868  2023-10-20 12:13:12.613452
2869  2023-10-20 12:13:12.645366
2870  2023-10-20 12:13:12.693206
2871  2023-10-20 12:13:12.726115
2872  2023-10-20 12:13:12.757064
2873  2023-10-20 12:13:12.789982
2874  2023-10-20 12:13:12.821888
2875  2023-10-20 12:13:12.853771
2876  2023-10-20 12:13:12.885716
2877  2023-10-20 12:13:12.917631
2878  2023-10-20 12:13:12.949586
2879  2023-10-20 12:13:12.981502
2880  2023-10-20 12:13:13.013386
2881  2023-10-20 12:13:13.045388
2882  2023-10-20 12:13:13.093347
2883  2023-10-20 12:13:13.125259
2884  2023-10-20 12:13:13.157176
2885  2023-10-20 12:13:13.189091
2886  2023-10-20 12:13:13.221970
2887  2023-10-20 12:13:13.253892
2888  2023-10-20 12:13:13.285833
2889  2023-10-20 12:13:13.317745
2890  2023-10-20 12:13:13.349661
2891  2023-10-20 12:13:13.381543
2892  2023-10-20 12:13:13.413457
2893  2023-10-20 12:13:13.446371
2894  2023-10-20 12:13:13.493243
2895  2023-10-20 12:13:13.526157
2896  2023-10-20 12:13:13.557072
2897  2023-10-20 12:13:13.589984
2898  2023-10-20 12:13:13.621898
2899  2023-10-20 12:13:13.653813
2900  2023-10-20 12:13:13.685762
2901  2023-10-20 12:13:13.717677
2902  2023-10-20 12:13:13.749590
2903  2023-10-20 12:13:13.781504
2904  2023-10-20 12:13:13.813417
2905  2023-10-20 12:13:13.845333
2906  2023-10-20 12:13:13.893169
2907  2023-10-20 12:13:13.925227
2908  2023-10-20 12:13:13.957137
2909  2023-10-20 12:13:13.989064
2910  2023-10-20 12:13:14.022058
2911  2023-10-20 12:13:14.054002
2912  2023-10-20 12:13:14.085917
2913  2023-10-20 12:13:14.117873
2914  2023-10-20 12:13:14.149782
2915  2023-10-20 12:13:14.181690
2916  2023-10-20 12:13:14.213607
2917  2023-10-20 12:13:14.245525
2918  2023-10-20 12:13:14.293360
2919  2023-10-20 12:13:14.325316
2920  2023-10-20 12:13:14.357220
2921  2023-10-20 12:13:14.390131
2922  2023-10-20 12:13:14.422058
2923  2023-10-20 12:13:14.453929
2924  2023-10-20 12:13:14.485843
2925  2023-10-20 12:13:14.517874
2926  2023-10-20 12:13:14.549787
2927  2023-10-20 12:13:14.581708
2928  2023-10-20 12:13:14.613583
2929  2023-10-20 12:13:14.645498
2930  2023-10-20 12:13:14.694367
2931  2023-10-20 12:13:14.726321
2932  2023-10-20 12:13:14.757232
2933  2023-10-20 12:13:14.790141
2934  2023-10-20 12:13:14.821769
2935  2023-10-20 12:13:14.853683
2936  2023-10-20 12:13:14.885686
2937  2023-10-20 12:13:14.917639
2938  2023-10-20 12:13:14.949554
2939  2023-10-20 12:13:14.981460
2940  2023-10-20 12:13:15.013343
2941  2023-10-20 12:13:15.045257
2942  2023-10-20 12:13:15.093129
2943  2023-10-20 12:13:15.125043
2944  2023-10-20 12:13:15.157987
2945  2023-10-20 12:13:15.189908
2946  2023-10-20 12:13:15.221819
2947  2023-10-20 12:13:15.253698
2948  2023-10-20 12:13:15.285652
2949  2023-10-20 12:13:15.317561
2950  2023-10-20 12:13:15.349477
2951  2023-10-20 12:13:15.381355
2952  2023-10-20 12:13:15.413270
2953  2023-10-20 12:13:15.445227
2954  2023-10-20 12:13:15.493092
2955  2023-10-20 12:13:15.525967
2956  2023-10-20 12:13:15.557913
2957  2023-10-20 12:13:15.589832
2958  2023-10-20 12:13:15.621742
2959  2023-10-20 12:13:15.653625
2960  2023-10-20 12:13:15.685539
2961  2023-10-20 12:13:15.717487
2962  2023-10-20 12:13:15.749411
2963  2023-10-20 12:13:15.781318
2964  2023-10-20 12:13:15.813197
2965  2023-10-20 12:13:15.845111
2966  2023-10-20 12:13:15.893980
2967  2023-10-20 12:13:15.925937
2968  2023-10-20 12:13:15.957852
2969  2023-10-20 12:13:15.989849
2970  2023-10-20 12:13:16.021759
2971  2023-10-20 12:13:16.053798
2972  2023-10-20 12:13:16.085819
2973  2023-10-20 12:13:16.117765
2974  2023-10-20 12:13:16.149686
2975  2023-10-20 12:13:16.181595
2976  2023-10-20 12:13:16.213476
2977  2023-10-20 12:13:16.245390
2978  2023-10-20 12:13:16.293262
2979  2023-10-20 12:13:16.325176
2980  2023-10-20 12:13:16.358088
2981  2023-10-20 12:13:16.390003
2982  2023-10-20 12:13:16.421962
2983  2023-10-20 12:13:16.453831
2984  2023-10-20 12:13:16.485746
2985  2023-10-20 12:13:16.517660
2986  2023-10-20 12:13:16.549606
2987  2023-10-20 12:13:16.581531
2988  2023-10-20 12:13:16.613456
2989  2023-10-20 12:13:16.645317
2990  2023-10-20 12:13:16.693226
2991  2023-10-20 12:13:16.725103
2992  2023-10-20 12:13:16.758163
2993  2023-10-20 12:13:16.789118
2994  2023-10-20 12:13:16.822025
2995  2023-10-20 12:13:16.853906
2996  2023-10-20 12:13:16.886044
2997  2023-10-20 12:13:16.918037
2998  2023-10-20 12:13:16.950010
2999  2023-10-20 12:13:16.981947
3000  2023-10-20 12:13:17.013560
3001  2023-10-20 12:13:17.045552
3002  2023-10-20 12:13:17.093458
3003  2023-10-20 12:13:17.125338
3004  2023-10-20 12:13:17.157323
3005  2023-10-20 12:13:17.189294
3006  2023-10-20 12:13:17.221359
3007  2023-10-20 12:13:17.253364
3008  2023-10-20 12:13:17.285316
3009  2023-10-20 12:13:17.317356
3010  2023-10-20 12:13:17.349360
3011  2023-10-20 12:13:17.381274
3012  2023-10-20 12:13:17.413225
3013  2023-10-20 12:13:17.445253
3014  2023-10-20 12:13:17.493167
3015  2023-10-20 12:13:17.525039
3016  2023-10-20 12:13:17.557430
3017  2023-10-20 12:13:17.589291
3018  2023-10-20 12:13:17.621238
3019  2023-10-20 12:13:17.653204
3020  2023-10-20 12:13:17.685085
3021  2023-10-20 12:13:17.717997
3022  2023-10-20 12:13:17.749953
3023  2023-10-20 12:13:17.781861
3024  2023-10-20 12:13:17.813740
3025  2023-10-20 12:13:17.845654
3026  2023-10-20 12:13:17.893526
3027  2023-10-20 12:13:17.925440
3028  2023-10-20 12:13:17.957354
3029  2023-10-20 12:13:17.989269
3030  2023-10-20 12:13:18.022187
3031  2023-10-20 12:13:18.054100
3032  2023-10-20 12:13:18.085052
3033  2023-10-20 12:13:18.117829
3034  2023-10-20 12:13:18.149752
3035  2023-10-20 12:13:18.181700
3036  2023-10-20 12:13:18.213615
3037  2023-10-20 12:13:18.245529
3038  2023-10-20 12:13:18.293400
3039  2023-10-20 12:13:18.325419
3040  2023-10-20 12:13:18.357378
3041  2023-10-20 12:13:18.389292
3042  2023-10-20 12:13:18.421207
3043  2023-10-20 12:13:18.453121
3044  2023-10-20 12:13:18.485069
3045  2023-10-20 12:13:18.517050
3046  2023-10-20 12:13:18.549920
3047  2023-10-20 12:13:18.581870
3048  2023-10-20 12:13:18.613750
3049  2023-10-20 12:13:18.645663
3050  2023-10-20 12:13:18.693612
3051  2023-10-20 12:13:18.725487
3052  2023-10-20 12:13:18.757402
3053  2023-10-20 12:13:18.789316
3054  2023-10-20 12:13:18.821269
3055  2023-10-20 12:13:18.853145
3056  2023-10-20 12:13:18.885125
3057  2023-10-20 12:13:18.917040
3058  2023-10-20 12:13:18.949559
3059  2023-10-20 12:13:18.981546
3060  2023-10-20 12:13:19.013613
3061  2023-10-20 12:13:19.045528
3062  2023-10-20 12:13:19.093406
3063  2023-10-20 12:13:19.125313
3064  2023-10-20 12:13:19.157228
3065  2023-10-20 12:13:19.190140
3066  2023-10-20 12:13:19.221057
3067  2023-10-20 12:13:19.253968
3068  2023-10-20 12:13:19.285883
3069  2023-10-20 12:13:19.317797
3070  2023-10-20 12:13:19.349719
3071  2023-10-20 12:13:19.381626
3072  2023-10-20 12:13:19.413540
3073  2023-10-20 12:13:19.445455
3074  2023-10-20 12:13:19.493326
3075  2023-10-20 12:13:19.525240
3076  2023-10-20 12:13:19.557283
3077  2023-10-20 12:13:19.589198
3078  2023-10-20 12:13:19.621207
3079  2023-10-20 12:13:19.654118
3080  2023-10-20 12:13:19.686034
3081  2023-10-20 12:13:19.717947
3082  2023-10-20 12:13:19.749862
3083  2023-10-20 12:13:19.781788
3084  2023-10-20 12:13:19.813737
3085  2023-10-20 12:13:19.845759
3086  2023-10-20 12:13:19.893633
3087  2023-10-20 12:13:19.925545
3088  2023-10-20 12:13:19.957459
3089  2023-10-20 12:13:19.989374
3090  2023-10-20 12:13:20.021496
3091  2023-10-20 12:13:20.053355
3092  2023-10-20 12:13:20.085270
3093  2023-10-20 12:13:20.117215
3094  2023-10-20 12:13:20.149130
3095  2023-10-20 12:13:20.181013
3096  2023-10-20 12:13:20.213924
3097  2023-10-20 12:13:20.245839
3098  2023-10-20 12:13:20.293744
3099  2023-10-20 12:13:20.325709
3100  2023-10-20 12:13:20.357640
3101  2023-10-20 12:13:20.389554
3102  2023-10-20 12:13:20.421469
3103  2023-10-20 12:13:20.453383
3104  2023-10-20 12:13:20.486296
3105  2023-10-20 12:13:20.518211
3106  2023-10-20 12:13:20.549144
3107  2023-10-20 12:13:20.582102
3108  2023-10-20 12:13:20.614019
3109  2023-10-20 12:13:20.645980
3110  2023-10-20 12:13:20.692979
3111  2023-10-20 12:13:20.725849
3112  2023-10-20 12:13:20.757764
3113  2023-10-20 12:13:20.789678
3114  2023-10-20 12:13:20.821628
3115  2023-10-20 12:13:20.853507
3116  2023-10-20 12:13:20.885421
3117  2023-10-20 12:13:20.917336
3118  2023-10-20 12:13:20.949299
3119  2023-10-20 12:13:20.981164
3120  2023-10-20 12:13:21.013079
3121  2023-10-20 12:13:21.045990
3122  2023-10-20 12:13:21.093862
3123  2023-10-20 12:13:21.125776
3124  2023-10-20 12:13:21.157691
3125  2023-10-20 12:13:21.189605
3126  2023-10-20 12:13:21.221519
3127  2023-10-20 12:13:21.253437
3128  2023-10-20 12:13:21.285380
3129  2023-10-20 12:13:21.317262
3130  2023-10-20 12:13:21.349177
3131  2023-10-20 12:13:21.381091
3132  2023-10-20 12:13:21.414003
3133  2023-10-20 12:13:21.445918
3134  2023-10-20 12:13:21.493789
3135  2023-10-20 12:13:21.525704
3136  2023-10-20 12:13:21.557618
3137  2023-10-20 12:13:21.589532
3138  2023-10-20 12:13:21.621446
3139  2023-10-20 12:13:21.653409
3140  2023-10-20 12:13:21.685277
3141  2023-10-20 12:13:21.717190
3142  2023-10-20 12:13:21.749104
3143  2023-10-20 12:13:21.781064
3144  2023-10-20 12:13:21.813078
3145  2023-10-20 12:13:21.845956
3146  2023-10-20 12:13:21.893827
3147  2023-10-20 12:13:21.925742
3148  2023-10-20 12:13:21.957656
3149  2023-10-20 12:13:21.989601
3150  2023-10-20 12:13:22.021517
3151  2023-10-20 12:13:22.053470
3152  2023-10-20 12:13:22.085368
3153  2023-10-20 12:13:22.117331
3154  2023-10-20 12:13:22.149268
3155  2023-10-20 12:13:22.181184
3156  2023-10-20 12:13:22.213098
3157  2023-10-20 12:13:22.245052
3158  2023-10-20 12:13:22.293881
3159  2023-10-20 12:13:22.325796
3160  2023-10-20 12:13:22.357710
3161  2023-10-20 12:13:22.389627
3162  2023-10-20 12:13:22.421539
3163  2023-10-20 12:13:22.453492
3164  2023-10-20 12:13:22.485389
3165  2023-10-20 12:13:22.517326
3166  2023-10-20 12:13:22.549197
3167  2023-10-20 12:13:22.581111
3168  2023-10-20 12:13:22.614054
3169  2023-10-20 12:13:22.645989
3170  2023-10-20 12:13:22.693809
3171  2023-10-20 12:13:22.725723
3172  2023-10-20 12:13:22.757637
3173  2023-10-20 12:13:22.789552
3174  2023-10-20 12:13:22.821514
3175  2023-10-20 12:13:22.853415
3176  2023-10-20 12:13:22.885295
3177  2023-10-20 12:13:22.917209
3178  2023-10-20 12:13:22.949960
3179  2023-10-20 12:13:22.981873
3180  2023-10-20 12:13:23.013858
3181  2023-10-20 12:13:23.045771
3182  2023-10-20 12:13:23.093643
3183  2023-10-20 12:13:23.125557
3184  2023-10-20 12:13:23.157474
3185  2023-10-20 12:13:23.189440
3186  2023-10-20 12:13:23.221434
3187  2023-10-20 12:13:23.253342
3188  2023-10-20 12:13:23.285257
3189  2023-10-20 12:13:23.317204
3190  2023-10-20 12:13:23.349210
3191  2023-10-20 12:13:23.381125
3192  2023-10-20 12:13:23.413039
3193  2023-10-20 12:13:23.445998
3194  2023-10-20 12:13:23.493854
3195  2023-10-20 12:13:23.525769
3196  2023-10-20 12:13:23.557653
3197  2023-10-20 12:13:23.589566
3198  2023-10-20 12:13:23.621521
3199  2023-10-20 12:13:23.653158
3200  2023-10-20 12:13:23.685074
3201  2023-10-20 12:13:23.716988
3202  2023-10-20 12:13:23.749900
3203  2023-10-20 12:13:23.781814
3204  2023-10-20 12:13:23.813728
3205  2023-10-20 12:13:23.845825
3206  2023-10-20 12:13:23.893761
3207  2023-10-20 12:13:23.925676
3208  2023-10-20 12:13:23.957590
3209  2023-10-20 12:13:23.989504
3210  2023-10-20 12:13:24.021425
3211  2023-10-20 12:13:24.053335
3212  2023-10-20 12:13:24.086245
3213  2023-10-20 12:13:24.117162
3214  2023-10-20 12:13:24.150074
3215  2023-10-20 12:13:24.181988
3216  2023-10-20 12:13:24.213902
3217  2023-10-20 12:13:24.245165
3218  2023-10-20 12:13:24.293126
3219  2023-10-20 12:13:24.325123
3220  2023-10-20 12:13:24.358036
3221  2023-10-20 12:13:24.389949
3222  2023-10-20 12:13:24.421863
3223  2023-10-20 12:13:24.453652
3224  2023-10-20 12:13:24.485607
3225  2023-10-20 12:13:24.517480
3226  2023-10-20 12:13:24.549395
3227  2023-10-20 12:13:24.581309
3228  2023-10-20 12:13:24.613225
3229  2023-10-20 12:13:24.645138
3230  2023-10-20 12:13:24.693040
3231  2023-10-20 12:13:24.725921
3232  2023-10-20 12:13:24.757836
3233  2023-10-20 12:13:24.789750
3234  2023-10-20 12:13:24.821664
3235  2023-10-20 12:13:24.853579
3236  2023-10-20 12:13:24.885493
3237  2023-10-20 12:13:24.917317
3238  2023-10-20 12:13:24.949231
3239  2023-10-20 12:13:24.981145
3240  2023-10-20 12:13:25.013060
3241  2023-10-20 12:13:25.045972
3242  2023-10-20 12:13:25.093843
3243  2023-10-20 12:13:25.125758
3244  2023-10-20 12:13:25.157672
3245  2023-10-20 12:13:25.189587
3246  2023-10-20 12:13:25.221501
3247  2023-10-20 12:13:25.253542
3248  2023-10-20 12:13:25.285456
3249  2023-10-20 12:13:25.317370
3250  2023-10-20 12:13:25.349285
3251  2023-10-20 12:13:25.381199
3252  2023-10-20 12:13:25.413114
3253  2023-10-20 12:13:25.445691
3254  2023-10-20 12:13:25.493770
3255  2023-10-20 12:13:25.526733
3256  2023-10-20 12:13:25.557599
3257  2023-10-20 12:13:25.589513
3258  2023-10-20 12:13:25.621429
3259  2023-10-20 12:13:25.653433
3260  2023-10-20 12:13:25.685347
3261  2023-10-20 12:13:25.719297
3262  2023-10-20 12:13:25.751209
3263  2023-10-20 12:13:25.783115
3264  2023-10-20 12:13:25.815172
3265  2023-10-20 12:13:25.847074
3266  2023-10-20 12:13:25.894958
3267  2023-10-20 12:13:25.926874
3268  2023-10-20 12:13:25.958846
3269  2023-10-20 12:13:25.990767
3270  2023-10-20 12:13:26.022670
3271  2023-10-20 12:13:26.054598
3272  2023-10-20 12:13:26.086500
3273  2023-10-20 12:13:26.118520
3274  2023-10-20 12:13:26.150530
3275  2023-10-20 12:13:26.182460
3276  2023-10-20 12:13:26.214380
3277  2023-10-20 12:13:26.247263
3278  2023-10-20 12:13:26.294168
3279  2023-10-20 12:13:26.327117
3280  2023-10-20 12:13:26.358204
3281  2023-10-20 12:13:26.390233
3282  2023-10-20 12:13:26.422149
3283  2023-10-20 12:13:26.455070
3284  2023-10-20 12:13:26.486974
3285  2023-10-20 12:13:26.518905
3286  2023-10-20 12:13:26.550819
3287  2023-10-20 12:13:26.582789
3288  2023-10-20 12:13:26.614701
3289  2023-10-20 12:13:26.646611
3290  2023-10-20 12:13:26.694509
3291  2023-10-20 12:13:26.726395
3292  2023-10-20 12:13:26.758316
3293  2023-10-20 12:13:26.790343
3294  2023-10-20 12:13:26.822217
3295  2023-10-20 12:13:26.854230
3296  2023-10-20 12:13:26.886234
3297  2023-10-20 12:13:26.919128
3298  2023-10-20 12:13:26.950500
3299  2023-10-20 12:13:26.981993
3300  2023-10-20 12:13:27.013913
3301  2023-10-20 12:13:27.045834
3302  2023-10-20 12:13:27.094686
3303  2023-10-20 12:13:27.126602
3304  2023-10-20 12:13:27.158525
3305  2023-10-20 12:13:27.190436
3306  2023-10-20 12:13:27.222365
3307  2023-10-20 12:13:27.254278
3308  2023-10-20 12:13:27.285952
3309  2023-10-20 12:13:27.317866
3310  2023-10-20 12:13:27.349780
3311  2023-10-20 12:13:27.381695
3312  2023-10-20 12:13:27.413759
3313  2023-10-20 12:13:27.446687
3314  2023-10-20 12:13:27.493543
3315  2023-10-20 12:13:27.526465
3316  2023-10-20 12:13:27.558352
3317  2023-10-20 12:13:27.590288
3318  2023-10-20 12:13:27.622211
3319  2023-10-20 12:13:27.654236
3320  2023-10-20 12:13:27.685699
3321  2023-10-20 12:13:27.717615
3322  2023-10-20 12:13:27.749529
3323  2023-10-20 12:13:27.781445
3324  2023-10-20 12:13:27.813360
3325  2023-10-20 12:13:27.845281
3326  2023-10-20 12:13:27.893137
3327  2023-10-20 12:13:27.926072
3328  2023-10-20 12:13:27.957984
3329  2023-10-20 12:13:27.989907
3330  2023-10-20 12:13:28.021805
3331  2023-10-20 12:13:28.053709
3332  2023-10-20 12:13:28.085626
3333  2023-10-20 12:13:28.117542
3334  2023-10-20 12:13:28.149460
3335  2023-10-20 12:13:28.181377
3336  2023-10-20 12:13:28.213283
3337  2023-10-20 12:13:28.245195
3338  2023-10-20 12:13:28.293070
3339  2023-10-20 12:13:28.325948
3340  2023-10-20 12:13:28.357905
3341  2023-10-20 12:13:28.389831
3342  2023-10-20 12:13:28.421729
3343  2023-10-20 12:13:28.453637
3344  2023-10-20 12:13:28.485559
3345  2023-10-20 12:13:28.517467
3346  2023-10-20 12:13:28.549392
3347  2023-10-20 12:13:28.581296
3348  2023-10-20 12:13:28.614177
3349  2023-10-20 12:13:28.647117
3350  2023-10-20 12:13:28.693965
3351  2023-10-20 12:13:28.725876
3352  2023-10-20 12:13:28.757791
3353  2023-10-20 12:13:28.789750
3354  2023-10-20 12:13:28.821662
3355  2023-10-20 12:13:28.854563
3356  2023-10-20 12:13:28.887474
3357  2023-10-20 12:13:28.917394
3358  2023-10-20 12:13:28.949308
3359  2023-10-20 12:13:28.983217
3360  2023-10-20 12:13:29.014220
3361  2023-10-20 12:13:29.047131
3362  2023-10-20 12:13:29.095003
3363  2023-10-20 12:13:29.126914
3364  2023-10-20 12:13:29.157835
3365  2023-10-20 12:13:29.189748
3366  2023-10-20 12:13:29.222667
3367  2023-10-20 12:13:29.254574
3368  2023-10-20 12:13:29.286488
3369  2023-10-20 12:13:29.317537
3370  2023-10-20 12:13:29.349452
3371  2023-10-20 12:13:29.382364
3372  2023-10-20 12:13:29.414460
3373  2023-10-20 12:13:29.447437
3374  2023-10-20 12:13:29.494247
3375  2023-10-20 12:13:29.527158
3376  2023-10-20 12:13:29.557076
3377  2023-10-20 12:13:29.589009
3378  2023-10-20 12:13:29.622906
3379  2023-10-20 12:13:29.653787
3380  2023-10-20 12:13:29.685700
3381  2023-10-20 12:13:29.717645
3382  2023-10-20 12:13:29.749697
3383  2023-10-20 12:13:29.781582
3384  2023-10-20 12:13:29.814525
3385  2023-10-20 12:13:29.846437
3386  2023-10-20 12:13:29.894325
3387  2023-10-20 12:13:29.926232
3388  2023-10-20 12:13:29.957140
3389  2023-10-20 12:13:29.989060
3390  2023-10-20 12:13:30.021978
3391  2023-10-20 12:13:30.053885
3392  2023-10-20 12:13:30.086796
3393  2023-10-20 12:13:30.117715
3394  2023-10-20 12:13:30.149626
3395  2023-10-20 12:13:30.182550
3396  2023-10-20 12:13:30.213453
3397  2023-10-20 12:13:30.246365
3398  2023-10-20 12:13:30.294239
3399  2023-10-20 12:13:30.326151
3400  2023-10-20 12:13:30.357067
3401  2023-10-20 12:13:30.388981
3402  2023-10-20 12:13:30.421894
3403  2023-10-20 12:13:30.453810
3404  2023-10-20 12:13:30.485729
3405  2023-10-20 12:13:30.517636
3406  2023-10-20 12:13:30.549554
3407  2023-10-20 12:13:30.581479
3408  2023-10-20 12:13:30.613396
3409  2023-10-20 12:13:30.646294
3410  2023-10-20 12:13:30.694165
3411  2023-10-20 12:13:30.726078
3412  2023-10-20 12:13:30.756997
3413  2023-10-20 12:13:30.788913
3414  2023-10-20 12:13:30.821833
3415  2023-10-20 12:13:30.853853
3416  2023-10-20 12:13:30.885771
3417  2023-10-20 12:13:30.917686
3418  2023-10-20 12:13:30.949600
3419  2023-10-20 12:13:30.981512
3420  2023-10-20 12:13:31.013428
3421  2023-10-20 12:13:31.045344
3422  2023-10-20 12:13:31.093213
3423  2023-10-20 12:13:31.125096
3424  2023-10-20 12:13:31.157039
3425  2023-10-20 12:13:31.189955
3426  2023-10-20 12:13:31.221880
3427  2023-10-20 12:13:31.253783
3428  2023-10-20 12:13:31.285698
3429  2023-10-20 12:13:31.317620
3430  2023-10-20 12:13:31.349523
3431  2023-10-20 12:13:31.381454
3432  2023-10-20 12:13:31.413350
3433  2023-10-20 12:13:31.445271
3434  2023-10-20 12:13:31.493140
3435  2023-10-20 12:13:31.526020
3436  2023-10-20 12:13:31.556974
3437  2023-10-20 12:13:31.588881
3438  2023-10-20 12:13:31.621820
3439  2023-10-20 12:13:31.654708
3440  2023-10-20 12:13:31.685595
3441  2023-10-20 12:13:31.717541
3442  2023-10-20 12:13:31.749455
3443  2023-10-20 12:13:31.781392
3444  2023-10-20 12:13:31.813284
3445  2023-10-20 12:13:31.845197
3446  2023-10-20 12:13:31.893071
3447  2023-10-20 12:13:31.924984
3448  2023-10-20 12:13:31.957896
3449  2023-10-20 12:13:31.989808
3450  2023-10-20 12:13:32.021724
3451  2023-10-20 12:13:32.053604
3452  2023-10-20 12:13:32.085572
3453  2023-10-20 12:13:32.117460
3454  2023-10-20 12:13:32.149380
3455  2023-10-20 12:13:32.181314
3456  2023-10-20 12:13:32.213208
3457  2023-10-20 12:13:32.245133
3458  2023-10-20 12:13:32.293016
3459  2023-10-20 12:13:32.325908
3460  2023-10-20 12:13:32.357823
3461  2023-10-20 12:13:32.389737
3462  2023-10-20 12:13:32.421652
3463  2023-10-20 12:13:32.453565
3464  2023-10-20 12:13:32.485478
3465  2023-10-20 12:13:32.517395
3466  2023-10-20 12:13:32.549317
3467  2023-10-20 12:13:32.581221
3468  2023-10-20 12:13:32.613136
3469  2023-10-20 12:13:32.646058
3470  2023-10-20 12:13:32.693921
3471  2023-10-20 12:13:32.725833
3472  2023-10-20 12:13:32.757746
3473  2023-10-20 12:13:32.789662
3474  2023-10-20 12:13:32.821600
3475  2023-10-20 12:13:32.853489
3476  2023-10-20 12:13:32.885406
3477  2023-10-20 12:13:32.917322
3478  2023-10-20 12:13:32.950233
3479  2023-10-20 12:13:32.981211
3480  2023-10-20 12:13:33.013226
3481  2023-10-20 12:13:33.045097
3482  2023-10-20 12:13:33.092970
3483  2023-10-20 12:13:33.124884
3484  2023-10-20 12:13:33.157796
3485  2023-10-20 12:13:33.189788
3486  2023-10-20 12:13:33.221711
3487  2023-10-20 12:13:33.253615
3488  2023-10-20 12:13:33.285532
3489  2023-10-20 12:13:33.317447
3490  2023-10-20 12:13:33.349352
3491  2023-10-20 12:13:33.381271
3492  2023-10-20 12:13:33.413186
3493  2023-10-20 12:13:33.445102
3494  2023-10-20 12:13:33.492973
3495  2023-10-20 12:13:33.524888
3496  2023-10-20 12:13:33.557818
3497  2023-10-20 12:13:33.589717
3498  2023-10-20 12:13:33.621626
3499  2023-10-20 12:13:33.653541
3500  2023-10-20 12:13:33.685456
3501  2023-10-20 12:13:33.717378
3502  2023-10-20 12:13:33.749285
3503  2023-10-20 12:13:33.781214
3504  2023-10-20 12:13:33.813115
3505  2023-10-20 12:13:33.845026
3506  2023-10-20 12:13:33.892897
3507  2023-10-20 12:13:33.924812
3508  2023-10-20 12:13:33.957733
3509  2023-10-20 12:13:33.989642
3510  2023-10-20 12:13:34.021553
3511  2023-10-20 12:13:34.053470
3512  2023-10-20 12:13:34.085387
3513  2023-10-20 12:13:34.117267
3514  2023-10-20 12:13:34.150213
3515  2023-10-20 12:13:34.182093
3516  2023-10-20 12:13:34.213041
3517  2023-10-20 12:13:34.245966
3518  2023-10-20 12:13:34.293793
3519  2023-10-20 12:13:34.325738
3520  2023-10-20 12:13:34.357655
3521  2023-10-20 12:13:34.389569
3522  2023-10-20 12:13:34.421483
3523  2023-10-20 12:13:34.453395
3524  2023-10-20 12:13:34.485309
3525  2023-10-20 12:13:34.517231
3526  2023-10-20 12:13:34.549137
3527  2023-10-20 12:13:34.581051
3528  2023-10-20 12:13:34.613934
3529  2023-10-20 12:13:34.645848
3530  2023-10-20 12:13:34.693720
3531  2023-10-20 12:13:34.725666
3532  2023-10-20 12:13:34.757578
3533  2023-10-20 12:13:34.789496
3534  2023-10-20 12:13:34.821419
3535  2023-10-20 12:13:34.853324
3536  2023-10-20 12:13:34.885245
3537  2023-10-20 12:13:34.917157
3538  2023-10-20 12:13:34.950071
3539  2023-10-20 12:13:34.982016
3540  2023-10-20 12:13:35.012943
3541  2023-10-20 12:13:35.045847
3542  2023-10-20 12:13:35.093723
3543  2023-10-20 12:13:35.125603
3544  2023-10-20 12:13:35.157544
3545  2023-10-20 12:13:35.189547
3546  2023-10-20 12:13:35.221466
3547  2023-10-20 12:13:35.253378
3548  2023-10-20 12:13:35.285294
3549  2023-10-20 12:13:35.317223
3550  2023-10-20 12:13:35.349123
3551  2023-10-20 12:13:35.381041
3552  2023-10-20 12:13:35.413942
3553  2023-10-20 12:13:35.444866
3554  2023-10-20 12:13:35.493731
3555  2023-10-20 12:13:35.525645
3556  2023-10-20 12:13:35.557562
3557  2023-10-20 12:13:35.589473
3558  2023-10-20 12:13:35.621391
3559  2023-10-20 12:13:35.653304
3560  2023-10-20 12:13:35.685219
3561  2023-10-20 12:13:35.717135
