
1  2023-11-01 09:55:06.789689
2  2023-11-01 09:55:06.841519
3  2023-11-01 09:55:06.870441
4  2023-11-01 09:55:06.902437
5  2023-11-01 09:55:06.933437
6  2023-11-01 09:55:06.966349
7  2023-11-01 09:55:06.998276
8  2023-11-01 09:55:07.030177
9  2023-11-01 09:55:07.062092
10  2023-11-01 09:55:07.094007
11  2023-11-01 09:55:07.125921
12  2023-11-01 09:55:07.157835
13  2023-11-01 09:55:07.189750
14  2023-11-01 09:55:07.237622
15  2023-11-01 09:55:07.270535
16  2023-11-01 09:55:07.302450
17  2023-11-01 09:55:07.334382
18  2023-11-01 09:55:07.366279
19  2023-11-01 09:55:07.398193
20  2023-11-01 09:55:07.429751
21  2023-11-01 09:55:07.461669
22  2023-11-01 09:55:07.494581
23  2023-11-01 09:55:07.526495
24  2023-11-01 09:55:07.557447
25  2023-11-01 09:55:07.589419
26  2023-11-01 09:55:07.638290
27  2023-11-01 09:55:07.670205
28  2023-11-01 09:55:07.702119
29  2023-11-01 09:55:07.735032
30  2023-11-01 09:55:07.766007
31  2023-11-01 09:55:07.797915
32  2023-11-01 09:55:07.829944
33  2023-11-01 09:55:07.861849
34  2023-11-01 09:55:07.894762
35  2023-11-01 09:55:07.926682
36  2023-11-01 09:55:07.957592
37  2023-11-01 09:55:07.989512
38  2023-11-01 09:55:08.038415
39  2023-11-01 09:55:08.070291
40  2023-11-01 09:55:08.102264
41  2023-11-01 09:55:08.134179
42  2023-11-01 09:55:08.166092
43  2023-11-01 09:55:08.198007
44  2023-11-01 09:55:08.229938
45  2023-11-01 09:55:08.261836
46  2023-11-01 09:55:08.293751
47  2023-11-01 09:55:08.325667
48  2023-11-01 09:55:08.357580
49  2023-11-01 09:55:08.390501
50  2023-11-01 09:55:08.437920
51  2023-11-01 09:55:08.469834
52  2023-11-01 09:55:08.502747
53  2023-11-01 09:55:08.533663
54  2023-11-01 09:55:08.566582
55  2023-11-01 09:55:08.598491
56  2023-11-01 09:55:08.630406
57  2023-11-01 09:55:08.661985
58  2023-11-01 09:55:08.694897
59  2023-11-01 09:55:08.725812
60  2023-11-01 09:55:08.758039
61  2023-11-01 09:55:08.789916
62  2023-11-01 09:55:08.837844
63  2023-11-01 09:55:08.869819
64  2023-11-01 09:55:08.901854
65  2023-11-01 09:55:08.933758
66  2023-11-01 09:55:08.965673
67  2023-11-01 09:55:08.997624
68  2023-11-01 09:55:09.030512
69  2023-11-01 09:55:09.062420
70  2023-11-01 09:55:09.094329
71  2023-11-01 09:55:09.126245
72  2023-11-01 09:55:09.158195
73  2023-11-01 09:55:09.190087
74  2023-11-01 09:55:09.238015
75  2023-11-01 09:55:09.269897
76  2023-11-01 09:55:09.301810
77  2023-11-01 09:55:09.334738
78  2023-11-01 09:55:09.366637
79  2023-11-01 09:55:09.398553
80  2023-11-01 09:55:09.430467
81  2023-11-01 09:55:09.462381
82  2023-11-01 09:55:09.494296
83  2023-11-01 09:55:09.526211
84  2023-11-01 09:55:09.558126
85  2023-11-01 09:55:09.590040
86  2023-11-01 09:55:09.637913
87  2023-11-01 09:55:09.669826
88  2023-11-01 09:55:09.701742
89  2023-11-01 09:55:09.734653
90  2023-11-01 09:55:09.766569
91  2023-11-01 09:55:09.797529
92  2023-11-01 09:55:09.830398
93  2023-11-01 09:55:09.862345
94  2023-11-01 09:55:09.894234
95  2023-11-01 09:55:09.926141
96  2023-11-01 09:55:09.958056
97  2023-11-01 09:55:09.990003
98  2023-11-01 09:55:10.037843
99  2023-11-01 09:55:10.070755
100  2023-11-01 09:55:10.102671
101  2023-11-01 09:55:10.133671
102  2023-11-01 09:55:10.166574
103  2023-11-01 09:55:10.198489
104  2023-11-01 09:55:10.229669
105  2023-11-01 09:55:10.261669
106  2023-11-01 09:55:10.294548
107  2023-11-01 09:55:10.326464
108  2023-11-01 09:55:10.358409
109  2023-11-01 09:55:10.390303
110  2023-11-01 09:55:10.438163
111  2023-11-01 09:55:10.470079
112  2023-11-01 09:55:10.502000
113  2023-11-01 09:55:10.533909
114  2023-11-01 09:55:10.565824
115  2023-11-01 09:55:10.597738
116  2023-11-01 09:55:10.629696
117  2023-11-01 09:55:10.661612
118  2023-11-01 09:55:10.694484
119  2023-11-01 09:55:10.725396
120  2023-11-01 09:55:10.758308
121  2023-11-01 09:55:10.806190
122  2023-11-01 09:55:10.838095
123  2023-11-01 09:55:10.870017
124  2023-11-01 09:55:10.901924
125  2023-11-01 09:55:10.933839
126  2023-11-01 09:55:10.965753
127  2023-11-01 09:55:10.997667
128  2023-11-01 09:55:11.029582
129  2023-11-01 09:55:11.061536
130  2023-11-01 09:55:11.094409
131  2023-11-01 09:55:11.126325
132  2023-11-01 09:55:11.158238
133  2023-11-01 09:55:11.252986
134  2023-11-01 09:55:11.269977
135  2023-11-01 09:55:11.301892
136  2023-11-01 09:55:11.334805
137  2023-11-01 09:55:11.365763
138  2023-11-01 09:55:11.397636
139  2023-11-01 09:55:11.429552
140  2023-11-01 09:55:11.462462
141  2023-11-01 09:55:11.494379
142  2023-11-01 09:55:11.526292
143  2023-11-01 09:55:11.557544
144  2023-11-01 09:55:11.606471
145  2023-11-01 09:55:11.638355
146  2023-11-01 09:55:11.669941
147  2023-11-01 09:55:11.701848
148  2023-11-01 09:55:11.733840
149  2023-11-01 09:55:11.765763
150  2023-11-01 09:55:11.798668
151  2023-11-01 09:55:11.830612
152  2023-11-01 09:55:11.862560
153  2023-11-01 09:55:11.894562
154  2023-11-01 09:55:11.926554
155  2023-11-01 09:55:11.957469
156  2023-11-01 09:55:12.006339
157  2023-11-01 09:55:12.038255
158  2023-11-01 09:55:12.070169
159  2023-11-01 09:55:12.102083
160  2023-11-01 09:55:12.133997
161  2023-11-01 09:55:12.165931
162  2023-11-01 09:55:12.197826
163  2023-11-01 09:55:12.229786
164  2023-11-01 09:55:12.262698
165  2023-11-01 09:55:12.294601
166  2023-11-01 09:55:12.326518
167  2023-11-01 09:55:12.357399
168  2023-11-01 09:55:12.406317
169  2023-11-01 09:55:12.438219
170  2023-11-01 09:55:12.470128
171  2023-11-01 09:55:12.502013
172  2023-11-01 09:55:12.533931
173  2023-11-01 09:55:12.565842
174  2023-11-01 09:55:12.597788
175  2023-11-01 09:55:12.629673
176  2023-11-01 09:55:12.661589
177  2023-11-01 09:55:12.694534
178  2023-11-01 09:55:12.726185
179  2023-11-01 09:55:12.758058
180  2023-11-01 09:55:12.805966
181  2023-11-01 09:55:12.837860
182  2023-11-01 09:55:12.869798
183  2023-11-01 09:55:12.901726
184  2023-11-01 09:55:12.934658
185  2023-11-01 09:55:12.966504
186  2023-11-01 09:55:12.997457
187  2023-11-01 09:55:13.029381
188  2023-11-01 09:55:13.062287
189  2023-11-01 09:55:13.094187
190  2023-11-01 09:55:13.126077
191  2023-11-01 09:55:13.158023
192  2023-11-01 09:55:13.205947
193  2023-11-01 09:55:13.237857
194  2023-11-01 09:55:13.269772
195  2023-11-01 09:55:13.301773
196  2023-11-01 09:55:13.333652
197  2023-11-01 09:55:13.365572
198  2023-11-01 09:55:13.397524
199  2023-11-01 09:55:13.430438
200  2023-11-01 09:55:13.462340
201  2023-11-01 09:55:13.494261
202  2023-11-01 09:55:13.526137
203  2023-11-01 09:55:13.558086
204  2023-11-01 09:55:13.605923
205  2023-11-01 09:55:13.637840
206  2023-11-01 09:55:13.669785
207  2023-11-01 09:55:13.701714
208  2023-11-01 09:55:13.733583
209  2023-11-01 09:55:13.766496
210  2023-11-01 09:55:13.798461
211  2023-11-01 09:55:13.830384
212  2023-11-01 09:55:13.862239
213  2023-11-01 09:55:13.894153
214  2023-11-01 09:55:13.926082
215  2023-11-01 09:55:13.958013
216  2023-11-01 09:55:14.005854
217  2023-11-01 09:55:14.038801
218  2023-11-01 09:55:14.069747
219  2023-11-01 09:55:14.101638
220  2023-11-01 09:55:14.133513
221  2023-11-01 09:55:14.166487
222  2023-11-01 09:55:14.198372
223  2023-11-01 09:55:14.230257
224  2023-11-01 09:55:14.262205
225  2023-11-01 09:55:14.294125
226  2023-11-01 09:55:14.326033
227  2023-11-01 09:55:14.357947
228  2023-11-01 09:55:14.406170
229  2023-11-01 09:55:14.438086
230  2023-11-01 09:55:14.470045
231  2023-11-01 09:55:14.501961
232  2023-11-01 09:55:14.533875
233  2023-11-01 09:55:14.566788
234  2023-11-01 09:55:14.597724
235  2023-11-01 09:55:14.630654
236  2023-11-01 09:55:14.661533
237  2023-11-01 09:55:14.694446
238  2023-11-01 09:55:14.726329
239  2023-11-01 09:55:14.774227
240  2023-11-01 09:55:14.806238
241  2023-11-01 09:55:14.838117
242  2023-11-01 09:55:14.870058
243  2023-11-01 09:55:14.901949
244  2023-11-01 09:55:14.934903
245  2023-11-01 09:55:14.965806
246  2023-11-01 09:55:14.997722
247  2023-11-01 09:55:15.030626
248  2023-11-01 09:55:15.061554
249  2023-11-01 09:55:15.093477
250  2023-11-01 09:55:15.126345
251  2023-11-01 09:55:15.174266
252  2023-11-01 09:55:15.206132
253  2023-11-01 09:55:15.238046
254  2023-11-01 09:55:15.269991
255  2023-11-01 09:55:15.301882
256  2023-11-01 09:55:15.333791
257  2023-11-01 09:55:15.365706
258  2023-11-01 09:55:15.397619
259  2023-11-01 09:55:15.430559
260  2023-11-01 09:55:15.462488
261  2023-11-01 09:55:15.494365
262  2023-11-01 09:55:15.526276
263  2023-11-01 09:55:15.574174
264  2023-11-01 09:55:15.606063
265  2023-11-01 09:55:15.637977
266  2023-11-01 09:55:15.669902
267  2023-11-01 09:55:15.701860
268  2023-11-01 09:55:15.733722
269  2023-11-01 09:55:15.766634
270  2023-11-01 09:55:15.798586
271  2023-11-01 09:55:15.830518
272  2023-11-01 09:55:15.862377
273  2023-11-01 09:55:15.893295
274  2023-11-01 09:55:15.926196
275  2023-11-01 09:55:15.974066
276  2023-11-01 09:55:16.006030
277  2023-11-01 09:55:16.037991
278  2023-11-01 09:55:16.069906
279  2023-11-01 09:55:16.101821
280  2023-11-01 09:55:16.133734
281  2023-11-01 09:55:16.166646
282  2023-11-01 09:55:16.197567
283  2023-11-01 09:55:16.230532
284  2023-11-01 09:55:16.262390
285  2023-11-01 09:55:16.306276
286  2023-11-01 09:55:16.326219
287  2023-11-01 09:55:16.374091
288  2023-11-01 09:55:16.406008
289  2023-11-01 09:55:16.437922
290  2023-11-01 09:55:16.469835
291  2023-11-01 09:55:16.501760
292  2023-11-01 09:55:16.533665
293  2023-11-01 09:55:16.566578
294  2023-11-01 09:55:16.598492
295  2023-11-01 09:55:16.629411
296  2023-11-01 09:55:16.662324
297  2023-11-01 09:55:16.694252
298  2023-11-01 09:55:16.726187
299  2023-11-01 09:55:16.774023
300  2023-11-01 09:55:16.805973
301  2023-11-01 09:55:16.837851
302  2023-11-01 09:55:16.869766
303  2023-11-01 09:55:16.901800
304  2023-11-01 09:55:16.933724
305  2023-11-01 09:55:16.965627
306  2023-11-01 09:55:16.997542
307  2023-11-01 09:55:17.029483
308  2023-11-01 09:55:17.062369
309  2023-11-01 09:55:17.093386
310  2023-11-01 09:55:17.126259
311  2023-11-01 09:55:17.174243
312  2023-11-01 09:55:17.206158
313  2023-11-01 09:55:17.238072
314  2023-11-01 09:55:17.269987
315  2023-11-01 09:55:17.301903
316  2023-11-01 09:55:17.333817
317  2023-11-01 09:55:17.365730
318  2023-11-01 09:55:17.397697
319  2023-11-01 09:55:17.429559
320  2023-11-01 09:55:17.461512
321  2023-11-01 09:55:17.494389
322  2023-11-01 09:55:17.526552
323  2023-11-01 09:55:17.574424
324  2023-11-01 09:55:17.606449
325  2023-11-01 09:55:17.638358
326  2023-11-01 09:55:17.670277
327  2023-11-01 09:55:17.702159
328  2023-11-01 09:55:17.734159
329  2023-11-01 09:55:17.766120
330  2023-11-01 09:55:17.798064
331  2023-11-01 09:55:17.829951
332  2023-11-01 09:55:17.861857
333  2023-11-01 09:55:17.893809
334  2023-11-01 09:55:17.926684
335  2023-11-01 09:55:17.974564
336  2023-11-01 09:55:18.006472
337  2023-11-01 09:55:18.038428
338  2023-11-01 09:55:18.070301
339  2023-11-01 09:55:18.102214
340  2023-11-01 09:55:18.134166
341  2023-11-01 09:55:18.166133
342  2023-11-01 09:55:18.198074
343  2023-11-01 09:55:18.229973
344  2023-11-01 09:55:18.261914
345  2023-11-01 09:55:18.293819
346  2023-11-01 09:55:18.341704
347  2023-11-01 09:55:18.373572
348  2023-11-01 09:55:18.406485
349  2023-11-01 09:55:18.438399
350  2023-11-01 09:55:18.470356
351  2023-11-01 09:55:18.502260
352  2023-11-01 09:55:18.534144
353  2023-11-01 09:55:18.566063
354  2023-11-01 09:55:18.597974
355  2023-11-01 09:55:18.630914
356  2023-11-01 09:55:18.661809
357  2023-11-01 09:55:18.693760
358  2023-11-01 09:55:18.741588
359  2023-11-01 09:55:18.773503
360  2023-11-01 09:55:18.806449
361  2023-11-01 09:55:18.838343
362  2023-11-01 09:55:18.870246
363  2023-11-01 09:55:18.902160
364  2023-11-01 09:55:18.934075
365  2023-11-01 09:55:18.965991
366  2023-11-01 09:55:18.997903
367  2023-11-01 09:55:19.029819
368  2023-11-01 09:55:19.061733
369  2023-11-01 09:55:19.093647
370  2023-11-01 09:55:19.141520
371  2023-11-01 09:55:19.173436
372  2023-11-01 09:55:19.206395
373  2023-11-01 09:55:19.238290
374  2023-11-01 09:55:19.270293
375  2023-11-01 09:55:19.302208
376  2023-11-01 09:55:19.334122
377  2023-11-01 09:55:19.366036
378  2023-11-01 09:55:19.397953
379  2023-11-01 09:55:19.429865
380  2023-11-01 09:55:19.461782
381  2023-11-01 09:55:19.493759
382  2023-11-01 09:55:19.541567
383  2023-11-01 09:55:19.574480
384  2023-11-01 09:55:19.606428
385  2023-11-01 09:55:19.638308
386  2023-11-01 09:55:19.670226
387  2023-11-01 09:55:19.702140
388  2023-11-01 09:55:19.734095
389  2023-11-01 09:55:19.766002
390  2023-11-01 09:55:19.797882
391  2023-11-01 09:55:19.829796
392  2023-11-01 09:55:19.861711
393  2023-11-01 09:55:19.893668
394  2023-11-01 09:55:19.941497
395  2023-11-01 09:55:19.974411
396  2023-11-01 09:55:20.006361
397  2023-11-01 09:55:20.038241
398  2023-11-01 09:55:20.070190
399  2023-11-01 09:55:20.102068
400  2023-11-01 09:55:20.133986
401  2023-11-01 09:55:20.165898
402  2023-11-01 09:55:20.197816
403  2023-11-01 09:55:20.229727
404  2023-11-01 09:55:20.261651
405  2023-11-01 09:55:20.293564
406  2023-11-01 09:55:20.341528
407  2023-11-01 09:55:20.374492
408  2023-11-01 09:55:20.406387
409  2023-11-01 09:55:20.438319
410  2023-11-01 09:55:20.470221
411  2023-11-01 09:55:20.502100
412  2023-11-01 09:55:20.534015
413  2023-11-01 09:55:20.565929
414  2023-11-01 09:55:20.598843
415  2023-11-01 09:55:20.630788
416  2023-11-01 09:55:20.662671
417  2023-11-01 09:55:20.694586
418  2023-11-01 09:55:20.741459
419  2023-11-01 09:55:20.773681
420  2023-11-01 09:55:20.805673
421  2023-11-01 09:55:20.838479
422  2023-11-01 09:55:20.870394
423  2023-11-01 09:55:20.902407
424  2023-11-01 09:55:20.933326
425  2023-11-01 09:55:20.966239
426  2023-11-01 09:55:20.998191
427  2023-11-01 09:55:21.030200
428  2023-11-01 09:55:21.062161
429  2023-11-01 09:55:21.094064
430  2023-11-01 09:55:21.141933
431  2023-11-01 09:55:21.173817
432  2023-11-01 09:55:21.205731
433  2023-11-01 09:55:21.237687
434  2023-11-01 09:55:21.270558
435  2023-11-01 09:55:21.301474
436  2023-11-01 09:55:21.351348
437  2023-11-01 09:55:21.366302
438  2023-11-01 09:55:21.398216
439  2023-11-01 09:55:21.430131
440  2023-11-01 09:55:21.462046
441  2023-11-01 09:55:21.493960
442  2023-11-01 09:55:21.541832
443  2023-11-01 09:55:21.573749
444  2023-11-01 09:55:21.605738
445  2023-11-01 09:55:21.637758
446  2023-11-01 09:55:21.669646
447  2023-11-01 09:55:21.702583
448  2023-11-01 09:55:21.733469
449  2023-11-01 09:55:21.766378
450  2023-11-01 09:55:21.798325
451  2023-11-01 09:55:21.830210
452  2023-11-01 09:55:21.862122
453  2023-11-01 09:55:21.894037
454  2023-11-01 09:55:21.941909
455  2023-11-01 09:55:21.973859
456  2023-11-01 09:55:22.005741
457  2023-11-01 09:55:22.037653
458  2023-11-01 09:55:22.070603
459  2023-11-01 09:55:22.102516
460  2023-11-01 09:55:22.134395
461  2023-11-01 09:55:22.166355
462  2023-11-01 09:55:22.198260
463  2023-11-01 09:55:22.230157
464  2023-11-01 09:55:22.262054
465  2023-11-01 09:55:22.309925
466  2023-11-01 09:55:22.341840
467  2023-11-01 09:55:22.373755
468  2023-11-01 09:55:22.405671
469  2023-11-01 09:55:22.437584
470  2023-11-01 09:55:22.470498
471  2023-11-01 09:55:22.501413
472  2023-11-01 09:55:22.534326
473  2023-11-01 09:55:22.566242
474  2023-11-01 09:55:22.598155
475  2023-11-01 09:55:22.630070
476  2023-11-01 09:55:22.661984
477  2023-11-01 09:55:22.709856
478  2023-11-01 09:55:22.741771
479  2023-11-01 09:55:22.774685
480  2023-11-01 09:55:22.805601
481  2023-11-01 09:55:22.838512
482  2023-11-01 09:55:22.869486
483  2023-11-01 09:55:22.902424
484  2023-11-01 09:55:22.934312
485  2023-11-01 09:55:22.966231
486  2023-11-01 09:55:22.998143
487  2023-11-01 09:55:23.030185
488  2023-11-01 09:55:23.062171
489  2023-11-01 09:55:23.110072
490  2023-11-01 09:55:23.142054
491  2023-11-01 09:55:23.173920
492  2023-11-01 09:55:23.205829
493  2023-11-01 09:55:23.237743
494  2023-11-01 09:55:23.269659
495  2023-11-01 09:55:23.302570
496  2023-11-01 09:55:23.333487
497  2023-11-01 09:55:23.366429
498  2023-11-01 09:55:23.398367
499  2023-11-01 09:55:23.430281
500  2023-11-01 09:55:23.462144
501  2023-11-01 09:55:23.510015
502  2023-11-01 09:55:23.541930
503  2023-11-01 09:55:23.573958
504  2023-11-01 09:55:23.605871
505  2023-11-01 09:55:23.637785
506  2023-11-01 09:55:23.669748
507  2023-11-01 09:55:23.702612
508  2023-11-01 09:55:23.734527
509  2023-11-01 09:55:23.766444
510  2023-11-01 09:55:23.798357
511  2023-11-01 09:55:23.830271
512  2023-11-01 09:55:23.862190
513  2023-11-01 09:55:23.910057
514  2023-11-01 09:55:23.941972
515  2023-11-01 09:55:23.973919
516  2023-11-01 09:55:24.005802
517  2023-11-01 09:55:24.037716
518  2023-11-01 09:55:24.069630
519  2023-11-01 09:55:24.102568
520  2023-11-01 09:55:24.134458
521  2023-11-01 09:55:24.166373
522  2023-11-01 09:55:24.198319
523  2023-11-01 09:55:24.230237
524  2023-11-01 09:55:24.262129
525  2023-11-01 09:55:24.309988
526  2023-11-01 09:55:24.341902
527  2023-11-01 09:55:24.373819
528  2023-11-01 09:55:24.405733
529  2023-11-01 09:55:24.438689
530  2023-11-01 09:55:24.469595
531  2023-11-01 09:55:24.502475
532  2023-11-01 09:55:24.534389
533  2023-11-01 09:55:24.566329
534  2023-11-01 09:55:24.598233
535  2023-11-01 09:55:24.630169
536  2023-11-01 09:55:24.662048
537  2023-11-01 09:55:24.709919
538  2023-11-01 09:55:24.741833
539  2023-11-01 09:55:24.773804
540  2023-11-01 09:55:24.805663
541  2023-11-01 09:55:24.838610
542  2023-11-01 09:55:24.870527
543  2023-11-01 09:55:24.902405
544  2023-11-01 09:55:24.934323
545  2023-11-01 09:55:24.966235
546  2023-11-01 09:55:24.998149
547  2023-11-01 09:55:25.030064
548  2023-11-01 09:55:25.063002
549  2023-11-01 09:55:25.109849
550  2023-11-01 09:55:25.141765
551  2023-11-01 09:55:25.174702
552  2023-11-01 09:55:25.205594
553  2023-11-01 09:55:25.237522
554  2023-11-01 09:55:25.270421
555  2023-11-01 09:55:25.302352
556  2023-11-01 09:55:25.334284
557  2023-11-01 09:55:25.366200
558  2023-11-01 09:55:25.398150
559  2023-11-01 09:55:25.430062
560  2023-11-01 09:55:25.461944
561  2023-11-01 09:55:25.509817
562  2023-11-01 09:55:25.541731
563  2023-11-01 09:55:25.573717
564  2023-11-01 09:55:25.606628
565  2023-11-01 09:55:25.638690
566  2023-11-01 09:55:25.670556
567  2023-11-01 09:55:25.702470
568  2023-11-01 09:55:25.734394
569  2023-11-01 09:55:25.766300
570  2023-11-01 09:55:25.798214
571  2023-11-01 09:55:25.830162
572  2023-11-01 09:55:25.862198
573  2023-11-01 09:55:25.910066
574  2023-11-01 09:55:25.941981
575  2023-11-01 09:55:25.973896
576  2023-11-01 09:55:26.005813
577  2023-11-01 09:55:26.037725
578  2023-11-01 09:55:26.070721
579  2023-11-01 09:55:26.101725
580  2023-11-01 09:55:26.134697
581  2023-11-01 09:55:26.166553
582  2023-11-01 09:55:26.198468
583  2023-11-01 09:55:26.230414
584  2023-11-01 09:55:26.278251
585  2023-11-01 09:55:26.310206
586  2023-11-01 09:55:26.342082
587  2023-11-01 09:55:26.374038
588  2023-11-01 09:55:26.406908
589  2023-11-01 09:55:26.437825
590  2023-11-01 09:55:26.469744
591  2023-11-01 09:55:26.502653
592  2023-11-01 09:55:26.534644
593  2023-11-01 09:55:26.566494
594  2023-11-01 09:55:26.598395
595  2023-11-01 09:55:26.630312
596  2023-11-01 09:55:26.678204
597  2023-11-01 09:55:26.710097
598  2023-11-01 09:55:26.742014
599  2023-11-01 09:55:26.773929
600  2023-11-01 09:55:26.806839
601  2023-11-01 09:55:26.837761
602  2023-11-01 09:55:26.869671
603  2023-11-01 09:55:26.902583
604  2023-11-01 09:55:26.933499
605  2023-11-01 09:55:26.966413
606  2023-11-01 09:55:26.998327
607  2023-11-01 09:55:27.030289
608  2023-11-01 09:55:27.078160
609  2023-11-01 09:55:27.110106
610  2023-11-01 09:55:27.142083
611  2023-11-01 09:55:27.174045
612  2023-11-01 09:55:27.205917
613  2023-11-01 09:55:27.237826
614  2023-11-01 09:55:27.269743
615  2023-11-01 09:55:27.302691
616  2023-11-01 09:55:27.333610
617  2023-11-01 09:55:27.365504
618  2023-11-01 09:55:27.398400
619  2023-11-01 09:55:27.430338
620  2023-11-01 09:55:27.478232
621  2023-11-01 09:55:27.510098
622  2023-11-01 09:55:27.542063
623  2023-11-01 09:55:27.573931
624  2023-11-01 09:55:27.606881
625  2023-11-01 09:55:27.637792
626  2023-11-01 09:55:27.670705
627  2023-11-01 09:55:27.701596
628  2023-11-01 09:55:27.734572
629  2023-11-01 09:55:27.766547
630  2023-11-01 09:55:27.798461
631  2023-11-01 09:55:27.830372
632  2023-11-01 09:55:27.878280
633  2023-11-01 09:55:27.910186
634  2023-11-01 09:55:27.942070
635  2023-11-01 09:55:27.973992
636  2023-11-01 09:55:28.005946
637  2023-11-01 09:55:28.037816
638  2023-11-01 09:55:28.069927
639  2023-11-01 09:55:28.101810
640  2023-11-01 09:55:28.133774
641  2023-11-01 09:55:28.165639
642  2023-11-01 09:55:28.197561
643  2023-11-01 09:55:28.229500
644  2023-11-01 09:55:28.277376
645  2023-11-01 09:55:28.310280
646  2023-11-01 09:55:28.342200
647  2023-11-01 09:55:28.374084
648  2023-11-01 09:55:28.406001
649  2023-11-01 09:55:28.437912
650  2023-11-01 09:55:28.469852
651  2023-11-01 09:55:28.501781
652  2023-11-01 09:55:28.533705
653  2023-11-01 09:55:28.565570
654  2023-11-01 09:55:28.597485
655  2023-11-01 09:55:28.630441
656  2023-11-01 09:55:28.677304
657  2023-11-01 09:55:28.710230
658  2023-11-01 09:55:28.742097
659  2023-11-01 09:55:28.774014
660  2023-11-01 09:55:28.805933
661  2023-11-01 09:55:28.837841
662  2023-11-01 09:55:28.869756
663  2023-11-01 09:55:28.902669
664  2023-11-01 09:55:28.933630
665  2023-11-01 09:55:28.965535
666  2023-11-01 09:55:28.998447
667  2023-11-01 09:55:29.030390
668  2023-11-01 09:55:29.078233
669  2023-11-01 09:55:29.110113
670  2023-11-01 09:55:29.142094
671  2023-11-01 09:55:29.173945
672  2023-11-01 09:55:29.205895
673  2023-11-01 09:55:29.237805
674  2023-11-01 09:55:29.269727
675  2023-11-01 09:55:29.301604
676  2023-11-01 09:55:29.333551
677  2023-11-01 09:55:29.365475
678  2023-11-01 09:55:29.398345
679  2023-11-01 09:55:29.429318
680  2023-11-01 09:55:29.478206
681  2023-11-01 09:55:29.510076
682  2023-11-01 09:55:29.541995
683  2023-11-01 09:55:29.573462
684  2023-11-01 09:55:29.606351
685  2023-11-01 09:55:29.638299
686  2023-11-01 09:55:29.670180
687  2023-11-01 09:55:29.702092
688  2023-11-01 09:55:29.734010
689  2023-11-01 09:55:29.765976
690  2023-11-01 09:55:29.798000
691  2023-11-01 09:55:29.845872
692  2023-11-01 09:55:29.877796
693  2023-11-01 09:55:29.909708
694  2023-11-01 09:55:29.941649
695  2023-11-01 09:55:29.974537
696  2023-11-01 09:55:30.005449
697  2023-11-01 09:55:30.038358
698  2023-11-01 09:55:30.070241
699  2023-11-01 09:55:30.102157
700  2023-11-01 09:55:30.134071
701  2023-11-01 09:55:30.165985
702  2023-11-01 09:55:30.198930
703  2023-11-01 09:55:30.245802
704  2023-11-01 09:55:30.277729
705  2023-11-01 09:55:30.309631
706  2023-11-01 09:55:30.341515
707  2023-11-01 09:55:30.373476
708  2023-11-01 09:55:30.406342
709  2023-11-01 09:55:30.438257
710  2023-11-01 09:55:30.470171
711  2023-11-01 09:55:30.502087
712  2023-11-01 09:55:30.534031
713  2023-11-01 09:55:30.565949
714  2023-11-01 09:55:30.597831
715  2023-11-01 09:55:30.645742
716  2023-11-01 09:55:30.677667
717  2023-11-01 09:55:30.709581
718  2023-11-01 09:55:30.741494
719  2023-11-01 09:55:30.774408
720  2023-11-01 09:55:30.806373
721  2023-11-01 09:55:30.838281
722  2023-11-01 09:55:30.870260
723  2023-11-01 09:55:30.902111
724  2023-11-01 09:55:30.934026
725  2023-11-01 09:55:30.965986
726  2023-11-01 09:55:30.997903
727  2023-11-01 09:55:31.045774
728  2023-11-01 09:55:31.077773
729  2023-11-01 09:55:31.109683
730  2023-11-01 09:55:31.141606
731  2023-11-01 09:55:31.173595
732  2023-11-01 09:55:31.205544
733  2023-11-01 09:55:31.238444
734  2023-11-01 09:55:31.270383
735  2023-11-01 09:55:31.302332
736  2023-11-01 09:55:31.334289
737  2023-11-01 09:55:31.366198
738  2023-11-01 09:55:31.398183
739  2023-11-01 09:55:31.446092
740  2023-11-01 09:55:31.477971
741  2023-11-01 09:55:31.509925
742  2023-11-01 09:55:31.541840
743  2023-11-01 09:55:31.573715
744  2023-11-01 09:55:31.605629
745  2023-11-01 09:55:31.637582
746  2023-11-01 09:55:31.669493
747  2023-11-01 09:55:31.702371
748  2023-11-01 09:55:31.734318
749  2023-11-01 09:55:31.766199
750  2023-11-01 09:55:31.798115
751  2023-11-01 09:55:31.846017
752  2023-11-01 09:55:31.877941
753  2023-11-01 09:55:31.909847
754  2023-11-01 09:55:31.941768
755  2023-11-01 09:55:31.973696
756  2023-11-01 09:55:32.005597
757  2023-11-01 09:55:32.038340
758  2023-11-01 09:55:32.070365
759  2023-11-01 09:55:32.102282
760  2023-11-01 09:55:32.134194
761  2023-11-01 09:55:32.166111
762  2023-11-01 09:55:32.198024
763  2023-11-01 09:55:32.245927
764  2023-11-01 09:55:32.277890
765  2023-11-01 09:55:32.309802
766  2023-11-01 09:55:32.341822
767  2023-11-01 09:55:32.373739
768  2023-11-01 09:55:32.405628
769  2023-11-01 09:55:32.437585
770  2023-11-01 09:55:32.470476
771  2023-11-01 09:55:32.502360
772  2023-11-01 09:55:32.534310
773  2023-11-01 09:55:32.566219
774  2023-11-01 09:55:32.598175
775  2023-11-01 09:55:32.646023
776  2023-11-01 09:55:32.677924
777  2023-11-01 09:55:32.709836
778  2023-11-01 09:55:32.741837
779  2023-11-01 09:55:32.774721
780  2023-11-01 09:55:32.805671
781  2023-11-01 09:55:32.837552
782  2023-11-01 09:55:32.869467
783  2023-11-01 09:55:32.902381
784  2023-11-01 09:55:32.934294
785  2023-11-01 09:55:32.966259
786  2023-11-01 09:55:32.998123
787  2023-11-01 09:55:33.045995
788  2023-11-01 09:55:33.077940
789  2023-11-01 09:55:33.109954
790  2023-11-01 09:55:33.141935
791  2023-11-01 09:55:33.173815
792  2023-11-01 09:55:33.205734
793  2023-11-01 09:55:33.237675
794  2023-11-01 09:55:33.269566
795  2023-11-01 09:55:33.301482
796  2023-11-01 09:55:33.334423
797  2023-11-01 09:55:33.366301
798  2023-11-01 09:55:33.398215
799  2023-11-01 09:55:33.446141
800  2023-11-01 09:55:33.478112
801  2023-11-01 09:55:33.510131
802  2023-11-01 09:55:33.542047
803  2023-11-01 09:55:33.573921
804  2023-11-01 09:55:33.605865
805  2023-11-01 09:55:33.637799
806  2023-11-01 09:55:33.669713
807  2023-11-01 09:55:33.701684
808  2023-11-01 09:55:33.734674
809  2023-11-01 09:55:33.765535
810  2023-11-01 09:55:33.814215
811  2023-11-01 09:55:33.846130
812  2023-11-01 09:55:33.878045
813  2023-11-01 09:55:33.909998
814  2023-11-01 09:55:33.941913
815  2023-11-01 09:55:33.973828
816  2023-11-01 09:55:34.005756
817  2023-11-01 09:55:34.038693
818  2023-11-01 09:55:34.069571
819  2023-11-01 09:55:34.102485
820  2023-11-01 09:55:34.134445
821  2023-11-01 09:55:34.166421
822  2023-11-01 09:55:34.214292
823  2023-11-01 09:55:34.246207
824  2023-11-01 09:55:34.278122
825  2023-11-01 09:55:34.310037
826  2023-11-01 09:55:34.341952
827  2023-11-01 09:55:34.373894
828  2023-11-01 09:55:34.405781
829  2023-11-01 09:55:34.437697
830  2023-11-01 09:55:34.470608
831  2023-11-01 09:55:34.501560
832  2023-11-01 09:55:34.533577
833  2023-11-01 09:55:34.566439
834  2023-11-01 09:55:34.613423
835  2023-11-01 09:55:34.645305
836  2023-11-01 09:55:34.678217
837  2023-11-01 09:55:34.710164
838  2023-11-01 09:55:34.742047
839  2023-11-01 09:55:34.773962
840  2023-11-01 09:55:34.805883
841  2023-11-01 09:55:34.837791
842  2023-11-01 09:55:34.869706
843  2023-11-01 09:55:34.901620
844  2023-11-01 09:55:34.933602
845  2023-11-01 09:55:34.966447
846  2023-11-01 09:55:35.013365
847  2023-11-01 09:55:35.046233
848  2023-11-01 09:55:35.078148
849  2023-11-01 09:55:35.110063
850  2023-11-01 09:55:35.142013
851  2023-11-01 09:55:35.173939
852  2023-11-01 09:55:35.205807
853  2023-11-01 09:55:35.238719
854  2023-11-01 09:55:35.269644
855  2023-11-01 09:55:35.302580
856  2023-11-01 09:55:35.334494
857  2023-11-01 09:55:35.366379
858  2023-11-01 09:55:35.414256
859  2023-11-01 09:55:35.446164
860  2023-11-01 09:55:35.478109
861  2023-11-01 09:55:35.509994
862  2023-11-01 09:55:35.541908
863  2023-11-01 09:55:35.573823
864  2023-11-01 09:55:35.605738
865  2023-11-01 09:55:35.638652
866  2023-11-01 09:55:35.669618
867  2023-11-01 09:55:35.701532
868  2023-11-01 09:55:35.734445
869  2023-11-01 09:55:35.765445
870  2023-11-01 09:55:35.814275
871  2023-11-01 09:55:35.846307
872  2023-11-01 09:55:35.878229
873  2023-11-01 09:55:35.910136
874  2023-11-01 09:55:35.942092
875  2023-11-01 09:55:35.974046
876  2023-11-01 09:55:36.005951
877  2023-11-01 09:55:36.037836
878  2023-11-01 09:55:36.069809
879  2023-11-01 09:55:36.101666
880  2023-11-01 09:55:36.133619
881  2023-11-01 09:55:36.166525
882  2023-11-01 09:55:36.213399
883  2023-11-01 09:55:36.246279
884  2023-11-01 09:55:36.278193
885  2023-11-01 09:55:36.310143
886  2023-11-01 09:55:36.342053
887  2023-11-01 09:55:36.373938
888  2023-11-01 09:55:36.405853
889  2023-11-01 09:55:36.437768
890  2023-11-01 09:55:36.469714
891  2023-11-01 09:55:36.501625
892  2023-11-01 09:55:36.533563
893  2023-11-01 09:55:36.566425
894  2023-11-01 09:55:36.614295
895  2023-11-01 09:55:36.646245
896  2023-11-01 09:55:36.678204
897  2023-11-01 09:55:36.710144
898  2023-11-01 09:55:36.742189
899  2023-11-01 09:55:36.774106
900  2023-11-01 09:55:36.806084
901  2023-11-01 09:55:36.837943
902  2023-11-01 09:55:36.869896
903  2023-11-01 09:55:36.901765
904  2023-11-01 09:55:36.933716
905  2023-11-01 09:55:36.965594
906  2023-11-01 09:55:37.014462
907  2023-11-01 09:55:37.045379
908  2023-11-01 09:55:37.077293
909  2023-11-01 09:55:37.110206
910  2023-11-01 09:55:37.142122
911  2023-11-01 09:55:37.174035
912  2023-11-01 09:55:37.205990
913  2023-11-01 09:55:37.237865
914  2023-11-01 09:55:37.269815
915  2023-11-01 09:55:37.301696
916  2023-11-01 09:55:37.333652
917  2023-11-01 09:55:37.382478
918  2023-11-01 09:55:37.414392
919  2023-11-01 09:55:37.445310
920  2023-11-01 09:55:37.477225
921  2023-11-01 09:55:37.510137
922  2023-11-01 09:55:37.542052
923  2023-11-01 09:55:37.573972
924  2023-11-01 09:55:37.605882
925  2023-11-01 09:55:37.638793
926  2023-11-01 09:55:37.669710
927  2023-11-01 09:55:37.702144
928  2023-11-01 09:55:37.734056
929  2023-11-01 09:55:37.782049
930  2023-11-01 09:55:37.813994
931  2023-11-01 09:55:37.845878
932  2023-11-01 09:55:37.877793
933  2023-11-01 09:55:37.909707
934  2023-11-01 09:55:37.941699
935  2023-11-01 09:55:37.974678
936  2023-11-01 09:55:38.005657
937  2023-11-01 09:55:38.037603
938  2023-11-01 09:55:38.070517
939  2023-11-01 09:55:38.102430
940  2023-11-01 09:55:38.134441
941  2023-11-01 09:55:38.182271
942  2023-11-01 09:55:38.214185
943  2023-11-01 09:55:38.246100
944  2023-11-01 09:55:38.278015
945  2023-11-01 09:55:38.309929
946  2023-11-01 09:55:38.341831
947  2023-11-01 09:55:38.374742
948  2023-11-01 09:55:38.405700
949  2023-11-01 09:55:38.437688
950  2023-11-01 09:55:38.469611
951  2023-11-01 09:55:38.502502
952  2023-11-01 09:55:38.534409
953  2023-11-01 09:55:38.581464
954  2023-11-01 09:55:38.613410
955  2023-11-01 09:55:38.645327
956  2023-11-01 09:55:38.678206
957  2023-11-01 09:55:38.710121
958  2023-11-01 09:55:38.742035
959  2023-11-01 09:55:38.773971
960  2023-11-01 09:55:38.805886
961  2023-11-01 09:55:38.837920
962  2023-11-01 09:55:38.869822
963  2023-11-01 09:55:38.901750
964  2023-11-01 09:55:38.934613
965  2023-11-01 09:55:38.981485
966  2023-11-01 09:55:39.013400
967  2023-11-01 09:55:39.046356
968  2023-11-01 09:55:39.078320
969  2023-11-01 09:55:39.110234
970  2023-11-01 09:55:39.142149
971  2023-11-01 09:55:39.174064
972  2023-11-01 09:55:39.206013
973  2023-11-01 09:55:39.238917
974  2023-11-01 09:55:39.269967
975  2023-11-01 09:55:39.302750
976  2023-11-01 09:55:39.333630
977  2023-11-01 09:55:39.382528
978  2023-11-01 09:55:39.413426
979  2023-11-01 09:55:39.446329
980  2023-11-01 09:55:39.478244
981  2023-11-01 09:55:39.510158
982  2023-11-01 09:55:39.542073
983  2023-11-01 09:55:39.574001
984  2023-11-01 09:55:39.605904
985  2023-11-01 09:55:39.637817
986  2023-11-01 09:55:39.669734
987  2023-11-01 09:55:39.701646
988  2023-11-01 09:55:39.734615
989  2023-11-01 09:55:39.781522
990  2023-11-01 09:55:39.813488
991  2023-11-01 09:55:39.845439
992  2023-11-01 09:55:39.878314
993  2023-11-01 09:55:39.910328
994  2023-11-01 09:55:39.942242
995  2023-11-01 09:55:39.974160
996  2023-11-01 09:55:40.006098
997  2023-11-01 09:55:40.037986
998  2023-11-01 09:55:40.069901
999  2023-11-01 09:55:40.101819
1000  2023-11-01 09:55:40.133731
1001  2023-11-01 09:55:40.181714
1002  2023-11-01 09:55:40.213493
1003  2023-11-01 09:55:40.245434
1004  2023-11-01 09:55:40.277406
1005  2023-11-01 09:55:40.309321
1006  2023-11-01 09:55:40.342233
1007  2023-11-01 09:55:40.374150
1008  2023-11-01 09:55:40.406064
1009  2023-11-01 09:55:40.437996
1010  2023-11-01 09:55:40.469894
1011  2023-11-01 09:55:40.501807
1012  2023-11-01 09:55:40.533734
1013  2023-11-01 09:55:40.581593
1014  2023-11-01 09:55:40.613557
1015  2023-11-01 09:55:40.645548
1016  2023-11-01 09:55:40.677468
1017  2023-11-01 09:55:40.709348
1018  2023-11-01 09:55:40.742264
1019  2023-11-01 09:55:40.774178
1020  2023-11-01 09:55:40.806125
1021  2023-11-01 09:55:40.838126
1022  2023-11-01 09:55:40.870153
1023  2023-11-01 09:55:40.902099
1024  2023-11-01 09:55:40.933984
1025  2023-11-01 09:55:40.981854
1026  2023-11-01 09:55:41.013976
1027  2023-11-01 09:55:41.045863
1028  2023-11-01 09:55:41.077855
1029  2023-11-01 09:55:41.109770
1030  2023-11-01 09:55:41.141669
1031  2023-11-01 09:55:41.174631
1032  2023-11-01 09:55:41.205584
1033  2023-11-01 09:55:41.238517
1034  2023-11-01 09:55:41.270492
1035  2023-11-01 09:55:41.302451
1036  2023-11-01 09:55:41.349279
1037  2023-11-01 09:55:41.382191
1038  2023-11-01 09:55:41.414106
1039  2023-11-01 09:55:41.446021
1040  2023-11-01 09:55:41.477935
1041  2023-11-01 09:55:41.509850
1042  2023-11-01 09:55:41.541768
1043  2023-11-01 09:55:41.574678
1044  2023-11-01 09:55:41.605641
1045  2023-11-01 09:55:41.638644
1046  2023-11-01 09:55:41.670548
1047  2023-11-01 09:55:41.702495
1048  2023-11-01 09:55:41.749337
1049  2023-11-01 09:55:41.782251
1050  2023-11-01 09:55:41.814164
1051  2023-11-01 09:55:41.846078
1052  2023-11-01 09:55:41.877993
1053  2023-11-01 09:55:41.909908
1054  2023-11-01 09:55:41.941822
1055  2023-11-01 09:55:41.974015
1056  2023-11-01 09:55:42.005931
1057  2023-11-01 09:55:42.037846
1058  2023-11-01 09:55:42.070758
1059  2023-11-01 09:55:42.102676
1060  2023-11-01 09:55:42.149620
1061  2023-11-01 09:55:42.181569
1062  2023-11-01 09:55:42.213584
1063  2023-11-01 09:55:42.245627
1064  2023-11-01 09:55:42.277529
1065  2023-11-01 09:55:42.309415
1066  2023-11-01 09:55:42.341450
1067  2023-11-01 09:55:42.374333
1068  2023-11-01 09:55:42.406284
1069  2023-11-01 09:55:42.438163
1070  2023-11-01 09:55:42.470088
1071  2023-11-01 09:55:42.501991
1072  2023-11-01 09:55:42.549761
1073  2023-11-01 09:55:42.581719
1074  2023-11-01 09:55:42.613590
1075  2023-11-01 09:55:42.645544
1076  2023-11-01 09:55:42.677736
1077  2023-11-01 09:55:42.709711
1078  2023-11-01 09:55:42.741716
1079  2023-11-01 09:55:42.773752
1080  2023-11-01 09:55:42.806637
1081  2023-11-01 09:55:42.838639
1082  2023-11-01 09:55:42.870525
1083  2023-11-01 09:55:42.902472
1084  2023-11-01 09:55:42.950310
1085  2023-11-01 09:55:42.982225
1086  2023-11-01 09:55:43.014140
1087  2023-11-01 09:55:43.046056
1088  2023-11-01 09:55:43.077969
1089  2023-11-01 09:55:43.109884
1090  2023-11-01 09:55:43.141840
1091  2023-11-01 09:55:43.173757
1092  2023-11-01 09:55:43.206658
1093  2023-11-01 09:55:43.238541
1094  2023-11-01 09:55:43.270457
1095  2023-11-01 09:55:43.302423
1096  2023-11-01 09:55:43.350331
1097  2023-11-01 09:55:43.382246
1098  2023-11-01 09:55:43.414166
1099  2023-11-01 09:55:43.446154
1100  2023-11-01 09:55:43.478073
1101  2023-11-01 09:55:43.509983
1102  2023-11-01 09:55:43.541897
1103  2023-11-01 09:55:43.574847
1104  2023-11-01 09:55:43.606731
1105  2023-11-01 09:55:43.638678
1106  2023-11-01 09:55:43.670595
1107  2023-11-01 09:55:43.702504
1108  2023-11-01 09:55:43.750342
1109  2023-11-01 09:55:43.782256
1110  2023-11-01 09:55:43.814170
1111  2023-11-01 09:55:43.846085
1112  2023-11-01 09:55:43.878129
1113  2023-11-01 09:55:43.910045
1114  2023-11-01 09:55:43.941959
1115  2023-11-01 09:55:43.974871
1116  2023-11-01 09:55:44.005790
1117  2023-11-01 09:55:44.037743
1118  2023-11-01 09:55:44.070669
1119  2023-11-01 09:55:44.101532
1120  2023-11-01 09:55:44.150436
1121  2023-11-01 09:55:44.182348
1122  2023-11-01 09:55:44.214264
1123  2023-11-01 09:55:44.246180
1124  2023-11-01 09:55:44.278086
1125  2023-11-01 09:55:44.310011
1126  2023-11-01 09:55:44.341917
1127  2023-11-01 09:55:44.373836
1128  2023-11-01 09:55:44.405752
1129  2023-11-01 09:55:44.438663
1130  2023-11-01 09:55:44.469549
1131  2023-11-01 09:55:44.502463
1132  2023-11-01 09:55:44.549678
1133  2023-11-01 09:55:44.581553
1134  2023-11-01 09:55:44.614465
1135  2023-11-01 09:55:44.646265
1136  2023-11-01 09:55:44.677481
1137  2023-11-01 09:55:44.709396
1138  2023-11-01 09:55:44.742307
1139  2023-11-01 09:55:44.774320
1140  2023-11-01 09:55:44.806278
1141  2023-11-01 09:55:44.838243
1142  2023-11-01 09:55:44.870206
1143  2023-11-01 09:55:44.918077
1144  2023-11-01 09:55:44.949992
1145  2023-11-01 09:55:44.981906
1146  2023-11-01 09:55:45.013838
1147  2023-11-01 09:55:45.045741
1148  2023-11-01 09:55:45.077693
1149  2023-11-01 09:55:45.109565
1150  2023-11-01 09:55:45.142518
1151  2023-11-01 09:55:45.174393
1152  2023-11-01 09:55:45.206338
1153  2023-11-01 09:55:45.238221
1154  2023-11-01 09:55:45.270137
1155  2023-11-01 09:55:45.318040
1156  2023-11-01 09:55:45.349933
1157  2023-11-01 09:55:45.382840
1158  2023-11-01 09:55:45.413752
1159  2023-11-01 09:55:45.445667
1160  2023-11-01 09:55:45.477582
1161  2023-11-01 09:55:45.509528
1162  2023-11-01 09:55:45.541421
1163  2023-11-01 09:55:45.574370
1164  2023-11-01 09:55:45.606285
1165  2023-11-01 09:55:45.638205
1166  2023-11-01 09:55:45.670157
1167  2023-11-01 09:55:45.717686
1168  2023-11-01 09:55:45.749600
1169  2023-11-01 09:55:45.781562
1170  2023-11-01 09:55:45.813430
1171  2023-11-01 09:55:45.845382
1172  2023-11-01 09:55:45.878288
1173  2023-11-01 09:55:45.910171
1174  2023-11-01 09:55:45.942116
1175  2023-11-01 09:55:45.975036
1176  2023-11-01 09:55:46.005950
1177  2023-11-01 09:55:46.037860
1178  2023-11-01 09:55:46.069745
1179  2023-11-01 09:55:46.117679
1180  2023-11-01 09:55:46.149571
1181  2023-11-01 09:55:46.182473
1182  2023-11-01 09:55:46.214357
1183  2023-11-01 09:55:46.245329
1184  2023-11-01 09:55:46.278221
1185  2023-11-01 09:55:46.310101
1186  2023-11-01 09:55:46.342052
1187  2023-11-01 09:55:46.373933
1188  2023-11-01 09:55:46.406092
1189  2023-11-01 09:55:46.438006
1190  2023-11-01 09:55:46.470075
1191  2023-11-01 09:55:46.517937
1192  2023-11-01 09:55:46.549821
1193  2023-11-01 09:55:46.581820
1194  2023-11-01 09:55:46.613781
1195  2023-11-01 09:55:46.645738
1196  2023-11-01 09:55:46.678121
1197  2023-11-01 09:55:46.710005
1198  2023-11-01 09:55:46.741958
1199  2023-11-01 09:55:46.773836
1200  2023-11-01 09:55:46.805790
1201  2023-11-01 09:55:46.837856
1202  2023-11-01 09:55:46.869779
1203  2023-11-01 09:55:46.917672
1204  2023-11-01 09:55:46.949559
1205  2023-11-01 09:55:46.981474
1206  2023-11-01 09:55:47.013354
1207  2023-11-01 09:55:47.046295
1208  2023-11-01 09:55:47.078212
1209  2023-11-01 09:55:47.110202
1210  2023-11-01 09:55:47.142008
1211  2023-11-01 09:55:47.173926
1212  2023-11-01 09:55:47.205866
1213  2023-11-01 09:55:47.237770
1214  2023-11-01 09:55:47.269670
1215  2023-11-01 09:55:47.317573
1216  2023-11-01 09:55:47.350511
1217  2023-11-01 09:55:47.381620
1218  2023-11-01 09:55:47.413607
1219  2023-11-01 09:55:47.445620
1220  2023-11-01 09:55:47.477612
1221  2023-11-01 09:55:47.509710
1222  2023-11-01 09:55:47.541602
1223  2023-11-01 09:55:47.573597
1224  2023-11-01 09:55:47.605478
1225  2023-11-01 09:55:47.637428
1226  2023-11-01 09:55:47.670305
1227  2023-11-01 09:55:47.718208
1228  2023-11-01 09:55:47.750103
1229  2023-11-01 09:55:47.782005
1230  2023-11-01 09:55:47.813954
1231  2023-11-01 09:55:47.845866
1232  2023-11-01 09:55:47.877792
1233  2023-11-01 09:55:47.909695
1234  2023-11-01 09:55:47.941620
1235  2023-11-01 09:55:47.974494
1236  2023-11-01 09:55:48.006803
1237  2023-11-01 09:55:48.038824
1238  2023-11-01 09:55:48.069853
1239  2023-11-01 09:55:48.117812
1240  2023-11-01 09:55:48.149682
1241  2023-11-01 09:55:48.182576
1242  2023-11-01 09:55:48.214460
1243  2023-11-01 09:55:48.245410
1244  2023-11-01 09:55:48.277336
1245  2023-11-01 09:55:48.310243
1246  2023-11-01 09:55:48.342119
1247  2023-11-01 09:55:48.375030
1248  2023-11-01 09:55:48.405972
1249  2023-11-01 09:55:48.437892
1250  2023-11-01 09:55:48.469783
1251  2023-11-01 09:55:48.517683
1252  2023-11-01 09:55:48.549718
1253  2023-11-01 09:55:48.581619
1254  2023-11-01 09:55:48.613497
1255  2023-11-01 09:55:48.645444
1256  2023-11-01 09:55:48.677376
1257  2023-11-01 09:55:48.710282
1258  2023-11-01 09:55:48.742185
1259  2023-11-01 09:55:48.774098
1260  2023-11-01 09:55:48.806017
1261  2023-11-01 09:55:48.837939
1262  2023-11-01 09:55:48.885803
1263  2023-11-01 09:55:48.917719
1264  2023-11-01 09:55:48.949641
1265  2023-11-01 09:55:48.981547
1266  2023-11-01 09:55:49.013466
1267  2023-11-01 09:55:49.045385
1268  2023-11-01 09:55:49.077306
1269  2023-11-01 09:55:49.110203
1270  2023-11-01 09:55:49.142119
1271  2023-11-01 09:55:49.174001
1272  2023-11-01 09:55:49.205915
1273  2023-11-01 09:55:49.237878
1274  2023-11-01 09:55:49.285730
1275  2023-11-01 09:55:49.318196
1276  2023-11-01 09:55:49.350263
1277  2023-11-01 09:55:49.382144
1278  2023-11-01 09:55:49.414058
1279  2023-11-01 09:55:49.446011
1280  2023-11-01 09:55:49.477914
1281  2023-11-01 09:55:49.509833
1282  2023-11-01 09:55:49.541752
1283  2023-11-01 09:55:49.573638
1284  2023-11-01 09:55:49.606582
1285  2023-11-01 09:55:49.637499
1286  2023-11-01 09:55:49.685413
1287  2023-11-01 09:55:49.717330
1288  2023-11-01 09:55:49.749333
1289  2023-11-01 09:55:49.782248
1290  2023-11-01 09:55:49.814148
1291  2023-11-01 09:55:49.846062
1292  2023-11-01 09:55:49.877977
1293  2023-11-01 09:55:49.909894
1294  2023-11-01 09:55:49.941802
1295  2023-11-01 09:55:49.974692
1296  2023-11-01 09:55:50.006631
1297  2023-11-01 09:55:50.038564
1298  2023-11-01 09:55:50.085446
1299  2023-11-01 09:55:50.117350
1300  2023-11-01 09:55:50.150145
1301  2023-11-01 09:55:50.182171
1302  2023-11-01 09:55:50.214047
1303  2023-11-01 09:55:50.245963
1304  2023-11-01 09:55:50.277914
1305  2023-11-01 09:55:50.309823
1306  2023-11-01 09:55:50.341760
1307  2023-11-01 09:55:50.373621
1308  2023-11-01 09:55:50.406534
1309  2023-11-01 09:55:50.438494
1310  2023-11-01 09:55:50.485366
1311  2023-11-01 09:55:50.518298
1312  2023-11-01 09:55:50.550151
1313  2023-11-01 09:55:50.582097
1314  2023-11-01 09:55:50.614017
1315  2023-11-01 09:55:50.645894
1316  2023-11-01 09:55:50.677850
1317  2023-11-01 09:55:50.709941
1318  2023-11-01 09:55:50.741838
1319  2023-11-01 09:55:50.773759
1320  2023-11-01 09:55:50.805678
1321  2023-11-01 09:55:50.837589
1322  2023-11-01 09:55:50.885472
1323  2023-11-01 09:55:50.917377
1324  2023-11-01 09:55:50.949292
1325  2023-11-01 09:55:50.982197
1326  2023-11-01 09:55:51.014123
1327  2023-11-01 09:55:51.045998
1328  2023-11-01 09:55:51.077948
1329  2023-11-01 09:55:51.109866
1330  2023-11-01 09:55:51.141861
1331  2023-11-01 09:55:51.173875
1332  2023-11-01 09:55:51.205789
1333  2023-11-01 09:55:51.237733
1334  2023-11-01 09:55:51.285685
1335  2023-11-01 09:55:51.317603
1336  2023-11-01 09:55:51.350511
1337  2023-11-01 09:55:51.382417
1338  2023-11-01 09:55:51.413308
1339  2023-11-01 09:55:51.446220
1340  2023-11-01 09:55:51.478169
1341  2023-11-01 09:55:51.510052
1342  2023-11-01 09:55:51.542000
1343  2023-11-01 09:55:51.573924
1344  2023-11-01 09:55:51.605796
1345  2023-11-01 09:55:51.637709
1346  2023-11-01 09:55:51.685612
1347  2023-11-01 09:55:51.717535
1348  2023-11-01 09:55:51.749443
1349  2023-11-01 09:55:51.781361
1350  2023-11-01 09:55:51.814236
1351  2023-11-01 09:55:51.846152
1352  2023-11-01 09:55:51.878120
1353  2023-11-01 09:55:51.910013
1354  2023-11-01 09:55:51.941989
1355  2023-11-01 09:55:51.974906
1356  2023-11-01 09:55:52.005787
1357  2023-11-01 09:55:52.037741
1358  2023-11-01 09:55:52.085573
1359  2023-11-01 09:55:52.117518
1360  2023-11-01 09:55:52.149464
1361  2023-11-01 09:55:52.181388
1362  2023-11-01 09:55:52.213387
1363  2023-11-01 09:55:52.246301
1364  2023-11-01 09:55:52.278241
1365  2023-11-01 09:55:52.310157
1366  2023-11-01 09:55:52.342077
1367  2023-11-01 09:55:52.373960
1368  2023-11-01 09:55:52.405874
1369  2023-11-01 09:55:52.437823
1370  2023-11-01 09:55:52.485739
1371  2023-11-01 09:55:52.517658
1372  2023-11-01 09:55:52.549569
1373  2023-11-01 09:55:52.581578
1374  2023-11-01 09:55:52.613455
1375  2023-11-01 09:55:52.646367
1376  2023-11-01 09:55:52.678282
1377  2023-11-01 09:55:52.710199
1378  2023-11-01 09:55:52.742112
1379  2023-11-01 09:55:52.774031
1380  2023-11-01 09:55:52.805950
1381  2023-11-01 09:55:52.853847
1382  2023-11-01 09:55:52.885728
1383  2023-11-01 09:55:52.917647
1384  2023-11-01 09:55:52.949592
1385  2023-11-01 09:55:52.981498
1386  2023-11-01 09:55:53.013425
1387  2023-11-01 09:55:53.046298
1388  2023-11-01 09:55:53.078213
1389  2023-11-01 09:55:53.110128
1390  2023-11-01 09:55:53.142081
1391  2023-11-01 09:55:53.173959
1392  2023-11-01 09:55:53.205872
1393  2023-11-01 09:55:53.253744
1394  2023-11-01 09:55:53.285658
1395  2023-11-01 09:55:53.317573
1396  2023-11-01 09:55:53.349523
1397  2023-11-01 09:55:53.381543
1398  2023-11-01 09:55:53.413457
1399  2023-11-01 09:55:53.445400
1400  2023-11-01 09:55:53.478326
1401  2023-11-01 09:55:53.510241
1402  2023-11-01 09:55:53.542155
1403  2023-11-01 09:55:53.574071
1404  2023-11-01 09:55:53.606024
1405  2023-11-01 09:55:53.653857
1406  2023-11-01 09:55:53.685797
1407  2023-11-01 09:55:53.717723
1408  2023-11-01 09:55:53.749601
1409  2023-11-01 09:55:53.781549
1410  2023-11-01 09:55:53.813430
1411  2023-11-01 09:55:53.845378
1412  2023-11-01 09:55:53.878298
1413  2023-11-01 09:55:53.910213
1414  2023-11-01 09:55:53.942182
1415  2023-11-01 09:55:53.974099
1416  2023-11-01 09:55:54.006011
1417  2023-11-01 09:55:54.053927
1418  2023-11-01 09:55:54.085798
1419  2023-11-01 09:55:54.117713
1420  2023-11-01 09:55:54.149681
1421  2023-11-01 09:55:54.181542
1422  2023-11-01 09:55:54.214213
1423  2023-11-01 09:55:54.246149
1424  2023-11-01 09:55:54.278064
1425  2023-11-01 09:55:54.309979
1426  2023-11-01 09:55:54.341894
1427  2023-11-01 09:55:54.373857
1428  2023-11-01 09:55:54.405723
1429  2023-11-01 09:55:54.454269
1430  2023-11-01 09:55:54.486167
1431  2023-11-01 09:55:54.518139
1432  2023-11-01 09:55:54.550053
1433  2023-11-01 09:55:54.582003
1434  2023-11-01 09:55:54.613918
1435  2023-11-01 09:55:54.645860
1436  2023-11-01 09:55:54.677777
1437  2023-11-01 09:55:54.709662
1438  2023-11-01 09:55:54.741577
1439  2023-11-01 09:55:54.774490
1440  2023-11-01 09:55:54.806404
1441  2023-11-01 09:55:54.854275
1442  2023-11-01 09:55:54.886194
1443  2023-11-01 09:55:54.918191
1444  2023-11-01 09:55:54.950105
1445  2023-11-01 09:55:54.982108
1446  2023-11-01 09:55:55.014051
1447  2023-11-01 09:55:55.045965
1448  2023-11-01 09:55:55.077880
1449  2023-11-01 09:55:55.109795
1450  2023-11-01 09:55:55.141709
1451  2023-11-01 09:55:55.173632
1452  2023-11-01 09:55:55.206538
1453  2023-11-01 09:55:55.253411
1454  2023-11-01 09:55:55.285325
1455  2023-11-01 09:55:55.318237
1456  2023-11-01 09:55:55.350152
1457  2023-11-01 09:55:55.382067
1458  2023-11-01 09:55:55.413981
1459  2023-11-01 09:55:55.445928
1460  2023-11-01 09:55:55.477811
1461  2023-11-01 09:55:55.509726
1462  2023-11-01 09:55:55.541640
1463  2023-11-01 09:55:55.573587
1464  2023-11-01 09:55:55.606496
1465  2023-11-01 09:55:55.653341
1466  2023-11-01 09:55:55.686254
1467  2023-11-01 09:55:55.718194
1468  2023-11-01 09:55:55.750139
1469  2023-11-01 09:55:55.782093
1470  2023-11-01 09:55:55.814008
1471  2023-11-01 09:55:55.846023
1472  2023-11-01 09:55:55.877906
1473  2023-11-01 09:55:55.909821
1474  2023-11-01 09:55:55.941736
1475  2023-11-01 09:55:55.973651
1476  2023-11-01 09:55:56.006563
1477  2023-11-01 09:55:56.053437
1478  2023-11-01 09:55:56.085352
1479  2023-11-01 09:55:56.117342
1480  2023-11-01 09:55:56.150266
1481  2023-11-01 09:55:56.182178
1482  2023-11-01 09:55:56.214092
1483  2023-11-01 09:55:56.246007
1484  2023-11-01 09:55:56.277922
1485  2023-11-01 09:55:56.309836
1486  2023-11-01 09:55:56.341751
1487  2023-11-01 09:55:56.374664
1488  2023-11-01 09:55:56.421538
1489  2023-11-01 09:55:56.453452
1490  2023-11-01 09:55:56.485367
1491  2023-11-01 09:55:56.517282
1492  2023-11-01 09:55:56.550194
1493  2023-11-01 09:55:56.582109
1494  2023-11-01 09:55:56.614023
1495  2023-11-01 09:55:56.645938
1496  2023-11-01 09:55:56.677853
1497  2023-11-01 09:55:56.710774
1498  2023-11-01 09:55:56.741682
1499  2023-11-01 09:55:56.773639
1500  2023-11-01 09:55:56.821469
1501  2023-11-01 09:55:56.853383
1502  2023-11-01 09:55:56.886308
1503  2023-11-01 09:55:56.918284
1504  2023-11-01 09:55:56.950198
1505  2023-11-01 09:55:56.982113
1506  2023-11-01 09:55:57.014059
1507  2023-11-01 09:55:57.046062
1508  2023-11-01 09:55:57.077977
1509  2023-11-01 09:55:57.109891
1510  2023-11-01 09:55:57.141862
1511  2023-11-01 09:55:57.173759
1512  2023-11-01 09:55:57.221753
1513  2023-11-01 09:55:57.253698
1514  2023-11-01 09:55:57.285647
1515  2023-11-01 09:55:57.317562
1516  2023-11-01 09:55:57.349507
1517  2023-11-01 09:55:57.381440
1518  2023-11-01 09:55:57.413307
1519  2023-11-01 09:55:57.446259
1520  2023-11-01 09:55:57.478204
1521  2023-11-01 09:55:57.510088
1522  2023-11-01 09:55:57.542003
1523  2023-11-01 09:55:57.574405
1524  2023-11-01 09:55:57.622353
1525  2023-11-01 09:55:57.654266
1526  2023-11-01 09:55:57.686180
1527  2023-11-01 09:55:57.718095
1528  2023-11-01 09:55:57.750010
1529  2023-11-01 09:55:57.781925
1530  2023-11-01 09:55:57.814036
1531  2023-11-01 09:55:57.846078
1532  2023-11-01 09:55:57.877967
1533  2023-11-01 09:55:57.910001
1534  2023-11-01 09:55:57.942002
1535  2023-11-01 09:55:57.973916
1536  2023-11-01 09:55:58.021788
1537  2023-11-01 09:55:58.053714
1538  2023-11-01 09:55:58.085617
1539  2023-11-01 09:55:58.117532
1540  2023-11-01 09:55:58.149447
1541  2023-11-01 09:55:58.182360
1542  2023-11-01 09:55:58.214273
1543  2023-11-01 09:55:58.246188
1544  2023-11-01 09:55:58.278102
1545  2023-11-01 09:55:58.310017
1546  2023-11-01 09:55:58.341967
1547  2023-11-01 09:55:58.373846
1548  2023-11-01 09:55:58.421719
1549  2023-11-01 09:55:58.453737
1550  2023-11-01 09:55:58.485668
1551  2023-11-01 09:55:58.517541
1552  2023-11-01 09:55:58.549536
1553  2023-11-01 09:55:58.581417
1554  2023-11-01 09:55:58.613332
1555  2023-11-01 09:55:58.646244
1556  2023-11-01 09:55:58.678194
1557  2023-11-01 09:55:58.710073
1558  2023-11-01 09:55:58.741989
1559  2023-11-01 09:55:58.773903
1560  2023-11-01 09:55:58.821786
1561  2023-11-01 09:55:58.853726
1562  2023-11-01 09:55:58.885632
1563  2023-11-01 09:55:58.917519
1564  2023-11-01 09:55:58.949433
1565  2023-11-01 09:55:58.981351
1566  2023-11-01 09:55:59.013297
1567  2023-11-01 09:55:59.046175
1568  2023-11-01 09:55:59.078195
1569  2023-11-01 09:55:59.109724
1570  2023-11-01 09:55:59.141714
1571  2023-11-01 09:55:59.174599
1572  2023-11-01 09:55:59.221522
1573  2023-11-01 09:55:59.253437
1574  2023-11-01 09:55:59.285351
1575  2023-11-01 09:55:59.318263
1576  2023-11-01 09:55:59.350178
1577  2023-11-01 09:55:59.382093
1578  2023-11-01 09:55:59.414103
1579  2023-11-01 09:55:59.446059
1580  2023-11-01 09:55:59.477973
1581  2023-11-01 09:55:59.509888
1582  2023-11-01 09:55:59.541839
1583  2023-11-01 09:55:59.573761
1584  2023-11-01 09:55:59.621589
1585  2023-11-01 09:55:59.654502
1586  2023-11-01 09:55:59.685470
1587  2023-11-01 09:55:59.717380
1588  2023-11-01 09:55:59.750259
1589  2023-11-01 09:55:59.782160
1590  2023-11-01 09:55:59.814074
1591  2023-11-01 09:55:59.846023
1592  2023-11-01 09:55:59.877904
1593  2023-11-01 09:55:59.909818
1594  2023-11-01 09:55:59.941830
1595  2023-11-01 09:55:59.973747
1596  2023-11-01 09:56:00.021618
1597  2023-11-01 09:56:00.053570
1598  2023-11-01 09:56:00.085445
1599  2023-11-01 09:56:00.117440
1600  2023-11-01 09:56:00.149404
1601  2023-11-01 09:56:00.181358
1602  2023-11-01 09:56:00.214259
1603  2023-11-01 09:56:00.246176
1604  2023-11-01 09:56:00.278088
1605  2023-11-01 09:56:00.310093
1606  2023-11-01 09:56:00.342021
1607  2023-11-01 09:56:00.390891
1608  2023-11-01 09:56:00.421808
1609  2023-11-01 09:56:00.453722
1610  2023-11-01 09:56:00.485637
1611  2023-11-01 09:56:00.517720
1612  2023-11-01 09:56:00.549679
1613  2023-11-01 09:56:00.581648
1614  2023-11-01 09:56:00.613562
1615  2023-11-01 09:56:00.645520
1616  2023-11-01 09:56:00.677435
1617  2023-11-01 09:56:00.709306
1618  2023-11-01 09:56:00.742218
1619  2023-11-01 09:56:00.790090
1620  2023-11-01 09:56:00.822005
1621  2023-11-01 09:56:00.854030
1622  2023-11-01 09:56:00.885948
1623  2023-11-01 09:56:00.917862
1624  2023-11-01 09:56:00.949783
1625  2023-11-01 09:56:00.981692
1626  2023-11-01 09:56:01.013606
1627  2023-11-01 09:56:01.045622
1628  2023-11-01 09:56:01.077528
1629  2023-11-01 09:56:01.109443
1630  2023-11-01 09:56:01.142355
1631  2023-11-01 09:56:01.190264
1632  2023-11-01 09:56:01.223175
1633  2023-11-01 09:56:01.254056
1634  2023-11-01 09:56:01.287019
1635  2023-11-01 09:56:01.317885
1636  2023-11-01 09:56:01.350842
1637  2023-11-01 09:56:01.383711
1638  2023-11-01 09:56:01.414749
1639  2023-11-01 09:56:01.446657
1640  2023-11-01 09:56:01.478568
1641  2023-11-01 09:56:01.510449
1642  2023-11-01 09:56:01.542364
1643  2023-11-01 09:56:01.590287
1644  2023-11-01 09:56:01.622249
1645  2023-11-01 09:56:01.654211
1646  2023-11-01 09:56:01.686126
1647  2023-11-01 09:56:01.718041
1648  2023-11-01 09:56:01.749955
1649  2023-11-01 09:56:01.781923
1650  2023-11-01 09:56:01.813838
1651  2023-11-01 09:56:01.846802
1652  2023-11-01 09:56:01.877668
1653  2023-11-01 09:56:01.909582
1654  2023-11-01 09:56:01.942503
1655  2023-11-01 09:56:01.990396
1656  2023-11-01 09:56:02.022307
1657  2023-11-01 09:56:02.054229
1658  2023-11-01 09:56:02.086111
1659  2023-11-01 09:56:02.118058
1660  2023-11-01 09:56:02.149973
1661  2023-11-01 09:56:02.181855
1662  2023-11-01 09:56:02.213915
1663  2023-11-01 09:56:02.245799
1664  2023-11-01 09:56:02.277715
1665  2023-11-01 09:56:02.309656
1666  2023-11-01 09:56:02.341542
1667  2023-11-01 09:56:02.389414
1668  2023-11-01 09:56:02.422327
1669  2023-11-01 09:56:02.454251
1670  2023-11-01 09:56:02.486165
1671  2023-11-01 09:56:02.518167
1672  2023-11-01 09:56:02.550079
1673  2023-11-01 09:56:02.583078
1674  2023-11-01 09:56:02.613985
1675  2023-11-01 09:56:02.646030
1676  2023-11-01 09:56:02.678950
1677  2023-11-01 09:56:02.709857
1678  2023-11-01 09:56:02.742792
1679  2023-11-01 09:56:02.789647
1680  2023-11-01 09:56:02.822564
1681  2023-11-01 09:56:02.854564
1682  2023-11-01 09:56:02.886444
1683  2023-11-01 09:56:02.917361
1684  2023-11-01 09:56:02.950280
1685  2023-11-01 09:56:02.982249
1686  2023-11-01 09:56:03.014195
1687  2023-11-01 09:56:03.046077
1688  2023-11-01 09:56:03.078018
1689  2023-11-01 09:56:03.109939
1690  2023-11-01 09:56:03.142847
1691  2023-11-01 09:56:03.189694
1692  2023-11-01 09:56:03.222750
1693  2023-11-01 09:56:03.254668
1694  2023-11-01 09:56:03.286550
1695  2023-11-01 09:56:03.317504
1696  2023-11-01 09:56:03.349381
1697  2023-11-01 09:56:03.382333
1698  2023-11-01 09:56:03.414267
1699  2023-11-01 09:56:03.446154
1700  2023-11-01 09:56:03.478067
1701  2023-11-01 09:56:03.509986
1702  2023-11-01 09:56:03.541865
1703  2023-11-01 09:56:03.589737
1704  2023-11-01 09:56:03.621652
1705  2023-11-01 09:56:03.653600
1706  2023-11-01 09:56:03.685509
1707  2023-11-01 09:56:03.717396
1708  2023-11-01 09:56:03.749347
1709  2023-11-01 09:56:03.782222
1710  2023-11-01 09:56:03.814171
1711  2023-11-01 09:56:03.846052
1712  2023-11-01 09:56:03.877967
1713  2023-11-01 09:56:03.909881
1714  2023-11-01 09:56:03.957795
1715  2023-11-01 09:56:03.989699
1716  2023-11-01 09:56:04.021582
1717  2023-11-01 09:56:04.054537
1718  2023-11-01 09:56:04.085460
1719  2023-11-01 09:56:04.118325
1720  2023-11-01 09:56:04.150268
1721  2023-11-01 09:56:04.182202
1722  2023-11-01 09:56:04.214219
1723  2023-11-01 09:56:04.246100
1724  2023-11-01 09:56:04.278016
1725  2023-11-01 09:56:04.309971
1726  2023-11-01 09:56:04.357803
1727  2023-11-01 09:56:04.389768
1728  2023-11-01 09:56:04.421676
1729  2023-11-01 09:56:04.453584
1730  2023-11-01 09:56:04.485499
1731  2023-11-01 09:56:04.518371
1732  2023-11-01 09:56:04.550289
1733  2023-11-01 09:56:04.582201
1734  2023-11-01 09:56:04.614196
1735  2023-11-01 09:56:04.646113
1736  2023-11-01 09:56:04.678189
1737  2023-11-01 09:56:04.710056
1738  2023-11-01 09:56:04.758032
1739  2023-11-01 09:56:04.790027
1740  2023-11-01 09:56:04.821989
1741  2023-11-01 09:56:04.853901
1742  2023-11-01 09:56:04.885821
1743  2023-11-01 09:56:04.917702
1744  2023-11-01 09:56:04.949652
1745  2023-11-01 09:56:04.981562
1746  2023-11-01 09:56:05.013445
1747  2023-11-01 09:56:05.045359
1748  2023-11-01 09:56:05.077308
1749  2023-11-01 09:56:05.110220
1750  2023-11-01 09:56:05.158212
1751  2023-11-01 09:56:05.190160
1752  2023-11-01 09:56:05.222068
1753  2023-11-01 09:56:05.254113
1754  2023-11-01 09:56:05.286026
1755  2023-11-01 09:56:05.318020
1756  2023-11-01 09:56:05.349900
1757  2023-11-01 09:56:05.381846
1758  2023-11-01 09:56:05.413781
1759  2023-11-01 09:56:05.445681
1760  2023-11-01 09:56:05.477580
1761  2023-11-01 09:56:05.509569
1762  2023-11-01 09:56:05.557455
1763  2023-11-01 09:56:05.589462
1764  2023-11-01 09:56:05.621385
1765  2023-11-01 09:56:05.653341
1766  2023-11-01 09:56:05.686265
1767  2023-11-01 09:56:05.718163
1768  2023-11-01 09:56:05.750041
1769  2023-11-01 09:56:05.781955
1770  2023-11-01 09:56:05.813909
1771  2023-11-01 09:56:05.845819
1772  2023-11-01 09:56:05.877734
1773  2023-11-01 09:56:05.909655
1774  2023-11-01 09:56:05.957497
1775  2023-11-01 09:56:05.990024
1776  2023-11-01 09:56:06.021934
1777  2023-11-01 09:56:06.053890
1778  2023-11-01 09:56:06.085841
1779  2023-11-01 09:56:06.117773
1780  2023-11-01 09:56:06.149669
1781  2023-11-01 09:56:06.181580
1782  2023-11-01 09:56:06.213463
1783  2023-11-01 09:56:06.245417
1784  2023-11-01 09:56:06.278345
1785  2023-11-01 09:56:06.310244
1786  2023-11-01 09:56:06.358113
1787  2023-11-01 09:56:06.390043
1788  2023-11-01 09:56:06.421985
1789  2023-11-01 09:56:06.453921
1790  2023-11-01 09:56:06.485844
1791  2023-11-01 09:56:06.517727
1792  2023-11-01 09:56:06.549645
1793  2023-11-01 09:56:06.581556
1794  2023-11-01 09:56:06.613474
1795  2023-11-01 09:56:06.645441
1796  2023-11-01 09:56:06.677464
1797  2023-11-01 09:56:06.709467
1798  2023-11-01 09:56:06.758283
1799  2023-11-01 09:56:06.790287
1800  2023-11-01 09:56:06.822230
1801  2023-11-01 09:56:06.854224
1802  2023-11-01 09:56:06.886219
1803  2023-11-01 09:56:06.918181
1804  2023-11-01 09:56:06.950097
1805  2023-11-01 09:56:06.981999
1806  2023-11-01 09:56:07.014012
1807  2023-11-01 09:56:07.045935
1808  2023-11-01 09:56:07.077839
1809  2023-11-01 09:56:07.109760
1810  2023-11-01 09:56:07.157595
1811  2023-11-01 09:56:07.189553
1812  2023-11-01 09:56:07.222425
1813  2023-11-01 09:56:07.254370
1814  2023-11-01 09:56:07.286284
1815  2023-11-01 09:56:07.318211
1816  2023-11-01 09:56:07.350115
1817  2023-11-01 09:56:07.381999
1818  2023-11-01 09:56:07.413910
1819  2023-11-01 09:56:07.445863
1820  2023-11-01 09:56:07.477781
1821  2023-11-01 09:56:07.509696
1822  2023-11-01 09:56:07.557770
1823  2023-11-01 09:56:07.589727
1824  2023-11-01 09:56:07.621598
1825  2023-11-01 09:56:07.653556
1826  2023-11-01 09:56:07.685460
1827  2023-11-01 09:56:07.718374
1828  2023-11-01 09:56:07.749349
1829  2023-11-01 09:56:07.782266
1830  2023-11-01 09:56:07.814216
1831  2023-11-01 09:56:07.846128
1832  2023-11-01 09:56:07.878048
1833  2023-11-01 09:56:07.925880
1834  2023-11-01 09:56:07.957834
1835  2023-11-01 09:56:07.989743
1836  2023-11-01 09:56:08.021681
1837  2023-11-01 09:56:08.053539
1838  2023-11-01 09:56:08.085481
1839  2023-11-01 09:56:08.117403
1840  2023-11-01 09:56:08.149321
1841  2023-11-01 09:56:08.182196
1842  2023-11-01 09:56:08.214110
1843  2023-11-01 09:56:08.246066
1844  2023-11-01 09:56:08.277971
1845  2023-11-01 09:56:08.325822
1846  2023-11-01 09:56:08.357769
1847  2023-11-01 09:56:08.389670
1848  2023-11-01 09:56:08.421589
1849  2023-11-01 09:56:08.453471
1850  2023-11-01 09:56:08.485421
1851  2023-11-01 09:56:08.517331
1852  2023-11-01 09:56:08.550265
1853  2023-11-01 09:56:08.582156
1854  2023-11-01 09:56:08.614079
1855  2023-11-01 09:56:08.645987
1856  2023-11-01 09:56:08.677901
1857  2023-11-01 09:56:08.725783
1858  2023-11-01 09:56:08.757711
1859  2023-11-01 09:56:08.789618
1860  2023-11-01 09:56:08.821526
1861  2023-11-01 09:56:08.853432
1862  2023-11-01 09:56:08.886382
1863  2023-11-01 09:56:08.918284
1864  2023-11-01 09:56:08.950174
1865  2023-11-01 09:56:08.982090
1866  2023-11-01 09:56:09.014015
1867  2023-11-01 09:56:09.045887
1868  2023-11-01 09:56:09.077833
1869  2023-11-01 09:56:09.125676
1870  2023-11-01 09:56:09.157627
1871  2023-11-01 09:56:09.189536
1872  2023-11-01 09:56:09.221447
1873  2023-11-01 09:56:09.254282
1874  2023-11-01 09:56:09.286187
1875  2023-11-01 09:56:09.317889
1876  2023-11-01 09:56:09.349804
1877  2023-11-01 09:56:09.381719
1878  2023-11-01 09:56:09.413633
1879  2023-11-01 09:56:09.445514
1880  2023-11-01 09:56:09.477462
1881  2023-11-01 09:56:09.526343
1882  2023-11-01 09:56:09.558257
1883  2023-11-01 09:56:09.590256
1884  2023-11-01 09:56:09.622171
1885  2023-11-01 09:56:09.654049
1886  2023-11-01 09:56:09.685995
1887  2023-11-01 09:56:09.717915
1888  2023-11-01 09:56:09.750825
1889  2023-11-01 09:56:09.781743
1890  2023-11-01 09:56:09.813662
1891  2023-11-01 09:56:09.845573
1892  2023-11-01 09:56:09.877489
1893  2023-11-01 09:56:09.926322
1894  2023-11-01 09:56:09.958264
1895  2023-11-01 09:56:09.990184
1896  2023-11-01 09:56:10.022099
1897  2023-11-01 09:56:10.054015
1898  2023-11-01 09:56:10.085895
1899  2023-11-01 09:56:10.117841
1900  2023-11-01 09:56:10.149768
1901  2023-11-01 09:56:10.181670
1902  2023-11-01 09:56:10.213554
1903  2023-11-01 09:56:10.245503
1904  2023-11-01 09:56:10.277414
1905  2023-11-01 09:56:10.326292
1906  2023-11-01 09:56:10.358201
1907  2023-11-01 09:56:10.390115
1908  2023-11-01 09:56:10.422022
1909  2023-11-01 09:56:10.453948
1910  2023-11-01 09:56:10.485826
1911  2023-11-01 09:56:10.517740
1912  2023-11-01 09:56:10.549694
1913  2023-11-01 09:56:10.581607
1914  2023-11-01 09:56:10.614482
1915  2023-11-01 09:56:10.645399
1916  2023-11-01 09:56:10.678311
1917  2023-11-01 09:56:10.726186
1918  2023-11-01 09:56:10.758098
1919  2023-11-01 09:56:10.790014
1920  2023-11-01 09:56:10.821971
1921  2023-11-01 09:56:10.853872
1922  2023-11-01 09:56:10.885756
1923  2023-11-01 09:56:10.917671
1924  2023-11-01 09:56:10.949620
1925  2023-11-01 09:56:10.981535
1926  2023-11-01 09:56:11.014446
1927  2023-11-01 09:56:11.046371
1928  2023-11-01 09:56:11.078242
1929  2023-11-01 09:56:11.126115
1930  2023-11-01 09:56:11.158028
1931  2023-11-01 09:56:11.189978
1932  2023-11-01 09:56:11.221903
1933  2023-11-01 09:56:11.253809
1934  2023-11-01 09:56:11.285687
1935  2023-11-01 09:56:11.317602
1936  2023-11-01 09:56:11.349556
1937  2023-11-01 09:56:11.381472
1938  2023-11-01 09:56:11.413372
1939  2023-11-01 09:56:11.446258
1940  2023-11-01 09:56:11.494277
1941  2023-11-01 09:56:11.526267
1942  2023-11-01 09:56:11.558145
1943  2023-11-01 09:56:11.590060
1944  2023-11-01 09:56:11.622177
1945  2023-11-01 09:56:11.654091
1946  2023-11-01 09:56:11.686152
1947  2023-11-01 09:56:11.718067
1948  2023-11-01 09:56:11.749985
1949  2023-11-01 09:56:11.781896
1950  2023-11-01 09:56:11.813811
1951  2023-11-01 09:56:11.845726
1952  2023-11-01 09:56:11.894630
1953  2023-11-01 09:56:11.926511
1954  2023-11-01 09:56:11.957427
1955  2023-11-01 09:56:11.990339
1956  2023-11-01 09:56:12.022254
1957  2023-11-01 09:56:12.054194
1958  2023-11-01 09:56:12.086083
1959  2023-11-01 09:56:12.117998
1960  2023-11-01 09:56:12.149912
1961  2023-11-01 09:56:12.181866
1962  2023-11-01 09:56:12.213785
1963  2023-11-01 09:56:12.245796
1964  2023-11-01 09:56:12.293728
1965  2023-11-01 09:56:12.325619
1966  2023-11-01 09:56:12.357538
1967  2023-11-01 09:56:12.389453
1968  2023-11-01 09:56:12.421327
1969  2023-11-01 09:56:12.454239
1970  2023-11-01 09:56:12.486154
1971  2023-11-01 09:56:12.518068
1972  2023-11-01 09:56:12.549983
1973  2023-11-01 09:56:12.581898
1974  2023-11-01 09:56:12.613813
1975  2023-11-01 09:56:12.645727
1976  2023-11-01 09:56:12.693601
1977  2023-11-01 09:56:12.725557
1978  2023-11-01 09:56:12.757428
1979  2023-11-01 09:56:12.789343
1980  2023-11-01 09:56:12.822255
1981  2023-11-01 09:56:12.854170
1982  2023-11-01 09:56:12.886084
1983  2023-11-01 09:56:12.917999
1984  2023-11-01 09:56:12.949914
1985  2023-11-01 09:56:12.981828
1986  2023-11-01 09:56:13.013744
1987  2023-11-01 09:56:13.045658
1988  2023-11-01 09:56:13.093577
1989  2023-11-01 09:56:13.125479
1990  2023-11-01 09:56:13.157359
1991  2023-11-01 09:56:13.190271
1992  2023-11-01 09:56:13.222220
1993  2023-11-01 09:56:13.254108
1994  2023-11-01 09:56:13.286015
1995  2023-11-01 09:56:13.317930
1996  2023-11-01 09:56:13.349886
1997  2023-11-01 09:56:13.381759
1998  2023-11-01 09:56:13.413674
1999  2023-11-01 09:56:13.445588
2000  2023-11-01 09:56:13.494486
2001  2023-11-01 09:56:13.526414
2002  2023-11-01 09:56:13.558288
2003  2023-11-01 09:56:13.590202
2004  2023-11-01 09:56:13.622117
2005  2023-11-01 09:56:13.654111
2006  2023-11-01 09:56:13.686256
2007  2023-11-01 09:56:13.718287
2008  2023-11-01 09:56:13.749336
2009  2023-11-01 09:56:13.782219
2010  2023-11-01 09:56:13.814242
2011  2023-11-01 09:56:13.846156
2012  2023-11-01 09:56:13.894114
2013  2023-11-01 09:56:13.926014
2014  2023-11-01 09:56:13.957929
2015  2023-11-01 09:56:13.989843
2016  2023-11-01 09:56:14.021793
2017  2023-11-01 09:56:14.053714
2018  2023-11-01 09:56:14.085587
2019  2023-11-01 09:56:14.117502
2020  2023-11-01 09:56:14.149417
2021  2023-11-01 09:56:14.181365
2022  2023-11-01 09:56:14.214243
2023  2023-11-01 09:56:14.246158
2024  2023-11-01 09:56:14.294072
2025  2023-11-01 09:56:14.325987
2026  2023-11-01 09:56:14.357902
2027  2023-11-01 09:56:14.389817
2028  2023-11-01 09:56:14.421739
2029  2023-11-01 09:56:14.453646
2030  2023-11-01 09:56:14.485560
2031  2023-11-01 09:56:14.517476
2032  2023-11-01 09:56:14.550418
2033  2023-11-01 09:56:14.582303
2034  2023-11-01 09:56:14.614217
2035  2023-11-01 09:56:14.646131
2036  2023-11-01 09:56:14.694017
2037  2023-11-01 09:56:14.725952
2038  2023-11-01 09:56:14.757834
2039  2023-11-01 09:56:14.789747
2040  2023-11-01 09:56:14.821662
2041  2023-11-01 09:56:14.853608
2042  2023-11-01 09:56:14.885521
2043  2023-11-01 09:56:14.918403
2044  2023-11-01 09:56:14.950318
2045  2023-11-01 09:56:14.982276
2046  2023-11-01 09:56:15.013761
2047  2023-11-01 09:56:15.045763
2048  2023-11-01 09:56:15.094702
2049  2023-11-01 09:56:15.125595
2050  2023-11-01 09:56:15.157502
2051  2023-11-01 09:56:15.189417
2052  2023-11-01 09:56:15.221331
2053  2023-11-01 09:56:15.254243
2054  2023-11-01 09:56:15.286158
2055  2023-11-01 09:56:15.318073
2056  2023-11-01 09:56:15.349987
2057  2023-11-01 09:56:15.381902
2058  2023-11-01 09:56:15.413817
2059  2023-11-01 09:56:15.461740
2060  2023-11-01 09:56:15.494601
2061  2023-11-01 09:56:15.526516
2062  2023-11-01 09:56:15.558430
2063  2023-11-01 09:56:15.590345
2064  2023-11-01 09:56:15.622259
2065  2023-11-01 09:56:15.654210
2066  2023-11-01 09:56:15.686089
2067  2023-11-01 09:56:15.718004
2068  2023-11-01 09:56:15.749918
2069  2023-11-01 09:56:15.781833
2070  2023-11-01 09:56:15.813747
2071  2023-11-01 09:56:15.862617
2072  2023-11-01 09:56:15.893536
2073  2023-11-01 09:56:15.925450
2074  2023-11-01 09:56:15.958361
2075  2023-11-01 09:56:15.990276
2076  2023-11-01 09:56:16.022223
2077  2023-11-01 09:56:16.054154
2078  2023-11-01 09:56:16.086108
2079  2023-11-01 09:56:16.118027
2080  2023-11-01 09:56:16.149942
2081  2023-11-01 09:56:16.181891
2082  2023-11-01 09:56:16.213772
2083  2023-11-01 09:56:16.262641
2084  2023-11-01 09:56:16.293558
2085  2023-11-01 09:56:16.326547
2086  2023-11-01 09:56:16.357550
2087  2023-11-01 09:56:16.389471
2088  2023-11-01 09:56:16.421349
2089  2023-11-01 09:56:16.454261
2090  2023-11-01 09:56:16.486175
2091  2023-11-01 09:56:16.518090
2092  2023-11-01 09:56:16.550005
2093  2023-11-01 09:56:16.581919
2094  2023-11-01 09:56:16.613834
2095  2023-11-01 09:56:16.661706
2096  2023-11-01 09:56:16.694897
2097  2023-11-01 09:56:16.725815
2098  2023-11-01 09:56:16.758728
2099  2023-11-01 09:56:16.789697
2100  2023-11-01 09:56:16.821611
2101  2023-11-01 09:56:16.853526
2102  2023-11-01 09:56:16.886499
2103  2023-11-01 09:56:16.918409
2104  2023-11-01 09:56:16.949497
2105  2023-11-01 09:56:16.981411
2106  2023-11-01 09:56:17.014326
2107  2023-11-01 09:56:17.062222
2108  2023-11-01 09:56:17.094146
2109  2023-11-01 09:56:17.126024
2110  2023-11-01 09:56:17.157939
2111  2023-11-01 09:56:17.189897
2112  2023-11-01 09:56:17.221808
2113  2023-11-01 09:56:17.253726
2114  2023-11-01 09:56:17.285636
2115  2023-11-01 09:56:17.317583
2116  2023-11-01 09:56:17.349498
2117  2023-11-01 09:56:17.381412
2118  2023-11-01 09:56:17.413327
2119  2023-11-01 09:56:17.462197
2120  2023-11-01 09:56:17.494111
2121  2023-11-01 09:56:17.526068
2122  2023-11-01 09:56:17.558109
2123  2023-11-01 09:56:17.590024
2124  2023-11-01 09:56:17.621938
2125  2023-11-01 09:56:17.653853
2126  2023-11-01 09:56:17.685768
2127  2023-11-01 09:56:17.717682
2128  2023-11-01 09:56:17.749597
2129  2023-11-01 09:56:17.782509
2130  2023-11-01 09:56:17.814424
2131  2023-11-01 09:56:17.862296
2132  2023-11-01 09:56:17.894211
2133  2023-11-01 09:56:17.926127
2134  2023-11-01 09:56:17.958040
2135  2023-11-01 09:56:17.989956
2136  2023-11-01 09:56:18.021869
2137  2023-11-01 09:56:18.053784
2138  2023-11-01 09:56:18.085699
2139  2023-11-01 09:56:18.117613
2140  2023-11-01 09:56:18.149528
2141  2023-11-01 09:56:18.182441
2142  2023-11-01 09:56:18.214355
2143  2023-11-01 09:56:18.262282
2144  2023-11-01 09:56:18.294234
2145  2023-11-01 09:56:18.326113
2146  2023-11-01 09:56:18.358031
2147  2023-11-01 09:56:18.389942
2148  2023-11-01 09:56:18.421945
2149  2023-11-01 09:56:18.453907
2150  2023-11-01 09:56:18.485822
2151  2023-11-01 09:56:18.517774
2152  2023-11-01 09:56:18.549651
2153  2023-11-01 09:56:18.581565
2154  2023-11-01 09:56:18.613480
2155  2023-11-01 09:56:18.662351
2156  2023-11-01 09:56:18.694272
2157  2023-11-01 09:56:18.726180
2158  2023-11-01 09:56:18.758177
2159  2023-11-01 09:56:18.790092
2160  2023-11-01 09:56:18.822007
2161  2023-11-01 09:56:18.853921
2162  2023-11-01 09:56:18.885836
2163  2023-11-01 09:56:18.917751
2164  2023-11-01 09:56:18.949665
2165  2023-11-01 09:56:18.981580
2166  2023-11-01 09:56:19.030450
2167  2023-11-01 09:56:19.062365
2168  2023-11-01 09:56:19.094280
2169  2023-11-01 09:56:19.126193
2170  2023-11-01 09:56:19.158211
2171  2023-11-01 09:56:19.190212
2172  2023-11-01 09:56:19.222114
2173  2023-11-01 09:56:19.253998
2174  2023-11-01 09:56:19.286004
2175  2023-11-01 09:56:19.317918
2176  2023-11-01 09:56:19.349864
2177  2023-11-01 09:56:19.382788
2178  2023-11-01 09:56:19.431647
2179  2023-11-01 09:56:19.463570
2180  2023-11-01 09:56:19.494447
2181  2023-11-01 09:56:19.526528
2182  2023-11-01 09:56:19.558401
2183  2023-11-01 09:56:19.590448
2184  2023-11-01 09:56:19.623327
2185  2023-11-01 09:56:19.655281
2186  2023-11-01 09:56:19.687231
2187  2023-11-01 09:56:19.719180
2188  2023-11-01 09:56:19.751137
2189  2023-11-01 09:56:19.783054
2190  2023-11-01 09:56:19.830917
2191  2023-11-01 09:56:19.862859
2192  2023-11-01 09:56:19.894755
2193  2023-11-01 09:56:19.926659
2194  2023-11-01 09:56:19.958572
2195  2023-11-01 09:56:19.990456
2196  2023-11-01 09:56:20.022413
2197  2023-11-01 09:56:20.055313
2198  2023-11-01 09:56:20.086235
2199  2023-11-01 09:56:20.118148
2200  2023-11-01 09:56:20.150029
2201  2023-11-01 09:56:20.182986
2202  2023-11-01 09:56:20.229849
2203  2023-11-01 09:56:20.262768
2204  2023-11-01 09:56:20.294673
2205  2023-11-01 09:56:20.325595
2206  2023-11-01 09:56:20.357473
2207  2023-11-01 09:56:20.390430
2208  2023-11-01 09:56:20.421636
2209  2023-11-01 09:56:20.453618
2210  2023-11-01 09:56:20.485532
2211  2023-11-01 09:56:20.517405
2212  2023-11-01 09:56:20.550363
2213  2023-11-01 09:56:20.581321
2214  2023-11-01 09:56:20.629281
2215  2023-11-01 09:56:20.662199
2216  2023-11-01 09:56:20.694140
2217  2023-11-01 09:56:20.726021
2218  2023-11-01 09:56:20.757966
2219  2023-11-01 09:56:20.789882
2220  2023-11-01 09:56:20.821810
2221  2023-11-01 09:56:20.853709
2222  2023-11-01 09:56:20.885637
2223  2023-11-01 09:56:20.917551
2224  2023-11-01 09:56:20.949603
2225  2023-11-01 09:56:20.981519
2226  2023-11-01 09:56:21.030348
2227  2023-11-01 09:56:21.062283
2228  2023-11-01 09:56:21.095173
2229  2023-11-01 09:56:21.126120
2230  2023-11-01 09:56:21.158036
2231  2023-11-01 09:56:21.189940
2232  2023-11-01 09:56:21.221835
2233  2023-11-01 09:56:21.254794
2234  2023-11-01 09:56:21.286722
2235  2023-11-01 09:56:21.317632
2236  2023-11-01 09:56:21.349636
2237  2023-11-01 09:56:21.382651
2238  2023-11-01 09:56:21.430520
2239  2023-11-01 09:56:21.463428
2240  2023-11-01 09:56:21.494303
2241  2023-11-01 09:56:21.526218
2242  2023-11-01 09:56:21.558163
2243  2023-11-01 09:56:21.590047
2244  2023-11-01 09:56:21.623012
2245  2023-11-01 09:56:21.653877
2246  2023-11-01 09:56:21.685821
2247  2023-11-01 09:56:21.717750
2248  2023-11-01 09:56:21.749652
2249  2023-11-01 09:56:21.781535
2250  2023-11-01 09:56:21.830445
2251  2023-11-01 09:56:21.862355
2252  2023-11-01 09:56:21.895270
2253  2023-11-01 09:56:21.927181
2254  2023-11-01 09:56:21.958095
2255  2023-11-01 09:56:21.990019
2256  2023-11-01 09:56:22.021892
2257  2023-11-01 09:56:22.054983
2258  2023-11-01 09:56:22.085877
2259  2023-11-01 09:56:22.117795
2260  2023-11-01 09:56:22.149708
2261  2023-11-01 09:56:22.181634
2262  2023-11-01 09:56:22.230493
2263  2023-11-01 09:56:22.262460
2264  2023-11-01 09:56:22.294410
2265  2023-11-01 09:56:22.326457
2266  2023-11-01 09:56:22.358262
2267  2023-11-01 09:56:22.390294
2268  2023-11-01 09:56:22.422205
2269  2023-11-01 09:56:22.454241
2270  2023-11-01 09:56:22.486190
2271  2023-11-01 09:56:22.518125
2272  2023-11-01 09:56:22.550151
2273  2023-11-01 09:56:22.582058
2274  2023-11-01 09:56:22.630191
2275  2023-11-01 09:56:22.662133
2276  2023-11-01 09:56:22.694021
2277  2023-11-01 09:56:22.725935
2278  2023-11-01 09:56:22.757851
2279  2023-11-01 09:56:22.789941
2280  2023-11-01 09:56:22.821856
2281  2023-11-01 09:56:22.853804
2282  2023-11-01 09:56:22.885737
2283  2023-11-01 09:56:22.917642
2284  2023-11-01 09:56:22.949514
2285  2023-11-01 09:56:22.998422
2286  2023-11-01 09:56:23.030299
2287  2023-11-01 09:56:23.062240
2288  2023-11-01 09:56:23.094183
2289  2023-11-01 09:56:23.126141
2290  2023-11-01 09:56:23.158086
2291  2023-11-01 09:56:23.190000
2292  2023-11-01 09:56:23.221917
2293  2023-11-01 09:56:23.253802
2294  2023-11-01 09:56:23.285745
2295  2023-11-01 09:56:23.317665
2296  2023-11-01 09:56:23.349571
2297  2023-11-01 09:56:23.398444
2298  2023-11-01 09:56:23.430360
2299  2023-11-01 09:56:23.462275
2300  2023-11-01 09:56:23.494159
2301  2023-11-01 09:56:23.526104
2302  2023-11-01 09:56:23.558181
2303  2023-11-01 09:56:23.590094
2304  2023-11-01 09:56:23.621978
2305  2023-11-01 09:56:23.653924
2306  2023-11-01 09:56:23.685839
2307  2023-11-01 09:56:23.717762
2308  2023-11-01 09:56:23.749637
2309  2023-11-01 09:56:23.797552
2310  2023-11-01 09:56:23.830466
2311  2023-11-01 09:56:23.862373
2312  2023-11-01 09:56:23.894384
2313  2023-11-01 09:56:23.926273
2314  2023-11-01 09:56:23.958218
2315  2023-11-01 09:56:23.990133
2316  2023-11-01 09:56:24.022051
2317  2023-11-01 09:56:24.053979
2318  2023-11-01 09:56:24.085891
2319  2023-11-01 09:56:24.117793
2320  2023-11-01 09:56:24.149714
2321  2023-11-01 09:56:24.197710
2322  2023-11-01 09:56:24.229631
2323  2023-11-01 09:56:24.261598
2324  2023-11-01 09:56:24.294530
2325  2023-11-01 09:56:24.326449
2326  2023-11-01 09:56:24.357378
2327  2023-11-01 09:56:24.390274
2328  2023-11-01 09:56:24.422192
2329  2023-11-01 09:56:24.454078
2330  2023-11-01 09:56:24.486032
2331  2023-11-01 09:56:24.517723
2332  2023-11-01 09:56:24.549697
2333  2023-11-01 09:56:24.597598
2334  2023-11-01 09:56:24.629492
2335  2023-11-01 09:56:24.662411
2336  2023-11-01 09:56:24.694398
2337  2023-11-01 09:56:24.726391
2338  2023-11-01 09:56:24.758273
2339  2023-11-01 09:56:24.790229
2340  2023-11-01 09:56:24.822045
2341  2023-11-01 09:56:24.853924
2342  2023-11-01 09:56:24.885945
2343  2023-11-01 09:56:24.917860
2344  2023-11-01 09:56:24.949779
2345  2023-11-01 09:56:24.997666
2346  2023-11-01 09:56:25.029660
2347  2023-11-01 09:56:25.062587
2348  2023-11-01 09:56:25.094503
2349  2023-11-01 09:56:25.125494
2350  2023-11-01 09:56:25.157421
2351  2023-11-01 09:56:25.189334
2352  2023-11-01 09:56:25.222261
2353  2023-11-01 09:56:25.254237
2354  2023-11-01 09:56:25.286278
2355  2023-11-01 09:56:25.318183
2356  2023-11-01 09:56:25.349834
2357  2023-11-01 09:56:25.397705
2358  2023-11-01 09:56:25.430618
2359  2023-11-01 09:56:25.462679
2360  2023-11-01 09:56:25.494494
2361  2023-11-01 09:56:25.525460
2362  2023-11-01 09:56:25.557374
2363  2023-11-01 09:56:25.590287
2364  2023-11-01 09:56:25.622198
2365  2023-11-01 09:56:25.654113
2366  2023-11-01 09:56:25.686032
2367  2023-11-01 09:56:25.717942
2368  2023-11-01 09:56:25.749857
2369  2023-11-01 09:56:25.797735
2370  2023-11-01 09:56:25.830607
2371  2023-11-01 09:56:25.862522
2372  2023-11-01 09:56:25.894476
2373  2023-11-01 09:56:25.925353
2374  2023-11-01 09:56:25.958303
2375  2023-11-01 09:56:25.990055
2376  2023-11-01 09:56:26.022084
2377  2023-11-01 09:56:26.053959
2378  2023-11-01 09:56:26.085904
2379  2023-11-01 09:56:26.117825
2380  2023-11-01 09:56:26.149733
2381  2023-11-01 09:56:26.197611
2382  2023-11-01 09:56:26.229529
2383  2023-11-01 09:56:26.262438
2384  2023-11-01 09:56:26.294319
2385  2023-11-01 09:56:26.326240
2386  2023-11-01 09:56:26.358180
2387  2023-11-01 09:56:26.390062
2388  2023-11-01 09:56:26.421979
2389  2023-11-01 09:56:26.453890
2390  2023-11-01 09:56:26.485835
2391  2023-11-01 09:56:26.518718
2392  2023-11-01 09:56:26.549634
2393  2023-11-01 09:56:26.597506
2394  2023-11-01 09:56:26.630486
2395  2023-11-01 09:56:26.662473
2396  2023-11-01 09:56:26.694354
2397  2023-11-01 09:56:26.726267
2398  2023-11-01 09:56:26.758214
2399  2023-11-01 09:56:26.790127
2400  2023-11-01 09:56:26.821326
2401  2023-11-01 09:56:26.854235
2402  2023-11-01 09:56:26.886163
2403  2023-11-01 09:56:26.918137
2404  2023-11-01 09:56:26.966087
2405  2023-11-01 09:56:26.997960
2406  2023-11-01 09:56:27.029876
2407  2023-11-01 09:56:27.061908
2408  2023-11-01 09:56:27.093858
2409  2023-11-01 09:56:27.126770
2410  2023-11-01 09:56:27.157784
2411  2023-11-01 09:56:27.189902
2412  2023-11-01 09:56:27.222600
2413  2023-11-01 09:56:27.254483
2414  2023-11-01 09:56:27.286446
2415  2023-11-01 09:56:27.317347
2416  2023-11-01 09:56:27.366215
2417  2023-11-01 09:56:27.398098
2418  2023-11-01 09:56:27.430060
2419  2023-11-01 09:56:27.461928
2420  2023-11-01 09:56:27.493842
2421  2023-11-01 09:56:27.526781
2422  2023-11-01 09:56:27.558218
2423  2023-11-01 09:56:27.590227
2424  2023-11-01 09:56:27.622132
2425  2023-11-01 09:56:27.654048
2426  2023-11-01 09:56:27.685966
2427  2023-11-01 09:56:27.717882
2428  2023-11-01 09:56:27.766498
2429  2023-11-01 09:56:27.797511
2430  2023-11-01 09:56:27.830437
2431  2023-11-01 09:56:27.862446
2432  2023-11-01 09:56:27.894361
2433  2023-11-01 09:56:27.926280
2434  2023-11-01 09:56:27.958221
2435  2023-11-01 09:56:27.990148
2436  2023-11-01 09:56:28.022054
2437  2023-11-01 09:56:28.053997
2438  2023-11-01 09:56:28.085911
2439  2023-11-01 09:56:28.117861
2440  2023-11-01 09:56:28.165737
2441  2023-11-01 09:56:28.197659
2442  2023-11-01 09:56:28.230577
2443  2023-11-01 09:56:28.262469
2444  2023-11-01 09:56:28.294363
2445  2023-11-01 09:56:28.326271
2446  2023-11-01 09:56:28.358196
2447  2023-11-01 09:56:28.390102
2448  2023-11-01 09:56:28.422014
2449  2023-11-01 09:56:28.453928
2450  2023-11-01 09:56:28.485842
2451  2023-11-01 09:56:28.517757
2452  2023-11-01 09:56:28.565665
2453  2023-11-01 09:56:28.597580
2454  2023-11-01 09:56:28.629468
2455  2023-11-01 09:56:28.662371
2456  2023-11-01 09:56:28.694311
2457  2023-11-01 09:56:28.726200
2458  2023-11-01 09:56:28.758114
2459  2023-11-01 09:56:28.790195
2460  2023-11-01 09:56:28.822109
2461  2023-11-01 09:56:28.854028
2462  2023-11-01 09:56:28.885938
2463  2023-11-01 09:56:28.917821
2464  2023-11-01 09:56:28.965736
2465  2023-11-01 09:56:28.997639
2466  2023-11-01 09:56:29.030552
2467  2023-11-01 09:56:29.061481
2468  2023-11-01 09:56:29.093533
2469  2023-11-01 09:56:29.126449
2470  2023-11-01 09:56:29.158324
2471  2023-11-01 09:56:29.190134
2472  2023-11-01 09:56:29.222130
2473  2023-11-01 09:56:29.254045
2474  2023-11-01 09:56:29.285960
2475  2023-11-01 09:56:29.317879
2476  2023-11-01 09:56:29.366744
2477  2023-11-01 09:56:29.398660
2478  2023-11-01 09:56:29.430574
2479  2023-11-01 09:56:29.461495
2480  2023-11-01 09:56:29.494403
2481  2023-11-01 09:56:29.526318
2482  2023-11-01 09:56:29.558237
2483  2023-11-01 09:56:29.590149
2484  2023-11-01 09:56:29.622094
2485  2023-11-01 09:56:29.653977
2486  2023-11-01 09:56:29.685891
2487  2023-11-01 09:56:29.717807
2488  2023-11-01 09:56:29.766676
2489  2023-11-01 09:56:29.798600
2490  2023-11-01 09:56:29.829541
2491  2023-11-01 09:56:29.861462
2492  2023-11-01 09:56:29.894337
2493  2023-11-01 09:56:29.926250
2494  2023-11-01 09:56:29.958196
2495  2023-11-01 09:56:29.990132
2496  2023-11-01 09:56:30.022023
2497  2023-11-01 09:56:30.053937
2498  2023-11-01 09:56:30.085823
2499  2023-11-01 09:56:30.117748
2500  2023-11-01 09:56:30.166606
2501  2023-11-01 09:56:30.198521
2502  2023-11-01 09:56:30.229439
2503  2023-11-01 09:56:30.261354
2504  2023-11-01 09:56:30.294264
2505  2023-11-01 09:56:30.326182
2506  2023-11-01 09:56:30.358093
2507  2023-11-01 09:56:30.390009
2508  2023-11-01 09:56:30.421924
2509  2023-11-01 09:56:30.453838
2510  2023-11-01 09:56:30.485754
2511  2023-11-01 09:56:30.534622
2512  2023-11-01 09:56:30.565641
2513  2023-11-01 09:56:30.598550
2514  2023-11-01 09:56:30.630467
2515  2023-11-01 09:56:30.662362
2516  2023-11-01 09:56:30.694315
2517  2023-11-01 09:56:30.726211
2518  2023-11-01 09:56:30.758092
2519  2023-11-01 09:56:30.790007
2520  2023-11-01 09:56:30.821922
2521  2023-11-01 09:56:30.853836
2522  2023-11-01 09:56:30.885751
2523  2023-11-01 09:56:30.934653
2524  2023-11-01 09:56:30.965573
2525  2023-11-01 09:56:30.998451
2526  2023-11-01 09:56:31.030548
2527  2023-11-01 09:56:31.062290
2528  2023-11-01 09:56:31.094194
2529  2023-11-01 09:56:31.126135
2530  2023-11-01 09:56:31.158025
2531  2023-11-01 09:56:31.189939
2532  2023-11-01 09:56:31.221886
2533  2023-11-01 09:56:31.253769
2534  2023-11-01 09:56:31.285683
2535  2023-11-01 09:56:31.333585
2536  2023-11-01 09:56:31.365501
2537  2023-11-01 09:56:31.398412
2538  2023-11-01 09:56:31.430330
2539  2023-11-01 09:56:31.462210
2540  2023-11-01 09:56:31.494167
2541  2023-11-01 09:56:31.526052
2542  2023-11-01 09:56:31.558124
2543  2023-11-01 09:56:31.590038
2544  2023-11-01 09:56:31.621953
2545  2023-11-01 09:56:31.653868
2546  2023-11-01 09:56:31.685783
2547  2023-11-01 09:56:31.733697
2548  2023-11-01 09:56:31.766567
2549  2023-11-01 09:56:31.797512
2550  2023-11-01 09:56:31.830398
2551  2023-11-01 09:56:31.862312
2552  2023-11-01 09:56:31.894326
2553  2023-11-01 09:56:31.926366
2554  2023-11-01 09:56:31.957369
2555  2023-11-01 09:56:31.990300
2556  2023-11-01 09:56:32.022211
2557  2023-11-01 09:56:32.054221
2558  2023-11-01 09:56:32.085697
2559  2023-11-01 09:56:32.133533
2560  2023-11-01 09:56:32.166573
2561  2023-11-01 09:56:32.198444
2562  2023-11-01 09:56:32.230405
2563  2023-11-01 09:56:32.262272
2564  2023-11-01 09:56:32.294188
2565  2023-11-01 09:56:32.326102
2566  2023-11-01 09:56:32.358016
2567  2023-11-01 09:56:32.389969
2568  2023-11-01 09:56:32.421879
2569  2023-11-01 09:56:32.453760
2570  2023-11-01 09:56:32.485675
2571  2023-11-01 09:56:32.533579
2572  2023-11-01 09:56:32.566418
2573  2023-11-01 09:56:32.598334
2574  2023-11-01 09:56:32.630248
2575  2023-11-01 09:56:32.662211
2576  2023-11-01 09:56:32.694126
2577  2023-11-01 09:56:32.726041
2578  2023-11-01 09:56:32.757984
2579  2023-11-01 09:56:32.789868
2580  2023-11-01 09:56:32.821788
2581  2023-11-01 09:56:32.853720
2582  2023-11-01 09:56:32.885641
2583  2023-11-01 09:56:32.934575
2584  2023-11-01 09:56:32.965564
2585  2023-11-01 09:56:32.998491
2586  2023-11-01 09:56:33.030462
2587  2023-11-01 09:56:33.062422
2588  2023-11-01 09:56:33.094337
2589  2023-11-01 09:56:33.126252
2590  2023-11-01 09:56:33.158166
2591  2023-11-01 09:56:33.190080
2592  2023-11-01 09:56:33.221995
2593  2023-11-01 09:56:33.253910
2594  2023-11-01 09:56:33.285824
2595  2023-11-01 09:56:33.333732
2596  2023-11-01 09:56:33.365650
2597  2023-11-01 09:56:33.398552
2598  2023-11-01 09:56:33.430464
2599  2023-11-01 09:56:33.462353
2600  2023-11-01 09:56:33.494267
2601  2023-11-01 09:56:33.526237
2602  2023-11-01 09:56:33.558096
2603  2023-11-01 09:56:33.590013
2604  2023-11-01 09:56:33.621926
2605  2023-11-01 09:56:33.653840
2606  2023-11-01 09:56:33.685755
2607  2023-11-01 09:56:33.733627
2608  2023-11-01 09:56:33.766540
2609  2023-11-01 09:56:33.798488
2610  2023-11-01 09:56:33.830370
2611  2023-11-01 09:56:33.862283
2612  2023-11-01 09:56:33.894199
2613  2023-11-01 09:56:33.926141
2614  2023-11-01 09:56:33.958027
2615  2023-11-01 09:56:33.989942
2616  2023-11-01 09:56:34.021857
2617  2023-11-01 09:56:34.053818
2618  2023-11-01 09:56:34.085686
2619  2023-11-01 09:56:34.134586
2620  2023-11-01 09:56:34.166472
2621  2023-11-01 09:56:34.198386
2622  2023-11-01 09:56:34.230300
2623  2023-11-01 09:56:34.262296
2624  2023-11-01 09:56:34.294305
2625  2023-11-01 09:56:34.326222
2626  2023-11-01 09:56:34.358272
2627  2023-11-01 09:56:34.390186
2628  2023-11-01 09:56:34.422101
2629  2023-11-01 09:56:34.454015
2630  2023-11-01 09:56:34.501888
2631  2023-11-01 09:56:34.534800
2632  2023-11-01 09:56:34.566751
2633  2023-11-01 09:56:34.598662
2634  2023-11-01 09:56:34.630578
2635  2023-11-01 09:56:34.661544
2636  2023-11-01 09:56:34.694420
2637  2023-11-01 09:56:34.726335
2638  2023-11-01 09:56:34.758262
2639  2023-11-01 09:56:34.790235
2640  2023-11-01 09:56:34.822197
2641  2023-11-01 09:56:34.854112
2642  2023-11-01 09:56:34.901984
2643  2023-11-01 09:56:34.933933
2644  2023-11-01 09:56:34.965823
2645  2023-11-01 09:56:34.997728
2646  2023-11-01 09:56:35.029691
2647  2023-11-01 09:56:35.062556
2648  2023-11-01 09:56:35.094524
2649  2023-11-01 09:56:35.126410
2650  2023-11-01 09:56:35.158298
2651  2023-11-01 09:56:35.190213
2652  2023-11-01 09:56:35.222161
2653  2023-11-01 09:56:35.254043
2654  2023-11-01 09:56:35.301915
2655  2023-11-01 09:56:35.333829
2656  2023-11-01 09:56:35.365744
2657  2023-11-01 09:56:35.397689
2658  2023-11-01 09:56:35.430605
2659  2023-11-01 09:56:35.461488
2660  2023-11-01 09:56:35.494401
2661  2023-11-01 09:56:35.526317
2662  2023-11-01 09:56:35.558229
2663  2023-11-01 09:56:35.590150
2664  2023-11-01 09:56:35.622059
2665  2023-11-01 09:56:35.653973
2666  2023-11-01 09:56:35.702887
2667  2023-11-01 09:56:35.734792
2668  2023-11-01 09:56:35.765858
2669  2023-11-01 09:56:35.797806
2670  2023-11-01 09:56:35.829686
2671  2023-11-01 09:56:35.861600
2672  2023-11-01 09:56:35.893517
2673  2023-11-01 09:56:35.926428
2674  2023-11-01 09:56:35.958341
2675  2023-11-01 09:56:35.990256
2676  2023-11-01 09:56:36.022198
2677  2023-11-01 09:56:36.054120
2678  2023-11-01 09:56:36.102966
2679  2023-11-01 09:56:36.133872
2680  2023-11-01 09:56:36.165794
2681  2023-11-01 09:56:36.198743
2682  2023-11-01 09:56:36.230672
2683  2023-11-01 09:56:36.261531
2684  2023-11-01 09:56:36.294489
2685  2023-11-01 09:56:36.326369
2686  2023-11-01 09:56:36.358272
2687  2023-11-01 09:56:36.390269
2688  2023-11-01 09:56:36.422184
2689  2023-11-01 09:56:36.454131
2690  2023-11-01 09:56:36.502015
2691  2023-11-01 09:56:36.533932
2692  2023-11-01 09:56:36.567893
2693  2023-11-01 09:56:36.598834
2694  2023-11-01 09:56:36.630748
2695  2023-11-01 09:56:36.662720
2696  2023-11-01 09:56:36.694637
2697  2023-11-01 09:56:36.727584
2698  2023-11-01 09:56:36.759506
2699  2023-11-01 09:56:36.791543
2700  2023-11-01 09:56:36.822418
2701  2023-11-01 09:56:36.855369
2702  2023-11-01 09:56:36.903319
2703  2023-11-01 09:56:36.935239
2704  2023-11-01 09:56:36.966116
2705  2023-11-01 09:56:36.999190
2706  2023-11-01 09:56:37.030065
2707  2023-11-01 09:56:37.063093
2708  2023-11-01 09:56:37.094879
2709  2023-11-01 09:56:37.126783
2710  2023-11-01 09:56:37.158708
2711  2023-11-01 09:56:37.190606
2712  2023-11-01 09:56:37.222493
2713  2023-11-01 09:56:37.254439
2714  2023-11-01 09:56:37.302385
2715  2023-11-01 09:56:37.335291
2716  2023-11-01 09:56:37.367206
2717  2023-11-01 09:56:37.398123
2718  2023-11-01 09:56:37.431035
2719  2023-11-01 09:56:37.462950
2720  2023-11-01 09:56:37.494864
2721  2023-11-01 09:56:37.526826
2722  2023-11-01 09:56:37.558723
2723  2023-11-01 09:56:37.590649
2724  2023-11-01 09:56:37.622562
2725  2023-11-01 09:56:37.654469
2726  2023-11-01 09:56:37.702361
2727  2023-11-01 09:56:37.734224
2728  2023-11-01 09:56:37.766173
2729  2023-11-01 09:56:37.799051
2730  2023-11-01 09:56:37.830004
2731  2023-11-01 09:56:37.862939
2732  2023-11-01 09:56:37.894836
2733  2023-11-01 09:56:37.925840
2734  2023-11-01 09:56:37.958736
2735  2023-11-01 09:56:37.989669
2736  2023-11-01 09:56:38.022573
2737  2023-11-01 09:56:38.070458
2738  2023-11-01 09:56:38.103380
2739  2023-11-01 09:56:38.134282
2740  2023-11-01 09:56:38.166187
2741  2023-11-01 09:56:38.198108
2742  2023-11-01 09:56:38.230016
2743  2023-11-01 09:56:38.262946
2744  2023-11-01 09:56:38.293821
2745  2023-11-01 09:56:38.326734
2746  2023-11-01 09:56:38.357682
2747  2023-11-01 09:56:38.389608
2748  2023-11-01 09:56:38.422445
2749  2023-11-01 09:56:38.469424
2750  2023-11-01 09:56:38.502421
2751  2023-11-01 09:56:38.534328
2752  2023-11-01 09:56:38.566243
2753  2023-11-01 09:56:38.598160
2754  2023-11-01 09:56:38.630074
2755  2023-11-01 09:56:38.661989
2756  2023-11-01 09:56:38.694947
2757  2023-11-01 09:56:38.725948
2758  2023-11-01 09:56:38.757856
2759  2023-11-01 09:56:38.789739
2760  2023-11-01 09:56:38.823652
2761  2023-11-01 09:56:38.869559
2762  2023-11-01 09:56:38.901473
2763  2023-11-01 09:56:38.934354
2764  2023-11-01 09:56:38.966267
2765  2023-11-01 09:56:38.998182
2766  2023-11-01 09:56:39.030126
2767  2023-11-01 09:56:39.062041
2768  2023-11-01 09:56:39.093968
2769  2023-11-01 09:56:39.126839
2770  2023-11-01 09:56:39.157784
2771  2023-11-01 09:56:39.189695
2772  2023-11-01 09:56:39.223646
2773  2023-11-01 09:56:39.270454
2774  2023-11-01 09:56:39.302427
2775  2023-11-01 09:56:39.335322
2776  2023-11-01 09:56:39.367236
2777  2023-11-01 09:56:39.399145
2778  2023-11-01 09:56:39.430082
2779  2023-11-01 09:56:39.461983
2780  2023-11-01 09:56:39.494894
2781  2023-11-01 09:56:39.526808
2782  2023-11-01 09:56:39.557820
2783  2023-11-01 09:56:39.589692
2784  2023-11-01 09:56:39.621663
2785  2023-11-01 09:56:39.669511
2786  2023-11-01 09:56:39.701550
2787  2023-11-01 09:56:39.735481
2788  2023-11-01 09:56:39.766396
2789  2023-11-01 09:56:39.799255
2790  2023-11-01 09:56:39.830207
2791  2023-11-01 09:56:39.862126
2792  2023-11-01 09:56:39.895041
2793  2023-11-01 09:56:39.926994
2794  2023-11-01 09:56:39.957942
2795  2023-11-01 09:56:39.989822
2796  2023-11-01 09:56:40.021811
2797  2023-11-01 09:56:40.069771
2798  2023-11-01 09:56:40.101693
2799  2023-11-01 09:56:40.134612
2800  2023-11-01 09:56:40.166473
2801  2023-11-01 09:56:40.198515
2802  2023-11-01 09:56:40.230430
2803  2023-11-01 09:56:40.261477
2804  2023-11-01 09:56:40.294391
2805  2023-11-01 09:56:40.326309
2806  2023-11-01 09:56:40.358260
2807  2023-11-01 09:56:40.390177
2808  2023-11-01 09:56:40.422050
2809  2023-11-01 09:56:40.470948
2810  2023-11-01 09:56:40.501841
2811  2023-11-01 09:56:40.534781
2812  2023-11-01 09:56:40.566714
2813  2023-11-01 09:56:40.598617
2814  2023-11-01 09:56:40.629561
2815  2023-11-01 09:56:40.662439
2816  2023-11-01 09:56:40.694323
2817  2023-11-01 09:56:40.726284
2818  2023-11-01 09:56:40.758182
2819  2023-11-01 09:56:40.790064
2820  2023-11-01 09:56:40.822058
2821  2023-11-01 09:56:40.869994
2822  2023-11-01 09:56:40.901910
2823  2023-11-01 09:56:40.933834
2824  2023-11-01 09:56:40.965709
2825  2023-11-01 09:56:40.997650
2826  2023-11-01 09:56:41.029569
2827  2023-11-01 09:56:41.061492
2828  2023-11-01 09:56:41.094500
2829  2023-11-01 09:56:41.126446
2830  2023-11-01 09:56:41.158361
2831  2023-11-01 09:56:41.190276
2832  2023-11-01 09:56:41.222199
2833  2023-11-01 09:56:41.270064
2834  2023-11-01 09:56:41.301945
2835  2023-11-01 09:56:41.333896
2836  2023-11-01 09:56:41.365810
2837  2023-11-01 09:56:41.398692
2838  2023-11-01 09:56:41.430648
2839  2023-11-01 09:56:41.461562
2840  2023-11-01 09:56:41.494461
2841  2023-11-01 09:56:41.526383
2842  2023-11-01 09:56:41.558261
2843  2023-11-01 09:56:41.590199
2844  2023-11-01 09:56:41.622120
2845  2023-11-01 09:56:41.669992
2846  2023-11-01 09:56:41.701901
2847  2023-11-01 09:56:41.733822
2848  2023-11-01 09:56:41.765745
2849  2023-11-01 09:56:41.797682
2850  2023-11-01 09:56:41.829575
2851  2023-11-01 09:56:41.861480
2852  2023-11-01 09:56:41.894364
2853  2023-11-01 09:56:41.926315
2854  2023-11-01 09:56:41.958190
2855  2023-11-01 09:56:41.990137
2856  2023-11-01 09:56:42.037979
2857  2023-11-01 09:56:42.069977
2858  2023-11-01 09:56:42.102019
2859  2023-11-01 09:56:42.133924
2860  2023-11-01 09:56:42.165838
2861  2023-11-01 09:56:42.197756
2862  2023-11-01 09:56:42.229674
2863  2023-11-01 09:56:42.261713
2864  2023-11-01 09:56:42.294586
2865  2023-11-01 09:56:42.325561
2866  2023-11-01 09:56:42.357450
2867  2023-11-01 09:56:42.390370
2868  2023-11-01 09:56:42.438235
2869  2023-11-01 09:56:42.470116
2870  2023-11-01 09:56:42.502070
2871  2023-11-01 09:56:42.533978
2872  2023-11-01 09:56:42.565861
2873  2023-11-01 09:56:42.598783
2874  2023-11-01 09:56:42.629699
2875  2023-11-01 09:56:42.662609
2876  2023-11-01 09:56:42.694681
2877  2023-11-01 09:56:42.725732
2878  2023-11-01 09:56:42.757591
2879  2023-11-01 09:56:42.789549
2880  2023-11-01 09:56:42.838502
2881  2023-11-01 09:56:42.869501
2882  2023-11-01 09:56:42.902382
2883  2023-11-01 09:56:42.934296
2884  2023-11-01 09:56:42.966358
2885  2023-11-01 09:56:42.998274
2886  2023-11-01 09:56:43.030154
2887  2023-11-01 09:56:43.062069
2888  2023-11-01 09:56:43.094013
2889  2023-11-01 09:56:43.125920
2890  2023-11-01 09:56:43.157855
2891  2023-11-01 09:56:43.189768
2892  2023-11-01 09:56:43.237643
2893  2023-11-01 09:56:43.269542
2894  2023-11-01 09:56:43.301460
2895  2023-11-01 09:56:43.334339
2896  2023-11-01 09:56:43.366254
2897  2023-11-01 09:56:43.398173
2898  2023-11-01 09:56:43.430083
2899  2023-11-01 09:56:43.462025
2900  2023-11-01 09:56:43.493943
2901  2023-11-01 09:56:43.525860
2902  2023-11-01 09:56:43.557791
2903  2023-11-01 09:56:43.589687
2904  2023-11-01 09:56:43.638542
2905  2023-11-01 09:56:43.670441
2906  2023-11-01 09:56:43.701555
2907  2023-11-01 09:56:43.733565
2908  2023-11-01 09:56:43.765483
2909  2023-11-01 09:56:43.798360
2910  2023-11-01 09:56:43.830327
2911  2023-11-01 09:56:43.862195
2912  2023-11-01 09:56:43.894140
2913  2023-11-01 09:56:43.926046
2914  2023-11-01 09:56:43.957965
2915  2023-11-01 09:56:43.989874
2916  2023-11-01 09:56:44.037721
2917  2023-11-01 09:56:44.069685
2918  2023-11-01 09:56:44.101598
2919  2023-11-01 09:56:44.134497
2920  2023-11-01 09:56:44.166379
2921  2023-11-01 09:56:44.198291
2922  2023-11-01 09:56:44.230206
2923  2023-11-01 09:56:44.262158
2924  2023-11-01 09:56:44.294076
2925  2023-11-01 09:56:44.326022
2926  2023-11-01 09:56:44.358018
2927  2023-11-01 09:56:44.389850
2928  2023-11-01 09:56:44.437729
2929  2023-11-01 09:56:44.470600
2930  2023-11-01 09:56:44.502550
2931  2023-11-01 09:56:44.534469
2932  2023-11-01 09:56:44.566490
2933  2023-11-01 09:56:44.598406
2934  2023-11-01 09:56:44.630330
2935  2023-11-01 09:56:44.662236
2936  2023-11-01 09:56:44.694222
2937  2023-11-01 09:56:44.726047
2938  2023-11-01 09:56:44.757959
2939  2023-11-01 09:56:44.789906
2940  2023-11-01 09:56:44.838744
2941  2023-11-01 09:56:44.869702
2942  2023-11-01 09:56:44.902572
2943  2023-11-01 09:56:44.934806
2944  2023-11-01 09:56:44.965759
2945  2023-11-01 09:56:44.998672
2946  2023-11-01 09:56:45.030624
2947  2023-11-01 09:56:45.062533
2948  2023-11-01 09:56:45.094416
2949  2023-11-01 09:56:45.126347
2950  2023-11-01 09:56:45.158246
2951  2023-11-01 09:56:45.190195
2952  2023-11-01 09:56:45.238033
2953  2023-11-01 09:56:45.269946
2954  2023-11-01 09:56:45.301888
2955  2023-11-01 09:56:45.333776
2956  2023-11-01 09:56:45.366647
2957  2023-11-01 09:56:45.397674
2958  2023-11-01 09:56:45.429600
2959  2023-11-01 09:56:45.462557
2960  2023-11-01 09:56:45.493473
2961  2023-11-01 09:56:45.526386
2962  2023-11-01 09:56:45.557304
2963  2023-11-01 09:56:45.606340
2964  2023-11-01 09:56:45.638285
2965  2023-11-01 09:56:45.670239
2966  2023-11-01 09:56:45.702153
2967  2023-11-01 09:56:45.734108
2968  2023-11-01 09:56:45.766097
2969  2023-11-01 09:56:45.798010
2970  2023-11-01 09:56:45.829927
2971  2023-11-01 09:56:45.861891
2972  2023-11-01 09:56:45.893795
2973  2023-11-01 09:56:45.925703
2974  2023-11-01 09:56:45.957583
2975  2023-11-01 09:56:46.005524
2976  2023-11-01 09:56:46.037440
2977  2023-11-01 09:56:46.069458
2978  2023-11-01 09:56:46.102375
2979  2023-11-01 09:56:46.134282
2980  2023-11-01 09:56:46.166165
2981  2023-11-01 09:56:46.198080
2982  2023-11-01 09:56:46.230024
2983  2023-11-01 09:56:46.262052
2984  2023-11-01 09:56:46.293947
2985  2023-11-01 09:56:46.325833
2986  2023-11-01 09:56:46.357787
2987  2023-11-01 09:56:46.405814
2988  2023-11-01 09:56:46.437715
2989  2023-11-01 09:56:46.470641
2990  2023-11-01 09:56:46.502635
2991  2023-11-01 09:56:46.534560
2992  2023-11-01 09:56:46.566552
2993  2023-11-01 09:56:46.598437
2994  2023-11-01 09:56:46.630380
2995  2023-11-01 09:56:46.662266
2996  2023-11-01 09:56:46.694182
2997  2023-11-01 09:56:46.726218
2998  2023-11-01 09:56:46.758224
2999  2023-11-01 09:56:46.806096
3000  2023-11-01 09:56:46.838043
3001  2023-11-01 09:56:46.870923
3002  2023-11-01 09:56:46.901880
3003  2023-11-01 09:56:46.934780
3004  2023-11-01 09:56:46.966667
3005  2023-11-01 09:56:46.997584
3006  2023-11-01 09:56:47.030497
3007  2023-11-01 09:56:47.062452
3008  2023-11-01 09:56:47.094407
3009  2023-11-01 09:56:47.126334
3010  2023-11-01 09:56:47.158235
3011  2023-11-01 09:56:47.206107
3012  2023-11-01 09:56:47.238061
3013  2023-11-01 09:56:47.270968
3014  2023-11-01 09:56:47.301852
3015  2023-11-01 09:56:47.333819
3016  2023-11-01 09:56:47.365680
3017  2023-11-01 09:56:47.397631
3018  2023-11-01 09:56:47.429540
3019  2023-11-01 09:56:47.462423
3020  2023-11-01 09:56:47.494364
3021  2023-11-01 09:56:47.526253
3022  2023-11-01 09:56:47.558209
3023  2023-11-01 09:56:47.606038
3024  2023-11-01 09:56:47.637979
3025  2023-11-01 09:56:47.670035
3026  2023-11-01 09:56:47.701951
3027  2023-11-01 09:56:47.733860
3028  2023-11-01 09:56:47.766776
3029  2023-11-01 09:56:47.798698
3030  2023-11-01 09:56:47.830575
3031  2023-11-01 09:56:47.862490
3032  2023-11-01 09:56:47.893437
3033  2023-11-01 09:56:47.926319
3034  2023-11-01 09:56:47.958233
3035  2023-11-01 09:56:48.006106
3036  2023-11-01 09:56:48.038053
3037  2023-11-01 09:56:48.069965
3038  2023-11-01 09:56:48.101882
3039  2023-11-01 09:56:48.133797
3040  2023-11-01 09:56:48.166687
3041  2023-11-01 09:56:48.197624
3042  2023-11-01 09:56:48.229508
3043  2023-11-01 09:56:48.261464
3044  2023-11-01 09:56:48.293370
3045  2023-11-01 09:56:48.326250
3046  2023-11-01 09:56:48.358164
3047  2023-11-01 09:56:48.406083
3048  2023-11-01 09:56:48.437986
3049  2023-11-01 09:56:48.469898
3050  2023-11-01 09:56:48.502080
3051  2023-11-01 09:56:48.534001
3052  2023-11-01 09:56:48.565959
3053  2023-11-01 09:56:48.598963
3054  2023-11-01 09:56:48.629880
3055  2023-11-01 09:56:48.661826
3056  2023-11-01 09:56:48.694708
3057  2023-11-01 09:56:48.726622
3058  2023-11-01 09:56:48.757539
3059  2023-11-01 09:56:48.806409
3060  2023-11-01 09:56:48.838324
3061  2023-11-01 09:56:48.870271
3062  2023-11-01 09:56:48.902197
3063  2023-11-01 09:56:48.934103
3064  2023-11-01 09:56:48.965982
3065  2023-11-01 09:56:48.998021
3066  2023-11-01 09:56:49.029936
3067  2023-11-01 09:56:49.061883
3068  2023-11-01 09:56:49.093800
3069  2023-11-01 09:56:49.126686
3070  2023-11-01 09:56:49.157609
3071  2023-11-01 09:56:49.206465
3072  2023-11-01 09:56:49.238379
3073  2023-11-01 09:56:49.270302
3074  2023-11-01 09:56:49.302208
3075  2023-11-01 09:56:49.334123
3076  2023-11-01 09:56:49.366085
3077  2023-11-01 09:56:49.397988
3078  2023-11-01 09:56:49.429867
3079  2023-11-01 09:56:49.461820
3080  2023-11-01 09:56:49.494733
3081  2023-11-01 09:56:49.526646
3082  2023-11-01 09:56:49.574482
3083  2023-11-01 09:56:49.606396
3084  2023-11-01 09:56:49.637312
3085  2023-11-01 09:56:49.672250
3086  2023-11-01 09:56:49.702168
3087  2023-11-01 09:56:49.734079
3088  2023-11-01 09:56:49.766006
3089  2023-11-01 09:56:49.797969
3090  2023-11-01 09:56:49.829881
3091  2023-11-01 09:56:49.861870
3092  2023-11-01 09:56:49.893750
3093  2023-11-01 09:56:49.925694
3094  2023-11-01 09:56:49.974534
3095  2023-11-01 09:56:50.006495
3096  2023-11-01 09:56:50.038364
3097  2023-11-01 09:56:50.070277
3098  2023-11-01 09:56:50.102192
3099  2023-11-01 09:56:50.134105
3100  2023-11-01 09:56:50.166021
3101  2023-11-01 09:56:50.198968
3102  2023-11-01 09:56:50.229882
3103  2023-11-01 09:56:50.261796
3104  2023-11-01 09:56:50.293679
3105  2023-11-01 09:56:50.326624
3106  2023-11-01 09:56:50.373466
3107  2023-11-01 09:56:50.406379
3108  2023-11-01 09:56:50.438293
3109  2023-11-01 09:56:50.470247
3110  2023-11-01 09:56:50.502121
3111  2023-11-01 09:56:50.534062
3112  2023-11-01 09:56:50.565987
3113  2023-11-01 09:56:50.597905
3114  2023-11-01 09:56:50.630817
3115  2023-11-01 09:56:50.661695
3116  2023-11-01 09:56:50.693661
3117  2023-11-01 09:56:50.726523
3118  2023-11-01 09:56:50.774419
3119  2023-11-01 09:56:50.806310
3120  2023-11-01 09:56:50.838238
3121  2023-11-01 09:56:50.870171
3122  2023-11-01 09:56:50.902177
3123  2023-11-01 09:56:50.934093
3124  2023-11-01 09:56:50.966033
3125  2023-11-01 09:56:50.997920
3126  2023-11-01 09:56:51.029969
3127  2023-11-01 09:56:51.061962
3128  2023-11-01 09:56:51.093945
3129  2023-11-01 09:56:51.125861
3130  2023-11-01 09:56:51.173702
3131  2023-11-01 09:56:51.205616
3132  2023-11-01 09:56:51.238559
3133  2023-11-01 09:56:51.269476
3134  2023-11-01 09:56:51.302358
3135  2023-11-01 09:56:51.334281
3136  2023-11-01 09:56:51.366187
3137  2023-11-01 09:56:51.398104
3138  2023-11-01 09:56:51.430073
3139  2023-11-01 09:56:51.461931
3140  2023-11-01 09:56:51.493878
3141  2023-11-01 09:56:51.525799
3142  2023-11-01 09:56:51.574631
3143  2023-11-01 09:56:51.606545
3144  2023-11-01 09:56:51.638468
3145  2023-11-01 09:56:51.670374
3146  2023-11-01 09:56:51.702288
3147  2023-11-01 09:56:51.734255
3148  2023-11-01 09:56:51.766146
3149  2023-11-01 09:56:51.798033
3150  2023-11-01 09:56:51.830975
3151  2023-11-01 09:56:51.861862
3152  2023-11-01 09:56:51.893822
3153  2023-11-01 09:56:51.925743
3154  2023-11-01 09:56:51.974604
3155  2023-11-01 09:56:52.006509
3156  2023-11-01 09:56:52.038397
3157  2023-11-01 09:56:52.070310
3158  2023-11-01 09:56:52.102219
3159  2023-11-01 09:56:52.134134
3160  2023-11-01 09:56:52.166048
3161  2023-11-01 09:56:52.197963
3162  2023-11-01 09:56:52.229910
3163  2023-11-01 09:56:52.261792
3164  2023-11-01 09:56:52.293753
3165  2023-11-01 09:56:52.325653
3166  2023-11-01 09:56:52.373495
3167  2023-11-01 09:56:52.406436
3168  2023-11-01 09:56:52.438357
3169  2023-11-01 09:56:52.470235
3170  2023-11-01 09:56:52.502150
3171  2023-11-01 09:56:52.535098
3172  2023-11-01 09:56:52.566020
3173  2023-11-01 09:56:52.597976
3174  2023-11-01 09:56:52.629928
3175  2023-11-01 09:56:52.661875
3176  2023-11-01 09:56:52.693796
3177  2023-11-01 09:56:52.725704
3178  2023-11-01 09:56:52.774543
3179  2023-11-01 09:56:52.806457
3180  2023-11-01 09:56:52.838373
3181  2023-11-01 09:56:52.870286
3182  2023-11-01 09:56:52.902308
3183  2023-11-01 09:56:52.934249
3184  2023-11-01 09:56:52.966162
3185  2023-11-01 09:56:52.998050
3186  2023-11-01 09:56:53.029965
3187  2023-11-01 09:56:53.061880
3188  2023-11-01 09:56:53.093796
3189  2023-11-01 09:56:53.125714
3190  2023-11-01 09:56:53.174582
3191  2023-11-01 09:56:53.206652
3192  2023-11-01 09:56:53.238580
3193  2023-11-01 09:56:53.269499
3194  2023-11-01 09:56:53.301479
3195  2023-11-01 09:56:53.333395
3196  2023-11-01 09:56:53.366270
3197  2023-11-01 09:56:53.398192
3198  2023-11-01 09:56:53.430100
3199  2023-11-01 09:56:53.463040
3200  2023-11-01 09:56:53.493929
3201  2023-11-01 09:56:53.541801
3202  2023-11-01 09:56:53.574746
3203  2023-11-01 09:56:53.606663
3204  2023-11-01 09:56:53.637575
3205  2023-11-01 09:56:53.669496
3206  2023-11-01 09:56:53.702372
3207  2023-11-01 09:56:53.734325
3208  2023-11-01 09:56:53.766258
3209  2023-11-01 09:56:53.798116
3210  2023-11-01 09:56:53.830031
3211  2023-11-01 09:56:53.861977
3212  2023-11-01 09:56:53.893860
3213  2023-11-01 09:56:53.941732
3214  2023-11-01 09:56:53.973683
3215  2023-11-01 09:56:54.006609
3216  2023-11-01 09:56:54.040514
3217  2023-11-01 09:56:54.070390
3218  2023-11-01 09:56:54.101306
3219  2023-11-01 09:56:54.134217
3220  2023-11-01 09:56:54.167177
3221  2023-11-01 09:56:54.198047
3222  2023-11-01 09:56:54.231958
3223  2023-11-01 09:56:54.263950
3224  2023-11-01 09:56:54.295943
3225  2023-11-01 09:56:54.343828
3226  2023-11-01 09:56:54.374756
3227  2023-11-01 09:56:54.407687
3228  2023-11-01 09:56:54.439578
3229  2023-11-01 09:56:54.470457
3230  2023-11-01 09:56:54.503408
3231  2023-11-01 09:56:54.535317
3232  2023-11-01 09:56:54.567225
3233  2023-11-01 09:56:54.599164
3234  2023-11-01 09:56:54.631060
3235  2023-11-01 09:56:54.662973
3236  2023-11-01 09:56:54.693858
3237  2023-11-01 09:56:54.742755
3238  2023-11-01 09:56:54.774669
3239  2023-11-01 09:56:54.806588
3240  2023-11-01 09:56:54.838618
3241  2023-11-01 09:56:54.870535
3242  2023-11-01 09:56:54.902444
3243  2023-11-01 09:56:54.935367
3244  2023-11-01 09:56:54.967288
3245  2023-11-01 09:56:54.999150
3246  2023-11-01 09:56:55.031094
3247  2023-11-01 09:56:55.062998
3248  2023-11-01 09:56:55.095887
3249  2023-11-01 09:56:55.142798
3250  2023-11-01 09:56:55.174722
3251  2023-11-01 09:56:55.206637
3252  2023-11-01 09:56:55.238550
3253  2023-11-01 09:56:55.270420
3254  2023-11-01 09:56:55.302367
3255  2023-11-01 09:56:55.334298
3256  2023-11-01 09:56:55.366198
3257  2023-11-01 09:56:55.397998
3258  2023-11-01 09:56:55.430043
3259  2023-11-01 09:56:55.461967
3260  2023-11-01 09:56:55.494903
3261  2023-11-01 09:56:55.541777
3262  2023-11-01 09:56:55.574757
3263  2023-11-01 09:56:55.606697
3264  2023-11-01 09:56:55.638609
3265  2023-11-01 09:56:55.670523
3266  2023-11-01 09:56:55.702448
3267  2023-11-01 09:56:55.734352
3268  2023-11-01 09:56:55.767266
3269  2023-11-01 09:56:55.799181
3270  2023-11-01 09:56:55.830072
3271  2023-11-01 09:56:55.862013
3272  2023-11-01 09:56:55.895034
3273  2023-11-01 09:56:55.941890
3274  2023-11-01 09:56:55.973775
3275  2023-11-01 09:56:56.006687
3276  2023-11-01 09:56:56.038642
3277  2023-11-01 09:56:56.070515
3278  2023-11-01 09:56:56.102458
3279  2023-11-01 09:56:56.134387
3280  2023-11-01 09:56:56.166292
3281  2023-11-01 09:56:56.198207
3282  2023-11-01 09:56:56.230121
3283  2023-11-01 09:56:56.262037
3284  2023-11-01 09:56:56.293967
3285  2023-11-01 09:56:56.342835
3286  2023-11-01 09:56:56.373749
3287  2023-11-01 09:56:56.406617
3288  2023-11-01 09:56:56.438531
3289  2023-11-01 09:56:56.470492
3290  2023-11-01 09:56:56.502406
3291  2023-11-01 09:56:56.534315
3292  2023-11-01 09:56:56.566232
3293  2023-11-01 09:56:56.598114
3294  2023-11-01 09:56:56.630020
3295  2023-11-01 09:56:56.661965
3296  2023-11-01 09:56:56.693849
3297  2023-11-01 09:56:56.742762
3298  2023-11-01 09:56:56.773753
3299  2023-11-01 09:56:56.805626
3300  2023-11-01 09:56:56.838598
3301  2023-11-01 09:56:56.870475
3302  2023-11-01 09:56:56.902416
3303  2023-11-01 09:56:56.934284
3304  2023-11-01 09:56:56.966229
3305  2023-11-01 09:56:56.999110
3306  2023-11-01 09:56:57.030167
3307  2023-11-01 09:56:57.061976
3308  2023-11-01 09:56:57.109814
3309  2023-11-01 09:56:57.141728
3310  2023-11-01 09:56:57.174642
3311  2023-11-01 09:56:57.205558
3312  2023-11-01 09:56:57.239516
3313  2023-11-01 09:56:57.270385
3314  2023-11-01 09:56:57.302300
3315  2023-11-01 09:56:57.335253
3316  2023-11-01 09:56:57.367126
3317  2023-11-01 09:56:57.399087
3318  2023-11-01 09:56:57.429990
3319  2023-11-01 09:56:57.461871
3320  2023-11-01 09:56:57.509747
3321  2023-11-01 09:56:57.541658
3322  2023-11-01 09:56:57.575610
3323  2023-11-01 09:56:57.606706
3324  2023-11-01 09:56:57.638626
3325  2023-11-01 09:56:57.670515
3326  2023-11-01 09:56:57.702402
3327  2023-11-01 09:56:57.734356
3328  2023-11-01 09:56:57.767259
3329  2023-11-01 09:56:57.798176
3330  2023-11-01 09:56:57.830060
3331  2023-11-01 09:56:57.861975
3332  2023-11-01 09:56:57.909846
3333  2023-11-01 09:56:57.941794
3334  2023-11-01 09:56:57.974680
3335  2023-11-01 09:56:58.006634
3336  2023-11-01 09:56:58.038543
3337  2023-11-01 09:56:58.070417
3338  2023-11-01 09:56:58.102371
3339  2023-11-01 09:56:58.134278
3340  2023-11-01 09:56:58.166197
3341  2023-11-01 09:56:58.198111
3342  2023-11-01 09:56:58.230007
3343  2023-11-01 09:56:58.261942
3344  2023-11-01 09:56:58.309809
3345  2023-11-01 09:56:58.341744
3346  2023-11-01 09:56:58.374606
3347  2023-11-01 09:56:58.405567
3348  2023-11-01 09:56:58.438434
3349  2023-11-01 09:56:58.470376
3350  2023-11-01 09:56:58.502294
3351  2023-11-01 09:56:58.535207
3352  2023-11-01 09:56:58.567126
3353  2023-11-01 09:56:58.598038
3354  2023-11-01 09:56:58.629958
3355  2023-11-01 09:56:58.661869
3356  2023-11-01 09:56:58.709715
3357  2023-11-01 09:56:58.741622
3358  2023-11-01 09:56:58.774560
3359  2023-11-01 09:56:58.807492
3360  2023-11-01 09:56:58.838404
3361  2023-11-01 09:56:58.870311
3362  2023-11-01 09:56:58.902231
3363  2023-11-01 09:56:58.934140
3364  2023-11-01 09:56:58.966035
3365  2023-11-01 09:56:58.997968
3366  2023-11-01 09:56:59.029878
3367  2023-11-01 09:56:59.061806
3368  2023-11-01 09:56:59.109671
3369  2023-11-01 09:56:59.141583
3370  2023-11-01 09:56:59.173533
3371  2023-11-01 09:56:59.206521
3372  2023-11-01 09:56:59.238395
3373  2023-11-01 09:56:59.270370
3374  2023-11-01 09:56:59.302226
3375  2023-11-01 09:56:59.334171
3376  2023-11-01 09:56:59.366098
3377  2023-11-01 09:56:59.397999
3378  2023-11-01 09:56:59.429885
3379  2023-11-01 09:56:59.461805
3380  2023-11-01 09:56:59.510668
3381  2023-11-01 09:56:59.541625
3382  2023-11-01 09:56:59.574496
3383  2023-11-01 09:56:59.606412
3384  2023-11-01 09:56:59.637368
3385  2023-11-01 09:56:59.670277
3386  2023-11-01 09:56:59.702187
3387  2023-11-01 09:56:59.734074
3388  2023-11-01 09:56:59.766026
3389  2023-11-01 09:56:59.797936
3390  2023-11-01 09:56:59.830043
3391  2023-11-01 09:56:59.861956
3392  2023-11-01 09:56:59.909828
3393  2023-11-01 09:56:59.941775
3394  2023-11-01 09:56:59.973659
3395  2023-11-01 09:57:00.005732
3396  2023-11-01 09:57:00.037637
3397  2023-11-01 09:57:00.070552
3398  2023-11-01 09:57:00.101471
3399  2023-11-01 09:57:00.133350
3400  2023-11-01 09:57:00.166394
3401  2023-11-01 09:57:00.198301
3402  2023-11-01 09:57:00.230173
3403  2023-11-01 09:57:00.262087
3404  2023-11-01 09:57:00.310015
3405  2023-11-01 09:57:00.342033
3406  2023-11-01 09:57:00.373979
3407  2023-11-01 09:57:00.405912
3408  2023-11-01 09:57:00.437822
3409  2023-11-01 09:57:00.469737
3410  2023-11-01 09:57:00.501736
3411  2023-11-01 09:57:00.534649
3412  2023-11-01 09:57:00.566528
3413  2023-11-01 09:57:00.598441
3414  2023-11-01 09:57:00.630354
3415  2023-11-01 09:57:00.662277
3416  2023-11-01 09:57:00.710193
3417  2023-11-01 09:57:00.742092
3418  2023-11-01 09:57:00.774021
3419  2023-11-01 09:57:00.806053
3420  2023-11-01 09:57:00.837992
3421  2023-11-01 09:57:00.869924
3422  2023-11-01 09:57:00.901823
3423  2023-11-01 09:57:00.933711
3424  2023-11-01 09:57:00.965627
3425  2023-11-01 09:57:00.997580
3426  2023-11-01 09:57:01.030479
3427  2023-11-01 09:57:01.077362
3428  2023-11-01 09:57:01.110312
3429  2023-11-01 09:57:01.142277
3430  2023-11-01 09:57:01.174141
3431  2023-11-01 09:57:01.206057
3432  2023-11-01 09:57:01.237971
3433  2023-11-01 09:57:01.269888
3434  2023-11-01 09:57:01.301832
3435  2023-11-01 09:57:01.334714
3436  2023-11-01 09:57:01.365661
3437  2023-11-01 09:57:01.397578
3438  2023-11-01 09:57:01.430493
3439  2023-11-01 09:57:01.478362
3440  2023-11-01 09:57:01.510276
3441  2023-11-01 09:57:01.542158
3442  2023-11-01 09:57:01.574131
3443  2023-11-01 09:57:01.606022
3444  2023-11-01 09:57:01.637934
3445  2023-11-01 09:57:01.669867
3446  2023-11-01 09:57:01.702729
3447  2023-11-01 09:57:01.734644
3448  2023-11-01 09:57:01.765589
3449  2023-11-01 09:57:01.798506
3450  2023-11-01 09:57:01.830424
3451  2023-11-01 09:57:01.878286
3452  2023-11-01 09:57:01.910201
3453  2023-11-01 09:57:01.942124
3454  2023-11-01 09:57:01.974028
3455  2023-11-01 09:57:02.005917
3456  2023-11-01 09:57:02.037879
3457  2023-11-01 09:57:02.069775
3458  2023-11-01 09:57:02.101697
3459  2023-11-01 09:57:02.134574
3460  2023-11-01 09:57:02.166491
3461  2023-11-01 09:57:02.198939
3462  2023-11-01 09:57:02.229856
3463  2023-11-01 09:57:02.277728
3464  2023-11-01 09:57:02.310639
3465  2023-11-01 09:57:02.341558
3466  2023-11-01 09:57:02.374552
3467  2023-11-01 09:57:02.406492
3468  2023-11-01 09:57:02.438339
3469  2023-11-01 09:57:02.470287
3470  2023-11-01 09:57:02.502206
3471  2023-11-01 09:57:02.534108
3472  2023-11-01 09:57:02.566024
3473  2023-11-01 09:57:02.597929
3474  2023-11-01 09:57:02.629828
3475  2023-11-01 09:57:02.677805
3476  2023-11-01 09:57:02.709673
3477  2023-11-01 09:57:02.741650
3478  2023-11-01 09:57:02.774698
3479  2023-11-01 09:57:02.806443
3480  2023-11-01 09:57:02.837393
3481  2023-11-01 09:57:02.870347
3482  2023-11-01 09:57:02.902222
3483  2023-11-01 09:57:02.934223
3484  2023-11-01 09:57:02.966140
3485  2023-11-01 09:57:02.998111
3486  2023-11-01 09:57:03.029968
3487  2023-11-01 09:57:03.077874
3488  2023-11-01 09:57:03.109793
3489  2023-11-01 09:57:03.141671
3490  2023-11-01 09:57:03.173584
3491  2023-11-01 09:57:03.206498
3492  2023-11-01 09:57:03.238445
3493  2023-11-01 09:57:03.270328
3494  2023-11-01 09:57:03.302241
3495  2023-11-01 09:57:03.334156
3496  2023-11-01 09:57:03.366100
3497  2023-11-01 09:57:03.398015
3498  2023-11-01 09:57:03.429934
3499  2023-11-01 09:57:03.477806
3500  2023-11-01 09:57:03.509719
3501  2023-11-01 09:57:03.541631
3502  2023-11-01 09:57:03.574513
3503  2023-11-01 09:57:03.606428
3504  2023-11-01 09:57:03.638341
3505  2023-11-01 09:57:03.670293
3506  2023-11-01 09:57:03.702215
3507  2023-11-01 09:57:03.734128
3508  2023-11-01 09:57:03.766007
3509  2023-11-01 09:57:03.797914
3510  2023-11-01 09:57:03.830828
3511  2023-11-01 09:57:03.877701
3512  2023-11-01 09:57:03.909658
3513  2023-11-01 09:57:03.941583
3514  2023-11-01 09:57:03.974443
3515  2023-11-01 09:57:04.006363
3516  2023-11-01 09:57:04.038274
3517  2023-11-01 09:57:04.070186
3518  2023-11-01 09:57:04.102101
3519  2023-11-01 09:57:04.134133
3520  2023-11-01 09:57:04.166016
3521  2023-11-01 09:57:04.197936
3522  2023-11-01 09:57:04.229887
3523  2023-11-01 09:57:04.277717
3524  2023-11-01 09:57:04.309635
3525  2023-11-01 09:57:04.341546
3526  2023-11-01 09:57:04.373488
3527  2023-11-01 09:57:04.406373
3528  2023-11-01 09:57:04.438322
3529  2023-11-01 09:57:04.470215
3530  2023-11-01 09:57:04.502147
3531  2023-11-01 09:57:04.534120
3532  2023-11-01 09:57:04.566034
3533  2023-11-01 09:57:04.597991
3534  2023-11-01 09:57:04.645862
3535  2023-11-01 09:57:04.677768
3536  2023-11-01 09:57:04.709717
3537  2023-11-01 09:57:04.741630
3538  2023-11-01 09:57:04.774512
3539  2023-11-01 09:57:04.806458
3540  2023-11-01 09:57:04.837420
3541  2023-11-01 09:57:04.870287
3542  2023-11-01 09:57:04.902202
3543  2023-11-01 09:57:04.934164
3544  2023-11-01 09:57:04.966078
3545  2023-11-01 09:57:04.998341
3546  2023-11-01 09:57:05.046213
3547  2023-11-01 09:57:05.078126
3548  2023-11-01 09:57:05.110076
3549  2023-11-01 09:57:05.141957
3550  2023-11-01 09:57:05.173916
3551  2023-11-01 09:57:05.206783
3552  2023-11-01 09:57:05.238746
3553  2023-11-01 09:57:05.269616
3554  2023-11-01 09:57:05.301531
3555  2023-11-01 09:57:05.349453
3556  2023-11-01 09:57:05.366356
3557  2023-11-01 09:57:05.398272
3558  2023-11-01 09:57:05.446142
3559  2023-11-01 09:57:05.478057
3560  2023-11-01 09:57:05.509972
3561  2023-11-01 09:57:05.541886
