
1  2023-10-20 10:01:40.822890
2  2023-10-20 10:01:40.854768
3  2023-10-20 10:01:40.886683
4  2023-10-20 10:01:40.918759
5  2023-10-20 10:01:40.950769
6  2023-10-20 10:01:40.999745
7  2023-10-20 10:01:41.030622
8  2023-10-20 10:01:41.062534
9  2023-10-20 10:01:41.094448
10  2023-10-20 10:01:41.126397
11  2023-10-20 10:01:41.158277
12  2023-10-20 10:01:41.191189
13  2023-10-20 10:01:41.223103
14  2023-10-20 10:01:41.255105
15  2023-10-20 10:01:41.286706
16  2023-10-20 10:01:41.318668
17  2023-10-20 10:01:41.350535
18  2023-10-20 10:01:41.398407
19  2023-10-20 10:01:41.430321
20  2023-10-20 10:01:41.462265
21  2023-10-20 10:01:41.495151
22  2023-10-20 10:01:41.527063
23  2023-10-20 10:01:41.559001
24  2023-10-20 10:01:41.590891
25  2023-10-20 10:01:41.622805
26  2023-10-20 10:01:41.654720
27  2023-10-20 10:01:41.686634
28  2023-10-20 10:01:41.718597
29  2023-10-20 10:01:41.750463
30  2023-10-20 10:01:41.798374
31  2023-10-20 10:01:41.830249
32  2023-10-20 10:01:41.863160
33  2023-10-20 10:01:41.895077
34  2023-10-20 10:01:41.926991
35  2023-10-20 10:01:41.959906
36  2023-10-20 10:01:41.990822
37  2023-10-20 10:01:42.022734
38  2023-10-20 10:01:42.054648
39  2023-10-20 10:01:42.087562
40  2023-10-20 10:01:42.118477
41  2023-10-20 10:01:42.151392
42  2023-10-20 10:01:42.199275
43  2023-10-20 10:01:42.231189
44  2023-10-20 10:01:42.263091
45  2023-10-20 10:01:42.295004
46  2023-10-20 10:01:42.326920
47  2023-10-20 10:01:42.359830
48  2023-10-20 10:01:42.390751
49  2023-10-20 10:01:42.423659
50  2023-10-20 10:01:42.454577
51  2023-10-20 10:01:42.487489
52  2023-10-20 10:01:42.518406
53  2023-10-20 10:01:42.551357
54  2023-10-20 10:01:42.599235
55  2023-10-20 10:01:42.630200
56  2023-10-20 10:01:42.662021
57  2023-10-20 10:01:42.694931
58  2023-10-20 10:01:42.726877
59  2023-10-20 10:01:42.758817
60  2023-10-20 10:01:42.790706
61  2023-10-20 10:01:42.822656
62  2023-10-20 10:01:42.854535
63  2023-10-20 10:01:42.886530
64  2023-10-20 10:01:42.918366
65  2023-10-20 10:01:42.966288
66  2023-10-20 10:01:42.998203
67  2023-10-20 10:01:43.031175
68  2023-10-20 10:01:43.063089
69  2023-10-20 10:01:43.095003
70  2023-10-20 10:01:43.126918
71  2023-10-20 10:01:43.158879
72  2023-10-20 10:01:43.190746
73  2023-10-20 10:01:43.222661
74  2023-10-20 10:01:43.254624
75  2023-10-20 10:01:43.286549
76  2023-10-20 10:01:43.318403
77  2023-10-20 10:01:43.366446
78  2023-10-20 10:01:43.398328
79  2023-10-20 10:01:43.431242
80  2023-10-20 10:01:43.463159
81  2023-10-20 10:01:43.495071
82  2023-10-20 10:01:43.526826
83  2023-10-20 10:01:43.558794
84  2023-10-20 10:01:43.591699
85  2023-10-20 10:01:43.622616
86  2023-10-20 10:01:43.654532
87  2023-10-20 10:01:43.686510
88  2023-10-20 10:01:43.718360
89  2023-10-20 10:01:43.766374
90  2023-10-20 10:01:43.798291
91  2023-10-20 10:01:43.830206
92  2023-10-20 10:01:43.862119
93  2023-10-20 10:01:43.895029
94  2023-10-20 10:01:43.926944
95  2023-10-20 10:01:43.958858
96  2023-10-20 10:01:43.990805
97  2023-10-20 10:01:44.022729
98  2023-10-20 10:01:44.054602
99  2023-10-20 10:01:44.086551
100  2023-10-20 10:01:44.118431
101  2023-10-20 10:01:44.166333
102  2023-10-20 10:01:44.198219
103  2023-10-20 10:01:44.231128
104  2023-10-20 10:01:44.263043
105  2023-10-20 10:01:44.294965
106  2023-10-20 10:01:44.326872
107  2023-10-20 10:01:44.358822
108  2023-10-20 10:01:44.390701
109  2023-10-20 10:01:44.422616
110  2023-10-20 10:01:44.454589
111  2023-10-20 10:01:44.486480
112  2023-10-20 10:01:44.518361
113  2023-10-20 10:01:44.567229
114  2023-10-20 10:01:44.599175
115  2023-10-20 10:01:44.631057
116  2023-10-20 10:01:44.663005
117  2023-10-20 10:01:44.694890
118  2023-10-20 10:01:44.726814
119  2023-10-20 10:01:44.758715
120  2023-10-20 10:01:44.790629
121  2023-10-20 10:01:44.822596
122  2023-10-20 10:01:44.854458
123  2023-10-20 10:01:44.886413
124  2023-10-20 10:01:44.918810
125  2023-10-20 10:01:44.966770
126  2023-10-20 10:01:44.998685
127  2023-10-20 10:01:45.030563
128  2023-10-20 10:01:45.062478
129  2023-10-20 10:01:45.094439
130  2023-10-20 10:01:45.126340
131  2023-10-20 10:01:45.158623
132  2023-10-20 10:01:45.190856
133  2023-10-20 10:01:45.222908
134  2023-10-20 10:01:45.254960
135  2023-10-20 10:01:45.286875
136  2023-10-20 10:01:45.318789
137  2023-10-20 10:01:45.366662
138  2023-10-20 10:01:45.398605
139  2023-10-20 10:01:45.431489
140  2023-10-20 10:01:45.462520
141  2023-10-20 10:01:45.494434
142  2023-10-20 10:01:45.526397
143  2023-10-20 10:01:45.558261
144  2023-10-20 10:01:45.590175
145  2023-10-20 10:01:45.623038
146  2023-10-20 10:01:45.654963
147  2023-10-20 10:01:45.686866
148  2023-10-20 10:01:45.718781
149  2023-10-20 10:01:45.766651
150  2023-10-20 10:01:45.798646
151  2023-10-20 10:01:45.830596
152  2023-10-20 10:01:45.862507
153  2023-10-20 10:01:45.894421
154  2023-10-20 10:01:45.926335
155  2023-10-20 10:01:45.958218
156  2023-10-20 10:01:45.990161
157  2023-10-20 10:01:46.023070
158  2023-10-20 10:01:46.054959
159  2023-10-20 10:01:46.086873
160  2023-10-20 10:01:46.118790
161  2023-10-20 10:01:46.166694
162  2023-10-20 10:01:46.198600
163  2023-10-20 10:01:46.230521
164  2023-10-20 10:01:46.262454
165  2023-10-20 10:01:46.294346
166  2023-10-20 10:01:46.327256
167  2023-10-20 10:01:46.358432
168  2023-10-20 10:01:46.390350
169  2023-10-20 10:01:46.423026
170  2023-10-20 10:01:46.455058
171  2023-10-20 10:01:46.486973
172  2023-10-20 10:01:46.534848
173  2023-10-20 10:01:46.566816
174  2023-10-20 10:01:46.598700
175  2023-10-20 10:01:46.630629
176  2023-10-20 10:01:46.662539
177  2023-10-20 10:01:46.694520
178  2023-10-20 10:01:46.727403
179  2023-10-20 10:01:46.759319
180  2023-10-20 10:01:46.791235
181  2023-10-20 10:01:46.823148
182  2023-10-20 10:01:46.855064
183  2023-10-20 10:01:46.886977
184  2023-10-20 10:01:46.934901
185  2023-10-20 10:01:46.967760
186  2023-10-20 10:01:46.998712
187  2023-10-20 10:01:47.030592
188  2023-10-20 10:01:47.063503
189  2023-10-20 10:01:47.094420
190  2023-10-20 10:01:47.127360
191  2023-10-20 10:01:47.158249
192  2023-10-20 10:01:47.191173
193  2023-10-20 10:01:47.223075
194  2023-10-20 10:01:47.255018
195  2023-10-20 10:01:47.286904
196  2023-10-20 10:01:47.334809
197  2023-10-20 10:01:47.366690
198  2023-10-20 10:01:47.398604
199  2023-10-20 10:01:47.430548
200  2023-10-20 10:01:47.462433
201  2023-10-20 10:01:47.494216
202  2023-10-20 10:01:47.526119
203  2023-10-20 10:01:47.559031
204  2023-10-20 10:01:47.590919
205  2023-10-20 10:01:47.622883
206  2023-10-20 10:01:47.654775
207  2023-10-20 10:01:47.686769
208  2023-10-20 10:01:47.734588
209  2023-10-20 10:01:47.766504
210  2023-10-20 10:01:47.798417
211  2023-10-20 10:01:47.830333
212  2023-10-20 10:01:47.862345
213  2023-10-20 10:01:47.894260
214  2023-10-20 10:01:47.927139
215  2023-10-20 10:01:47.958105
216  2023-10-20 10:01:47.990970
217  2023-10-20 10:01:48.022881
218  2023-10-20 10:01:48.054796
219  2023-10-20 10:01:48.086761
220  2023-10-20 10:01:48.134582
221  2023-10-20 10:01:48.166537
222  2023-10-20 10:01:48.198516
223  2023-10-20 10:01:48.230404
224  2023-10-20 10:01:48.263354
225  2023-10-20 10:01:48.294271
226  2023-10-20 10:01:48.327147
227  2023-10-20 10:01:48.359116
228  2023-10-20 10:01:48.391007
229  2023-10-20 10:01:48.422930
230  2023-10-20 10:01:48.454803
231  2023-10-20 10:01:48.486751
232  2023-10-20 10:01:48.534637
233  2023-10-20 10:01:48.566505
234  2023-10-20 10:01:48.598419
235  2023-10-20 10:01:48.631331
236  2023-10-20 10:01:48.663245
237  2023-10-20 10:01:48.694170
238  2023-10-20 10:01:48.727073
239  2023-10-20 10:01:48.758988
240  2023-10-20 10:01:48.790905
241  2023-10-20 10:01:48.822817
242  2023-10-20 10:01:48.854758
243  2023-10-20 10:01:48.886647
244  2023-10-20 10:01:48.934517
245  2023-10-20 10:01:48.966464
246  2023-10-20 10:01:48.999144
247  2023-10-20 10:01:49.030063
248  2023-10-20 10:01:49.063052
249  2023-10-20 10:01:49.094935
250  2023-10-20 10:01:49.126877
251  2023-10-20 10:01:49.158801
252  2023-10-20 10:01:49.190714
253  2023-10-20 10:01:49.222593
254  2023-10-20 10:01:49.254616
255  2023-10-20 10:01:49.287173
256  2023-10-20 10:01:49.335004
257  2023-10-20 10:01:49.366972
258  2023-10-20 10:01:49.398911
259  2023-10-20 10:01:49.430835
260  2023-10-20 10:01:49.462748
261  2023-10-20 10:01:49.494684
262  2023-10-20 10:01:49.526543
263  2023-10-20 10:01:49.558473
264  2023-10-20 10:01:49.590372
265  2023-10-20 10:01:49.622286
266  2023-10-20 10:01:49.654236
267  2023-10-20 10:01:49.686150
268  2023-10-20 10:01:49.734990
269  2023-10-20 10:01:49.766938
270  2023-10-20 10:01:49.798814
271  2023-10-20 10:01:49.830782
272  2023-10-20 10:01:49.862650
273  2023-10-20 10:01:49.894557
274  2023-10-20 10:01:49.926471
275  2023-10-20 10:01:49.958441
276  2023-10-20 10:01:49.990352
277  2023-10-20 10:01:50.022300
278  2023-10-20 10:01:50.054317
279  2023-10-20 10:01:50.086189
280  2023-10-20 10:01:50.135059
281  2023-10-20 10:01:50.167054
282  2023-10-20 10:01:50.199021
283  2023-10-20 10:01:50.230881
284  2023-10-20 10:01:50.262811
285  2023-10-20 10:01:50.294806
286  2023-10-20 10:01:50.326670
287  2023-10-20 10:01:50.358631
288  2023-10-20 10:01:50.390579
289  2023-10-20 10:01:50.422516
290  2023-10-20 10:01:50.454873
291  2023-10-20 10:01:50.502846
292  2023-10-20 10:01:50.534760
293  2023-10-20 10:01:50.566651
294  2023-10-20 10:01:50.598613
295  2023-10-20 10:01:50.630538
296  2023-10-20 10:01:50.662440
297  2023-10-20 10:01:50.695297
298  2023-10-20 10:01:50.727260
299  2023-10-20 10:01:50.759125
300  2023-10-20 10:01:50.791084
301  2023-10-20 10:01:50.822987
302  2023-10-20 10:01:50.854869
303  2023-10-20 10:01:50.902781
304  2023-10-20 10:01:50.934701
305  2023-10-20 10:01:50.966569
306  2023-10-20 10:01:50.998517
307  2023-10-20 10:01:51.030453
308  2023-10-20 10:01:51.062340
309  2023-10-20 10:01:51.095251
310  2023-10-20 10:01:51.127192
311  2023-10-20 10:01:51.159102
312  2023-10-20 10:01:51.191024
313  2023-10-20 10:01:51.222882
314  2023-10-20 10:01:51.254865
315  2023-10-20 10:01:51.302668
316  2023-10-20 10:01:51.334620
317  2023-10-20 10:01:51.366532
318  2023-10-20 10:01:51.398463
319  2023-10-20 10:01:51.430373
320  2023-10-20 10:01:51.463276
321  2023-10-20 10:01:51.495154
322  2023-10-20 10:01:51.527116
323  2023-10-20 10:01:51.559028
324  2023-10-20 10:01:51.590897
325  2023-10-20 10:01:51.622841
326  2023-10-20 10:01:51.654724
327  2023-10-20 10:01:51.702730
328  2023-10-20 10:01:51.735645
329  2023-10-20 10:01:51.766557
330  2023-10-20 10:01:51.798524
331  2023-10-20 10:01:51.831385
332  2023-10-20 10:01:51.863334
333  2023-10-20 10:01:51.895248
334  2023-10-20 10:01:51.927129
335  2023-10-20 10:01:51.959068
336  2023-10-20 10:01:51.990996
337  2023-10-20 10:01:52.022872
338  2023-10-20 10:01:52.054825
339  2023-10-20 10:01:52.102670
340  2023-10-20 10:01:52.134573
341  2023-10-20 10:01:52.166487
342  2023-10-20 10:01:52.198470
343  2023-10-20 10:01:52.230377
344  2023-10-20 10:01:52.263228
345  2023-10-20 10:01:52.295144
346  2023-10-20 10:01:52.327055
347  2023-10-20 10:01:52.358997
348  2023-10-20 10:01:52.390926
349  2023-10-20 10:01:52.422852
350  2023-10-20 10:01:52.454768
351  2023-10-20 10:01:52.503586
352  2023-10-20 10:01:52.535567
353  2023-10-20 10:01:52.566454
354  2023-10-20 10:01:52.599357
355  2023-10-20 10:01:52.630245
356  2023-10-20 10:01:52.663156
357  2023-10-20 10:01:52.694106
358  2023-10-20 10:01:52.727052
359  2023-10-20 10:01:52.758900
360  2023-10-20 10:01:52.790812
361  2023-10-20 10:01:52.822729
362  2023-10-20 10:01:52.854641
363  2023-10-20 10:01:52.902516
364  2023-10-20 10:01:52.934455
365  2023-10-20 10:01:52.966403
366  2023-10-20 10:01:52.998293
367  2023-10-20 10:01:53.030230
368  2023-10-20 10:01:53.063125
369  2023-10-20 10:01:53.095045
370  2023-10-20 10:01:53.126941
371  2023-10-20 10:01:53.158852
372  2023-10-20 10:01:53.190812
373  2023-10-20 10:01:53.222692
374  2023-10-20 10:01:53.254622
375  2023-10-20 10:01:53.302474
376  2023-10-20 10:01:53.334357
377  2023-10-20 10:01:53.366273
378  2023-10-20 10:01:53.399183
379  2023-10-20 10:01:53.431097
380  2023-10-20 10:01:53.463012
381  2023-10-20 10:01:53.494962
382  2023-10-20 10:01:53.526867
383  2023-10-20 10:01:53.558813
384  2023-10-20 10:01:53.590669
385  2023-10-20 10:01:53.622615
386  2023-10-20 10:01:53.654526
387  2023-10-20 10:01:53.703368
388  2023-10-20 10:01:53.734329
389  2023-10-20 10:01:53.766233
390  2023-10-20 10:01:53.799064
391  2023-10-20 10:01:53.831002
392  2023-10-20 10:01:53.863004
393  2023-10-20 10:01:53.894873
394  2023-10-20 10:01:53.926786
395  2023-10-20 10:01:53.958743
396  2023-10-20 10:01:53.990747
397  2023-10-20 10:01:54.022611
398  2023-10-20 10:01:54.070535
399  2023-10-20 10:01:54.102439
400  2023-10-20 10:01:54.134339
401  2023-10-20 10:01:54.166281
402  2023-10-20 10:01:54.199139
403  2023-10-20 10:01:54.230087
404  2023-10-20 10:01:54.263009
405  2023-10-20 10:01:54.294891
406  2023-10-20 10:01:54.326797
407  2023-10-20 10:01:54.358712
408  2023-10-20 10:01:54.390657
409  2023-10-20 10:01:54.422542
410  2023-10-20 10:01:54.470451
411  2023-10-20 10:01:54.502378
412  2023-10-20 10:01:54.535286
413  2023-10-20 10:01:54.566155
414  2023-10-20 10:01:54.599066
415  2023-10-20 10:01:54.631014
416  2023-10-20 10:01:54.662913
417  2023-10-20 10:01:54.694844
418  2023-10-20 10:01:54.726750
419  2023-10-20 10:01:54.758672
420  2023-10-20 10:01:54.790607
421  2023-10-20 10:01:54.822518
422  2023-10-20 10:01:54.870376
423  2023-10-20 10:01:54.902298
424  2023-10-20 10:01:54.934204
425  2023-10-20 10:01:54.967114
426  2023-10-20 10:01:54.998996
427  2023-10-20 10:01:55.030958
428  2023-10-20 10:01:55.062823
429  2023-10-20 10:01:55.094764
430  2023-10-20 10:01:55.126684
431  2023-10-20 10:01:55.158598
432  2023-10-20 10:01:55.190513
433  2023-10-20 10:01:55.222530
434  2023-10-20 10:01:55.270393
435  2023-10-20 10:01:55.302263
436  2023-10-20 10:01:55.334230
437  2023-10-20 10:01:55.401055
438  2023-10-20 10:01:55.431006
439  2023-10-20 10:01:55.462948
440  2023-10-20 10:01:55.494827
441  2023-10-20 10:01:55.526755
442  2023-10-20 10:01:55.558633
443  2023-10-20 10:01:55.591596
444  2023-10-20 10:01:55.622493
445  2023-10-20 10:01:55.671330
446  2023-10-20 10:01:55.703280
447  2023-10-20 10:01:55.735159
448  2023-10-20 10:01:55.767074
449  2023-10-20 10:01:55.799026
450  2023-10-20 10:01:55.830935
451  2023-10-20 10:01:55.862852
452  2023-10-20 10:01:55.894754
453  2023-10-20 10:01:55.926669
454  2023-10-20 10:01:55.958584
455  2023-10-20 10:01:55.990519
456  2023-10-20 10:01:56.022443
457  2023-10-20 10:01:56.070260
458  2023-10-20 10:01:56.103172
459  2023-10-20 10:01:56.135118
460  2023-10-20 10:01:56.166301
461  2023-10-20 10:01:56.199346
462  2023-10-20 10:01:56.231252
463  2023-10-20 10:01:56.262169
464  2023-10-20 10:01:56.295074
465  2023-10-20 10:01:56.327006
466  2023-10-20 10:01:56.358929
467  2023-10-20 10:01:56.390840
468  2023-10-20 10:01:56.422754
469  2023-10-20 10:01:56.470578
470  2023-10-20 10:01:56.502517
471  2023-10-20 10:01:56.534452
472  2023-10-20 10:01:56.566350
473  2023-10-20 10:01:56.598280
474  2023-10-20 10:01:56.630176
475  2023-10-20 10:01:56.662103
476  2023-10-20 10:01:56.694998
477  2023-10-20 10:01:56.727001
478  2023-10-20 10:01:56.758875
479  2023-10-20 10:01:56.790789
480  2023-10-20 10:01:56.822704
481  2023-10-20 10:01:56.870713
482  2023-10-20 10:01:56.903594
483  2023-10-20 10:01:56.935509
484  2023-10-20 10:01:56.967467
485  2023-10-20 10:01:56.999337
486  2023-10-20 10:01:57.031253
487  2023-10-20 10:01:57.063168
488  2023-10-20 10:01:57.095136
489  2023-10-20 10:01:57.126997
490  2023-10-20 10:01:57.158952
491  2023-10-20 10:01:57.190827
492  2023-10-20 10:01:57.222739
493  2023-10-20 10:01:57.270600
494  2023-10-20 10:01:57.302520
495  2023-10-20 10:01:57.334442
496  2023-10-20 10:01:57.366313
497  2023-10-20 10:01:57.398262
498  2023-10-20 10:01:57.431195
499  2023-10-20 10:01:57.463102
500  2023-10-20 10:01:57.494010
501  2023-10-20 10:01:57.526915
502  2023-10-20 10:01:57.558836
503  2023-10-20 10:01:57.590759
504  2023-10-20 10:01:57.638612
505  2023-10-20 10:01:57.670496
506  2023-10-20 10:01:57.702442
507  2023-10-20 10:01:57.734364
508  2023-10-20 10:01:57.766281
509  2023-10-20 10:01:57.799154
510  2023-10-20 10:01:57.831121
511  2023-10-20 10:01:57.863019
512  2023-10-20 10:01:57.894920
513  2023-10-20 10:01:57.926837
514  2023-10-20 10:01:57.958750
515  2023-10-20 10:01:57.990688
516  2023-10-20 10:01:58.038539
517  2023-10-20 10:01:58.070425
518  2023-10-20 10:01:58.102365
519  2023-10-20 10:01:58.134304
520  2023-10-20 10:01:58.166201
521  2023-10-20 10:01:58.199122
522  2023-10-20 10:01:58.231049
523  2023-10-20 10:01:58.262952
524  2023-10-20 10:01:58.294825
525  2023-10-20 10:01:58.326774
526  2023-10-20 10:01:58.358656
527  2023-10-20 10:01:58.391572
528  2023-10-20 10:01:58.438439
529  2023-10-20 10:01:58.470356
530  2023-10-20 10:01:58.503298
531  2023-10-20 10:01:58.534183
532  2023-10-20 10:01:58.567094
533  2023-10-20 10:01:58.599074
534  2023-10-20 10:01:58.630954
535  2023-10-20 10:01:58.662840
536  2023-10-20 10:01:58.694768
537  2023-10-20 10:01:58.726692
538  2023-10-20 10:01:58.758616
539  2023-10-20 10:01:58.790528
540  2023-10-20 10:01:58.838402
541  2023-10-20 10:01:58.870318
542  2023-10-20 10:01:58.902224
543  2023-10-20 10:01:58.934144
544  2023-10-20 10:01:58.967023
545  2023-10-20 10:01:58.998970
546  2023-10-20 10:01:59.030879
547  2023-10-20 10:01:59.062815
548  2023-10-20 10:01:59.094706
549  2023-10-20 10:01:59.126639
550  2023-10-20 10:01:59.158547
551  2023-10-20 10:01:59.190425
552  2023-10-20 10:01:59.238337
553  2023-10-20 10:01:59.270209
554  2023-10-20 10:01:59.302158
555  2023-10-20 10:01:59.334065
556  2023-10-20 10:01:59.366979
557  2023-10-20 10:01:59.398865
558  2023-10-20 10:01:59.430827
559  2023-10-20 10:01:59.462727
560  2023-10-20 10:01:59.494635
561  2023-10-20 10:01:59.526564
562  2023-10-20 10:01:59.558491
563  2023-10-20 10:01:59.590405
564  2023-10-20 10:01:59.638253
565  2023-10-20 10:01:59.670174
566  2023-10-20 10:01:59.703080
567  2023-10-20 10:01:59.734990
568  2023-10-20 10:01:59.766945
569  2023-10-20 10:01:59.798818
570  2023-10-20 10:01:59.830738
571  2023-10-20 10:01:59.862647
572  2023-10-20 10:01:59.894536
573  2023-10-20 10:01:59.926478
574  2023-10-20 10:01:59.958412
575  2023-10-20 10:01:59.990313
576  2023-10-20 10:02:00.038188
577  2023-10-20 10:02:00.070170
578  2023-10-20 10:02:00.103083
579  2023-10-20 10:02:00.135046
580  2023-10-20 10:02:00.166918
581  2023-10-20 10:02:00.198840
582  2023-10-20 10:02:00.230741
583  2023-10-20 10:02:00.262684
584  2023-10-20 10:02:00.294569
585  2023-10-20 10:02:00.326484
586  2023-10-20 10:02:00.358399
587  2023-10-20 10:02:00.390354
588  2023-10-20 10:02:00.439182
589  2023-10-20 10:02:00.470098
590  2023-10-20 10:02:00.503043
591  2023-10-20 10:02:00.534937
592  2023-10-20 10:02:00.566880
593  2023-10-20 10:02:00.598779
594  2023-10-20 10:02:00.630687
595  2023-10-20 10:02:00.662602
596  2023-10-20 10:02:00.694595
597  2023-10-20 10:02:00.726487
598  2023-10-20 10:02:00.758419
599  2023-10-20 10:02:00.790290
600  2023-10-20 10:02:00.839159
601  2023-10-20 10:02:00.870109
602  2023-10-20 10:02:00.902023
603  2023-10-20 10:02:00.934961
604  2023-10-20 10:02:00.966875
605  2023-10-20 10:02:00.998757
606  2023-10-20 10:02:01.030680
607  2023-10-20 10:02:01.062590
608  2023-10-20 10:02:01.094504
609  2023-10-20 10:02:01.126425
610  2023-10-20 10:02:01.158331
611  2023-10-20 10:02:01.190251
612  2023-10-20 10:02:01.238234
613  2023-10-20 10:02:01.270114
614  2023-10-20 10:02:01.303061
615  2023-10-20 10:02:01.333974
616  2023-10-20 10:02:01.366887
617  2023-10-20 10:02:01.398812
618  2023-10-20 10:02:01.430684
619  2023-10-20 10:02:01.462648
620  2023-10-20 10:02:01.494548
621  2023-10-20 10:02:01.526479
622  2023-10-20 10:02:01.558400
623  2023-10-20 10:02:01.606782
624  2023-10-20 10:02:01.638646
625  2023-10-20 10:02:01.670559
626  2023-10-20 10:02:01.702474
627  2023-10-20 10:02:01.735053
628  2023-10-20 10:02:01.767074
629  2023-10-20 10:02:01.799033
630  2023-10-20 10:02:01.830934
631  2023-10-20 10:02:01.862897
632  2023-10-20 10:02:01.894762
633  2023-10-20 10:02:01.926675
634  2023-10-20 10:02:01.958616
635  2023-10-20 10:02:02.006563
636  2023-10-20 10:02:02.038443
637  2023-10-20 10:02:02.070366
638  2023-10-20 10:02:02.102287
639  2023-10-20 10:02:02.135156
640  2023-10-20 10:02:02.167070
641  2023-10-20 10:02:02.198985
642  2023-10-20 10:02:02.230949
643  2023-10-20 10:02:02.262821
644  2023-10-20 10:02:02.294760
645  2023-10-20 10:02:02.326810
646  2023-10-20 10:02:02.358648
647  2023-10-20 10:02:02.406520
648  2023-10-20 10:02:02.438556
649  2023-10-20 10:02:02.470482
650  2023-10-20 10:02:02.502363
651  2023-10-20 10:02:02.534311
652  2023-10-20 10:02:02.566218
653  2023-10-20 10:02:02.599099
654  2023-10-20 10:02:02.631060
655  2023-10-20 10:02:02.662951
656  2023-10-20 10:02:02.694840
657  2023-10-20 10:02:02.726791
658  2023-10-20 10:02:02.758706
659  2023-10-20 10:02:02.806587
660  2023-10-20 10:02:02.838456
661  2023-10-20 10:02:02.871402
662  2023-10-20 10:02:02.902284
663  2023-10-20 10:02:02.935198
664  2023-10-20 10:02:02.967146
665  2023-10-20 10:02:02.999027
666  2023-10-20 10:02:03.030001
667  2023-10-20 10:02:03.062880
668  2023-10-20 10:02:03.094801
669  2023-10-20 10:02:03.126737
670  2023-10-20 10:02:03.158660
671  2023-10-20 10:02:03.206519
672  2023-10-20 10:02:03.238433
673  2023-10-20 10:02:03.270330
674  2023-10-20 10:02:03.302246
675  2023-10-20 10:02:03.334160
676  2023-10-20 10:02:03.367040
677  2023-10-20 10:02:03.398979
678  2023-10-20 10:02:03.430944
679  2023-10-20 10:02:03.462822
680  2023-10-20 10:02:03.494696
681  2023-10-20 10:02:03.526663
682  2023-10-20 10:02:03.558578
683  2023-10-20 10:02:03.606430
684  2023-10-20 10:02:03.638383
685  2023-10-20 10:02:03.670227
686  2023-10-20 10:02:03.702173
687  2023-10-20 10:02:03.734054
688  2023-10-20 10:02:03.766992
689  2023-10-20 10:02:03.798915
690  2023-10-20 10:02:03.830827
691  2023-10-20 10:02:03.862710
692  2023-10-20 10:02:03.895207
693  2023-10-20 10:02:03.927139
694  2023-10-20 10:02:03.959038
695  2023-10-20 10:02:04.006881
696  2023-10-20 10:02:04.038911
697  2023-10-20 10:02:04.070813
698  2023-10-20 10:02:04.102756
699  2023-10-20 10:02:04.134665
700  2023-10-20 10:02:04.166577
701  2023-10-20 10:02:04.198474
702  2023-10-20 10:02:04.230419
703  2023-10-20 10:02:04.262271
704  2023-10-20 10:02:04.294219
705  2023-10-20 10:02:04.326133
706  2023-10-20 10:02:04.358052
707  2023-10-20 10:02:04.406932
708  2023-10-20 10:02:04.438848
709  2023-10-20 10:02:04.470744
710  2023-10-20 10:02:04.502665
711  2023-10-20 10:02:04.534586
712  2023-10-20 10:02:04.566510
713  2023-10-20 10:02:04.598456
714  2023-10-20 10:02:04.630323
715  2023-10-20 10:02:04.662233
716  2023-10-20 10:02:04.695138
717  2023-10-20 10:02:04.726061
718  2023-10-20 10:02:04.758978
719  2023-10-20 10:02:04.806840
720  2023-10-20 10:02:04.838799
721  2023-10-20 10:02:04.870679
722  2023-10-20 10:02:04.902597
723  2023-10-20 10:02:04.934521
724  2023-10-20 10:02:04.966436
725  2023-10-20 10:02:04.998350
726  2023-10-20 10:02:05.030321
727  2023-10-20 10:02:05.062336
728  2023-10-20 10:02:05.094229
729  2023-10-20 10:02:05.126144
730  2023-10-20 10:02:05.174016
731  2023-10-20 10:02:05.206955
732  2023-10-20 10:02:05.238859
733  2023-10-20 10:02:05.270793
734  2023-10-20 10:02:05.302669
735  2023-10-20 10:02:05.334552
736  2023-10-20 10:02:05.366494
737  2023-10-20 10:02:05.398454
738  2023-10-20 10:02:05.430322
739  2023-10-20 10:02:05.462210
740  2023-10-20 10:02:05.495167
741  2023-10-20 10:02:05.527062
742  2023-10-20 10:02:05.574908
743  2023-10-20 10:02:05.606883
744  2023-10-20 10:02:05.638787
745  2023-10-20 10:02:05.670684
746  2023-10-20 10:02:05.702619
747  2023-10-20 10:02:05.734531
748  2023-10-20 10:02:05.766469
749  2023-10-20 10:02:05.798347
750  2023-10-20 10:02:05.830265
751  2023-10-20 10:02:05.863168
752  2023-10-20 10:02:05.895082
753  2023-10-20 10:02:05.927015
754  2023-10-20 10:02:05.974836
755  2023-10-20 10:02:06.006803
756  2023-10-20 10:02:06.038681
757  2023-10-20 10:02:06.070630
758  2023-10-20 10:02:06.102531
759  2023-10-20 10:02:06.134451
760  2023-10-20 10:02:06.166380
761  2023-10-20 10:02:06.198299
762  2023-10-20 10:02:06.230185
763  2023-10-20 10:02:06.263098
764  2023-10-20 10:02:06.294978
765  2023-10-20 10:02:06.326919
766  2023-10-20 10:02:06.374795
767  2023-10-20 10:02:06.406709
768  2023-10-20 10:02:06.438629
769  2023-10-20 10:02:06.470534
770  2023-10-20 10:02:06.502453
771  2023-10-20 10:02:06.534372
772  2023-10-20 10:02:06.566319
773  2023-10-20 10:02:06.598199
774  2023-10-20 10:02:06.630109
775  2023-10-20 10:02:06.662992
776  2023-10-20 10:02:06.694907
777  2023-10-20 10:02:06.726821
778  2023-10-20 10:02:06.774693
779  2023-10-20 10:02:06.806641
780  2023-10-20 10:02:06.838553
781  2023-10-20 10:02:06.870472
782  2023-10-20 10:02:06.902354
783  2023-10-20 10:02:06.934265
784  2023-10-20 10:02:06.967246
785  2023-10-20 10:02:06.999154
786  2023-10-20 10:02:07.030073
787  2023-10-20 10:02:07.062027
788  2023-10-20 10:02:07.094896
789  2023-10-20 10:02:07.126811
790  2023-10-20 10:02:07.174682
791  2023-10-20 10:02:07.206631
792  2023-10-20 10:02:07.238566
793  2023-10-20 10:02:07.270478
794  2023-10-20 10:02:07.302395
795  2023-10-20 10:02:07.334304
796  2023-10-20 10:02:07.366201
797  2023-10-20 10:02:07.398150
798  2023-10-20 10:02:07.431028
799  2023-10-20 10:02:07.462949
800  2023-10-20 10:02:07.494850
801  2023-10-20 10:02:07.526804
802  2023-10-20 10:02:07.574661
803  2023-10-20 10:02:07.606525
804  2023-10-20 10:02:07.638439
805  2023-10-20 10:02:07.670354
806  2023-10-20 10:02:07.702308
807  2023-10-20 10:02:07.734217
808  2023-10-20 10:02:07.766130
809  2023-10-20 10:02:07.799040
810  2023-10-20 10:02:07.830954
811  2023-10-20 10:02:07.862893
812  2023-10-20 10:02:07.894752
813  2023-10-20 10:02:07.926721
814  2023-10-20 10:02:07.974539
815  2023-10-20 10:02:08.006453
816  2023-10-20 10:02:08.038422
817  2023-10-20 10:02:08.070350
818  2023-10-20 10:02:08.102259
819  2023-10-20 10:02:08.134143
820  2023-10-20 10:02:08.166384
821  2023-10-20 10:02:08.198298
822  2023-10-20 10:02:08.230214
823  2023-10-20 10:02:08.263186
824  2023-10-20 10:02:08.295192
825  2023-10-20 10:02:08.326204
826  2023-10-20 10:02:08.374055
827  2023-10-20 10:02:08.407066
828  2023-10-20 10:02:08.437917
829  2023-10-20 10:02:08.470842
830  2023-10-20 10:02:08.502710
831  2023-10-20 10:02:08.534650
832  2023-10-20 10:02:08.566568
833  2023-10-20 10:02:08.598454
834  2023-10-20 10:02:08.630402
835  2023-10-20 10:02:08.662332
836  2023-10-20 10:02:08.694261
837  2023-10-20 10:02:08.726150
838  2023-10-20 10:02:08.773985
839  2023-10-20 10:02:08.805898
840  2023-10-20 10:02:08.838850
841  2023-10-20 10:02:08.870765
842  2023-10-20 10:02:08.902742
843  2023-10-20 10:02:08.934625
844  2023-10-20 10:02:08.966539
845  2023-10-20 10:02:08.998489
846  2023-10-20 10:02:09.030403
847  2023-10-20 10:02:09.062334
848  2023-10-20 10:02:09.094238
849  2023-10-20 10:02:09.142099
850  2023-10-20 10:02:09.173983
851  2023-10-20 10:02:09.205924
852  2023-10-20 10:02:09.238858
853  2023-10-20 10:02:09.270776
854  2023-10-20 10:02:09.302640
855  2023-10-20 10:02:09.334616
856  2023-10-20 10:02:09.366500
857  2023-10-20 10:02:09.398414
858  2023-10-20 10:02:09.430355
859  2023-10-20 10:02:09.462243
860  2023-10-20 10:02:09.494172
861  2023-10-20 10:02:09.542044
862  2023-10-20 10:02:09.573942
863  2023-10-20 10:02:09.606823
864  2023-10-20 10:02:09.638771
865  2023-10-20 10:02:09.670695
866  2023-10-20 10:02:09.702598
867  2023-10-20 10:02:09.735498
868  2023-10-20 10:02:09.767396
869  2023-10-20 10:02:09.799309
870  2023-10-20 10:02:09.831225
871  2023-10-20 10:02:09.863142
872  2023-10-20 10:02:09.895057
873  2023-10-20 10:02:09.942989
874  2023-10-20 10:02:09.974837
875  2023-10-20 10:02:10.006754
876  2023-10-20 10:02:10.038712
877  2023-10-20 10:02:10.070615
878  2023-10-20 10:02:10.102495
879  2023-10-20 10:02:10.134409
880  2023-10-20 10:02:10.166325
881  2023-10-20 10:02:10.198239
882  2023-10-20 10:02:10.230165
883  2023-10-20 10:02:10.263105
884  2023-10-20 10:02:10.295064
885  2023-10-20 10:02:10.342856
886  2023-10-20 10:02:10.374765
887  2023-10-20 10:02:10.406681
888  2023-10-20 10:02:10.438595
889  2023-10-20 10:02:10.470509
890  2023-10-20 10:02:10.502423
891  2023-10-20 10:02:10.559309
892  2023-10-20 10:02:10.591186
893  2023-10-20 10:02:10.599190
894  2023-10-20 10:02:10.630141
895  2023-10-20 10:02:10.662994
896  2023-10-20 10:02:10.693910
897  2023-10-20 10:02:10.742810
898  2023-10-20 10:02:10.774693
899  2023-10-20 10:02:10.806608
900  2023-10-20 10:02:10.838571
901  2023-10-20 10:02:10.870463
902  2023-10-20 10:02:10.902412
903  2023-10-20 10:02:10.934307
904  2023-10-20 10:02:10.967180
905  2023-10-20 10:02:10.998096
906  2023-10-20 10:02:11.030033
907  2023-10-20 10:02:11.062953
908  2023-10-20 10:02:11.094835
909  2023-10-20 10:02:11.142757
910  2023-10-20 10:02:11.174621
911  2023-10-20 10:02:11.206568
912  2023-10-20 10:02:11.238483
913  2023-10-20 10:02:11.270397
914  2023-10-20 10:02:11.302331
915  2023-10-20 10:02:11.334220
916  2023-10-20 10:02:11.366134
917  2023-10-20 10:02:11.398023
918  2023-10-20 10:02:11.430962
919  2023-10-20 10:02:11.462891
920  2023-10-20 10:02:11.494799
921  2023-10-20 10:02:11.542683
922  2023-10-20 10:02:11.574550
923  2023-10-20 10:02:11.606498
924  2023-10-20 10:02:11.638420
925  2023-10-20 10:02:11.671291
926  2023-10-20 10:02:11.702236
927  2023-10-20 10:02:11.734157
928  2023-10-20 10:02:11.766036
929  2023-10-20 10:02:11.798984
930  2023-10-20 10:02:11.830865
931  2023-10-20 10:02:11.862817
932  2023-10-20 10:02:11.894725
933  2023-10-20 10:02:11.942563
934  2023-10-20 10:02:11.974478
935  2023-10-20 10:02:12.006392
936  2023-10-20 10:02:12.038341
937  2023-10-20 10:02:12.070252
938  2023-10-20 10:02:12.102169
939  2023-10-20 10:02:12.135049
940  2023-10-20 10:02:12.166963
941  2023-10-20 10:02:12.198878
942  2023-10-20 10:02:12.230823
943  2023-10-20 10:02:12.262737
944  2023-10-20 10:02:12.294652
945  2023-10-20 10:02:12.342494
946  2023-10-20 10:02:12.374408
947  2023-10-20 10:02:12.406331
948  2023-10-20 10:02:12.438238
949  2023-10-20 10:02:12.471189
950  2023-10-20 10:02:12.503063
951  2023-10-20 10:02:12.534977
952  2023-10-20 10:02:12.566932
953  2023-10-20 10:02:12.598807
954  2023-10-20 10:02:12.630721
955  2023-10-20 10:02:12.662635
956  2023-10-20 10:02:12.710536
957  2023-10-20 10:02:12.742422
958  2023-10-20 10:02:12.774336
959  2023-10-20 10:02:12.806297
960  2023-10-20 10:02:12.838221
961  2023-10-20 10:02:12.870139
962  2023-10-20 10:02:12.902044
963  2023-10-20 10:02:12.934938
964  2023-10-20 10:02:12.966821
965  2023-10-20 10:02:12.998778
966  2023-10-20 10:02:13.030682
967  2023-10-20 10:02:13.062613
968  2023-10-20 10:02:13.110465
969  2023-10-20 10:02:13.142350
970  2023-10-20 10:02:13.174264
971  2023-10-20 10:02:13.206185
972  2023-10-20 10:02:13.238144
973  2023-10-20 10:02:13.271027
974  2023-10-20 10:02:13.302989
975  2023-10-20 10:02:13.334865
976  2023-10-20 10:02:13.366782
977  2023-10-20 10:02:13.398688
978  2023-10-20 10:02:13.430607
979  2023-10-20 10:02:13.462519
980  2023-10-20 10:02:13.510443
981  2023-10-20 10:02:13.542381
982  2023-10-20 10:02:13.574318
983  2023-10-20 10:02:13.606186
984  2023-10-20 10:02:13.638100
985  2023-10-20 10:02:13.670042
986  2023-10-20 10:02:13.702928
987  2023-10-20 10:02:13.734841
988  2023-10-20 10:02:13.766756
989  2023-10-20 10:02:13.798670
990  2023-10-20 10:02:13.830619
991  2023-10-20 10:02:13.862551
992  2023-10-20 10:02:13.910521
993  2023-10-20 10:02:13.942410
994  2023-10-20 10:02:13.974324
995  2023-10-20 10:02:14.007276
996  2023-10-20 10:02:14.038156
997  2023-10-20 10:02:14.070106
998  2023-10-20 10:02:14.103010
999  2023-10-20 10:02:14.134894
1000  2023-10-20 10:02:14.166810
1001  2023-10-20 10:02:14.198813
1002  2023-10-20 10:02:14.230639
1003  2023-10-20 10:02:14.262552
1004  2023-10-20 10:02:14.310424
1005  2023-10-20 10:02:14.342338
1006  2023-10-20 10:02:14.374253
1007  2023-10-20 10:02:14.406217
1008  2023-10-20 10:02:14.438137
1009  2023-10-20 10:02:14.471018
1010  2023-10-20 10:02:14.502955
1011  2023-10-20 10:02:14.534844
1012  2023-10-20 10:02:14.566781
1013  2023-10-20 10:02:14.598651
1014  2023-10-20 10:02:14.630598
1015  2023-10-20 10:02:14.662527
1016  2023-10-20 10:02:14.710352
1017  2023-10-20 10:02:14.742315
1018  2023-10-20 10:02:14.774180
1019  2023-10-20 10:02:14.806095
1020  2023-10-20 10:02:14.839007
1021  2023-10-20 10:02:14.869925
1022  2023-10-20 10:02:14.902896
1023  2023-10-20 10:02:14.934750
1024  2023-10-20 10:02:14.966665
1025  2023-10-20 10:02:14.998624
1026  2023-10-20 10:02:15.030552
1027  2023-10-20 10:02:15.062408
1028  2023-10-20 10:02:15.110334
1029  2023-10-20 10:02:15.142194
1030  2023-10-20 10:02:15.174109
1031  2023-10-20 10:02:15.206056
1032  2023-10-20 10:02:15.237969
1033  2023-10-20 10:02:15.270888
1034  2023-10-20 10:02:15.302709
1035  2023-10-20 10:02:15.334667
1036  2023-10-20 10:02:15.366614
1037  2023-10-20 10:02:15.398546
1038  2023-10-20 10:02:15.430410
1039  2023-10-20 10:02:15.462429
1040  2023-10-20 10:02:15.510277
1041  2023-10-20 10:02:15.542183
1042  2023-10-20 10:02:15.574131
1043  2023-10-20 10:02:15.606012
1044  2023-10-20 10:02:15.637960
1045  2023-10-20 10:02:15.669954
1046  2023-10-20 10:02:15.702824
1047  2023-10-20 10:02:15.734861
1048  2023-10-20 10:02:15.766717
1049  2023-10-20 10:02:15.798666
1050  2023-10-20 10:02:15.830581
1051  2023-10-20 10:02:15.862494
1052  2023-10-20 10:02:15.910367
1053  2023-10-20 10:02:15.943280
1054  2023-10-20 10:02:15.974167
1055  2023-10-20 10:02:16.007074
1056  2023-10-20 10:02:16.038991
1057  2023-10-20 10:02:16.070903
1058  2023-10-20 10:02:16.102818
1059  2023-10-20 10:02:16.134733
1060  2023-10-20 10:02:16.166684
1061  2023-10-20 10:02:16.198595
1062  2023-10-20 10:02:16.231474
1063  2023-10-20 10:02:16.278354
1064  2023-10-20 10:02:16.310261
1065  2023-10-20 10:02:16.342176
1066  2023-10-20 10:02:16.374091
1067  2023-10-20 10:02:16.406007
1068  2023-10-20 10:02:16.438916
1069  2023-10-20 10:02:16.470831
1070  2023-10-20 10:02:16.502777
1071  2023-10-20 10:02:16.534660
1072  2023-10-20 10:02:16.566576
1073  2023-10-20 10:02:16.598538
1074  2023-10-20 10:02:16.630437
1075  2023-10-20 10:02:16.678275
1076  2023-10-20 10:02:16.710189
1077  2023-10-20 10:02:16.743137
1078  2023-10-20 10:02:16.774018
1079  2023-10-20 10:02:16.806966
1080  2023-10-20 10:02:16.838844
1081  2023-10-20 10:02:16.869789
1082  2023-10-20 10:02:16.902701
1083  2023-10-20 10:02:16.934617
1084  2023-10-20 10:02:16.966502
1085  2023-10-20 10:02:16.998418
1086  2023-10-20 10:02:17.030332
1087  2023-10-20 10:02:17.078204
1088  2023-10-20 10:02:17.110155
1089  2023-10-20 10:02:17.142031
1090  2023-10-20 10:02:17.174943
1091  2023-10-20 10:02:17.206028
1092  2023-10-20 10:02:17.237946
1093  2023-10-20 10:02:17.270824
1094  2023-10-20 10:02:17.302772
1095  2023-10-20 10:02:17.334690
1096  2023-10-20 10:02:17.366622
1097  2023-10-20 10:02:17.398482
1098  2023-10-20 10:02:17.430396
1099  2023-10-20 10:02:17.478319
1100  2023-10-20 10:02:17.510243
1101  2023-10-20 10:02:17.542188
1102  2023-10-20 10:02:17.574139
1103  2023-10-20 10:02:17.606987
1104  2023-10-20 10:02:17.638898
1105  2023-10-20 10:02:17.670847
1106  2023-10-20 10:02:17.702758
1107  2023-10-20 10:02:17.734713
1108  2023-10-20 10:02:17.766591
1109  2023-10-20 10:02:17.798471
1110  2023-10-20 10:02:17.830417
1111  2023-10-20 10:02:17.878257
1112  2023-10-20 10:02:17.910172
1113  2023-10-20 10:02:17.942086
1114  2023-10-20 10:02:17.974000
1115  2023-10-20 10:02:18.006956
1116  2023-10-20 10:02:18.038879
1117  2023-10-20 10:02:18.070750
1118  2023-10-20 10:02:18.102656
1119  2023-10-20 10:02:18.134604
1120  2023-10-20 10:02:18.166485
1121  2023-10-20 10:02:18.198402
1122  2023-10-20 10:02:18.230360
1123  2023-10-20 10:02:18.278185
1124  2023-10-20 10:02:18.310100
1125  2023-10-20 10:02:18.342046
1126  2023-10-20 10:02:18.373929
1127  2023-10-20 10:02:18.406881
1128  2023-10-20 10:02:18.438755
1129  2023-10-20 10:02:18.470703
1130  2023-10-20 10:02:18.502618
1131  2023-10-20 10:02:18.534524
1132  2023-10-20 10:02:18.566463
1133  2023-10-20 10:02:18.598365
1134  2023-10-20 10:02:18.630284
1135  2023-10-20 10:02:18.678113
1136  2023-10-20 10:02:18.710054
1137  2023-10-20 10:02:18.741988
1138  2023-10-20 10:02:18.773891
1139  2023-10-20 10:02:18.806787
1140  2023-10-20 10:02:18.838717
1141  2023-10-20 10:02:18.870647
1142  2023-10-20 10:02:18.902546
1143  2023-10-20 10:02:18.934461
1144  2023-10-20 10:02:18.966372
1145  2023-10-20 10:02:18.998294
1146  2023-10-20 10:02:19.030170
1147  2023-10-20 10:02:19.078042
1148  2023-10-20 10:02:19.109956
1149  2023-10-20 10:02:19.141871
1150  2023-10-20 10:02:19.174782
1151  2023-10-20 10:02:19.206736
1152  2023-10-20 10:02:19.238647
1153  2023-10-20 10:02:19.270526
1154  2023-10-20 10:02:19.302472
1155  2023-10-20 10:02:19.334404
1156  2023-10-20 10:02:19.366312
1157  2023-10-20 10:02:19.398184
1158  2023-10-20 10:02:19.430098
1159  2023-10-20 10:02:19.477970
1160  2023-10-20 10:02:19.509917
1161  2023-10-20 10:02:19.541799
1162  2023-10-20 10:02:19.574711
1163  2023-10-20 10:02:19.606676
1164  2023-10-20 10:02:19.638540
1165  2023-10-20 10:02:19.670489
1166  2023-10-20 10:02:19.702378
1167  2023-10-20 10:02:19.734285
1168  2023-10-20 10:02:19.766205
1169  2023-10-20 10:02:19.798114
1170  2023-10-20 10:02:19.830056
1171  2023-10-20 10:02:19.877900
1172  2023-10-20 10:02:19.910814
1173  2023-10-20 10:02:19.942725
1174  2023-10-20 10:02:19.974916
1175  2023-10-20 10:02:20.006830
1176  2023-10-20 10:02:20.038784
1177  2023-10-20 10:02:20.070659
1178  2023-10-20 10:02:20.102604
1179  2023-10-20 10:02:20.134548
1180  2023-10-20 10:02:20.166436
1181  2023-10-20 10:02:20.198385
1182  2023-10-20 10:02:20.246189
1183  2023-10-20 10:02:20.278103
1184  2023-10-20 10:02:20.310018
1185  2023-10-20 10:02:20.341932
1186  2023-10-20 10:02:20.374855
1187  2023-10-20 10:02:20.405793
1188  2023-10-20 10:02:20.438676
1189  2023-10-20 10:02:20.471586
1190  2023-10-20 10:02:20.503502
1191  2023-10-20 10:02:20.534419
1192  2023-10-20 10:02:20.566333
1193  2023-10-20 10:02:20.599244
1194  2023-10-20 10:02:20.647118
1195  2023-10-20 10:02:20.678031
1196  2023-10-20 10:02:20.709948
1197  2023-10-20 10:02:20.742860
1198  2023-10-20 10:02:20.774820
1199  2023-10-20 10:02:20.806714
1200  2023-10-20 10:02:20.838603
1201  2023-10-20 10:02:20.871515
1202  2023-10-20 10:02:20.902472
1203  2023-10-20 10:02:20.935343
1204  2023-10-20 10:02:20.967288
1205  2023-10-20 10:02:20.999202
1206  2023-10-20 10:02:21.046045
1207  2023-10-20 10:02:21.078960
1208  2023-10-20 10:02:21.110872
1209  2023-10-20 10:02:21.142786
1210  2023-10-20 10:02:21.174795
1211  2023-10-20 10:02:21.206691
1212  2023-10-20 10:02:21.238674
1213  2023-10-20 10:02:21.270642
1214  2023-10-20 10:02:21.302501
1215  2023-10-20 10:02:21.334423
1216  2023-10-20 10:02:21.366431
1217  2023-10-20 10:02:21.399318
1218  2023-10-20 10:02:21.447194
1219  2023-10-20 10:02:21.479110
1220  2023-10-20 10:02:21.510985
1221  2023-10-20 10:02:21.542931
1222  2023-10-20 10:02:21.574862
1223  2023-10-20 10:02:21.606730
1224  2023-10-20 10:02:21.638688
1225  2023-10-20 10:02:21.670575
1226  2023-10-20 10:02:21.702524
1227  2023-10-20 10:02:21.734419
1228  2023-10-20 10:02:21.767330
1229  2023-10-20 10:02:21.799244
1230  2023-10-20 10:02:21.847086
1231  2023-10-20 10:02:21.879031
1232  2023-10-20 10:02:21.910915
1233  2023-10-20 10:02:21.942829
1234  2023-10-20 10:02:21.974776
1235  2023-10-20 10:02:22.006691
1236  2023-10-20 10:02:22.038574
1237  2023-10-20 10:02:22.070487
1238  2023-10-20 10:02:22.102453
1239  2023-10-20 10:02:22.134346
1240  2023-10-20 10:02:22.166273
1241  2023-10-20 10:02:22.198145
1242  2023-10-20 10:02:22.247054
1243  2023-10-20 10:02:22.278975
1244  2023-10-20 10:02:22.310874
1245  2023-10-20 10:02:22.342817
1246  2023-10-20 10:02:22.374672
1247  2023-10-20 10:02:22.406620
1248  2023-10-20 10:02:22.438501
1249  2023-10-20 10:02:22.470415
1250  2023-10-20 10:02:22.502330
1251  2023-10-20 10:02:22.534277
1252  2023-10-20 10:02:22.566191
1253  2023-10-20 10:02:22.598098
1254  2023-10-20 10:02:22.645981
1255  2023-10-20 10:02:22.678902
1256  2023-10-20 10:02:22.710818
1257  2023-10-20 10:02:22.742723
1258  2023-10-20 10:02:22.774647
1259  2023-10-20 10:02:22.806683
1260  2023-10-20 10:02:22.838598
1261  2023-10-20 10:02:22.870504
1262  2023-10-20 10:02:22.902410
1263  2023-10-20 10:02:22.934352
1264  2023-10-20 10:02:22.966254
1265  2023-10-20 10:02:22.998159
1266  2023-10-20 10:02:23.046056
1267  2023-10-20 10:02:23.077941
1268  2023-10-20 10:02:23.109830
1269  2023-10-20 10:02:23.142775
1270  2023-10-20 10:02:23.174655
1271  2023-10-20 10:02:23.206596
1272  2023-10-20 10:02:23.238514
1273  2023-10-20 10:02:23.270427
1274  2023-10-20 10:02:23.302342
1275  2023-10-20 10:02:23.334263
1276  2023-10-20 10:02:23.366196
1277  2023-10-20 10:02:23.398088
1278  2023-10-20 10:02:23.446927
1279  2023-10-20 10:02:23.478842
1280  2023-10-20 10:02:23.510807
1281  2023-10-20 10:02:23.542723
1282  2023-10-20 10:02:23.574646
1283  2023-10-20 10:02:23.606498
1284  2023-10-20 10:02:23.638440
1285  2023-10-20 10:02:23.670366
1286  2023-10-20 10:02:23.702276
1287  2023-10-20 10:02:23.734211
1288  2023-10-20 10:02:23.766811
1289  2023-10-20 10:02:23.814709
1290  2023-10-20 10:02:23.846754
1291  2023-10-20 10:02:23.878643
1292  2023-10-20 10:02:23.910573
1293  2023-10-20 10:02:23.942446
1294  2023-10-20 10:02:23.974361
1295  2023-10-20 10:02:24.006301
1296  2023-10-20 10:02:24.038238
1297  2023-10-20 10:02:24.070134
1298  2023-10-20 10:02:24.102058
1299  2023-10-20 10:02:24.134957
1300  2023-10-20 10:02:24.166878
1301  2023-10-20 10:02:24.214772
1302  2023-10-20 10:02:24.246670
1303  2023-10-20 10:02:24.278545
1304  2023-10-20 10:02:24.310460
1305  2023-10-20 10:02:24.342408
1306  2023-10-20 10:02:24.374290
1307  2023-10-20 10:02:24.406239
1308  2023-10-20 10:02:24.438151
1309  2023-10-20 10:02:24.470069
1310  2023-10-20 10:02:24.502976
1311  2023-10-20 10:02:24.534891
1312  2023-10-20 10:02:24.566815
1313  2023-10-20 10:02:24.614708
1314  2023-10-20 10:02:24.646629
1315  2023-10-20 10:02:24.678590
1316  2023-10-20 10:02:24.710452
1317  2023-10-20 10:02:24.742462
1318  2023-10-20 10:02:24.774377
1319  2023-10-20 10:02:24.806267
1320  2023-10-20 10:02:24.838212
1321  2023-10-20 10:02:24.870110
1322  2023-10-20 10:02:24.902054
1323  2023-10-20 10:02:24.933942
1324  2023-10-20 10:02:24.966872
1325  2023-10-20 10:02:25.014725
1326  2023-10-20 10:02:25.046642
1327  2023-10-20 10:02:25.078563
1328  2023-10-20 10:02:25.110484
1329  2023-10-20 10:02:25.142377
1330  2023-10-20 10:02:25.174358
1331  2023-10-20 10:02:25.206279
1332  2023-10-20 10:02:25.238196
1333  2023-10-20 10:02:25.270114
1334  2023-10-20 10:02:25.303012
1335  2023-10-20 10:02:25.334932
1336  2023-10-20 10:02:25.366868
1337  2023-10-20 10:02:25.442614
1338  2023-10-20 10:02:25.517438
1339  2023-10-20 10:02:25.542380
1340  2023-10-20 10:02:25.574293
1341  2023-10-20 10:02:25.606268
1342  2023-10-20 10:02:25.639111
1343  2023-10-20 10:02:25.670028
1344  2023-10-20 10:02:25.702942
1345  2023-10-20 10:02:25.734856
1346  2023-10-20 10:02:25.766778
1347  2023-10-20 10:02:25.814616
1348  2023-10-20 10:02:25.846557
1349  2023-10-20 10:02:25.878478
1350  2023-10-20 10:02:25.910391
1351  2023-10-20 10:02:25.942275
1352  2023-10-20 10:02:25.974188
1353  2023-10-20 10:02:26.006143
1354  2023-10-20 10:02:26.038029
1355  2023-10-20 10:02:26.069933
1356  2023-10-20 10:02:26.102871
1357  2023-10-20 10:02:26.134788
1358  2023-10-20 10:02:26.166709
1359  2023-10-20 10:02:26.214572
1360  2023-10-20 10:02:26.246507
1361  2023-10-20 10:02:26.278399
1362  2023-10-20 10:02:26.310286
1363  2023-10-20 10:02:26.342238
1364  2023-10-20 10:02:26.374117
1365  2023-10-20 10:02:26.406031
1366  2023-10-20 10:02:26.437947
1367  2023-10-20 10:02:26.470857
1368  2023-10-20 10:02:26.502773
1369  2023-10-20 10:02:26.534686
1370  2023-10-20 10:02:26.566602
1371  2023-10-20 10:02:26.614499
1372  2023-10-20 10:02:26.646424
1373  2023-10-20 10:02:26.678333
1374  2023-10-20 10:02:26.710247
1375  2023-10-20 10:02:26.742129
1376  2023-10-20 10:02:26.774044
1377  2023-10-20 10:02:26.806985
1378  2023-10-20 10:02:26.838896
1379  2023-10-20 10:02:26.870787
1380  2023-10-20 10:02:26.901732
1381  2023-10-20 10:02:26.934650
1382  2023-10-20 10:02:26.966707
1383  2023-10-20 10:02:27.014115
1384  2023-10-20 10:02:27.046031
1385  2023-10-20 10:02:27.078026
1386  2023-10-20 10:02:27.110895
1387  2023-10-20 10:02:27.141813
1388  2023-10-20 10:02:27.174723
1389  2023-10-20 10:02:27.206672
1390  2023-10-20 10:02:27.238587
1391  2023-10-20 10:02:27.270496
1392  2023-10-20 10:02:27.302417
1393  2023-10-20 10:02:27.334330
1394  2023-10-20 10:02:27.382248
1395  2023-10-20 10:02:27.414122
1396  2023-10-20 10:02:27.446027
1397  2023-10-20 10:02:27.477910
1398  2023-10-20 10:02:27.510852
1399  2023-10-20 10:02:27.541773
1400  2023-10-20 10:02:27.574651
1401  2023-10-20 10:02:27.606594
1402  2023-10-20 10:02:27.638513
1403  2023-10-20 10:02:27.671420
1404  2023-10-20 10:02:27.702344
1405  2023-10-20 10:02:27.734262
1406  2023-10-20 10:02:27.782134
1407  2023-10-20 10:02:27.814009
1408  2023-10-20 10:02:27.845955
1409  2023-10-20 10:02:27.877869
1410  2023-10-20 10:02:27.910785
1411  2023-10-20 10:02:27.942665
1412  2023-10-20 10:02:27.974607
1413  2023-10-20 10:02:28.006522
1414  2023-10-20 10:02:28.038443
1415  2023-10-20 10:02:28.070359
1416  2023-10-20 10:02:28.102271
1417  2023-10-20 10:02:28.134185
1418  2023-10-20 10:02:28.182107
1419  2023-10-20 10:02:28.214022
1420  2023-10-20 10:02:28.245961
1421  2023-10-20 10:02:28.277888
1422  2023-10-20 10:02:28.310763
1423  2023-10-20 10:02:28.342677
1424  2023-10-20 10:02:28.374627
1425  2023-10-20 10:02:28.406541
1426  2023-10-20 10:02:28.438453
1427  2023-10-20 10:02:28.470371
1428  2023-10-20 10:02:28.502277
1429  2023-10-20 10:02:28.534201
1430  2023-10-20 10:02:28.582074
1431  2023-10-20 10:02:28.613981
1432  2023-10-20 10:02:28.645896
1433  2023-10-20 10:02:28.678777
1434  2023-10-20 10:02:28.710742
1435  2023-10-20 10:02:28.742639
1436  2023-10-20 10:02:28.774520
1437  2023-10-20 10:02:28.806471
1438  2023-10-20 10:02:28.838382
1439  2023-10-20 10:02:28.870302
1440  2023-10-20 10:02:28.902212
1441  2023-10-20 10:02:28.934093
1442  2023-10-20 10:02:28.982961
1443  2023-10-20 10:02:29.013879
1444  2023-10-20 10:02:29.045825
1445  2023-10-20 10:02:29.078776
1446  2023-10-20 10:02:29.110655
1447  2023-10-20 10:02:29.142534
1448  2023-10-20 10:02:29.174154
1449  2023-10-20 10:02:29.207065
1450  2023-10-20 10:02:29.237982
1451  2023-10-20 10:02:29.270895
1452  2023-10-20 10:02:29.301902
1453  2023-10-20 10:02:29.333823
1454  2023-10-20 10:02:29.382686
1455  2023-10-20 10:02:29.414607
1456  2023-10-20 10:02:29.446521
1457  2023-10-20 10:02:29.478432
1458  2023-10-20 10:02:29.510348
1459  2023-10-20 10:02:29.542263
1460  2023-10-20 10:02:29.574180
1461  2023-10-20 10:02:29.606107
1462  2023-10-20 10:02:29.638001
1463  2023-10-20 10:02:29.670887
1464  2023-10-20 10:02:29.702836
1465  2023-10-20 10:02:29.734754
1466  2023-10-20 10:02:29.782622
1467  2023-10-20 10:02:29.814501
1468  2023-10-20 10:02:29.846445
1469  2023-10-20 10:02:29.878363
1470  2023-10-20 10:02:29.910276
1471  2023-10-20 10:02:29.942160
1472  2023-10-20 10:02:29.974105
1473  2023-10-20 10:02:30.006020
1474  2023-10-20 10:02:30.038933
1475  2023-10-20 10:02:30.070842
1476  2023-10-20 10:02:30.102768
1477  2023-10-20 10:02:30.134672
1478  2023-10-20 10:02:30.182550
1479  2023-10-20 10:02:30.214429
1480  2023-10-20 10:02:30.246377
1481  2023-10-20 10:02:30.278303
1482  2023-10-20 10:02:30.310174
1483  2023-10-20 10:02:30.342130
1484  2023-10-20 10:02:30.374028
1485  2023-10-20 10:02:30.406948
1486  2023-10-20 10:02:30.437857
1487  2023-10-20 10:02:30.470774
1488  2023-10-20 10:02:30.502690
1489  2023-10-20 10:02:30.534607
1490  2023-10-20 10:02:30.582475
1491  2023-10-20 10:02:30.614357
1492  2023-10-20 10:02:30.647272
1493  2023-10-20 10:02:30.678217
1494  2023-10-20 10:02:30.711101
1495  2023-10-20 10:02:30.743013
1496  2023-10-20 10:02:30.774928
1497  2023-10-20 10:02:30.806843
1498  2023-10-20 10:02:30.838758
1499  2023-10-20 10:02:30.870674
1500  2023-10-20 10:02:30.902588
1501  2023-10-20 10:02:30.934526
1502  2023-10-20 10:02:30.982398
1503  2023-10-20 10:02:31.014286
1504  2023-10-20 10:02:31.046234
1505  2023-10-20 10:02:31.078148
1506  2023-10-20 10:02:31.110062
1507  2023-10-20 10:02:31.141943
1508  2023-10-20 10:02:31.173895
1509  2023-10-20 10:02:31.206797
1510  2023-10-20 10:02:31.238685
1511  2023-10-20 10:02:31.270634
1512  2023-10-20 10:02:31.302548
1513  2023-10-20 10:02:31.350414
1514  2023-10-20 10:02:31.382327
1515  2023-10-20 10:02:31.414248
1516  2023-10-20 10:02:31.446130
1517  2023-10-20 10:02:31.478077
1518  2023-10-20 10:02:31.509989
1519  2023-10-20 10:02:31.541903
1520  2023-10-20 10:02:31.574811
1521  2023-10-20 10:02:31.606736
1522  2023-10-20 10:02:31.638699
1523  2023-10-20 10:02:31.670649
1524  2023-10-20 10:02:31.702646
1525  2023-10-20 10:02:31.750515
1526  2023-10-20 10:02:31.782443
1527  2023-10-20 10:02:31.814340
1528  2023-10-20 10:02:31.846260
1529  2023-10-20 10:02:31.878168
1530  2023-10-20 10:02:31.910087
1531  2023-10-20 10:02:31.942003
1532  2023-10-20 10:02:31.973885
1533  2023-10-20 10:02:32.006830
1534  2023-10-20 10:02:32.038712
1535  2023-10-20 10:02:32.070636
1536  2023-10-20 10:02:32.102540
1537  2023-10-20 10:02:32.150449
1538  2023-10-20 10:02:32.182378
1539  2023-10-20 10:02:32.214241
1540  2023-10-20 10:02:32.246205
1541  2023-10-20 10:02:32.278096
1542  2023-10-20 10:02:32.310009
1543  2023-10-20 10:02:32.341946
1544  2023-10-20 10:02:32.373841
1545  2023-10-20 10:02:32.406725
1546  2023-10-20 10:02:32.438653
1547  2023-10-20 10:02:32.470589
1548  2023-10-20 10:02:32.502519
1549  2023-10-20 10:02:32.550342
1550  2023-10-20 10:02:32.582286
1551  2023-10-20 10:02:32.615200
1552  2023-10-20 10:02:32.646139
1553  2023-10-20 10:02:32.678031
1554  2023-10-20 10:02:32.709937
1555  2023-10-20 10:02:32.742824
1556  2023-10-20 10:02:32.774783
1557  2023-10-20 10:02:32.807651
1558  2023-10-20 10:02:32.838621
1559  2023-10-20 10:02:32.870522
1560  2023-10-20 10:02:32.903394
1561  2023-10-20 10:02:32.950296
1562  2023-10-20 10:02:32.982210
1563  2023-10-20 10:02:33.014097
1564  2023-10-20 10:02:33.046045
1565  2023-10-20 10:02:33.077960
1566  2023-10-20 10:02:33.110840
1567  2023-10-20 10:02:33.142780
1568  2023-10-20 10:02:33.174722
1569  2023-10-20 10:02:33.206583
1570  2023-10-20 10:02:33.238554
1571  2023-10-20 10:02:33.270411
1572  2023-10-20 10:02:33.303370
1573  2023-10-20 10:02:33.350230
1574  2023-10-20 10:02:33.383150
1575  2023-10-20 10:02:33.415024
1576  2023-10-20 10:02:33.446969
1577  2023-10-20 10:02:33.477885
1578  2023-10-20 10:02:33.509816
1579  2023-10-20 10:02:33.542682
1580  2023-10-20 10:02:33.574632
1581  2023-10-20 10:02:33.607565
1582  2023-10-20 10:02:33.638460
1583  2023-10-20 10:02:33.670339
1584  2023-10-20 10:02:33.702279
1585  2023-10-20 10:02:33.750170
1586  2023-10-20 10:02:33.782067
1587  2023-10-20 10:02:33.814985
1588  2023-10-20 10:02:33.845902
1589  2023-10-20 10:02:33.877809
1590  2023-10-20 10:02:33.910737
1591  2023-10-20 10:02:33.942645
1592  2023-10-20 10:02:33.974557
1593  2023-10-20 10:02:34.007479
1594  2023-10-20 10:02:34.038392
1595  2023-10-20 10:02:34.070304
1596  2023-10-20 10:02:34.103240
1597  2023-10-20 10:02:34.150090
1598  2023-10-20 10:02:34.182967
1599  2023-10-20 10:02:34.214881
1600  2023-10-20 10:02:34.245829
1601  2023-10-20 10:02:34.278743
1602  2023-10-20 10:02:34.310650
1603  2023-10-20 10:02:34.342570
1604  2023-10-20 10:02:34.374487
1605  2023-10-20 10:02:34.406420
1606  2023-10-20 10:02:34.438308
1607  2023-10-20 10:02:34.470228
1608  2023-10-20 10:02:34.503107
1609  2023-10-20 10:02:34.550012
1610  2023-10-20 10:02:34.581930
1611  2023-10-20 10:02:34.614853
1612  2023-10-20 10:02:34.645726
1613  2023-10-20 10:02:34.678673
1614  2023-10-20 10:02:34.710585
1615  2023-10-20 10:02:34.742467
1616  2023-10-20 10:02:34.774380
1617  2023-10-20 10:02:34.807325
1618  2023-10-20 10:02:34.838248
1619  2023-10-20 10:02:34.870288
1620  2023-10-20 10:02:34.918140
1621  2023-10-20 10:02:34.951060
1622  2023-10-20 10:02:34.981965
1623  2023-10-20 10:02:35.014876
1624  2023-10-20 10:02:35.046822
1625  2023-10-20 10:02:35.077734
1626  2023-10-20 10:02:35.110646
1627  2023-10-20 10:02:35.142567
1628  2023-10-20 10:02:35.174479
1629  2023-10-20 10:02:35.206425
1630  2023-10-20 10:02:35.238366
1631  2023-10-20 10:02:35.270289
1632  2023-10-20 10:02:35.318175
1633  2023-10-20 10:02:35.350085
1634  2023-10-20 10:02:35.382026
1635  2023-10-20 10:02:35.413941
1636  2023-10-20 10:02:35.445895
1637  2023-10-20 10:02:35.477769
1638  2023-10-20 10:02:35.510682
1639  2023-10-20 10:02:35.542596
1640  2023-10-20 10:02:35.574510
1641  2023-10-20 10:02:35.606514
1642  2023-10-20 10:02:35.638511
1643  2023-10-20 10:02:35.670422
1644  2023-10-20 10:02:35.718357
1645  2023-10-20 10:02:35.750266
1646  2023-10-20 10:02:35.782187
1647  2023-10-20 10:02:35.815103
1648  2023-10-20 10:02:35.846982
1649  2023-10-20 10:02:35.878897
1650  2023-10-20 10:02:35.910813
1651  2023-10-20 10:02:35.942726
1652  2023-10-20 10:02:35.974642
1653  2023-10-20 10:02:36.006555
1654  2023-10-20 10:02:36.038505
1655  2023-10-20 10:02:36.070426
1656  2023-10-20 10:02:36.118288
1657  2023-10-20 10:02:36.150182
1658  2023-10-20 10:02:36.182136
1659  2023-10-20 10:02:36.214030
1660  2023-10-20 10:02:36.245968
1661  2023-10-20 10:02:36.278858
1662  2023-10-20 10:02:36.309775
1663  2023-10-20 10:02:36.341742
1664  2023-10-20 10:02:36.374681
1665  2023-10-20 10:02:36.406566
1666  2023-10-20 10:02:36.438514
1667  2023-10-20 10:02:36.470396
1668  2023-10-20 10:02:36.518302
1669  2023-10-20 10:02:36.550254
1670  2023-10-20 10:02:36.582178
1671  2023-10-20 10:02:36.614090
1672  2023-10-20 10:02:36.646006
1673  2023-10-20 10:02:36.677927
1674  2023-10-20 10:02:36.709831
1675  2023-10-20 10:02:36.742751
1676  2023-10-20 10:02:36.774625
1677  2023-10-20 10:02:36.806565
1678  2023-10-20 10:02:36.838484
1679  2023-10-20 10:02:36.870400
1680  2023-10-20 10:02:36.918268
1681  2023-10-20 10:02:36.950152
1682  2023-10-20 10:02:36.982066
1683  2023-10-20 10:02:37.015037
1684  2023-10-20 10:02:37.046905
1685  2023-10-20 10:02:37.077836
1686  2023-10-20 10:02:37.110760
1687  2023-10-20 10:02:37.142683
1688  2023-10-20 10:02:37.174581
1689  2023-10-20 10:02:37.206520
1690  2023-10-20 10:02:37.238416
1691  2023-10-20 10:02:37.270320
1692  2023-10-20 10:02:37.318167
1693  2023-10-20 10:02:37.350081
1694  2023-10-20 10:02:37.381995
1695  2023-10-20 10:02:37.413911
1696  2023-10-20 10:02:37.445824
1697  2023-10-20 10:02:37.477738
1698  2023-10-20 10:02:37.510649
1699  2023-10-20 10:02:37.542564
1700  2023-10-20 10:02:37.574478
1701  2023-10-20 10:02:37.606393
1702  2023-10-20 10:02:37.638307
1703  2023-10-20 10:02:37.671223
1704  2023-10-20 10:02:37.718139
1705  2023-10-20 10:02:37.750033
1706  2023-10-20 10:02:37.782970
1707  2023-10-20 10:02:37.813936
1708  2023-10-20 10:02:37.845841
1709  2023-10-20 10:02:37.877767
1710  2023-10-20 10:02:37.910644
1711  2023-10-20 10:02:37.942557
1712  2023-10-20 10:02:37.974538
1713  2023-10-20 10:02:38.006455
1714  2023-10-20 10:02:38.038360
1715  2023-10-20 10:02:38.070281
1716  2023-10-20 10:02:38.118156
1717  2023-10-20 10:02:38.150082
1718  2023-10-20 10:02:38.181982
1719  2023-10-20 10:02:38.213899
1720  2023-10-20 10:02:38.245803
1721  2023-10-20 10:02:38.277717
1722  2023-10-20 10:02:38.310630
1723  2023-10-20 10:02:38.342549
1724  2023-10-20 10:02:38.374465
1725  2023-10-20 10:02:38.406387
1726  2023-10-20 10:02:38.438291
1727  2023-10-20 10:02:38.470216
1728  2023-10-20 10:02:38.518083
1729  2023-10-20 10:02:38.549993
1730  2023-10-20 10:02:38.581908
1731  2023-10-20 10:02:38.614791
1732  2023-10-20 10:02:38.646705
1733  2023-10-20 10:02:38.678620
1734  2023-10-20 10:02:38.710533
1735  2023-10-20 10:02:38.742450
1736  2023-10-20 10:02:38.774363
1737  2023-10-20 10:02:38.807346
1738  2023-10-20 10:02:38.839248
1739  2023-10-20 10:02:38.886108
1740  2023-10-20 10:02:38.918003
1741  2023-10-20 10:02:38.949937
1742  2023-10-20 10:02:38.982836
1743  2023-10-20 10:02:39.013748
1744  2023-10-20 10:02:39.046686
1745  2023-10-20 10:02:39.078578
1746  2023-10-20 10:02:39.110493
1747  2023-10-20 10:02:39.142418
1748  2023-10-20 10:02:39.174321
1749  2023-10-20 10:02:39.207235
1750  2023-10-20 10:02:39.238120
1751  2023-10-20 10:02:39.287126
1752  2023-10-20 10:02:39.318028
1753  2023-10-20 10:02:39.349943
1754  2023-10-20 10:02:39.381859
1755  2023-10-20 10:02:39.413769
1756  2023-10-20 10:02:39.445687
1757  2023-10-20 10:02:39.478600
1758  2023-10-20 10:02:39.510482
1759  2023-10-20 10:02:39.542431
1760  2023-10-20 10:02:39.574348
1761  2023-10-20 10:02:39.607225
1762  2023-10-20 10:02:39.638175
1763  2023-10-20 10:02:39.686053
1764  2023-10-20 10:02:39.717957
1765  2023-10-20 10:02:39.749865
1766  2023-10-20 10:02:39.782800
1767  2023-10-20 10:02:39.813695
1768  2023-10-20 10:02:39.846631
1769  2023-10-20 10:02:39.878528
1770  2023-10-20 10:02:39.910444
1771  2023-10-20 10:02:39.942326
1772  2023-10-20 10:02:39.974239
1773  2023-10-20 10:02:40.006155
1774  2023-10-20 10:02:40.039070
1775  2023-10-20 10:02:40.085942
1776  2023-10-20 10:02:40.118853
1777  2023-10-20 10:02:40.150767
1778  2023-10-20 10:02:40.181685
1779  2023-10-20 10:02:40.214595
1780  2023-10-20 10:02:40.246512
1781  2023-10-20 10:02:40.278426
1782  2023-10-20 10:02:40.310340
1783  2023-10-20 10:02:40.342254
1784  2023-10-20 10:02:40.374169
1785  2023-10-20 10:02:40.406084
1786  2023-10-20 10:02:40.438995
1787  2023-10-20 10:02:40.485869
1788  2023-10-20 10:02:40.517784
1789  2023-10-20 10:02:40.550697
1790  2023-10-20 10:02:40.582612
1791  2023-10-20 10:02:40.615593
1792  2023-10-20 10:02:40.646438
1793  2023-10-20 10:02:40.679378
1794  2023-10-20 10:02:40.710268
1795  2023-10-20 10:02:40.742267
1796  2023-10-20 10:02:40.774146
1797  2023-10-20 10:02:40.806012
1798  2023-10-20 10:02:40.838962
1799  2023-10-20 10:02:40.886820
1800  2023-10-20 10:02:40.917737
1801  2023-10-20 10:02:40.950675
1802  2023-10-20 10:02:40.982537
1803  2023-10-20 10:02:41.014483
1804  2023-10-20 10:02:41.046407
1805  2023-10-20 10:02:41.078322
1806  2023-10-20 10:02:41.110236
1807  2023-10-20 10:02:41.142254
1808  2023-10-20 10:02:41.174206
1809  2023-10-20 10:02:41.206123
1810  2023-10-20 10:02:41.238022
1811  2023-10-20 10:02:41.285910
1812  2023-10-20 10:02:41.317814
1813  2023-10-20 10:02:41.349729
1814  2023-10-20 10:02:41.382610
1815  2023-10-20 10:02:41.414557
1816  2023-10-20 10:02:41.446467
1817  2023-10-20 10:02:41.478384
1818  2023-10-20 10:02:41.510268
1819  2023-10-20 10:02:41.542218
1820  2023-10-20 10:02:41.574135
1821  2023-10-20 10:02:41.606037
1822  2023-10-20 10:02:41.637952
1823  2023-10-20 10:02:41.685847
1824  2023-10-20 10:02:41.718741
1825  2023-10-20 10:02:41.750625
1826  2023-10-20 10:02:41.782539
1827  2023-10-20 10:02:41.814463
1828  2023-10-20 10:02:41.846368
1829  2023-10-20 10:02:41.878314
1830  2023-10-20 10:02:41.910242
1831  2023-10-20 10:02:41.942157
1832  2023-10-20 10:02:41.974063
1833  2023-10-20 10:02:42.005981
1834  2023-10-20 10:02:42.038889
1835  2023-10-20 10:02:42.085755
1836  2023-10-20 10:02:42.118674
1837  2023-10-20 10:02:42.150598
1838  2023-10-20 10:02:42.182468
1839  2023-10-20 10:02:42.214417
1840  2023-10-20 10:02:42.246300
1841  2023-10-20 10:02:42.278214
1842  2023-10-20 10:02:42.310166
1843  2023-10-20 10:02:42.342065
1844  2023-10-20 10:02:42.373990
1845  2023-10-20 10:02:42.405872
1846  2023-10-20 10:02:42.454764
1847  2023-10-20 10:02:42.486655
1848  2023-10-20 10:02:42.518570
1849  2023-10-20 10:02:42.550483
1850  2023-10-20 10:02:42.582397
1851  2023-10-20 10:02:42.614311
1852  2023-10-20 10:02:42.646260
1853  2023-10-20 10:02:42.678157
1854  2023-10-20 10:02:42.710091
1855  2023-10-20 10:02:42.741996
1856  2023-10-20 10:02:42.773884
1857  2023-10-20 10:02:42.806831
1858  2023-10-20 10:02:42.853716
1859  2023-10-20 10:02:42.886618
1860  2023-10-20 10:02:42.918528
1861  2023-10-20 10:02:42.950446
1862  2023-10-20 10:02:42.982326
1863  2023-10-20 10:02:43.014240
1864  2023-10-20 10:02:43.046157
1865  2023-10-20 10:02:43.079070
1866  2023-10-20 10:02:43.109986
1867  2023-10-20 10:02:43.141941
1868  2023-10-20 10:02:43.173813
1869  2023-10-20 10:02:43.206378
1870  2023-10-20 10:02:43.254305
1871  2023-10-20 10:02:43.286252
1872  2023-10-20 10:02:43.318171
1873  2023-10-20 10:02:43.350096
1874  2023-10-20 10:02:43.381998
1875  2023-10-20 10:02:43.413911
1876  2023-10-20 10:02:43.445794
1877  2023-10-20 10:02:43.478742
1878  2023-10-20 10:02:43.510657
1879  2023-10-20 10:02:43.542566
1880  2023-10-20 10:02:43.574475
1881  2023-10-20 10:02:43.606394
1882  2023-10-20 10:02:43.654270
1883  2023-10-20 10:02:43.686179
1884  2023-10-20 10:02:43.718098
1885  2023-10-20 10:02:43.750005
1886  2023-10-20 10:02:43.781922
1887  2023-10-20 10:02:43.813807
1888  2023-10-20 10:02:43.846799
1889  2023-10-20 10:02:43.878686
1890  2023-10-20 10:02:43.910582
1891  2023-10-20 10:02:43.942462
1892  2023-10-20 10:02:43.974413
1893  2023-10-20 10:02:44.006318
1894  2023-10-20 10:02:44.054163
1895  2023-10-20 10:02:44.086108
1896  2023-10-20 10:02:44.118021
1897  2023-10-20 10:02:44.149942
1898  2023-10-20 10:02:44.181859
1899  2023-10-20 10:02:44.214733
1900  2023-10-20 10:02:44.246687
1901  2023-10-20 10:02:44.278620
1902  2023-10-20 10:02:44.310520
1903  2023-10-20 10:02:44.342391
1904  2023-10-20 10:02:44.374331
1905  2023-10-20 10:02:44.406248
1906  2023-10-20 10:02:44.454142
1907  2023-10-20 10:02:44.486040
1908  2023-10-20 10:02:44.517958
1909  2023-10-20 10:02:44.549876
1910  2023-10-20 10:02:44.581781
1911  2023-10-20 10:02:44.614718
1912  2023-10-20 10:02:44.646613
1913  2023-10-20 10:02:44.678542
1914  2023-10-20 10:02:44.710440
1915  2023-10-20 10:02:44.743358
1916  2023-10-20 10:02:44.774237
1917  2023-10-20 10:02:44.806185
1918  2023-10-20 10:02:44.855022
1919  2023-10-20 10:02:44.885937
1920  2023-10-20 10:02:44.917851
1921  2023-10-20 10:02:44.950770
1922  2023-10-20 10:02:44.982072
1923  2023-10-20 10:02:45.014464
1924  2023-10-20 10:02:45.046412
1925  2023-10-20 10:02:45.078329
1926  2023-10-20 10:02:45.110248
1927  2023-10-20 10:02:45.142123
1928  2023-10-20 10:02:45.174037
1929  2023-10-20 10:02:45.205953
1930  2023-10-20 10:02:45.253823
1931  2023-10-20 10:02:45.285771
1932  2023-10-20 10:02:45.318685
1933  2023-10-20 10:02:45.350605
1934  2023-10-20 10:02:45.382622
1935  2023-10-20 10:02:45.414519
1936  2023-10-20 10:02:45.446402
1937  2023-10-20 10:02:45.478317
1938  2023-10-20 10:02:45.510231
1939  2023-10-20 10:02:45.542145
1940  2023-10-20 10:02:45.574060
1941  2023-10-20 10:02:45.606084
1942  2023-10-20 10:02:45.653953
1943  2023-10-20 10:02:45.685858
1944  2023-10-20 10:02:45.717757
1945  2023-10-20 10:02:45.750657
1946  2023-10-20 10:02:45.782641
1947  2023-10-20 10:02:45.814556
1948  2023-10-20 10:02:45.846503
1949  2023-10-20 10:02:45.878417
1950  2023-10-20 10:02:45.910334
1951  2023-10-20 10:02:45.943248
1952  2023-10-20 10:02:45.974128
1953  2023-10-20 10:02:46.022001
1954  2023-10-20 10:02:46.053915
1955  2023-10-20 10:02:46.086874
1956  2023-10-20 10:02:46.118743
1957  2023-10-20 10:02:46.150719
1958  2023-10-20 10:02:46.182570
1959  2023-10-20 10:02:46.214513
1960  2023-10-20 10:02:46.246438
1961  2023-10-20 10:02:46.278348
1962  2023-10-20 10:02:46.310264
1963  2023-10-20 10:02:46.342143
1964  2023-10-20 10:02:46.374057
1965  2023-10-20 10:02:46.421973
1966  2023-10-20 10:02:46.454842
1967  2023-10-20 10:02:46.486757
1968  2023-10-20 10:02:46.518733
1969  2023-10-20 10:02:46.550652
1970  2023-10-20 10:02:46.582499
1971  2023-10-20 10:02:46.614450
1972  2023-10-20 10:02:46.646370
1973  2023-10-20 10:02:46.678277
1974  2023-10-20 10:02:46.710191
1975  2023-10-20 10:02:46.742130
1976  2023-10-20 10:02:46.774022
1977  2023-10-20 10:02:46.821858
1978  2023-10-20 10:02:46.853772
1979  2023-10-20 10:02:46.886726
1980  2023-10-20 10:02:46.918638
1981  2023-10-20 10:02:46.950559
1982  2023-10-20 10:02:46.982428
1983  2023-10-20 10:02:47.014374
1984  2023-10-20 10:02:47.046283
1985  2023-10-20 10:02:47.078211
1986  2023-10-20 10:02:47.110135
1987  2023-10-20 10:02:47.142000
1988  2023-10-20 10:02:47.173915
1989  2023-10-20 10:02:47.221789
1990  2023-10-20 10:02:47.253733
1991  2023-10-20 10:02:47.286664
1992  2023-10-20 10:02:47.318556
1993  2023-10-20 10:02:47.350488
1994  2023-10-20 10:02:47.382397
1995  2023-10-20 10:02:47.414272
1996  2023-10-20 10:02:47.446186
1997  2023-10-20 10:02:47.478129
1998  2023-10-20 10:02:47.511047
1999  2023-10-20 10:02:47.541967
2000  2023-10-20 10:02:47.574842
2001  2023-10-20 10:02:47.622721
2002  2023-10-20 10:02:47.654628
2003  2023-10-20 10:02:47.686543
2004  2023-10-20 10:02:47.718484
2005  2023-10-20 10:02:47.750373
2006  2023-10-20 10:02:47.782288
2007  2023-10-20 10:02:47.814206
2008  2023-10-20 10:02:47.846115
2009  2023-10-20 10:02:47.878032
2010  2023-10-20 10:02:47.909946
2011  2023-10-20 10:02:47.942897
2012  2023-10-20 10:02:47.974804
2013  2023-10-20 10:02:48.022682
2014  2023-10-20 10:02:48.054590
2015  2023-10-20 10:02:48.086050
2016  2023-10-20 10:02:48.117993
2017  2023-10-20 10:02:48.150877
2018  2023-10-20 10:02:48.182817
2019  2023-10-20 10:02:48.213739
2020  2023-10-20 10:02:48.246633
2021  2023-10-20 10:02:48.278536
2022  2023-10-20 10:02:48.310503
2023  2023-10-20 10:02:48.342201
2024  2023-10-20 10:02:48.374181
2025  2023-10-20 10:02:48.422103
2026  2023-10-20 10:02:48.454015
2027  2023-10-20 10:02:48.485910
2028  2023-10-20 10:02:48.517828
2029  2023-10-20 10:02:48.549743
2030  2023-10-20 10:02:48.582649
2031  2023-10-20 10:02:48.614562
2032  2023-10-20 10:02:48.646485
2033  2023-10-20 10:02:48.678396
2034  2023-10-20 10:02:48.710323
2035  2023-10-20 10:02:48.742229
2036  2023-10-20 10:02:48.774289
2037  2023-10-20 10:02:48.822194
2038  2023-10-20 10:02:48.854075
2039  2023-10-20 10:02:48.885990
2040  2023-10-20 10:02:48.917936
2041  2023-10-20 10:02:48.949850
2042  2023-10-20 10:02:48.982773
2043  2023-10-20 10:02:49.014645
2044  2023-10-20 10:02:49.046560
2045  2023-10-20 10:02:49.078508
2046  2023-10-20 10:02:49.111387
2047  2023-10-20 10:02:49.142341
2048  2023-10-20 10:02:49.174219
2049  2023-10-20 10:02:49.222142
2050  2023-10-20 10:02:49.254004
2051  2023-10-20 10:02:49.285946
2052  2023-10-20 10:02:49.317863
2053  2023-10-20 10:02:49.349785
2054  2023-10-20 10:02:49.381709
2055  2023-10-20 10:02:49.414623
2056  2023-10-20 10:02:49.446505
2057  2023-10-20 10:02:49.478436
2058  2023-10-20 10:02:49.510350
2059  2023-10-20 10:02:49.542257
2060  2023-10-20 10:02:49.574185
2061  2023-10-20 10:02:49.622074
2062  2023-10-20 10:02:49.653967
2063  2023-10-20 10:02:49.685898
2064  2023-10-20 10:02:49.717794
2065  2023-10-20 10:02:49.749722
2066  2023-10-20 10:02:49.782634
2067  2023-10-20 10:02:49.814503
2068  2023-10-20 10:02:49.846418
2069  2023-10-20 10:02:49.878357
2070  2023-10-20 10:02:49.910283
2071  2023-10-20 10:02:49.942207
2072  2023-10-20 10:02:49.990067
2073  2023-10-20 10:02:50.021986
2074  2023-10-20 10:02:50.053862
2075  2023-10-20 10:02:50.085828
2076  2023-10-20 10:02:50.117721
2077  2023-10-20 10:02:50.150639
2078  2023-10-20 10:02:50.182554
2079  2023-10-20 10:02:50.214432
2080  2023-10-20 10:02:50.246379
2081  2023-10-20 10:02:50.278294
2082  2023-10-20 10:02:50.310212
2083  2023-10-20 10:02:50.342146
2084  2023-10-20 10:02:50.390019
2085  2023-10-20 10:02:50.421977
2086  2023-10-20 10:02:50.453897
2087  2023-10-20 10:02:50.485763
2088  2023-10-20 10:02:50.517727
2089  2023-10-20 10:02:50.550622
2090  2023-10-20 10:02:50.582536
2091  2023-10-20 10:02:50.614419
2092  2023-10-20 10:02:50.646333
2093  2023-10-20 10:02:50.678273
2094  2023-10-20 10:02:50.710194
2095  2023-10-20 10:02:50.742130
2096  2023-10-20 10:02:50.789983
2097  2023-10-20 10:02:50.821899
2098  2023-10-20 10:02:50.853777
2099  2023-10-20 10:02:50.885692
2100  2023-10-20 10:02:50.918639
2101  2023-10-20 10:02:50.950563
2102  2023-10-20 10:02:50.982458
2103  2023-10-20 10:02:51.014348
2104  2023-10-20 10:02:51.046262
2105  2023-10-20 10:02:51.078211
2106  2023-10-20 10:02:51.110123
2107  2023-10-20 10:02:51.143003
2108  2023-10-20 10:02:51.190876
2109  2023-10-20 10:02:51.221793
2110  2023-10-20 10:02:51.253707
2111  2023-10-20 10:02:51.286659
2112  2023-10-20 10:02:51.318568
2113  2023-10-20 10:02:51.350479
2114  2023-10-20 10:02:51.382388
2115  2023-10-20 10:02:51.414279
2116  2023-10-20 10:02:51.446222
2117  2023-10-20 10:02:51.478136
2118  2023-10-20 10:02:51.510045
2119  2023-10-20 10:02:51.541973
2120  2023-10-20 10:02:51.589837
2121  2023-10-20 10:02:51.621753
2122  2023-10-20 10:02:51.653684
2123  2023-10-20 10:02:51.686547
2124  2023-10-20 10:02:51.718494
2125  2023-10-20 10:02:51.750411
2126  2023-10-20 10:02:51.782323
2127  2023-10-20 10:02:51.814206
2128  2023-10-20 10:02:51.846120
2129  2023-10-20 10:02:51.878066
2130  2023-10-20 10:02:51.910008
2131  2023-10-20 10:02:51.941895
2132  2023-10-20 10:02:51.989789
2133  2023-10-20 10:02:52.021699
2134  2023-10-20 10:02:52.054562
2135  2023-10-20 10:02:52.086501
2136  2023-10-20 10:02:52.118417
2137  2023-10-20 10:02:52.150339
2138  2023-10-20 10:02:52.182302
2139  2023-10-20 10:02:52.214271
2140  2023-10-20 10:02:52.246185
2141  2023-10-20 10:02:52.278153
2142  2023-10-20 10:02:52.310039
2143  2023-10-20 10:02:52.341930
2144  2023-10-20 10:02:52.389849
2145  2023-10-20 10:02:52.421717
2146  2023-10-20 10:02:52.453684
2147  2023-10-20 10:02:52.486542
2148  2023-10-20 10:02:52.518456
2149  2023-10-20 10:02:52.550371
2150  2023-10-20 10:02:52.582317
2151  2023-10-20 10:02:52.614234
2152  2023-10-20 10:02:52.646114
2153  2023-10-20 10:02:52.678029
2154  2023-10-20 10:02:52.710009
2155  2023-10-20 10:02:52.741900
2156  2023-10-20 10:02:52.789817
2157  2023-10-20 10:02:52.822778
2158  2023-10-20 10:02:52.853677
2159  2023-10-20 10:02:52.886555
2160  2023-10-20 10:02:52.918534
2161  2023-10-20 10:02:52.950448
2162  2023-10-20 10:02:52.982363
2163  2023-10-20 10:02:53.014277
2164  2023-10-20 10:02:53.046192
2165  2023-10-20 10:02:53.078106
2166  2023-10-20 10:02:53.110130
2167  2023-10-20 10:02:53.142079
2168  2023-10-20 10:02:53.189915
2169  2023-10-20 10:02:53.221830
2170  2023-10-20 10:02:53.253778
2171  2023-10-20 10:02:53.285659
2172  2023-10-20 10:02:53.318571
2173  2023-10-20 10:02:53.350485
2174  2023-10-20 10:02:53.382425
2175  2023-10-20 10:02:53.414347
2176  2023-10-20 10:02:53.446229
2177  2023-10-20 10:02:53.478143
2178  2023-10-20 10:02:53.510093
2179  2023-10-20 10:02:53.557930
2180  2023-10-20 10:02:53.589844
2181  2023-10-20 10:02:53.622782
2182  2023-10-20 10:02:53.654683
2183  2023-10-20 10:02:53.686585
2184  2023-10-20 10:02:53.718535
2185  2023-10-20 10:02:53.750550
2186  2023-10-20 10:02:53.782499
2187  2023-10-20 10:02:53.814416
2188  2023-10-20 10:02:53.846293
2189  2023-10-20 10:02:53.878394
2190  2023-10-20 10:02:53.910334
2191  2023-10-20 10:02:53.958213
2192  2023-10-20 10:02:53.990126
2193  2023-10-20 10:02:54.022047
2194  2023-10-20 10:02:54.053955
2195  2023-10-20 10:02:54.085887
2196  2023-10-20 10:02:54.117780
2197  2023-10-20 10:02:54.149700
2198  2023-10-20 10:02:54.182616
2199  2023-10-20 10:02:54.214526
2200  2023-10-20 10:02:54.246409
2201  2023-10-20 10:02:54.278323
2202  2023-10-20 10:02:54.310238
2203  2023-10-20 10:02:54.358141
2204  2023-10-20 10:02:54.390024
2205  2023-10-20 10:02:54.421992
2206  2023-10-20 10:02:54.453887
2207  2023-10-20 10:02:54.485768
2208  2023-10-20 10:02:54.518679
2209  2023-10-20 10:02:54.550595
2210  2023-10-20 10:02:54.582512
2211  2023-10-20 10:02:54.614425
2212  2023-10-20 10:02:54.646344
2213  2023-10-20 10:02:54.678253
2214  2023-10-20 10:02:54.710169
2215  2023-10-20 10:02:54.758046
2216  2023-10-20 10:02:54.789953
2217  2023-10-20 10:02:54.821913
2218  2023-10-20 10:02:54.853816
2219  2023-10-20 10:02:54.885697
2220  2023-10-20 10:02:54.917611
2221  2023-10-20 10:02:54.950571
2222  2023-10-20 10:02:54.982477
2223  2023-10-20 10:02:55.014383
2224  2023-10-20 10:02:55.046267
2225  2023-10-20 10:02:55.078240
2226  2023-10-20 10:02:55.110096
2227  2023-10-20 10:02:55.158007
2228  2023-10-20 10:02:55.189882
2229  2023-10-20 10:02:55.221843
2230  2023-10-20 10:02:55.253744
2231  2023-10-20 10:02:55.286653
2232  2023-10-20 10:02:55.318581
2233  2023-10-20 10:02:55.350452
2234  2023-10-20 10:02:55.382367
2235  2023-10-20 10:02:55.414316
2236  2023-10-20 10:02:55.446228
2237  2023-10-20 10:02:55.478110
2238  2023-10-20 10:02:55.510025
2239  2023-10-20 10:02:55.557928
2240  2023-10-20 10:02:55.589811
2241  2023-10-20 10:02:55.621758
2242  2023-10-20 10:02:55.653673
2243  2023-10-20 10:02:55.686552
2244  2023-10-20 10:02:55.718466
2245  2023-10-20 10:02:55.750409
2246  2023-10-20 10:02:55.782331
2247  2023-10-20 10:02:55.814235
2248  2023-10-20 10:02:55.846125
2249  2023-10-20 10:02:55.878085
2250  2023-10-20 10:02:55.910000
2251  2023-10-20 10:02:55.957866
2252  2023-10-20 10:02:55.989789
2253  2023-10-20 10:02:56.021688
2254  2023-10-20 10:02:56.054568
2255  2023-10-20 10:02:56.086528
2256  2023-10-20 10:02:56.118427
2257  2023-10-20 10:02:56.150312
2258  2023-10-20 10:02:56.182226
2259  2023-10-20 10:02:56.214171
2260  2023-10-20 10:02:56.246055
2261  2023-10-20 10:02:56.277969
2262  2023-10-20 10:02:56.309884
2263  2023-10-20 10:02:56.358753
2264  2023-10-20 10:02:56.389670
2265  2023-10-20 10:02:56.422583
2266  2023-10-20 10:02:56.454529
2267  2023-10-20 10:02:56.486411
2268  2023-10-20 10:02:56.518327
2269  2023-10-20 10:02:56.550304
2270  2023-10-20 10:02:56.582219
2271  2023-10-20 10:02:56.615134
2272  2023-10-20 10:02:56.646156
2273  2023-10-20 10:02:56.678070
2274  2023-10-20 10:02:56.709985
2275  2023-10-20 10:02:56.758856
2276  2023-10-20 10:02:56.789772
2277  2023-10-20 10:02:56.822718
2278  2023-10-20 10:02:56.854663
2279  2023-10-20 10:02:56.886545
2280  2023-10-20 10:02:56.918426
2281  2023-10-20 10:02:56.950449
2282  2023-10-20 10:02:56.982360
2283  2023-10-20 10:02:57.014274
2284  2023-10-20 10:02:57.046259
2285  2023-10-20 10:02:57.078173
2286  2023-10-20 10:02:57.126101
2287  2023-10-20 10:02:57.158025
2288  2023-10-20 10:02:57.189919
2289  2023-10-20 10:02:57.221789
2290  2023-10-20 10:02:57.253703
2291  2023-10-20 10:02:57.286643
2292  2023-10-20 10:02:57.318529
2293  2023-10-20 10:02:57.350444
2294  2023-10-20 10:02:57.382359
2295  2023-10-20 10:02:57.414275
2296  2023-10-20 10:02:57.446219
2297  2023-10-20 10:02:57.478102
2298  2023-10-20 10:02:57.525974
2299  2023-10-20 10:02:57.557888
2300  2023-10-20 10:02:57.589803
2301  2023-10-20 10:02:57.621754
2302  2023-10-20 10:02:57.653632
2303  2023-10-20 10:02:57.686544
2304  2023-10-20 10:02:57.718458
2305  2023-10-20 10:02:57.750416
2306  2023-10-20 10:02:57.782331
2307  2023-10-20 10:02:57.814202
2308  2023-10-20 10:02:57.846117
2309  2023-10-20 10:02:57.878090
2310  2023-10-20 10:02:57.926901
2311  2023-10-20 10:02:57.958852
2312  2023-10-20 10:02:57.989760
2313  2023-10-20 10:02:58.021647
2314  2023-10-20 10:02:58.054559
2315  2023-10-20 10:02:58.086500
2316  2023-10-20 10:02:58.118388
2317  2023-10-20 10:02:58.150302
2318  2023-10-20 10:02:58.182216
2319  2023-10-20 10:02:58.214168
2320  2023-10-20 10:02:58.246153
2321  2023-10-20 10:02:58.277960
2322  2023-10-20 10:02:58.326831
2323  2023-10-20 10:02:58.358749
2324  2023-10-20 10:02:58.390659
2325  2023-10-20 10:02:58.422576
2326  2023-10-20 10:02:58.454560
2327  2023-10-20 10:02:58.486506
2328  2023-10-20 10:02:58.518389
2329  2023-10-20 10:02:58.550348
2330  2023-10-20 10:02:58.582262
2331  2023-10-20 10:02:58.614208
2332  2023-10-20 10:02:58.646091
2333  2023-10-20 10:02:58.678006
2334  2023-10-20 10:02:58.725909
2335  2023-10-20 10:02:58.757827
2336  2023-10-20 10:02:58.789740
2337  2023-10-20 10:02:58.821658
2338  2023-10-20 10:02:58.854534
2339  2023-10-20 10:02:58.886448
2340  2023-10-20 10:02:58.918362
2341  2023-10-20 10:02:58.950316
2342  2023-10-20 10:02:58.982191
2343  2023-10-20 10:02:59.014106
2344  2023-10-20 10:02:59.046066
2345  2023-10-20 10:02:59.077971
2346  2023-10-20 10:02:59.125832
2347  2023-10-20 10:02:59.157765
2348  2023-10-20 10:02:59.189636
2349  2023-10-20 10:02:59.222560
2350  2023-10-20 10:02:59.254490
2351  2023-10-20 10:02:59.286413
2352  2023-10-20 10:02:59.318291
2353  2023-10-20 10:02:59.350206
2354  2023-10-20 10:02:59.382120
2355  2023-10-20 10:02:59.414095
2356  2023-10-20 10:02:59.445949
2357  2023-10-20 10:02:59.477864
2358  2023-10-20 10:02:59.525762
2359  2023-10-20 10:02:59.558685
2360  2023-10-20 10:02:59.589565
2361  2023-10-20 10:02:59.622477
2362  2023-10-20 10:02:59.654391
2363  2023-10-20 10:02:59.686306
2364  2023-10-20 10:02:59.718347
2365  2023-10-20 10:02:59.750135
2366  2023-10-20 10:02:59.782050
2367  2023-10-20 10:02:59.814014
2368  2023-10-20 10:02:59.845878
2369  2023-10-20 10:02:59.877793
2370  2023-10-20 10:02:59.926696
2371  2023-10-20 10:02:59.958588
2372  2023-10-20 10:02:59.990561
2373  2023-10-20 10:03:00.022406
2374  2023-10-20 10:03:00.054360
2375  2023-10-20 10:03:00.086268
2376  2023-10-20 10:03:00.118183
2377  2023-10-20 10:03:00.150064
2378  2023-10-20 10:03:00.181978
2379  2023-10-20 10:03:00.213893
2380  2023-10-20 10:03:00.245853
2381  2023-10-20 10:03:00.277756
2382  2023-10-20 10:03:00.325629
2383  2023-10-20 10:03:00.358509
2384  2023-10-20 10:03:00.390451
2385  2023-10-20 10:03:00.422335
2386  2023-10-20 10:03:00.454291
2387  2023-10-20 10:03:00.486164
2388  2023-10-20 10:03:00.518078
2389  2023-10-20 10:03:00.549993
2390  2023-10-20 10:03:00.581969
2391  2023-10-20 10:03:00.613854
2392  2023-10-20 10:03:00.645736
2393  2023-10-20 10:03:00.677651
2394  2023-10-20 10:03:00.726553
2395  2023-10-20 10:03:00.758485
2396  2023-10-20 10:03:00.790382
2397  2023-10-20 10:03:00.822264
2398  2023-10-20 10:03:00.854178
2399  2023-10-20 10:03:00.886093
2400  2023-10-20 10:03:00.918080
2401  2023-10-20 10:03:00.950114
2402  2023-10-20 10:03:00.982061
2403  2023-10-20 10:03:01.013942
2404  2023-10-20 10:03:01.045897
2405  2023-10-20 10:03:01.094761
2406  2023-10-20 10:03:01.126688
2407  2023-10-20 10:03:01.158557
2408  2023-10-20 10:03:01.190470
2409  2023-10-20 10:03:01.222384
2410  2023-10-20 10:03:01.254299
2411  2023-10-20 10:03:01.286245
2412  2023-10-20 10:03:01.318128
2413  2023-10-20 10:03:01.350042
2414  2023-10-20 10:03:01.382994
2415  2023-10-20 10:03:01.414905
2416  2023-10-20 10:03:01.446783
2417  2023-10-20 10:03:01.495686
2418  2023-10-20 10:03:01.526619
2419  2023-10-20 10:03:01.559484
2420  2023-10-20 10:03:01.590464
2421  2023-10-20 10:03:01.622357
2422  2023-10-20 10:03:01.654277
2423  2023-10-20 10:03:01.686143
2424  2023-10-20 10:03:01.719177
2425  2023-10-20 10:03:01.750068
2426  2023-10-20 10:03:01.782980
2427  2023-10-20 10:03:01.813892
2428  2023-10-20 10:03:01.846805
2429  2023-10-20 10:03:01.895709
2430  2023-10-20 10:03:01.927680
2431  2023-10-20 10:03:01.959529
2432  2023-10-20 10:03:01.991449
2433  2023-10-20 10:03:02.023365
2434  2023-10-20 10:03:02.055271
2435  2023-10-20 10:03:02.087189
2436  2023-10-20 10:03:02.119108
2437  2023-10-20 10:03:02.151022
2438  2023-10-20 10:03:02.182930
2439  2023-10-20 10:03:02.214843
2440  2023-10-20 10:03:02.247757
2441  2023-10-20 10:03:02.295605
2442  2023-10-20 10:03:02.328532
2443  2023-10-20 10:03:02.359436
2444  2023-10-20 10:03:02.391387
2445  2023-10-20 10:03:02.424266
2446  2023-10-20 10:03:02.455178
2447  2023-10-20 10:03:02.487129
2448  2023-10-20 10:03:02.519005
2449  2023-10-20 10:03:02.551948
2450  2023-10-20 10:03:02.583855
2451  2023-10-20 10:03:02.615778
2452  2023-10-20 10:03:02.647700
2453  2023-10-20 10:03:02.695585
2454  2023-10-20 10:03:02.727495
2455  2023-10-20 10:03:02.759408
2456  2023-10-20 10:03:02.791308
2457  2023-10-20 10:03:02.823220
2458  2023-10-20 10:03:02.855143
2459  2023-10-20 10:03:02.887059
2460  2023-10-20 10:03:02.918963
2461  2023-10-20 10:03:02.950873
2462  2023-10-20 10:03:02.982794
2463  2023-10-20 10:03:03.014707
2464  2023-10-20 10:03:03.046627
2465  2023-10-20 10:03:03.095493
2466  2023-10-20 10:03:03.127408
2467  2023-10-20 10:03:03.159330
2468  2023-10-20 10:03:03.191204
2469  2023-10-20 10:03:03.223151
2470  2023-10-20 10:03:03.255065
2471  2023-10-20 10:03:03.286973
2472  2023-10-20 10:03:03.318895
2473  2023-10-20 10:03:03.350821
2474  2023-10-20 10:03:03.382725
2475  2023-10-20 10:03:03.414643
2476  2023-10-20 10:03:03.446569
2477  2023-10-20 10:03:03.494556
2478  2023-10-20 10:03:03.527447
2479  2023-10-20 10:03:03.558370
2480  2023-10-20 10:03:03.590285
2481  2023-10-20 10:03:03.622166
2482  2023-10-20 10:03:03.655117
2483  2023-10-20 10:03:03.686997
2484  2023-10-20 10:03:03.718907
2485  2023-10-20 10:03:03.750829
2486  2023-10-20 10:03:03.782739
2487  2023-10-20 10:03:03.814653
2488  2023-10-20 10:03:03.846565
2489  2023-10-20 10:03:03.894441
2490  2023-10-20 10:03:03.927377
2491  2023-10-20 10:03:03.959278
2492  2023-10-20 10:03:03.991208
2493  2023-10-20 10:03:04.023129
2494  2023-10-20 10:03:04.055036
2495  2023-10-20 10:03:04.086922
2496  2023-10-20 10:03:04.118886
2497  2023-10-20 10:03:04.150788
2498  2023-10-20 10:03:04.182665
2499  2023-10-20 10:03:04.214606
2500  2023-10-20 10:03:04.246556
2501  2023-10-20 10:03:04.294417
2502  2023-10-20 10:03:04.326308
2503  2023-10-20 10:03:04.358223
2504  2023-10-20 10:03:04.390284
2505  2023-10-20 10:03:04.422176
2506  2023-10-20 10:03:04.454074
2507  2023-10-20 10:03:04.485969
2508  2023-10-20 10:03:04.517870
2509  2023-10-20 10:03:04.549786
2510  2023-10-20 10:03:04.582730
2511  2023-10-20 10:03:04.614636
2512  2023-10-20 10:03:04.662485
2513  2023-10-20 10:03:04.694424
2514  2023-10-20 10:03:04.726339
2515  2023-10-20 10:03:04.758256
2516  2023-10-20 10:03:04.790177
2517  2023-10-20 10:03:04.822085
2518  2023-10-20 10:03:04.854045
2519  2023-10-20 10:03:04.885942
2520  2023-10-20 10:03:04.917837
2521  2023-10-20 10:03:04.949740
2522  2023-10-20 10:03:04.982689
2523  2023-10-20 10:03:05.014571
2524  2023-10-20 10:03:05.062412
2525  2023-10-20 10:03:05.094359
2526  2023-10-20 10:03:05.126307
2527  2023-10-20 10:03:05.159168
2528  2023-10-20 10:03:05.191070
2529  2023-10-20 10:03:05.222058
2530  2023-10-20 10:03:05.254898
2531  2023-10-20 10:03:05.286831
2532  2023-10-20 10:03:05.318773
2533  2023-10-20 10:03:05.350649
2534  2023-10-20 10:03:05.382569
2535  2023-10-20 10:03:05.414522
2536  2023-10-20 10:03:05.462343
2537  2023-10-20 10:03:05.494307
2538  2023-10-20 10:03:05.526203
2539  2023-10-20 10:03:05.558125
2540  2023-10-20 10:03:05.590029
2541  2023-10-20 10:03:05.621954
2542  2023-10-20 10:03:05.653859
2543  2023-10-20 10:03:05.685778
2544  2023-10-20 10:03:05.717685
2545  2023-10-20 10:03:05.750598
2546  2023-10-20 10:03:05.782498
2547  2023-10-20 10:03:05.814447
2548  2023-10-20 10:03:05.862304
2549  2023-10-20 10:03:05.894224
2550  2023-10-20 10:03:05.926138
2551  2023-10-20 10:03:05.958048
2552  2023-10-20 10:03:05.989982
2553  2023-10-20 10:03:06.021875
2554  2023-10-20 10:03:06.053803
2555  2023-10-20 10:03:06.085708
2556  2023-10-20 10:03:06.117614
2557  2023-10-20 10:03:06.150498
2558  2023-10-20 10:03:06.182450
2559  2023-10-20 10:03:06.214361
2560  2023-10-20 10:03:06.262226
2561  2023-10-20 10:03:06.294151
2562  2023-10-20 10:03:06.326111
2563  2023-10-20 10:03:06.358944
2564  2023-10-20 10:03:06.390857
2565  2023-10-20 10:03:06.422770
2566  2023-10-20 10:03:06.453736
2567  2023-10-20 10:03:06.486643
2568  2023-10-20 10:03:06.518564
2569  2023-10-20 10:03:06.550455
2570  2023-10-20 10:03:06.582372
2571  2023-10-20 10:03:06.614291
2572  2023-10-20 10:03:06.662160
2573  2023-10-20 10:03:06.694076
2574  2023-10-20 10:03:06.725957
2575  2023-10-20 10:03:06.757905
2576  2023-10-20 10:03:06.789824
2577  2023-10-20 10:03:06.822730
2578  2023-10-20 10:03:06.853643
2579  2023-10-20 10:03:06.886527
2580  2023-10-20 10:03:06.918480
2581  2023-10-20 10:03:06.950390
2582  2023-10-20 10:03:06.982271
2583  2023-10-20 10:03:07.014185
2584  2023-10-20 10:03:07.062083
2585  2023-10-20 10:03:07.094025
2586  2023-10-20 10:03:07.125928
2587  2023-10-20 10:03:07.157833
2588  2023-10-20 10:03:07.189748
2589  2023-10-20 10:03:07.222627
2590  2023-10-20 10:03:07.254597
2591  2023-10-20 10:03:07.286456
2592  2023-10-20 10:03:07.318371
2593  2023-10-20 10:03:07.350285
2594  2023-10-20 10:03:07.382249
2595  2023-10-20 10:03:07.414147
2596  2023-10-20 10:03:07.462988
2597  2023-10-20 10:03:07.494903
2598  2023-10-20 10:03:07.526852
2599  2023-10-20 10:03:07.558730
2600  2023-10-20 10:03:07.590644
2601  2023-10-20 10:03:07.622566
2602  2023-10-20 10:03:07.654471
2603  2023-10-20 10:03:07.686385
2604  2023-10-20 10:03:07.718304
2605  2023-10-20 10:03:07.750240
2606  2023-10-20 10:03:07.783127
2607  2023-10-20 10:03:07.815046
2608  2023-10-20 10:03:07.862912
2609  2023-10-20 10:03:07.893867
2610  2023-10-20 10:03:07.926741
2611  2023-10-20 10:03:07.958656
2612  2023-10-20 10:03:07.990571
2613  2023-10-20 10:03:08.022485
2614  2023-10-20 10:03:08.054400
2615  2023-10-20 10:03:08.086356
2616  2023-10-20 10:03:08.118296
2617  2023-10-20 10:03:08.150175
2618  2023-10-20 10:03:08.182198
2619  2023-10-20 10:03:08.214167
2620  2023-10-20 10:03:08.262052
2621  2023-10-20 10:03:08.293944
2622  2023-10-20 10:03:08.325862
2623  2023-10-20 10:03:08.357764
2624  2023-10-20 10:03:08.389644
2625  2023-10-20 10:03:08.421592
2626  2023-10-20 10:03:08.454533
2627  2023-10-20 10:03:08.486513
2628  2023-10-20 10:03:08.518581
2629  2023-10-20 10:03:08.550484
2630  2023-10-20 10:03:08.582398
2631  2023-10-20 10:03:08.630270
2632  2023-10-20 10:03:08.662188
2633  2023-10-20 10:03:08.694097
2634  2023-10-20 10:03:08.726014
2635  2023-10-20 10:03:08.757933
2636  2023-10-20 10:03:08.789836
2637  2023-10-20 10:03:08.821722
2638  2023-10-20 10:03:08.853637
2639  2023-10-20 10:03:08.885585
2640  2023-10-20 10:03:08.918465
2641  2023-10-20 10:03:08.950379
2642  2023-10-20 10:03:08.982297
2643  2023-10-20 10:03:09.030164
2644  2023-10-20 10:03:09.062079
2645  2023-10-20 10:03:09.094035
2646  2023-10-20 10:03:09.125988
2647  2023-10-20 10:03:09.157883
2648  2023-10-20 10:03:09.189770
2649  2023-10-20 10:03:09.221651
2650  2023-10-20 10:03:09.253600
2651  2023-10-20 10:03:09.286510
2652  2023-10-20 10:03:09.318422
2653  2023-10-20 10:03:09.350338
2654  2023-10-20 10:03:09.382296
2655  2023-10-20 10:03:09.430125
2656  2023-10-20 10:03:09.462034
2657  2023-10-20 10:03:09.493961
2658  2023-10-20 10:03:09.525893
2659  2023-10-20 10:03:09.557803
2660  2023-10-20 10:03:09.589665
2661  2023-10-20 10:03:09.622612
2662  2023-10-20 10:03:09.654492
2663  2023-10-20 10:03:09.686441
2664  2023-10-20 10:03:09.718322
2665  2023-10-20 10:03:09.750270
2666  2023-10-20 10:03:09.782211
2667  2023-10-20 10:03:09.830062
2668  2023-10-20 10:03:09.862935
2669  2023-10-20 10:03:09.893900
2670  2023-10-20 10:03:09.926764
2671  2023-10-20 10:03:09.958679
2672  2023-10-20 10:03:09.990627
2673  2023-10-20 10:03:10.021904
2674  2023-10-20 10:03:10.053851
2675  2023-10-20 10:03:10.085767
2676  2023-10-20 10:03:10.117647
2677  2023-10-20 10:03:10.150671
2678  2023-10-20 10:03:10.182596
2679  2023-10-20 10:03:10.230455
2680  2023-10-20 10:03:10.262366
2681  2023-10-20 10:03:10.294286
2682  2023-10-20 10:03:10.326236
2683  2023-10-20 10:03:10.358110
2684  2023-10-20 10:03:10.389997
2685  2023-10-20 10:03:10.421912
2686  2023-10-20 10:03:10.453853
2687  2023-10-20 10:03:10.485741
2688  2023-10-20 10:03:10.517686
2689  2023-10-20 10:03:10.550596
2690  2023-10-20 10:03:10.582515
2691  2023-10-20 10:03:10.630389
2692  2023-10-20 10:03:10.662324
2693  2023-10-20 10:03:10.694211
2694  2023-10-20 10:03:10.726131
2695  2023-10-20 10:03:10.758039
2696  2023-10-20 10:03:10.789979
2697  2023-10-20 10:03:10.821876
2698  2023-10-20 10:03:10.853819
2699  2023-10-20 10:03:10.885706
2700  2023-10-20 10:03:10.917613
2701  2023-10-20 10:03:10.949541
2702  2023-10-20 10:03:10.982457
2703  2023-10-20 10:03:11.030285
2704  2023-10-20 10:03:11.062225
2705  2023-10-20 10:03:11.094138
2706  2023-10-20 10:03:11.126028
2707  2023-10-20 10:03:11.157943
2708  2023-10-20 10:03:11.189888
2709  2023-10-20 10:03:11.221770
2710  2023-10-20 10:03:11.253712
2711  2023-10-20 10:03:11.285626
2712  2023-10-20 10:03:11.318515
2713  2023-10-20 10:03:11.350429
2714  2023-10-20 10:03:11.382367
2715  2023-10-20 10:03:11.430246
2716  2023-10-20 10:03:11.462163
2717  2023-10-20 10:03:11.494083
2718  2023-10-20 10:03:11.526050
2719  2023-10-20 10:03:11.557960
2720  2023-10-20 10:03:11.589919
2721  2023-10-20 10:03:11.621790
2722  2023-10-20 10:03:11.653703
2723  2023-10-20 10:03:11.685685
2724  2023-10-20 10:03:11.717635
2725  2023-10-20 10:03:11.750589
2726  2023-10-20 10:03:11.782504
2727  2023-10-20 10:03:11.829762
2728  2023-10-20 10:03:11.862631
2729  2023-10-20 10:03:11.894593
2730  2023-10-20 10:03:11.926501
2731  2023-10-20 10:03:11.958420
2732  2023-10-20 10:03:11.990322
2733  2023-10-20 10:03:12.022202
2734  2023-10-20 10:03:12.054190
2735  2023-10-20 10:03:12.086068
2736  2023-10-20 10:03:12.117974
2737  2023-10-20 10:03:12.149903
2738  2023-10-20 10:03:12.197771
2739  2023-10-20 10:03:12.230657
2740  2023-10-20 10:03:12.262609
2741  2023-10-20 10:03:12.294474
2742  2023-10-20 10:03:12.326388
2743  2023-10-20 10:03:12.358303
2744  2023-10-20 10:03:12.390251
2745  2023-10-20 10:03:12.422187
2746  2023-10-20 10:03:12.454047
2747  2023-10-20 10:03:12.486006
2748  2023-10-20 10:03:12.517908
2749  2023-10-20 10:03:12.549815
2750  2023-10-20 10:03:12.598694
2751  2023-10-20 10:03:12.630607
2752  2023-10-20 10:03:12.662488
2753  2023-10-20 10:03:12.694438
2754  2023-10-20 10:03:12.726317
2755  2023-10-20 10:03:12.758231
2756  2023-10-20 10:03:12.790148
2757  2023-10-20 10:03:12.822062
2758  2023-10-20 10:03:12.853974
2759  2023-10-20 10:03:12.885962
2760  2023-10-20 10:03:12.917838
2761  2023-10-20 10:03:12.949753
2762  2023-10-20 10:03:12.997592
2763  2023-10-20 10:03:13.030538
2764  2023-10-20 10:03:13.062465
2765  2023-10-20 10:03:13.094356
2766  2023-10-20 10:03:13.126272
2767  2023-10-20 10:03:13.158186
2768  2023-10-20 10:03:13.190074
2769  2023-10-20 10:03:13.222020
2770  2023-10-20 10:03:13.253950
2771  2023-10-20 10:03:13.285861
2772  2023-10-20 10:03:13.317830
2773  2023-10-20 10:03:13.350756
2774  2023-10-20 10:03:13.398583
2775  2023-10-20 10:03:13.430495
2776  2023-10-20 10:03:13.462410
2777  2023-10-20 10:03:13.494322
2778  2023-10-20 10:03:13.526237
2779  2023-10-20 10:03:13.558151
2780  2023-10-20 10:03:13.590068
2781  2023-10-20 10:03:13.622033
2782  2023-10-20 10:03:13.653924
2783  2023-10-20 10:03:13.685842
2784  2023-10-20 10:03:13.717754
2785  2023-10-20 10:03:13.749677
2786  2023-10-20 10:03:13.798596
2787  2023-10-20 10:03:13.829598
2788  2023-10-20 10:03:13.861696
2789  2023-10-20 10:03:13.894575
2790  2023-10-20 10:03:13.926490
2791  2023-10-20 10:03:13.958439
2792  2023-10-20 10:03:13.990373
2793  2023-10-20 10:03:14.022262
2794  2023-10-20 10:03:14.054178
2795  2023-10-20 10:03:14.086094
2796  2023-10-20 10:03:14.118018
2797  2023-10-20 10:03:14.149922
2798  2023-10-20 10:03:14.197823
2799  2023-10-20 10:03:14.230673
2800  2023-10-20 10:03:14.262590
2801  2023-10-20 10:03:14.294566
2802  2023-10-20 10:03:14.326417
2803  2023-10-20 10:03:14.358333
2804  2023-10-20 10:03:14.390290
2805  2023-10-20 10:03:14.422213
2806  2023-10-20 10:03:14.454109
2807  2023-10-20 10:03:14.486026
2808  2023-10-20 10:03:14.517940
2809  2023-10-20 10:03:14.549843
2810  2023-10-20 10:03:14.598689
2811  2023-10-20 10:03:14.630657
2812  2023-10-20 10:03:14.662519
2813  2023-10-20 10:03:14.694432
2814  2023-10-20 10:03:14.726381
2815  2023-10-20 10:03:14.758311
2816  2023-10-20 10:03:14.790220
2817  2023-10-20 10:03:14.823112
2818  2023-10-20 10:03:14.855033
2819  2023-10-20 10:03:14.885950
2820  2023-10-20 10:03:14.917875
2821  2023-10-20 10:03:14.949772
2822  2023-10-20 10:03:14.998618
2823  2023-10-20 10:03:15.030532
2824  2023-10-20 10:03:15.062446
2825  2023-10-20 10:03:15.094274
2826  2023-10-20 10:03:15.127249
2827  2023-10-20 10:03:15.158244
2828  2023-10-20 10:03:15.191165
2829  2023-10-20 10:03:15.222107
2830  2023-10-20 10:03:15.254022
2831  2023-10-20 10:03:15.285949
2832  2023-10-20 10:03:15.317852
2833  2023-10-20 10:03:15.349761
2834  2023-10-20 10:03:15.398652
2835  2023-10-20 10:03:15.430554
2836  2023-10-20 10:03:15.462429
2837  2023-10-20 10:03:15.494358
2838  2023-10-20 10:03:15.527291
2839  2023-10-20 10:03:15.558213
2840  2023-10-20 10:03:15.590118
2841  2023-10-20 10:03:15.623023
2842  2023-10-20 10:03:15.654941
2843  2023-10-20 10:03:15.686858
2844  2023-10-20 10:03:15.717791
2845  2023-10-20 10:03:15.767660
2846  2023-10-20 10:03:15.798585
2847  2023-10-20 10:03:15.830444
2848  2023-10-20 10:03:15.863405
2849  2023-10-20 10:03:15.895310
2850  2023-10-20 10:03:15.927218
2851  2023-10-20 10:03:15.958135
2852  2023-10-20 10:03:15.990059
2853  2023-10-20 10:03:16.022953
2854  2023-10-20 10:03:16.054868
2855  2023-10-20 10:03:16.086792
2856  2023-10-20 10:03:16.117709
2857  2023-10-20 10:03:16.166611
2858  2023-10-20 10:03:16.198462
2859  2023-10-20 10:03:16.230373
2860  2023-10-20 10:03:16.263331
2861  2023-10-20 10:03:16.294202
2862  2023-10-20 10:03:16.327149
2863  2023-10-20 10:03:16.358079
2864  2023-10-20 10:03:16.389958
2865  2023-10-20 10:03:16.422856
2866  2023-10-20 10:03:16.454801
2867  2023-10-20 10:03:16.486687
2868  2023-10-20 10:03:16.518633
2869  2023-10-20 10:03:16.566472
2870  2023-10-20 10:03:16.598418
2871  2023-10-20 10:03:16.630350
2872  2023-10-20 10:03:16.662216
2873  2023-10-20 10:03:16.695177
2874  2023-10-20 10:03:16.727093
2875  2023-10-20 10:03:16.758011
2876  2023-10-20 10:03:16.789911
2877  2023-10-20 10:03:16.823856
2878  2023-10-20 10:03:16.854734
2879  2023-10-20 10:03:16.886644
2880  2023-10-20 10:03:16.917578
2881  2023-10-20 10:03:16.967442
2882  2023-10-20 10:03:16.998348
2883  2023-10-20 10:03:17.030261
2884  2023-10-20 10:03:17.063187
2885  2023-10-20 10:03:17.095106
2886  2023-10-20 10:03:17.127010
2887  2023-10-20 10:03:17.157919
2888  2023-10-20 10:03:17.189802
2889  2023-10-20 10:03:17.222752
2890  2023-10-20 10:03:17.254663
2891  2023-10-20 10:03:17.286580
2892  2023-10-20 10:03:17.319457
2893  2023-10-20 10:03:17.367378
2894  2023-10-20 10:03:17.398261
2895  2023-10-20 10:03:17.430162
2896  2023-10-20 10:03:17.463112
2897  2023-10-20 10:03:17.495011
2898  2023-10-20 10:03:17.527955
2899  2023-10-20 10:03:17.557842
2900  2023-10-20 10:03:17.590773
2901  2023-10-20 10:03:17.621705
2902  2023-10-20 10:03:17.655587
2903  2023-10-20 10:03:17.686506
2904  2023-10-20 10:03:17.718417
2905  2023-10-20 10:03:17.767286
2906  2023-10-20 10:03:17.800226
2907  2023-10-20 10:03:17.830132
2908  2023-10-20 10:03:17.862006
2909  2023-10-20 10:03:17.895944
2910  2023-10-20 10:03:17.926887
2911  2023-10-20 10:03:17.959772
2912  2023-10-20 10:03:17.990695
2913  2023-10-20 10:03:18.021631
2914  2023-10-20 10:03:18.054556
2915  2023-10-20 10:03:18.087442
2916  2023-10-20 10:03:18.119393
2917  2023-10-20 10:03:18.167227
2918  2023-10-20 10:03:18.199138
2919  2023-10-20 10:03:18.230049
2920  2023-10-20 10:03:18.261969
2921  2023-10-20 10:03:18.294899
2922  2023-10-20 10:03:18.326792
2923  2023-10-20 10:03:18.358710
2924  2023-10-20 10:03:18.389589
2925  2023-10-20 10:03:18.422535
2926  2023-10-20 10:03:18.454453
2927  2023-10-20 10:03:18.486364
2928  2023-10-20 10:03:18.518277
2929  2023-10-20 10:03:18.566148
2930  2023-10-20 10:03:18.598082
2931  2023-10-20 10:03:18.629986
2932  2023-10-20 10:03:18.661901
2933  2023-10-20 10:03:18.693817
2934  2023-10-20 10:03:18.726864
2935  2023-10-20 10:03:18.757786
2936  2023-10-20 10:03:18.789714
2937  2023-10-20 10:03:18.821607
2938  2023-10-20 10:03:18.853523
2939  2023-10-20 10:03:18.886465
2940  2023-10-20 10:03:18.919323
2941  2023-10-20 10:03:18.967246
2942  2023-10-20 10:03:18.998147
2943  2023-10-20 10:03:19.030024
2944  2023-10-20 10:03:19.061941
2945  2023-10-20 10:03:19.094888
2946  2023-10-20 10:03:19.126812
2947  2023-10-20 10:03:19.158715
2948  2023-10-20 10:03:19.189648
2949  2023-10-20 10:03:19.221544
2950  2023-10-20 10:03:19.254455
2951  2023-10-20 10:03:19.287379
2952  2023-10-20 10:03:19.318305
2953  2023-10-20 10:03:19.366149
2954  2023-10-20 10:03:19.398065
2955  2023-10-20 10:03:19.429993
2956  2023-10-20 10:03:19.461915
2957  2023-10-20 10:03:19.494827
2958  2023-10-20 10:03:19.525733
2959  2023-10-20 10:03:19.558609
2960  2023-10-20 10:03:19.590563
2961  2023-10-20 10:03:19.622464
2962  2023-10-20 10:03:19.654379
2963  2023-10-20 10:03:19.686298
2964  2023-10-20 10:03:19.734164
2965  2023-10-20 10:03:19.766079
2966  2023-10-20 10:03:19.798011
2967  2023-10-20 10:03:19.829926
2968  2023-10-20 10:03:19.861833
2969  2023-10-20 10:03:19.894740
2970  2023-10-20 10:03:19.926672
2971  2023-10-20 10:03:19.958567
2972  2023-10-20 10:03:19.990453
2973  2023-10-20 10:03:20.022367
2974  2023-10-20 10:03:20.054312
2975  2023-10-20 10:03:20.086246
2976  2023-10-20 10:03:20.134100
2977  2023-10-20 10:03:20.167053
2978  2023-10-20 10:03:20.198920
2979  2023-10-20 10:03:20.229837
2980  2023-10-20 10:03:20.261758
2981  2023-10-20 10:03:20.294669
2982  2023-10-20 10:03:20.326597
2983  2023-10-20 10:03:20.358498
2984  2023-10-20 10:03:20.390432
2985  2023-10-20 10:03:20.422350
2986  2023-10-20 10:03:20.455247
2987  2023-10-20 10:03:20.487182
2988  2023-10-20 10:03:20.533996
2989  2023-10-20 10:03:20.565947
2990  2023-10-20 10:03:20.597871
2991  2023-10-20 10:03:20.629764
2992  2023-10-20 10:03:20.662682
2993  2023-10-20 10:03:20.694607
2994  2023-10-20 10:03:20.726527
2995  2023-10-20 10:03:20.758442
2996  2023-10-20 10:03:20.790344
2997  2023-10-20 10:03:20.822251
2998  2023-10-20 10:03:20.854180
2999  2023-10-20 10:03:20.886094
3000  2023-10-20 10:03:20.933956
3001  2023-10-20 10:03:20.965873
3002  2023-10-20 10:03:20.997787
3003  2023-10-20 10:03:21.029938
3004  2023-10-20 10:03:21.062861
3005  2023-10-20 10:03:21.093779
3006  2023-10-20 10:03:21.126649
3007  2023-10-20 10:03:21.158618
3008  2023-10-20 10:03:21.190513
3009  2023-10-20 10:03:21.222455
3010  2023-10-20 10:03:21.254308
3011  2023-10-20 10:03:21.286220
3012  2023-10-20 10:03:21.334094
3013  2023-10-20 10:03:21.366022
3014  2023-10-20 10:03:21.397923
3015  2023-10-20 10:03:21.430868
3016  2023-10-20 10:03:21.462783
3017  2023-10-20 10:03:21.493702
3018  2023-10-20 10:03:21.525583
3019  2023-10-20 10:03:21.558513
3020  2023-10-20 10:03:21.590425
3021  2023-10-20 10:03:21.622361
3022  2023-10-20 10:03:21.654282
3023  2023-10-20 10:03:21.686171
3024  2023-10-20 10:03:21.734174
3025  2023-10-20 10:03:21.766092
3026  2023-10-20 10:03:21.797982
3027  2023-10-20 10:03:21.829863
3028  2023-10-20 10:03:21.861812
3029  2023-10-20 10:03:21.894751
3030  2023-10-20 10:03:21.926630
3031  2023-10-20 10:03:21.958560
3032  2023-10-20 10:03:21.990472
3033  2023-10-20 10:03:22.022380
3034  2023-10-20 10:03:22.054298
3035  2023-10-20 10:03:22.086210
3036  2023-10-20 10:03:22.134076
3037  2023-10-20 10:03:22.165998
3038  2023-10-20 10:03:22.197907
3039  2023-10-20 10:03:22.229828
3040  2023-10-20 10:03:22.261746
3041  2023-10-20 10:03:22.294651
3042  2023-10-20 10:03:22.326569
3043  2023-10-20 10:03:22.358474
3044  2023-10-20 10:03:22.390362
3045  2023-10-20 10:03:22.422276
3046  2023-10-20 10:03:22.454222
3047  2023-10-20 10:03:22.486139
3048  2023-10-20 10:03:22.534012
3049  2023-10-20 10:03:22.566891
3050  2023-10-20 10:03:22.598807
3051  2023-10-20 10:03:22.630772
3052  2023-10-20 10:03:22.662634
3053  2023-10-20 10:03:22.694573
3054  2023-10-20 10:03:22.726488
3055  2023-10-20 10:03:22.758407
3056  2023-10-20 10:03:22.790291
3057  2023-10-20 10:03:22.822260
3058  2023-10-20 10:03:22.854180
3059  2023-10-20 10:03:22.886066
3060  2023-10-20 10:03:22.933944
3061  2023-10-20 10:03:22.965867
3062  2023-10-20 10:03:22.997773
3063  2023-10-20 10:03:23.030682
3064  2023-10-20 10:03:23.062601
3065  2023-10-20 10:03:23.094527
3066  2023-10-20 10:03:23.126427
3067  2023-10-20 10:03:23.158344
3068  2023-10-20 10:03:23.190219
3069  2023-10-20 10:03:23.222134
3070  2023-10-20 10:03:23.254055
3071  2023-10-20 10:03:23.301972
3072  2023-10-20 10:03:23.334837
3073  2023-10-20 10:03:23.365778
3074  2023-10-20 10:03:23.398691
3075  2023-10-20 10:03:23.430621
3076  2023-10-20 10:03:23.462541
3077  2023-10-20 10:03:23.494438
3078  2023-10-20 10:03:23.526361
3079  2023-10-20 10:03:23.558260
3080  2023-10-20 10:03:23.590175
3081  2023-10-20 10:03:23.622124
3082  2023-10-20 10:03:23.653978
3083  2023-10-20 10:03:23.701880
3084  2023-10-20 10:03:23.733795
3085  2023-10-20 10:03:23.766709
3086  2023-10-20 10:03:23.798619
3087  2023-10-20 10:03:23.830554
3088  2023-10-20 10:03:23.862422
3089  2023-10-20 10:03:23.894370
3090  2023-10-20 10:03:23.926286
3091  2023-10-20 10:03:23.958166
3092  2023-10-20 10:03:23.990077
3093  2023-10-20 10:03:24.021992
3094  2023-10-20 10:03:24.053907
3095  2023-10-20 10:03:24.101810
3096  2023-10-20 10:03:24.134714
3097  2023-10-20 10:03:24.166633
3098  2023-10-20 10:03:24.197594
3099  2023-10-20 10:03:24.230521
3100  2023-10-20 10:03:24.262436
3101  2023-10-20 10:03:24.294351
3102  2023-10-20 10:03:24.326150
3103  2023-10-20 10:03:24.358110
3104  2023-10-20 10:03:24.390111
3105  2023-10-20 10:03:24.422025
3106  2023-10-20 10:03:24.453938
3107  2023-10-20 10:03:24.502229
3108  2023-10-20 10:03:24.534110
3109  2023-10-20 10:03:24.566122
3110  2023-10-20 10:03:24.598171
3111  2023-10-20 10:03:24.630081
3112  2023-10-20 10:03:24.661972
3113  2023-10-20 10:03:24.693927
3114  2023-10-20 10:03:24.725894
3115  2023-10-20 10:03:24.757962
3116  2023-10-20 10:03:24.789827
3117  2023-10-20 10:03:24.821789
3118  2023-10-20 10:03:24.853654
3119  2023-10-20 10:03:24.902525
3120  2023-10-20 10:03:24.934472
3121  2023-10-20 10:03:24.966395
3122  2023-10-20 10:03:24.998268
3123  2023-10-20 10:03:25.030211
3124  2023-10-20 10:03:25.062119
3125  2023-10-20 10:03:25.094670
3126  2023-10-20 10:03:25.126583
3127  2023-10-20 10:03:25.158565
3128  2023-10-20 10:03:25.189585
3129  2023-10-20 10:03:25.222504
3130  2023-10-20 10:03:25.254380
3131  2023-10-20 10:03:25.302283
3132  2023-10-20 10:03:25.334198
3133  2023-10-20 10:03:25.366107
3134  2023-10-20 10:03:25.398033
3135  2023-10-20 10:03:25.429958
3136  2023-10-20 10:03:25.461892
3137  2023-10-20 10:03:25.494769
3138  2023-10-20 10:03:25.526651
3139  2023-10-20 10:03:25.558567
3140  2023-10-20 10:03:25.590516
3141  2023-10-20 10:03:25.622431
3142  2023-10-20 10:03:25.654341
3143  2023-10-20 10:03:25.702213
3144  2023-10-20 10:03:25.734128
3145  2023-10-20 10:03:25.766191
3146  2023-10-20 10:03:25.798089
3147  2023-10-20 10:03:25.829973
3148  2023-10-20 10:03:25.861930
3149  2023-10-20 10:03:25.893869
3150  2023-10-20 10:03:25.925770
3151  2023-10-20 10:03:25.958690
3152  2023-10-20 10:03:25.990574
3153  2023-10-20 10:03:26.022501
3154  2023-10-20 10:03:26.054370
3155  2023-10-20 10:03:26.102267
3156  2023-10-20 10:03:26.134194
3157  2023-10-20 10:03:26.166106
3158  2023-10-20 10:03:26.197986
3159  2023-10-20 10:03:26.229953
3160  2023-10-20 10:03:26.261859
3161  2023-10-20 10:03:26.294755
3162  2023-10-20 10:03:26.326677
3163  2023-10-20 10:03:26.358598
3164  2023-10-20 10:03:26.390527
3165  2023-10-20 10:03:26.422429
3166  2023-10-20 10:03:26.454300
3167  2023-10-20 10:03:26.502204
3168  2023-10-20 10:03:26.534093
3169  2023-10-20 10:03:26.566000
3170  2023-10-20 10:03:26.598913
3171  2023-10-20 10:03:26.630827
3172  2023-10-20 10:03:26.662775
3173  2023-10-20 10:03:26.694706
3174  2023-10-20 10:03:26.726597
3175  2023-10-20 10:03:26.758533
3176  2023-10-20 10:03:26.790458
3177  2023-10-20 10:03:26.822347
3178  2023-10-20 10:03:26.870186
3179  2023-10-20 10:03:26.902132
3180  2023-10-20 10:03:26.934014
3181  2023-10-20 10:03:26.966976
3182  2023-10-20 10:03:26.997888
3183  2023-10-20 10:03:27.029794
3184  2023-10-20 10:03:27.062702
3185  2023-10-20 10:03:27.094617
3186  2023-10-20 10:03:27.126556
3187  2023-10-20 10:03:27.158413
3188  2023-10-20 10:03:27.190328
3189  2023-10-20 10:03:27.222242
3190  2023-10-20 10:03:27.270159
3191  2023-10-20 10:03:27.302079
3192  2023-10-20 10:03:27.334021
3193  2023-10-20 10:03:27.365893
3194  2023-10-20 10:03:27.397821
3195  2023-10-20 10:03:27.430713
3196  2023-10-20 10:03:27.462634
3197  2023-10-20 10:03:27.493516
3198  2023-10-20 10:03:27.526459
3199  2023-10-20 10:03:27.558342
3200  2023-10-20 10:03:27.590258
3201  2023-10-20 10:03:27.622256
3202  2023-10-20 10:03:27.670267
3203  2023-10-20 10:03:27.702176
3204  2023-10-20 10:03:27.734060
3205  2023-10-20 10:03:27.765974
3206  2023-10-20 10:03:27.797921
3207  2023-10-20 10:03:27.829844
3208  2023-10-20 10:03:27.861718
3209  2023-10-20 10:03:27.894663
3210  2023-10-20 10:03:27.926592
3211  2023-10-20 10:03:27.958460
3212  2023-10-20 10:03:27.990407
3213  2023-10-20 10:03:28.022322
3214  2023-10-20 10:03:28.070163
3215  2023-10-20 10:03:28.102122
3216  2023-10-20 10:03:28.134042
3217  2023-10-20 10:03:28.165958
3218  2023-10-20 10:03:28.198013
3219  2023-10-20 10:03:28.229927
3220  2023-10-20 10:03:28.261837
3221  2023-10-20 10:03:28.293738
3222  2023-10-20 10:03:28.325693
3223  2023-10-20 10:03:28.358574
3224  2023-10-20 10:03:28.390480
3225  2023-10-20 10:03:28.422394
3226  2023-10-20 10:03:28.470265
3227  2023-10-20 10:03:28.502180
3228  2023-10-20 10:03:28.534094
3229  2023-10-20 10:03:28.567007
3230  2023-10-20 10:03:28.598000
3231  2023-10-20 10:03:28.629952
3232  2023-10-20 10:03:28.662831
3233  2023-10-20 10:03:28.693756
3234  2023-10-20 10:03:28.726688
3235  2023-10-20 10:03:28.758604
3236  2023-10-20 10:03:28.790535
3237  2023-10-20 10:03:28.822438
3238  2023-10-20 10:03:28.870271
3239  2023-10-20 10:03:28.902184
3240  2023-10-20 10:03:28.934098
3241  2023-10-20 10:03:28.966019
3242  2023-10-20 10:03:28.997928
3243  2023-10-20 10:03:29.029876
3244  2023-10-20 10:03:29.061815
3245  2023-10-20 10:03:29.094704
3246  2023-10-20 10:03:29.125631
3247  2023-10-20 10:03:29.157546
3248  2023-10-20 10:03:29.190573
3249  2023-10-20 10:03:29.221486
3250  2023-10-20 10:03:29.270329
3251  2023-10-20 10:03:29.302244
3252  2023-10-20 10:03:29.334188
3253  2023-10-20 10:03:29.366105
3254  2023-10-20 10:03:29.398984
3255  2023-10-20 10:03:29.430916
3256  2023-10-20 10:03:29.462814
3257  2023-10-20 10:03:29.494731
3258  2023-10-20 10:03:29.526644
3259  2023-10-20 10:03:29.558571
3260  2023-10-20 10:03:29.590471
3261  2023-10-20 10:03:29.622420
3262  2023-10-20 10:03:29.670257
3263  2023-10-20 10:03:29.702172
3264  2023-10-20 10:03:29.734115
3265  2023-10-20 10:03:29.766032
3266  2023-10-20 10:03:29.797961
3267  2023-10-20 10:03:29.829869
3268  2023-10-20 10:03:29.861787
3269  2023-10-20 10:03:29.894691
3270  2023-10-20 10:03:29.926607
3271  2023-10-20 10:03:29.958491
3272  2023-10-20 10:03:29.990452
3273  2023-10-20 10:03:30.022131
3274  2023-10-20 10:03:30.070063
3275  2023-10-20 10:03:30.102006
3276  2023-10-20 10:03:30.133938
3277  2023-10-20 10:03:30.165842
3278  2023-10-20 10:03:30.198755
3279  2023-10-20 10:03:30.229860
3280  2023-10-20 10:03:30.262777
3281  2023-10-20 10:03:30.293678
3282  2023-10-20 10:03:30.326597
3283  2023-10-20 10:03:30.358503
3284  2023-10-20 10:03:30.390439
3285  2023-10-20 10:03:30.422336
3286  2023-10-20 10:03:30.470236
3287  2023-10-20 10:03:30.502126
3288  2023-10-20 10:03:30.534037
3289  2023-10-20 10:03:30.565948
3290  2023-10-20 10:03:30.597896
3291  2023-10-20 10:03:30.629754
3292  2023-10-20 10:03:30.661710
3293  2023-10-20 10:03:30.693612
3294  2023-10-20 10:03:30.726519
3295  2023-10-20 10:03:30.758441
3296  2023-10-20 10:03:30.790320
3297  2023-10-20 10:03:30.838224
3298  2023-10-20 10:03:30.870133
3299  2023-10-20 10:03:30.902053
3300  2023-10-20 10:03:30.933969
3301  2023-10-20 10:03:30.965849
3302  2023-10-20 10:03:30.997812
3303  2023-10-20 10:03:31.029679
3304  2023-10-20 10:03:31.062592
3305  2023-10-20 10:03:31.094570
3306  2023-10-20 10:03:31.126469
3307  2023-10-20 10:03:31.158372
3308  2023-10-20 10:03:31.190281
3309  2023-10-20 10:03:31.238148
3310  2023-10-20 10:03:31.270066
3311  2023-10-20 10:03:31.301986
3312  2023-10-20 10:03:31.333900
3313  2023-10-20 10:03:31.365817
3314  2023-10-20 10:03:31.398732
3315  2023-10-20 10:03:31.430651
3316  2023-10-20 10:03:31.462589
3317  2023-10-20 10:03:31.494473
3318  2023-10-20 10:03:31.526349
3319  2023-10-20 10:03:31.558297
3320  2023-10-20 10:03:31.590177
3321  2023-10-20 10:03:31.638080
3322  2023-10-20 10:03:31.669989
3323  2023-10-20 10:03:31.701924
3324  2023-10-20 10:03:31.733794
3325  2023-10-20 10:03:31.765735
3326  2023-10-20 10:03:31.798653
3327  2023-10-20 10:03:31.830567
3328  2023-10-20 10:03:31.862484
3329  2023-10-20 10:03:31.894397
3330  2023-10-20 10:03:31.926311
3331  2023-10-20 10:03:31.958224
3332  2023-10-20 10:03:31.990141
3333  2023-10-20 10:03:32.038976
3334  2023-10-20 10:03:32.070898
3335  2023-10-20 10:03:32.102808
3336  2023-10-20 10:03:32.134719
3337  2023-10-20 10:03:32.166634
3338  2023-10-20 10:03:32.197552
3339  2023-10-20 10:03:32.229468
3340  2023-10-20 10:03:32.262427
3341  2023-10-20 10:03:32.294321
3342  2023-10-20 10:03:32.326208
3343  2023-10-20 10:03:32.358315
3344  2023-10-20 10:03:32.390225
3345  2023-10-20 10:03:32.438101
3346  2023-10-20 10:03:32.470051
3347  2023-10-20 10:03:32.501965
3348  2023-10-20 10:03:32.533989
3349  2023-10-20 10:03:32.565938
3350  2023-10-20 10:03:32.597874
3351  2023-10-20 10:03:32.629756
3352  2023-10-20 10:03:32.661670
3353  2023-10-20 10:03:32.694591
3354  2023-10-20 10:03:32.726502
3355  2023-10-20 10:03:32.758421
3356  2023-10-20 10:03:32.790337
3357  2023-10-20 10:03:32.838174
3358  2023-10-20 10:03:32.870135
3359  2023-10-20 10:03:32.902026
3360  2023-10-20 10:03:32.933940
3361  2023-10-20 10:03:32.965830
3362  2023-10-20 10:03:32.997783
3363  2023-10-20 10:03:33.029686
3364  2023-10-20 10:03:33.062602
3365  2023-10-20 10:03:33.094519
3366  2023-10-20 10:03:33.126457
3367  2023-10-20 10:03:33.158347
3368  2023-10-20 10:03:33.190254
3369  2023-10-20 10:03:33.238101
3370  2023-10-20 10:03:33.271017
3371  2023-10-20 10:03:33.302929
3372  2023-10-20 10:03:33.334844
3373  2023-10-20 10:03:33.366761
3374  2023-10-20 10:03:33.398673
3375  2023-10-20 10:03:33.430588
3376  2023-10-20 10:03:33.462502
3377  2023-10-20 10:03:33.494450
3378  2023-10-20 10:03:33.526356
3379  2023-10-20 10:03:33.558275
3380  2023-10-20 10:03:33.590194
3381  2023-10-20 10:03:33.638067
3382  2023-10-20 10:03:33.669947
3383  2023-10-20 10:03:33.701886
3384  2023-10-20 10:03:33.733817
3385  2023-10-20 10:03:33.765688
3386  2023-10-20 10:03:33.798602
3387  2023-10-20 10:03:33.829544
3388  2023-10-20 10:03:33.862430
3389  2023-10-20 10:03:33.894224
3390  2023-10-20 10:03:33.926187
3391  2023-10-20 10:03:33.958087
3392  2023-10-20 10:03:33.990040
3393  2023-10-20 10:03:34.037893
3394  2023-10-20 10:03:34.069787
3395  2023-10-20 10:03:34.102666
3396  2023-10-20 10:03:34.134615
3397  2023-10-20 10:03:34.166529
3398  2023-10-20 10:03:34.198458
3399  2023-10-20 10:03:34.230389
3400  2023-10-20 10:03:34.262304
3401  2023-10-20 10:03:34.294217
3402  2023-10-20 10:03:34.326133
3403  2023-10-20 10:03:34.358211
3404  2023-10-20 10:03:34.407046
3405  2023-10-20 10:03:34.438963
3406  2023-10-20 10:03:34.470875
3407  2023-10-20 10:03:34.502790
3408  2023-10-20 10:03:34.534732
3409  2023-10-20 10:03:34.566651
3410  2023-10-20 10:03:34.598531
3411  2023-10-20 10:03:34.630505
3412  2023-10-20 10:03:34.662410
3413  2023-10-20 10:03:34.694304
3414  2023-10-20 10:03:34.726188
3415  2023-10-20 10:03:34.758144
3416  2023-10-20 10:03:34.805974
3417  2023-10-20 10:03:34.838128
3418  2023-10-20 10:03:34.870013
3419  2023-10-20 10:03:34.901926
3420  2023-10-20 10:03:34.933943
3421  2023-10-20 10:03:34.965807
3422  2023-10-20 10:03:34.997724
3423  2023-10-20 10:03:35.030666
3424  2023-10-20 10:03:35.062585
3425  2023-10-20 10:03:35.094499
3426  2023-10-20 10:03:35.126377
3427  2023-10-20 10:03:35.158325
3428  2023-10-20 10:03:35.206165
3429  2023-10-20 10:03:35.238072
3430  2023-10-20 10:03:35.269987
3431  2023-10-20 10:03:35.301920
3432  2023-10-20 10:03:35.333821
3433  2023-10-20 10:03:35.365731
3434  2023-10-20 10:03:35.398620
3435  2023-10-20 10:03:35.430525
3436  2023-10-20 10:03:35.462486
3437  2023-10-20 10:03:35.494416
3438  2023-10-20 10:03:35.526301
3439  2023-10-20 10:03:35.558182
3440  2023-10-20 10:03:35.606111
3441  2023-10-20 10:03:35.638023
3442  2023-10-20 10:03:35.669922
3443  2023-10-20 10:03:35.701830
3444  2023-10-20 10:03:35.733744
3445  2023-10-20 10:03:35.766625
3446  2023-10-20 10:03:35.798572
3447  2023-10-20 10:03:35.830484
3448  2023-10-20 10:03:35.862418
3449  2023-10-20 10:03:35.894314
3450  2023-10-20 10:03:35.926229
3451  2023-10-20 10:03:35.958143
3452  2023-10-20 10:03:36.006015
3453  2023-10-20 10:03:36.038929
3454  2023-10-20 10:03:36.069845
3455  2023-10-20 10:03:36.102757
3456  2023-10-20 10:03:36.134671
3457  2023-10-20 10:03:36.166586
3458  2023-10-20 10:03:36.197833
3459  2023-10-20 10:03:36.229787
3460  2023-10-20 10:03:36.262659
3461  2023-10-20 10:03:36.294573
3462  2023-10-20 10:03:36.325593
3463  2023-10-20 10:03:36.358503
3464  2023-10-20 10:03:36.406377
3465  2023-10-20 10:03:36.438307
3466  2023-10-20 10:03:36.470205
3467  2023-10-20 10:03:36.502087
3468  2023-10-20 10:03:36.534042
3469  2023-10-20 10:03:36.566005
3470  2023-10-20 10:03:36.597920
3471  2023-10-20 10:03:36.630873
3472  2023-10-20 10:03:36.662773
3473  2023-10-20 10:03:36.693692
3474  2023-10-20 10:03:36.726576
3475  2023-10-20 10:03:36.758491
3476  2023-10-20 10:03:36.806361
3477  2023-10-20 10:03:36.838309
3478  2023-10-20 10:03:36.870226
3479  2023-10-20 10:03:36.902154
3480  2023-10-20 10:03:36.934022
3481  2023-10-20 10:03:36.965967
3482  2023-10-20 10:03:36.997966
3483  2023-10-20 10:03:37.029920
3484  2023-10-20 10:03:37.061809
3485  2023-10-20 10:03:37.094713
3486  2023-10-20 10:03:37.126624
3487  2023-10-20 10:03:37.158539
3488  2023-10-20 10:03:37.206422
3489  2023-10-20 10:03:37.238293
3490  2023-10-20 10:03:37.270238
3491  2023-10-20 10:03:37.302154
3492  2023-10-20 10:03:37.334086
3493  2023-10-20 10:03:37.365978
3494  2023-10-20 10:03:37.397904
3495  2023-10-20 10:03:37.429806
3496  2023-10-20 10:03:37.461724
3497  2023-10-20 10:03:37.494642
3498  2023-10-20 10:03:37.525630
3499  2023-10-20 10:03:37.558506
3500  2023-10-20 10:03:37.606419
3501  2023-10-20 10:03:37.638344
3502  2023-10-20 10:03:37.670245
3503  2023-10-20 10:03:37.702147
3504  2023-10-20 10:03:37.734061
3505  2023-10-20 10:03:37.765996
3506  2023-10-20 10:03:37.797939
3507  2023-10-20 10:03:37.829780
3508  2023-10-20 10:03:37.861696
3509  2023-10-20 10:03:37.894639
3510  2023-10-20 10:03:37.926557
3511  2023-10-20 10:03:37.974456
3512  2023-10-20 10:03:38.006548
3513  2023-10-20 10:03:38.037588
3514  2023-10-20 10:03:38.069491
3515  2023-10-20 10:03:38.102437
3516  2023-10-20 10:03:38.134328
3517  2023-10-20 10:03:38.166210
3518  2023-10-20 10:03:38.198153
3519  2023-10-20 10:03:38.230035
3520  2023-10-20 10:03:38.261983
3521  2023-10-20 10:03:38.293921
3522  2023-10-20 10:03:38.325811
3523  2023-10-20 10:03:38.373683
3524  2023-10-20 10:03:38.406597
3525  2023-10-20 10:03:38.438477
3526  2023-10-20 10:03:38.470450
3527  2023-10-20 10:03:38.502343
3528  2023-10-20 10:03:38.534253
3529  2023-10-20 10:03:38.566168
3530  2023-10-20 10:03:38.598049
3531  2023-10-20 10:03:38.630078
3532  2023-10-20 10:03:38.661965
3533  2023-10-20 10:03:38.693878
3534  2023-10-20 10:03:38.726790
3535  2023-10-20 10:03:38.774679
3536  2023-10-20 10:03:38.806608
3537  2023-10-20 10:03:38.838492
3538  2023-10-20 10:03:38.870405
3539  2023-10-20 10:03:38.902357
3540  2023-10-20 10:03:38.934259
3541  2023-10-20 10:03:38.966154
3542  2023-10-20 10:03:38.998097
3543  2023-10-20 10:03:39.029978
3544  2023-10-20 10:03:39.062002
3545  2023-10-20 10:03:39.093917
3546  2023-10-20 10:03:39.126823
3547  2023-10-20 10:03:39.173664
3548  2023-10-20 10:03:39.205612
3549  2023-10-20 10:03:39.238492
3550  2023-10-20 10:03:39.270406
3551  2023-10-20 10:03:39.302381
3552  2023-10-20 10:03:39.334266
3553  2023-10-20 10:03:39.366176
3554  2023-10-20 10:03:39.398063
3555  2023-10-20 10:03:39.430028
3556  2023-10-20 10:03:39.461952
3557  2023-10-20 10:03:39.493849
3558  2023-10-20 10:03:39.525762
3559  2023-10-20 10:03:39.573650
3560  2023-10-20 10:03:39.606607
3561  2023-10-20 10:03:39.638532
