
1  2023-10-30 14:30:28.429305
2  2023-10-30 14:30:28.461220
3  2023-10-30 14:30:28.493191
4  2023-10-30 14:30:28.525156
5  2023-10-30 14:30:28.557039
6  2023-10-30 14:30:28.589977
7  2023-10-30 14:30:28.621898
8  2023-10-30 14:30:28.652898
9  2023-10-30 14:30:28.685811
10  2023-10-30 14:30:28.717770
11  2023-10-30 14:30:28.749640
12  2023-10-30 14:30:28.797330
13  2023-10-30 14:30:28.829236
14  2023-10-30 14:30:28.861212
15  2023-10-30 14:30:28.893068
16  2023-10-30 14:30:28.924983
17  2023-10-30 14:30:28.956942
18  2023-10-30 14:30:28.989941
19  2023-10-30 14:30:29.021896
20  2023-10-30 14:30:29.053810
21  2023-10-30 14:30:29.085685
22  2023-10-30 14:30:29.117625
23  2023-10-30 14:30:29.149514
24  2023-10-30 14:30:29.197386
25  2023-10-30 14:30:29.229320
26  2023-10-30 14:30:29.261215
27  2023-10-30 14:30:29.293130
28  2023-10-30 14:30:29.325362
29  2023-10-30 14:30:29.357341
30  2023-10-30 14:30:29.389257
31  2023-10-30 14:30:29.421139
32  2023-10-30 14:30:29.453052
33  2023-10-30 14:30:29.484967
34  2023-10-30 14:30:29.517883
35  2023-10-30 14:30:29.565752
36  2023-10-30 14:30:29.597666
37  2023-10-30 14:30:29.629581
38  2023-10-30 14:30:29.661525
39  2023-10-30 14:30:29.693441
40  2023-10-30 14:30:29.725418
41  2023-10-30 14:30:29.757322
42  2023-10-30 14:30:29.789254
43  2023-10-30 14:30:29.821205
44  2023-10-30 14:30:29.853151
45  2023-10-30 14:30:29.885107
46  2023-10-30 14:30:29.917120
47  2023-10-30 14:30:29.964935
48  2023-10-30 14:30:29.996853
49  2023-10-30 14:30:30.028765
50  2023-10-30 14:30:30.061769
51  2023-10-30 14:30:30.093644
52  2023-10-30 14:30:30.125557
53  2023-10-30 14:30:30.157503
54  2023-10-30 14:30:30.189388
55  2023-10-30 14:30:30.221346
56  2023-10-30 14:30:30.253285
57  2023-10-30 14:30:30.285231
58  2023-10-30 14:30:30.317117
59  2023-10-30 14:30:30.365033
60  2023-10-30 14:30:30.396956
61  2023-10-30 14:30:30.429813
62  2023-10-30 14:30:30.461775
63  2023-10-30 14:30:30.493676
64  2023-10-30 14:30:30.525582
65  2023-10-30 14:30:30.557472
66  2023-10-30 14:30:30.589416
67  2023-10-30 14:30:30.621301
68  2023-10-30 14:30:30.653216
69  2023-10-30 14:30:30.685251
70  2023-10-30 14:30:30.717182
71  2023-10-30 14:30:30.765055
72  2023-10-30 14:30:30.797919
73  2023-10-30 14:30:30.828880
74  2023-10-30 14:30:30.860875
75  2023-10-30 14:30:30.893752
76  2023-10-30 14:30:30.925667
77  2023-10-30 14:30:30.957637
78  2023-10-30 14:30:30.989552
79  2023-10-30 14:30:31.021466
80  2023-10-30 14:30:31.053381
81  2023-10-30 14:30:31.085344
82  2023-10-30 14:30:31.117292
83  2023-10-30 14:30:31.165131
84  2023-10-30 14:30:31.197046
85  2023-10-30 14:30:31.228960
86  2023-10-30 14:30:31.260878
87  2023-10-30 14:30:31.293822
88  2023-10-30 14:30:31.325787
89  2023-10-30 14:30:31.357686
90  2023-10-30 14:30:31.389600
91  2023-10-30 14:30:31.421514
92  2023-10-30 14:30:31.453422
93  2023-10-30 14:30:31.485344
94  2023-10-30 14:30:31.517263
95  2023-10-30 14:30:31.565344
96  2023-10-30 14:30:31.597274
97  2023-10-30 14:30:31.629216
98  2023-10-30 14:30:31.661055
99  2023-10-30 14:30:31.693015
100  2023-10-30 14:30:31.724933
101  2023-10-30 14:30:31.756846
102  2023-10-30 14:30:31.789742
103  2023-10-30 14:30:31.821665
104  2023-10-30 14:30:31.853573
105  2023-10-30 14:30:31.885454
106  2023-10-30 14:30:31.917400
107  2023-10-30 14:30:31.965375
108  2023-10-30 14:30:31.997290
109  2023-10-30 14:30:32.029232
110  2023-10-30 14:30:32.061141
111  2023-10-30 14:30:32.092997
112  2023-10-30 14:30:32.124958
113  2023-10-30 14:30:32.157892
114  2023-10-30 14:30:32.189772
115  2023-10-30 14:30:32.221700
116  2023-10-30 14:30:32.253614
117  2023-10-30 14:30:32.285529
118  2023-10-30 14:30:32.317385
119  2023-10-30 14:30:32.365265
120  2023-10-30 14:30:32.397225
121  2023-10-30 14:30:32.429148
122  2023-10-30 14:30:32.462056
123  2023-10-30 14:30:32.492972
124  2023-10-30 14:30:32.524992
125  2023-10-30 14:30:32.556893
126  2023-10-30 14:30:32.588790
127  2023-10-30 14:30:32.621723
128  2023-10-30 14:30:32.653637
129  2023-10-30 14:30:32.685549
130  2023-10-30 14:30:32.717480
131  2023-10-30 14:30:32.765397
132  2023-10-30 14:30:32.797398
133  2023-10-30 14:30:32.829268
134  2023-10-30 14:30:32.861150
135  2023-10-30 14:30:32.893103
136  2023-10-30 14:30:32.925043
137  2023-10-30 14:30:32.956924
138  2023-10-30 14:30:32.988855
139  2023-10-30 14:30:33.020865
140  2023-10-30 14:30:33.053780
141  2023-10-30 14:30:33.085695
142  2023-10-30 14:30:33.117609
143  2023-10-30 14:30:33.165447
144  2023-10-30 14:30:33.197362
145  2023-10-30 14:30:33.229311
146  2023-10-30 14:30:33.261236
147  2023-10-30 14:30:33.293152
148  2023-10-30 14:30:33.325063
149  2023-10-30 14:30:33.356969
150  2023-10-30 14:30:33.388883
151  2023-10-30 14:30:33.420905
152  2023-10-30 14:30:33.452838
153  2023-10-30 14:30:33.485771
154  2023-10-30 14:30:33.533573
155  2023-10-30 14:30:33.565488
156  2023-10-30 14:30:33.597441
157  2023-10-30 14:30:33.629348
158  2023-10-30 14:30:33.661272
159  2023-10-30 14:30:33.693218
160  2023-10-30 14:30:33.725144
161  2023-10-30 14:30:33.757053
162  2023-10-30 14:30:33.788932
163  2023-10-30 14:30:33.821844
164  2023-10-30 14:30:33.853852
165  2023-10-30 14:30:33.885758
166  2023-10-30 14:30:33.933600
167  2023-10-30 14:30:33.965514
168  2023-10-30 14:30:33.997429
169  2023-10-30 14:30:34.029377
170  2023-10-30 14:30:34.061305
171  2023-10-30 14:30:34.093222
172  2023-10-30 14:30:34.125127
173  2023-10-30 14:30:34.157051
174  2023-10-30 14:30:34.188954
175  2023-10-30 14:30:34.221864
176  2023-10-30 14:30:34.253811
177  2023-10-30 14:30:34.285713
178  2023-10-30 14:30:34.333531
179  2023-10-30 14:30:34.365541
180  2023-10-30 14:30:34.397532
181  2023-10-30 14:30:34.429489
182  2023-10-30 14:30:34.461394
183  2023-10-30 14:30:34.493366
184  2023-10-30 14:30:34.525292
185  2023-10-30 14:30:34.557206
186  2023-10-30 14:30:34.589262
187  2023-10-30 14:30:34.621161
188  2023-10-30 14:30:34.653044
189  2023-10-30 14:30:34.684990
190  2023-10-30 14:30:34.733828
191  2023-10-30 14:30:34.765752
192  2023-10-30 14:30:34.797664
193  2023-10-30 14:30:34.829572
194  2023-10-30 14:30:34.861523
195  2023-10-30 14:30:34.893432
196  2023-10-30 14:30:34.925352
197  2023-10-30 14:30:34.957272
198  2023-10-30 14:30:34.989177
199  2023-10-30 14:30:35.021092
200  2023-10-30 14:30:35.053006
201  2023-10-30 14:30:35.085887
202  2023-10-30 14:30:35.133760
203  2023-10-30 14:30:35.165674
204  2023-10-30 14:30:35.197588
205  2023-10-30 14:30:35.229536
206  2023-10-30 14:30:35.261420
207  2023-10-30 14:30:35.293334
208  2023-10-30 14:30:35.325273
209  2023-10-30 14:30:35.357328
210  2023-10-30 14:30:35.389234
211  2023-10-30 14:30:35.421705
212  2023-10-30 14:30:35.453680
213  2023-10-30 14:30:35.485542
214  2023-10-30 14:30:35.533459
215  2023-10-30 14:30:35.565455
216  2023-10-30 14:30:35.597337
217  2023-10-30 14:30:35.629250
218  2023-10-30 14:30:35.661255
219  2023-10-30 14:30:35.693177
220  2023-10-30 14:30:35.725049
221  2023-10-30 14:30:35.758013
222  2023-10-30 14:30:35.788929
223  2023-10-30 14:30:35.821838
224  2023-10-30 14:30:35.853767
225  2023-10-30 14:30:35.885653
226  2023-10-30 14:30:35.933492
227  2023-10-30 14:30:35.965439
228  2023-10-30 14:30:35.997321
229  2023-10-30 14:30:36.029617
230  2023-10-30 14:30:36.061655
231  2023-10-30 14:30:36.093559
232  2023-10-30 14:30:36.125514
233  2023-10-30 14:30:36.157485
234  2023-10-30 14:30:36.189386
235  2023-10-30 14:30:36.221320
236  2023-10-30 14:30:36.253236
237  2023-10-30 14:30:36.285137
238  2023-10-30 14:30:36.332968
239  2023-10-30 14:30:36.364883
240  2023-10-30 14:30:36.397795
241  2023-10-30 14:30:36.429767
242  2023-10-30 14:30:36.461390
243  2023-10-30 14:30:36.493304
244  2023-10-30 14:30:36.525188
245  2023-10-30 14:30:36.557140
246  2023-10-30 14:30:36.589334
247  2023-10-30 14:30:36.621304
248  2023-10-30 14:30:36.653265
249  2023-10-30 14:30:36.685331
250  2023-10-30 14:30:36.733259
251  2023-10-30 14:30:36.765222
252  2023-10-30 14:30:36.797089
253  2023-10-30 14:30:36.829003
254  2023-10-30 14:30:36.861292
255  2023-10-30 14:30:36.893214
256  2023-10-30 14:30:36.925141
257  2023-10-30 14:30:36.957000
258  2023-10-30 14:30:36.989913
259  2023-10-30 14:30:37.021109
260  2023-10-30 14:30:37.053155
261  2023-10-30 14:30:37.100966
262  2023-10-30 14:30:37.132880
263  2023-10-30 14:30:37.165792
264  2023-10-30 14:30:37.197707
265  2023-10-30 14:30:37.229651
266  2023-10-30 14:30:37.261609
267  2023-10-30 14:30:37.293576
268  2023-10-30 14:30:37.325495
269  2023-10-30 14:30:37.357402
270  2023-10-30 14:30:37.389316
271  2023-10-30 14:30:37.421232
272  2023-10-30 14:30:37.453154
273  2023-10-30 14:30:37.501985
274  2023-10-30 14:30:37.532901
275  2023-10-30 14:30:37.565820
276  2023-10-30 14:30:37.597728
277  2023-10-30 14:30:37.629687
278  2023-10-30 14:30:37.661558
279  2023-10-30 14:30:37.693507
280  2023-10-30 14:30:37.725418
281  2023-10-30 14:30:37.757355
282  2023-10-30 14:30:37.790265
283  2023-10-30 14:30:37.821252
284  2023-10-30 14:30:37.853254
285  2023-10-30 14:30:37.901802
286  2023-10-30 14:30:37.933717
287  2023-10-30 14:30:37.965633
288  2023-10-30 14:30:37.997546
289  2023-10-30 14:30:38.029492
290  2023-10-30 14:30:38.061409
291  2023-10-30 14:30:38.093321
292  2023-10-30 14:30:38.125213
293  2023-10-30 14:30:38.157155
294  2023-10-30 14:30:38.189075
295  2023-10-30 14:30:38.221003
296  2023-10-30 14:30:38.252897
297  2023-10-30 14:30:38.301776
298  2023-10-30 14:30:38.333648
299  2023-10-30 14:30:38.365562
300  2023-10-30 14:30:38.397477
301  2023-10-30 14:30:38.429423
302  2023-10-30 14:30:38.461336
303  2023-10-30 14:30:38.493270
304  2023-10-30 14:30:38.525136
305  2023-10-30 14:30:38.557102
306  2023-10-30 14:30:38.588997
307  2023-10-30 14:30:38.621923
308  2023-10-30 14:30:38.652867
309  2023-10-30 14:30:38.701779
310  2023-10-30 14:30:38.733693
311  2023-10-30 14:30:38.765548
312  2023-10-30 14:30:38.797493
313  2023-10-30 14:30:38.829464
314  2023-10-30 14:30:38.861357
315  2023-10-30 14:30:38.893279
316  2023-10-30 14:30:38.925190
317  2023-10-30 14:30:38.957099
318  2023-10-30 14:30:38.989028
319  2023-10-30 14:30:39.020961
320  2023-10-30 14:30:39.052876
321  2023-10-30 14:30:39.100799
322  2023-10-30 14:30:39.133711
323  2023-10-30 14:30:39.165626
324  2023-10-30 14:30:39.197659
325  2023-10-30 14:30:39.229610
326  2023-10-30 14:30:39.261528
327  2023-10-30 14:30:39.293438
328  2023-10-30 14:30:39.325352
329  2023-10-30 14:30:39.357266
330  2023-10-30 14:30:39.389182
331  2023-10-30 14:30:39.421092
332  2023-10-30 14:30:39.453035
333  2023-10-30 14:30:39.501958
334  2023-10-30 14:30:39.532874
335  2023-10-30 14:30:39.565798
336  2023-10-30 14:30:39.597700
337  2023-10-30 14:30:39.629618
338  2023-10-30 14:30:39.661563
339  2023-10-30 14:30:39.693516
340  2023-10-30 14:30:39.725526
341  2023-10-30 14:30:39.757532
342  2023-10-30 14:30:39.789393
343  2023-10-30 14:30:39.821348
344  2023-10-30 14:30:39.853272
345  2023-10-30 14:30:39.901219
346  2023-10-30 14:30:39.933165
347  2023-10-30 14:30:39.965049
348  2023-10-30 14:30:39.996963
349  2023-10-30 14:30:40.028911
350  2023-10-30 14:30:40.060793
351  2023-10-30 14:30:40.093778
352  2023-10-30 14:30:40.125653
353  2023-10-30 14:30:40.157534
354  2023-10-30 14:30:40.189483
355  2023-10-30 14:30:40.221398
356  2023-10-30 14:30:40.253325
357  2023-10-30 14:30:40.301185
358  2023-10-30 14:30:40.333065
359  2023-10-30 14:30:40.364980
360  2023-10-30 14:30:40.396894
361  2023-10-30 14:30:40.429852
362  2023-10-30 14:30:40.461754
363  2023-10-30 14:30:40.493636
364  2023-10-30 14:30:40.525584
365  2023-10-30 14:30:40.557497
366  2023-10-30 14:30:40.589412
367  2023-10-30 14:30:40.621325
368  2023-10-30 14:30:40.653245
369  2023-10-30 14:30:40.701081
370  2023-10-30 14:30:40.732996
371  2023-10-30 14:30:40.764911
372  2023-10-30 14:30:40.797826
373  2023-10-30 14:30:40.829819
374  2023-10-30 14:30:40.861685
375  2023-10-30 14:30:40.893608
376  2023-10-30 14:30:40.925514
377  2023-10-30 14:30:40.957451
378  2023-10-30 14:30:40.989343
379  2023-10-30 14:30:41.021267
380  2023-10-30 14:30:41.069097
381  2023-10-30 14:30:41.101012
382  2023-10-30 14:30:41.132927
383  2023-10-30 14:30:41.164841
384  2023-10-30 14:30:41.197757
385  2023-10-30 14:30:41.229668
386  2023-10-30 14:30:41.261614
387  2023-10-30 14:30:41.293528
388  2023-10-30 14:30:41.325444
389  2023-10-30 14:30:41.357359
390  2023-10-30 14:30:41.389288
391  2023-10-30 14:30:41.421156
392  2023-10-30 14:30:41.469108
393  2023-10-30 14:30:41.501023
394  2023-10-30 14:30:41.533935
395  2023-10-30 14:30:41.565850
396  2023-10-30 14:30:41.597886
397  2023-10-30 14:30:41.628830
398  2023-10-30 14:30:41.661770
399  2023-10-30 14:30:41.693675
400  2023-10-30 14:30:41.725564
401  2023-10-30 14:30:41.757491
402  2023-10-30 14:30:41.789362
403  2023-10-30 14:30:41.821336
404  2023-10-30 14:30:41.869203
405  2023-10-30 14:30:41.901199
406  2023-10-30 14:30:41.933116
407  2023-10-30 14:30:41.966027
408  2023-10-30 14:30:41.997941
409  2023-10-30 14:30:42.029856
410  2023-10-30 14:30:42.061803
411  2023-10-30 14:30:42.093716
412  2023-10-30 14:30:42.125600
413  2023-10-30 14:30:42.157689
414  2023-10-30 14:30:42.189702
415  2023-10-30 14:30:42.221636
416  2023-10-30 14:30:42.269445
417  2023-10-30 14:30:42.301392
418  2023-10-30 14:30:42.333279
419  2023-10-30 14:30:42.365189
420  2023-10-30 14:30:42.397103
421  2023-10-30 14:30:42.429065
422  2023-10-30 14:30:42.461932
423  2023-10-30 14:30:42.492949
424  2023-10-30 14:30:42.525862
425  2023-10-30 14:30:42.557779
426  2023-10-30 14:30:42.589791
427  2023-10-30 14:30:42.621702
428  2023-10-30 14:30:42.669575
429  2023-10-30 14:30:42.701447
430  2023-10-30 14:30:42.733359
431  2023-10-30 14:30:42.765275
432  2023-10-30 14:30:42.797190
433  2023-10-30 14:30:42.829104
434  2023-10-30 14:30:42.861017
435  2023-10-30 14:30:42.892971
436  2023-10-30 14:30:42.925900
437  2023-10-30 14:30:42.957760
438  2023-10-30 14:30:42.989674
439  2023-10-30 14:30:43.021590
440  2023-10-30 14:30:43.069462
441  2023-10-30 14:30:43.101415
442  2023-10-30 14:30:43.133290
443  2023-10-30 14:30:43.165214
444  2023-10-30 14:30:43.197235
445  2023-10-30 14:30:43.229128
446  2023-10-30 14:30:43.262088
447  2023-10-30 14:30:43.292952
448  2023-10-30 14:30:43.325882
449  2023-10-30 14:30:43.357785
450  2023-10-30 14:30:43.389698
451  2023-10-30 14:30:43.421625
452  2023-10-30 14:30:43.469500
453  2023-10-30 14:30:43.501365
454  2023-10-30 14:30:43.533352
455  2023-10-30 14:30:43.565260
456  2023-10-30 14:30:43.597269
457  2023-10-30 14:30:43.629155
458  2023-10-30 14:30:43.661130
459  2023-10-30 14:30:43.693033
460  2023-10-30 14:30:43.724931
461  2023-10-30 14:30:43.757858
462  2023-10-30 14:30:43.789761
463  2023-10-30 14:30:43.821671
464  2023-10-30 14:30:43.869542
465  2023-10-30 14:30:43.901457
466  2023-10-30 14:30:43.933376
467  2023-10-30 14:30:43.965254
468  2023-10-30 14:30:43.998169
469  2023-10-30 14:30:44.029146
470  2023-10-30 14:30:44.061052
471  2023-10-30 14:30:44.093980
472  2023-10-30 14:30:44.125890
473  2023-10-30 14:30:44.157823
474  2023-10-30 14:30:44.189687
475  2023-10-30 14:30:44.221603
476  2023-10-30 14:30:44.269474
477  2023-10-30 14:30:44.301373
478  2023-10-30 14:30:44.333297
479  2023-10-30 14:30:44.365338
480  2023-10-30 14:30:44.397234
481  2023-10-30 14:30:44.429226
482  2023-10-30 14:30:44.461154
483  2023-10-30 14:30:44.493048
484  2023-10-30 14:30:44.524947
485  2023-10-30 14:30:44.557866
486  2023-10-30 14:30:44.588747
487  2023-10-30 14:30:44.637709
488  2023-10-30 14:30:44.669617
489  2023-10-30 14:30:44.701601
490  2023-10-30 14:30:44.733522
491  2023-10-30 14:30:44.765431
492  2023-10-30 14:30:44.797353
493  2023-10-30 14:30:44.829287
494  2023-10-30 14:30:44.861184
495  2023-10-30 14:30:44.893094
496  2023-10-30 14:30:44.925019
497  2023-10-30 14:30:44.956937
498  2023-10-30 14:30:44.988848
499  2023-10-30 14:30:45.037669
500  2023-10-30 14:30:45.069615
501  2023-10-30 14:30:45.101529
502  2023-10-30 14:30:45.133459
503  2023-10-30 14:30:45.165327
504  2023-10-30 14:30:45.197307
505  2023-10-30 14:30:45.229188
506  2023-10-30 14:30:45.261118
507  2023-10-30 14:30:45.293018
508  2023-10-30 14:30:45.325934
509  2023-10-30 14:30:45.356846
510  2023-10-30 14:30:45.389787
511  2023-10-30 14:30:45.437600
512  2023-10-30 14:30:45.469547
513  2023-10-30 14:30:45.501462
514  2023-10-30 14:30:45.533374
515  2023-10-30 14:30:45.565291
516  2023-10-30 14:30:45.597234
517  2023-10-30 14:30:45.629146
518  2023-10-30 14:30:45.661035
519  2023-10-30 14:30:45.692952
520  2023-10-30 14:30:45.724864
521  2023-10-30 14:30:45.757747
522  2023-10-30 14:30:45.789705
523  2023-10-30 14:30:45.837530
524  2023-10-30 14:30:45.869445
525  2023-10-30 14:30:45.901392
526  2023-10-30 14:30:45.933311
527  2023-10-30 14:30:45.965242
528  2023-10-30 14:30:45.997140
529  2023-10-30 14:30:46.029051
530  2023-10-30 14:30:46.060984
531  2023-10-30 14:30:46.092883
532  2023-10-30 14:30:46.125826
533  2023-10-30 14:30:46.157710
534  2023-10-30 14:30:46.189659
535  2023-10-30 14:30:46.237619
536  2023-10-30 14:30:46.269571
537  2023-10-30 14:30:46.301447
538  2023-10-30 14:30:46.333361
539  2023-10-30 14:30:46.365294
540  2023-10-30 14:30:46.398214
541  2023-10-30 14:30:46.429105
542  2023-10-30 14:30:46.461020
543  2023-10-30 14:30:46.493961
544  2023-10-30 14:30:46.525847
545  2023-10-30 14:30:46.557801
546  2023-10-30 14:30:46.589679
547  2023-10-30 14:30:46.637516
548  2023-10-30 14:30:46.669464
549  2023-10-30 14:30:46.701376
550  2023-10-30 14:30:46.733262
551  2023-10-30 14:30:46.765224
552  2023-10-30 14:30:46.797159
553  2023-10-30 14:30:46.829048
554  2023-10-30 14:30:46.860953
555  2023-10-30 14:30:46.893835
556  2023-10-30 14:30:46.925785
557  2023-10-30 14:30:46.957706
558  2023-10-30 14:30:46.989609
559  2023-10-30 14:30:47.037447
560  2023-10-30 14:30:47.069404
561  2023-10-30 14:30:47.101310
562  2023-10-30 14:30:47.134190
563  2023-10-30 14:30:47.165144
564  2023-10-30 14:30:47.197020
565  2023-10-30 14:30:47.228970
566  2023-10-30 14:30:47.261849
567  2023-10-30 14:30:47.293834
568  2023-10-30 14:30:47.325712
569  2023-10-30 14:30:47.357711
570  2023-10-30 14:30:47.389670
571  2023-10-30 14:30:47.437556
572  2023-10-30 14:30:47.469454
573  2023-10-30 14:30:47.501368
574  2023-10-30 14:30:47.533289
575  2023-10-30 14:30:47.565200
576  2023-10-30 14:30:47.597141
577  2023-10-30 14:30:47.629037
578  2023-10-30 14:30:47.660952
579  2023-10-30 14:30:47.692858
580  2023-10-30 14:30:47.725783
581  2023-10-30 14:30:47.757688
582  2023-10-30 14:30:47.789603
583  2023-10-30 14:30:47.837480
584  2023-10-30 14:30:47.869354
585  2023-10-30 14:30:47.901268
586  2023-10-30 14:30:47.933218
587  2023-10-30 14:30:47.965141
588  2023-10-30 14:30:47.997043
589  2023-10-30 14:30:48.028958
590  2023-10-30 14:30:48.061914
591  2023-10-30 14:30:48.093831
592  2023-10-30 14:30:48.125706
593  2023-10-30 14:30:48.157617
594  2023-10-30 14:30:48.205488
595  2023-10-30 14:30:48.237400
596  2023-10-30 14:30:48.269332
597  2023-10-30 14:30:48.301247
598  2023-10-30 14:30:48.333155
599  2023-10-30 14:30:48.365065
600  2023-10-30 14:30:48.396976
601  2023-10-30 14:30:48.429907
602  2023-10-30 14:30:48.461826
603  2023-10-30 14:30:48.493710
604  2023-10-30 14:30:48.525632
605  2023-10-30 14:30:48.557550
606  2023-10-30 14:30:48.605419
607  2023-10-30 14:30:48.637332
608  2023-10-30 14:30:48.669215
609  2023-10-30 14:30:48.701130
610  2023-10-30 14:30:48.733087
611  2023-10-30 14:30:48.765015
612  2023-10-30 14:30:48.796906
613  2023-10-30 14:30:48.829815
614  2023-10-30 14:30:48.861730
615  2023-10-30 14:30:48.893654
616  2023-10-30 14:30:48.925567
617  2023-10-30 14:30:48.957485
618  2023-10-30 14:30:49.005350
619  2023-10-30 14:30:49.037281
620  2023-10-30 14:30:49.069146
621  2023-10-30 14:30:49.101061
622  2023-10-30 14:30:49.133010
623  2023-10-30 14:30:49.164925
624  2023-10-30 14:30:49.197803
625  2023-10-30 14:30:49.229783
626  2023-10-30 14:30:49.261667
627  2023-10-30 14:30:49.293582
628  2023-10-30 14:30:49.325494
629  2023-10-30 14:30:49.357407
630  2023-10-30 14:30:49.405285
631  2023-10-30 14:30:49.437198
632  2023-10-30 14:30:49.469108
633  2023-10-30 14:30:49.500992
634  2023-10-30 14:30:49.532907
635  2023-10-30 14:30:49.564855
636  2023-10-30 14:30:49.597734
637  2023-10-30 14:30:49.629706
638  2023-10-30 14:30:49.661598
639  2023-10-30 14:30:49.693510
640  2023-10-30 14:30:49.725424
641  2023-10-30 14:30:49.757350
642  2023-10-30 14:30:49.805206
643  2023-10-30 14:30:49.837152
644  2023-10-30 14:30:49.869008
645  2023-10-30 14:30:49.900923
646  2023-10-30 14:30:49.932872
647  2023-10-30 14:30:49.965777
648  2023-10-30 14:30:49.997786
649  2023-10-30 14:30:50.029741
650  2023-10-30 14:30:50.061649
651  2023-10-30 14:30:50.093561
652  2023-10-30 14:30:50.125477
653  2023-10-30 14:30:50.157392
654  2023-10-30 14:30:50.205232
655  2023-10-30 14:30:50.237146
656  2023-10-30 14:30:50.269188
657  2023-10-30 14:30:50.301102
658  2023-10-30 14:30:50.333017
659  2023-10-30 14:30:50.365929
660  2023-10-30 14:30:50.396920
661  2023-10-30 14:30:50.428875
662  2023-10-30 14:30:50.461787
663  2023-10-30 14:30:50.493709
664  2023-10-30 14:30:50.525611
665  2023-10-30 14:30:50.557524
666  2023-10-30 14:30:50.605363
667  2023-10-30 14:30:50.637278
668  2023-10-30 14:30:50.669192
669  2023-10-30 14:30:50.701107
670  2023-10-30 14:30:50.733022
671  2023-10-30 14:30:50.764937
672  2023-10-30 14:30:50.796851
673  2023-10-30 14:30:50.829765
674  2023-10-30 14:30:50.861708
675  2023-10-30 14:30:50.893632
676  2023-10-30 14:30:50.925684
677  2023-10-30 14:30:50.957552
678  2023-10-30 14:30:51.005505
679  2023-10-30 14:30:51.037419
680  2023-10-30 14:30:51.069334
681  2023-10-30 14:30:51.101249
682  2023-10-30 14:30:51.133214
683  2023-10-30 14:30:51.165081
684  2023-10-30 14:30:51.196993
685  2023-10-30 14:30:51.228939
686  2023-10-30 14:30:51.260876
687  2023-10-30 14:30:51.293767
688  2023-10-30 14:30:51.325711
689  2023-10-30 14:30:51.357596
690  2023-10-30 14:30:51.405436
691  2023-10-30 14:30:51.437350
692  2023-10-30 14:30:51.469302
693  2023-10-30 14:30:51.501211
694  2023-10-30 14:30:51.533094
695  2023-10-30 14:30:51.565009
696  2023-10-30 14:30:51.596972
697  2023-10-30 14:30:51.628886
698  2023-10-30 14:30:51.661794
699  2023-10-30 14:30:51.693665
700  2023-10-30 14:30:51.725613
701  2023-10-30 14:30:51.757540
702  2023-10-30 14:30:51.805393
703  2023-10-30 14:30:51.837317
704  2023-10-30 14:30:51.869196
705  2023-10-30 14:30:51.901111
706  2023-10-30 14:30:51.933073
707  2023-10-30 14:30:51.964993
708  2023-10-30 14:30:51.996855
709  2023-10-30 14:30:52.028822
710  2023-10-30 14:30:52.061738
711  2023-10-30 14:30:52.093639
712  2023-10-30 14:30:52.125542
713  2023-10-30 14:30:52.173383
714  2023-10-30 14:30:52.205297
715  2023-10-30 14:30:52.237301
716  2023-10-30 14:30:52.269283
717  2023-10-30 14:30:52.301198
718  2023-10-30 14:30:52.333113
719  2023-10-30 14:30:52.365027
720  2023-10-30 14:30:52.396942
721  2023-10-30 14:30:52.428899
722  2023-10-30 14:30:52.461835
723  2023-10-30 14:30:52.493716
724  2023-10-30 14:30:52.525632
725  2023-10-30 14:30:52.573554
726  2023-10-30 14:30:52.605469
727  2023-10-30 14:30:52.637384
728  2023-10-30 14:30:52.669298
729  2023-10-30 14:30:52.701213
730  2023-10-30 14:30:52.733013
731  2023-10-30 14:30:52.764960
732  2023-10-30 14:30:52.797872
733  2023-10-30 14:30:52.828839
734  2023-10-30 14:30:52.861737
735  2023-10-30 14:30:52.893689
736  2023-10-30 14:30:52.925531
737  2023-10-30 14:30:52.973403
738  2023-10-30 14:30:53.005320
739  2023-10-30 14:30:53.037233
740  2023-10-30 14:30:53.069147
741  2023-10-30 14:30:53.101062
742  2023-10-30 14:30:53.133011
743  2023-10-30 14:30:53.164891
744  2023-10-30 14:30:53.197803
745  2023-10-30 14:30:53.229777
746  2023-10-30 14:30:53.261667
747  2023-10-30 14:30:53.293579
748  2023-10-30 14:30:53.325490
749  2023-10-30 14:30:53.373334
750  2023-10-30 14:30:53.405249
751  2023-10-30 14:30:53.437163
752  2023-10-30 14:30:53.469142
753  2023-10-30 14:30:53.500993
754  2023-10-30 14:30:53.532907
755  2023-10-30 14:30:53.565820
756  2023-10-30 14:30:53.596898
757  2023-10-30 14:30:53.628803
758  2023-10-30 14:30:53.661722
759  2023-10-30 14:30:53.693634
760  2023-10-30 14:30:53.725634
761  2023-10-30 14:30:53.773143
762  2023-10-30 14:30:53.805088
763  2023-10-30 14:30:53.836972
764  2023-10-30 14:30:53.868887
765  2023-10-30 14:30:53.900802
766  2023-10-30 14:30:53.933714
767  2023-10-30 14:30:53.965628
768  2023-10-30 14:30:53.997543
769  2023-10-30 14:30:54.029490
770  2023-10-30 14:30:54.061406
771  2023-10-30 14:30:54.093318
772  2023-10-30 14:30:54.125238
773  2023-10-30 14:30:54.173161
774  2023-10-30 14:30:54.205075
775  2023-10-30 14:30:54.236990
776  2023-10-30 14:30:54.268905
777  2023-10-30 14:30:54.301817
778  2023-10-30 14:30:54.333731
779  2023-10-30 14:30:54.365764
780  2023-10-30 14:30:54.397679
781  2023-10-30 14:30:54.429629
782  2023-10-30 14:30:54.461536
783  2023-10-30 14:30:54.493454
784  2023-10-30 14:30:54.525338
785  2023-10-30 14:30:54.573213
786  2023-10-30 14:30:54.605251
787  2023-10-30 14:30:54.637150
788  2023-10-30 14:30:54.669079
789  2023-10-30 14:30:54.700979
790  2023-10-30 14:30:54.733891
791  2023-10-30 14:30:54.764808
792  2023-10-30 14:30:54.797772
793  2023-10-30 14:30:54.828824
794  2023-10-30 14:30:54.861726
795  2023-10-30 14:30:54.893641
796  2023-10-30 14:30:54.925557
797  2023-10-30 14:30:54.973467
798  2023-10-30 14:30:55.005417
799  2023-10-30 14:30:55.037296
800  2023-10-30 14:30:55.069259
801  2023-10-30 14:30:55.101225
802  2023-10-30 14:30:55.133157
803  2023-10-30 14:30:55.165071
804  2023-10-30 14:30:55.197950
805  2023-10-30 14:30:55.228918
806  2023-10-30 14:30:55.260883
807  2023-10-30 14:30:55.292799
808  2023-10-30 14:30:55.325715
809  2023-10-30 14:30:55.373536
810  2023-10-30 14:30:55.405451
811  2023-10-30 14:30:55.437366
812  2023-10-30 14:30:55.469315
813  2023-10-30 14:30:55.501280
814  2023-10-30 14:30:55.533263
815  2023-10-30 14:30:55.565178
816  2023-10-30 14:30:55.597092
817  2023-10-30 14:30:55.629038
818  2023-10-30 14:30:55.660953
819  2023-10-30 14:30:55.693977
820  2023-10-30 14:30:55.740820
821  2023-10-30 14:30:55.773732
822  2023-10-30 14:30:55.805722
823  2023-10-30 14:30:55.837637
824  2023-10-30 14:30:55.869551
825  2023-10-30 14:30:55.901466
826  2023-10-30 14:30:55.933381
827  2023-10-30 14:30:55.965295
828  2023-10-30 14:30:55.997210
829  2023-10-30 14:30:56.029179
830  2023-10-30 14:30:56.061039
831  2023-10-30 14:30:56.127893
832  2023-10-30 14:30:56.140831
833  2023-10-30 14:30:56.173509
834  2023-10-30 14:30:56.204979
835  2023-10-30 14:30:56.236894
836  2023-10-30 14:30:56.268809
837  2023-10-30 14:30:56.301721
838  2023-10-30 14:30:56.333635
839  2023-10-30 14:30:56.365550
840  2023-10-30 14:30:56.397465
841  2023-10-30 14:30:56.429411
842  2023-10-30 14:30:56.461458
843  2023-10-30 14:30:56.493416
844  2023-10-30 14:30:56.541226
845  2023-10-30 14:30:56.573129
846  2023-10-30 14:30:56.605044
847  2023-10-30 14:30:56.636959
848  2023-10-30 14:30:56.669871
849  2023-10-30 14:30:56.701920
850  2023-10-30 14:30:56.733836
851  2023-10-30 14:30:56.765749
852  2023-10-30 14:30:56.797786
853  2023-10-30 14:30:56.829687
854  2023-10-30 14:30:56.861586
855  2023-10-30 14:30:56.893532
856  2023-10-30 14:30:56.941471
857  2023-10-30 14:30:56.973419
858  2023-10-30 14:30:57.005332
859  2023-10-30 14:30:57.037215
860  2023-10-30 14:30:57.069130
861  2023-10-30 14:30:57.101076
862  2023-10-30 14:30:57.133956
863  2023-10-30 14:30:57.165871
864  2023-10-30 14:30:57.197788
865  2023-10-30 14:30:57.229771
866  2023-10-30 14:30:57.261652
867  2023-10-30 14:30:57.293562
868  2023-10-30 14:30:57.341402
869  2023-10-30 14:30:57.373317
870  2023-10-30 14:30:57.405231
871  2023-10-30 14:30:57.437853
872  2023-10-30 14:30:57.469769
873  2023-10-30 14:30:57.501683
874  2023-10-30 14:30:57.533597
875  2023-10-30 14:30:57.565512
876  2023-10-30 14:30:57.597427
877  2023-10-30 14:30:57.630359
878  2023-10-30 14:30:57.661285
879  2023-10-30 14:30:57.693171
880  2023-10-30 14:30:57.742041
881  2023-10-30 14:30:57.773956
882  2023-10-30 14:30:57.805997
883  2023-10-30 14:30:57.838401
884  2023-10-30 14:30:57.869315
885  2023-10-30 14:30:57.901230
886  2023-10-30 14:30:57.934153
887  2023-10-30 14:30:57.966096
888  2023-10-30 14:30:57.997972
889  2023-10-30 14:30:58.029914
890  2023-10-30 14:30:58.061861
891  2023-10-30 14:30:58.093715
892  2023-10-30 14:30:58.141588
893  2023-10-30 14:30:58.173536
894  2023-10-30 14:30:58.205417
895  2023-10-30 14:30:58.237363
896  2023-10-30 14:30:58.269369
897  2023-10-30 14:30:58.301326
898  2023-10-30 14:30:58.333203
899  2023-10-30 14:30:58.365113
900  2023-10-30 14:30:58.398027
901  2023-10-30 14:30:58.428993
902  2023-10-30 14:30:58.461857
903  2023-10-30 14:30:58.493777
904  2023-10-30 14:30:58.541643
905  2023-10-30 14:30:58.573557
906  2023-10-30 14:30:58.605479
907  2023-10-30 14:30:58.637414
908  2023-10-30 14:30:58.669369
909  2023-10-30 14:30:58.701261
910  2023-10-30 14:30:58.733178
911  2023-10-30 14:30:58.765045
912  2023-10-30 14:30:58.797957
913  2023-10-30 14:30:58.829748
914  2023-10-30 14:30:58.861750
915  2023-10-30 14:30:58.893835
916  2023-10-30 14:30:58.941624
917  2023-10-30 14:30:58.973572
918  2023-10-30 14:30:59.005485
919  2023-10-30 14:30:59.037367
920  2023-10-30 14:30:59.069281
921  2023-10-30 14:30:59.101238
922  2023-10-30 14:30:59.133111
923  2023-10-30 14:30:59.165074
924  2023-10-30 14:30:59.197939
925  2023-10-30 14:30:59.228923
926  2023-10-30 14:30:59.261792
927  2023-10-30 14:30:59.293717
928  2023-10-30 14:30:59.341555
929  2023-10-30 14:30:59.373503
930  2023-10-30 14:30:59.405383
931  2023-10-30 14:30:59.437330
932  2023-10-30 14:30:59.469279
933  2023-10-30 14:30:59.501187
934  2023-10-30 14:30:59.533043
935  2023-10-30 14:30:59.564956
936  2023-10-30 14:30:59.596901
937  2023-10-30 14:30:59.629814
938  2023-10-30 14:30:59.661699
939  2023-10-30 14:30:59.709630
940  2023-10-30 14:30:59.741550
941  2023-10-30 14:30:59.773513
942  2023-10-30 14:30:59.805380
943  2023-10-30 14:30:59.837295
944  2023-10-30 14:30:59.869212
945  2023-10-30 14:30:59.901125
946  2023-10-30 14:30:59.933132
947  2023-10-30 14:30:59.965063
948  2023-10-30 14:30:59.996952
949  2023-10-30 14:31:00.028868
950  2023-10-30 14:31:00.061782
951  2023-10-30 14:31:00.109668
952  2023-10-30 14:31:00.141534
953  2023-10-30 14:31:00.173488
954  2023-10-30 14:31:00.205363
955  2023-10-30 14:31:00.237311
956  2023-10-30 14:31:00.269257
957  2023-10-30 14:31:00.301143
958  2023-10-30 14:31:00.333066
959  2023-10-30 14:31:00.364937
960  2023-10-30 14:31:00.397902
961  2023-10-30 14:31:00.429832
962  2023-10-30 14:31:00.461626
963  2023-10-30 14:31:00.509600
964  2023-10-30 14:31:00.541516
965  2023-10-30 14:31:00.573429
966  2023-10-30 14:31:00.605345
967  2023-10-30 14:31:00.637227
968  2023-10-30 14:31:00.669229
969  2023-10-30 14:31:00.701264
970  2023-10-30 14:31:00.733169
971  2023-10-30 14:31:00.765024
972  2023-10-30 14:31:00.796939
973  2023-10-30 14:31:00.829921
974  2023-10-30 14:31:00.861838
975  2023-10-30 14:31:00.909673
976  2023-10-30 14:31:00.941583
977  2023-10-30 14:31:00.973503
978  2023-10-30 14:31:01.005416
979  2023-10-30 14:31:01.037297
980  2023-10-30 14:31:01.069278
981  2023-10-30 14:31:01.101164
982  2023-10-30 14:31:01.134087
983  2023-10-30 14:31:01.165990
984  2023-10-30 14:31:01.196870
985  2023-10-30 14:31:01.228861
986  2023-10-30 14:31:01.261956
987  2023-10-30 14:31:01.309818
988  2023-10-30 14:31:01.341722
989  2023-10-30 14:31:01.373616
990  2023-10-30 14:31:01.405520
991  2023-10-30 14:31:01.437404
992  2023-10-30 14:31:01.469344
993  2023-10-30 14:31:01.501295
994  2023-10-30 14:31:01.533349
995  2023-10-30 14:31:01.565264
996  2023-10-30 14:31:01.597199
997  2023-10-30 14:31:01.629079
998  2023-10-30 14:31:01.661005
999  2023-10-30 14:31:01.726785
1000  2023-10-30 14:31:01.741787
1001  2023-10-30 14:31:01.773816
1002  2023-10-30 14:31:01.805714
1003  2023-10-30 14:31:01.837624
1004  2023-10-30 14:31:01.869511
1005  2023-10-30 14:31:01.901460
1006  2023-10-30 14:31:01.933379
1007  2023-10-30 14:31:01.965301
1008  2023-10-30 14:31:01.997210
1009  2023-10-30 14:31:02.029136
1010  2023-10-30 14:31:02.062050
1011  2023-10-30 14:31:02.108920
1012  2023-10-30 14:31:02.141818
1013  2023-10-30 14:31:02.173851
1014  2023-10-30 14:31:02.205711
1015  2023-10-30 14:31:02.237626
1016  2023-10-30 14:31:02.269597
1017  2023-10-30 14:31:02.301491
1018  2023-10-30 14:31:02.333404
1019  2023-10-30 14:31:02.365407
1020  2023-10-30 14:31:02.397302
1021  2023-10-30 14:31:02.429235
1022  2023-10-30 14:31:02.461164
1023  2023-10-30 14:31:02.509124
1024  2023-10-30 14:31:02.541042
1025  2023-10-30 14:31:02.572956
1026  2023-10-30 14:31:02.605849
1027  2023-10-30 14:31:02.637652
1028  2023-10-30 14:31:02.669684
1029  2023-10-30 14:31:02.701608
1030  2023-10-30 14:31:02.733654
1031  2023-10-30 14:31:02.765661
1032  2023-10-30 14:31:02.797593
1033  2023-10-30 14:31:02.829526
1034  2023-10-30 14:31:02.861445
1035  2023-10-30 14:31:02.909422
1036  2023-10-30 14:31:02.941377
1037  2023-10-30 14:31:02.973302
1038  2023-10-30 14:31:03.005210
1039  2023-10-30 14:31:03.037154
1040  2023-10-30 14:31:03.069078
1041  2023-10-30 14:31:03.101027
1042  2023-10-30 14:31:03.132971
1043  2023-10-30 14:31:03.165900
1044  2023-10-30 14:31:03.197801
1045  2023-10-30 14:31:03.229769
1046  2023-10-30 14:31:03.277624
1047  2023-10-30 14:31:03.309576
1048  2023-10-30 14:31:03.340846
1049  2023-10-30 14:31:03.373767
1050  2023-10-30 14:31:03.405671
1051  2023-10-30 14:31:03.437586
1052  2023-10-30 14:31:03.469472
1053  2023-10-30 14:31:03.501385
1054  2023-10-30 14:31:03.533334
1055  2023-10-30 14:31:03.565281
1056  2023-10-30 14:31:03.597162
1057  2023-10-30 14:31:03.630042
1058  2023-10-30 14:31:03.677913
1059  2023-10-30 14:31:03.709828
1060  2023-10-30 14:31:03.740745
1061  2023-10-30 14:31:03.773688
1062  2023-10-30 14:31:03.805328
1063  2023-10-30 14:31:03.837349
1064  2023-10-30 14:31:03.869231
1065  2023-10-30 14:31:03.901148
1066  2023-10-30 14:31:03.933106
1067  2023-10-30 14:31:03.965006
1068  2023-10-30 14:31:03.997912
1069  2023-10-30 14:31:04.028851
1070  2023-10-30 14:31:04.077715
1071  2023-10-30 14:31:04.109625
1072  2023-10-30 14:31:04.141532
1073  2023-10-30 14:31:04.173450
1074  2023-10-30 14:31:04.205380
1075  2023-10-30 14:31:04.237278
1076  2023-10-30 14:31:04.269160
1077  2023-10-30 14:31:04.301137
1078  2023-10-30 14:31:04.334018
1079  2023-10-30 14:31:04.365932
1080  2023-10-30 14:31:04.397856
1081  2023-10-30 14:31:04.429771
1082  2023-10-30 14:31:04.477635
1083  2023-10-30 14:31:04.509519
1084  2023-10-30 14:31:04.541464
1085  2023-10-30 14:31:04.573378
1086  2023-10-30 14:31:04.605299
1087  2023-10-30 14:31:04.637222
1088  2023-10-30 14:31:04.669091
1089  2023-10-30 14:31:04.701038
1090  2023-10-30 14:31:04.732968
1091  2023-10-30 14:31:04.765915
1092  2023-10-30 14:31:04.797805
1093  2023-10-30 14:31:04.829692
1094  2023-10-30 14:31:04.877583
1095  2023-10-30 14:31:04.909448
1096  2023-10-30 14:31:04.941396
1097  2023-10-30 14:31:04.973313
1098  2023-10-30 14:31:05.005252
1099  2023-10-30 14:31:05.037152
1100  2023-10-30 14:31:05.069021
1101  2023-10-30 14:31:05.100984
1102  2023-10-30 14:31:05.132884
1103  2023-10-30 14:31:05.165864
1104  2023-10-30 14:31:05.197796
1105  2023-10-30 14:31:05.229681
1106  2023-10-30 14:31:05.277553
1107  2023-10-30 14:31:05.309495
1108  2023-10-30 14:31:05.341484
1109  2023-10-30 14:31:05.373430
1110  2023-10-30 14:31:05.405345
1111  2023-10-30 14:31:05.437257
1112  2023-10-30 14:31:05.469175
1113  2023-10-30 14:31:05.501057
1114  2023-10-30 14:31:05.532972
1115  2023-10-30 14:31:05.564920
1116  2023-10-30 14:31:05.597799
1117  2023-10-30 14:31:05.629750
1118  2023-10-30 14:31:05.677585
1119  2023-10-30 14:31:05.709535
1120  2023-10-30 14:31:05.741415
1121  2023-10-30 14:31:05.773329
1122  2023-10-30 14:31:05.805274
1123  2023-10-30 14:31:05.837206
1124  2023-10-30 14:31:05.869136
1125  2023-10-30 14:31:05.900988
1126  2023-10-30 14:31:05.932903
1127  2023-10-30 14:31:05.965815
1128  2023-10-30 14:31:05.997730
1129  2023-10-30 14:31:06.029677
1130  2023-10-30 14:31:06.077516
1131  2023-10-30 14:31:06.109431
1132  2023-10-30 14:31:06.141345
1133  2023-10-30 14:31:06.173260
1134  2023-10-30 14:31:06.205181
1135  2023-10-30 14:31:06.237090
1136  2023-10-30 14:31:06.269004
1137  2023-10-30 14:31:06.300919
1138  2023-10-30 14:31:06.332834
1139  2023-10-30 14:31:06.365746
1140  2023-10-30 14:31:06.397660
1141  2023-10-30 14:31:06.429606
1142  2023-10-30 14:31:06.477447
1143  2023-10-30 14:31:06.509362
1144  2023-10-30 14:31:06.541276
1145  2023-10-30 14:31:06.573191
1146  2023-10-30 14:31:06.605106
1147  2023-10-30 14:31:06.637021
1148  2023-10-30 14:31:06.669934
1149  2023-10-30 14:31:06.701847
1150  2023-10-30 14:31:06.733762
1151  2023-10-30 14:31:06.765677
1152  2023-10-30 14:31:06.797591
1153  2023-10-30 14:31:06.829542
1154  2023-10-30 14:31:06.877414
1155  2023-10-30 14:31:06.909293
1156  2023-10-30 14:31:06.941207
1157  2023-10-30 14:31:06.973157
1158  2023-10-30 14:31:07.005118
1159  2023-10-30 14:31:07.037068
1160  2023-10-30 14:31:07.068983
1161  2023-10-30 14:31:07.100897
1162  2023-10-30 14:31:07.133810
1163  2023-10-30 14:31:07.165724
1164  2023-10-30 14:31:07.197639
1165  2023-10-30 14:31:07.245511
1166  2023-10-30 14:31:07.277426
1167  2023-10-30 14:31:07.309340
1168  2023-10-30 14:31:07.341291
1169  2023-10-30 14:31:07.373169
1170  2023-10-30 14:31:07.405084
1171  2023-10-30 14:31:07.436999
1172  2023-10-30 14:31:07.468946
1173  2023-10-30 14:31:07.501826
1174  2023-10-30 14:31:07.533740
1175  2023-10-30 14:31:07.565655
1176  2023-10-30 14:31:07.597604
1177  2023-10-30 14:31:07.645442
1178  2023-10-30 14:31:07.677390
1179  2023-10-30 14:31:07.709271
1180  2023-10-30 14:31:07.741194
1181  2023-10-30 14:31:07.773100
1182  2023-10-30 14:31:07.805048
1183  2023-10-30 14:31:07.836963
1184  2023-10-30 14:31:07.869842
1185  2023-10-30 14:31:07.901756
1186  2023-10-30 14:31:07.933702
1187  2023-10-30 14:31:07.965617
1188  2023-10-30 14:31:07.997500
1189  2023-10-30 14:31:08.045373
1190  2023-10-30 14:31:08.077287
1191  2023-10-30 14:31:08.109202
1192  2023-10-30 14:31:08.141159
1193  2023-10-30 14:31:08.173031
1194  2023-10-30 14:31:08.204946
1195  2023-10-30 14:31:08.236861
1196  2023-10-30 14:31:08.269773
1197  2023-10-30 14:31:08.301687
1198  2023-10-30 14:31:08.333602
1199  2023-10-30 14:31:08.365518
1200  2023-10-30 14:31:08.397821
1201  2023-10-30 14:31:08.445698
1202  2023-10-30 14:31:08.477607
1203  2023-10-30 14:31:08.509522
1204  2023-10-30 14:31:08.541436
1205  2023-10-30 14:31:08.573351
1206  2023-10-30 14:31:08.605656
1207  2023-10-30 14:31:08.637571
1208  2023-10-30 14:31:08.669485
1209  2023-10-30 14:31:08.701400
1210  2023-10-30 14:31:08.733315
1211  2023-10-30 14:31:08.765229
1212  2023-10-30 14:31:08.797144
1213  2023-10-30 14:31:08.845016
1214  2023-10-30 14:31:08.876931
1215  2023-10-30 14:31:08.908845
1216  2023-10-30 14:31:08.941757
1217  2023-10-30 14:31:08.973672
1218  2023-10-30 14:31:09.005587
1219  2023-10-30 14:31:09.037502
1220  2023-10-30 14:31:09.069416
1221  2023-10-30 14:31:09.101331
1222  2023-10-30 14:31:09.134245
1223  2023-10-30 14:31:09.165161
1224  2023-10-30 14:31:09.197075
1225  2023-10-30 14:31:09.244947
1226  2023-10-30 14:31:09.276862
1227  2023-10-30 14:31:09.308927
1228  2023-10-30 14:31:09.341873
1229  2023-10-30 14:31:09.373789
1230  2023-10-30 14:31:09.405702
1231  2023-10-30 14:31:09.436890
1232  2023-10-30 14:31:09.469804
1233  2023-10-30 14:31:09.501719
1234  2023-10-30 14:31:09.533633
1235  2023-10-30 14:31:09.565547
1236  2023-10-30 14:31:09.597461
1237  2023-10-30 14:31:09.645333
1238  2023-10-30 14:31:09.677287
1239  2023-10-30 14:31:09.709162
1240  2023-10-30 14:31:09.741077
1241  2023-10-30 14:31:09.772992
1242  2023-10-30 14:31:09.804939
1243  2023-10-30 14:31:09.837867
1244  2023-10-30 14:31:09.869733
1245  2023-10-30 14:31:09.901648
1246  2023-10-30 14:31:09.933598
1247  2023-10-30 14:31:09.965547
1248  2023-10-30 14:31:09.997392
1249  2023-10-30 14:31:10.045264
1250  2023-10-30 14:31:10.077179
1251  2023-10-30 14:31:10.109093
1252  2023-10-30 14:31:10.141008
1253  2023-10-30 14:31:10.172923
1254  2023-10-30 14:31:10.204837
1255  2023-10-30 14:31:10.236954
1256  2023-10-30 14:31:10.269049
1257  2023-10-30 14:31:10.300964
1258  2023-10-30 14:31:10.332879
1259  2023-10-30 14:31:10.365794
1260  2023-10-30 14:31:10.397705
1261  2023-10-30 14:31:10.445577
1262  2023-10-30 14:31:10.477492
1263  2023-10-30 14:31:10.509407
1264  2023-10-30 14:31:10.541354
1265  2023-10-30 14:31:10.573238
1266  2023-10-30 14:31:10.605151
1267  2023-10-30 14:31:10.637065
1268  2023-10-30 14:31:10.668980
1269  2023-10-30 14:31:10.700895
1270  2023-10-30 14:31:10.732810
1271  2023-10-30 14:31:10.765721
1272  2023-10-30 14:31:10.813593
1273  2023-10-30 14:31:10.845508
1274  2023-10-30 14:31:10.877423
1275  2023-10-30 14:31:10.909338
1276  2023-10-30 14:31:10.941252
1277  2023-10-30 14:31:10.973167
1278  2023-10-30 14:31:11.005174
1279  2023-10-30 14:31:11.037087
1280  2023-10-30 14:31:11.069043
1281  2023-10-30 14:31:11.100960
1282  2023-10-30 14:31:11.132946
1283  2023-10-30 14:31:11.165827
1284  2023-10-30 14:31:11.213769
1285  2023-10-30 14:31:11.245614
1286  2023-10-30 14:31:11.277528
1287  2023-10-30 14:31:11.309443
1288  2023-10-30 14:31:11.341393
1289  2023-10-30 14:31:11.373272
1290  2023-10-30 14:31:11.405187
1291  2023-10-30 14:31:11.437102
1292  2023-10-30 14:31:11.469107
1293  2023-10-30 14:31:11.501678
1294  2023-10-30 14:31:11.533593
1295  2023-10-30 14:31:11.565507
1296  2023-10-30 14:31:11.613379
1297  2023-10-30 14:31:11.645294
1298  2023-10-30 14:31:11.677238
1299  2023-10-30 14:31:11.709123
1300  2023-10-30 14:31:11.741038
1301  2023-10-30 14:31:11.773115
1302  2023-10-30 14:31:11.805074
1303  2023-10-30 14:31:11.837942
1304  2023-10-30 14:31:11.868859
1305  2023-10-30 14:31:11.901771
1306  2023-10-30 14:31:11.933685
1307  2023-10-30 14:31:11.965600
1308  2023-10-30 14:31:12.013472
1309  2023-10-30 14:31:12.045387
1310  2023-10-30 14:31:12.077309
1311  2023-10-30 14:31:12.109216
1312  2023-10-30 14:31:12.141131
1313  2023-10-30 14:31:12.173045
1314  2023-10-30 14:31:12.204960
1315  2023-10-30 14:31:12.236875
1316  2023-10-30 14:31:12.269787
1317  2023-10-30 14:31:12.301702
1318  2023-10-30 14:31:12.333616
1319  2023-10-30 14:31:12.365531
1320  2023-10-30 14:31:12.413403
1321  2023-10-30 14:31:12.445318
1322  2023-10-30 14:31:12.477233
1323  2023-10-30 14:31:12.509147
1324  2023-10-30 14:31:12.541062
1325  2023-10-30 14:31:12.572976
1326  2023-10-30 14:31:12.604891
1327  2023-10-30 14:31:12.637803
1328  2023-10-30 14:31:12.669718
1329  2023-10-30 14:31:12.701633
1330  2023-10-30 14:31:12.733547
1331  2023-10-30 14:31:12.765462
1332  2023-10-30 14:31:12.813334
1333  2023-10-30 14:31:12.845249
1334  2023-10-30 14:31:12.877163
1335  2023-10-30 14:31:12.909078
1336  2023-10-30 14:31:12.940993
1337  2023-10-30 14:31:12.972907
1338  2023-10-30 14:31:13.004822
1339  2023-10-30 14:31:13.037734
1340  2023-10-30 14:31:13.069649
1341  2023-10-30 14:31:13.101563
1342  2023-10-30 14:31:13.133478
1343  2023-10-30 14:31:13.165393
1344  2023-10-30 14:31:13.213265
1345  2023-10-30 14:31:13.245180
1346  2023-10-30 14:31:13.277094
1347  2023-10-30 14:31:13.309009
1348  2023-10-30 14:31:13.340923
1349  2023-10-30 14:31:13.373836
1350  2023-10-30 14:31:13.405750
1351  2023-10-30 14:31:13.437665
1352  2023-10-30 14:31:13.469580
1353  2023-10-30 14:31:13.501525
1354  2023-10-30 14:31:13.533409
1355  2023-10-30 14:31:13.565324
1356  2023-10-30 14:31:13.614220
1357  2023-10-30 14:31:13.645110
1358  2023-10-30 14:31:13.677212
1359  2023-10-30 14:31:13.710181
1360  2023-10-30 14:31:13.742089
1361  2023-10-30 14:31:13.774042
1362  2023-10-30 14:31:13.805952
1363  2023-10-30 14:31:13.838914
1364  2023-10-30 14:31:13.869782
1365  2023-10-30 14:31:13.901696
1366  2023-10-30 14:31:13.933610
1367  2023-10-30 14:31:13.965526
1368  2023-10-30 14:31:14.013397
1369  2023-10-30 14:31:14.046352
1370  2023-10-30 14:31:14.077226
1371  2023-10-30 14:31:14.110179
1372  2023-10-30 14:31:14.142128
1373  2023-10-30 14:31:14.173996
1374  2023-10-30 14:31:14.205940
1375  2023-10-30 14:31:14.237862
1376  2023-10-30 14:31:14.269748
1377  2023-10-30 14:31:14.301674
1378  2023-10-30 14:31:14.333604
1379  2023-10-30 14:31:14.365490
1380  2023-10-30 14:31:14.413394
1381  2023-10-30 14:31:14.445248
1382  2023-10-30 14:31:14.477159
1383  2023-10-30 14:31:14.509074
1384  2023-10-30 14:31:14.540986
1385  2023-10-30 14:31:14.573912
1386  2023-10-30 14:31:14.605815
1387  2023-10-30 14:31:14.637764
1388  2023-10-30 14:31:14.669717
1389  2023-10-30 14:31:14.701602
1390  2023-10-30 14:31:14.733148
1391  2023-10-30 14:31:14.781099
1392  2023-10-30 14:31:14.813028
1393  2023-10-30 14:31:14.844979
1394  2023-10-30 14:31:14.877812
1395  2023-10-30 14:31:14.909765
1396  2023-10-30 14:31:14.941632
1397  2023-10-30 14:31:14.973562
1398  2023-10-30 14:31:15.005463
1399  2023-10-30 14:31:15.037377
1400  2023-10-30 14:31:15.069293
1401  2023-10-30 14:31:15.101206
1402  2023-10-30 14:31:15.133121
1403  2023-10-30 14:31:15.182038
1404  2023-10-30 14:31:15.212956
1405  2023-10-30 14:31:15.244857
1406  2023-10-30 14:31:15.277765
1407  2023-10-30 14:31:15.309650
1408  2023-10-30 14:31:15.342270
1409  2023-10-30 14:31:15.373215
1410  2023-10-30 14:31:15.405199
1411  2023-10-30 14:31:15.437043
1412  2023-10-30 14:31:15.469994
1413  2023-10-30 14:31:15.501872
1414  2023-10-30 14:31:15.532788
1415  2023-10-30 14:31:15.581967
1416  2023-10-30 14:31:15.613867
1417  2023-10-30 14:31:15.645734
1418  2023-10-30 14:31:15.677681
1419  2023-10-30 14:31:15.709618
1420  2023-10-30 14:31:15.741558
1421  2023-10-30 14:31:15.773485
1422  2023-10-30 14:31:15.805385
1423  2023-10-30 14:31:15.837321
1424  2023-10-30 14:31:15.869228
1425  2023-10-30 14:31:15.901150
1426  2023-10-30 14:31:15.933015
1427  2023-10-30 14:31:15.980920
1428  2023-10-30 14:31:16.013860
1429  2023-10-30 14:31:16.045749
1430  2023-10-30 14:31:16.077628
1431  2023-10-30 14:31:16.109597
1432  2023-10-30 14:31:16.141510
1433  2023-10-30 14:31:16.173375
1434  2023-10-30 14:31:16.205313
1435  2023-10-30 14:31:16.237202
1436  2023-10-30 14:31:16.269154
1437  2023-10-30 14:31:16.301065
1438  2023-10-30 14:31:16.332988
1439  2023-10-30 14:31:16.381869
1440  2023-10-30 14:31:16.413800
1441  2023-10-30 14:31:16.445645
1442  2023-10-30 14:31:16.477559
1443  2023-10-30 14:31:16.509508
1444  2023-10-30 14:31:16.541422
1445  2023-10-30 14:31:16.573345
1446  2023-10-30 14:31:16.605273
1447  2023-10-30 14:31:16.637167
1448  2023-10-30 14:31:16.669095
1449  2023-10-30 14:31:16.700994
1450  2023-10-30 14:31:16.733939
1451  2023-10-30 14:31:16.781766
1452  2023-10-30 14:31:16.813717
1453  2023-10-30 14:31:16.845632
1454  2023-10-30 14:31:16.877511
1455  2023-10-30 14:31:16.909478
1456  2023-10-30 14:31:16.941534
1457  2023-10-30 14:31:16.973401
1458  2023-10-30 14:31:17.005330
1459  2023-10-30 14:31:17.037200
1460  2023-10-30 14:31:17.069171
1461  2023-10-30 14:31:17.101061
1462  2023-10-30 14:31:17.132991
1463  2023-10-30 14:31:17.180863
1464  2023-10-30 14:31:17.213765
1465  2023-10-30 14:31:17.245675
1466  2023-10-30 14:31:17.277558
1467  2023-10-30 14:31:17.309523
1468  2023-10-30 14:31:17.341421
1469  2023-10-30 14:31:17.373333
1470  2023-10-30 14:31:17.405261
1471  2023-10-30 14:31:17.437166
1472  2023-10-30 14:31:17.469078
1473  2023-10-30 14:31:17.500994
1474  2023-10-30 14:31:17.532877
1475  2023-10-30 14:31:17.581799
1476  2023-10-30 14:31:17.613690
1477  2023-10-30 14:31:17.645638
1478  2023-10-30 14:31:17.677517
1479  2023-10-30 14:31:17.709403
1480  2023-10-30 14:31:17.741369
1481  2023-10-30 14:31:17.773286
1482  2023-10-30 14:31:17.805192
1483  2023-10-30 14:31:17.837062
1484  2023-10-30 14:31:17.869010
1485  2023-10-30 14:31:17.900940
1486  2023-10-30 14:31:17.933858
1487  2023-10-30 14:31:17.981707
1488  2023-10-30 14:31:18.013627
1489  2023-10-30 14:31:18.045539
1490  2023-10-30 14:31:18.077420
1491  2023-10-30 14:31:18.109386
1492  2023-10-30 14:31:18.141290
1493  2023-10-30 14:31:18.173168
1494  2023-10-30 14:31:18.205167
1495  2023-10-30 14:31:18.237129
1496  2023-10-30 14:31:18.269043
1497  2023-10-30 14:31:18.301984
1498  2023-10-30 14:31:18.348897
1499  2023-10-30 14:31:18.381794
1500  2023-10-30 14:31:18.413708
1501  2023-10-30 14:31:18.445607
1502  2023-10-30 14:31:18.477517
1503  2023-10-30 14:31:18.509402
1504  2023-10-30 14:31:18.541318
1505  2023-10-30 14:31:18.573275
1506  2023-10-30 14:31:18.605188
1507  2023-10-30 14:31:18.637093
1508  2023-10-30 14:31:18.669008
1509  2023-10-30 14:31:18.700938
1510  2023-10-30 14:31:18.749785
1511  2023-10-30 14:31:18.781741
1512  2023-10-30 14:31:18.813621
1513  2023-10-30 14:31:18.845538
1514  2023-10-30 14:31:18.877451
1515  2023-10-30 14:31:18.909367
1516  2023-10-30 14:31:18.941291
1517  2023-10-30 14:31:18.973196
1518  2023-10-30 14:31:19.005125
1519  2023-10-30 14:31:19.036990
1520  2023-10-30 14:31:19.068905
1521  2023-10-30 14:31:19.100868
1522  2023-10-30 14:31:19.149731
1523  2023-10-30 14:31:19.181730
1524  2023-10-30 14:31:19.213667
1525  2023-10-30 14:31:19.245574
1526  2023-10-30 14:31:19.277489
1527  2023-10-30 14:31:19.309484
1528  2023-10-30 14:31:19.341399
1529  2023-10-30 14:31:19.373321
1530  2023-10-30 14:31:19.405819
1531  2023-10-30 14:31:19.437728
1532  2023-10-30 14:31:19.469615
1533  2023-10-30 14:31:19.501528
1534  2023-10-30 14:31:19.549402
1535  2023-10-30 14:31:19.581326
1536  2023-10-30 14:31:19.613239
1537  2023-10-30 14:31:19.645144
1538  2023-10-30 14:31:19.677061
1539  2023-10-30 14:31:19.708972
1540  2023-10-30 14:31:19.741853
1541  2023-10-30 14:31:19.773829
1542  2023-10-30 14:31:19.805718
1543  2023-10-30 14:31:19.837624
1544  2023-10-30 14:31:19.869512
1545  2023-10-30 14:31:19.901426
1546  2023-10-30 14:31:19.949383
1547  2023-10-30 14:31:19.981272
1548  2023-10-30 14:31:20.013256
1549  2023-10-30 14:31:20.045172
1550  2023-10-30 14:31:20.077095
1551  2023-10-30 14:31:20.109960
1552  2023-10-30 14:31:20.140909
1553  2023-10-30 14:31:20.173841
1554  2023-10-30 14:31:20.205730
1555  2023-10-30 14:31:20.237668
1556  2023-10-30 14:31:20.269565
1557  2023-10-30 14:31:20.301448
1558  2023-10-30 14:31:20.349372
1559  2023-10-30 14:31:20.381252
1560  2023-10-30 14:31:20.413186
1561  2023-10-30 14:31:20.445113
1562  2023-10-30 14:31:20.477012
1563  2023-10-30 14:31:20.508894
1564  2023-10-30 14:31:20.541834
1565  2023-10-30 14:31:20.573757
1566  2023-10-30 14:31:20.605669
1567  2023-10-30 14:31:20.637609
1568  2023-10-30 14:31:20.669560
1569  2023-10-30 14:31:20.701435
1570  2023-10-30 14:31:20.749340
1571  2023-10-30 14:31:20.781271
1572  2023-10-30 14:31:20.813169
1573  2023-10-30 14:31:20.845100
1574  2023-10-30 14:31:20.877015
1575  2023-10-30 14:31:20.908880
1576  2023-10-30 14:31:20.941852
1577  2023-10-30 14:31:20.973755
1578  2023-10-30 14:31:21.005653
1579  2023-10-30 14:31:21.037567
1580  2023-10-30 14:31:21.069484
1581  2023-10-30 14:31:21.101366
1582  2023-10-30 14:31:21.149330
1583  2023-10-30 14:31:21.181296
1584  2023-10-30 14:31:21.213498
1585  2023-10-30 14:31:21.245451
1586  2023-10-30 14:31:21.277366
1587  2023-10-30 14:31:21.309277
1588  2023-10-30 14:31:21.341192
1589  2023-10-30 14:31:21.373107
1590  2023-10-30 14:31:21.405109
1591  2023-10-30 14:31:21.437008
1592  2023-10-30 14:31:21.468936
1593  2023-10-30 14:31:21.501802
1594  2023-10-30 14:31:21.549720
1595  2023-10-30 14:31:21.581614
1596  2023-10-30 14:31:21.613534
1597  2023-10-30 14:31:21.644861
1598  2023-10-30 14:31:21.677771
1599  2023-10-30 14:31:21.709685
1600  2023-10-30 14:31:21.741579
1601  2023-10-30 14:31:21.773494
1602  2023-10-30 14:31:21.805409
1603  2023-10-30 14:31:21.837437
1604  2023-10-30 14:31:21.869356
1605  2023-10-30 14:31:21.901234
1606  2023-10-30 14:31:21.949147
1607  2023-10-30 14:31:21.981052
1608  2023-10-30 14:31:22.012933
1609  2023-10-30 14:31:22.044880
1610  2023-10-30 14:31:22.077817
1611  2023-10-30 14:31:22.109708
1612  2023-10-30 14:31:22.141589
1613  2023-10-30 14:31:22.173504
1614  2023-10-30 14:31:22.205453
1615  2023-10-30 14:31:22.237365
1616  2023-10-30 14:31:22.269314
1617  2023-10-30 14:31:22.317167
1618  2023-10-30 14:31:22.349076
1619  2023-10-30 14:31:22.381991
1620  2023-10-30 14:31:22.413861
1621  2023-10-30 14:31:22.445776
1622  2023-10-30 14:31:22.477691
1623  2023-10-30 14:31:22.509640
1624  2023-10-30 14:31:22.541565
1625  2023-10-30 14:31:22.573435
1626  2023-10-30 14:31:22.605380
1627  2023-10-30 14:31:22.637306
1628  2023-10-30 14:31:22.669213
1629  2023-10-30 14:31:22.717084
1630  2023-10-30 14:31:22.749000
1631  2023-10-30 14:31:22.780914
1632  2023-10-30 14:31:22.813792
1633  2023-10-30 14:31:22.845738
1634  2023-10-30 14:31:22.877673
1635  2023-10-30 14:31:22.909536
1636  2023-10-30 14:31:22.941451
1637  2023-10-30 14:31:22.973402
1638  2023-10-30 14:31:23.005369
1639  2023-10-30 14:31:23.037290
1640  2023-10-30 14:31:23.069774
1641  2023-10-30 14:31:23.117681
1642  2023-10-30 14:31:23.149587
1643  2023-10-30 14:31:23.181527
1644  2023-10-30 14:31:23.213390
1645  2023-10-30 14:31:23.245305
1646  2023-10-30 14:31:23.277220
1647  2023-10-30 14:31:23.309173
1648  2023-10-30 14:31:23.341049
1649  2023-10-30 14:31:23.372964
1650  2023-10-30 14:31:23.404878
1651  2023-10-30 14:31:23.437790
1652  2023-10-30 14:31:23.469705
1653  2023-10-30 14:31:23.517604
1654  2023-10-30 14:31:23.549524
1655  2023-10-30 14:31:23.581432
1656  2023-10-30 14:31:23.613321
1657  2023-10-30 14:31:23.645236
1658  2023-10-30 14:31:23.677150
1659  2023-10-30 14:31:23.709065
1660  2023-10-30 14:31:23.741977
1661  2023-10-30 14:31:23.772894
1662  2023-10-30 14:31:23.805806
1663  2023-10-30 14:31:23.837721
1664  2023-10-30 14:31:23.869636
1665  2023-10-30 14:31:23.917543
1666  2023-10-30 14:31:23.949458
1667  2023-10-30 14:31:23.981365
1668  2023-10-30 14:31:24.013252
1669  2023-10-30 14:31:24.045167
1670  2023-10-30 14:31:24.077081
1671  2023-10-30 14:31:24.108996
1672  2023-10-30 14:31:24.140911
1673  2023-10-30 14:31:24.173823
1674  2023-10-30 14:31:24.205776
1675  2023-10-30 14:31:24.237652
1676  2023-10-30 14:31:24.269567
1677  2023-10-30 14:31:24.317470
1678  2023-10-30 14:31:24.349404
1679  2023-10-30 14:31:24.382295
1680  2023-10-30 14:31:24.413183
1681  2023-10-30 14:31:24.445098
1682  2023-10-30 14:31:24.477012
1683  2023-10-30 14:31:24.508960
1684  2023-10-30 14:31:24.540884
1685  2023-10-30 14:31:24.573754
1686  2023-10-30 14:31:24.605748
1687  2023-10-30 14:31:24.637694
1688  2023-10-30 14:31:24.669624
1689  2023-10-30 14:31:24.717480
1690  2023-10-30 14:31:24.749398
1691  2023-10-30 14:31:24.781315
1692  2023-10-30 14:31:24.813193
1693  2023-10-30 14:31:24.845141
1694  2023-10-30 14:31:24.877057
1695  2023-10-30 14:31:24.908937
1696  2023-10-30 14:31:24.940852
1697  2023-10-30 14:31:24.973827
1698  2023-10-30 14:31:25.005715
1699  2023-10-30 14:31:25.037593
1700  2023-10-30 14:31:25.069508
1701  2023-10-30 14:31:25.117413
1702  2023-10-30 14:31:25.149333
1703  2023-10-30 14:31:25.181243
1704  2023-10-30 14:31:25.213169
1705  2023-10-30 14:31:25.245039
1706  2023-10-30 14:31:25.276953
1707  2023-10-30 14:31:25.308903
1708  2023-10-30 14:31:25.341852
1709  2023-10-30 14:31:25.373695
1710  2023-10-30 14:31:25.405610
1711  2023-10-30 14:31:25.437524
1712  2023-10-30 14:31:25.469494
1713  2023-10-30 14:31:25.517345
1714  2023-10-30 14:31:25.549253
1715  2023-10-30 14:31:25.581205
1716  2023-10-30 14:31:25.613055
1717  2023-10-30 14:31:25.644970
1718  2023-10-30 14:31:25.677104
1719  2023-10-30 14:31:25.709019
1720  2023-10-30 14:31:25.740934
1721  2023-10-30 14:31:25.773846
1722  2023-10-30 14:31:25.805761
1723  2023-10-30 14:31:25.837676
1724  2023-10-30 14:31:25.885578
1725  2023-10-30 14:31:25.917498
1726  2023-10-30 14:31:25.949407
1727  2023-10-30 14:31:25.981361
1728  2023-10-30 14:31:26.013206
1729  2023-10-30 14:31:26.045121
1730  2023-10-30 14:31:26.077035
1731  2023-10-30 14:31:26.108950
1732  2023-10-30 14:31:26.140865
1733  2023-10-30 14:31:26.173777
1734  2023-10-30 14:31:26.205691
1735  2023-10-30 14:31:26.237606
1736  2023-10-30 14:31:26.285514
1737  2023-10-30 14:31:26.317519
1738  2023-10-30 14:31:26.349495
1739  2023-10-30 14:31:26.381433
1740  2023-10-30 14:31:26.413290
1741  2023-10-30 14:31:26.445205
1742  2023-10-30 14:31:26.477119
1743  2023-10-30 14:31:26.509034
1744  2023-10-30 14:31:26.540949
1745  2023-10-30 14:31:26.573861
1746  2023-10-30 14:31:26.605776
1747  2023-10-30 14:31:26.637690
1748  2023-10-30 14:31:26.685596
1749  2023-10-30 14:31:26.717516
1750  2023-10-30 14:31:26.749426
1751  2023-10-30 14:31:26.781338
1752  2023-10-30 14:31:26.813221
1753  2023-10-30 14:31:26.846135
1754  2023-10-30 14:31:26.878050
1755  2023-10-30 14:31:26.908965
1756  2023-10-30 14:31:26.940880
1757  2023-10-30 14:31:26.973792
1758  2023-10-30 14:31:27.005708
1759  2023-10-30 14:31:27.037621
1760  2023-10-30 14:31:27.085496
1761  2023-10-30 14:31:27.117439
1762  2023-10-30 14:31:27.149359
1763  2023-10-30 14:31:27.181269
1764  2023-10-30 14:31:27.213192
1765  2023-10-30 14:31:27.245066
1766  2023-10-30 14:31:27.276981
1767  2023-10-30 14:31:27.308995
1768  2023-10-30 14:31:27.340992
1769  2023-10-30 14:31:27.372955
1770  2023-10-30 14:31:27.405869
1771  2023-10-30 14:31:27.437782
1772  2023-10-30 14:31:27.485684
1773  2023-10-30 14:31:27.517604
1774  2023-10-30 14:31:27.549514
1775  2023-10-30 14:31:27.581428
1776  2023-10-30 14:31:27.613312
1777  2023-10-30 14:31:27.645227
1778  2023-10-30 14:31:27.677142
1779  2023-10-30 14:31:27.709056
1780  2023-10-30 14:31:27.740971
1781  2023-10-30 14:31:27.773883
1782  2023-10-30 14:31:27.805798
1783  2023-10-30 14:31:27.837712
1784  2023-10-30 14:31:27.885618
1785  2023-10-30 14:31:27.917529
1786  2023-10-30 14:31:27.949349
1787  2023-10-30 14:31:27.981349
1788  2023-10-30 14:31:28.013210
1789  2023-10-30 14:31:28.045125
1790  2023-10-30 14:31:28.077039
1791  2023-10-30 14:31:28.108954
1792  2023-10-30 14:31:28.140869
1793  2023-10-30 14:31:28.173781
1794  2023-10-30 14:31:28.205695
1795  2023-10-30 14:31:28.237610
1796  2023-10-30 14:31:28.285514
1797  2023-10-30 14:31:28.317444
1798  2023-10-30 14:31:28.349349
1799  2023-10-30 14:31:28.382225
1800  2023-10-30 14:31:28.414139
1801  2023-10-30 14:31:28.445224
1802  2023-10-30 14:31:28.477139
1803  2023-10-30 14:31:28.510052
1804  2023-10-30 14:31:28.541977
1805  2023-10-30 14:31:28.573881
1806  2023-10-30 14:31:28.605795
1807  2023-10-30 14:31:28.637710
1808  2023-10-30 14:31:28.685614
1809  2023-10-30 14:31:28.717536
1810  2023-10-30 14:31:28.749192
1811  2023-10-30 14:31:28.781263
1812  2023-10-30 14:31:28.813110
1813  2023-10-30 14:31:28.845025
1814  2023-10-30 14:31:28.877939
1815  2023-10-30 14:31:28.908854
1816  2023-10-30 14:31:28.941766
1817  2023-10-30 14:31:28.973681
1818  2023-10-30 14:31:29.005598
1819  2023-10-30 14:31:29.037510
1820  2023-10-30 14:31:29.085431
1821  2023-10-30 14:31:29.117333
1822  2023-10-30 14:31:29.149237
1823  2023-10-30 14:31:29.181171
1824  2023-10-30 14:31:29.213090
1825  2023-10-30 14:31:29.244956
1826  2023-10-30 14:31:29.276870
1827  2023-10-30 14:31:29.309783
1828  2023-10-30 14:31:29.341729
1829  2023-10-30 14:31:29.373078
1830  2023-10-30 14:31:29.404976
1831  2023-10-30 14:31:29.437857
1832  2023-10-30 14:31:29.484844
1833  2023-10-30 14:31:29.517772
1834  2023-10-30 14:31:29.549671
1835  2023-10-30 14:31:29.581581
1836  2023-10-30 14:31:29.613468
1837  2023-10-30 14:31:29.645383
1838  2023-10-30 14:31:29.677344
1839  2023-10-30 14:31:29.709212
1840  2023-10-30 14:31:29.741127
1841  2023-10-30 14:31:29.773041
1842  2023-10-30 14:31:29.804990
1843  2023-10-30 14:31:29.852861
1844  2023-10-30 14:31:29.885771
1845  2023-10-30 14:31:29.917693
1846  2023-10-30 14:31:29.949532
1847  2023-10-30 14:31:29.982335
1848  2023-10-30 14:31:30.014374
1849  2023-10-30 14:31:30.046304
1850  2023-10-30 14:31:30.078170
1851  2023-10-30 14:31:30.110086
1852  2023-10-30 14:31:30.141999
1853  2023-10-30 14:31:30.173914
1854  2023-10-30 14:31:30.205829
1855  2023-10-30 14:31:30.253732
1856  2023-10-30 14:31:30.285653
1857  2023-10-30 14:31:30.317561
1858  2023-10-30 14:31:30.349470
1859  2023-10-30 14:31:30.382390
1860  2023-10-30 14:31:30.414299
1861  2023-10-30 14:31:30.446215
1862  2023-10-30 14:31:30.478132
1863  2023-10-30 14:31:30.510049
1864  2023-10-30 14:31:30.541960
1865  2023-10-30 14:31:30.573887
1866  2023-10-30 14:31:30.605819
1867  2023-10-30 14:31:30.653661
1868  2023-10-30 14:31:30.685602
1869  2023-10-30 14:31:30.717491
1870  2023-10-30 14:31:30.749407
1871  2023-10-30 14:31:30.781336
1872  2023-10-30 14:31:30.813219
1873  2023-10-30 14:31:30.845120
1874  2023-10-30 14:31:30.878033
1875  2023-10-30 14:31:30.908949
1876  2023-10-30 14:31:30.941863
1877  2023-10-30 14:31:30.973777
1878  2023-10-30 14:31:31.005692
1879  2023-10-30 14:31:31.053592
1880  2023-10-30 14:31:31.085508
1881  2023-10-30 14:31:31.117423
1882  2023-10-30 14:31:31.149308
1883  2023-10-30 14:31:31.181254
1884  2023-10-30 14:31:31.214143
1885  2023-10-30 14:31:31.245082
1886  2023-10-30 14:31:31.276965
1887  2023-10-30 14:31:31.309879
1888  2023-10-30 14:31:31.341792
1889  2023-10-30 14:31:31.373754
1890  2023-10-30 14:31:31.405653
1891  2023-10-30 14:31:31.453494
1892  2023-10-30 14:31:31.485409
1893  2023-10-30 14:31:31.518353
1894  2023-10-30 14:31:31.549292
1895  2023-10-30 14:31:31.583196
1896  2023-10-30 14:31:31.614098
1897  2023-10-30 14:31:31.645980
1898  2023-10-30 14:31:31.677895
1899  2023-10-30 14:31:31.709809
1900  2023-10-30 14:31:31.741770
1901  2023-10-30 14:31:31.773638
1902  2023-10-30 14:31:31.805615
1903  2023-10-30 14:31:31.853479
1904  2023-10-30 14:31:31.885340
1905  2023-10-30 14:31:31.917289
1906  2023-10-30 14:31:31.950197
1907  2023-10-30 14:31:31.982125
1908  2023-10-30 14:31:32.013996
1909  2023-10-30 14:31:32.044959
1910  2023-10-30 14:31:32.077825
1911  2023-10-30 14:31:32.109786
1912  2023-10-30 14:31:32.141686
1913  2023-10-30 14:31:32.173599
1914  2023-10-30 14:31:32.205514
1915  2023-10-30 14:31:32.254415
1916  2023-10-30 14:31:32.285296
1917  2023-10-30 14:31:32.317224
1918  2023-10-30 14:31:32.350097
1919  2023-10-30 14:31:32.382067
1920  2023-10-30 14:31:32.413038
1921  2023-10-30 14:31:32.444967
1922  2023-10-30 14:31:32.476915
1923  2023-10-30 14:31:32.509883
1924  2023-10-30 14:31:32.541739
1925  2023-10-30 14:31:32.573662
1926  2023-10-30 14:31:32.605677
1927  2023-10-30 14:31:32.653475
1928  2023-10-30 14:31:32.685389
1929  2023-10-30 14:31:32.717368
1930  2023-10-30 14:31:32.749287
1931  2023-10-30 14:31:32.781207
1932  2023-10-30 14:31:32.813116
1933  2023-10-30 14:31:32.845827
1934  2023-10-30 14:31:32.877724
1935  2023-10-30 14:31:32.909603
1936  2023-10-30 14:31:32.941550
1937  2023-10-30 14:31:32.973465
1938  2023-10-30 14:31:33.005379
1939  2023-10-30 14:31:33.053319
1940  2023-10-30 14:31:33.085325
1941  2023-10-30 14:31:33.117233
1942  2023-10-30 14:31:33.149107
1943  2023-10-30 14:31:33.181091
1944  2023-10-30 14:31:33.212935
1945  2023-10-30 14:31:33.245847
1946  2023-10-30 14:31:33.277761
1947  2023-10-30 14:31:33.309719
1948  2023-10-30 14:31:33.341624
1949  2023-10-30 14:31:33.373537
1950  2023-10-30 14:31:33.421465
1951  2023-10-30 14:31:33.453470
1952  2023-10-30 14:31:33.485038
1953  2023-10-30 14:31:33.516981
1954  2023-10-30 14:31:33.548958
1955  2023-10-30 14:31:33.581891
1956  2023-10-30 14:31:33.613779
1957  2023-10-30 14:31:33.645698
1958  2023-10-30 14:31:33.677610
1959  2023-10-30 14:31:33.709531
1960  2023-10-30 14:31:33.741492
1961  2023-10-30 14:31:33.773407
1962  2023-10-30 14:31:33.821393
1963  2023-10-30 14:31:33.853273
1964  2023-10-30 14:31:33.885220
1965  2023-10-30 14:31:33.917135
1966  2023-10-30 14:31:33.949120
1967  2023-10-30 14:31:33.981048
1968  2023-10-30 14:31:34.012948
1969  2023-10-30 14:31:34.045830
1970  2023-10-30 14:31:34.077813
1971  2023-10-30 14:31:34.109657
1972  2023-10-30 14:31:34.141605
1973  2023-10-30 14:31:34.173518
1974  2023-10-30 14:31:34.221403
1975  2023-10-30 14:31:34.253281
1976  2023-10-30 14:31:34.285389
1977  2023-10-30 14:31:34.317337
1978  2023-10-30 14:31:34.349268
1979  2023-10-30 14:31:34.381275
1980  2023-10-30 14:31:34.413221
1981  2023-10-30 14:31:34.446160
1982  2023-10-30 14:31:34.477060
1983  2023-10-30 14:31:34.508959
1984  2023-10-30 14:31:34.541845
1985  2023-10-30 14:31:34.573821
1986  2023-10-30 14:31:34.621676
1987  2023-10-30 14:31:34.653653
1988  2023-10-30 14:31:34.685017
1989  2023-10-30 14:31:34.716919
1990  2023-10-30 14:31:34.748850
1991  2023-10-30 14:31:34.781748
1992  2023-10-30 14:31:34.813660
1993  2023-10-30 14:31:34.845577
1994  2023-10-30 14:31:34.877490
1995  2023-10-30 14:31:34.909405
1996  2023-10-30 14:31:34.941328
1997  2023-10-30 14:31:34.973235
1998  2023-10-30 14:31:35.021129
1999  2023-10-30 14:31:35.053049
2000  2023-10-30 14:31:35.084959
2001  2023-10-30 14:31:35.116868
2002  2023-10-30 14:31:35.149790
2003  2023-10-30 14:31:35.181676
2004  2023-10-30 14:31:35.213645
2005  2023-10-30 14:31:35.245642
2006  2023-10-30 14:31:35.277546
2007  2023-10-30 14:31:35.309563
2008  2023-10-30 14:31:35.341517
2009  2023-10-30 14:31:35.373431
2010  2023-10-30 14:31:35.421318
2011  2023-10-30 14:31:35.453241
2012  2023-10-30 14:31:35.485150
2013  2023-10-30 14:31:35.517165
2014  2023-10-30 14:31:35.549074
2015  2023-10-30 14:31:35.581002
2016  2023-10-30 14:31:35.613866
2017  2023-10-30 14:31:35.645826
2018  2023-10-30 14:31:35.677727
2019  2023-10-30 14:31:35.709699
2020  2023-10-30 14:31:35.741643
2021  2023-10-30 14:31:35.773590
2022  2023-10-30 14:31:35.821498
2023  2023-10-30 14:31:35.853551
2024  2023-10-30 14:31:35.885423
2025  2023-10-30 14:31:35.917361
2026  2023-10-30 14:31:35.949298
2027  2023-10-30 14:31:35.981198
2028  2023-10-30 14:31:36.013110
2029  2023-10-30 14:31:36.046070
2030  2023-10-30 14:31:36.076959
2031  2023-10-30 14:31:36.108854
2032  2023-10-30 14:31:36.141771
2033  2023-10-30 14:31:36.173653
2034  2023-10-30 14:31:36.221540
2035  2023-10-30 14:31:36.253440
2036  2023-10-30 14:31:36.285413
2037  2023-10-30 14:31:36.317332
2038  2023-10-30 14:31:36.349218
2039  2023-10-30 14:31:36.381103
2040  2023-10-30 14:31:36.413018
2041  2023-10-30 14:31:36.444950
2042  2023-10-30 14:31:36.476920
2043  2023-10-30 14:31:36.508919
2044  2023-10-30 14:31:36.541785
2045  2023-10-30 14:31:36.573755
2046  2023-10-30 14:31:36.621682
2047  2023-10-30 14:31:36.653602
2048  2023-10-30 14:31:36.685510
2049  2023-10-30 14:31:36.717397
2050  2023-10-30 14:31:36.749361
2051  2023-10-30 14:31:36.781285
2052  2023-10-30 14:31:36.813178
2053  2023-10-30 14:31:36.845088
2054  2023-10-30 14:31:36.877019
2055  2023-10-30 14:31:36.908913
2056  2023-10-30 14:31:36.941859
2057  2023-10-30 14:31:36.989717
2058  2023-10-30 14:31:37.021619
2059  2023-10-30 14:31:37.053526
2060  2023-10-30 14:31:37.085444
2061  2023-10-30 14:31:37.117370
2062  2023-10-30 14:31:37.149308
2063  2023-10-30 14:31:37.181190
2064  2023-10-30 14:31:37.213117
2065  2023-10-30 14:31:37.245031
2066  2023-10-30 14:31:37.277944
2067  2023-10-30 14:31:37.309809
2068  2023-10-30 14:31:37.341724
2069  2023-10-30 14:31:37.389632
2070  2023-10-30 14:31:37.421542
2071  2023-10-30 14:31:37.453462
2072  2023-10-30 14:31:37.485379
2073  2023-10-30 14:31:37.517304
2074  2023-10-30 14:31:37.549216
2075  2023-10-30 14:31:37.581119
2076  2023-10-30 14:31:37.613046
2077  2023-10-30 14:31:37.644961
2078  2023-10-30 14:31:37.676863
2079  2023-10-30 14:31:37.709777
2080  2023-10-30 14:31:37.741655
2081  2023-10-30 14:31:37.789575
2082  2023-10-30 14:31:37.821482
2083  2023-10-30 14:31:37.853398
2084  2023-10-30 14:31:37.885352
2085  2023-10-30 14:31:37.917199
2086  2023-10-30 14:31:37.949145
2087  2023-10-30 14:31:37.981048
2088  2023-10-30 14:31:38.012931
2089  2023-10-30 14:31:38.044847
2090  2023-10-30 14:31:38.077787
2091  2023-10-30 14:31:38.109717
2092  2023-10-30 14:31:38.141586
2093  2023-10-30 14:31:38.189505
2094  2023-10-30 14:31:38.221398
2095  2023-10-30 14:31:38.253341
2096  2023-10-30 14:31:38.285247
2097  2023-10-30 14:31:38.317152
2098  2023-10-30 14:31:38.349077
2099  2023-10-30 14:31:38.380978
2100  2023-10-30 14:31:38.412860
2101  2023-10-30 14:31:38.445817
2102  2023-10-30 14:31:38.477725
2103  2023-10-30 14:31:38.509635
2104  2023-10-30 14:31:38.541516
2105  2023-10-30 14:31:38.589426
2106  2023-10-30 14:31:38.621339
2107  2023-10-30 14:31:38.653255
2108  2023-10-30 14:31:38.685178
2109  2023-10-30 14:31:38.717103
2110  2023-10-30 14:31:38.749007
2111  2023-10-30 14:31:38.780922
2112  2023-10-30 14:31:38.813789
2113  2023-10-30 14:31:38.845736
2114  2023-10-30 14:31:38.877649
2115  2023-10-30 14:31:38.909566
2116  2023-10-30 14:31:38.941447
2117  2023-10-30 14:31:38.989352
2118  2023-10-30 14:31:39.021272
2119  2023-10-30 14:31:39.053182
2120  2023-10-30 14:31:39.085109
2121  2023-10-30 14:31:39.117011
2122  2023-10-30 14:31:39.148959
2123  2023-10-30 14:31:39.181855
2124  2023-10-30 14:31:39.213760
2125  2023-10-30 14:31:39.245634
2126  2023-10-30 14:31:39.277549
2127  2023-10-30 14:31:39.309509
2128  2023-10-30 14:31:39.341378
2129  2023-10-30 14:31:39.389293
2130  2023-10-30 14:31:39.421203
2131  2023-10-30 14:31:39.453127
2132  2023-10-30 14:31:39.485043
2133  2023-10-30 14:31:39.516941
2134  2023-10-30 14:31:39.548855
2135  2023-10-30 14:31:39.581772
2136  2023-10-30 14:31:39.613650
2137  2023-10-30 14:31:39.645565
2138  2023-10-30 14:31:39.677480
2139  2023-10-30 14:31:39.709394
2140  2023-10-30 14:31:39.741309
2141  2023-10-30 14:31:39.789678
2142  2023-10-30 14:31:39.821628
2143  2023-10-30 14:31:39.853556
2144  2023-10-30 14:31:39.885497
2145  2023-10-30 14:31:39.917399
2146  2023-10-30 14:31:39.949316
2147  2023-10-30 14:31:39.981230
2148  2023-10-30 14:31:40.013114
2149  2023-10-30 14:31:40.045029
2150  2023-10-30 14:31:40.076941
2151  2023-10-30 14:31:40.109853
2152  2023-10-30 14:31:40.141768
2153  2023-10-30 14:31:40.189672
2154  2023-10-30 14:31:40.221585
2155  2023-10-30 14:31:40.253504
2156  2023-10-30 14:31:40.285430
2157  2023-10-30 14:31:40.317343
2158  2023-10-30 14:31:40.349250
2159  2023-10-30 14:31:40.381191
2160  2023-10-30 14:31:40.413042
2161  2023-10-30 14:31:40.444957
2162  2023-10-30 14:31:40.476872
2163  2023-10-30 14:31:40.509857
2164  2023-10-30 14:31:40.541699
2165  2023-10-30 14:31:40.589627
2166  2023-10-30 14:31:40.621572
2167  2023-10-30 14:31:40.653611
2168  2023-10-30 14:31:40.685532
2169  2023-10-30 14:31:40.717448
2170  2023-10-30 14:31:40.749445
2171  2023-10-30 14:31:40.781083
2172  2023-10-30 14:31:40.813047
2173  2023-10-30 14:31:40.844996
2174  2023-10-30 14:31:40.876876
2175  2023-10-30 14:31:40.909788
2176  2023-10-30 14:31:40.957755
2177  2023-10-30 14:31:40.989696
2178  2023-10-30 14:31:41.021618
2179  2023-10-30 14:31:41.053541
2180  2023-10-30 14:31:41.085490
2181  2023-10-30 14:31:41.117367
2182  2023-10-30 14:31:41.149284
2183  2023-10-30 14:31:41.181823
2184  2023-10-30 14:31:41.213783
2185  2023-10-30 14:31:41.245678
2186  2023-10-30 14:31:41.277593
2187  2023-10-30 14:31:41.309542
2188  2023-10-30 14:31:41.357414
2189  2023-10-30 14:31:41.389382
2190  2023-10-30 14:31:41.421363
2191  2023-10-30 14:31:41.453277
2192  2023-10-30 14:31:41.485180
2193  2023-10-30 14:31:41.517106
2194  2023-10-30 14:31:41.549021
2195  2023-10-30 14:31:41.581937
2196  2023-10-30 14:31:41.613799
2197  2023-10-30 14:31:41.645714
2198  2023-10-30 14:31:41.677629
2199  2023-10-30 14:31:41.709543
2200  2023-10-30 14:31:41.757451
2201  2023-10-30 14:31:41.789368
2202  2023-10-30 14:31:41.821303
2203  2023-10-30 14:31:41.853193
2204  2023-10-30 14:31:41.885122
2205  2023-10-30 14:31:41.917045
2206  2023-10-30 14:31:41.948934
2207  2023-10-30 14:31:41.981849
2208  2023-10-30 14:31:42.013806
2209  2023-10-30 14:31:42.045823
2210  2023-10-30 14:31:42.077730
2211  2023-10-30 14:31:42.109863
2212  2023-10-30 14:31:42.157831
2213  2023-10-30 14:31:42.189253
2214  2023-10-30 14:31:42.221212
2215  2023-10-30 14:31:42.254091
2216  2023-10-30 14:31:42.285053
2217  2023-10-30 14:31:42.316966
2218  2023-10-30 14:31:42.349879
2219  2023-10-30 14:31:42.381778
2220  2023-10-30 14:31:42.413662
2221  2023-10-30 14:31:42.445577
2222  2023-10-30 14:31:42.477491
2223  2023-10-30 14:31:42.509449
2224  2023-10-30 14:31:42.557320
2225  2023-10-30 14:31:42.589233
2226  2023-10-30 14:31:42.621139
2227  2023-10-30 14:31:42.653055
2228  2023-10-30 14:31:42.684971
2229  2023-10-30 14:31:42.716897
2230  2023-10-30 14:31:42.749815
2231  2023-10-30 14:31:42.781712
2232  2023-10-30 14:31:42.813679
2233  2023-10-30 14:31:42.845601
2234  2023-10-30 14:31:42.877587
2235  2023-10-30 14:31:42.909470
2236  2023-10-30 14:31:42.957385
2237  2023-10-30 14:31:42.989295
2238  2023-10-30 14:31:43.021205
2239  2023-10-30 14:31:43.053129
2240  2023-10-30 14:31:43.085034
2241  2023-10-30 14:31:43.116951
2242  2023-10-30 14:31:43.149859
2243  2023-10-30 14:31:43.181811
2244  2023-10-30 14:31:43.213657
2245  2023-10-30 14:31:43.245572
2246  2023-10-30 14:31:43.277487
2247  2023-10-30 14:31:43.309585
2248  2023-10-30 14:31:43.357489
2249  2023-10-30 14:31:43.389402
2250  2023-10-30 14:31:43.421324
2251  2023-10-30 14:31:43.453295
2252  2023-10-30 14:31:43.485162
2253  2023-10-30 14:31:43.517063
2254  2023-10-30 14:31:43.548982
2255  2023-10-30 14:31:43.580910
2256  2023-10-30 14:31:43.613772
2257  2023-10-30 14:31:43.645686
2258  2023-10-30 14:31:43.677679
2259  2023-10-30 14:31:43.709594
2260  2023-10-30 14:31:43.757500
2261  2023-10-30 14:31:43.789414
2262  2023-10-30 14:31:43.821335
2263  2023-10-30 14:31:43.853248
2264  2023-10-30 14:31:43.885157
2265  2023-10-30 14:31:43.917106
2266  2023-10-30 14:31:43.948983
2267  2023-10-30 14:31:43.981901
2268  2023-10-30 14:31:44.013781
2269  2023-10-30 14:31:44.045820
2270  2023-10-30 14:31:44.077684
2271  2023-10-30 14:31:44.109604
2272  2023-10-30 14:31:44.157512
2273  2023-10-30 14:31:44.189426
2274  2023-10-30 14:31:44.221346
2275  2023-10-30 14:31:44.253262
2276  2023-10-30 14:31:44.285190
2277  2023-10-30 14:31:44.317086
2278  2023-10-30 14:31:44.349007
2279  2023-10-30 14:31:44.381914
2280  2023-10-30 14:31:44.413791
2281  2023-10-30 14:31:44.445705
2282  2023-10-30 14:31:44.477620
2283  2023-10-30 14:31:44.525532
2284  2023-10-30 14:31:44.557438
2285  2023-10-30 14:31:44.589353
2286  2023-10-30 14:31:44.621282
2287  2023-10-30 14:31:44.653177
2288  2023-10-30 14:31:44.685098
2289  2023-10-30 14:31:44.717011
2290  2023-10-30 14:31:44.748941
2291  2023-10-30 14:31:44.781855
2292  2023-10-30 14:31:44.813722
2293  2023-10-30 14:31:44.845669
2294  2023-10-30 14:31:44.877583
2295  2023-10-30 14:31:44.925455
2296  2023-10-30 14:31:44.957373
2297  2023-10-30 14:31:44.989309
2298  2023-10-30 14:31:45.021201
2299  2023-10-30 14:31:45.053112
2300  2023-10-30 14:31:45.085044
2301  2023-10-30 14:31:45.117943
2302  2023-10-30 14:31:45.149910
2303  2023-10-30 14:31:45.181773
2304  2023-10-30 14:31:45.213801
2305  2023-10-30 14:31:45.245762
2306  2023-10-30 14:31:45.277667
2307  2023-10-30 14:31:45.325572
2308  2023-10-30 14:31:45.357575
2309  2023-10-30 14:31:45.389491
2310  2023-10-30 14:31:45.421550
2311  2023-10-30 14:31:45.453442
2312  2023-10-30 14:31:45.485357
2313  2023-10-30 14:31:45.517327
2314  2023-10-30 14:31:45.549192
2315  2023-10-30 14:31:45.581197
2316  2023-10-30 14:31:45.613125
2317  2023-10-30 14:31:45.645040
2318  2023-10-30 14:31:45.677002
2319  2023-10-30 14:31:45.725868
2320  2023-10-30 14:31:45.757772
2321  2023-10-30 14:31:45.789790
2322  2023-10-30 14:31:45.821713
2323  2023-10-30 14:31:45.853632
2324  2023-10-30 14:31:45.885551
2325  2023-10-30 14:31:45.917486
2326  2023-10-30 14:31:45.949372
2327  2023-10-30 14:31:45.982249
2328  2023-10-30 14:31:46.014165
2329  2023-10-30 14:31:46.046118
2330  2023-10-30 14:31:46.078087
2331  2023-10-30 14:31:46.126974
2332  2023-10-30 14:31:46.158855
2333  2023-10-30 14:31:46.189785
2334  2023-10-30 14:31:46.222691
2335  2023-10-30 14:31:46.254617
2336  2023-10-30 14:31:46.286520
2337  2023-10-30 14:31:46.318403
2338  2023-10-30 14:31:46.351350
2339  2023-10-30 14:31:46.382281
2340  2023-10-30 14:31:46.414287
2341  2023-10-30 14:31:46.446205
2342  2023-10-30 14:31:46.478129
2343  2023-10-30 14:31:46.526000
2344  2023-10-30 14:31:46.557917
2345  2023-10-30 14:31:46.589854
2346  2023-10-30 14:31:46.621843
2347  2023-10-30 14:31:46.653827
2348  2023-10-30 14:31:46.686191
2349  2023-10-30 14:31:46.718105
2350  2023-10-30 14:31:46.750007
2351  2023-10-30 14:31:46.781901
2352  2023-10-30 14:31:46.813869
2353  2023-10-30 14:31:46.845776
2354  2023-10-30 14:31:46.877688
2355  2023-10-30 14:31:46.925563
2356  2023-10-30 14:31:46.957421
2357  2023-10-30 14:31:46.989459
2358  2023-10-30 14:31:47.021372
2359  2023-10-30 14:31:47.053294
2360  2023-10-30 14:31:47.085224
2361  2023-10-30 14:31:47.117112
2362  2023-10-30 14:31:47.149039
2363  2023-10-30 14:31:47.181916
2364  2023-10-30 14:31:47.213945
2365  2023-10-30 14:31:47.245820
2366  2023-10-30 14:31:47.277772
2367  2023-10-30 14:31:47.325641
2368  2023-10-30 14:31:47.357552
2369  2023-10-30 14:31:47.389471
2370  2023-10-30 14:31:47.421379
2371  2023-10-30 14:31:47.453309
2372  2023-10-30 14:31:47.485213
2373  2023-10-30 14:31:47.517125
2374  2023-10-30 14:31:47.549011
2375  2023-10-30 14:31:47.582950
2376  2023-10-30 14:31:47.613836
2377  2023-10-30 14:31:47.645786
2378  2023-10-30 14:31:47.677696
2379  2023-10-30 14:31:47.725569
2380  2023-10-30 14:31:47.757454
2381  2023-10-30 14:31:47.790397
2382  2023-10-30 14:31:47.822309
2383  2023-10-30 14:31:47.854237
2384  2023-10-30 14:31:47.885166
2385  2023-10-30 14:31:47.917056
2386  2023-10-30 14:31:47.950124
2387  2023-10-30 14:31:47.982067
2388  2023-10-30 14:31:48.013921
2389  2023-10-30 14:31:48.045846
2390  2023-10-30 14:31:48.077788
2391  2023-10-30 14:31:48.125733
2392  2023-10-30 14:31:48.157649
2393  2023-10-30 14:31:48.189564
2394  2023-10-30 14:31:48.222489
2395  2023-10-30 14:31:48.254400
2396  2023-10-30 14:31:48.285277
2397  2023-10-30 14:31:48.317191
2398  2023-10-30 14:31:48.350142
2399  2023-10-30 14:31:48.382048
2400  2023-10-30 14:31:48.413933
2401  2023-10-30 14:31:48.445846
2402  2023-10-30 14:31:48.493751
2403  2023-10-30 14:31:48.525685
2404  2023-10-30 14:31:48.557580
2405  2023-10-30 14:31:48.590495
2406  2023-10-30 14:31:48.621410
2407  2023-10-30 14:31:48.653319
2408  2023-10-30 14:31:48.685239
2409  2023-10-30 14:31:48.717162
2410  2023-10-30 14:31:48.750067
2411  2023-10-30 14:31:48.780987
2412  2023-10-30 14:31:48.813864
2413  2023-10-30 14:31:48.845807
2414  2023-10-30 14:31:48.893686
2415  2023-10-30 14:31:48.925601
2416  2023-10-30 14:31:48.957515
2417  2023-10-30 14:31:48.989429
2418  2023-10-30 14:31:49.021344
2419  2023-10-30 14:31:49.054265
2420  2023-10-30 14:31:49.085177
2421  2023-10-30 14:31:49.117085
2422  2023-10-30 14:31:49.149993
2423  2023-10-30 14:31:49.181938
2424  2023-10-30 14:31:49.213851
2425  2023-10-30 14:31:49.245818
2426  2023-10-30 14:31:49.293651
2427  2023-10-30 14:31:49.325556
2428  2023-10-30 14:31:49.357481
2429  2023-10-30 14:31:49.389354
2430  2023-10-30 14:31:49.421271
2431  2023-10-30 14:31:49.453191
2432  2023-10-30 14:31:49.485120
2433  2023-10-30 14:31:49.517030
2434  2023-10-30 14:31:49.549982
2435  2023-10-30 14:31:49.581869
2436  2023-10-30 14:31:49.612877
2437  2023-10-30 14:31:49.645789
2438  2023-10-30 14:31:49.693660
2439  2023-10-30 14:31:49.725574
2440  2023-10-30 14:31:49.757491
2441  2023-10-30 14:31:49.789404
2442  2023-10-30 14:31:49.821288
2443  2023-10-30 14:31:49.853239
2444  2023-10-30 14:31:49.885154
2445  2023-10-30 14:31:49.917085
2446  2023-10-30 14:31:49.948981
2447  2023-10-30 14:31:49.981917
2448  2023-10-30 14:31:50.013843
2449  2023-10-30 14:31:50.045720
2450  2023-10-30 14:31:50.093602
2451  2023-10-30 14:31:50.125506
2452  2023-10-30 14:31:50.157425
2453  2023-10-30 14:31:50.189339
2454  2023-10-30 14:31:50.221279
2455  2023-10-30 14:31:50.253185
2456  2023-10-30 14:31:50.285095
2457  2023-10-30 14:31:50.317011
2458  2023-10-30 14:31:50.348917
2459  2023-10-30 14:31:50.381849
2460  2023-10-30 14:31:50.413744
2461  2023-10-30 14:31:50.445651
2462  2023-10-30 14:31:50.493524
2463  2023-10-30 14:31:50.525440
2464  2023-10-30 14:31:50.557353
2465  2023-10-30 14:31:50.589273
2466  2023-10-30 14:31:50.621188
2467  2023-10-30 14:31:50.653111
2468  2023-10-30 14:31:50.685052
2469  2023-10-30 14:31:50.717048
2470  2023-10-30 14:31:50.748967
2471  2023-10-30 14:31:50.781891
2472  2023-10-30 14:31:50.813840
2473  2023-10-30 14:31:50.845704
2474  2023-10-30 14:31:50.893578
2475  2023-10-30 14:31:50.925489
2476  2023-10-30 14:31:50.957409
2477  2023-10-30 14:31:50.989894
2478  2023-10-30 14:31:51.021813
2479  2023-10-30 14:31:51.053942
2480  2023-10-30 14:31:51.085820
2481  2023-10-30 14:31:51.117711
2482  2023-10-30 14:31:51.149632
2483  2023-10-30 14:31:51.181561
2484  2023-10-30 14:31:51.213425
2485  2023-10-30 14:31:51.245378
2486  2023-10-30 14:31:51.293255
2487  2023-10-30 14:31:51.325156
2488  2023-10-30 14:31:51.357070
2489  2023-10-30 14:31:51.389953
2490  2023-10-30 14:31:51.421931
2491  2023-10-30 14:31:51.453856
2492  2023-10-30 14:31:51.485729
2493  2023-10-30 14:31:51.517710
2494  2023-10-30 14:31:51.549631
2495  2023-10-30 14:31:51.581540
2496  2023-10-30 14:31:51.613453
2497  2023-10-30 14:31:51.645377
2498  2023-10-30 14:31:51.693253
2499  2023-10-30 14:31:51.725156
2500  2023-10-30 14:31:51.757038
2501  2023-10-30 14:31:51.788997
2502  2023-10-30 14:31:51.820900
2503  2023-10-30 14:31:51.853848
2504  2023-10-30 14:31:51.885007
2505  2023-10-30 14:31:51.917051
2506  2023-10-30 14:31:51.948951
2507  2023-10-30 14:31:51.980882
2508  2023-10-30 14:31:52.012944
2509  2023-10-30 14:31:52.060840
2510  2023-10-30 14:31:52.093730
2511  2023-10-30 14:31:52.125775
2512  2023-10-30 14:31:52.157746
2513  2023-10-30 14:31:52.189741
2514  2023-10-30 14:31:52.221656
2515  2023-10-30 14:31:52.253620
2516  2023-10-30 14:31:52.285499
2517  2023-10-30 14:31:52.317396
2518  2023-10-30 14:31:52.349313
2519  2023-10-30 14:31:52.381227
2520  2023-10-30 14:31:52.413158
2521  2023-10-30 14:31:52.461030
2522  2023-10-30 14:31:52.492899
2523  2023-10-30 14:31:52.524848
2524  2023-10-30 14:31:52.557775
2525  2023-10-30 14:31:52.589670
2526  2023-10-30 14:31:52.621586
2527  2023-10-30 14:31:52.653510
2528  2023-10-30 14:31:52.685414
2529  2023-10-30 14:31:52.717329
2530  2023-10-30 14:31:52.749243
2531  2023-10-30 14:31:52.781175
2532  2023-10-30 14:31:52.813072
2533  2023-10-30 14:31:52.860945
2534  2023-10-30 14:31:52.892855
2535  2023-10-30 14:31:52.925772
2536  2023-10-30 14:31:52.957690
2537  2023-10-30 14:31:52.989606
2538  2023-10-30 14:31:53.021518
2539  2023-10-30 14:31:53.053440
2540  2023-10-30 14:31:53.085362
2541  2023-10-30 14:31:53.117261
2542  2023-10-30 14:31:53.149181
2543  2023-10-30 14:31:53.181089
2544  2023-10-30 14:31:53.214011
2545  2023-10-30 14:31:53.261874
2546  2023-10-30 14:31:53.293799
2547  2023-10-30 14:31:53.325717
2548  2023-10-30 14:31:53.357618
2549  2023-10-30 14:31:53.389539
2550  2023-10-30 14:31:53.421448
2551  2023-10-30 14:31:53.453375
2552  2023-10-30 14:31:53.485149
2553  2023-10-30 14:31:53.517166
2554  2023-10-30 14:31:53.549077
2555  2023-10-30 14:31:53.580996
2556  2023-10-30 14:31:53.612910
2557  2023-10-30 14:31:53.661793
2558  2023-10-30 14:31:53.693696
2559  2023-10-30 14:31:53.725612
2560  2023-10-30 14:31:53.757515
2561  2023-10-30 14:31:53.789430
2562  2023-10-30 14:31:53.821412
2563  2023-10-30 14:31:53.853332
2564  2023-10-30 14:31:53.885264
2565  2023-10-30 14:31:53.917159
2566  2023-10-30 14:31:53.949075
2567  2023-10-30 14:31:53.980985
2568  2023-10-30 14:31:54.012916
2569  2023-10-30 14:31:54.061647
2570  2023-10-30 14:31:54.093558
2571  2023-10-30 14:31:54.125477
2572  2023-10-30 14:31:54.157388
2573  2023-10-30 14:31:54.189315
2574  2023-10-30 14:31:54.221219
2575  2023-10-30 14:31:54.253145
2576  2023-10-30 14:31:54.285059
2577  2023-10-30 14:31:54.316974
2578  2023-10-30 14:31:54.348893
2579  2023-10-30 14:31:54.381782
2580  2023-10-30 14:31:54.413669
2581  2023-10-30 14:31:54.461574
2582  2023-10-30 14:31:54.493489
2583  2023-10-30 14:31:54.525400
2584  2023-10-30 14:31:54.557325
2585  2023-10-30 14:31:54.589268
2586  2023-10-30 14:31:54.621146
2587  2023-10-30 14:31:54.653077
2588  2023-10-30 14:31:54.684989
2589  2023-10-30 14:31:54.717886
2590  2023-10-30 14:31:54.749817
2591  2023-10-30 14:31:54.781738
2592  2023-10-30 14:31:54.813599
2593  2023-10-30 14:31:54.861165
2594  2023-10-30 14:31:54.893114
2595  2023-10-30 14:31:54.925993
2596  2023-10-30 14:31:54.957947
2597  2023-10-30 14:31:54.989862
2598  2023-10-30 14:31:55.021776
2599  2023-10-30 14:31:55.053735
2600  2023-10-30 14:31:55.085741
2601  2023-10-30 14:31:55.117687
2602  2023-10-30 14:31:55.149619
2603  2023-10-30 14:31:55.181475
2604  2023-10-30 14:31:55.213266
2605  2023-10-30 14:31:55.261178
2606  2023-10-30 14:31:55.293181
2607  2023-10-30 14:31:55.325097
2608  2023-10-30 14:31:55.357081
2609  2023-10-30 14:31:55.388998
2610  2023-10-30 14:31:55.420925
2611  2023-10-30 14:31:55.453823
2612  2023-10-30 14:31:55.485729
2613  2023-10-30 14:31:55.517642
2614  2023-10-30 14:31:55.549570
2615  2023-10-30 14:31:55.581473
2616  2023-10-30 14:31:55.613354
2617  2023-10-30 14:31:55.661262
2618  2023-10-30 14:31:55.693186
2619  2023-10-30 14:31:55.725088
2620  2023-10-30 14:31:55.757002
2621  2023-10-30 14:31:55.788945
2622  2023-10-30 14:31:55.821835
2623  2023-10-30 14:31:55.853756
2624  2023-10-30 14:31:55.885662
2625  2023-10-30 14:31:55.917572
2626  2023-10-30 14:31:55.949495
2627  2023-10-30 14:31:55.981401
2628  2023-10-30 14:31:56.029279
2629  2023-10-30 14:31:56.061188
2630  2023-10-30 14:31:56.093102
2631  2023-10-30 14:31:56.125017
2632  2023-10-30 14:31:56.156932
2633  2023-10-30 14:31:56.189875
2634  2023-10-30 14:31:56.221784
2635  2023-10-30 14:31:56.253676
2636  2023-10-30 14:31:56.285591
2637  2023-10-30 14:31:56.317497
2638  2023-10-30 14:31:56.349420
2639  2023-10-30 14:31:56.381336
2640  2023-10-30 14:31:56.429237
2641  2023-10-30 14:31:56.461136
2642  2023-10-30 14:31:56.493032
2643  2023-10-30 14:31:56.524951
2644  2023-10-30 14:31:56.556868
2645  2023-10-30 14:31:56.589801
2646  2023-10-30 14:31:56.621704
2647  2023-10-30 14:31:56.653840
2648  2023-10-30 14:31:56.685739
2649  2023-10-30 14:31:56.717655
2650  2023-10-30 14:31:56.749567
2651  2023-10-30 14:31:56.781485
2652  2023-10-30 14:31:56.829357
2653  2023-10-30 14:31:56.861291
2654  2023-10-30 14:31:56.893812
2655  2023-10-30 14:31:56.925836
2656  2023-10-30 14:31:56.957754
2657  2023-10-30 14:31:56.989721
2658  2023-10-30 14:31:57.021586
2659  2023-10-30 14:31:57.053497
2660  2023-10-30 14:31:57.085412
2661  2023-10-30 14:31:57.117485
2662  2023-10-30 14:31:57.149399
2663  2023-10-30 14:31:57.181325
2664  2023-10-30 14:31:57.229188
2665  2023-10-30 14:31:57.262068
2666  2023-10-30 14:31:57.293982
2667  2023-10-30 14:31:57.324929
2668  2023-10-30 14:31:57.357887
2669  2023-10-30 14:31:57.389756
2670  2023-10-30 14:31:57.421674
2671  2023-10-30 14:31:57.453609
2672  2023-10-30 14:31:57.485520
2673  2023-10-30 14:31:57.517410
2674  2023-10-30 14:31:57.549300
2675  2023-10-30 14:31:57.581274
2676  2023-10-30 14:31:57.629134
2677  2023-10-30 14:31:57.661047
2678  2023-10-30 14:31:57.692945
2679  2023-10-30 14:31:57.725420
2680  2023-10-30 14:31:57.757335
2681  2023-10-30 14:31:57.789252
2682  2023-10-30 14:31:57.821160
2683  2023-10-30 14:31:57.853076
2684  2023-10-30 14:31:57.884990
2685  2023-10-30 14:31:57.916905
2686  2023-10-30 14:31:57.949824
2687  2023-10-30 14:31:57.981732
2688  2023-10-30 14:31:58.029679
2689  2023-10-30 14:31:58.061674
2690  2023-10-30 14:31:58.093635
2691  2023-10-30 14:31:58.125550
2692  2023-10-30 14:31:58.157496
2693  2023-10-30 14:31:58.189485
2694  2023-10-30 14:31:58.221400
2695  2023-10-30 14:31:58.253314
2696  2023-10-30 14:31:58.285229
2697  2023-10-30 14:31:58.317144
2698  2023-10-30 14:31:58.349104
2699  2023-10-30 14:31:58.380993
2700  2023-10-30 14:31:58.428853
2701  2023-10-30 14:31:58.461762
2702  2023-10-30 14:31:58.493668
2703  2023-10-30 14:31:58.525585
2704  2023-10-30 14:31:58.557497
2705  2023-10-30 14:31:58.589408
2706  2023-10-30 14:31:58.621339
2707  2023-10-30 14:31:58.653279
2708  2023-10-30 14:31:58.685187
2709  2023-10-30 14:31:58.717108
2710  2023-10-30 14:31:58.749070
2711  2023-10-30 14:31:58.780968
2712  2023-10-30 14:31:58.829853
2713  2023-10-30 14:31:58.861783
2714  2023-10-30 14:31:58.893668
2715  2023-10-30 14:31:58.925589
2716  2023-10-30 14:31:58.957499
2717  2023-10-30 14:31:58.989412
2718  2023-10-30 14:31:59.021357
2719  2023-10-30 14:31:59.053242
2720  2023-10-30 14:31:59.085186
2721  2023-10-30 14:31:59.117084
2722  2023-10-30 14:31:59.149977
2723  2023-10-30 14:31:59.180901
2724  2023-10-30 14:31:59.229771
2725  2023-10-30 14:31:59.261727
2726  2023-10-30 14:31:59.293569
2727  2023-10-30 14:31:59.325450
2728  2023-10-30 14:31:59.357474
2729  2023-10-30 14:31:59.389467
2730  2023-10-30 14:31:59.421432
2731  2023-10-30 14:31:59.453317
2732  2023-10-30 14:31:59.485219
2733  2023-10-30 14:31:59.517134
2734  2023-10-30 14:31:59.549062
2735  2023-10-30 14:31:59.597884
2736  2023-10-30 14:31:59.629825
2737  2023-10-30 14:31:59.661764
2738  2023-10-30 14:31:59.693659
2739  2023-10-30 14:31:59.725573
2740  2023-10-30 14:31:59.757493
2741  2023-10-30 14:31:59.789414
2742  2023-10-30 14:31:59.821328
2743  2023-10-30 14:31:59.853232
2744  2023-10-30 14:31:59.886156
2745  2023-10-30 14:31:59.917087
2746  2023-10-30 14:31:59.948981
2747  2023-10-30 14:31:59.997850
2748  2023-10-30 14:32:00.029765
2749  2023-10-30 14:32:00.061680
2750  2023-10-30 14:32:00.093595
2751  2023-10-30 14:32:00.125596
2752  2023-10-30 14:32:00.157508
2753  2023-10-30 14:32:00.189422
2754  2023-10-30 14:32:00.221348
2755  2023-10-30 14:32:00.253262
2756  2023-10-30 14:32:00.285168
2757  2023-10-30 14:32:00.317081
2758  2023-10-30 14:32:00.348995
2759  2023-10-30 14:32:00.396836
2760  2023-10-30 14:32:00.429789
2761  2023-10-30 14:32:00.461665
2762  2023-10-30 14:32:00.493611
2763  2023-10-30 14:32:00.525525
2764  2023-10-30 14:32:00.557439
2765  2023-10-30 14:32:00.589349
2766  2023-10-30 14:32:00.621281
2767  2023-10-30 14:32:00.653203
2768  2023-10-30 14:32:00.685096
2769  2023-10-30 14:32:00.717980
2770  2023-10-30 14:32:00.748932
2771  2023-10-30 14:32:00.797828
2772  2023-10-30 14:32:00.829711
2773  2023-10-30 14:32:00.861625
2774  2023-10-30 14:32:00.893540
2775  2023-10-30 14:32:00.925425
2776  2023-10-30 14:32:00.957370
2777  2023-10-30 14:32:00.989342
2778  2023-10-30 14:32:01.021203
2779  2023-10-30 14:32:01.053109
2780  2023-10-30 14:32:01.085041
2781  2023-10-30 14:32:01.116992
2782  2023-10-30 14:32:01.148878
2783  2023-10-30 14:32:01.197785
2784  2023-10-30 14:32:01.229761
2785  2023-10-30 14:32:01.261649
2786  2023-10-30 14:32:01.293564
2787  2023-10-30 14:32:01.325479
2788  2023-10-30 14:32:01.357394
2789  2023-10-30 14:32:01.389355
2790  2023-10-30 14:32:01.421221
2791  2023-10-30 14:32:01.453140
2792  2023-10-30 14:32:01.485049
2793  2023-10-30 14:32:01.516977
2794  2023-10-30 14:32:01.548891
2795  2023-10-30 14:32:01.597716
2796  2023-10-30 14:32:01.629657
2797  2023-10-30 14:32:01.661575
2798  2023-10-30 14:32:01.693492
2799  2023-10-30 14:32:01.725405
2800  2023-10-30 14:32:01.757331
2801  2023-10-30 14:32:01.789256
2802  2023-10-30 14:32:01.821186
2803  2023-10-30 14:32:01.853263
2804  2023-10-30 14:32:01.885216
2805  2023-10-30 14:32:01.917133
2806  2023-10-30 14:32:01.949070
2807  2023-10-30 14:32:01.997889
2808  2023-10-30 14:32:02.030846
2809  2023-10-30 14:32:02.062820
2810  2023-10-30 14:32:02.093798
2811  2023-10-30 14:32:02.127641
2812  2023-10-30 14:32:02.158609
2813  2023-10-30 14:32:02.189506
2814  2023-10-30 14:32:02.222420
2815  2023-10-30 14:32:02.255453
2816  2023-10-30 14:32:02.286371
2817  2023-10-30 14:32:02.319304
2818  2023-10-30 14:32:02.350221
2819  2023-10-30 14:32:02.400431
2820  2023-10-30 14:32:02.430306
2821  2023-10-30 14:32:02.462251
2822  2023-10-30 14:32:02.494165
2823  2023-10-30 14:32:02.526080
2824  2023-10-30 14:32:02.558013
2825  2023-10-30 14:32:02.590923
2826  2023-10-30 14:32:02.621883
2827  2023-10-30 14:32:02.653788
2828  2023-10-30 14:32:02.685827
2829  2023-10-30 14:32:02.718733
2830  2023-10-30 14:32:02.750647
2831  2023-10-30 14:32:02.797564
2832  2023-10-30 14:32:02.830444
2833  2023-10-30 14:32:02.862361
2834  2023-10-30 14:32:02.894265
2835  2023-10-30 14:32:02.926212
2836  2023-10-30 14:32:02.958190
2837  2023-10-30 14:32:02.990099
2838  2023-10-30 14:32:03.022079
2839  2023-10-30 14:32:03.053991
2840  2023-10-30 14:32:03.085895
2841  2023-10-30 14:32:03.117812
2842  2023-10-30 14:32:03.149729
2843  2023-10-30 14:32:03.197664
2844  2023-10-30 14:32:03.229979
2845  2023-10-30 14:32:03.261898
2846  2023-10-30 14:32:03.293801
2847  2023-10-30 14:32:03.325712
2848  2023-10-30 14:32:03.357630
2849  2023-10-30 14:32:03.389555
2850  2023-10-30 14:32:03.421460
2851  2023-10-30 14:32:03.453372
2852  2023-10-30 14:32:03.485300
2853  2023-10-30 14:32:03.517201
2854  2023-10-30 14:32:03.565076
2855  2023-10-30 14:32:03.596987
2856  2023-10-30 14:32:03.629883
2857  2023-10-30 14:32:03.661844
2858  2023-10-30 14:32:03.693699
2859  2023-10-30 14:32:03.725647
2860  2023-10-30 14:32:03.757601
2861  2023-10-30 14:32:03.789475
2862  2023-10-30 14:32:03.821390
2863  2023-10-30 14:32:03.853311
2864  2023-10-30 14:32:03.885220
2865  2023-10-30 14:32:03.917135
2866  2023-10-30 14:32:03.965022
2867  2023-10-30 14:32:03.997939
2868  2023-10-30 14:32:04.030832
2869  2023-10-30 14:32:04.062743
2870  2023-10-30 14:32:04.094602
2871  2023-10-30 14:32:04.125580
2872  2023-10-30 14:32:04.157679
2873  2023-10-30 14:32:04.190588
2874  2023-10-30 14:32:04.222496
2875  2023-10-30 14:32:04.254475
2876  2023-10-30 14:32:04.285348
2877  2023-10-30 14:32:04.317326
2878  2023-10-30 14:32:04.365134
2879  2023-10-30 14:32:04.397082
2880  2023-10-30 14:32:04.429963
2881  2023-10-30 14:32:04.462921
2882  2023-10-30 14:32:04.493817
2883  2023-10-30 14:32:04.525739
2884  2023-10-30 14:32:04.557654
2885  2023-10-30 14:32:04.589536
2886  2023-10-30 14:32:04.622482
2887  2023-10-30 14:32:04.654410
2888  2023-10-30 14:32:04.685326
2889  2023-10-30 14:32:04.717226
2890  2023-10-30 14:32:04.765098
2891  2023-10-30 14:32:04.797013
2892  2023-10-30 14:32:04.830182
2893  2023-10-30 14:32:04.862195
2894  2023-10-30 14:32:04.894201
2895  2023-10-30 14:32:04.925128
2896  2023-10-30 14:32:04.957042
2897  2023-10-30 14:32:04.989988
2898  2023-10-30 14:32:05.021870
2899  2023-10-30 14:32:05.053778
2900  2023-10-30 14:32:05.085690
2901  2023-10-30 14:32:05.117600
2902  2023-10-30 14:32:05.165439
2903  2023-10-30 14:32:05.197354
2904  2023-10-30 14:32:05.229313
2905  2023-10-30 14:32:05.261241
2906  2023-10-30 14:32:05.293150
2907  2023-10-30 14:32:05.325044
2908  2023-10-30 14:32:05.356969
2909  2023-10-30 14:32:05.389866
2910  2023-10-30 14:32:05.421795
2911  2023-10-30 14:32:05.453707
2912  2023-10-30 14:32:05.485617
2913  2023-10-30 14:32:05.517530
2914  2023-10-30 14:32:05.565399
2915  2023-10-30 14:32:05.597317
2916  2023-10-30 14:32:05.629235
2917  2023-10-30 14:32:05.661151
2918  2023-10-30 14:32:05.694059
2919  2023-10-30 14:32:05.724978
2920  2023-10-30 14:32:05.756892
2921  2023-10-30 14:32:05.789837
2922  2023-10-30 14:32:05.821716
2923  2023-10-30 14:32:05.853626
2924  2023-10-30 14:32:05.885566
2925  2023-10-30 14:32:05.917461
2926  2023-10-30 14:32:05.965302
2927  2023-10-30 14:32:05.997329
2928  2023-10-30 14:32:06.029162
2929  2023-10-30 14:32:06.061115
2930  2023-10-30 14:32:06.094090
2931  2023-10-30 14:32:06.126008
2932  2023-10-30 14:32:06.156924
2933  2023-10-30 14:32:06.189834
2934  2023-10-30 14:32:06.221718
2935  2023-10-30 14:32:06.253674
2936  2023-10-30 14:32:06.285579
2937  2023-10-30 14:32:06.317495
2938  2023-10-30 14:32:06.365363
2939  2023-10-30 14:32:06.397279
2940  2023-10-30 14:32:06.429165
2941  2023-10-30 14:32:06.462120
2942  2023-10-30 14:32:06.494023
2943  2023-10-30 14:32:06.525067
2944  2023-10-30 14:32:06.556990
2945  2023-10-30 14:32:06.589864
2946  2023-10-30 14:32:06.621842
2947  2023-10-30 14:32:06.653627
2948  2023-10-30 14:32:06.685625
2949  2023-10-30 14:32:06.717697
2950  2023-10-30 14:32:06.765584
2951  2023-10-30 14:32:06.797481
2952  2023-10-30 14:32:06.829406
2953  2023-10-30 14:32:06.861324
2954  2023-10-30 14:32:06.893193
2955  2023-10-30 14:32:06.925252
2956  2023-10-30 14:32:06.957277
2957  2023-10-30 14:32:06.989190
2958  2023-10-30 14:32:07.021107
2959  2023-10-30 14:32:07.053022
2960  2023-10-30 14:32:07.084905
2961  2023-10-30 14:32:07.133804
2962  2023-10-30 14:32:07.165714
2963  2023-10-30 14:32:07.197636
2964  2023-10-30 14:32:07.229548
2965  2023-10-30 14:32:07.261465
2966  2023-10-30 14:32:07.293375
2967  2023-10-30 14:32:07.325289
2968  2023-10-30 14:32:07.357209
2969  2023-10-30 14:32:07.389122
2970  2023-10-30 14:32:07.421036
2971  2023-10-30 14:32:07.452963
2972  2023-10-30 14:32:07.485861
2973  2023-10-30 14:32:07.533739
2974  2023-10-30 14:32:07.565645
2975  2023-10-30 14:32:07.597584
2976  2023-10-30 14:32:07.629482
2977  2023-10-30 14:32:07.661412
2978  2023-10-30 14:32:07.693326
2979  2023-10-30 14:32:07.725237
2980  2023-10-30 14:32:07.757140
2981  2023-10-30 14:32:07.789055
2982  2023-10-30 14:32:07.821968
2983  2023-10-30 14:32:07.853798
2984  2023-10-30 14:32:07.885786
2985  2023-10-30 14:32:07.933710
2986  2023-10-30 14:32:07.966567
2987  2023-10-30 14:32:07.997518
2988  2023-10-30 14:32:08.029435
2989  2023-10-30 14:32:08.061353
2990  2023-10-30 14:32:08.093267
2991  2023-10-30 14:32:08.125193
2992  2023-10-30 14:32:08.157058
2993  2023-10-30 14:32:08.189023
2994  2023-10-30 14:32:08.221913
2995  2023-10-30 14:32:08.253856
2996  2023-10-30 14:32:08.285745
2997  2023-10-30 14:32:08.333618
2998  2023-10-30 14:32:08.365559
2999  2023-10-30 14:32:08.397449
3000  2023-10-30 14:32:08.429365
3001  2023-10-30 14:32:08.461295
3002  2023-10-30 14:32:08.493197
3003  2023-10-30 14:32:08.525122
3004  2023-10-30 14:32:08.556997
3005  2023-10-30 14:32:08.588990
3006  2023-10-30 14:32:08.621046
3007  2023-10-30 14:32:08.652957
3008  2023-10-30 14:32:08.685876
3009  2023-10-30 14:32:08.733733
3010  2023-10-30 14:32:08.765648
3011  2023-10-30 14:32:08.797563
3012  2023-10-30 14:32:08.829477
3013  2023-10-30 14:32:08.861394
3014  2023-10-30 14:32:08.893328
3015  2023-10-30 14:32:08.925220
3016  2023-10-30 14:32:08.957138
3017  2023-10-30 14:32:08.989064
3018  2023-10-30 14:32:09.020970
3019  2023-10-30 14:32:09.053884
3020  2023-10-30 14:32:09.085798
3021  2023-10-30 14:32:09.133669
3022  2023-10-30 14:32:09.165741
3023  2023-10-30 14:32:09.197604
3024  2023-10-30 14:32:09.229518
3025  2023-10-30 14:32:09.261433
3026  2023-10-30 14:32:09.293382
3027  2023-10-30 14:32:09.325230
3028  2023-10-30 14:32:09.357149
3029  2023-10-30 14:32:09.389091
3030  2023-10-30 14:32:09.421976
3031  2023-10-30 14:32:09.452905
3032  2023-10-30 14:32:09.485837
3033  2023-10-30 14:32:09.533673
3034  2023-10-30 14:32:09.565620
3035  2023-10-30 14:32:09.597534
3036  2023-10-30 14:32:09.629480
3037  2023-10-30 14:32:09.661366
3038  2023-10-30 14:32:09.693305
3039  2023-10-30 14:32:09.725177
3040  2023-10-30 14:32:09.757107
3041  2023-10-30 14:32:09.789043
3042  2023-10-30 14:32:09.821930
3043  2023-10-30 14:32:09.853770
3044  2023-10-30 14:32:09.885688
3045  2023-10-30 14:32:09.933710
3046  2023-10-30 14:32:09.965625
3047  2023-10-30 14:32:09.997577
3048  2023-10-30 14:32:10.029495
3049  2023-10-30 14:32:10.061408
3050  2023-10-30 14:32:10.093284
3051  2023-10-30 14:32:10.125562
3052  2023-10-30 14:32:10.157501
3053  2023-10-30 14:32:10.189398
3054  2023-10-30 14:32:10.221439
3055  2023-10-30 14:32:10.253348
3056  2023-10-30 14:32:10.285280
3057  2023-10-30 14:32:10.333138
3058  2023-10-30 14:32:10.365065
3059  2023-10-30 14:32:10.396980
3060  2023-10-30 14:32:10.428881
3061  2023-10-30 14:32:10.461807
3062  2023-10-30 14:32:10.493705
3063  2023-10-30 14:32:10.525694
3064  2023-10-30 14:32:10.557616
3065  2023-10-30 14:32:10.589490
3066  2023-10-30 14:32:10.621436
3067  2023-10-30 14:32:10.653351
3068  2023-10-30 14:32:10.685266
3069  2023-10-30 14:32:10.733104
3070  2023-10-30 14:32:10.765053
3071  2023-10-30 14:32:10.796974
3072  2023-10-30 14:32:10.829884
3073  2023-10-30 14:32:10.861792
3074  2023-10-30 14:32:10.893709
3075  2023-10-30 14:32:10.925628
3076  2023-10-30 14:32:10.957546
3077  2023-10-30 14:32:10.989450
3078  2023-10-30 14:32:11.021368
3079  2023-10-30 14:32:11.053279
3080  2023-10-30 14:32:11.101120
3081  2023-10-30 14:32:11.133035
3082  2023-10-30 14:32:11.165949
3083  2023-10-30 14:32:11.197913
3084  2023-10-30 14:32:11.229820
3085  2023-10-30 14:32:11.261731
3086  2023-10-30 14:32:11.293656
3087  2023-10-30 14:32:11.325552
3088  2023-10-30 14:32:11.357469
3089  2023-10-30 14:32:11.389380
3090  2023-10-30 14:32:11.421298
3091  2023-10-30 14:32:11.453217
3092  2023-10-30 14:32:11.501053
3093  2023-10-30 14:32:11.532966
3094  2023-10-30 14:32:11.565878
3095  2023-10-30 14:32:11.597852
3096  2023-10-30 14:32:11.629761
3097  2023-10-30 14:32:11.661656
3098  2023-10-30 14:32:11.693580
3099  2023-10-30 14:32:11.725503
3100  2023-10-30 14:32:11.757368
3101  2023-10-30 14:32:11.789338
3102  2023-10-30 14:32:11.821231
3103  2023-10-30 14:32:11.853146
3104  2023-10-30 14:32:11.901026
3105  2023-10-30 14:32:11.933894
3106  2023-10-30 14:32:11.965868
3107  2023-10-30 14:32:11.997723
3108  2023-10-30 14:32:12.029675
3109  2023-10-30 14:32:12.061584
3110  2023-10-30 14:32:12.093501
3111  2023-10-30 14:32:12.125384
3112  2023-10-30 14:32:12.157298
3113  2023-10-30 14:32:12.189212
3114  2023-10-30 14:32:12.221127
3115  2023-10-30 14:32:12.253042
3116  2023-10-30 14:32:12.300962
3117  2023-10-30 14:32:12.333825
3118  2023-10-30 14:32:12.365740
3119  2023-10-30 14:32:12.397654
3120  2023-10-30 14:32:12.429602
3121  2023-10-30 14:32:12.461518
3122  2023-10-30 14:32:12.493429
3123  2023-10-30 14:32:12.525348
3124  2023-10-30 14:32:12.557271
3125  2023-10-30 14:32:12.589291
3126  2023-10-30 14:32:12.621312
3127  2023-10-30 14:32:12.653266
3128  2023-10-30 14:32:12.701823
3129  2023-10-30 14:32:12.733737
3130  2023-10-30 14:32:12.765652
3131  2023-10-30 14:32:12.797566
3132  2023-10-30 14:32:12.829522
3133  2023-10-30 14:32:12.861426
3134  2023-10-30 14:32:12.893365
3135  2023-10-30 14:32:12.925270
3136  2023-10-30 14:32:12.957188
3137  2023-10-30 14:32:12.989080
3138  2023-10-30 14:32:13.021016
3139  2023-10-30 14:32:13.052918
3140  2023-10-30 14:32:13.101753
3141  2023-10-30 14:32:13.133668
3142  2023-10-30 14:32:13.165583
3143  2023-10-30 14:32:13.197497
3144  2023-10-30 14:32:13.229459
3145  2023-10-30 14:32:13.262326
3146  2023-10-30 14:32:13.294239
3147  2023-10-30 14:32:13.325157
3148  2023-10-30 14:32:13.357103
3149  2023-10-30 14:32:13.389027
3150  2023-10-30 14:32:13.421899
3151  2023-10-30 14:32:13.453863
3152  2023-10-30 14:32:13.501715
3153  2023-10-30 14:32:13.533599
3154  2023-10-30 14:32:13.565513
3155  2023-10-30 14:32:13.597428
3156  2023-10-30 14:32:13.629344
3157  2023-10-30 14:32:13.661303
3158  2023-10-30 14:32:13.693208
3159  2023-10-30 14:32:13.725118
3160  2023-10-30 14:32:13.757035
3161  2023-10-30 14:32:13.789888
3162  2023-10-30 14:32:13.821804
3163  2023-10-30 14:32:13.853747
3164  2023-10-30 14:32:13.901684
3165  2023-10-30 14:32:13.933598
3166  2023-10-30 14:32:13.965544
3167  2023-10-30 14:32:13.997428
3168  2023-10-30 14:32:14.029381
3169  2023-10-30 14:32:14.061316
3170  2023-10-30 14:32:14.093204
3171  2023-10-30 14:32:14.125132
3172  2023-10-30 14:32:14.157032
3173  2023-10-30 14:32:14.188946
3174  2023-10-30 14:32:14.220908
3175  2023-10-30 14:32:14.252912
3176  2023-10-30 14:32:14.301765
3177  2023-10-30 14:32:14.333643
3178  2023-10-30 14:32:14.365558
3179  2023-10-30 14:32:14.397473
3180  2023-10-30 14:32:14.429435
3181  2023-10-30 14:32:14.461359
3182  2023-10-30 14:32:14.493248
3183  2023-10-30 14:32:14.525331
3184  2023-10-30 14:32:14.557247
3185  2023-10-30 14:32:14.589182
3186  2023-10-30 14:32:14.621212
3187  2023-10-30 14:32:14.669045
3188  2023-10-30 14:32:14.701012
3189  2023-10-30 14:32:14.732911
3190  2023-10-30 14:32:14.765823
3191  2023-10-30 14:32:14.797737
3192  2023-10-30 14:32:14.829732
3193  2023-10-30 14:32:14.861765
3194  2023-10-30 14:32:14.893665
3195  2023-10-30 14:32:14.925586
3196  2023-10-30 14:32:14.957496
3197  2023-10-30 14:32:14.989410
3198  2023-10-30 14:32:15.021360
3199  2023-10-30 14:32:15.069165
3200  2023-10-30 14:32:15.101124
3201  2023-10-30 14:32:15.133040
3202  2023-10-30 14:32:15.165906
3203  2023-10-30 14:32:15.197821
3204  2023-10-30 14:32:15.229773
3205  2023-10-30 14:32:15.261682
3206  2023-10-30 14:32:15.293600
3207  2023-10-30 14:32:15.325511
3208  2023-10-30 14:32:15.357428
3209  2023-10-30 14:32:15.389348
3210  2023-10-30 14:32:15.421500
3211  2023-10-30 14:32:15.469374
3212  2023-10-30 14:32:15.501360
3213  2023-10-30 14:32:15.533274
3214  2023-10-30 14:32:15.565189
3215  2023-10-30 14:32:15.597103
3216  2023-10-30 14:32:15.629062
3217  2023-10-30 14:32:15.660964
3218  2023-10-30 14:32:15.692880
3219  2023-10-30 14:32:15.725808
3220  2023-10-30 14:32:15.757706
3221  2023-10-30 14:32:15.789623
3222  2023-10-30 14:32:15.821536
3223  2023-10-30 14:32:15.869855
3224  2023-10-30 14:32:15.901769
3225  2023-10-30 14:32:15.933684
3226  2023-10-30 14:32:15.965603
3227  2023-10-30 14:32:15.997514
3228  2023-10-30 14:32:16.029460
3229  2023-10-30 14:32:16.061370
3230  2023-10-30 14:32:16.093320
3231  2023-10-30 14:32:16.125232
3232  2023-10-30 14:32:16.157153
3233  2023-10-30 14:32:16.189073
3234  2023-10-30 14:32:16.220952
3235  2023-10-30 14:32:16.268988
3236  2023-10-30 14:32:16.300934
3237  2023-10-30 14:32:16.333815
3238  2023-10-30 14:32:16.365729
3239  2023-10-30 14:32:16.397644
3240  2023-10-30 14:32:16.429591
3241  2023-10-30 14:32:16.461402
3242  2023-10-30 14:32:16.493305
3243  2023-10-30 14:32:16.525217
3244  2023-10-30 14:32:16.557147
3245  2023-10-30 14:32:16.589055
3246  2023-10-30 14:32:16.620982
3247  2023-10-30 14:32:16.669800
3248  2023-10-30 14:32:16.701714
3249  2023-10-30 14:32:16.733629
3250  2023-10-30 14:32:16.765590
3251  2023-10-30 14:32:16.797459
3252  2023-10-30 14:32:16.829404
3253  2023-10-30 14:32:16.861197
3254  2023-10-30 14:32:16.893163
3255  2023-10-30 14:32:16.925070
3256  2023-10-30 14:32:16.956980
3257  2023-10-30 14:32:16.989910
3258  2023-10-30 14:32:17.021804
3259  2023-10-30 14:32:17.068998
3260  2023-10-30 14:32:17.101910
3261  2023-10-30 14:32:17.133825
3262  2023-10-30 14:32:17.165739
3263  2023-10-30 14:32:17.197654
3264  2023-10-30 14:32:17.229602
3265  2023-10-30 14:32:17.261516
3266  2023-10-30 14:32:17.293429
3267  2023-10-30 14:32:17.325361
3268  2023-10-30 14:32:17.357257
3269  2023-10-30 14:32:17.389253
3270  2023-10-30 14:32:17.421171
3271  2023-10-30 14:32:17.469299
3272  2023-10-30 14:32:17.501402
3273  2023-10-30 14:32:17.533326
3274  2023-10-30 14:32:17.566229
3275  2023-10-30 14:32:17.597595
3276  2023-10-30 14:32:17.629609
3277  2023-10-30 14:32:17.661545
3278  2023-10-30 14:32:17.693458
3279  2023-10-30 14:32:17.725382
3280  2023-10-30 14:32:17.757326
3281  2023-10-30 14:32:17.789202
3282  2023-10-30 14:32:17.821119
3283  2023-10-30 14:32:17.868957
3284  2023-10-30 14:32:17.901869
3285  2023-10-30 14:32:17.933784
3286  2023-10-30 14:32:17.965731
3287  2023-10-30 14:32:17.997613
3288  2023-10-30 14:32:18.029559
3289  2023-10-30 14:32:18.061476
3290  2023-10-30 14:32:18.093358
3291  2023-10-30 14:32:18.125316
3292  2023-10-30 14:32:18.157222
3293  2023-10-30 14:32:18.191126
3294  2023-10-30 14:32:18.238998
3295  2023-10-30 14:32:18.270914
3296  2023-10-30 14:32:18.301853
3297  2023-10-30 14:32:18.334748
3298  2023-10-30 14:32:18.366657
3299  2023-10-30 14:32:18.398592
3300  2023-10-30 14:32:18.430691
3301  2023-10-30 14:32:18.462607
3302  2023-10-30 14:32:18.494605
3303  2023-10-30 14:32:18.526476
3304  2023-10-30 14:32:18.558505
3305  2023-10-30 14:32:18.590418
3306  2023-10-30 14:32:18.638290
3307  2023-10-30 14:32:18.670223
3308  2023-10-30 14:32:18.702124
3309  2023-10-30 14:32:18.734038
3310  2023-10-30 14:32:18.766959
3311  2023-10-30 14:32:18.798874
3312  2023-10-30 14:32:18.830776
3313  2023-10-30 14:32:18.862709
3314  2023-10-30 14:32:18.894605
3315  2023-10-30 14:32:18.926521
3316  2023-10-30 14:32:18.958435
3317  2023-10-30 14:32:18.990353
3318  2023-10-30 14:32:19.038235
3319  2023-10-30 14:32:19.070137
3320  2023-10-30 14:32:19.102051
3321  2023-10-30 14:32:19.133967
3322  2023-10-30 14:32:19.165894
3323  2023-10-30 14:32:19.197853
3324  2023-10-30 14:32:19.229853
3325  2023-10-30 14:32:19.261768
3326  2023-10-30 14:32:19.293682
3327  2023-10-30 14:32:19.325597
3328  2023-10-30 14:32:19.357519
3329  2023-10-30 14:32:19.389403
3330  2023-10-30 14:32:19.437311
3331  2023-10-30 14:32:19.470233
3332  2023-10-30 14:32:19.502174
3333  2023-10-30 14:32:19.533118
3334  2023-10-30 14:32:19.565988
3335  2023-10-30 14:32:19.597003
3336  2023-10-30 14:32:19.630926
3337  2023-10-30 14:32:19.661871
3338  2023-10-30 14:32:19.693747
3339  2023-10-30 14:32:19.725657
3340  2023-10-30 14:32:19.757569
3341  2023-10-30 14:32:19.789491
3342  2023-10-30 14:32:19.837363
3343  2023-10-30 14:32:19.869281
3344  2023-10-30 14:32:19.901212
3345  2023-10-30 14:32:19.933107
3346  2023-10-30 14:32:19.965022
3347  2023-10-30 14:32:19.996938
3348  2023-10-30 14:32:20.029831
3349  2023-10-30 14:32:20.061761
3350  2023-10-30 14:32:20.093676
3351  2023-10-30 14:32:20.125562
3352  2023-10-30 14:32:20.157525
3353  2023-10-30 14:32:20.189415
3354  2023-10-30 14:32:20.237331
3355  2023-10-30 14:32:20.270199
3356  2023-10-30 14:32:20.303118
3357  2023-10-30 14:32:20.335032
3358  2023-10-30 14:32:20.364952
3359  2023-10-30 14:32:20.397832
3360  2023-10-30 14:32:20.430778
3361  2023-10-30 14:32:20.462692
3362  2023-10-30 14:32:20.494606
3363  2023-10-30 14:32:20.525536
3364  2023-10-30 14:32:20.557464
3365  2023-10-30 14:32:20.589352
3366  2023-10-30 14:32:20.637148
3367  2023-10-30 14:32:20.670138
3368  2023-10-30 14:32:20.702049
3369  2023-10-30 14:32:20.734961
3370  2023-10-30 14:32:20.765878
3371  2023-10-30 14:32:20.797793
3372  2023-10-30 14:32:20.829774
3373  2023-10-30 14:32:20.862727
3374  2023-10-30 14:32:20.894651
3375  2023-10-30 14:32:20.925552
3376  2023-10-30 14:32:20.957466
3377  2023-10-30 14:32:20.990380
3378  2023-10-30 14:32:21.037225
3379  2023-10-30 14:32:21.070178
3380  2023-10-30 14:32:21.102086
3381  2023-10-30 14:32:21.133993
3382  2023-10-30 14:32:21.165884
3383  2023-10-30 14:32:21.197790
3384  2023-10-30 14:32:21.229740
3385  2023-10-30 14:32:21.261669
3386  2023-10-30 14:32:21.294582
3387  2023-10-30 14:32:21.325495
3388  2023-10-30 14:32:21.357405
3389  2023-10-30 14:32:21.390320
3390  2023-10-30 14:32:21.437183
3391  2023-10-30 14:32:21.470112
3392  2023-10-30 14:32:21.502008
3393  2023-10-30 14:32:21.533927
3394  2023-10-30 14:32:21.565016
3395  2023-10-30 14:32:21.597330
3396  2023-10-30 14:32:21.630251
3397  2023-10-30 14:32:21.662142
3398  2023-10-30 14:32:21.694056
3399  2023-10-30 14:32:21.725985
3400  2023-10-30 14:32:21.756906
3401  2023-10-30 14:32:21.789839
3402  2023-10-30 14:32:21.837676
3403  2023-10-30 14:32:21.869557
3404  2023-10-30 14:32:21.901635
3405  2023-10-30 14:32:21.933455
3406  2023-10-30 14:32:21.965364
3407  2023-10-30 14:32:21.997217
3408  2023-10-30 14:32:22.029183
3409  2023-10-30 14:32:22.062044
3410  2023-10-30 14:32:22.094001
3411  2023-10-30 14:32:22.125904
3412  2023-10-30 14:32:22.157840
3413  2023-10-30 14:32:22.205290
3414  2023-10-30 14:32:22.237280
3415  2023-10-30 14:32:22.269194
3416  2023-10-30 14:32:22.301228
3417  2023-10-30 14:32:22.333201
3418  2023-10-30 14:32:22.365088
3419  2023-10-30 14:32:22.397031
3420  2023-10-30 14:32:22.428947
3421  2023-10-30 14:32:22.461939
3422  2023-10-30 14:32:22.493862
3423  2023-10-30 14:32:22.525778
3424  2023-10-30 14:32:22.557672
3425  2023-10-30 14:32:22.605539
3426  2023-10-30 14:32:22.637456
3427  2023-10-30 14:32:22.669369
3428  2023-10-30 14:32:22.701338
3429  2023-10-30 14:32:22.733212
3430  2023-10-30 14:32:22.765232
3431  2023-10-30 14:32:22.796997
3432  2023-10-30 14:32:22.829012
3433  2023-10-30 14:32:22.861890
3434  2023-10-30 14:32:22.893841
3435  2023-10-30 14:32:22.925757
3436  2023-10-30 14:32:22.957686
3437  2023-10-30 14:32:23.005536
3438  2023-10-30 14:32:23.037450
3439  2023-10-30 14:32:23.069367
3440  2023-10-30 14:32:23.101280
3441  2023-10-30 14:32:23.133207
3442  2023-10-30 14:32:23.165131
3443  2023-10-30 14:32:23.196993
3444  2023-10-30 14:32:23.228944
3445  2023-10-30 14:32:23.261851
3446  2023-10-30 14:32:23.293767
3447  2023-10-30 14:32:23.325700
3448  2023-10-30 14:32:23.357598
3449  2023-10-30 14:32:23.405468
3450  2023-10-30 14:32:23.437381
3451  2023-10-30 14:32:23.469306
3452  2023-10-30 14:32:23.501217
3453  2023-10-30 14:32:23.533144
3454  2023-10-30 14:32:23.565041
3455  2023-10-30 14:32:23.596954
3456  2023-10-30 14:32:23.628885
3457  2023-10-30 14:32:23.661804
3458  2023-10-30 14:32:23.693697
3459  2023-10-30 14:32:23.725613
3460  2023-10-30 14:32:23.757528
3461  2023-10-30 14:32:23.805401
3462  2023-10-30 14:32:23.837321
3463  2023-10-30 14:32:23.869196
3464  2023-10-30 14:32:23.901156
3465  2023-10-30 14:32:23.933067
3466  2023-10-30 14:32:23.966052
3467  2023-10-30 14:32:23.997966
3468  2023-10-30 14:32:24.029944
3469  2023-10-30 14:32:24.061865
3470  2023-10-30 14:32:24.093719
3471  2023-10-30 14:32:24.125662
3472  2023-10-30 14:32:24.157576
3473  2023-10-30 14:32:24.205453
3474  2023-10-30 14:32:24.237378
3475  2023-10-30 14:32:24.269295
3476  2023-10-30 14:32:24.301003
3477  2023-10-30 14:32:24.333987
3478  2023-10-30 14:32:24.365900
3479  2023-10-30 14:32:24.396916
3480  2023-10-30 14:32:24.429843
3481  2023-10-30 14:32:24.461842
3482  2023-10-30 14:32:24.493758
3483  2023-10-30 14:32:24.525702
3484  2023-10-30 14:32:24.557586
3485  2023-10-30 14:32:24.605489
3486  2023-10-30 14:32:24.637512
3487  2023-10-30 14:32:24.669424
3488  2023-10-30 14:32:24.701305
3489  2023-10-30 14:32:24.733264
3490  2023-10-30 14:32:24.765165
3491  2023-10-30 14:32:24.797089
3492  2023-10-30 14:32:24.829009
3493  2023-10-30 14:32:24.860904
3494  2023-10-30 14:32:24.893832
3495  2023-10-30 14:32:24.925742
3496  2023-10-30 14:32:24.957658
3497  2023-10-30 14:32:25.005523
3498  2023-10-30 14:32:25.037438
3499  2023-10-30 14:32:25.069469
3500  2023-10-30 14:32:25.101385
3501  2023-10-30 14:32:25.133300
3502  2023-10-30 14:32:25.165343
3503  2023-10-30 14:32:25.197276
3504  2023-10-30 14:32:25.229175
3505  2023-10-30 14:32:25.261091
3506  2023-10-30 14:32:25.294000
3507  2023-10-30 14:32:25.325875
3508  2023-10-30 14:32:25.357788
3509  2023-10-30 14:32:25.405693
3510  2023-10-30 14:32:25.437607
3511  2023-10-30 14:32:25.469519
3512  2023-10-30 14:32:25.501403
3513  2023-10-30 14:32:25.533350
3514  2023-10-30 14:32:25.565264
3515  2023-10-30 14:32:25.597385
3516  2023-10-30 14:32:25.630060
3517  2023-10-30 14:32:25.661025
3518  2023-10-30 14:32:25.692924
3519  2023-10-30 14:32:25.725959
3520  2023-10-30 14:32:25.773838
3521  2023-10-30 14:32:25.805729
3522  2023-10-30 14:32:25.837614
3523  2023-10-30 14:32:25.869558
3524  2023-10-30 14:32:25.901477
3525  2023-10-30 14:32:25.933385
3526  2023-10-30 14:32:25.965307
3527  2023-10-30 14:32:25.997242
3528  2023-10-30 14:32:26.029133
3529  2023-10-30 14:32:26.061047
3530  2023-10-30 14:32:26.092962
3531  2023-10-30 14:32:26.125877
3532  2023-10-30 14:32:26.173789
3533  2023-10-30 14:32:26.205677
3534  2023-10-30 14:32:26.237573
3535  2023-10-30 14:32:26.269492
3536  2023-10-30 14:32:26.301404
3537  2023-10-30 14:32:26.333288
3538  2023-10-30 14:32:26.365262
3539  2023-10-30 14:32:26.397184
3540  2023-10-30 14:32:26.430031
3541  2023-10-30 14:32:26.460990
3542  2023-10-30 14:32:26.492895
3543  2023-10-30 14:32:26.525874
3544  2023-10-30 14:32:26.573834
3545  2023-10-30 14:32:26.605781
3546  2023-10-30 14:32:26.637728
3547  2023-10-30 14:32:26.669612
3548  2023-10-30 14:32:26.701489
3549  2023-10-30 14:32:26.733403
3550  2023-10-30 14:32:26.765364
3551  2023-10-30 14:32:26.797263
3552  2023-10-30 14:32:26.829212
3553  2023-10-30 14:32:26.861096
3554  2023-10-30 14:32:26.893017
3555  2023-10-30 14:32:26.924934
3556  2023-10-30 14:32:26.973761
3557  2023-10-30 14:32:27.005709
3558  2023-10-30 14:32:27.037623
3559  2023-10-30 14:32:27.069557
3560  2023-10-30 14:32:27.101420
3561  2023-10-30 14:32:27.133343
