
1  2023-12-01 12:59:52.378203
2  2023-12-01 12:59:52.410130
3  2023-12-01 12:59:52.458023
4  2023-12-01 12:59:52.505864
5  2023-12-01 12:59:52.537896
6  2023-12-01 12:59:52.585679
7  2023-12-01 12:59:52.633522
8  2023-12-01 12:59:52.665478
9  2023-12-01 12:59:52.713406
10  2023-12-01 12:59:52.745330
11  2023-12-01 12:59:52.792752
12  2023-12-01 12:59:52.840663
13  2023-12-01 12:59:52.872575
14  2023-12-01 12:59:52.920492
15  2023-12-01 12:59:52.952405
16  2023-12-01 12:59:52.998290
17  2023-12-01 12:59:53.046157
18  2023-12-01 12:59:53.078040
19  2023-12-01 12:59:53.125946
20  2023-12-01 12:59:53.173814
21  2023-12-01 12:59:53.205729
22  2023-12-01 12:59:53.253599
23  2023-12-01 12:59:53.285516
24  2023-12-01 12:59:53.333357
25  2023-12-01 12:59:53.381278
26  2023-12-01 12:59:53.413193
27  2023-12-01 12:59:53.461127
28  2023-12-01 12:59:53.508041
29  2023-12-01 12:59:53.538996
30  2023-12-01 12:59:53.586867
31  2023-12-01 12:59:53.632746
32  2023-12-01 12:59:53.664660
33  2023-12-01 12:59:53.710931
34  2023-12-01 12:59:53.757837
35  2023-12-01 12:59:53.789720
36  2023-12-01 12:59:53.837636
37  2023-12-01 12:59:53.869507
38  2023-12-01 12:59:53.917419
39  2023-12-01 12:59:53.965251
40  2023-12-01 12:59:53.996215
41  2023-12-01 12:59:54.043092
42  2023-12-01 12:59:54.090056
43  2023-12-01 12:59:54.120958
44  2023-12-01 12:59:54.168834
45  2023-12-01 12:59:54.215710
46  2023-12-01 12:59:54.247624
47  2023-12-01 12:59:54.295508
48  2023-12-01 12:59:54.327461
49  2023-12-01 12:59:54.375297
50  2023-12-01 12:59:54.423170
51  2023-12-01 12:59:54.455084
52  2023-12-01 12:59:54.503110
53  2023-12-01 12:59:54.549831
54  2023-12-01 12:59:54.580870
55  2023-12-01 12:59:54.628790
56  2023-12-01 12:59:54.674982
57  2023-12-01 12:59:54.706897
58  2023-12-01 12:59:54.754439
59  2023-12-01 12:59:54.786389
60  2023-12-01 12:59:54.834331
61  2023-12-01 12:59:54.882202
62  2023-12-01 12:59:54.914116
63  2023-12-01 12:59:54.959994
64  2023-12-01 12:59:55.005962
65  2023-12-01 12:59:55.037874
66  2023-12-01 12:59:55.085755
67  2023-12-01 12:59:55.133700
68  2023-12-01 12:59:55.165721
69  2023-12-01 12:59:55.213716
70  2023-12-01 12:59:55.245626
71  2023-12-01 12:59:55.293449
72  2023-12-01 12:59:55.341347
73  2023-12-01 12:59:55.373270
74  2023-12-01 12:59:55.421142
75  2023-12-01 12:59:55.453056
76  2023-12-01 12:59:55.500894
77  2023-12-01 12:59:55.548908
78  2023-12-01 12:59:55.580698
79  2023-12-01 12:59:55.628553
80  2023-12-01 12:59:55.660468
81  2023-12-01 12:59:55.708391
82  2023-12-01 12:59:55.756340
83  2023-12-01 12:59:55.788288
84  2023-12-01 12:59:55.836127
85  2023-12-01 12:59:55.883001
86  2023-12-01 12:59:55.913920
87  2023-12-01 12:59:55.960793
88  2023-12-01 12:59:56.008701
89  2023-12-01 12:59:56.040615
90  2023-12-01 12:59:56.087454
91  2023-12-01 12:59:56.118405
92  2023-12-01 12:59:56.166069
93  2023-12-01 12:59:56.213907
94  2023-12-01 12:59:56.245822
95  2023-12-01 12:59:56.291738
96  2023-12-01 12:59:56.339571
97  2023-12-01 12:59:56.371486
98  2023-12-01 12:59:56.418441
99  2023-12-01 12:59:56.465357
100  2023-12-01 12:59:56.497231
101  2023-12-01 12:59:56.545103
102  2023-12-01 12:59:56.577018
103  2023-12-01 12:59:56.623893
104  2023-12-01 12:59:56.671764
105  2023-12-01 12:59:56.703679
106  2023-12-01 12:59:56.751582
107  2023-12-01 12:59:56.799423
108  2023-12-01 12:59:56.831338
109  2023-12-01 12:59:56.879256
110  2023-12-01 12:59:56.925087
111  2023-12-01 12:59:56.957040
112  2023-12-01 12:59:57.004927
113  2023-12-01 12:59:57.036837
114  2023-12-01 12:59:57.084702
115  2023-12-01 12:59:57.132564
116  2023-12-01 12:59:57.163481
117  2023-12-01 12:59:57.210328
118  2023-12-01 12:59:57.258287
119  2023-12-01 12:59:57.290315
120  2023-12-01 12:59:57.338228
121  2023-12-01 12:59:57.369106
122  2023-12-01 12:59:57.414982
123  2023-12-01 12:59:57.461890
124  2023-12-01 12:59:57.508731
125  2023-12-01 12:59:57.540646
126  2023-12-01 12:59:57.586523
127  2023-12-01 12:59:57.618438
128  2023-12-01 12:59:57.666344
129  2023-12-01 12:59:57.714182
130  2023-12-01 12:59:57.745099
131  2023-12-01 12:59:57.791974
132  2023-12-01 12:59:57.839846
133  2023-12-01 12:59:57.871839
134  2023-12-01 12:59:57.917752
135  2023-12-01 12:59:57.965630
136  2023-12-01 12:59:57.997538
137  2023-12-01 12:59:58.045415
138  2023-12-01 12:59:58.077489
139  2023-12-01 12:59:58.125293
140  2023-12-01 12:59:58.173191
141  2023-12-01 12:59:58.204085
142  2023-12-01 12:59:58.250963
143  2023-12-01 12:59:58.298830
144  2023-12-01 12:59:58.330746
145  2023-12-01 12:59:58.377740
146  2023-12-01 12:59:58.424788
147  2023-12-01 12:59:58.456711
148  2023-12-01 12:59:58.504542
149  2023-12-01 12:59:58.536495
150  2023-12-01 12:59:58.583328
151  2023-12-01 12:59:58.629252
152  2023-12-01 12:59:58.661155
153  2023-12-01 12:59:58.708992
154  2023-12-01 12:59:58.756897
155  2023-12-01 12:59:58.788779
156  2023-12-01 12:59:58.834656
157  2023-12-01 12:59:58.882528
158  2023-12-01 12:59:58.914443
159  2023-12-01 12:59:58.962315
160  2023-12-01 12:59:58.994235
161  2023-12-01 12:59:59.042102
162  2023-12-01 12:59:59.089974
163  2023-12-01 12:59:59.121888
164  2023-12-01 12:59:59.169760
165  2023-12-01 12:59:59.216635
166  2023-12-01 12:59:59.247598
167  2023-12-01 12:59:59.295435
168  2023-12-01 12:59:59.327339
169  2023-12-01 12:59:59.374250
170  2023-12-01 12:59:59.421127
171  2023-12-01 12:59:59.453041
172  2023-12-01 12:59:59.500910
173  2023-12-01 12:59:59.548874
174  2023-12-01 12:59:59.580832
175  2023-12-01 12:59:59.628781
176  2023-12-01 12:59:59.660695
177  2023-12-01 12:59:59.706606
178  2023-12-01 12:59:59.754477
179  2023-12-01 12:59:59.786394
180  2023-12-01 12:59:59.834233
181  2023-12-01 12:59:59.882104
182  2023-12-01 12:59:59.912059
183  2023-12-01 12:59:59.959949
184  2023-12-01 13:00:00.007779
185  2023-12-01 13:00:00.039682
186  2023-12-01 13:00:00.087560
187  2023-12-01 13:00:00.119522
188  2023-12-01 13:00:00.167380
189  2023-12-01 13:00:00.215215
190  2023-12-01 13:00:00.247128
191  2023-12-01 13:00:00.295126
192  2023-12-01 13:00:00.326950
193  2023-12-01 13:00:00.374870
194  2023-12-01 13:00:00.422673
195  2023-12-01 13:00:00.454588
196  2023-12-01 13:00:00.502460
197  2023-12-01 13:00:00.550332
198  2023-12-01 13:00:00.582247
199  2023-12-01 13:00:00.630149
200  2023-12-01 13:00:00.662065
201  2023-12-01 13:00:00.708891
202  2023-12-01 13:00:00.755802
203  2023-12-01 13:00:00.787680
204  2023-12-01 13:00:00.835609
205  2023-12-01 13:00:00.882427
206  2023-12-01 13:00:00.913344
207  2023-12-01 13:00:00.961217
208  2023-12-01 13:00:01.008091
209  2023-12-01 13:00:01.040006
210  2023-12-01 13:00:01.087935
211  2023-12-01 13:00:01.119825
212  2023-12-01 13:00:01.167802
213  2023-12-01 13:00:01.215570
214  2023-12-01 13:00:01.247483
215  2023-12-01 13:00:01.294326
216  2023-12-01 13:00:01.341205
217  2023-12-01 13:00:01.373200
218  2023-12-01 13:00:01.420063
219  2023-12-01 13:00:01.466903
220  2023-12-01 13:00:01.498821
221  2023-12-01 13:00:01.545692
222  2023-12-01 13:00:01.591703
223  2023-12-01 13:00:01.622590
224  2023-12-01 13:00:01.670460
225  2023-12-01 13:00:01.703419
226  2023-12-01 13:00:01.750247
227  2023-12-01 13:00:01.798119
228  2023-12-01 13:00:01.830068
229  2023-12-01 13:00:01.877906
230  2023-12-01 13:00:01.924813
231  2023-12-01 13:00:01.956695
232  2023-12-01 13:00:02.003605
233  2023-12-01 13:00:02.049447
234  2023-12-01 13:00:02.080398
235  2023-12-01 13:00:02.128236
236  2023-12-01 13:00:02.160151
237  2023-12-01 13:00:02.208023
238  2023-12-01 13:00:02.255926
239  2023-12-01 13:00:02.287875
240  2023-12-01 13:00:02.335682
241  2023-12-01 13:00:02.383589
242  2023-12-01 13:00:02.415502
243  2023-12-01 13:00:02.463340
244  2023-12-01 13:00:02.495255
245  2023-12-01 13:00:02.543159
246  2023-12-01 13:00:02.590002
247  2023-12-01 13:00:02.620958
248  2023-12-01 13:00:02.668791
249  2023-12-01 13:00:02.715702
250  2023-12-01 13:00:02.746617
251  2023-12-01 13:00:02.794490
252  2023-12-01 13:00:02.841361
253  2023-12-01 13:00:02.872279
254  2023-12-01 13:00:02.920153
255  2023-12-01 13:00:02.952070
256  2023-12-01 13:00:02.999941
257  2023-12-01 13:00:03.047812
258  2023-12-01 13:00:03.079692
259  2023-12-01 13:00:03.127600
260  2023-12-01 13:00:03.175467
261  2023-12-01 13:00:03.205388
262  2023-12-01 13:00:03.253228
263  2023-12-01 13:00:03.285142
264  2023-12-01 13:00:03.333014
265  2023-12-01 13:00:03.380886
266  2023-12-01 13:00:03.412802
267  2023-12-01 13:00:03.460721
268  2023-12-01 13:00:03.508546
269  2023-12-01 13:00:03.540615
270  2023-12-01 13:00:03.588333
271  2023-12-01 13:00:03.620248
272  2023-12-01 13:00:03.666125
273  2023-12-01 13:00:03.713997
274  2023-12-01 13:00:03.744915
275  2023-12-01 13:00:03.791789
276  2023-12-01 13:00:03.839661
277  2023-12-01 13:00:03.871576
278  2023-12-01 13:00:03.919495
279  2023-12-01 13:00:03.966323
280  2023-12-01 13:00:03.997426
281  2023-12-01 13:00:04.045341
282  2023-12-01 13:00:04.077256
283  2023-12-01 13:00:04.125096
284  2023-12-01 13:00:04.172975
285  2023-12-01 13:00:04.204883
286  2023-12-01 13:00:04.250793
287  2023-12-01 13:00:04.297656
288  2023-12-01 13:00:04.328653
289  2023-12-01 13:00:04.375590
290  2023-12-01 13:00:04.423406
291  2023-12-01 13:00:04.455314
292  2023-12-01 13:00:04.503187
293  2023-12-01 13:00:04.535105
294  2023-12-01 13:00:04.582976
295  2023-12-01 13:00:04.630934
296  2023-12-01 13:00:04.662851
297  2023-12-01 13:00:04.708726
298  2023-12-01 13:00:04.756600
299  2023-12-01 13:00:04.788481
300  2023-12-01 13:00:04.836353
301  2023-12-01 13:00:04.883228
302  2023-12-01 13:00:04.914145
303  2023-12-01 13:00:04.962019
304  2023-12-01 13:00:04.993987
305  2023-12-01 13:00:05.040807
306  2023-12-01 13:00:05.087716
307  2023-12-01 13:00:05.119628
308  2023-12-01 13:00:05.167468
309  2023-12-01 13:00:05.215386
310  2023-12-01 13:00:05.247332
311  2023-12-01 13:00:05.295204
312  2023-12-01 13:00:05.327137
313  2023-12-01 13:00:05.375009
314  2023-12-01 13:00:05.420923
315  2023-12-01 13:00:05.452801
316  2023-12-01 13:00:05.500673
317  2023-12-01 13:00:05.548582
318  2023-12-01 13:00:05.580496
319  2023-12-01 13:00:05.628332
320  2023-12-01 13:00:05.660247
321  2023-12-01 13:00:05.708155
322  2023-12-01 13:00:05.755991
323  2023-12-01 13:00:05.787937
324  2023-12-01 13:00:05.835777
325  2023-12-01 13:00:05.881711
326  2023-12-01 13:00:05.913626
327  2023-12-01 13:00:05.960477
328  2023-12-01 13:00:06.007356
329  2023-12-01 13:00:06.039276
330  2023-12-01 13:00:06.087105
331  2023-12-01 13:00:06.119053
332  2023-12-01 13:00:06.166928
333  2023-12-01 13:00:06.213767
334  2023-12-01 13:00:06.244684
335  2023-12-01 13:00:06.292556
336  2023-12-01 13:00:06.340464
337  2023-12-01 13:00:06.372343
338  2023-12-01 13:00:06.420215
339  2023-12-01 13:00:06.467125
340  2023-12-01 13:00:06.499036
341  2023-12-01 13:00:06.546876
342  2023-12-01 13:00:06.578791
343  2023-12-01 13:00:06.626664
344  2023-12-01 13:00:06.673537
345  2023-12-01 13:00:06.704455
346  2023-12-01 13:00:06.752333
347  2023-12-01 13:00:06.800319
348  2023-12-01 13:00:06.832234
349  2023-12-01 13:00:06.880137
350  2023-12-01 13:00:06.912021
351  2023-12-01 13:00:06.959893
352  2023-12-01 13:00:07.007765
353  2023-12-01 13:00:07.039679
354  2023-12-01 13:00:07.087583
355  2023-12-01 13:00:07.119504
356  2023-12-01 13:00:07.167338
357  2023-12-01 13:00:07.215255
358  2023-12-01 13:00:07.247157
359  2023-12-01 13:00:07.294997
360  2023-12-01 13:00:07.326911
361  2023-12-01 13:00:07.374913
362  2023-12-01 13:00:07.422655
363  2023-12-01 13:00:07.454604
364  2023-12-01 13:00:07.502442
365  2023-12-01 13:00:07.550348
366  2023-12-01 13:00:07.581264
367  2023-12-01 13:00:07.629104
368  2023-12-01 13:00:07.661018
369  2023-12-01 13:00:07.708927
370  2023-12-01 13:00:07.756798
371  2023-12-01 13:00:07.788712
372  2023-12-01 13:00:07.836549
373  2023-12-01 13:00:07.868464
374  2023-12-01 13:00:07.916373
375  2023-12-01 13:00:07.964208
376  2023-12-01 13:00:07.996122
377  2023-12-01 13:00:08.044028
378  2023-12-01 13:00:08.091866
379  2023-12-01 13:00:08.123781
380  2023-12-01 13:00:08.171668
381  2023-12-01 13:00:08.203568
382  2023-12-01 13:00:08.249480
383  2023-12-01 13:00:08.297351
384  2023-12-01 13:00:08.329273
385  2023-12-01 13:00:08.377151
386  2023-12-01 13:00:08.425009
387  2023-12-01 13:00:08.456922
388  2023-12-01 13:00:08.504898
389  2023-12-01 13:00:08.536843
390  2023-12-01 13:00:08.582720
391  2023-12-01 13:00:08.628688
392  2023-12-01 13:00:08.660606
393  2023-12-01 13:00:08.707518
394  2023-12-01 13:00:08.754393
395  2023-12-01 13:00:08.786397
396  2023-12-01 13:00:08.832316
397  2023-12-01 13:00:08.880196
398  2023-12-01 13:00:08.912111
399  2023-12-01 13:00:08.958983
400  2023-12-01 13:00:09.005819
401  2023-12-01 13:00:09.037734
402  2023-12-01 13:00:09.085642
403  2023-12-01 13:00:09.133478
404  2023-12-01 13:00:09.164395
405  2023-12-01 13:00:09.210336
406  2023-12-01 13:00:09.258184
407  2023-12-01 13:00:09.290059
408  2023-12-01 13:00:09.337875
409  2023-12-01 13:00:09.369851
410  2023-12-01 13:00:09.417694
411  2023-12-01 13:00:09.465616
412  2023-12-01 13:00:09.497624
413  2023-12-01 13:00:09.544499
414  2023-12-01 13:00:09.591450
415  2023-12-01 13:00:09.622371
416  2023-12-01 13:00:09.670216
417  2023-12-01 13:00:09.702203
418  2023-12-01 13:00:09.748104
419  2023-12-01 13:00:09.795971
420  2023-12-01 13:00:09.828018
421  2023-12-01 13:00:09.875742
422  2023-12-01 13:00:09.923614
423  2023-12-01 13:00:09.955526
424  2023-12-01 13:00:10.002371
425  2023-12-01 13:00:10.050253
426  2023-12-01 13:00:10.082157
427  2023-12-01 13:00:10.130066
428  2023-12-01 13:00:10.161982
429  2023-12-01 13:00:10.209938
430  2023-12-01 13:00:10.256804
431  2023-12-01 13:00:10.287796
432  2023-12-01 13:00:10.335718
433  2023-12-01 13:00:10.383590
434  2023-12-01 13:00:10.415545
435  2023-12-01 13:00:10.463490
436  2023-12-01 13:00:10.495291
437  2023-12-01 13:00:10.543163
438  2023-12-01 13:00:10.591201
439  2023-12-01 13:00:10.623117
440  2023-12-01 13:00:10.669957
441  2023-12-01 13:00:10.701871
442  2023-12-01 13:00:10.749883
443  2023-12-01 13:00:10.797794
444  2023-12-01 13:00:10.829709
445  2023-12-01 13:00:10.877613
446  2023-12-01 13:00:10.925490
447  2023-12-01 13:00:10.957368
448  2023-12-01 13:00:11.005240
449  2023-12-01 13:00:11.037154
450  2023-12-01 13:00:11.084868
451  2023-12-01 13:00:11.131711
452  2023-12-01 13:00:11.162624
453  2023-12-01 13:00:11.208620
454  2023-12-01 13:00:11.255486
455  2023-12-01 13:00:11.287498
456  2023-12-01 13:00:11.335378
457  2023-12-01 13:00:11.383245
458  2023-12-01 13:00:11.415162
459  2023-12-01 13:00:11.463030
460  2023-12-01 13:00:11.508909
461  2023-12-01 13:00:11.540825
462  2023-12-01 13:00:11.588746
463  2023-12-01 13:00:11.619661
464  2023-12-01 13:00:11.667533
465  2023-12-01 13:00:11.715367
466  2023-12-01 13:00:11.747281
467  2023-12-01 13:00:11.794216
468  2023-12-01 13:00:11.842082
469  2023-12-01 13:00:11.874090
470  2023-12-01 13:00:11.922009
471  2023-12-01 13:00:11.954010
472  2023-12-01 13:00:12.002842
473  2023-12-01 13:00:12.049722
474  2023-12-01 13:00:12.081629
475  2023-12-01 13:00:12.129548
476  2023-12-01 13:00:12.161423
477  2023-12-01 13:00:12.209294
478  2023-12-01 13:00:12.257267
479  2023-12-01 13:00:12.289214
480  2023-12-01 13:00:12.336048
481  2023-12-01 13:00:12.382970
482  2023-12-01 13:00:12.413886
483  2023-12-01 13:00:12.460715
484  2023-12-01 13:00:12.507667
485  2023-12-01 13:00:12.538585
486  2023-12-01 13:00:12.585489
487  2023-12-01 13:00:12.633404
488  2023-12-01 13:00:12.665356
489  2023-12-01 13:00:12.712238
490  2023-12-01 13:00:12.744156
491  2023-12-01 13:00:12.792024
492  2023-12-01 13:00:12.839863
493  2023-12-01 13:00:12.871774
494  2023-12-01 13:00:12.917684
495  2023-12-01 13:00:12.963638
496  2023-12-01 13:00:12.995566
497  2023-12-01 13:00:13.043441
498  2023-12-01 13:00:13.091303
499  2023-12-01 13:00:13.123226
500  2023-12-01 13:00:13.171091
501  2023-12-01 13:00:13.201975
502  2023-12-01 13:00:13.249846
503  2023-12-01 13:00:13.297754
504  2023-12-01 13:00:13.329634
505  2023-12-01 13:00:13.377505
506  2023-12-01 13:00:13.425531
507  2023-12-01 13:00:13.457413
508  2023-12-01 13:00:13.505308
509  2023-12-01 13:00:13.537189
510  2023-12-01 13:00:13.585059
511  2023-12-01 13:00:13.632946
512  2023-12-01 13:00:13.664846
513  2023-12-01 13:00:13.712719
514  2023-12-01 13:00:13.744634
515  2023-12-01 13:00:13.792574
516  2023-12-01 13:00:13.840446
517  2023-12-01 13:00:13.873402
518  2023-12-01 13:00:13.918269
519  2023-12-01 13:00:13.965113
520  2023-12-01 13:00:13.997027
521  2023-12-01 13:00:14.045005
522  2023-12-01 13:00:14.077083
523  2023-12-01 13:00:14.124791
524  2023-12-01 13:00:14.172630
525  2023-12-01 13:00:14.204545
526  2023-12-01 13:00:14.252449
527  2023-12-01 13:00:14.298385
528  2023-12-01 13:00:14.330299
529  2023-12-01 13:00:14.378211
530  2023-12-01 13:00:14.410126
531  2023-12-01 13:00:14.457958
532  2023-12-01 13:00:14.505830
533  2023-12-01 13:00:14.537745
534  2023-12-01 13:00:14.585620
535  2023-12-01 13:00:14.633489
536  2023-12-01 13:00:14.664441
537  2023-12-01 13:00:14.710283
538  2023-12-01 13:00:14.757195
539  2023-12-01 13:00:14.789105
540  2023-12-01 13:00:14.836984
541  2023-12-01 13:00:14.882858
542  2023-12-01 13:00:14.914773
543  2023-12-01 13:00:14.962643
544  2023-12-01 13:00:14.994526
545  2023-12-01 13:00:15.042429
546  2023-12-01 13:00:15.090301
547  2023-12-01 13:00:15.122220
548  2023-12-01 13:00:15.170097
549  2023-12-01 13:00:15.202011
550  2023-12-01 13:00:15.249842
551  2023-12-01 13:00:15.297747
552  2023-12-01 13:00:15.329632
553  2023-12-01 13:00:15.377501
554  2023-12-01 13:00:15.425413
555  2023-12-01 13:00:15.457287
556  2023-12-01 13:00:15.503164
557  2023-12-01 13:00:15.535079
558  2023-12-01 13:00:15.580998
559  2023-12-01 13:00:15.628960
560  2023-12-01 13:00:15.674716
561  2023-12-01 13:00:15.705623
562  2023-12-01 13:00:15.753495
563  2023-12-01 13:00:15.785411
564  2023-12-01 13:00:15.831323
565  2023-12-01 13:00:15.878202
566  2023-12-01 13:00:15.925071
567  2023-12-01 13:00:15.956993
568  2023-12-01 13:00:16.004861
569  2023-12-01 13:00:16.036739
570  2023-12-01 13:00:16.084643
571  2023-12-01 13:00:16.132522
572  2023-12-01 13:00:16.164430
573  2023-12-01 13:00:16.212311
574  2023-12-01 13:00:16.244216
575  2023-12-01 13:00:16.292089
576  2023-12-01 13:00:16.339964
577  2023-12-01 13:00:16.371873
578  2023-12-01 13:00:16.419747
579  2023-12-01 13:00:16.466604
580  2023-12-01 13:00:16.497550
581  2023-12-01 13:00:16.545378
582  2023-12-01 13:00:16.577321
583  2023-12-01 13:00:16.625204
584  2023-12-01 13:00:16.673281
585  2023-12-01 13:00:16.705044
586  2023-12-01 13:00:16.752979
587  2023-12-01 13:00:16.799791
588  2023-12-01 13:00:16.831741
589  2023-12-01 13:00:16.877583
590  2023-12-01 13:00:16.925489
591  2023-12-01 13:00:16.957404
592  2023-12-01 13:00:17.005242
593  2023-12-01 13:00:17.037157
594  2023-12-01 13:00:17.085061
595  2023-12-01 13:00:17.132900
596  2023-12-01 13:00:17.163818
597  2023-12-01 13:00:17.210737
598  2023-12-01 13:00:17.258565
599  2023-12-01 13:00:17.290513
600  2023-12-01 13:00:17.338351
601  2023-12-01 13:00:17.370266
602  2023-12-01 13:00:17.418170
603  2023-12-01 13:00:17.465080
604  2023-12-01 13:00:17.496041
605  2023-12-01 13:00:17.543930
606  2023-12-01 13:00:17.591847
607  2023-12-01 13:00:17.623761
608  2023-12-01 13:00:17.671677
609  2023-12-01 13:00:17.702687
610  2023-12-01 13:00:17.750423
611  2023-12-01 13:00:17.798328
612  2023-12-01 13:00:17.830240
613  2023-12-01 13:00:17.878114
614  2023-12-01 13:00:17.924999
615  2023-12-01 13:00:17.955915
616  2023-12-01 13:00:18.003943
617  2023-12-01 13:00:18.035702
618  2023-12-01 13:00:18.082568
619  2023-12-01 13:00:18.129443
620  2023-12-01 13:00:18.161325
621  2023-12-01 13:00:18.209230
622  2023-12-01 13:00:18.257111
623  2023-12-01 13:00:18.289021
624  2023-12-01 13:00:18.336855
625  2023-12-01 13:00:18.368813
626  2023-12-01 13:00:18.416679
627  2023-12-01 13:00:18.464555
628  2023-12-01 13:00:18.496472
629  2023-12-01 13:00:18.544300
630  2023-12-01 13:00:18.592173
631  2023-12-01 13:00:18.624146
632  2023-12-01 13:00:18.672000
633  2023-12-01 13:00:18.703874
634  2023-12-01 13:00:18.751781
635  2023-12-01 13:00:18.799619
636  2023-12-01 13:00:18.831534
637  2023-12-01 13:00:18.879486
638  2023-12-01 13:00:18.911391
639  2023-12-01 13:00:18.959299
640  2023-12-01 13:00:19.008176
641  2023-12-01 13:00:19.039105
642  2023-12-01 13:00:19.086963
643  2023-12-01 13:00:19.118867
644  2023-12-01 13:00:19.166710
645  2023-12-01 13:00:19.214596
646  2023-12-01 13:00:19.246496
647  2023-12-01 13:00:19.294404
648  2023-12-01 13:00:19.342239
649  2023-12-01 13:00:19.374268
650  2023-12-01 13:00:19.422062
651  2023-12-01 13:00:19.454940
652  2023-12-01 13:00:19.499818
653  2023-12-01 13:00:19.546692
654  2023-12-01 13:00:19.578643
655  2023-12-01 13:00:19.626479
656  2023-12-01 13:00:19.674467
657  2023-12-01 13:00:19.706382
658  2023-12-01 13:00:19.754279
659  2023-12-01 13:00:19.786169
660  2023-12-01 13:00:19.834175
661  2023-12-01 13:00:19.882082
662  2023-12-01 13:00:19.912995
663  2023-12-01 13:00:19.959871
664  2023-12-01 13:00:20.007743
665  2023-12-01 13:00:20.039660
666  2023-12-01 13:00:20.087497
667  2023-12-01 13:00:20.119413
668  2023-12-01 13:00:20.166406
669  2023-12-01 13:00:20.213246
670  2023-12-01 13:00:20.245199
671  2023-12-01 13:00:20.293065
672  2023-12-01 13:00:20.339919
673  2023-12-01 13:00:20.371859
674  2023-12-01 13:00:20.417732
675  2023-12-01 13:00:20.465597
676  2023-12-01 13:00:20.497512
677  2023-12-01 13:00:20.545395
678  2023-12-01 13:00:20.577273
679  2023-12-01 13:00:20.625177
680  2023-12-01 13:00:20.673053
681  2023-12-01 13:00:20.703969
682  2023-12-01 13:00:20.749844
683  2023-12-01 13:00:20.797839
684  2023-12-01 13:00:20.829600
685  2023-12-01 13:00:20.877471
686  2023-12-01 13:00:20.925343
687  2023-12-01 13:00:20.957290
688  2023-12-01 13:00:21.006174
689  2023-12-01 13:00:21.037044
690  2023-12-01 13:00:21.084956
691  2023-12-01 13:00:21.132788
692  2023-12-01 13:00:21.163705
693  2023-12-01 13:00:21.211618
694  2023-12-01 13:00:21.243492
695  2023-12-01 13:00:21.291364
696  2023-12-01 13:00:21.339236
697  2023-12-01 13:00:21.371153
698  2023-12-01 13:00:21.419056
699  2023-12-01 13:00:21.466895
700  2023-12-01 13:00:21.497812
701  2023-12-01 13:00:21.545684
702  2023-12-01 13:00:21.591562
703  2023-12-01 13:00:21.623476
704  2023-12-01 13:00:21.671384
705  2023-12-01 13:00:21.703301
706  2023-12-01 13:00:21.751135
707  2023-12-01 13:00:21.799039
708  2023-12-01 13:00:21.831074
709  2023-12-01 13:00:21.878941
710  2023-12-01 13:00:21.910855
711  2023-12-01 13:00:21.958727
712  2023-12-01 13:00:22.006651
713  2023-12-01 13:00:22.038545
714  2023-12-01 13:00:22.086386
715  2023-12-01 13:00:22.133298
716  2023-12-01 13:00:22.164210
717  2023-12-01 13:00:22.212050
718  2023-12-01 13:00:22.244027
719  2023-12-01 13:00:22.291867
720  2023-12-01 13:00:22.337752
721  2023-12-01 13:00:22.369667
722  2023-12-01 13:00:22.417500
723  2023-12-01 13:00:22.464411
724  2023-12-01 13:00:22.495327
725  2023-12-01 13:00:22.543327
726  2023-12-01 13:00:22.591198
727  2023-12-01 13:00:22.623108
728  2023-12-01 13:00:22.670987
729  2023-12-01 13:00:22.702899
730  2023-12-01 13:00:22.748775
731  2023-12-01 13:00:22.796613
732  2023-12-01 13:00:22.828559
733  2023-12-01 13:00:22.876511
734  2023-12-01 13:00:22.924304
735  2023-12-01 13:00:22.956244
736  2023-12-01 13:00:23.004058
737  2023-12-01 13:00:23.049937
738  2023-12-01 13:00:23.080886
739  2023-12-01 13:00:23.127766
740  2023-12-01 13:00:23.174751
741  2023-12-01 13:00:23.205707
742  2023-12-01 13:00:23.253577
743  2023-12-01 13:00:23.299492
744  2023-12-01 13:00:23.331399
745  2023-12-01 13:00:23.379241
746  2023-12-01 13:00:23.411156
747  2023-12-01 13:00:23.457064
748  2023-12-01 13:00:23.504944
749  2023-12-01 13:00:23.536849
750  2023-12-01 13:00:23.584729
751  2023-12-01 13:00:23.632616
752  2023-12-01 13:00:23.664510
753  2023-12-01 13:00:23.712393
754  2023-12-01 13:00:23.744431
755  2023-12-01 13:00:23.792298
756  2023-12-01 13:00:23.840178
757  2023-12-01 13:00:23.872104
758  2023-12-01 13:00:23.919965
759  2023-12-01 13:00:23.952852
760  2023-12-01 13:00:23.999750
761  2023-12-01 13:00:24.047592
762  2023-12-01 13:00:24.079541
763  2023-12-01 13:00:24.125414
764  2023-12-01 13:00:24.173296
765  2023-12-01 13:00:24.205199
766  2023-12-01 13:00:24.252075
767  2023-12-01 13:00:24.298919
768  2023-12-01 13:00:24.329837
769  2023-12-01 13:00:24.377739
770  2023-12-01 13:00:24.425580
771  2023-12-01 13:00:24.457497
772  2023-12-01 13:00:24.505368
773  2023-12-01 13:00:24.537283
774  2023-12-01 13:00:24.584157
775  2023-12-01 13:00:24.631074
776  2023-12-01 13:00:24.661979
777  2023-12-01 13:00:24.708824
778  2023-12-01 13:00:24.755732
779  2023-12-01 13:00:24.787613
780  2023-12-01 13:00:24.835519
781  2023-12-01 13:00:24.882360
782  2023-12-01 13:00:24.913502
783  2023-12-01 13:00:24.961181
784  2023-12-01 13:00:25.008054
785  2023-12-01 13:00:25.038973
786  2023-12-01 13:00:25.085851
787  2023-12-01 13:00:25.132724
788  2023-12-01 13:00:25.164614
789  2023-12-01 13:00:25.212509
790  2023-12-01 13:00:25.244708
791  2023-12-01 13:00:25.290502
792  2023-12-01 13:00:25.338450
793  2023-12-01 13:00:25.370361
794  2023-12-01 13:00:25.418277
795  2023-12-01 13:00:25.465108
796  2023-12-01 13:00:25.496058
797  2023-12-01 13:00:25.543897
798  2023-12-01 13:00:25.591769
799  2023-12-01 13:00:25.623683
800  2023-12-01 13:00:25.671589
801  2023-12-01 13:00:25.703500
802  2023-12-01 13:00:25.751343
803  2023-12-01 13:00:25.799245
804  2023-12-01 13:00:25.831166
805  2023-12-01 13:00:25.879001
806  2023-12-01 13:00:25.910916
807  2023-12-01 13:00:25.958823
808  2023-12-01 13:00:26.006695
809  2023-12-01 13:00:26.038609
810  2023-12-01 13:00:26.085449
811  2023-12-01 13:00:26.132357
812  2023-12-01 13:00:26.163253
813  2023-12-01 13:00:26.211159
814  2023-12-01 13:00:26.258067
815  2023-12-01 13:00:26.289982
816  2023-12-01 13:00:26.337855
817  2023-12-01 13:00:26.369735
818  2023-12-01 13:00:26.417638
819  2023-12-01 13:00:26.463517
820  2023-12-01 13:00:26.495549
821  2023-12-01 13:00:26.543420
822  2023-12-01 13:00:26.591295
823  2023-12-01 13:00:26.622213
824  2023-12-01 13:00:26.669084
825  2023-12-01 13:00:26.716980
826  2023-12-01 13:00:26.748881
827  2023-12-01 13:00:26.796755
828  2023-12-01 13:00:26.828689
829  2023-12-01 13:00:26.876499
830  2023-12-01 13:00:26.924398
831  2023-12-01 13:00:26.956320
832  2023-12-01 13:00:27.004211
833  2023-12-01 13:00:27.036114
834  2023-12-01 13:00:27.084050
835  2023-12-01 13:00:27.131936
836  2023-12-01 13:00:27.163834
837  2023-12-01 13:00:27.211675
838  2023-12-01 13:00:27.243588
839  2023-12-01 13:00:27.290508
840  2023-12-01 13:00:27.338335
841  2023-12-01 13:00:27.370250
842  2023-12-01 13:00:27.418123
843  2023-12-01 13:00:27.465994
844  2023-12-01 13:00:27.497908
845  2023-12-01 13:00:27.545939
846  2023-12-01 13:00:27.577695
847  2023-12-01 13:00:27.625568
848  2023-12-01 13:00:27.673439
849  2023-12-01 13:00:27.705354
850  2023-12-01 13:00:27.753284
851  2023-12-01 13:00:27.785181
852  2023-12-01 13:00:27.833013
853  2023-12-01 13:00:27.880885
854  2023-12-01 13:00:27.912799
855  2023-12-01 13:00:27.960671
856  2023-12-01 13:00:28.008697
857  2023-12-01 13:00:28.040493
858  2023-12-01 13:00:28.088330
859  2023-12-01 13:00:28.120246
860  2023-12-01 13:00:28.168147
861  2023-12-01 13:00:28.214991
862  2023-12-01 13:00:28.245909
863  2023-12-01 13:00:28.292792
864  2023-12-01 13:00:28.339658
865  2023-12-01 13:00:28.371573
866  2023-12-01 13:00:28.419558
867  2023-12-01 13:00:28.466496
868  2023-12-01 13:00:28.498400
869  2023-12-01 13:00:28.546220
870  2023-12-01 13:00:28.578135
871  2023-12-01 13:00:28.626036
872  2023-12-01 13:00:28.673879
873  2023-12-01 13:00:28.705793
874  2023-12-01 13:00:28.753699
875  2023-12-01 13:00:28.785580
876  2023-12-01 13:00:28.833452
877  2023-12-01 13:00:28.879364
878  2023-12-01 13:00:28.911280
879  2023-12-01 13:00:28.959148
880  2023-12-01 13:00:29.007021
881  2023-12-01 13:00:29.039005
882  2023-12-01 13:00:29.085815
883  2023-12-01 13:00:29.132685
884  2023-12-01 13:00:29.164599
885  2023-12-01 13:00:29.212473
886  2023-12-01 13:00:29.244435
887  2023-12-01 13:00:29.292483
888  2023-12-01 13:00:29.340418
889  2023-12-01 13:00:29.372330
890  2023-12-01 13:00:29.420209
891  2023-12-01 13:00:29.452130
892  2023-12-01 13:00:29.499994
893  2023-12-01 13:00:29.547876
894  2023-12-01 13:00:29.579783
895  2023-12-01 13:00:29.627709
896  2023-12-01 13:00:29.675587
897  2023-12-01 13:00:29.707495
898  2023-12-01 13:00:29.755373
899  2023-12-01 13:00:29.787287
900  2023-12-01 13:00:29.833166
901  2023-12-01 13:00:29.880001
902  2023-12-01 13:00:29.911948
903  2023-12-01 13:00:29.959797
904  2023-12-01 13:00:30.007688
905  2023-12-01 13:00:30.039603
906  2023-12-01 13:00:30.087445
907  2023-12-01 13:00:30.119361
908  2023-12-01 13:00:30.166387
909  2023-12-01 13:00:30.213227
910  2023-12-01 13:00:30.244756
911  2023-12-01 13:00:30.292662
912  2023-12-01 13:00:30.340500
913  2023-12-01 13:00:30.372414
914  2023-12-01 13:00:30.420286
915  2023-12-01 13:00:30.452201
916  2023-12-01 13:00:30.499128
917  2023-12-01 13:00:30.546437
918  2023-12-01 13:00:30.578362
919  2023-12-01 13:00:30.626265
920  2023-12-01 13:00:30.674096
921  2023-12-01 13:00:30.704053
922  2023-12-01 13:00:30.751888
923  2023-12-01 13:00:30.797791
924  2023-12-01 13:00:30.829901
925  2023-12-01 13:00:30.877584
926  2023-12-01 13:00:30.925464
927  2023-12-01 13:00:30.957378
928  2023-12-01 13:00:31.005251
929  2023-12-01 13:00:31.037156
930  2023-12-01 13:00:31.085032
931  2023-12-01 13:00:31.132903
932  2023-12-01 13:00:31.163823
933  2023-12-01 13:00:31.210709
934  2023-12-01 13:00:31.257625
935  2023-12-01 13:00:31.288548
936  2023-12-01 13:00:31.337464
937  2023-12-01 13:00:31.369359
938  2023-12-01 13:00:31.416201
939  2023-12-01 13:00:31.463105
940  2023-12-01 13:00:31.495022
941  2023-12-01 13:00:31.542861
942  2023-12-01 13:00:31.590733
943  2023-12-01 13:00:31.622647
944  2023-12-01 13:00:31.670223
945  2023-12-01 13:00:31.702221
946  2023-12-01 13:00:31.750057
947  2023-12-01 13:00:31.796980
948  2023-12-01 13:00:31.828876
949  2023-12-01 13:00:31.876718
950  2023-12-01 13:00:31.923627
951  2023-12-01 13:00:31.954674
952  2023-12-01 13:00:32.002586
953  2023-12-01 13:00:32.050457
954  2023-12-01 13:00:32.082372
955  2023-12-01 13:00:32.130399
956  2023-12-01 13:00:32.162195
957  2023-12-01 13:00:32.210112
958  2023-12-01 13:00:32.258018
959  2023-12-01 13:00:32.289939
960  2023-12-01 13:00:32.337774
961  2023-12-01 13:00:32.369689
962  2023-12-01 13:00:32.417561
963  2023-12-01 13:00:32.465473
964  2023-12-01 13:00:32.497348
965  2023-12-01 13:00:32.545220
966  2023-12-01 13:00:32.577134
967  2023-12-01 13:00:32.625007
968  2023-12-01 13:00:32.672878
969  2023-12-01 13:00:32.704793
970  2023-12-01 13:00:32.752666
971  2023-12-01 13:00:32.798607
972  2023-12-01 13:00:32.830609
973  2023-12-01 13:00:32.878472
974  2023-12-01 13:00:32.910392
975  2023-12-01 13:00:32.958264
976  2023-12-01 13:00:33.006129
977  2023-12-01 13:00:33.038018
978  2023-12-01 13:00:33.084893
979  2023-12-01 13:00:33.131767
980  2023-12-01 13:00:33.163727
981  2023-12-01 13:00:33.211681
982  2023-12-01 13:00:33.243605
983  2023-12-01 13:00:33.291470
984  2023-12-01 13:00:33.339334
985  2023-12-01 13:00:33.371250
986  2023-12-01 13:00:33.418090
987  2023-12-01 13:00:33.465004
988  2023-12-01 13:00:33.496918
989  2023-12-01 13:00:33.543754
990  2023-12-01 13:00:33.592671
991  2023-12-01 13:00:33.624571
992  2023-12-01 13:00:33.670422
993  2023-12-01 13:00:33.702356
994  2023-12-01 13:00:33.749204
995  2023-12-01 13:00:33.796126
996  2023-12-01 13:00:33.827037
997  2023-12-01 13:00:33.873951
998  2023-12-01 13:00:33.921887
999  2023-12-01 13:00:33.953771
1000  2023-12-01 13:00:34.001641
1001  2023-12-01 13:00:34.049482
1002  2023-12-01 13:00:34.081396
1003  2023-12-01 13:00:34.129309
1004  2023-12-01 13:00:34.161224
1005  2023-12-01 13:00:34.208058
1006  2023-12-01 13:00:34.255963
1007  2023-12-01 13:00:34.287953
1008  2023-12-01 13:00:34.335820
1009  2023-12-01 13:00:34.383758
1010  2023-12-01 13:00:34.415757
1011  2023-12-01 13:00:34.463586
1012  2023-12-01 13:00:34.495501
1013  2023-12-01 13:00:34.543463
1014  2023-12-01 13:00:34.591281
1015  2023-12-01 13:00:34.623196
1016  2023-12-01 13:00:34.671168
1017  2023-12-01 13:00:34.703083
1018  2023-12-01 13:00:34.750955
1019  2023-12-01 13:00:34.798867
1020  2023-12-01 13:00:34.830783
1021  2023-12-01 13:00:34.878647
1022  2023-12-01 13:00:34.910528
1023  2023-12-01 13:00:34.958441
1024  2023-12-01 13:00:35.006306
1025  2023-12-01 13:00:35.038221
1026  2023-12-01 13:00:35.085103
1027  2023-12-01 13:00:35.132002
1028  2023-12-01 13:00:35.163920
1029  2023-12-01 13:00:35.211788
1030  2023-12-01 13:00:35.243702
1031  2023-12-01 13:00:35.289689
1032  2023-12-01 13:00:35.337435
1033  2023-12-01 13:00:35.368352
1034  2023-12-01 13:00:35.415316
1035  2023-12-01 13:00:35.461194
1036  2023-12-01 13:00:35.508071
1037  2023-12-01 13:00:35.538988
1038  2023-12-01 13:00:35.585863
1039  2023-12-01 13:00:35.632738
1040  2023-12-01 13:00:35.665650
1041  2023-12-01 13:00:35.710530
1042  2023-12-01 13:00:35.758439
1043  2023-12-01 13:00:35.790357
1044  2023-12-01 13:00:35.838230
1045  2023-12-01 13:00:35.870103
1046  2023-12-01 13:00:35.916013
1047  2023-12-01 13:00:35.963893
1048  2023-12-01 13:00:35.995813
1049  2023-12-01 13:00:36.043672
1050  2023-12-01 13:00:36.090554
1051  2023-12-01 13:00:36.121471
1052  2023-12-01 13:00:36.167310
1053  2023-12-01 13:00:36.215181
1054  2023-12-01 13:00:36.248095
1055  2023-12-01 13:00:36.295019
1056  2023-12-01 13:00:36.326914
1057  2023-12-01 13:00:36.374437
1058  2023-12-01 13:00:36.420313
1059  2023-12-01 13:00:36.466277
1060  2023-12-01 13:00:36.498246
1061  2023-12-01 13:00:36.546117
1062  2023-12-01 13:00:36.578032
1063  2023-12-01 13:00:36.625936
1064  2023-12-01 13:00:36.673776
1065  2023-12-01 13:00:36.705691
1066  2023-12-01 13:00:36.753563
1067  2023-12-01 13:00:36.785478
1068  2023-12-01 13:00:36.833352
1069  2023-12-01 13:00:36.881222
1070  2023-12-01 13:00:36.913136
1071  2023-12-01 13:00:36.961048
1072  2023-12-01 13:00:37.007922
1073  2023-12-01 13:00:37.038886
1074  2023-12-01 13:00:37.085976
1075  2023-12-01 13:00:37.132961
1076  2023-12-01 13:00:37.164905
1077  2023-12-01 13:00:37.212453
1078  2023-12-01 13:00:37.244370
1079  2023-12-01 13:00:37.292450
1080  2023-12-01 13:00:37.338200
1081  2023-12-01 13:00:37.370119
1082  2023-12-01 13:00:37.415991
1083  2023-12-01 13:00:37.463828
1084  2023-12-01 13:00:37.495774
1085  2023-12-01 13:00:37.540623
1086  2023-12-01 13:00:37.588493
1087  2023-12-01 13:00:37.620470
1088  2023-12-01 13:00:37.666348
1089  2023-12-01 13:00:37.712344
1090  2023-12-01 13:00:37.744259
1091  2023-12-01 13:00:37.792163
1092  2023-12-01 13:00:37.840003
1093  2023-12-01 13:00:37.871917
1094  2023-12-01 13:00:37.919790
1095  2023-12-01 13:00:37.951704
1096  2023-12-01 13:00:37.997616
1097  2023-12-01 13:00:38.045454
1098  2023-12-01 13:00:38.077368
1099  2023-12-01 13:00:38.125285
1100  2023-12-01 13:00:38.173113
1101  2023-12-01 13:00:38.205067
1102  2023-12-01 13:00:38.252963
1103  2023-12-01 13:00:38.299807
1104  2023-12-01 13:00:38.330844
1105  2023-12-01 13:00:38.378726
1106  2023-12-01 13:00:38.410633
1107  2023-12-01 13:00:38.458575
1108  2023-12-01 13:00:38.504389
1109  2023-12-01 13:00:38.536297
1110  2023-12-01 13:00:38.583153
1111  2023-12-01 13:00:38.629048
1112  2023-12-01 13:00:38.661962
1113  2023-12-01 13:00:38.707805
1114  2023-12-01 13:00:38.755715
1115  2023-12-01 13:00:38.787592
1116  2023-12-01 13:00:38.835506
1117  2023-12-01 13:00:38.882345
1118  2023-12-01 13:00:38.914253
1119  2023-12-01 13:00:38.962127
1120  2023-12-01 13:00:38.994053
1121  2023-12-01 13:00:39.040915
1122  2023-12-01 13:00:39.086792
1123  2023-12-01 13:00:39.133706
1124  2023-12-01 13:00:39.165613
1125  2023-12-01 13:00:39.213453
1126  2023-12-01 13:00:39.245368
1127  2023-12-01 13:00:39.292273
1128  2023-12-01 13:00:39.339286
1129  2023-12-01 13:00:39.371069
1130  2023-12-01 13:00:39.416950
1131  2023-12-01 13:00:39.462812
1132  2023-12-01 13:00:39.494734
1133  2023-12-01 13:00:39.541620
1134  2023-12-01 13:00:39.586456
1135  2023-12-01 13:00:39.632335
1136  2023-12-01 13:00:39.664371
1137  2023-12-01 13:00:39.711241
1138  2023-12-01 13:00:39.758123
1139  2023-12-01 13:00:39.789032
1140  2023-12-01 13:00:39.836877
1141  2023-12-01 13:00:39.868819
1142  2023-12-01 13:00:39.916750
1143  2023-12-01 13:00:39.962660
1144  2023-12-01 13:00:39.994582
1145  2023-12-01 13:00:40.042486
1146  2023-12-01 13:00:40.090413
1147  2023-12-01 13:00:40.122327
1148  2023-12-01 13:00:40.168201
1149  2023-12-01 13:00:40.216075
1150  2023-12-01 13:00:40.246960
1151  2023-12-01 13:00:40.293871
1152  2023-12-01 13:00:40.341707
1153  2023-12-01 13:00:40.373655
1154  2023-12-01 13:00:40.421526
1155  2023-12-01 13:00:40.453444
1156  2023-12-01 13:00:40.500320
1157  2023-12-01 13:00:40.548154
1158  2023-12-01 13:00:40.580069
1159  2023-12-01 13:00:40.625991
1160  2023-12-01 13:00:40.673818
1161  2023-12-01 13:00:40.705733
1162  2023-12-01 13:00:40.750613
1163  2023-12-01 13:00:40.797522
1164  2023-12-01 13:00:40.828438
1165  2023-12-01 13:00:40.876419
1166  2023-12-01 13:00:40.924185
1167  2023-12-01 13:00:40.956099
1168  2023-12-01 13:00:41.003936
1169  2023-12-01 13:00:41.049845
1170  2023-12-01 13:00:41.081763
1171  2023-12-01 13:00:41.129632
1172  2023-12-01 13:00:41.161563
1173  2023-12-01 13:00:41.209417
1174  2023-12-01 13:00:41.257287
1175  2023-12-01 13:00:41.289175
1176  2023-12-01 13:00:41.337078
1177  2023-12-01 13:00:41.368996
1178  2023-12-01 13:00:41.416867
1179  2023-12-01 13:00:41.464736
1180  2023-12-01 13:00:41.496650
1181  2023-12-01 13:00:41.544529
1182  2023-12-01 13:00:41.591398
1183  2023-12-01 13:00:41.622316
1184  2023-12-01 13:00:41.669197
1185  2023-12-01 13:00:41.716066
1186  2023-12-01 13:00:41.746949
1187  2023-12-01 13:00:41.794855
1188  2023-12-01 13:00:41.840699
1189  2023-12-01 13:00:41.872614
1190  2023-12-01 13:00:41.920487
1191  2023-12-01 13:00:41.952454
1192  2023-12-01 13:00:42.000274
1193  2023-12-01 13:00:42.048144
1194  2023-12-01 13:00:42.080059
1195  2023-12-01 13:00:42.127931
1196  2023-12-01 13:00:42.174806
1197  2023-12-01 13:00:42.205868
1198  2023-12-01 13:00:42.253740
1199  2023-12-01 13:00:42.285654
1200  2023-12-01 13:00:42.333560
1201  2023-12-01 13:00:42.381398
1202  2023-12-01 13:00:42.413313
1203  2023-12-01 13:00:42.461219
1204  2023-12-01 13:00:42.508060
1205  2023-12-01 13:00:42.539151
1206  2023-12-01 13:00:42.586885
1207  2023-12-01 13:00:42.632758
1208  2023-12-01 13:00:42.664674
1209  2023-12-01 13:00:42.712550
1210  2023-12-01 13:00:42.744463
1211  2023-12-01 13:00:42.791336
1212  2023-12-01 13:00:42.838209
1213  2023-12-01 13:00:42.870125
1214  2023-12-01 13:00:42.917964
1215  2023-12-01 13:00:42.965872
1216  2023-12-01 13:00:42.997781
1217  2023-12-01 13:00:43.045658
1218  2023-12-01 13:00:43.077538
1219  2023-12-01 13:00:43.124444
1220  2023-12-01 13:00:43.171319
1221  2023-12-01 13:00:43.202242
1222  2023-12-01 13:00:43.249079
1223  2023-12-01 13:00:43.296983
1224  2023-12-01 13:00:43.328866
1225  2023-12-01 13:00:43.376738
1226  2023-12-01 13:00:43.424652
1227  2023-12-01 13:00:43.456525
1228  2023-12-01 13:00:43.504397
1229  2023-12-01 13:00:43.536311
1230  2023-12-01 13:00:43.584183
1231  2023-12-01 13:00:43.632055
1232  2023-12-01 13:00:43.664002
1233  2023-12-01 13:00:43.711842
1234  2023-12-01 13:00:43.743756
1235  2023-12-01 13:00:43.790671
1236  2023-12-01 13:00:43.838503
1237  2023-12-01 13:00:43.869454
1238  2023-12-01 13:00:43.916295
1239  2023-12-01 13:00:43.964201
1240  2023-12-01 13:00:43.996121
1241  2023-12-01 13:00:44.042957
1242  2023-12-01 13:00:44.088860
1243  2023-12-01 13:00:44.119752
1244  2023-12-01 13:00:44.167654
1245  2023-12-01 13:00:44.215529
1246  2023-12-01 13:00:44.247442
1247  2023-12-01 13:00:44.295315
1248  2023-12-01 13:00:44.327252
1249  2023-12-01 13:00:44.375104
1250  2023-12-01 13:00:44.422976
1251  2023-12-01 13:00:44.454888
1252  2023-12-01 13:00:44.502767
1253  2023-12-01 13:00:44.549638
1254  2023-12-01 13:00:44.580562
1255  2023-12-01 13:00:44.626437
1256  2023-12-01 13:00:44.673272
1257  2023-12-01 13:00:44.704189
1258  2023-12-01 13:00:44.751064
1259  2023-12-01 13:00:44.797975
1260  2023-12-01 13:00:44.829889
1261  2023-12-01 13:00:44.877725
1262  2023-12-01 13:00:44.924634
1263  2023-12-01 13:00:44.955693
1264  2023-12-01 13:00:45.003531
1265  2023-12-01 13:00:45.035487
1266  2023-12-01 13:00:45.083351
1267  2023-12-01 13:00:45.129231
1268  2023-12-01 13:00:45.160149
1269  2023-12-01 13:00:45.207021
1270  2023-12-01 13:00:45.252900
1271  2023-12-01 13:00:45.298771
1272  2023-12-01 13:00:45.330717
1273  2023-12-01 13:00:45.378564
1274  2023-12-01 13:00:45.426482
1275  2023-12-01 13:00:45.457465
1276  2023-12-01 13:00:45.505350
1277  2023-12-01 13:00:45.537251
1278  2023-12-01 13:00:45.586121
1279  2023-12-01 13:00:45.633026
1280  2023-12-01 13:00:45.664943
1281  2023-12-01 13:00:45.712782
1282  2023-12-01 13:00:45.744696
1283  2023-12-01 13:00:45.792613
1284  2023-12-01 13:00:45.840441
1285  2023-12-01 13:00:45.872355
1286  2023-12-01 13:00:45.919230
1287  2023-12-01 13:00:45.964142
1288  2023-12-01 13:00:45.996060
1289  2023-12-01 13:00:46.042899
1290  2023-12-01 13:00:46.089818
1291  2023-12-01 13:00:46.120787
1292  2023-12-01 13:00:46.166603
1293  2023-12-01 13:00:46.214474
1294  2023-12-01 13:00:46.246387
1295  2023-12-01 13:00:46.292271
1296  2023-12-01 13:00:46.340145
1297  2023-12-01 13:00:46.372055
1298  2023-12-01 13:00:46.419931
1299  2023-12-01 13:00:46.451851
1300  2023-12-01 13:00:46.499711
1301  2023-12-01 13:00:46.545604
1302  2023-12-01 13:00:46.577512
1303  2023-12-01 13:00:46.624376
1304  2023-12-01 13:00:46.672217
1305  2023-12-01 13:00:46.704132
1306  2023-12-01 13:00:46.752003
1307  2023-12-01 13:00:46.799038
1308  2023-12-01 13:00:46.829832
1309  2023-12-01 13:00:46.877667
1310  2023-12-01 13:00:46.925578
1311  2023-12-01 13:00:46.957489
1312  2023-12-01 13:00:47.005326
1313  2023-12-01 13:00:47.037279
1314  2023-12-01 13:00:47.084116
1315  2023-12-01 13:00:47.130992
1316  2023-12-01 13:00:47.162941
1317  2023-12-01 13:00:47.210777
1318  2023-12-01 13:00:47.258682
1319  2023-12-01 13:00:47.290599
1320  2023-12-01 13:00:47.338436
1321  2023-12-01 13:00:47.370350
1322  2023-12-01 13:00:47.418222
1323  2023-12-01 13:00:47.464113
1324  2023-12-01 13:00:47.496054
1325  2023-12-01 13:00:47.543922
1326  2023-12-01 13:00:47.591760
1327  2023-12-01 13:00:47.623705
1328  2023-12-01 13:00:47.671585
1329  2023-12-01 13:00:47.703496
1330  2023-12-01 13:00:47.751347
1331  2023-12-01 13:00:47.798242
1332  2023-12-01 13:00:47.830159
1333  2023-12-01 13:00:47.876042
1334  2023-12-01 13:00:47.921881
1335  2023-12-01 13:00:47.953827
1336  2023-12-01 13:00:48.002700
1337  2023-12-01 13:00:48.050569
1338  2023-12-01 13:00:48.082487
1339  2023-12-01 13:00:48.129358
1340  2023-12-01 13:00:48.161273
1341  2023-12-01 13:00:48.209144
1342  2023-12-01 13:00:48.257018
1343  2023-12-01 13:00:48.289056
1344  2023-12-01 13:00:48.336964
1345  2023-12-01 13:00:48.368874
1346  2023-12-01 13:00:48.416749
1347  2023-12-01 13:00:48.465636
1348  2023-12-01 13:00:48.495535
1349  2023-12-01 13:00:48.543376
1350  2023-12-01 13:00:48.591248
1351  2023-12-01 13:00:48.622165
1352  2023-12-01 13:00:48.670047
1353  2023-12-01 13:00:48.701988
1354  2023-12-01 13:00:48.749824
1355  2023-12-01 13:00:48.797723
1356  2023-12-01 13:00:48.829637
1357  2023-12-01 13:00:48.877511
1358  2023-12-01 13:00:48.925362
1359  2023-12-01 13:00:48.957304
1360  2023-12-01 13:00:49.005175
1361  2023-12-01 13:00:49.037097
1362  2023-12-01 13:00:49.084959
1363  2023-12-01 13:00:49.131836
1364  2023-12-01 13:00:49.162781
1365  2023-12-01 13:00:49.209630
1366  2023-12-01 13:00:49.256502
1367  2023-12-01 13:00:49.288428
1368  2023-12-01 13:00:49.335296
1369  2023-12-01 13:00:49.382170
1370  2023-12-01 13:00:49.414081
1371  2023-12-01 13:00:49.461951
1372  2023-12-01 13:00:49.507834
1373  2023-12-01 13:00:49.539759
1374  2023-12-01 13:00:49.587615
1375  2023-12-01 13:00:49.619628
1376  2023-12-01 13:00:49.667372
1377  2023-12-01 13:00:49.714222
1378  2023-12-01 13:00:49.745108
1379  2023-12-01 13:00:49.791012
1380  2023-12-01 13:00:49.837913
1381  2023-12-01 13:00:49.868836
1382  2023-12-01 13:00:49.916732
1383  2023-12-01 13:00:49.964616
1384  2023-12-01 13:00:49.996530
1385  2023-12-01 13:00:50.044391
1386  2023-12-01 13:00:50.091280
1387  2023-12-01 13:00:50.123195
1388  2023-12-01 13:00:50.171065
1389  2023-12-01 13:00:50.202979
1390  2023-12-01 13:00:50.250852
1391  2023-12-01 13:00:50.298681
1392  2023-12-01 13:00:50.330640
1393  2023-12-01 13:00:50.378509
1394  2023-12-01 13:00:50.410413
1395  2023-12-01 13:00:50.458260
1396  2023-12-01 13:00:50.506172
1397  2023-12-01 13:00:50.538071
1398  2023-12-01 13:00:50.585947
1399  2023-12-01 13:00:50.633794
1400  2023-12-01 13:00:50.665741
1401  2023-12-01 13:00:50.712608
1402  2023-12-01 13:00:50.744519
1403  2023-12-01 13:00:50.792406
1404  2023-12-01 13:00:50.840266
1405  2023-12-01 13:00:50.872149
1406  2023-12-01 13:00:50.920065
1407  2023-12-01 13:00:50.951935
1408  2023-12-01 13:00:50.999807
1409  2023-12-01 13:00:51.047723
1410  2023-12-01 13:00:51.079638
1411  2023-12-01 13:00:51.127510
1412  2023-12-01 13:00:51.175338
1413  2023-12-01 13:00:51.207284
1414  2023-12-01 13:00:51.254171
1415  2023-12-01 13:00:51.285078
1416  2023-12-01 13:00:51.332922
1417  2023-12-01 13:00:51.380830
1418  2023-12-01 13:00:51.412749
1419  2023-12-01 13:00:51.460605
1420  2023-12-01 13:00:51.508448
1421  2023-12-01 13:00:51.540406
1422  2023-12-01 13:00:51.588279
1423  2023-12-01 13:00:51.620183
1424  2023-12-01 13:00:51.668065
1425  2023-12-01 13:00:51.715934
1426  2023-12-01 13:00:51.747841
1427  2023-12-01 13:00:51.795711
1428  2023-12-01 13:00:51.827642
1429  2023-12-01 13:00:51.875467
1430  2023-12-01 13:00:51.922347
1431  2023-12-01 13:00:51.952262
1432  2023-12-01 13:00:51.999136
1433  2023-12-01 13:00:52.047008
1434  2023-12-01 13:00:52.078058
1435  2023-12-01 13:00:52.124843
1436  2023-12-01 13:00:52.172705
1437  2023-12-01 13:00:52.204629
1438  2023-12-01 13:00:52.252493
1439  2023-12-01 13:00:52.300360
1440  2023-12-01 13:00:52.332290
1441  2023-12-01 13:00:52.379164
1442  2023-12-01 13:00:52.410042
1443  2023-12-01 13:00:52.457952
1444  2023-12-01 13:00:52.505823
1445  2023-12-01 13:00:52.537725
1446  2023-12-01 13:00:52.585615
1447  2023-12-01 13:00:52.633504
1448  2023-12-01 13:00:52.665397
1449  2023-12-01 13:00:52.713402
1450  2023-12-01 13:00:52.744176
1451  2023-12-01 13:00:52.792022
1452  2023-12-01 13:00:52.839919
1453  2023-12-01 13:00:52.871834
1454  2023-12-01 13:00:52.919676
1455  2023-12-01 13:00:52.951632
1456  2023-12-01 13:00:52.999463
1457  2023-12-01 13:00:53.047338
1458  2023-12-01 13:00:53.078416
1459  2023-12-01 13:00:53.125295
1460  2023-12-01 13:00:53.173165
1461  2023-12-01 13:00:53.205085
1462  2023-12-01 13:00:53.252952
1463  2023-12-01 13:00:53.299823
1464  2023-12-01 13:00:53.331749
1465  2023-12-01 13:00:53.377617
1466  2023-12-01 13:00:53.425460
1467  2023-12-01 13:00:53.457488
1468  2023-12-01 13:00:53.505246
1469  2023-12-01 13:00:53.537197
1470  2023-12-01 13:00:53.585069
1471  2023-12-01 13:00:53.632905
1472  2023-12-01 13:00:53.664820
1473  2023-12-01 13:00:53.710728
1474  2023-12-01 13:00:53.759598
1475  2023-12-01 13:00:53.791481
1476  2023-12-01 13:00:53.838356
1477  2023-12-01 13:00:53.870302
1478  2023-12-01 13:00:53.918174
1479  2023-12-01 13:00:53.965015
1480  2023-12-01 13:00:53.996931
1481  2023-12-01 13:00:54.042809
1482  2023-12-01 13:00:54.088686
1483  2023-12-01 13:00:54.120601
1484  2023-12-01 13:00:54.168604
1485  2023-12-01 13:00:54.216375
1486  2023-12-01 13:00:54.248292
1487  2023-12-01 13:00:54.296132
1488  2023-12-01 13:00:54.328047
1489  2023-12-01 13:00:54.375951
1490  2023-12-01 13:00:54.422824
1491  2023-12-01 13:00:54.453741
1492  2023-12-01 13:00:54.501581
1493  2023-12-01 13:00:54.547471
1494  2023-12-01 13:00:54.579404
1495  2023-12-01 13:00:54.627278
1496  2023-12-01 13:00:54.675149
1497  2023-12-01 13:00:54.707066
1498  2023-12-01 13:00:54.754937
1499  2023-12-01 13:00:54.786848
1500  2023-12-01 13:00:54.834721
1501  2023-12-01 13:00:54.882594
1502  2023-12-01 13:00:54.914508
1503  2023-12-01 13:00:54.962349
1504  2023-12-01 13:00:54.994265
1505  2023-12-01 13:00:55.042136
1506  2023-12-01 13:00:55.088014
1507  2023-12-01 13:00:55.118931
1508  2023-12-01 13:00:55.165807
1509  2023-12-01 13:00:55.213679
1510  2023-12-01 13:00:55.245592
1511  2023-12-01 13:00:55.292471
1512  2023-12-01 13:00:55.339375
1513  2023-12-01 13:00:55.371101
1514  2023-12-01 13:00:55.419087
1515  2023-12-01 13:00:55.465799
1516  2023-12-01 13:00:55.496759
1517  2023-12-01 13:00:55.543622
1518  2023-12-01 13:00:55.591501
1519  2023-12-01 13:00:55.623377
1520  2023-12-01 13:00:55.670255
1521  2023-12-01 13:00:55.717170
1522  2023-12-01 13:00:55.749087
1523  2023-12-01 13:00:55.796917
1524  2023-12-01 13:00:55.828856
1525  2023-12-01 13:00:55.876733
1526  2023-12-01 13:00:55.922615
1527  2023-12-01 13:00:55.954492
1528  2023-12-01 13:00:56.002385
1529  2023-12-01 13:00:56.050264
1530  2023-12-01 13:00:56.081416
1531  2023-12-01 13:00:56.128293
1532  2023-12-01 13:00:56.160208
1533  2023-12-01 13:00:56.208109
1534  2023-12-01 13:00:56.255993
1535  2023-12-01 13:00:56.287904
1536  2023-12-01 13:00:56.335781
1537  2023-12-01 13:00:56.383641
1538  2023-12-01 13:00:56.415569
1539  2023-12-01 13:00:56.463430
1540  2023-12-01 13:00:56.495359
1541  2023-12-01 13:00:56.543187
1542  2023-12-01 13:00:56.591055
1543  2023-12-01 13:00:56.622970
1544  2023-12-01 13:00:56.670885
1545  2023-12-01 13:00:56.702756
1546  2023-12-01 13:00:56.750628
1547  2023-12-01 13:00:56.798501
1548  2023-12-01 13:00:56.830443
1549  2023-12-01 13:00:56.878327
1550  2023-12-01 13:00:56.910201
1551  2023-12-01 13:00:56.958110
1552  2023-12-01 13:00:57.005977
1553  2023-12-01 13:00:57.037891
1554  2023-12-01 13:00:57.085763
1555  2023-12-01 13:00:57.133603
1556  2023-12-01 13:00:57.165518
1557  2023-12-01 13:00:57.213391
1558  2023-12-01 13:00:57.245334
1559  2023-12-01 13:00:57.293264
1560  2023-12-01 13:00:57.339228
1561  2023-12-01 13:00:57.371150
1562  2023-12-01 13:00:57.417019
1563  2023-12-01 13:00:57.463863
1564  2023-12-01 13:00:57.494813
1565  2023-12-01 13:00:57.542873
1566  2023-12-01 13:00:57.590524
1567  2023-12-01 13:00:57.622455
1568  2023-12-01 13:00:57.669313
1569  2023-12-01 13:00:57.714197
1570  2023-12-01 13:00:57.746140
1571  2023-12-01 13:00:57.793979
1572  2023-12-01 13:00:57.841858
1573  2023-12-01 13:00:57.873860
1574  2023-12-01 13:00:57.921730
1575  2023-12-01 13:00:57.954642
1576  2023-12-01 13:00:58.001704
1577  2023-12-01 13:00:58.049389
1578  2023-12-01 13:00:58.081302
1579  2023-12-01 13:00:58.129144
1580  2023-12-01 13:00:58.161090
1581  2023-12-01 13:00:58.208966
1582  2023-12-01 13:00:58.256840
1583  2023-12-01 13:00:58.288752
1584  2023-12-01 13:00:58.336718
1585  2023-12-01 13:00:58.368626
1586  2023-12-01 13:00:58.414827
1587  2023-12-01 13:00:58.462783
1588  2023-12-01 13:00:58.494692
1589  2023-12-01 13:00:58.542570
1590  2023-12-01 13:00:58.589441
1591  2023-12-01 13:00:58.621353
1592  2023-12-01 13:00:58.668240
1593  2023-12-01 13:00:58.716099
1594  2023-12-01 13:00:58.745984
1595  2023-12-01 13:00:58.793887
1596  2023-12-01 13:00:58.841728
1597  2023-12-01 13:00:58.872682
1598  2023-12-01 13:00:58.918523
1599  2023-12-01 13:00:58.965429
1600  2023-12-01 13:00:58.997353
1601  2023-12-01 13:00:59.045184
1602  2023-12-01 13:00:59.092100
1603  2023-12-01 13:00:59.122977
1604  2023-12-01 13:00:59.170848
1605  2023-12-01 13:00:59.202764
1606  2023-12-01 13:00:59.250635
1607  2023-12-01 13:00:59.300504
1608  2023-12-01 13:00:59.329426
1609  2023-12-01 13:00:59.375302
1610  2023-12-01 13:00:59.422177
1611  2023-12-01 13:00:59.454127
1612  2023-12-01 13:00:59.501006
1613  2023-12-01 13:00:59.547868
1614  2023-12-01 13:00:59.580787
1615  2023-12-01 13:00:59.627658
1616  2023-12-01 13:00:59.678493
1617  2023-12-01 13:00:59.708413
1618  2023-12-01 13:00:59.751299
1619  2023-12-01 13:00:59.798174
1620  2023-12-01 13:00:59.829090
1621  2023-12-01 13:00:59.875963
1622  2023-12-01 13:00:59.922877
1623  2023-12-01 13:00:59.954815
1624  2023-12-01 13:01:00.002709
1625  2023-12-01 13:01:00.049668
1626  2023-12-01 13:01:00.080579
1627  2023-12-01 13:01:00.128485
1628  2023-12-01 13:01:00.160439
1629  2023-12-01 13:01:00.207301
1630  2023-12-01 13:01:00.253175
1631  2023-12-01 13:01:00.301039
1632  2023-12-01 13:01:00.331970
1633  2023-12-01 13:01:00.380931
1634  2023-12-01 13:01:00.412851
1635  2023-12-01 13:01:00.459720
1636  2023-12-01 13:01:00.505606
1637  2023-12-01 13:01:00.536512
1638  2023-12-01 13:01:00.584356
1639  2023-12-01 13:01:00.632365
1640  2023-12-01 13:01:00.662238
1641  2023-12-01 13:01:00.710109
1642  2023-12-01 13:01:00.758015
1643  2023-12-01 13:01:00.789903
1644  2023-12-01 13:01:00.837801
1645  2023-12-01 13:01:00.869724
1646  2023-12-01 13:01:00.917660
1647  2023-12-01 13:01:00.965532
1648  2023-12-01 13:01:00.995450
1649  2023-12-01 13:01:01.043322
1650  2023-12-01 13:01:01.091227
1651  2023-12-01 13:01:01.123144
1652  2023-12-01 13:01:01.170981
1653  2023-12-01 13:01:01.202896
1654  2023-12-01 13:01:01.249770
1655  2023-12-01 13:01:01.296696
1656  2023-12-01 13:01:01.328561
1657  2023-12-01 13:01:01.376433
1658  2023-12-01 13:01:01.429292
1659  2023-12-01 13:01:01.454225
1660  2023-12-01 13:01:01.500103
1661  2023-12-01 13:01:01.546976
1662  2023-12-01 13:01:01.578892
1663  2023-12-01 13:01:01.625766
1664  2023-12-01 13:01:01.673735
1665  2023-12-01 13:01:01.705552
1666  2023-12-01 13:01:01.752426
1667  2023-12-01 13:01:01.798341
1668  2023-12-01 13:01:01.829269
1669  2023-12-01 13:01:01.876096
1670  2023-12-01 13:01:01.922972
1671  2023-12-01 13:01:01.954888
1672  2023-12-01 13:01:02.002759
1673  2023-12-01 13:01:02.049632
1674  2023-12-01 13:01:02.080577
1675  2023-12-01 13:01:02.128555
1676  2023-12-01 13:01:02.160371
1677  2023-12-01 13:01:02.208251
1678  2023-12-01 13:01:02.256126
1679  2023-12-01 13:01:02.288031
1680  2023-12-01 13:01:02.333996
1681  2023-12-01 13:01:02.381855
1682  2023-12-01 13:01:02.412919
1683  2023-12-01 13:01:02.460670
1684  2023-12-01 13:01:02.507574
1685  2023-12-01 13:01:02.540550
1686  2023-12-01 13:01:02.587500
1687  2023-12-01 13:01:02.619414
1688  2023-12-01 13:01:02.667279
1689  2023-12-01 13:01:02.715157
1690  2023-12-01 13:01:02.747170
1691  2023-12-01 13:01:02.794151
1692  2023-12-01 13:01:02.840988
1693  2023-12-01 13:01:02.872903
1694  2023-12-01 13:01:02.920775
1695  2023-12-01 13:01:02.952690
1696  2023-12-01 13:01:02.999999
1697  2023-12-01 13:01:03.047927
1698  2023-12-01 13:01:03.079842
1699  2023-12-01 13:01:03.127804
1700  2023-12-01 13:01:03.174588
1701  2023-12-01 13:01:03.206536
1702  2023-12-01 13:01:03.254375
1703  2023-12-01 13:01:03.286290
1704  2023-12-01 13:01:03.334196
1705  2023-12-01 13:01:03.382034
1706  2023-12-01 13:01:03.413949
1707  2023-12-01 13:01:03.461870
1708  2023-12-01 13:01:03.508695
1709  2023-12-01 13:01:03.540610
1710  2023-12-01 13:01:03.588482
1711  2023-12-01 13:01:03.620397
1712  2023-12-01 13:01:03.668314
1713  2023-12-01 13:01:03.715155
1714  2023-12-01 13:01:03.747070
1715  2023-12-01 13:01:03.794980
1716  2023-12-01 13:01:03.826894
1717  2023-12-01 13:01:03.874729
1718  2023-12-01 13:01:03.922944
1719  2023-12-01 13:01:03.953863
1720  2023-12-01 13:01:04.001777
1721  2023-12-01 13:01:04.049646
1722  2023-12-01 13:01:04.080946
1723  2023-12-01 13:01:04.128815
1724  2023-12-01 13:01:04.160730
1725  2023-12-01 13:01:04.208605
1726  2023-12-01 13:01:04.256474
1727  2023-12-01 13:01:04.288469
1728  2023-12-01 13:01:04.335382
1729  2023-12-01 13:01:04.382555
1730  2023-12-01 13:01:04.414469
1731  2023-12-01 13:01:04.462500
1732  2023-12-01 13:01:04.494421
1733  2023-12-01 13:01:04.542310
1734  2023-12-01 13:01:04.589126
1735  2023-12-01 13:01:04.620078
1736  2023-12-01 13:01:04.667948
1737  2023-12-01 13:01:04.715821
1738  2023-12-01 13:01:04.747703
1739  2023-12-01 13:01:04.795609
1740  2023-12-01 13:01:04.827523
1741  2023-12-01 13:01:04.875393
1742  2023-12-01 13:01:04.923271
1743  2023-12-01 13:01:04.955186
1744  2023-12-01 13:01:05.003022
1745  2023-12-01 13:01:05.048930
1746  2023-12-01 13:01:05.080844
1747  2023-12-01 13:01:05.127718
1748  2023-12-01 13:01:05.174561
1749  2023-12-01 13:01:05.204518
1750  2023-12-01 13:01:05.251356
1751  2023-12-01 13:01:05.299263
1752  2023-12-01 13:01:05.331174
1753  2023-12-01 13:01:05.379029
1754  2023-12-01 13:01:05.410930
1755  2023-12-01 13:01:05.458804
1756  2023-12-01 13:01:05.506674
1757  2023-12-01 13:01:05.538589
1758  2023-12-01 13:01:05.585463
1759  2023-12-01 13:01:05.632343
1760  2023-12-01 13:01:05.664298
1761  2023-12-01 13:01:05.712164
1762  2023-12-01 13:01:05.744088
1763  2023-12-01 13:01:05.791911
1764  2023-12-01 13:01:05.839820
1765  2023-12-01 13:01:05.871746
1766  2023-12-01 13:01:05.917605
1767  2023-12-01 13:01:05.965480
1768  2023-12-01 13:01:05.997397
1769  2023-12-01 13:01:06.045268
1770  2023-12-01 13:01:06.077183
1771  2023-12-01 13:01:06.125057
1772  2023-12-01 13:01:06.172751
1773  2023-12-01 13:01:06.203668
1774  2023-12-01 13:01:06.250522
1775  2023-12-01 13:01:06.296389
1776  2023-12-01 13:01:06.329301
1777  2023-12-01 13:01:06.376180
1778  2023-12-01 13:01:06.422053
1779  2023-12-01 13:01:06.454000
1780  2023-12-01 13:01:06.499878
1781  2023-12-01 13:01:06.547747
1782  2023-12-01 13:01:06.579631
1783  2023-12-01 13:01:06.627543
1784  2023-12-01 13:01:06.675406
1785  2023-12-01 13:01:06.707290
1786  2023-12-01 13:01:06.755163
1787  2023-12-01 13:01:06.787115
1788  2023-12-01 13:01:06.833981
1789  2023-12-01 13:01:06.881854
1790  2023-12-01 13:01:06.913742
1791  2023-12-01 13:01:06.961651
1792  2023-12-01 13:01:06.993566
1793  2023-12-01 13:01:07.041427
1794  2023-12-01 13:01:07.089312
1795  2023-12-01 13:01:07.120188
1796  2023-12-01 13:01:07.167064
1797  2023-12-01 13:01:07.213939
1798  2023-12-01 13:01:07.244862
1799  2023-12-01 13:01:07.291759
1800  2023-12-01 13:01:07.338601
1801  2023-12-01 13:01:07.369554
1802  2023-12-01 13:01:07.416394
1803  2023-12-01 13:01:07.464272
1804  2023-12-01 13:01:07.496181
1805  2023-12-01 13:01:07.542059
1806  2023-12-01 13:01:07.589968
1807  2023-12-01 13:01:07.621883
1808  2023-12-01 13:01:07.667823
1809  2023-12-01 13:01:07.715694
1810  2023-12-01 13:01:07.747609
1811  2023-12-01 13:01:07.793465
1812  2023-12-01 13:01:07.841358
1813  2023-12-01 13:01:07.873274
1814  2023-12-01 13:01:07.921114
1815  2023-12-01 13:01:07.953031
1816  2023-12-01 13:01:08.000758
1817  2023-12-01 13:01:08.048631
1818  2023-12-01 13:01:08.080572
1819  2023-12-01 13:01:08.128459
1820  2023-12-01 13:01:08.160329
1821  2023-12-01 13:01:08.207203
1822  2023-12-01 13:01:08.254122
1823  2023-12-01 13:01:08.285994
1824  2023-12-01 13:01:08.331871
1825  2023-12-01 13:01:08.378776
1826  2023-12-01 13:01:08.424653
1827  2023-12-01 13:01:08.456567
1828  2023-12-01 13:01:08.504450
1829  2023-12-01 13:01:08.536324
1830  2023-12-01 13:01:08.584229
1831  2023-12-01 13:01:08.633070
1832  2023-12-01 13:01:08.663990
1833  2023-12-01 13:01:08.712914
1834  2023-12-01 13:01:08.759208
1835  2023-12-01 13:01:08.789112
1836  2023-12-01 13:01:08.836983
1837  2023-12-01 13:01:08.868898
1838  2023-12-01 13:01:08.916739
1839  2023-12-01 13:01:08.964653
1840  2023-12-01 13:01:08.996526
1841  2023-12-01 13:01:09.044398
1842  2023-12-01 13:01:09.091273
1843  2023-12-01 13:01:09.121196
1844  2023-12-01 13:01:09.167070
1845  2023-12-01 13:01:09.214942
1846  2023-12-01 13:01:09.246855
1847  2023-12-01 13:01:09.293761
1848  2023-12-01 13:01:09.340606
1849  2023-12-01 13:01:09.371523
1850  2023-12-01 13:01:09.417404
1851  2023-12-01 13:01:09.464276
1852  2023-12-01 13:01:09.495197
1853  2023-12-01 13:01:09.542666
1854  2023-12-01 13:01:09.589537
1855  2023-12-01 13:01:09.620459
1856  2023-12-01 13:01:09.668326
1857  2023-12-01 13:01:09.716229
1858  2023-12-01 13:01:09.748116
1859  2023-12-01 13:01:09.795985
1860  2023-12-01 13:01:09.827904
1861  2023-12-01 13:01:09.875805
1862  2023-12-01 13:01:09.923686
1863  2023-12-01 13:01:09.955583
1864  2023-12-01 13:01:10.002433
1865  2023-12-01 13:01:10.048342
1866  2023-12-01 13:01:10.079233
1867  2023-12-01 13:01:10.126106
1868  2023-12-01 13:01:10.173012
1869  2023-12-01 13:01:10.204936
1870  2023-12-01 13:01:10.252767
1871  2023-12-01 13:01:10.299642
1872  2023-12-01 13:01:10.330559
1873  2023-12-01 13:01:10.378432
1874  2023-12-01 13:01:10.410346
1875  2023-12-01 13:01:10.460209
1876  2023-12-01 13:01:10.509078
1877  2023-12-01 13:01:10.570914
1878  2023-12-01 13:01:10.586871
1879  2023-12-01 13:01:10.631751
1880  2023-12-01 13:01:10.663666
1881  2023-12-01 13:01:10.711548
1882  2023-12-01 13:01:10.743486
1883  2023-12-01 13:01:10.792390
1884  2023-12-01 13:01:10.840355
1885  2023-12-01 13:01:10.872228
1886  2023-12-01 13:01:10.920106
1887  2023-12-01 13:01:10.966976
1888  2023-12-01 13:01:10.999893
1889  2023-12-01 13:01:11.046771
1890  2023-12-01 13:01:11.078162
1891  2023-12-01 13:01:11.127003
1892  2023-12-01 13:01:11.173871
1893  2023-12-01 13:01:11.205786
1894  2023-12-01 13:01:11.250666
1895  2023-12-01 13:01:11.297603
1896  2023-12-01 13:01:11.329515
1897  2023-12-01 13:01:11.377461
1898  2023-12-01 13:01:11.425334
1899  2023-12-01 13:01:11.457249
1900  2023-12-01 13:01:11.505119
1901  2023-12-01 13:01:11.536037
1902  2023-12-01 13:01:11.581914
1903  2023-12-01 13:01:11.628789
1904  2023-12-01 13:01:11.674667
1905  2023-12-01 13:01:11.705584
1906  2023-12-01 13:01:11.752458
1907  2023-12-01 13:01:11.799333
1908  2023-12-01 13:01:11.831247
1909  2023-12-01 13:01:11.878123
1910  2023-12-01 13:01:11.925995
1911  2023-12-01 13:01:11.957909
1912  2023-12-01 13:01:12.005780
1913  2023-12-01 13:01:12.037696
1914  2023-12-01 13:01:12.082737
1915  2023-12-01 13:01:12.130624
1916  2023-12-01 13:01:12.162536
1917  2023-12-01 13:01:12.210396
1918  2023-12-01 13:01:12.258239
1919  2023-12-01 13:01:12.290154
1920  2023-12-01 13:01:12.337027
1921  2023-12-01 13:01:12.382904
1922  2023-12-01 13:01:12.413822
1923  2023-12-01 13:01:12.460771
1924  2023-12-01 13:01:12.508643
1925  2023-12-01 13:01:12.540607
1926  2023-12-01 13:01:12.588430
1927  2023-12-01 13:01:12.618362
1928  2023-12-01 13:01:12.666213
1929  2023-12-01 13:01:12.714092
1930  2023-12-01 13:01:12.746014
1931  2023-12-01 13:01:12.793879
1932  2023-12-01 13:01:12.840726
1933  2023-12-01 13:01:12.872638
1934  2023-12-01 13:01:12.919517
1935  2023-12-01 13:01:12.965390
1936  2023-12-01 13:01:12.997336
1937  2023-12-01 13:01:13.045207
1938  2023-12-01 13:01:13.077092
1939  2023-12-01 13:01:13.121970
1940  2023-12-01 13:01:13.169872
1941  2023-12-01 13:01:13.216748
1942  2023-12-01 13:01:13.248663
1943  2023-12-01 13:01:13.296537
1944  2023-12-01 13:01:13.328419
1945  2023-12-01 13:01:13.376321
1946  2023-12-01 13:01:13.424181
1947  2023-12-01 13:01:13.456109
1948  2023-12-01 13:01:13.503984
1949  2023-12-01 13:01:13.535920
1950  2023-12-01 13:01:13.583767
1951  2023-12-01 13:01:13.631610
1952  2023-12-01 13:01:13.664521
1953  2023-12-01 13:01:13.711448
1954  2023-12-01 13:01:13.743363
1955  2023-12-01 13:01:13.789280
1956  2023-12-01 13:01:13.837111
1957  2023-12-01 13:01:13.869205
1958  2023-12-01 13:01:13.917111
1959  2023-12-01 13:01:13.964978
1960  2023-12-01 13:01:13.996894
1961  2023-12-01 13:01:14.044908
1962  2023-12-01 13:01:14.090785
1963  2023-12-01 13:01:14.122699
1964  2023-12-01 13:01:14.170670
1965  2023-12-01 13:01:14.202555
1966  2023-12-01 13:01:14.249458
1967  2023-12-01 13:01:14.295308
1968  2023-12-01 13:01:14.342183
1969  2023-12-01 13:01:14.374097
1970  2023-12-01 13:01:14.421969
1971  2023-12-01 13:01:14.453883
1972  2023-12-01 13:01:14.501876
1973  2023-12-01 13:01:14.548631
1974  2023-12-01 13:01:14.580546
1975  2023-12-01 13:01:14.625456
1976  2023-12-01 13:01:14.671336
1977  2023-12-01 13:01:14.703305
1978  2023-12-01 13:01:14.751175
1979  2023-12-01 13:01:14.799017
1980  2023-12-01 13:01:14.831930
1981  2023-12-01 13:01:14.878807
1982  2023-12-01 13:01:14.910718
1983  2023-12-01 13:01:14.958621
1984  2023-12-01 13:01:15.005468
1985  2023-12-01 13:01:15.037384
1986  2023-12-01 13:01:15.083288
1987  2023-12-01 13:01:15.131132
1988  2023-12-01 13:01:15.163074
1989  2023-12-01 13:01:15.210946
1990  2023-12-01 13:01:15.258816
1991  2023-12-01 13:01:15.290844
1992  2023-12-01 13:01:15.337577
1993  2023-12-01 13:01:15.368526
1994  2023-12-01 13:01:15.416407
1995  2023-12-01 13:01:15.464395
1996  2023-12-01 13:01:15.496309
1997  2023-12-01 13:01:15.544211
1998  2023-12-01 13:01:15.590088
1999  2023-12-01 13:01:15.621973
2000  2023-12-01 13:01:15.669882
2001  2023-12-01 13:01:15.701799
2002  2023-12-01 13:01:15.749630
2003  2023-12-01 13:01:15.796507
2004  2023-12-01 13:01:15.827428
2005  2023-12-01 13:01:15.876293
2006  2023-12-01 13:01:15.924165
2007  2023-12-01 13:01:15.956080
2008  2023-12-01 13:01:16.004010
2009  2023-12-01 13:01:16.035929
2010  2023-12-01 13:01:16.083801
2011  2023-12-01 13:01:16.131709
2012  2023-12-01 13:01:16.162589
2013  2023-12-01 13:01:16.211459
2014  2023-12-01 13:01:16.258380
2015  2023-12-01 13:01:16.291245
2016  2023-12-01 13:01:16.337156
2017  2023-12-01 13:01:16.369036
2018  2023-12-01 13:01:16.416941
2019  2023-12-01 13:01:16.464782
2020  2023-12-01 13:01:16.496696
2021  2023-12-01 13:01:16.544619
2022  2023-12-01 13:01:16.591490
2023  2023-12-01 13:01:16.622535
2024  2023-12-01 13:01:16.670313
2025  2023-12-01 13:01:16.702227
2026  2023-12-01 13:01:16.749103
2027  2023-12-01 13:01:16.795976
2028  2023-12-01 13:01:16.827893
2029  2023-12-01 13:01:16.875769
2030  2023-12-01 13:01:16.922603
2031  2023-12-01 13:01:16.953550
2032  2023-12-01 13:01:16.999400
2033  2023-12-01 13:01:17.047409
2034  2023-12-01 13:01:17.079288
2035  2023-12-01 13:01:17.127161
2036  2023-12-01 13:01:17.176030
2037  2023-12-01 13:01:17.206947
2038  2023-12-01 13:01:17.254867
2039  2023-12-01 13:01:17.286779
2040  2023-12-01 13:01:17.334644
2041  2023-12-01 13:01:17.382482
2042  2023-12-01 13:01:17.414468
2043  2023-12-01 13:01:17.462304
2044  2023-12-01 13:01:17.494218
2045  2023-12-01 13:01:17.542095
2046  2023-12-01 13:01:17.589995
2047  2023-12-01 13:01:17.621881
2048  2023-12-01 13:01:17.669750
2049  2023-12-01 13:01:17.701665
2050  2023-12-01 13:01:17.748570
2051  2023-12-01 13:01:17.795414
2052  2023-12-01 13:01:17.841322
2053  2023-12-01 13:01:17.872240
2054  2023-12-01 13:01:17.919083
2055  2023-12-01 13:01:17.966989
2056  2023-12-01 13:01:17.998912
2057  2023-12-01 13:01:18.046777
2058  2023-12-01 13:01:18.077689
2059  2023-12-01 13:01:18.125561
2060  2023-12-01 13:01:18.172409
2061  2023-12-01 13:01:18.203356
2062  2023-12-01 13:01:18.251226
2063  2023-12-01 13:01:18.299101
2064  2023-12-01 13:01:18.331014
2065  2023-12-01 13:01:18.378855
2066  2023-12-01 13:01:18.410768
2067  2023-12-01 13:01:18.458672
2068  2023-12-01 13:01:18.505519
2069  2023-12-01 13:01:18.537429
2070  2023-12-01 13:01:18.583349
2071  2023-12-01 13:01:18.631215
2072  2023-12-01 13:01:18.664127
2073  2023-12-01 13:01:18.711006
2074  2023-12-01 13:01:18.757876
2075  2023-12-01 13:01:18.788793
2076  2023-12-01 13:01:18.836665
2077  2023-12-01 13:01:18.868584
2078  2023-12-01 13:01:18.916483
2079  2023-12-01 13:01:18.964373
2080  2023-12-01 13:01:18.996244
2081  2023-12-01 13:01:19.044153
2082  2023-12-01 13:01:19.092019
2083  2023-12-01 13:01:19.122938
2084  2023-12-01 13:01:19.169904
2085  2023-12-01 13:01:19.201825
2086  2023-12-01 13:01:19.249660
2087  2023-12-01 13:01:19.298535
2088  2023-12-01 13:01:19.330444
2089  2023-12-01 13:01:19.378316
2090  2023-12-01 13:01:19.424194
2091  2023-12-01 13:01:19.455111
2092  2023-12-01 13:01:19.502982
2093  2023-12-01 13:01:19.549890
2094  2023-12-01 13:01:19.580804
2095  2023-12-01 13:01:19.628678
2096  2023-12-01 13:01:19.660593
2097  2023-12-01 13:01:19.708055
2098  2023-12-01 13:01:19.755966
2099  2023-12-01 13:01:19.787845
2100  2023-12-01 13:01:19.834762
2101  2023-12-01 13:01:19.881626
2102  2023-12-01 13:01:19.913641
2103  2023-12-01 13:01:19.960485
2104  2023-12-01 13:01:20.007356
2105  2023-12-01 13:01:20.039271
2106  2023-12-01 13:01:20.086175
2107  2023-12-01 13:01:20.133063
2108  2023-12-01 13:01:20.164934
2109  2023-12-01 13:01:20.212839
2110  2023-12-01 13:01:20.244765
2111  2023-12-01 13:01:20.292593
2112  2023-12-01 13:01:20.339467
2113  2023-12-01 13:01:20.371383
2114  2023-12-01 13:01:20.419255
2115  2023-12-01 13:01:20.466129
2116  2023-12-01 13:01:20.498045
2117  2023-12-01 13:01:20.545916
2118  2023-12-01 13:01:20.577834
2119  2023-12-01 13:01:20.625704
2120  2023-12-01 13:01:20.673620
2121  2023-12-01 13:01:20.705530
2122  2023-12-01 13:01:20.754359
2123  2023-12-01 13:01:20.785319
2124  2023-12-01 13:01:20.834195
2125  2023-12-01 13:01:20.882078
2126  2023-12-01 13:01:20.913977
2127  2023-12-01 13:01:20.961804
2128  2023-12-01 13:01:21.007725
2129  2023-12-01 13:01:21.038598
2130  2023-12-01 13:01:21.086504
2131  2023-12-01 13:01:21.118385
2132  2023-12-01 13:01:21.166289
2133  2023-12-01 13:01:21.214133
2134  2023-12-01 13:01:21.246077
2135  2023-12-01 13:01:21.293951
2136  2023-12-01 13:01:21.341821
2137  2023-12-01 13:01:21.373703
2138  2023-12-01 13:01:21.421578
2139  2023-12-01 13:01:21.452492
2140  2023-12-01 13:01:21.499367
2141  2023-12-01 13:01:21.547283
2142  2023-12-01 13:01:21.579198
2143  2023-12-01 13:01:21.627058
2144  2023-12-01 13:01:21.674931
2145  2023-12-01 13:01:21.706980
2146  2023-12-01 13:01:21.754713
2147  2023-12-01 13:01:21.786628
2148  2023-12-01 13:01:21.834488
2149  2023-12-01 13:01:21.882374
2150  2023-12-01 13:01:21.914292
2151  2023-12-01 13:01:21.962161
2152  2023-12-01 13:01:21.994048
2153  2023-12-01 13:01:22.039922
2154  2023-12-01 13:01:22.087825
2155  2023-12-01 13:01:22.119740
2156  2023-12-01 13:01:22.167627
2157  2023-12-01 13:01:22.215456
2158  2023-12-01 13:01:22.247403
2159  2023-12-01 13:01:22.293249
2160  2023-12-01 13:01:22.341146
2161  2023-12-01 13:01:22.373061
2162  2023-12-01 13:01:22.418944
2163  2023-12-01 13:01:22.466782
2164  2023-12-01 13:01:22.498697
2165  2023-12-01 13:01:22.546568
2166  2023-12-01 13:01:22.578489
2167  2023-12-01 13:01:22.626392
2168  2023-12-01 13:01:22.672264
2169  2023-12-01 13:01:22.705181
2170  2023-12-01 13:01:22.753023
2171  2023-12-01 13:01:22.800945
2172  2023-12-01 13:01:22.832852
2173  2023-12-01 13:01:22.880726
2174  2023-12-01 13:01:22.912590
2175  2023-12-01 13:01:22.957503
2176  2023-12-01 13:01:23.004348
2177  2023-12-01 13:01:23.035305
2178  2023-12-01 13:01:23.083164
2179  2023-12-01 13:01:23.131035
2180  2023-12-01 13:01:23.162950
2181  2023-12-01 13:01:23.210793
2182  2023-12-01 13:01:23.257697
2183  2023-12-01 13:01:23.288583
2184  2023-12-01 13:01:23.336461
2185  2023-12-01 13:01:23.368375
2186  2023-12-01 13:01:23.416246
2187  2023-12-01 13:01:23.464199
2188  2023-12-01 13:01:23.496079
2189  2023-12-01 13:01:23.543991
2190  2023-12-01 13:01:23.590835
2191  2023-12-01 13:01:23.621776
2192  2023-12-01 13:01:23.669647
2193  2023-12-01 13:01:23.716523
2194  2023-12-01 13:01:23.747411
2195  2023-12-01 13:01:23.795281
2196  2023-12-01 13:01:23.828192
2197  2023-12-01 13:01:23.875097
2198  2023-12-01 13:01:23.922972
2199  2023-12-01 13:01:23.954858
2200  2023-12-01 13:01:24.002726
2201  2023-12-01 13:01:24.049604
2202  2023-12-01 13:01:24.080548
2203  2023-12-01 13:01:24.128389
2204  2023-12-01 13:01:24.160338
2205  2023-12-01 13:01:24.208175
2206  2023-12-01 13:01:24.256171
2207  2023-12-01 13:01:24.288077
2208  2023-12-01 13:01:24.335958
2209  2023-12-01 13:01:24.383830
2210  2023-12-01 13:01:24.415747
2211  2023-12-01 13:01:24.460589
2212  2023-12-01 13:01:24.507496
2213  2023-12-01 13:01:24.539374
2214  2023-12-01 13:01:24.587246
2215  2023-12-01 13:01:24.619199
2216  2023-12-01 13:01:24.665083
2217  2023-12-01 13:01:24.712944
2218  2023-12-01 13:01:24.744870
2219  2023-12-01 13:01:24.792733
2220  2023-12-01 13:01:24.840615
2221  2023-12-01 13:01:24.872519
2222  2023-12-01 13:01:24.919395
2223  2023-12-01 13:01:24.966238
2224  2023-12-01 13:01:24.998180
2225  2023-12-01 13:01:25.046070
2226  2023-12-01 13:01:25.077981
2227  2023-12-01 13:01:25.124809
2228  2023-12-01 13:01:25.171684
2229  2023-12-01 13:01:25.203600
2230  2023-12-01 13:01:25.250475
2231  2023-12-01 13:01:25.297390
2232  2023-12-01 13:01:25.329450
2233  2023-12-01 13:01:25.377135
2234  2023-12-01 13:01:25.425007
2235  2023-12-01 13:01:25.456935
2236  2023-12-01 13:01:25.504834
2237  2023-12-01 13:01:25.536747
2238  2023-12-01 13:01:25.584624
2239  2023-12-01 13:01:25.633481
2240  2023-12-01 13:01:25.663420
2241  2023-12-01 13:01:25.711246
2242  2023-12-01 13:01:25.757158
2243  2023-12-01 13:01:25.789069
2244  2023-12-01 13:01:25.836135
2245  2023-12-01 13:01:25.882826
2246  2023-12-01 13:01:25.914733
2247  2023-12-01 13:01:25.962648
2248  2023-12-01 13:01:25.994562
2249  2023-12-01 13:01:26.042451
2250  2023-12-01 13:01:26.090311
2251  2023-12-01 13:01:26.122226
2252  2023-12-01 13:01:26.170246
2253  2023-12-01 13:01:26.201979
2254  2023-12-01 13:01:26.249882
2255  2023-12-01 13:01:26.297722
2256  2023-12-01 13:01:26.329641
2257  2023-12-01 13:01:26.377556
2258  2023-12-01 13:01:26.424415
2259  2023-12-01 13:01:26.455332
2260  2023-12-01 13:01:26.501180
2261  2023-12-01 13:01:26.549082
2262  2023-12-01 13:01:26.580969
2263  2023-12-01 13:01:26.627841
2264  2023-12-01 13:01:26.674720
2265  2023-12-01 13:01:26.704636
2266  2023-12-01 13:01:26.752512
2267  2023-12-01 13:01:26.800427
2268  2023-12-01 13:01:26.832343
2269  2023-12-01 13:01:26.880216
2270  2023-12-01 13:01:26.911084
2271  2023-12-01 13:01:26.958955
2272  2023-12-01 13:01:27.006859
2273  2023-12-01 13:01:27.038793
2274  2023-12-01 13:01:27.086661
2275  2023-12-01 13:01:27.134533
2276  2023-12-01 13:01:27.166453
2277  2023-12-01 13:01:27.213400
2278  2023-12-01 13:01:27.245190
2279  2023-12-01 13:01:27.294059
2280  2023-12-01 13:01:27.339937
2281  2023-12-01 13:01:27.371895
2282  2023-12-01 13:01:27.419755
2283  2023-12-01 13:01:27.466599
2284  2023-12-01 13:01:27.498513
2285  2023-12-01 13:01:27.544438
2286  2023-12-01 13:01:27.591271
2287  2023-12-01 13:01:27.623211
2288  2023-12-01 13:01:27.671052
2289  2023-12-01 13:01:27.702967
2290  2023-12-01 13:01:27.750879
2291  2023-12-01 13:01:27.798742
2292  2023-12-01 13:01:27.831666
2293  2023-12-01 13:01:27.878725
2294  2023-12-01 13:01:27.925373
2295  2023-12-01 13:01:27.957290
2296  2023-12-01 13:01:28.003168
2297  2023-12-01 13:01:28.049041
2298  2023-12-01 13:01:28.080960
2299  2023-12-01 13:01:28.128828
2300  2023-12-01 13:01:28.160769
2301  2023-12-01 13:01:28.208646
2302  2023-12-01 13:01:28.256530
2303  2023-12-01 13:01:28.288401
2304  2023-12-01 13:01:28.335307
2305  2023-12-01 13:01:28.382181
2306  2023-12-01 13:01:28.414066
2307  2023-12-01 13:01:28.461938
2308  2023-12-01 13:01:28.509810
2309  2023-12-01 13:01:28.541773
2310  2023-12-01 13:01:28.586634
2311  2023-12-01 13:01:28.632486
2312  2023-12-01 13:01:28.663433
2313  2023-12-01 13:01:28.711271
2314  2023-12-01 13:01:28.758186
2315  2023-12-01 13:01:28.789094
2316  2023-12-01 13:01:28.836939
2317  2023-12-01 13:01:28.868857
2318  2023-12-01 13:01:28.916722
2319  2023-12-01 13:01:28.962598
2320  2023-12-01 13:01:28.994514
2321  2023-12-01 13:01:29.042543
2322  2023-12-01 13:01:29.090257
2323  2023-12-01 13:01:29.121179
2324  2023-12-01 13:01:29.168078
2325  2023-12-01 13:01:29.214927
2326  2023-12-01 13:01:29.245846
2327  2023-12-01 13:01:29.293757
2328  2023-12-01 13:01:29.341586
2329  2023-12-01 13:01:29.371509
2330  2023-12-01 13:01:29.418409
2331  2023-12-01 13:01:29.466285
2332  2023-12-01 13:01:29.498197
2333  2023-12-01 13:01:29.546039
2334  2023-12-01 13:01:29.578005
2335  2023-12-01 13:01:29.624859
2336  2023-12-01 13:01:29.672704
2337  2023-12-01 13:01:29.704662
2338  2023-12-01 13:01:29.752559
2339  2023-12-01 13:01:29.800433
2340  2023-12-01 13:01:29.832349
2341  2023-12-01 13:01:29.880227
2342  2023-12-01 13:01:29.912112
2343  2023-12-01 13:01:29.960010
2344  2023-12-01 13:01:30.007846
2345  2023-12-01 13:01:30.039797
2346  2023-12-01 13:01:30.085673
2347  2023-12-01 13:01:30.133550
2348  2023-12-01 13:01:30.165428
2349  2023-12-01 13:01:30.213334
2350  2023-12-01 13:01:30.245249
2351  2023-12-01 13:01:30.293120
2352  2023-12-01 13:01:30.341004
2353  2023-12-01 13:01:30.372907
2354  2023-12-01 13:01:30.420781
2355  2023-12-01 13:01:30.452695
2356  2023-12-01 13:01:30.500564
2357  2023-12-01 13:01:30.547438
2358  2023-12-01 13:01:30.578352
2359  2023-12-01 13:01:30.625610
2360  2023-12-01 13:01:30.673514
2361  2023-12-01 13:01:30.705442
2362  2023-12-01 13:01:30.753270
2363  2023-12-01 13:01:30.799146
2364  2023-12-01 13:01:30.831062
2365  2023-12-01 13:01:30.876939
2366  2023-12-01 13:01:30.924809
2367  2023-12-01 13:01:30.956922
2368  2023-12-01 13:01:31.004642
2369  2023-12-01 13:01:31.036516
2370  2023-12-01 13:01:31.084414
2371  2023-12-01 13:01:31.130264
2372  2023-12-01 13:01:31.162175
2373  2023-12-01 13:01:31.210048
2374  2023-12-01 13:01:31.257923
2375  2023-12-01 13:01:31.289863
2376  2023-12-01 13:01:31.337707
2377  2023-12-01 13:01:31.369622
2378  2023-12-01 13:01:31.417562
2379  2023-12-01 13:01:31.465436
2380  2023-12-01 13:01:31.497350
2381  2023-12-01 13:01:31.545217
2382  2023-12-01 13:01:31.577156
2383  2023-12-01 13:01:31.625028
2384  2023-12-01 13:01:31.672900
2385  2023-12-01 13:01:31.704814
2386  2023-12-01 13:01:31.750692
2387  2023-12-01 13:01:31.798025
2388  2023-12-01 13:01:31.829968
2389  2023-12-01 13:01:31.877849
2390  2023-12-01 13:01:31.925685
2391  2023-12-01 13:01:31.955638
2392  2023-12-01 13:01:32.003477
2393  2023-12-01 13:01:32.035398
2394  2023-12-01 13:01:32.083306
2395  2023-12-01 13:01:32.130139
2396  2023-12-01 13:01:32.161096
2397  2023-12-01 13:01:32.208966
2398  2023-12-01 13:01:32.255802
2399  2023-12-01 13:01:32.287748
2400  2023-12-01 13:01:32.335733
2401  2023-12-01 13:01:32.383493
2402  2023-12-01 13:01:32.415375
2403  2023-12-01 13:01:32.463252
2404  2023-12-01 13:01:32.494168
2405  2023-12-01 13:01:32.540043
2406  2023-12-01 13:01:32.585949
2407  2023-12-01 13:01:32.632794
2408  2023-12-01 13:01:32.664712
2409  2023-12-01 13:01:32.712612
2410  2023-12-01 13:01:32.743498
2411  2023-12-01 13:01:32.789407
2412  2023-12-01 13:01:32.837280
2413  2023-12-01 13:01:32.883156
2414  2023-12-01 13:01:32.915068
2415  2023-12-01 13:01:32.960918
2416  2023-12-01 13:01:33.008940
2417  2023-12-01 13:01:33.040735
2418  2023-12-01 13:01:33.088605
2419  2023-12-01 13:01:33.120523
2420  2023-12-01 13:01:33.167396
2421  2023-12-01 13:01:33.215240
2422  2023-12-01 13:01:33.247183
2423  2023-12-01 13:01:33.295063
2424  2023-12-01 13:01:33.326938
2425  2023-12-01 13:01:33.374840
2426  2023-12-01 13:01:33.421686
2427  2023-12-01 13:01:33.453601
2428  2023-12-01 13:01:33.501513
2429  2023-12-01 13:01:33.550381
2430  2023-12-01 13:01:33.581262
2431  2023-12-01 13:01:33.629144
2432  2023-12-01 13:01:33.661046
2433  2023-12-01 13:01:33.709954
2434  2023-12-01 13:01:33.755792
2435  2023-12-01 13:01:33.787707
2436  2023-12-01 13:01:33.835579
2437  2023-12-01 13:01:33.883451
2438  2023-12-01 13:01:33.915408
2439  2023-12-01 13:01:33.963253
2440  2023-12-01 13:01:33.995193
2441  2023-12-01 13:01:34.044067
2442  2023-12-01 13:01:34.090897
2443  2023-12-01 13:01:34.122812
2444  2023-12-01 13:01:34.171712
2445  2023-12-01 13:01:34.203595
2446  2023-12-01 13:01:34.248509
2447  2023-12-01 13:01:34.296347
2448  2023-12-01 13:01:34.328262
2449  2023-12-01 13:01:34.376134
2450  2023-12-01 13:01:34.424007
2451  2023-12-01 13:01:34.455924
2452  2023-12-01 13:01:34.503839
2453  2023-12-01 13:01:34.535707
2454  2023-12-01 13:01:34.581616
2455  2023-12-01 13:01:34.629469
2456  2023-12-01 13:01:34.661374
2457  2023-12-01 13:01:34.709276
2458  2023-12-01 13:01:34.756149
2459  2023-12-01 13:01:34.788066
2460  2023-12-01 13:01:34.835905
2461  2023-12-01 13:01:34.883777
2462  2023-12-01 13:01:34.915723
2463  2023-12-01 13:01:34.961601
2464  2023-12-01 13:01:34.993522
2465  2023-12-01 13:01:35.041389
2466  2023-12-01 13:01:35.089231
2467  2023-12-01 13:01:35.121174
2468  2023-12-01 13:01:35.169045
2469  2023-12-01 13:01:35.216885
2470  2023-12-01 13:01:35.247842
2471  2023-12-01 13:01:35.293713
2472  2023-12-01 13:01:35.341563
2473  2023-12-01 13:01:35.371473
2474  2023-12-01 13:01:35.419345
2475  2023-12-01 13:01:35.465223
2476  2023-12-01 13:01:35.496173
2477  2023-12-01 13:01:35.543050
2478  2023-12-01 13:01:35.590923
2479  2023-12-01 13:01:35.622831
2480  2023-12-01 13:01:35.670673
2481  2023-12-01 13:01:35.702588
2482  2023-12-01 13:01:35.750489
2483  2023-12-01 13:01:35.798362
2484  2023-12-01 13:01:35.830253
2485  2023-12-01 13:01:35.878252
2486  2023-12-01 13:01:35.910182
2487  2023-12-01 13:01:35.957049
2488  2023-12-01 13:01:36.003914
2489  2023-12-01 13:01:36.035840
2490  2023-12-01 13:01:36.083724
2491  2023-12-01 13:01:36.130604
2492  2023-12-01 13:01:36.162459
2493  2023-12-01 13:01:36.209413
2494  2023-12-01 13:01:36.256257
2495  2023-12-01 13:01:36.287205
2496  2023-12-01 13:01:36.334046
2497  2023-12-01 13:01:36.381952
2498  2023-12-01 13:01:36.413867
2499  2023-12-01 13:01:36.460709
2500  2023-12-01 13:01:36.507584
2501  2023-12-01 13:01:36.538500
2502  2023-12-01 13:01:36.584411
2503  2023-12-01 13:01:36.631295
2504  2023-12-01 13:01:36.663201
2505  2023-12-01 13:01:36.712072
2506  2023-12-01 13:01:36.757947
2507  2023-12-01 13:01:36.788862
2508  2023-12-01 13:01:36.836739
2509  2023-12-01 13:01:36.868653
2510  2023-12-01 13:01:36.916522
2511  2023-12-01 13:01:36.964396
2512  2023-12-01 13:01:36.996309
2513  2023-12-01 13:01:37.044181
2514  2023-12-01 13:01:37.092050
2515  2023-12-01 13:01:37.123936
2516  2023-12-01 13:01:37.170842
2517  2023-12-01 13:01:37.201759
2518  2023-12-01 13:01:37.248632
2519  2023-12-01 13:01:37.295512
2520  2023-12-01 13:01:37.327425
2521  2023-12-01 13:01:37.375264
2522  2023-12-01 13:01:37.423135
2523  2023-12-01 13:01:37.455050
2524  2023-12-01 13:01:37.502958
2525  2023-12-01 13:01:37.549826
2526  2023-12-01 13:01:37.581712
2527  2023-12-01 13:01:37.629613
2528  2023-12-01 13:01:37.661532
2529  2023-12-01 13:01:37.709374
2530  2023-12-01 13:01:37.757274
2531  2023-12-01 13:01:37.789250
2532  2023-12-01 13:01:37.837152
2533  2023-12-01 13:01:37.869073
2534  2023-12-01 13:01:37.916935
2535  2023-12-01 13:01:37.964777
2536  2023-12-01 13:01:37.996739
2537  2023-12-01 13:01:38.044564
2538  2023-12-01 13:01:38.091484
2539  2023-12-01 13:01:38.123357
2540  2023-12-01 13:01:38.171274
2541  2023-12-01 13:01:38.203171
2542  2023-12-01 13:01:38.252014
2543  2023-12-01 13:01:38.298889
2544  2023-12-01 13:01:38.330830
2545  2023-12-01 13:01:38.378677
2546  2023-12-01 13:01:38.425606
2547  2023-12-01 13:01:38.455499
2548  2023-12-01 13:01:38.502371
2549  2023-12-01 13:01:38.549248
2550  2023-12-01 13:01:38.581158
2551  2023-12-01 13:01:38.629005
2552  2023-12-01 13:01:38.660920
2553  2023-12-01 13:01:38.708817
2554  2023-12-01 13:01:38.756661
2555  2023-12-01 13:01:38.788168
2556  2023-12-01 13:01:38.836001
2557  2023-12-01 13:01:38.882905
2558  2023-12-01 13:01:38.913826
2559  2023-12-01 13:01:38.960711
2560  2023-12-01 13:01:39.007581
2561  2023-12-01 13:01:39.038491
2562  2023-12-01 13:01:39.085335
2563  2023-12-01 13:01:39.133211
2564  2023-12-01 13:01:39.165164
2565  2023-12-01 13:01:39.212995
2566  2023-12-01 13:01:39.244922
2567  2023-12-01 13:01:39.290827
2568  2023-12-01 13:01:39.339784
2569  2023-12-01 13:01:39.373689
2570  2023-12-01 13:01:39.417575
2571  2023-12-01 13:01:39.464450
2572  2023-12-01 13:01:39.496365
2573  2023-12-01 13:01:39.545231
2574  2023-12-01 13:01:39.591137
2575  2023-12-01 13:01:39.622026
2576  2023-12-01 13:01:39.669896
2577  2023-12-01 13:01:39.714998
2578  2023-12-01 13:01:39.745888
2579  2023-12-01 13:01:39.793787
2580  2023-12-01 13:01:39.841660
2581  2023-12-01 13:01:39.872751
2582  2023-12-01 13:01:39.920422
2583  2023-12-01 13:01:39.953335
2584  2023-12-01 13:01:40.000206
2585  2023-12-01 13:01:40.047083
2586  2023-12-01 13:01:40.077997
2587  2023-12-01 13:01:40.125909
2588  2023-12-01 13:01:40.173769
2589  2023-12-01 13:01:40.205846
2590  2023-12-01 13:01:40.253560
2591  2023-12-01 13:01:40.285442
2592  2023-12-01 13:01:40.333353
2593  2023-12-01 13:01:40.381219
2594  2023-12-01 13:01:40.413134
2595  2023-12-01 13:01:40.460012
2596  2023-12-01 13:01:40.506891
2597  2023-12-01 13:01:40.538905
2598  2023-12-01 13:01:40.586778
2599  2023-12-01 13:01:40.618683
2600  2023-12-01 13:01:40.665528
2601  2023-12-01 13:01:40.714427
2602  2023-12-01 13:01:40.745331
2603  2023-12-01 13:01:40.794225
2604  2023-12-01 13:01:40.840100
2605  2023-12-01 13:01:40.871971
2606  2023-12-01 13:01:40.919889
2607  2023-12-01 13:01:40.964767
2608  2023-12-01 13:01:40.996642
2609  2023-12-01 13:01:41.044539
2610  2023-12-01 13:01:41.091385
2611  2023-12-01 13:01:41.123307
2612  2023-12-01 13:01:41.169210
2613  2023-12-01 13:01:41.215055
2614  2023-12-01 13:01:41.246970
2615  2023-12-01 13:01:41.292889
2616  2023-12-01 13:01:41.340722
2617  2023-12-01 13:01:41.372681
2618  2023-12-01 13:01:41.420506
2619  2023-12-01 13:01:41.452419
2620  2023-12-01 13:01:41.500331
2621  2023-12-01 13:01:41.548198
2622  2023-12-01 13:01:41.580120
2623  2023-12-01 13:01:41.627986
2624  2023-12-01 13:01:41.674821
2625  2023-12-01 13:01:41.705784
2626  2023-12-01 13:01:41.753610
2627  2023-12-01 13:01:41.785566
2628  2023-12-01 13:01:41.833397
2629  2023-12-01 13:01:41.879275
2630  2023-12-01 13:01:41.926151
2631  2023-12-01 13:01:41.957071
2632  2023-12-01 13:01:42.004978
2633  2023-12-01 13:01:42.036855
2634  2023-12-01 13:01:42.082763
2635  2023-12-01 13:01:42.130603
2636  2023-12-01 13:01:42.161520
2637  2023-12-01 13:01:42.208399
2638  2023-12-01 13:01:42.256268
2639  2023-12-01 13:01:42.288182
2640  2023-12-01 13:01:42.336085
2641  2023-12-01 13:01:42.382967
2642  2023-12-01 13:01:42.414844
2643  2023-12-01 13:01:42.460760
2644  2023-12-01 13:01:42.507600
2645  2023-12-01 13:01:42.538516
2646  2023-12-01 13:01:42.586390
2647  2023-12-01 13:01:42.633265
2648  2023-12-01 13:01:42.663222
2649  2023-12-01 13:01:42.711051
2650  2023-12-01 13:01:42.758955
2651  2023-12-01 13:01:42.790838
2652  2023-12-01 13:01:42.836839
2653  2023-12-01 13:01:42.883699
2654  2023-12-01 13:01:42.915586
2655  2023-12-01 13:01:42.963502
2656  2023-12-01 13:01:42.995487
2657  2023-12-01 13:01:43.043242
2658  2023-12-01 13:01:43.091113
2659  2023-12-01 13:01:43.120695
2660  2023-12-01 13:01:43.168379
2661  2023-12-01 13:01:43.214257
2662  2023-12-01 13:01:43.246172
2663  2023-12-01 13:01:43.292048
2664  2023-12-01 13:01:43.339920
2665  2023-12-01 13:01:43.371835
2666  2023-12-01 13:01:43.418710
2667  2023-12-01 13:01:43.465702
2668  2023-12-01 13:01:43.497499
2669  2023-12-01 13:01:43.543376
2670  2023-12-01 13:01:43.589261
2671  2023-12-01 13:01:43.619174
2672  2023-12-01 13:01:43.667046
2673  2023-12-01 13:01:43.712923
2674  2023-12-01 13:01:43.743840
2675  2023-12-01 13:01:43.790715
2676  2023-12-01 13:01:43.838587
2677  2023-12-01 13:01:43.870502
2678  2023-12-01 13:01:43.918374
2679  2023-12-01 13:01:43.966246
2680  2023-12-01 13:01:43.998161
2681  2023-12-01 13:01:44.046032
2682  2023-12-01 13:01:44.077953
2683  2023-12-01 13:01:44.125821
2684  2023-12-01 13:01:44.173691
2685  2023-12-01 13:01:44.205606
2686  2023-12-01 13:01:44.253478
2687  2023-12-01 13:01:44.299355
2688  2023-12-01 13:01:44.331270
2689  2023-12-01 13:01:44.379142
2690  2023-12-01 13:01:44.411057
2691  2023-12-01 13:01:44.459032
2692  2023-12-01 13:01:44.506801
2693  2023-12-01 13:01:44.538715
2694  2023-12-01 13:01:44.586587
2695  2023-12-01 13:01:44.618502
2696  2023-12-01 13:01:44.665377
2697  2023-12-01 13:01:44.712252
2698  2023-12-01 13:01:44.758581
2699  2023-12-01 13:01:44.790532
2700  2023-12-01 13:01:44.838400
2701  2023-12-01 13:01:44.870329
2702  2023-12-01 13:01:44.918235
2703  2023-12-01 13:01:44.966105
2704  2023-12-01 13:01:44.998020
2705  2023-12-01 13:01:45.045861
2706  2023-12-01 13:01:45.077805
2707  2023-12-01 13:01:45.126675
2708  2023-12-01 13:01:45.169530
2709  2023-12-01 13:01:45.216408
2710  2023-12-01 13:01:45.247322
2711  2023-12-01 13:01:45.295228
2712  2023-12-01 13:01:45.328137
2713  2023-12-01 13:01:45.374982
2714  2023-12-01 13:01:45.422897
2715  2023-12-01 13:01:45.454798
2716  2023-12-01 13:01:45.502669
2717  2023-12-01 13:01:45.549546
2718  2023-12-01 13:01:45.580463
2719  2023-12-01 13:01:45.628336
2720  2023-12-01 13:01:45.660318
2721  2023-12-01 13:01:45.708119
2722  2023-12-01 13:01:45.755994
2723  2023-12-01 13:01:45.787917
2724  2023-12-01 13:01:45.835778
2725  2023-12-01 13:01:45.883621
2726  2023-12-01 13:01:45.915572
2727  2023-12-01 13:01:45.963441
2728  2023-12-01 13:01:45.995355
2729  2023-12-01 13:01:46.043228
2730  2023-12-01 13:01:46.091097
2731  2023-12-01 13:01:46.122980
2732  2023-12-01 13:01:46.168889
2733  2023-12-01 13:01:46.216730
2734  2023-12-01 13:01:46.248678
2735  2023-12-01 13:01:46.296517
2736  2023-12-01 13:01:46.328432
2737  2023-12-01 13:01:46.376439
2738  2023-12-01 13:01:46.422221
2739  2023-12-01 13:01:46.453136
2740  2023-12-01 13:01:46.500970
2741  2023-12-01 13:01:46.545887
2742  2023-12-01 13:01:46.577766
2743  2023-12-01 13:01:46.625637
2744  2023-12-01 13:01:46.673539
2745  2023-12-01 13:01:46.705457
2746  2023-12-01 13:01:46.753297
2747  2023-12-01 13:01:46.799212
2748  2023-12-01 13:01:46.831088
2749  2023-12-01 13:01:46.878995
2750  2023-12-01 13:01:46.910907
2751  2023-12-01 13:01:46.958747
2752  2023-12-01 13:01:47.004624
2753  2023-12-01 13:01:47.036539
2754  2023-12-01 13:01:47.084447
2755  2023-12-01 13:01:47.132395
2756  2023-12-01 13:01:47.163335
2757  2023-12-01 13:01:47.211172
2758  2023-12-01 13:01:47.258077
2759  2023-12-01 13:01:47.288966
2760  2023-12-01 13:01:47.336837
2761  2023-12-01 13:01:47.368777
2762  2023-12-01 13:01:47.415627
2763  2023-12-01 13:01:47.463502
2764  2023-12-01 13:01:47.494420
2765  2023-12-01 13:01:47.543326
2766  2023-12-01 13:01:47.591212
2767  2023-12-01 13:01:47.623123
2768  2023-12-01 13:01:47.670988
2769  2023-12-01 13:01:47.702865
2770  2023-12-01 13:01:47.750735
2771  2023-12-01 13:01:47.796607
2772  2023-12-01 13:01:47.828526
2773  2023-12-01 13:01:47.876395
2774  2023-12-01 13:01:47.925264
2775  2023-12-01 13:01:47.955185
2776  2023-12-01 13:01:48.001061
2777  2023-12-01 13:01:48.048963
2778  2023-12-01 13:01:48.080876
2779  2023-12-01 13:01:48.128721
2780  2023-12-01 13:01:48.160683
2781  2023-12-01 13:01:48.208535
2782  2023-12-01 13:01:48.256379
2783  2023-12-01 13:01:48.288294
2784  2023-12-01 13:01:48.336168
2785  2023-12-01 13:01:48.383039
2786  2023-12-01 13:01:48.413956
2787  2023-12-01 13:01:48.461860
2788  2023-12-01 13:01:48.493745
2789  2023-12-01 13:01:48.541647
2790  2023-12-01 13:01:48.589528
2791  2023-12-01 13:01:48.621404
2792  2023-12-01 13:01:48.669309
2793  2023-12-01 13:01:48.716154
2794  2023-12-01 13:01:48.747067
2795  2023-12-01 13:01:48.794939
2796  2023-12-01 13:01:48.826882
2797  2023-12-01 13:01:48.874726
2798  2023-12-01 13:01:48.921603
2799  2023-12-01 13:01:48.953517
2800  2023-12-01 13:01:49.000422
2801  2023-12-01 13:01:49.048266
2802  2023-12-01 13:01:49.080182
2803  2023-12-01 13:01:49.128079
2804  2023-12-01 13:01:49.173928
2805  2023-12-01 13:01:49.205842
2806  2023-12-01 13:01:49.254712
2807  2023-12-01 13:01:49.285661
2808  2023-12-01 13:01:49.334538
2809  2023-12-01 13:01:49.382402
2810  2023-12-01 13:01:49.412303
2811  2023-12-01 13:01:49.460361
2812  2023-12-01 13:01:49.508067
2813  2023-12-01 13:01:49.539950
2814  2023-12-01 13:01:49.587822
2815  2023-12-01 13:01:49.619737
2816  2023-12-01 13:01:49.664617
2817  2023-12-01 13:01:49.711492
2818  2023-12-01 13:01:49.757382
2819  2023-12-01 13:01:49.788285
2820  2023-12-01 13:01:49.834162
2821  2023-12-01 13:01:49.882035
2822  2023-12-01 13:01:49.913970
2823  2023-12-01 13:01:49.960856
2824  2023-12-01 13:01:50.007700
2825  2023-12-01 13:01:50.040611
2826  2023-12-01 13:01:50.088483
2827  2023-12-01 13:01:50.120436
2828  2023-12-01 13:01:50.166307
2829  2023-12-01 13:01:50.214147
2830  2023-12-01 13:01:50.245095
2831  2023-12-01 13:01:50.293969
2832  2023-12-01 13:01:50.339812
2833  2023-12-01 13:01:50.371726
2834  2023-12-01 13:01:50.419598
2835  2023-12-01 13:01:50.468468
2836  2023-12-01 13:01:50.499384
2837  2023-12-01 13:01:50.546260
2838  2023-12-01 13:01:50.580167
2839  2023-12-01 13:01:50.625049
2840  2023-12-01 13:01:50.671958
2841  2023-12-01 13:01:50.703870
2842  2023-12-01 13:01:50.750717
2843  2023-12-01 13:01:50.797588
2844  2023-12-01 13:01:50.828537
2845  2023-12-01 13:01:50.875383
2846  2023-12-01 13:01:50.921257
2847  2023-12-01 13:01:50.952176
2848  2023-12-01 13:01:50.998081
2849  2023-12-01 13:01:51.045984
2850  2023-12-01 13:01:51.077844
2851  2023-12-01 13:01:51.125741
2852  2023-12-01 13:01:51.173711
2853  2023-12-01 13:01:51.205529
2854  2023-12-01 13:01:51.253403
2855  2023-12-01 13:01:51.285319
2856  2023-12-01 13:01:51.331232
2857  2023-12-01 13:01:51.379143
2858  2023-12-01 13:01:51.411052
2859  2023-12-01 13:01:51.458888
2860  2023-12-01 13:01:51.506798
2861  2023-12-01 13:01:51.539672
2862  2023-12-01 13:01:51.587586
2863  2023-12-01 13:01:51.632460
2864  2023-12-01 13:01:51.664340
2865  2023-12-01 13:01:51.712244
2866  2023-12-01 13:01:51.744157
2867  2023-12-01 13:01:51.791999
2868  2023-12-01 13:01:51.838889
2869  2023-12-01 13:01:51.869791
2870  2023-12-01 13:01:51.917663
2871  2023-12-01 13:01:51.965535
2872  2023-12-01 13:01:51.997449
2873  2023-12-01 13:01:52.045352
2874  2023-12-01 13:01:52.077236
2875  2023-12-01 13:01:52.125141
2876  2023-12-01 13:01:52.172979
2877  2023-12-01 13:01:52.202904
2878  2023-12-01 13:01:52.248811
2879  2023-12-01 13:01:52.296653
2880  2023-12-01 13:01:52.328569
2881  2023-12-01 13:01:52.374445
2882  2023-12-01 13:01:52.422354
2883  2023-12-01 13:01:52.454232
2884  2023-12-01 13:01:52.501102
2885  2023-12-01 13:01:52.549014
2886  2023-12-01 13:01:52.580940
2887  2023-12-01 13:01:52.628793
2888  2023-12-01 13:01:52.674642
2889  2023-12-01 13:01:52.706587
2890  2023-12-01 13:01:52.754458
2891  2023-12-01 13:01:52.786382
2892  2023-12-01 13:01:52.834255
2893  2023-12-01 13:01:52.880093
2894  2023-12-01 13:01:52.912004
2895  2023-12-01 13:01:52.957915
2896  2023-12-01 13:01:53.003796
2897  2023-12-01 13:01:53.035706
2898  2023-12-01 13:01:53.083576
2899  2023-12-01 13:01:53.131449
2900  2023-12-01 13:01:53.163367
2901  2023-12-01 13:01:53.211205
2902  2023-12-01 13:01:53.258086
2903  2023-12-01 13:01:53.289035
2904  2023-12-01 13:01:53.336898
2905  2023-12-01 13:01:53.368787
2906  2023-12-01 13:01:53.416660
2907  2023-12-01 13:01:53.464528
2908  2023-12-01 13:01:53.495448
2909  2023-12-01 13:01:53.542320
2910  2023-12-01 13:01:53.590223
2911  2023-12-01 13:01:53.622135
2912  2023-12-01 13:01:53.669982
2913  2023-12-01 13:01:53.701893
2914  2023-12-01 13:01:53.749768
2915  2023-12-01 13:01:53.796644
2916  2023-12-01 13:01:53.827599
2917  2023-12-01 13:01:53.875516
2918  2023-12-01 13:01:53.925346
2919  2023-12-01 13:01:53.954264
2920  2023-12-01 13:01:54.001180
2921  2023-12-01 13:01:54.048044
2922  2023-12-01 13:01:54.079959
2923  2023-12-01 13:01:54.128853
2924  2023-12-01 13:01:54.174773
2925  2023-12-01 13:01:54.205677
2926  2023-12-01 13:01:54.253520
2927  2023-12-01 13:01:54.285434
2928  2023-12-01 13:01:54.333337
2929  2023-12-01 13:01:54.380179
2930  2023-12-01 13:01:54.412123
2931  2023-12-01 13:01:54.459996
2932  2023-12-01 13:01:54.507843
2933  2023-12-01 13:01:54.539783
2934  2023-12-01 13:01:54.587626
2935  2023-12-01 13:01:54.619539
2936  2023-12-01 13:01:54.667444
2937  2023-12-01 13:01:54.715283
2938  2023-12-01 13:01:54.746217
2939  2023-12-01 13:01:54.792819
2940  2023-12-01 13:01:54.840653
2941  2023-12-01 13:01:54.872601
2942  2023-12-01 13:01:54.920441
2943  2023-12-01 13:01:54.966317
2944  2023-12-01 13:01:54.998246
2945  2023-12-01 13:01:55.046105
2946  2023-12-01 13:01:55.078019
2947  2023-12-01 13:01:55.124894
2948  2023-12-01 13:01:55.172794
2949  2023-12-01 13:01:55.204685
2950  2023-12-01 13:01:55.252581
2951  2023-12-01 13:01:55.300423
2952  2023-12-01 13:01:55.332339
2953  2023-12-01 13:01:55.380241
2954  2023-12-01 13:01:55.412126
2955  2023-12-01 13:01:55.458002
2956  2023-12-01 13:01:55.505875
2957  2023-12-01 13:01:55.539784
2958  2023-12-01 13:01:55.584665
2959  2023-12-01 13:01:55.633565
2960  2023-12-01 13:01:55.661493
2961  2023-12-01 13:01:55.709370
2962  2023-12-01 13:01:55.757233
2963  2023-12-01 13:01:55.787123
2964  2023-12-01 13:01:55.834104
2965  2023-12-01 13:01:55.880990
2966  2023-12-01 13:01:55.912866
2967  2023-12-01 13:01:55.960764
2968  2023-12-01 13:01:56.008649
2969  2023-12-01 13:01:56.040553
2970  2023-12-01 13:01:56.088437
2971  2023-12-01 13:01:56.120340
2972  2023-12-01 13:01:56.167212
2973  2023-12-01 13:01:56.215091
2974  2023-12-01 13:01:56.246969
2975  2023-12-01 13:01:56.294841
2976  2023-12-01 13:01:56.326784
2977  2023-12-01 13:01:56.374628
2978  2023-12-01 13:01:56.422505
2979  2023-12-01 13:01:56.454415
2980  2023-12-01 13:01:56.502291
2981  2023-12-01 13:01:56.549196
2982  2023-12-01 13:01:56.580113
2983  2023-12-01 13:01:56.627950
2984  2023-12-01 13:01:56.674874
2985  2023-12-01 13:01:56.704822
2986  2023-12-01 13:01:56.753614
2987  2023-12-01 13:01:56.800520
2988  2023-12-01 13:01:56.830413
2989  2023-12-01 13:01:56.876290
2990  2023-12-01 13:01:56.922164
2991  2023-12-01 13:01:56.954078
2992  2023-12-01 13:01:56.999985
2993  2023-12-01 13:01:57.047872
2994  2023-12-01 13:01:57.078745
2995  2023-12-01 13:01:57.125650
2996  2023-12-01 13:01:57.173531
2997  2023-12-01 13:01:57.204409
2998  2023-12-01 13:01:57.252282
2999  2023-12-01 13:01:57.300155
3000  2023-12-01 13:01:57.330152
3001  2023-12-01 13:01:57.376032
3002  2023-12-01 13:01:57.423904
3003  2023-12-01 13:01:57.456816
3004  2023-12-01 13:01:57.504688
3005  2023-12-01 13:01:57.535606
3006  2023-12-01 13:01:57.584475
3007  2023-12-01 13:01:57.629388
3008  2023-12-01 13:01:57.661301
3009  2023-12-01 13:01:57.708258
3010  2023-12-01 13:01:57.755131
3011  2023-12-01 13:01:57.787048
3012  2023-12-01 13:01:57.834918
3013  2023-12-01 13:01:57.882792
3014  2023-12-01 13:01:57.914707
3015  2023-12-01 13:01:57.962577
3016  2023-12-01 13:01:57.994501
3017  2023-12-01 13:01:58.042369
3018  2023-12-01 13:01:58.090207
3019  2023-12-01 13:01:58.122121
3020  2023-12-01 13:01:58.169025
3021  2023-12-01 13:01:58.215910
3022  2023-12-01 13:01:58.245826
3023  2023-12-01 13:01:58.293661
3024  2023-12-01 13:01:58.341563
3025  2023-12-01 13:01:58.373487
3026  2023-12-01 13:01:58.421359
3027  2023-12-01 13:01:58.453267
3028  2023-12-01 13:01:58.500114
3029  2023-12-01 13:01:58.548014
3030  2023-12-01 13:01:58.579897
3031  2023-12-01 13:01:58.626772
3032  2023-12-01 13:01:58.673650
3033  2023-12-01 13:01:58.704568
3034  2023-12-01 13:01:58.751466
3035  2023-12-01 13:01:58.799312
3036  2023-12-01 13:01:58.831256
3037  2023-12-01 13:01:58.880095
3038  2023-12-01 13:01:58.912046
3039  2023-12-01 13:01:58.959922
3040  2023-12-01 13:01:59.007797
3041  2023-12-01 13:01:59.039668
3042  2023-12-01 13:01:59.084580
3043  2023-12-01 13:01:59.132421
3044  2023-12-01 13:01:59.164367
3045  2023-12-01 13:01:59.212220
3046  2023-12-01 13:01:59.244155
3047  2023-12-01 13:01:59.292148
3048  2023-12-01 13:01:59.339898
3049  2023-12-01 13:01:59.371811
3050  2023-12-01 13:01:59.419683
3051  2023-12-01 13:01:59.451580
3052  2023-12-01 13:01:59.499471
3053  2023-12-01 13:01:59.545350
3054  2023-12-01 13:01:59.577270
3055  2023-12-01 13:01:59.624144
3056  2023-12-01 13:01:59.670980
3057  2023-12-01 13:01:59.701898
3058  2023-12-01 13:01:59.749864
3059  2023-12-01 13:01:59.797803
3060  2023-12-01 13:01:59.829714
3061  2023-12-01 13:01:59.877587
3062  2023-12-01 13:01:59.926427
3063  2023-12-01 13:01:59.957383
3064  2023-12-01 13:02:00.005215
3065  2023-12-01 13:02:00.037131
3066  2023-12-01 13:02:00.085032
3067  2023-12-01 13:02:00.132955
3068  2023-12-01 13:02:00.164928
3069  2023-12-01 13:02:00.212738
3070  2023-12-01 13:02:00.244809
3071  2023-12-01 13:02:00.292525
3072  2023-12-01 13:02:00.340440
3073  2023-12-01 13:02:00.372341
3074  2023-12-01 13:02:00.418221
3075  2023-12-01 13:02:00.466061
3076  2023-12-01 13:02:00.497979
3077  2023-12-01 13:02:00.545928
3078  2023-12-01 13:02:00.577847
3079  2023-12-01 13:02:00.626720
3080  2023-12-01 13:02:00.672597
3081  2023-12-01 13:02:00.704476
3082  2023-12-01 13:02:00.750974
3083  2023-12-01 13:02:00.798850
3084  2023-12-01 13:02:00.830766
3085  2023-12-01 13:02:00.875646
3086  2023-12-01 13:02:00.923542
3087  2023-12-01 13:02:00.955482
3088  2023-12-01 13:02:01.003303
3089  2023-12-01 13:02:01.049354
3090  2023-12-01 13:02:01.081137
3091  2023-12-01 13:02:01.129115
3092  2023-12-01 13:02:01.160999
3093  2023-12-01 13:02:01.208909
3094  2023-12-01 13:02:01.256374
3095  2023-12-01 13:02:01.289291
3096  2023-12-01 13:02:01.336165
3097  2023-12-01 13:02:01.381046
3098  2023-12-01 13:02:01.412036
3099  2023-12-01 13:02:01.459908
3100  2023-12-01 13:02:01.507775
3101  2023-12-01 13:02:01.539722
3102  2023-12-01 13:02:01.587593
3103  2023-12-01 13:02:01.619506
3104  2023-12-01 13:02:01.666356
3105  2023-12-01 13:02:01.714228
3106  2023-12-01 13:02:01.744148
3107  2023-12-01 13:02:01.792017
3108  2023-12-01 13:02:01.839892
3109  2023-12-01 13:02:01.871803
3110  2023-12-01 13:02:01.919789
3111  2023-12-01 13:02:01.965556
3112  2023-12-01 13:02:01.997506
3113  2023-12-01 13:02:02.043376
3114  2023-12-01 13:02:02.091223
3115  2023-12-01 13:02:02.123169
3116  2023-12-01 13:02:02.171032
3117  2023-12-01 13:02:02.202921
3118  2023-12-01 13:02:02.250791
3119  2023-12-01 13:02:02.298665
3120  2023-12-01 13:02:02.330576
3121  2023-12-01 13:02:02.378447
3122  2023-12-01 13:02:02.410364
3123  2023-12-01 13:02:02.456240
3124  2023-12-01 13:02:02.503154
3125  2023-12-01 13:02:02.535029
3126  2023-12-01 13:02:02.582940
3127  2023-12-01 13:02:02.630804
3128  2023-12-01 13:02:02.662692
3129  2023-12-01 13:02:02.710561
3130  2023-12-01 13:02:02.758473
3131  2023-12-01 13:02:02.790378
3132  2023-12-01 13:02:02.837253
3133  2023-12-01 13:02:02.883103
3134  2023-12-01 13:02:02.914058
3135  2023-12-01 13:02:02.961889
3136  2023-12-01 13:02:03.007809
3137  2023-12-01 13:02:03.039722
3138  2023-12-01 13:02:03.087555
3139  2023-12-01 13:02:03.133472
3140  2023-12-01 13:02:03.165388
3141  2023-12-01 13:02:03.213250
3142  2023-12-01 13:02:03.245154
3143  2023-12-01 13:02:03.293044
3144  2023-12-01 13:02:03.341929
3145  2023-12-01 13:02:03.373787
3146  2023-12-01 13:02:03.418667
3147  2023-12-01 13:02:03.465546
3148  2023-12-01 13:02:03.496494
3149  2023-12-01 13:02:03.544337
3150  2023-12-01 13:02:03.590243
3151  2023-12-01 13:02:03.622154
3152  2023-12-01 13:02:03.670039
3153  2023-12-01 13:02:03.716908
3154  2023-12-01 13:02:03.748825
3155  2023-12-01 13:02:03.796695
3156  2023-12-01 13:02:03.827575
3157  2023-12-01 13:02:03.874480
3158  2023-12-01 13:02:03.921323
3159  2023-12-01 13:02:03.952246
3160  2023-12-01 13:02:04.000113
3161  2023-12-01 13:02:04.048022
3162  2023-12-01 13:02:04.079939
3163  2023-12-01 13:02:04.127773
3164  2023-12-01 13:02:04.174647
3165  2023-12-01 13:02:04.206598
3166  2023-12-01 13:02:04.254440
3167  2023-12-01 13:02:04.301354
3168  2023-12-01 13:02:04.333264
3169  2023-12-01 13:02:04.381125
3170  2023-12-01 13:02:04.413049
3171  2023-12-01 13:02:04.460924
3172  2023-12-01 13:02:04.508753
3173  2023-12-01 13:02:04.538672
3174  2023-12-01 13:02:04.585547
3175  2023-12-01 13:02:04.633420
3176  2023-12-01 13:02:04.665367
3177  2023-12-01 13:02:04.713246
3178  2023-12-01 13:02:04.744162
3179  2023-12-01 13:02:04.791003
3180  2023-12-01 13:02:04.837916
3181  2023-12-01 13:02:04.869788
3182  2023-12-01 13:02:04.917689
3183  2023-12-01 13:02:04.965564
3184  2023-12-01 13:02:04.997480
3185  2023-12-01 13:02:05.045358
3186  2023-12-01 13:02:05.077282
3187  2023-12-01 13:02:05.125109
3188  2023-12-01 13:02:05.173014
3189  2023-12-01 13:02:05.204922
3190  2023-12-01 13:02:05.252800
3191  2023-12-01 13:02:05.299680
3192  2023-12-01 13:02:05.331583
3193  2023-12-01 13:02:05.378430
3194  2023-12-01 13:02:05.425379
3195  2023-12-01 13:02:05.457292
3196  2023-12-01 13:02:05.505166
3197  2023-12-01 13:02:05.537078
3198  2023-12-01 13:02:05.582968
3199  2023-12-01 13:02:05.630796
3200  2023-12-01 13:02:05.662715
3201  2023-12-01 13:02:05.710582
3202  2023-12-01 13:02:05.758459
3203  2023-12-01 13:02:05.791438
3204  2023-12-01 13:02:05.836248
3205  2023-12-01 13:02:05.882156
3206  2023-12-01 13:02:05.914071
3207  2023-12-01 13:02:05.959955
3208  2023-12-01 13:02:06.007788
3209  2023-12-01 13:02:06.039702
3210  2023-12-01 13:02:06.088572
3211  2023-12-01 13:02:06.119501
3212  2023-12-01 13:02:06.167394
3213  2023-12-01 13:02:06.214236
3214  2023-12-01 13:02:06.246151
3215  2023-12-01 13:02:06.294023
3216  2023-12-01 13:02:06.341927
3217  2023-12-01 13:02:06.373839
3218  2023-12-01 13:02:06.421717
3219  2023-12-01 13:02:06.451634
3220  2023-12-01 13:02:06.499505
3221  2023-12-01 13:02:06.545391
3222  2023-12-01 13:02:06.591229
3223  2023-12-01 13:02:06.622200
3224  2023-12-01 13:02:06.670050
3225  2023-12-01 13:02:06.715895
3226  2023-12-01 13:02:06.747841
3227  2023-12-01 13:02:06.792689
3228  2023-12-01 13:02:06.840561
3229  2023-12-01 13:02:06.871518
3230  2023-12-01 13:02:06.917388
3231  2023-12-01 13:02:06.964232
3232  2023-12-01 13:02:06.995148
3233  2023-12-01 13:02:07.042056
3234  2023-12-01 13:02:07.089929
3235  2023-12-01 13:02:07.120630
3236  2023-12-01 13:02:07.168466
3237  2023-12-01 13:02:07.216333
3238  2023-12-01 13:02:07.248280
3239  2023-12-01 13:02:07.297162
3240  2023-12-01 13:02:07.329038
3241  2023-12-01 13:02:07.375907
3242  2023-12-01 13:02:07.422729
3243  2023-12-01 13:02:07.454651
3244  2023-12-01 13:02:07.501531
3245  2023-12-01 13:02:07.549360
3246  2023-12-01 13:02:07.582271
3247  2023-12-01 13:02:07.628149
3248  2023-12-01 13:02:07.660068
3249  2023-12-01 13:02:07.707943
3250  2023-12-01 13:02:07.755807
3251  2023-12-01 13:02:07.787723
3252  2023-12-01 13:02:07.835595
3253  2023-12-01 13:02:07.883499
3254  2023-12-01 13:02:07.915485
3255  2023-12-01 13:02:07.963364
3256  2023-12-01 13:02:07.995277
3257  2023-12-01 13:02:08.039158
3258  2023-12-01 13:02:08.086993
3259  2023-12-01 13:02:08.132911
3260  2023-12-01 13:02:08.163828
3261  2023-12-01 13:02:08.211659
3262  2023-12-01 13:02:08.243574
3263  2023-12-01 13:02:08.291476
3264  2023-12-01 13:02:08.339351
3265  2023-12-01 13:02:08.371233
3266  2023-12-01 13:02:08.419136
3267  2023-12-01 13:02:08.466978
3268  2023-12-01 13:02:08.498893
3269  2023-12-01 13:02:08.544770
3270  2023-12-01 13:02:08.577683
3271  2023-12-01 13:02:08.623655
3272  2023-12-01 13:02:08.670435
3273  2023-12-01 13:02:08.702349
3274  2023-12-01 13:02:08.750220
3275  2023-12-01 13:02:08.798123
3276  2023-12-01 13:02:08.830045
3277  2023-12-01 13:02:08.877927
3278  2023-12-01 13:02:08.926764
3279  2023-12-01 13:02:08.956704
3280  2023-12-01 13:02:09.005547
3281  2023-12-01 13:02:09.036487
3282  2023-12-01 13:02:09.085373
3283  2023-12-01 13:02:09.131242
3284  2023-12-01 13:02:09.163118
3285  2023-12-01 13:02:09.211055
3286  2023-12-01 13:02:09.257862
3287  2023-12-01 13:02:09.290811
3288  2023-12-01 13:02:09.338683
3289  2023-12-01 13:02:09.368599
3290  2023-12-01 13:02:09.416439
3291  2023-12-01 13:02:09.463345
3292  2023-12-01 13:02:09.495282
3293  2023-12-01 13:02:09.543100
3294  2023-12-01 13:02:09.590008
3295  2023-12-01 13:02:09.620892
3296  2023-12-01 13:02:09.668799
3297  2023-12-01 13:02:09.716636
3298  2023-12-01 13:02:09.748550
3299  2023-12-01 13:02:09.796423
3300  2023-12-01 13:02:09.828375
3301  2023-12-01 13:02:09.876209
3302  2023-12-01 13:02:09.923122
3303  2023-12-01 13:02:09.954037
3304  2023-12-01 13:02:10.001873
3305  2023-12-01 13:02:10.049775
3306  2023-12-01 13:02:10.081660
3307  2023-12-01 13:02:10.129572
3308  2023-12-01 13:02:10.161479
3309  2023-12-01 13:02:10.207412
3310  2023-12-01 13:02:10.255373
3311  2023-12-01 13:02:10.287292
3312  2023-12-01 13:02:10.334164
3313  2023-12-01 13:02:10.381007
3314  2023-12-01 13:02:10.412957
3315  2023-12-01 13:02:10.460823
3316  2023-12-01 13:02:10.508574
3317  2023-12-01 13:02:10.540604
3318  2023-12-01 13:02:10.586533
3319  2023-12-01 13:02:10.618490
3320  2023-12-01 13:02:10.666362
3321  2023-12-01 13:02:10.714202
3322  2023-12-01 13:02:10.746156
3323  2023-12-01 13:02:10.792149
3324  2023-12-01 13:02:10.839012
3325  2023-12-01 13:02:10.870894
3326  2023-12-01 13:02:10.916771
3327  2023-12-01 13:02:10.964796
3328  2023-12-01 13:02:10.996713
3329  2023-12-01 13:02:11.044648
3330  2023-12-01 13:02:11.076562
3331  2023-12-01 13:02:11.124474
3332  2023-12-01 13:02:11.172307
3333  2023-12-01 13:02:11.203224
3334  2023-12-01 13:02:11.250134
3335  2023-12-01 13:02:11.298003
3336  2023-12-01 13:02:11.329924
3337  2023-12-01 13:02:11.377757
3338  2023-12-01 13:02:11.424634
3339  2023-12-01 13:02:11.455591
3340  2023-12-01 13:02:11.503455
3341  2023-12-01 13:02:11.535371
3342  2023-12-01 13:02:11.582246
3343  2023-12-01 13:02:11.629120
3344  2023-12-01 13:02:11.661048
3345  2023-12-01 13:02:11.707910
3346  2023-12-01 13:02:11.755749
3347  2023-12-01 13:02:11.787702
3348  2023-12-01 13:02:11.834569
3349  2023-12-01 13:02:11.883407
3350  2023-12-01 13:02:11.914325
3351  2023-12-01 13:02:11.962197
3352  2023-12-01 13:02:11.994142
3353  2023-12-01 13:02:12.041029
3354  2023-12-01 13:02:12.090852
3355  2023-12-01 13:02:12.121800
3356  2023-12-01 13:02:12.168678
3357  2023-12-01 13:02:12.218567
3358  2023-12-01 13:02:12.249459
3359  2023-12-01 13:02:12.294349
3360  2023-12-01 13:02:12.340224
3361  2023-12-01 13:02:12.372099
3362  2023-12-01 13:02:12.417977
3363  2023-12-01 13:02:12.462857
3364  2023-12-01 13:02:12.494773
3365  2023-12-01 13:02:12.542644
3366  2023-12-01 13:02:12.590550
3367  2023-12-01 13:02:12.621487
3368  2023-12-01 13:02:12.667346
3369  2023-12-01 13:02:12.714185
3370  2023-12-01 13:02:12.746131
3371  2023-12-01 13:02:12.794011
3372  2023-12-01 13:02:12.843873
3373  2023-12-01 13:02:12.873799
3374  2023-12-01 13:02:12.921661
3375  2023-12-01 13:02:12.954572
3376  2023-12-01 13:02:13.003454
3377  2023-12-01 13:02:13.050434
3378  2023-12-01 13:02:13.083359
3379  2023-12-01 13:02:13.130225
3380  2023-12-01 13:02:13.162144
3381  2023-12-01 13:02:13.208974
3382  2023-12-01 13:02:13.257846
3383  2023-12-01 13:02:13.288797
3384  2023-12-01 13:02:13.336689
3385  2023-12-01 13:02:13.368725
3386  2023-12-01 13:02:13.416592
3387  2023-12-01 13:02:13.462473
3388  2023-12-01 13:02:13.494393
3389  2023-12-01 13:02:13.542225
3390  2023-12-01 13:02:13.589131
3391  2023-12-01 13:02:13.620017
3392  2023-12-01 13:02:13.667923
3393  2023-12-01 13:02:13.715761
3394  2023-12-01 13:02:13.747676
3395  2023-12-01 13:02:13.795591
3396  2023-12-01 13:02:13.826496
3397  2023-12-01 13:02:13.873470
3398  2023-12-01 13:02:13.919380
3399  2023-12-01 13:02:13.965262
3400  2023-12-01 13:02:13.997175
3401  2023-12-01 13:02:14.044015
3402  2023-12-01 13:02:14.091924
3403  2023-12-01 13:02:14.123816
3404  2023-12-01 13:02:14.171707
3405  2023-12-01 13:02:14.203622
3406  2023-12-01 13:02:14.251492
3407  2023-12-01 13:02:14.299397
3408  2023-12-01 13:02:14.331423
3409  2023-12-01 13:02:14.379287
3410  2023-12-01 13:02:14.411198
3411  2023-12-01 13:02:14.459074
3412  2023-12-01 13:02:14.506945
3413  2023-12-01 13:02:14.536864
3414  2023-12-01 13:02:14.584706
3415  2023-12-01 13:02:14.634604
3416  2023-12-01 13:02:14.664562
3417  2023-12-01 13:02:14.712621
3418  2023-12-01 13:02:14.744615
3419  2023-12-01 13:02:14.792481
3420  2023-12-01 13:02:14.840349
3421  2023-12-01 13:02:14.872265
3422  2023-12-01 13:02:14.920137
3423  2023-12-01 13:02:14.965013
3424  2023-12-01 13:02:14.995937
3425  2023-12-01 13:02:15.042774
3426  2023-12-01 13:02:15.090741
3427  2023-12-01 13:02:15.122671
3428  2023-12-01 13:02:15.169562
3429  2023-12-01 13:02:15.216438
3430  2023-12-01 13:02:15.248351
3431  2023-12-01 13:02:15.296225
3432  2023-12-01 13:02:15.329137
3433  2023-12-01 13:02:15.376009
3434  2023-12-01 13:02:15.423881
3435  2023-12-01 13:02:15.455802
3436  2023-12-01 13:02:15.503667
3437  2023-12-01 13:02:15.535581
3438  2023-12-01 13:02:15.583423
3439  2023-12-01 13:02:15.631328
3440  2023-12-01 13:02:15.663243
3441  2023-12-01 13:02:15.711082
3442  2023-12-01 13:02:15.758060
3443  2023-12-01 13:02:15.788975
3444  2023-12-01 13:02:15.836937
3445  2023-12-01 13:02:15.868852
3446  2023-12-01 13:02:15.916719
3447  2023-12-01 13:02:15.964592
3448  2023-12-01 13:02:15.996507
3449  2023-12-01 13:02:16.044378
3450  2023-12-01 13:02:16.091254
3451  2023-12-01 13:02:16.123175
3452  2023-12-01 13:02:16.170043
3453  2023-12-01 13:02:16.201958
3454  2023-12-01 13:02:16.249830
3455  2023-12-01 13:02:16.295718
3456  2023-12-01 13:02:16.327629
3457  2023-12-01 13:02:16.374567
3458  2023-12-01 13:02:16.423435
3459  2023-12-01 13:02:16.455376
3460  2023-12-01 13:02:16.500196
3461  2023-12-01 13:02:16.548067
3462  2023-12-01 13:02:16.580025
3463  2023-12-01 13:02:16.628136
3464  2023-12-01 13:02:16.660087
3465  2023-12-01 13:02:16.706926
3466  2023-12-01 13:02:16.753897
3467  2023-12-01 13:02:16.785750
3468  2023-12-01 13:02:16.833622
3469  2023-12-01 13:02:16.881460
3470  2023-12-01 13:02:16.913375
3471  2023-12-01 13:02:16.961278
3472  2023-12-01 13:02:16.993265
3473  2023-12-01 13:02:17.041135
3474  2023-12-01 13:02:17.089046
3475  2023-12-01 13:02:17.120948
3476  2023-12-01 13:02:17.166831
3477  2023-12-01 13:02:17.214671
3478  2023-12-01 13:02:17.246765
3479  2023-12-01 13:02:17.294491
3480  2023-12-01 13:02:17.341333
3481  2023-12-01 13:02:17.373280
3482  2023-12-01 13:02:17.421156
3483  2023-12-01 13:02:17.453072
3484  2023-12-01 13:02:17.500939
3485  2023-12-01 13:02:17.546815
3486  2023-12-01 13:02:17.578739
3487  2023-12-01 13:02:17.626607
3488  2023-12-01 13:02:17.674476
3489  2023-12-01 13:02:17.706394
3490  2023-12-01 13:02:17.753266
3491  2023-12-01 13:02:17.801110
3492  2023-12-01 13:02:17.833046
3493  2023-12-01 13:02:17.881050
3494  2023-12-01 13:02:17.909942
3495  2023-12-01 13:02:17.958861
3496  2023-12-01 13:02:18.006715
3497  2023-12-01 13:02:18.038688
3498  2023-12-01 13:02:18.086595
3499  2023-12-01 13:02:18.134464
3500  2023-12-01 13:02:18.166378
3501  2023-12-01 13:02:18.214373
3502  2023-12-01 13:02:18.246292
3503  2023-12-01 13:02:18.292173
3504  2023-12-01 13:02:18.340010
3505  2023-12-01 13:02:18.371924
3506  2023-12-01 13:02:18.419796
3507  2023-12-01 13:02:18.451711
3508  2023-12-01 13:02:18.499584
3509  2023-12-01 13:02:18.547455
3510  2023-12-01 13:02:18.579370
3511  2023-12-01 13:02:18.625287
3512  2023-12-01 13:02:18.673151
3513  2023-12-01 13:02:18.704067
3514  2023-12-01 13:02:18.750949
3515  2023-12-01 13:02:18.798946
3516  2023-12-01 13:02:18.830859
3517  2023-12-01 13:02:18.876761
3518  2023-12-01 13:02:18.924712
3519  2023-12-01 13:02:18.956630
3520  2023-12-01 13:02:19.004500
3521  2023-12-01 13:02:19.036415
3522  2023-12-01 13:02:19.084351
3523  2023-12-01 13:02:19.132225
3524  2023-12-01 13:02:19.164107
3525  2023-12-01 13:02:19.211014
3526  2023-12-01 13:02:19.257856
3527  2023-12-01 13:02:19.289801
3528  2023-12-01 13:02:19.337676
3529  2023-12-01 13:02:19.369588
3530  2023-12-01 13:02:19.416468
3531  2023-12-01 13:02:19.464339
3532  2023-12-01 13:02:19.496250
3533  2023-12-01 13:02:19.542127
3534  2023-12-01 13:02:19.589999
3535  2023-12-01 13:02:19.621915
3536  2023-12-01 13:02:19.671781
3537  2023-12-01 13:02:19.701709
3538  2023-12-01 13:02:19.749572
3539  2023-12-01 13:02:19.797447
3540  2023-12-01 13:02:19.829360
3541  2023-12-01 13:02:19.877237
3542  2023-12-01 13:02:19.927100
3543  2023-12-01 13:02:19.957018
3544  2023-12-01 13:02:20.001867
3545  2023-12-01 13:02:20.049739
3546  2023-12-01 13:02:20.081653
3547  2023-12-01 13:02:20.129558
3548  2023-12-01 13:02:20.161479
3549  2023-12-01 13:02:20.209312
3550  2023-12-01 13:02:20.257184
3551  2023-12-01 13:02:20.289134
3552  2023-12-01 13:02:20.336971
3553  2023-12-01 13:02:20.382848
3554  2023-12-01 13:02:20.414763
3555  2023-12-01 13:02:20.462666
3556  2023-12-01 13:02:20.494580
3557  2023-12-01 13:02:20.541424
3558  2023-12-01 13:02:20.586338
3559  2023-12-01 13:02:20.618219
3560  2023-12-01 13:02:20.666123
3561  2023-12-01 13:02:20.713997
