
1  2023-12-05 11:17:26.485290
2  2023-12-05 11:17:26.518202
3  2023-12-05 11:17:26.550117
4  2023-12-05 11:17:26.582046
5  2023-12-05 11:17:26.613976
6  2023-12-05 11:17:26.645954
7  2023-12-05 11:17:26.693882
8  2023-12-05 11:17:26.725757
9  2023-12-05 11:17:26.757789
10  2023-12-05 11:17:26.789703
11  2023-12-05 11:17:26.821618
12  2023-12-05 11:17:26.853533
13  2023-12-05 11:17:26.885447
14  2023-12-05 11:17:26.917522
15  2023-12-05 11:17:26.949440
16  2023-12-05 11:17:26.981362
17  2023-12-05 11:17:27.013268
18  2023-12-05 11:17:27.046146
19  2023-12-05 11:17:27.094051
20  2023-12-05 11:17:27.125958
21  2023-12-05 11:17:27.157840
22  2023-12-05 11:17:27.189803
23  2023-12-05 11:17:27.221718
24  2023-12-05 11:17:27.253633
25  2023-12-05 11:17:27.285698
26  2023-12-05 11:17:27.317652
27  2023-12-05 11:17:27.349567
28  2023-12-05 11:17:27.381522
29  2023-12-05 11:17:27.413476
30  2023-12-05 11:17:27.445391
31  2023-12-05 11:17:27.493350
32  2023-12-05 11:17:27.525296
33  2023-12-05 11:17:27.557180
34  2023-12-05 11:17:27.590091
35  2023-12-05 11:17:27.622005
36  2023-12-05 11:17:27.654008
37  2023-12-05 11:17:27.685889
38  2023-12-05 11:17:27.717838
39  2023-12-05 11:17:27.749755
40  2023-12-05 11:17:27.781695
41  2023-12-05 11:17:27.813583
42  2023-12-05 11:17:27.845516
43  2023-12-05 11:17:27.893494
44  2023-12-05 11:17:27.925403
45  2023-12-05 11:17:27.957342
46  2023-12-05 11:17:27.989230
47  2023-12-05 11:17:28.022052
48  2023-12-05 11:17:28.054001
49  2023-12-05 11:17:28.085947
50  2023-12-05 11:17:28.117836
51  2023-12-05 11:17:28.149784
52  2023-12-05 11:17:28.181699
53  2023-12-05 11:17:28.214232
54  2023-12-05 11:17:28.246193
55  2023-12-05 11:17:28.294155
56  2023-12-05 11:17:28.326028
57  2023-12-05 11:17:28.357974
58  2023-12-05 11:17:28.389976
59  2023-12-05 11:17:28.421896
60  2023-12-05 11:17:28.453891
61  2023-12-05 11:17:28.485808
62  2023-12-05 11:17:28.517737
63  2023-12-05 11:17:28.549670
64  2023-12-05 11:17:28.581701
65  2023-12-05 11:17:28.613579
66  2023-12-05 11:17:28.645492
67  2023-12-05 11:17:28.693571
68  2023-12-05 11:17:28.725499
69  2023-12-05 11:17:28.757449
70  2023-12-05 11:17:28.789446
71  2023-12-05 11:17:28.822319
72  2023-12-05 11:17:28.854233
73  2023-12-05 11:17:28.886174
74  2023-12-05 11:17:28.918196
75  2023-12-05 11:17:28.950078
76  2023-12-05 11:17:28.982121
77  2023-12-05 11:17:29.014040
78  2023-12-05 11:17:29.045908
79  2023-12-05 11:17:29.093930
80  2023-12-05 11:17:29.125843
81  2023-12-05 11:17:29.157755
82  2023-12-05 11:17:29.189672
83  2023-12-05 11:17:29.222553
84  2023-12-05 11:17:29.253464
85  2023-12-05 11:17:29.285379
86  2023-12-05 11:17:29.317317
87  2023-12-05 11:17:29.349231
88  2023-12-05 11:17:29.382120
89  2023-12-05 11:17:29.414065
90  2023-12-05 11:17:29.445949
91  2023-12-05 11:17:29.493821
92  2023-12-05 11:17:29.525786
93  2023-12-05 11:17:29.557549
94  2023-12-05 11:17:29.590494
95  2023-12-05 11:17:29.622459
96  2023-12-05 11:17:29.654375
97  2023-12-05 11:17:29.686283
98  2023-12-05 11:17:29.718197
99  2023-12-05 11:17:29.750112
100  2023-12-05 11:17:29.782027
101  2023-12-05 11:17:29.813976
102  2023-12-05 11:17:29.845911
103  2023-12-05 11:17:29.893758
104  2023-12-05 11:17:29.925684
105  2023-12-05 11:17:29.957557
106  2023-12-05 11:17:29.989472
107  2023-12-05 11:17:30.021415
108  2023-12-05 11:17:30.054300
109  2023-12-05 11:17:30.086214
110  2023-12-05 11:17:30.118181
111  2023-12-05 11:17:30.150072
112  2023-12-05 11:17:30.182006
113  2023-12-05 11:17:30.213872
114  2023-12-05 11:17:30.245787
115  2023-12-05 11:17:30.293937
116  2023-12-05 11:17:30.325846
117  2023-12-05 11:17:30.357791
118  2023-12-05 11:17:30.389706
119  2023-12-05 11:17:30.421617
120  2023-12-05 11:17:30.453616
121  2023-12-05 11:17:30.485520
122  2023-12-05 11:17:30.517437
123  2023-12-05 11:17:30.549311
124  2023-12-05 11:17:30.581278
125  2023-12-05 11:17:30.614172
126  2023-12-05 11:17:30.646051
127  2023-12-05 11:17:30.693923
128  2023-12-05 11:17:30.725838
129  2023-12-05 11:17:30.757753
130  2023-12-05 11:17:30.789667
131  2023-12-05 11:17:30.821626
132  2023-12-05 11:17:30.853959
133  2023-12-05 11:17:30.886023
134  2023-12-05 11:17:30.917906
135  2023-12-05 11:17:30.949850
136  2023-12-05 11:17:30.981766
137  2023-12-05 11:17:31.013681
138  2023-12-05 11:17:31.046082
139  2023-12-05 11:17:31.093954
140  2023-12-05 11:17:31.125940
141  2023-12-05 11:17:31.157867
142  2023-12-05 11:17:31.189782
143  2023-12-05 11:17:31.221696
144  2023-12-05 11:17:31.253725
145  2023-12-05 11:17:31.285643
146  2023-12-05 11:17:31.317522
147  2023-12-05 11:17:31.349518
148  2023-12-05 11:17:31.381490
149  2023-12-05 11:17:31.413399
150  2023-12-05 11:17:31.445273
151  2023-12-05 11:17:31.493186
152  2023-12-05 11:17:31.526115
153  2023-12-05 11:17:31.558005
154  2023-12-05 11:17:31.589887
155  2023-12-05 11:17:31.621801
156  2023-12-05 11:17:31.653751
157  2023-12-05 11:17:31.685630
158  2023-12-05 11:17:31.717545
159  2023-12-05 11:17:31.749500
160  2023-12-05 11:17:31.781414
161  2023-12-05 11:17:31.813331
162  2023-12-05 11:17:31.846201
163  2023-12-05 11:17:31.894122
164  2023-12-05 11:17:31.926040
165  2023-12-05 11:17:31.957952
166  2023-12-05 11:17:31.989866
167  2023-12-05 11:17:32.021812
168  2023-12-05 11:17:32.053787
169  2023-12-05 11:17:32.085702
170  2023-12-05 11:17:32.117711
171  2023-12-05 11:17:32.149621
172  2023-12-05 11:17:32.181649
173  2023-12-05 11:17:32.213529
174  2023-12-05 11:17:32.245476
175  2023-12-05 11:17:32.293393
176  2023-12-05 11:17:32.325436
177  2023-12-05 11:17:32.357438
178  2023-12-05 11:17:32.390343
179  2023-12-05 11:17:32.421265
180  2023-12-05 11:17:32.453182
181  2023-12-05 11:17:32.486100
182  2023-12-05 11:17:32.518003
183  2023-12-05 11:17:32.549916
184  2023-12-05 11:17:32.581830
185  2023-12-05 11:17:32.613747
186  2023-12-05 11:17:32.645645
187  2023-12-05 11:17:32.693533
188  2023-12-05 11:17:32.725455
189  2023-12-05 11:17:32.757368
190  2023-12-05 11:17:32.789282
191  2023-12-05 11:17:32.821285
192  2023-12-05 11:17:32.853194
193  2023-12-05 11:17:32.886106
194  2023-12-05 11:17:32.918012
195  2023-12-05 11:17:32.949927
196  2023-12-05 11:17:32.981878
197  2023-12-05 11:17:33.013871
198  2023-12-05 11:17:33.045755
199  2023-12-05 11:17:33.093657
200  2023-12-05 11:17:33.125592
201  2023-12-05 11:17:33.157490
202  2023-12-05 11:17:33.189403
203  2023-12-05 11:17:33.221285
204  2023-12-05 11:17:33.253235
205  2023-12-05 11:17:33.286143
206  2023-12-05 11:17:33.318058
207  2023-12-05 11:17:33.349976
208  2023-12-05 11:17:33.381888
209  2023-12-05 11:17:33.413801
210  2023-12-05 11:17:33.445685
211  2023-12-05 11:17:33.493788
212  2023-12-05 11:17:33.525738
213  2023-12-05 11:17:33.557735
214  2023-12-05 11:17:33.589647
215  2023-12-05 11:17:33.621531
216  2023-12-05 11:17:33.653476
217  2023-12-05 11:17:33.685390
218  2023-12-05 11:17:33.718280
219  2023-12-05 11:17:33.750193
220  2023-12-05 11:17:33.782137
221  2023-12-05 11:17:33.814047
222  2023-12-05 11:17:33.845966
223  2023-12-05 11:17:33.893835
224  2023-12-05 11:17:33.925753
225  2023-12-05 11:17:33.957663
226  2023-12-05 11:17:33.989588
227  2023-12-05 11:17:34.021645
228  2023-12-05 11:17:34.053628
229  2023-12-05 11:17:34.085592
230  2023-12-05 11:17:34.117504
231  2023-12-05 11:17:34.149599
232  2023-12-05 11:17:34.181527
233  2023-12-05 11:17:34.213383
234  2023-12-05 11:17:34.245340
235  2023-12-05 11:17:34.293208
236  2023-12-05 11:17:34.326116
237  2023-12-05 11:17:34.358029
238  2023-12-05 11:17:34.389943
239  2023-12-05 11:17:34.421916
240  2023-12-05 11:17:34.453872
241  2023-12-05 11:17:34.485785
242  2023-12-05 11:17:34.517682
243  2023-12-05 11:17:34.549549
244  2023-12-05 11:17:34.581541
245  2023-12-05 11:17:34.613417
246  2023-12-05 11:17:34.645332
247  2023-12-05 11:17:34.693237
248  2023-12-05 11:17:34.726155
249  2023-12-05 11:17:34.758078
250  2023-12-05 11:17:34.789977
251  2023-12-05 11:17:34.821891
252  2023-12-05 11:17:34.853808
253  2023-12-05 11:17:34.885722
254  2023-12-05 11:17:34.917650
255  2023-12-05 11:17:34.949637
256  2023-12-05 11:17:34.981634
257  2023-12-05 11:17:35.013507
258  2023-12-05 11:17:35.045464
259  2023-12-05 11:17:35.093325
260  2023-12-05 11:17:35.125254
261  2023-12-05 11:17:35.158158
262  2023-12-05 11:17:35.190066
263  2023-12-05 11:17:35.221983
264  2023-12-05 11:17:35.253894
265  2023-12-05 11:17:35.285910
266  2023-12-05 11:17:35.317932
267  2023-12-05 11:17:35.349956
268  2023-12-05 11:17:35.381871
269  2023-12-05 11:17:35.413753
270  2023-12-05 11:17:35.445701
271  2023-12-05 11:17:35.493591
272  2023-12-05 11:17:35.525589
273  2023-12-05 11:17:35.557484
274  2023-12-05 11:17:35.589534
275  2023-12-05 11:17:35.621457
276  2023-12-05 11:17:35.653371
277  2023-12-05 11:17:35.685286
278  2023-12-05 11:17:35.718198
279  2023-12-05 11:17:35.750218
280  2023-12-05 11:17:35.782115
281  2023-12-05 11:17:35.813998
282  2023-12-05 11:17:35.845943
283  2023-12-05 11:17:35.893818
284  2023-12-05 11:17:35.925732
285  2023-12-05 11:17:35.957647
286  2023-12-05 11:17:35.989586
287  2023-12-05 11:17:36.021487
288  2023-12-05 11:17:36.053398
289  2023-12-05 11:17:36.085303
290  2023-12-05 11:17:36.117232
291  2023-12-05 11:17:36.150134
292  2023-12-05 11:17:36.182052
293  2023-12-05 11:17:36.213928
294  2023-12-05 11:17:36.245878
295  2023-12-05 11:17:36.293745
296  2023-12-05 11:17:36.325658
297  2023-12-05 11:17:36.357585
298  2023-12-05 11:17:36.389459
299  2023-12-05 11:17:36.422371
300  2023-12-05 11:17:36.454336
301  2023-12-05 11:17:36.485242
302  2023-12-05 11:17:36.518176
303  2023-12-05 11:17:36.550060
304  2023-12-05 11:17:36.581975
305  2023-12-05 11:17:36.613889
306  2023-12-05 11:17:36.645810
307  2023-12-05 11:17:36.693678
308  2023-12-05 11:17:36.725593
309  2023-12-05 11:17:36.757529
310  2023-12-05 11:17:36.789399
311  2023-12-05 11:17:36.821349
312  2023-12-05 11:17:36.853261
313  2023-12-05 11:17:36.885135
314  2023-12-05 11:17:36.918081
315  2023-12-05 11:17:36.949997
316  2023-12-05 11:17:36.981911
317  2023-12-05 11:17:37.013825
318  2023-12-05 11:17:37.045738
319  2023-12-05 11:17:37.093625
320  2023-12-05 11:17:37.125523
321  2023-12-05 11:17:37.157449
322  2023-12-05 11:17:37.189352
323  2023-12-05 11:17:37.221282
324  2023-12-05 11:17:37.253194
325  2023-12-05 11:17:37.286091
326  2023-12-05 11:17:37.318005
327  2023-12-05 11:17:37.349929
328  2023-12-05 11:17:37.381832
329  2023-12-05 11:17:37.413719
330  2023-12-05 11:17:37.445633
331  2023-12-05 11:17:37.493663
332  2023-12-05 11:17:37.525700
333  2023-12-05 11:17:37.557697
334  2023-12-05 11:17:37.589697
335  2023-12-05 11:17:37.621696
336  2023-12-05 11:17:37.653628
337  2023-12-05 11:17:37.685519
338  2023-12-05 11:17:37.717444
339  2023-12-05 11:17:37.749366
340  2023-12-05 11:17:37.781263
341  2023-12-05 11:17:37.814144
342  2023-12-05 11:17:37.846113
343  2023-12-05 11:17:37.893966
344  2023-12-05 11:17:37.926011
345  2023-12-05 11:17:37.957924
346  2023-12-05 11:17:37.989841
347  2023-12-05 11:17:38.021757
348  2023-12-05 11:17:38.053689
349  2023-12-05 11:17:38.085585
350  2023-12-05 11:17:38.117510
351  2023-12-05 11:17:38.149429
352  2023-12-05 11:17:38.182291
353  2023-12-05 11:17:38.214205
354  2023-12-05 11:17:38.246120
355  2023-12-05 11:17:38.294029
356  2023-12-05 11:17:38.325942
357  2023-12-05 11:17:38.357852
358  2023-12-05 11:17:38.389773
359  2023-12-05 11:17:38.421688
360  2023-12-05 11:17:38.453618
361  2023-12-05 11:17:38.485544
362  2023-12-05 11:17:38.517429
363  2023-12-05 11:17:38.549418
364  2023-12-05 11:17:38.581305
365  2023-12-05 11:17:38.613296
366  2023-12-05 11:17:38.646208
367  2023-12-05 11:17:38.694128
368  2023-12-05 11:17:38.726029
369  2023-12-05 11:17:38.757949
370  2023-12-05 11:17:38.789850
371  2023-12-05 11:17:38.821797
372  2023-12-05 11:17:38.853684
373  2023-12-05 11:17:38.886565
374  2023-12-05 11:17:38.917521
375  2023-12-05 11:17:38.949436
376  2023-12-05 11:17:38.981311
377  2023-12-05 11:17:39.013226
378  2023-12-05 11:17:39.045172
379  2023-12-05 11:17:39.094050
380  2023-12-05 11:17:39.125959
381  2023-12-05 11:17:39.157869
382  2023-12-05 11:17:39.189794
383  2023-12-05 11:17:39.221702
384  2023-12-05 11:17:39.253625
385  2023-12-05 11:17:39.285533
386  2023-12-05 11:17:39.317444
387  2023-12-05 11:17:39.349369
388  2023-12-05 11:17:39.381288
389  2023-12-05 11:17:39.413156
390  2023-12-05 11:17:39.446068
391  2023-12-05 11:17:39.493972
392  2023-12-05 11:17:39.525885
393  2023-12-05 11:17:39.557810
394  2023-12-05 11:17:39.589719
395  2023-12-05 11:17:39.621655
396  2023-12-05 11:17:39.653549
397  2023-12-05 11:17:39.685470
398  2023-12-05 11:17:39.717386
399  2023-12-05 11:17:39.749314
400  2023-12-05 11:17:39.781172
401  2023-12-05 11:17:39.814083
402  2023-12-05 11:17:39.845998
403  2023-12-05 11:17:39.893898
404  2023-12-05 11:17:39.925904
405  2023-12-05 11:17:39.957808
406  2023-12-05 11:17:39.989726
407  2023-12-05 11:17:40.021648
408  2023-12-05 11:17:40.053567
409  2023-12-05 11:17:40.085470
410  2023-12-05 11:17:40.117394
411  2023-12-05 11:17:40.149306
412  2023-12-05 11:17:40.181180
413  2023-12-05 11:17:40.214092
414  2023-12-05 11:17:40.246007
415  2023-12-05 11:17:40.293915
416  2023-12-05 11:17:40.325825
417  2023-12-05 11:17:40.357749
418  2023-12-05 11:17:40.389659
419  2023-12-05 11:17:40.421574
420  2023-12-05 11:17:40.453506
421  2023-12-05 11:17:40.485408
422  2023-12-05 11:17:40.517317
423  2023-12-05 11:17:40.549227
424  2023-12-05 11:17:40.582108
425  2023-12-05 11:17:40.614022
426  2023-12-05 11:17:40.645937
427  2023-12-05 11:17:40.693842
428  2023-12-05 11:17:40.725760
429  2023-12-05 11:17:40.757670
430  2023-12-05 11:17:40.789697
431  2023-12-05 11:17:40.821502
432  2023-12-05 11:17:40.853422
433  2023-12-05 11:17:40.885337
434  2023-12-05 11:17:40.918210
435  2023-12-05 11:17:40.949159
436  2023-12-05 11:17:40.982038
437  2023-12-05 11:17:41.013952
438  2023-12-05 11:17:41.045867
439  2023-12-05 11:17:41.093774
440  2023-12-05 11:17:41.125690
441  2023-12-05 11:17:41.157602
442  2023-12-05 11:17:41.189524
443  2023-12-05 11:17:41.221428
444  2023-12-05 11:17:41.253359
445  2023-12-05 11:17:41.285271
446  2023-12-05 11:17:41.318178
447  2023-12-05 11:17:41.350093
448  2023-12-05 11:17:41.382000
449  2023-12-05 11:17:41.413883
450  2023-12-05 11:17:41.445797
451  2023-12-05 11:17:41.493715
452  2023-12-05 11:17:41.525634
453  2023-12-05 11:17:41.557530
454  2023-12-05 11:17:41.589452
455  2023-12-05 11:17:41.621378
456  2023-12-05 11:17:41.653282
457  2023-12-05 11:17:41.685191
458  2023-12-05 11:17:41.718101
459  2023-12-05 11:17:41.749983
460  2023-12-05 11:17:41.781898
461  2023-12-05 11:17:41.813813
462  2023-12-05 11:17:41.845727
463  2023-12-05 11:17:41.893651
464  2023-12-05 11:17:41.925557
465  2023-12-05 11:17:41.957428
466  2023-12-05 11:17:41.989375
467  2023-12-05 11:17:42.021298
468  2023-12-05 11:17:42.054205
469  2023-12-05 11:17:42.086117
470  2023-12-05 11:17:42.118035
471  2023-12-05 11:17:42.149914
472  2023-12-05 11:17:42.181829
473  2023-12-05 11:17:42.213743
474  2023-12-05 11:17:42.245658
475  2023-12-05 11:17:42.293573
476  2023-12-05 11:17:42.325495
477  2023-12-05 11:17:42.357407
478  2023-12-05 11:17:42.389317
479  2023-12-05 11:17:42.421231
480  2023-12-05 11:17:42.454135
481  2023-12-05 11:17:42.486051
482  2023-12-05 11:17:42.517960
483  2023-12-05 11:17:42.549844
484  2023-12-05 11:17:42.581758
485  2023-12-05 11:17:42.613673
486  2023-12-05 11:17:42.645588
487  2023-12-05 11:17:42.693492
488  2023-12-05 11:17:42.725405
489  2023-12-05 11:17:42.757335
490  2023-12-05 11:17:42.789235
491  2023-12-05 11:17:42.821155
492  2023-12-05 11:17:42.854072
493  2023-12-05 11:17:42.885976
494  2023-12-05 11:17:42.917890
495  2023-12-05 11:17:42.949775
496  2023-12-05 11:17:42.981690
497  2023-12-05 11:17:43.013604
498  2023-12-05 11:17:43.045519
499  2023-12-05 11:17:43.093436
500  2023-12-05 11:17:43.125351
501  2023-12-05 11:17:43.157260
502  2023-12-05 11:17:43.189176
503  2023-12-05 11:17:43.222088
504  2023-12-05 11:17:43.253992
505  2023-12-05 11:17:43.285911
506  2023-12-05 11:17:43.317832
507  2023-12-05 11:17:43.349851
508  2023-12-05 11:17:43.381765
509  2023-12-05 11:17:43.413680
510  2023-12-05 11:17:43.445595
511  2023-12-05 11:17:43.493502
512  2023-12-05 11:17:43.525424
513  2023-12-05 11:17:43.557335
514  2023-12-05 11:17:43.590210
515  2023-12-05 11:17:43.622158
516  2023-12-05 11:17:43.654069
517  2023-12-05 11:17:43.685988
518  2023-12-05 11:17:43.717867
519  2023-12-05 11:17:43.749783
520  2023-12-05 11:17:43.781696
521  2023-12-05 11:17:43.813610
522  2023-12-05 11:17:43.845559
523  2023-12-05 11:17:43.893446
524  2023-12-05 11:17:43.925312
525  2023-12-05 11:17:43.958256
526  2023-12-05 11:17:43.990170
527  2023-12-05 11:17:44.022086
528  2023-12-05 11:17:44.053999
529  2023-12-05 11:17:44.085931
530  2023-12-05 11:17:44.117835
531  2023-12-05 11:17:44.149711
532  2023-12-05 11:17:44.181677
533  2023-12-05 11:17:44.213574
534  2023-12-05 11:17:44.245455
535  2023-12-05 11:17:44.293374
536  2023-12-05 11:17:44.325282
537  2023-12-05 11:17:44.358195
538  2023-12-05 11:17:44.390121
539  2023-12-05 11:17:44.422026
540  2023-12-05 11:17:44.453930
541  2023-12-05 11:17:44.485841
542  2023-12-05 11:17:44.517762
543  2023-12-05 11:17:44.549641
544  2023-12-05 11:17:44.581556
545  2023-12-05 11:17:44.613470
546  2023-12-05 11:17:44.645385
547  2023-12-05 11:17:44.693306
548  2023-12-05 11:17:44.725202
549  2023-12-05 11:17:44.758121
550  2023-12-05 11:17:44.789999
551  2023-12-05 11:17:44.821948
552  2023-12-05 11:17:44.853863
553  2023-12-05 11:17:44.885745
554  2023-12-05 11:17:44.917690
555  2023-12-05 11:17:44.949571
556  2023-12-05 11:17:44.981486
557  2023-12-05 11:17:45.013401
558  2023-12-05 11:17:45.045315
559  2023-12-05 11:17:45.093233
560  2023-12-05 11:17:45.125135
561  2023-12-05 11:17:45.158074
562  2023-12-05 11:17:45.189959
563  2023-12-05 11:17:45.221879
564  2023-12-05 11:17:45.253792
565  2023-12-05 11:17:45.285715
566  2023-12-05 11:17:45.317635
567  2023-12-05 11:17:45.349502
568  2023-12-05 11:17:45.381416
569  2023-12-05 11:17:45.414329
570  2023-12-05 11:17:45.446243
571  2023-12-05 11:17:45.494157
572  2023-12-05 11:17:45.526062
573  2023-12-05 11:17:45.557975
574  2023-12-05 11:17:45.589898
575  2023-12-05 11:17:45.621806
576  2023-12-05 11:17:45.653718
577  2023-12-05 11:17:45.685638
578  2023-12-05 11:17:45.717548
579  2023-12-05 11:17:45.749463
580  2023-12-05 11:17:45.782344
581  2023-12-05 11:17:45.813261
582  2023-12-05 11:17:45.845215
583  2023-12-05 11:17:45.894079
584  2023-12-05 11:17:45.925994
585  2023-12-05 11:17:45.957912
586  2023-12-05 11:17:45.989824
587  2023-12-05 11:17:46.021742
588  2023-12-05 11:17:46.053655
589  2023-12-05 11:17:46.085580
590  2023-12-05 11:17:46.117447
591  2023-12-05 11:17:46.149362
592  2023-12-05 11:17:46.181309
593  2023-12-05 11:17:46.214222
594  2023-12-05 11:17:46.246103
595  2023-12-05 11:17:46.294011
596  2023-12-05 11:17:46.325890
597  2023-12-05 11:17:46.357837
598  2023-12-05 11:17:46.389754
599  2023-12-05 11:17:46.421668
600  2023-12-05 11:17:46.453595
601  2023-12-05 11:17:46.485511
602  2023-12-05 11:17:46.517377
603  2023-12-05 11:17:46.549300
604  2023-12-05 11:17:46.581255
605  2023-12-05 11:17:46.613253
606  2023-12-05 11:17:46.645168
607  2023-12-05 11:17:46.694093
608  2023-12-05 11:17:46.725985
609  2023-12-05 11:17:46.757899
610  2023-12-05 11:17:46.789826
611  2023-12-05 11:17:46.821696
612  2023-12-05 11:17:46.853662
613  2023-12-05 11:17:46.885564
614  2023-12-05 11:17:46.917440
615  2023-12-05 11:17:46.950514
616  2023-12-05 11:17:46.981559
617  2023-12-05 11:17:47.013468
618  2023-12-05 11:17:47.045383
619  2023-12-05 11:17:47.094285
620  2023-12-05 11:17:47.126225
621  2023-12-05 11:17:47.158120
622  2023-12-05 11:17:47.190028
623  2023-12-05 11:17:47.221943
624  2023-12-05 11:17:47.253827
625  2023-12-05 11:17:47.285772
626  2023-12-05 11:17:47.317660
627  2023-12-05 11:17:47.349570
628  2023-12-05 11:17:47.381486
629  2023-12-05 11:17:47.413398
630  2023-12-05 11:17:47.445313
631  2023-12-05 11:17:47.493233
632  2023-12-05 11:17:47.526128
633  2023-12-05 11:17:47.558047
634  2023-12-05 11:17:47.589959
635  2023-12-05 11:17:47.621871
636  2023-12-05 11:17:47.653791
637  2023-12-05 11:17:47.685702
638  2023-12-05 11:17:47.717639
639  2023-12-05 11:17:47.749536
640  2023-12-05 11:17:47.781414
641  2023-12-05 11:17:47.813328
642  2023-12-05 11:17:47.845409
643  2023-12-05 11:17:47.893279
644  2023-12-05 11:17:47.925207
645  2023-12-05 11:17:47.958126
646  2023-12-05 11:17:47.990014
647  2023-12-05 11:17:48.021935
648  2023-12-05 11:17:48.053852
649  2023-12-05 11:17:48.085765
650  2023-12-05 11:17:48.117648
651  2023-12-05 11:17:48.149563
652  2023-12-05 11:17:48.181510
653  2023-12-05 11:17:48.213425
654  2023-12-05 11:17:48.245307
655  2023-12-05 11:17:48.293205
656  2023-12-05 11:17:48.326125
657  2023-12-05 11:17:48.358031
658  2023-12-05 11:17:48.389951
659  2023-12-05 11:17:48.421872
660  2023-12-05 11:17:48.453781
661  2023-12-05 11:17:48.485697
662  2023-12-05 11:17:48.517656
663  2023-12-05 11:17:48.549536
664  2023-12-05 11:17:48.581408
665  2023-12-05 11:17:48.613322
666  2023-12-05 11:17:48.645237
667  2023-12-05 11:17:48.694140
668  2023-12-05 11:17:48.726056
669  2023-12-05 11:17:48.757976
670  2023-12-05 11:17:48.789850
671  2023-12-05 11:17:48.821798
672  2023-12-05 11:17:48.853710
673  2023-12-05 11:17:48.885623
674  2023-12-05 11:17:48.917509
675  2023-12-05 11:17:48.949423
676  2023-12-05 11:17:48.981338
677  2023-12-05 11:17:49.014250
678  2023-12-05 11:17:49.045167
679  2023-12-05 11:17:49.094078
680  2023-12-05 11:17:49.125992
681  2023-12-05 11:17:49.157980
682  2023-12-05 11:17:49.189888
683  2023-12-05 11:17:49.221808
684  2023-12-05 11:17:49.253685
685  2023-12-05 11:17:49.285600
686  2023-12-05 11:17:49.317515
687  2023-12-05 11:17:49.349429
688  2023-12-05 11:17:49.381344
689  2023-12-05 11:17:49.413258
690  2023-12-05 11:17:49.446251
691  2023-12-05 11:17:49.493247
692  2023-12-05 11:17:49.526172
693  2023-12-05 11:17:49.558073
694  2023-12-05 11:17:49.589948
695  2023-12-05 11:17:49.622906
696  2023-12-05 11:17:49.653817
697  2023-12-05 11:17:49.685692
698  2023-12-05 11:17:49.717612
699  2023-12-05 11:17:49.750553
700  2023-12-05 11:17:49.782465
701  2023-12-05 11:17:49.814348
702  2023-12-05 11:17:49.845265
703  2023-12-05 11:17:49.894170
704  2023-12-05 11:17:49.926051
705  2023-12-05 11:17:49.957989
706  2023-12-05 11:17:49.989929
707  2023-12-05 11:17:50.021856
708  2023-12-05 11:17:50.053708
709  2023-12-05 11:17:50.085623
710  2023-12-05 11:17:50.117536
711  2023-12-05 11:17:50.150465
712  2023-12-05 11:17:50.181446
713  2023-12-05 11:17:50.213391
714  2023-12-05 11:17:50.245275
715  2023-12-05 11:17:50.293180
716  2023-12-05 11:17:50.326092
717  2023-12-05 11:17:50.358006
718  2023-12-05 11:17:50.390009
719  2023-12-05 11:17:50.421953
720  2023-12-05 11:17:50.453870
721  2023-12-05 11:17:50.485753
722  2023-12-05 11:17:50.517667
723  2023-12-05 11:17:50.549618
724  2023-12-05 11:17:50.581512
725  2023-12-05 11:17:50.613409
726  2023-12-05 11:17:50.645323
727  2023-12-05 11:17:50.693236
728  2023-12-05 11:17:50.725279
729  2023-12-05 11:17:50.758182
730  2023-12-05 11:17:50.790065
731  2023-12-05 11:17:50.821970
732  2023-12-05 11:17:50.853934
733  2023-12-05 11:17:50.885843
734  2023-12-05 11:17:50.917713
735  2023-12-05 11:17:50.949726
736  2023-12-05 11:17:50.981640
737  2023-12-05 11:17:51.013599
738  2023-12-05 11:17:51.045505
739  2023-12-05 11:17:51.093372
740  2023-12-05 11:17:51.126287
741  2023-12-05 11:17:51.158199
742  2023-12-05 11:17:51.190114
743  2023-12-05 11:17:51.222041
744  2023-12-05 11:17:51.253945
745  2023-12-05 11:17:51.285829
746  2023-12-05 11:17:51.317773
747  2023-12-05 11:17:51.349656
748  2023-12-05 11:17:51.381666
749  2023-12-05 11:17:51.413554
750  2023-12-05 11:17:51.445524
751  2023-12-05 11:17:51.493394
752  2023-12-05 11:17:51.525280
753  2023-12-05 11:17:51.557200
754  2023-12-05 11:17:51.590116
755  2023-12-05 11:17:51.622022
756  2023-12-05 11:17:51.653946
757  2023-12-05 11:17:51.685858
758  2023-12-05 11:17:51.717786
759  2023-12-05 11:17:51.749683
760  2023-12-05 11:17:51.781607
761  2023-12-05 11:17:51.813518
762  2023-12-05 11:17:51.845447
763  2023-12-05 11:17:51.894300
764  2023-12-05 11:17:51.926216
765  2023-12-05 11:17:51.958128
766  2023-12-05 11:17:51.990043
767  2023-12-05 11:17:52.021960
768  2023-12-05 11:17:52.053874
769  2023-12-05 11:17:52.085791
770  2023-12-05 11:17:52.117670
771  2023-12-05 11:17:52.149616
772  2023-12-05 11:17:52.181539
773  2023-12-05 11:17:52.213459
774  2023-12-05 11:17:52.245360
775  2023-12-05 11:17:52.293231
776  2023-12-05 11:17:52.326147
777  2023-12-05 11:17:52.358072
778  2023-12-05 11:17:52.389972
779  2023-12-05 11:17:52.421891
780  2023-12-05 11:17:52.453806
781  2023-12-05 11:17:52.485693
782  2023-12-05 11:17:52.517635
783  2023-12-05 11:17:52.549563
784  2023-12-05 11:17:52.581470
785  2023-12-05 11:17:52.613388
786  2023-12-05 11:17:52.645309
787  2023-12-05 11:17:52.693169
788  2023-12-05 11:17:52.726076
789  2023-12-05 11:17:52.757988
790  2023-12-05 11:17:52.789904
791  2023-12-05 11:17:52.821822
792  2023-12-05 11:17:52.853733
793  2023-12-05 11:17:52.885647
794  2023-12-05 11:17:52.917568
795  2023-12-05 11:17:52.949444
796  2023-12-05 11:17:52.981359
797  2023-12-05 11:17:53.013316
798  2023-12-05 11:17:53.045233
799  2023-12-05 11:17:53.094089
800  2023-12-05 11:17:53.125003
801  2023-12-05 11:17:53.157917
802  2023-12-05 11:17:53.189835
803  2023-12-05 11:17:53.221749
804  2023-12-05 11:17:53.253664
805  2023-12-05 11:17:53.285586
806  2023-12-05 11:17:53.317497
807  2023-12-05 11:17:53.349405
808  2023-12-05 11:17:53.381319
809  2023-12-05 11:17:53.413246
810  2023-12-05 11:17:53.445150
811  2023-12-05 11:17:53.494024
812  2023-12-05 11:17:53.525933
813  2023-12-05 11:17:53.557848
814  2023-12-05 11:17:53.589764
815  2023-12-05 11:17:53.621678
816  2023-12-05 11:17:53.653607
817  2023-12-05 11:17:53.685519
818  2023-12-05 11:17:53.717424
819  2023-12-05 11:17:53.749306
820  2023-12-05 11:17:53.781262
821  2023-12-05 11:17:53.813167
822  2023-12-05 11:17:53.846096
823  2023-12-05 11:17:53.893949
824  2023-12-05 11:17:53.925858
825  2023-12-05 11:17:53.957778
826  2023-12-05 11:17:53.989695
827  2023-12-05 11:17:54.021618
828  2023-12-05 11:17:54.053526
829  2023-12-05 11:17:54.085436
830  2023-12-05 11:17:54.117381
831  2023-12-05 11:17:54.149241
832  2023-12-05 11:17:54.181244
833  2023-12-05 11:17:54.214173
834  2023-12-05 11:17:54.246063
835  2023-12-05 11:17:54.293938
836  2023-12-05 11:17:54.325849
837  2023-12-05 11:17:54.357770
838  2023-12-05 11:17:54.389679
839  2023-12-05 11:17:54.421605
840  2023-12-05 11:17:54.453520
841  2023-12-05 11:17:54.485429
842  2023-12-05 11:17:54.517344
843  2023-12-05 11:17:54.550216
844  2023-12-05 11:17:54.582138
845  2023-12-05 11:17:54.614099
846  2023-12-05 11:17:54.645992
847  2023-12-05 11:17:54.693864
848  2023-12-05 11:17:54.725776
849  2023-12-05 11:17:54.757663
850  2023-12-05 11:17:54.789578
851  2023-12-05 11:17:54.821526
852  2023-12-05 11:17:54.853436
853  2023-12-05 11:17:54.885353
854  2023-12-05 11:17:54.917398
855  2023-12-05 11:17:54.949250
856  2023-12-05 11:17:54.981164
857  2023-12-05 11:17:55.014109
858  2023-12-05 11:17:55.046033
859  2023-12-05 11:17:55.093896
860  2023-12-05 11:17:55.125813
861  2023-12-05 11:17:55.157727
862  2023-12-05 11:17:55.189673
863  2023-12-05 11:17:55.221694
864  2023-12-05 11:17:55.253634
865  2023-12-05 11:17:55.285524
866  2023-12-05 11:17:55.317445
867  2023-12-05 11:17:55.349362
868  2023-12-05 11:17:55.381275
869  2023-12-05 11:17:55.413149
870  2023-12-05 11:17:55.446139
871  2023-12-05 11:17:55.493127
872  2023-12-05 11:17:55.526040
873  2023-12-05 11:17:55.557955
874  2023-12-05 11:17:55.589870
875  2023-12-05 11:17:55.621792
876  2023-12-05 11:17:55.653665
877  2023-12-05 11:17:55.685611
878  2023-12-05 11:17:55.717528
879  2023-12-05 11:17:55.749449
880  2023-12-05 11:17:55.781323
881  2023-12-05 11:17:55.813238
882  2023-12-05 11:17:55.845185
883  2023-12-05 11:17:55.894062
884  2023-12-05 11:17:55.925970
885  2023-12-05 11:17:55.957884
886  2023-12-05 11:17:55.989801
887  2023-12-05 11:17:56.021718
888  2023-12-05 11:17:56.053600
889  2023-12-05 11:17:56.085545
890  2023-12-05 11:17:56.117476
891  2023-12-05 11:17:56.149426
892  2023-12-05 11:17:56.181342
893  2023-12-05 11:17:56.213222
894  2023-12-05 11:17:56.245177
895  2023-12-05 11:17:56.294037
896  2023-12-05 11:17:56.325955
897  2023-12-05 11:17:56.357869
898  2023-12-05 11:17:56.389792
899  2023-12-05 11:17:56.421699
900  2023-12-05 11:17:56.453602
901  2023-12-05 11:17:56.485528
902  2023-12-05 11:17:56.517455
903  2023-12-05 11:17:56.550322
904  2023-12-05 11:17:56.581272
905  2023-12-05 11:17:56.613152
906  2023-12-05 11:17:56.646097
907  2023-12-05 11:17:56.693978
908  2023-12-05 11:17:56.725884
909  2023-12-05 11:17:56.757894
910  2023-12-05 11:17:56.789821
911  2023-12-05 11:17:56.821763
912  2023-12-05 11:17:56.853671
913  2023-12-05 11:17:56.885698
914  2023-12-05 11:17:56.917728
915  2023-12-05 11:17:56.949723
916  2023-12-05 11:17:56.981600
917  2023-12-05 11:17:57.013552
918  2023-12-05 11:17:57.045464
919  2023-12-05 11:17:57.093491
920  2023-12-05 11:17:57.125427
921  2023-12-05 11:17:57.157320
922  2023-12-05 11:17:57.189358
923  2023-12-05 11:17:57.221274
924  2023-12-05 11:17:57.253183
925  2023-12-05 11:17:57.286097
926  2023-12-05 11:17:57.318002
927  2023-12-05 11:17:57.349916
928  2023-12-05 11:17:57.381831
929  2023-12-05 11:17:57.413748
930  2023-12-05 11:17:57.445724
931  2023-12-05 11:17:57.493603
932  2023-12-05 11:17:57.525517
933  2023-12-05 11:17:57.557433
934  2023-12-05 11:17:57.589352
935  2023-12-05 11:17:57.622256
936  2023-12-05 11:17:57.653138
937  2023-12-05 11:17:57.686090
938  2023-12-05 11:17:57.717995
939  2023-12-05 11:17:57.749910
940  2023-12-05 11:17:57.781793
941  2023-12-05 11:17:57.813708
942  2023-12-05 11:17:57.845656
943  2023-12-05 11:17:57.893531
944  2023-12-05 11:17:57.925462
945  2023-12-05 11:17:57.957366
946  2023-12-05 11:17:57.989279
947  2023-12-05 11:17:58.021195
948  2023-12-05 11:17:58.054110
949  2023-12-05 11:17:58.085980
950  2023-12-05 11:17:58.117923
951  2023-12-05 11:17:58.149845
952  2023-12-05 11:17:58.181758
953  2023-12-05 11:17:58.213678
954  2023-12-05 11:17:58.245682
955  2023-12-05 11:17:58.293565
956  2023-12-05 11:17:58.325477
957  2023-12-05 11:17:58.357379
958  2023-12-05 11:17:58.389310
959  2023-12-05 11:17:58.421214
960  2023-12-05 11:17:58.453133
961  2023-12-05 11:17:58.486001
962  2023-12-05 11:17:58.517947
963  2023-12-05 11:17:58.549865
964  2023-12-05 11:17:58.581778
965  2023-12-05 11:17:58.613697
966  2023-12-05 11:17:58.645610
967  2023-12-05 11:17:58.693483
968  2023-12-05 11:17:58.725396
969  2023-12-05 11:17:58.758343
970  2023-12-05 11:17:58.790188
971  2023-12-05 11:17:58.822136
972  2023-12-05 11:17:58.854017
973  2023-12-05 11:17:58.885932
974  2023-12-05 11:17:58.917847
975  2023-12-05 11:17:58.949799
976  2023-12-05 11:17:58.981717
977  2023-12-05 11:17:59.013625
978  2023-12-05 11:17:59.045541
979  2023-12-05 11:17:59.093417
980  2023-12-05 11:17:59.126292
981  2023-12-05 11:17:59.157244
982  2023-12-05 11:17:59.190167
983  2023-12-05 11:17:59.222070
984  2023-12-05 11:17:59.253978
985  2023-12-05 11:17:59.285862
986  2023-12-05 11:17:59.317808
987  2023-12-05 11:17:59.349727
988  2023-12-05 11:17:59.381640
989  2023-12-05 11:17:59.413520
990  2023-12-05 11:17:59.445435
991  2023-12-05 11:17:59.493348
992  2023-12-05 11:17:59.525267
993  2023-12-05 11:17:59.557171
994  2023-12-05 11:17:59.590083
995  2023-12-05 11:17:59.621963
996  2023-12-05 11:17:59.653910
997  2023-12-05 11:17:59.685792
998  2023-12-05 11:17:59.717741
999  2023-12-05 11:17:59.749659
1000  2023-12-05 11:17:59.781586
1001  2023-12-05 11:17:59.813450
1002  2023-12-05 11:17:59.845405
1003  2023-12-05 11:17:59.893277
1004  2023-12-05 11:17:59.925200
1005  2023-12-05 11:17:59.958097
1006  2023-12-05 11:17:59.990013
1007  2023-12-05 11:18:00.021893
1008  2023-12-05 11:18:00.053840
1009  2023-12-05 11:18:00.085756
1010  2023-12-05 11:18:00.117637
1011  2023-12-05 11:18:00.149589
1012  2023-12-05 11:18:00.181501
1013  2023-12-05 11:18:00.213419
1014  2023-12-05 11:18:00.245295
1015  2023-12-05 11:18:00.293215
1016  2023-12-05 11:18:00.325128
1017  2023-12-05 11:18:00.358027
1018  2023-12-05 11:18:00.389940
1019  2023-12-05 11:18:00.421823
1020  2023-12-05 11:18:00.453737
1021  2023-12-05 11:18:00.485652
1022  2023-12-05 11:18:00.517567
1023  2023-12-05 11:18:00.549481
1024  2023-12-05 11:18:00.581396
1025  2023-12-05 11:18:00.613311
1026  2023-12-05 11:18:00.645225
1027  2023-12-05 11:18:00.693137
1028  2023-12-05 11:18:00.726069
1029  2023-12-05 11:18:00.757925
1030  2023-12-05 11:18:00.789841
1031  2023-12-05 11:18:00.821753
1032  2023-12-05 11:18:00.853668
1033  2023-12-05 11:18:00.885583
1034  2023-12-05 11:18:00.917497
1035  2023-12-05 11:18:00.949411
1036  2023-12-05 11:18:00.981326
1037  2023-12-05 11:18:01.013290
1038  2023-12-05 11:18:01.045186
1039  2023-12-05 11:18:01.094068
1040  2023-12-05 11:18:01.125977
1041  2023-12-05 11:18:01.157887
1042  2023-12-05 11:18:01.189769
1043  2023-12-05 11:18:01.221723
1044  2023-12-05 11:18:01.253632
1045  2023-12-05 11:18:01.285512
1046  2023-12-05 11:18:01.317430
1047  2023-12-05 11:18:01.349382
1048  2023-12-05 11:18:01.381297
1049  2023-12-05 11:18:01.413171
1050  2023-12-05 11:18:01.446083
1051  2023-12-05 11:18:01.493990
1052  2023-12-05 11:18:01.525904
1053  2023-12-05 11:18:01.557815
1054  2023-12-05 11:18:01.589732
1055  2023-12-05 11:18:01.621615
1056  2023-12-05 11:18:01.653528
1057  2023-12-05 11:18:01.685451
1058  2023-12-05 11:18:01.717357
1059  2023-12-05 11:18:01.749272
1060  2023-12-05 11:18:01.781186
1061  2023-12-05 11:18:01.814098
1062  2023-12-05 11:18:01.846013
1063  2023-12-05 11:18:01.893924
1064  2023-12-05 11:18:01.925832
1065  2023-12-05 11:18:01.957749
1066  2023-12-05 11:18:01.989629
1067  2023-12-05 11:18:02.021545
1068  2023-12-05 11:18:02.053458
1069  2023-12-05 11:18:02.085372
1070  2023-12-05 11:18:02.117287
1071  2023-12-05 11:18:02.150200
1072  2023-12-05 11:18:02.182125
1073  2023-12-05 11:18:02.214028
1074  2023-12-05 11:18:02.245943
1075  2023-12-05 11:18:02.293846
1076  2023-12-05 11:18:02.325730
1077  2023-12-05 11:18:02.357683
1078  2023-12-05 11:18:02.389561
1079  2023-12-05 11:18:02.421473
1080  2023-12-05 11:18:02.453388
1081  2023-12-05 11:18:02.485303
1082  2023-12-05 11:18:02.517217
1083  2023-12-05 11:18:02.549132
1084  2023-12-05 11:18:02.582044
1085  2023-12-05 11:18:02.613958
1086  2023-12-05 11:18:02.645877
1087  2023-12-05 11:18:02.693776
1088  2023-12-05 11:18:02.725687
1089  2023-12-05 11:18:02.757575
1090  2023-12-05 11:18:02.789503
1091  2023-12-05 11:18:02.821403
1092  2023-12-05 11:18:02.853318
1093  2023-12-05 11:18:02.885266
1094  2023-12-05 11:18:02.917178
1095  2023-12-05 11:18:02.950059
1096  2023-12-05 11:18:02.981974
1097  2023-12-05 11:18:03.013923
1098  2023-12-05 11:18:03.045838
1099  2023-12-05 11:18:03.093713
1100  2023-12-05 11:18:03.125595
1101  2023-12-05 11:18:03.157561
1102  2023-12-05 11:18:03.189419
1103  2023-12-05 11:18:03.221383
1104  2023-12-05 11:18:03.253283
1105  2023-12-05 11:18:03.285163
1106  2023-12-05 11:18:03.318075
1107  2023-12-05 11:18:03.350026
1108  2023-12-05 11:18:03.381953
1109  2023-12-05 11:18:03.413819
1110  2023-12-05 11:18:03.445733
1111  2023-12-05 11:18:03.477649
1112  2023-12-05 11:18:03.525557
1113  2023-12-05 11:18:03.557474
1114  2023-12-05 11:18:03.589351
1115  2023-12-05 11:18:03.621265
1116  2023-12-05 11:18:03.653179
1117  2023-12-05 11:18:03.685094
1118  2023-12-05 11:18:03.718006
1119  2023-12-05 11:18:03.749921
1120  2023-12-05 11:18:03.781836
1121  2023-12-05 11:18:03.813750
1122  2023-12-05 11:18:03.845665
1123  2023-12-05 11:18:03.877579
1124  2023-12-05 11:18:03.925487
1125  2023-12-05 11:18:03.957415
1126  2023-12-05 11:18:03.989280
1127  2023-12-05 11:18:04.021195
1128  2023-12-05 11:18:04.053110
1129  2023-12-05 11:18:04.086023
1130  2023-12-05 11:18:04.117937
1131  2023-12-05 11:18:04.149851
1132  2023-12-05 11:18:04.181766
1133  2023-12-05 11:18:04.213681
1134  2023-12-05 11:18:04.245595
1135  2023-12-05 11:18:04.277510
1136  2023-12-05 11:18:04.325414
1137  2023-12-05 11:18:04.357333
1138  2023-12-05 11:18:04.389211
1139  2023-12-05 11:18:04.422181
1140  2023-12-05 11:18:04.454037
1141  2023-12-05 11:18:04.485952
1142  2023-12-05 11:18:04.517867
1143  2023-12-05 11:18:04.549814
1144  2023-12-05 11:18:04.581729
1145  2023-12-05 11:18:04.613610
1146  2023-12-05 11:18:04.645525
1147  2023-12-05 11:18:04.677440
1148  2023-12-05 11:18:04.725351
1149  2023-12-05 11:18:04.757227
1150  2023-12-05 11:18:04.789141
1151  2023-12-05 11:18:04.822070
1152  2023-12-05 11:18:04.853968
1153  2023-12-05 11:18:04.885963
1154  2023-12-05 11:18:04.918065
1155  2023-12-05 11:18:04.949944
1156  2023-12-05 11:18:04.981859
1157  2023-12-05 11:18:05.013808
1158  2023-12-05 11:18:05.045727
1159  2023-12-05 11:18:05.077602
1160  2023-12-05 11:18:05.125517
1161  2023-12-05 11:18:05.157389
1162  2023-12-05 11:18:05.189304
1163  2023-12-05 11:18:05.221250
1164  2023-12-05 11:18:05.253164
1165  2023-12-05 11:18:05.286055
1166  2023-12-05 11:18:05.317959
1167  2023-12-05 11:18:05.349905
1168  2023-12-05 11:18:05.381821
1169  2023-12-05 11:18:05.413703
1170  2023-12-05 11:18:05.445673
1171  2023-12-05 11:18:05.477588
1172  2023-12-05 11:18:05.525501
1173  2023-12-05 11:18:05.557375
1174  2023-12-05 11:18:05.589289
1175  2023-12-05 11:18:05.621204
1176  2023-12-05 11:18:05.653118
1177  2023-12-05 11:18:05.686030
1178  2023-12-05 11:18:05.717945
1179  2023-12-05 11:18:05.749860
1180  2023-12-05 11:18:05.781774
1181  2023-12-05 11:18:05.813689
1182  2023-12-05 11:18:05.845603
1183  2023-12-05 11:18:05.877518
1184  2023-12-05 11:18:05.925446
1185  2023-12-05 11:18:05.957305
1186  2023-12-05 11:18:05.989219
1187  2023-12-05 11:18:06.022131
1188  2023-12-05 11:18:06.054046
1189  2023-12-05 11:18:06.085960
1190  2023-12-05 11:18:06.117875
1191  2023-12-05 11:18:06.149790
1192  2023-12-05 11:18:06.181707
1193  2023-12-05 11:18:06.213656
1194  2023-12-05 11:18:06.245534
1195  2023-12-05 11:18:06.277479
1196  2023-12-05 11:18:06.325368
1197  2023-12-05 11:18:06.357235
1198  2023-12-05 11:18:06.389149
1199  2023-12-05 11:18:06.422062
1200  2023-12-05 11:18:06.453976
1201  2023-12-05 11:18:06.485891
1202  2023-12-05 11:18:06.517805
1203  2023-12-05 11:18:06.549753
1204  2023-12-05 11:18:06.581634
1205  2023-12-05 11:18:06.613549
1206  2023-12-05 11:18:06.645464
1207  2023-12-05 11:18:06.677410
1208  2023-12-05 11:18:06.725284
1209  2023-12-05 11:18:06.757201
1210  2023-12-05 11:18:06.789080
1211  2023-12-05 11:18:06.821991
1212  2023-12-05 11:18:06.853907
1213  2023-12-05 11:18:06.885854
1214  2023-12-05 11:18:06.917767
1215  2023-12-05 11:18:06.949650
1216  2023-12-05 11:18:06.981565
1217  2023-12-05 11:18:07.013521
1218  2023-12-05 11:18:07.045426
1219  2023-12-05 11:18:07.077308
1220  2023-12-05 11:18:07.125215
1221  2023-12-05 11:18:07.158093
1222  2023-12-05 11:18:07.190007
1223  2023-12-05 11:18:07.221951
1224  2023-12-05 11:18:07.253873
1225  2023-12-05 11:18:07.285751
1226  2023-12-05 11:18:07.317681
1227  2023-12-05 11:18:07.349629
1228  2023-12-05 11:18:07.381528
1229  2023-12-05 11:18:07.413409
1230  2023-12-05 11:18:07.445324
1231  2023-12-05 11:18:07.477239
1232  2023-12-05 11:18:07.525150
1233  2023-12-05 11:18:07.558022
1234  2023-12-05 11:18:07.589937
1235  2023-12-05 11:18:07.621852
1236  2023-12-05 11:18:07.653767
1237  2023-12-05 11:18:07.685681
1238  2023-12-05 11:18:07.717596
1239  2023-12-05 11:18:07.749510
1240  2023-12-05 11:18:07.781425
1241  2023-12-05 11:18:07.813339
1242  2023-12-05 11:18:07.845254
1243  2023-12-05 11:18:07.877169
1244  2023-12-05 11:18:07.926085
1245  2023-12-05 11:18:07.957953
1246  2023-12-05 11:18:07.989867
1247  2023-12-05 11:18:08.021782
1248  2023-12-05 11:18:08.053697
1249  2023-12-05 11:18:08.085755
1250  2023-12-05 11:18:08.117669
1251  2023-12-05 11:18:08.149584
1252  2023-12-05 11:18:08.181498
1253  2023-12-05 11:18:08.213413
1254  2023-12-05 11:18:08.245328
1255  2023-12-05 11:18:08.277242
1256  2023-12-05 11:18:08.326112
1257  2023-12-05 11:18:08.358027
1258  2023-12-05 11:18:08.389941
1259  2023-12-05 11:18:08.421992
1260  2023-12-05 11:18:08.453770
1261  2023-12-05 11:18:08.485685
1262  2023-12-05 11:18:08.517599
1263  2023-12-05 11:18:08.549514
1264  2023-12-05 11:18:08.581429
1265  2023-12-05 11:18:08.613343
1266  2023-12-05 11:18:08.645258
1267  2023-12-05 11:18:08.678170
1268  2023-12-05 11:18:08.726042
1269  2023-12-05 11:18:08.758029
1270  2023-12-05 11:18:08.789944
1271  2023-12-05 11:18:08.821858
1272  2023-12-05 11:18:08.853773
1273  2023-12-05 11:18:08.885688
1274  2023-12-05 11:18:08.917642
1275  2023-12-05 11:18:08.949517
1276  2023-12-05 11:18:08.981431
1277  2023-12-05 11:18:09.013346
1278  2023-12-05 11:18:09.045261
1279  2023-12-05 11:18:09.077175
1280  2023-12-05 11:18:09.126090
1281  2023-12-05 11:18:09.157959
1282  2023-12-05 11:18:09.189873
1283  2023-12-05 11:18:09.221788
1284  2023-12-05 11:18:09.253739
1285  2023-12-05 11:18:09.285617
1286  2023-12-05 11:18:09.317532
1287  2023-12-05 11:18:09.349448
1288  2023-12-05 11:18:09.381395
1289  2023-12-05 11:18:09.413276
1290  2023-12-05 11:18:09.445190
1291  2023-12-05 11:18:09.477110
1292  2023-12-05 11:18:09.525974
1293  2023-12-05 11:18:09.557899
1294  2023-12-05 11:18:09.589835
1295  2023-12-05 11:18:09.621718
1296  2023-12-05 11:18:09.653633
1297  2023-12-05 11:18:09.685547
1298  2023-12-05 11:18:09.717499
1299  2023-12-05 11:18:09.749377
1300  2023-12-05 11:18:09.781291
1301  2023-12-05 11:18:09.813206
1302  2023-12-05 11:18:09.845154
1303  2023-12-05 11:18:09.878060
1304  2023-12-05 11:18:09.925937
1305  2023-12-05 11:18:09.957820
1306  2023-12-05 11:18:09.989734
1307  2023-12-05 11:18:10.021648
1308  2023-12-05 11:18:10.053595
1309  2023-12-05 11:18:10.085478
1310  2023-12-05 11:18:10.117392
1311  2023-12-05 11:18:10.149307
1312  2023-12-05 11:18:10.181252
1313  2023-12-05 11:18:10.213166
1314  2023-12-05 11:18:10.246048
1315  2023-12-05 11:18:10.277963
1316  2023-12-05 11:18:10.325835
1317  2023-12-05 11:18:10.357749
1318  2023-12-05 11:18:10.389664
1319  2023-12-05 11:18:10.421579
1320  2023-12-05 11:18:10.453493
1321  2023-12-05 11:18:10.485408
1322  2023-12-05 11:18:10.517323
1323  2023-12-05 11:18:10.549237
1324  2023-12-05 11:18:10.581152
1325  2023-12-05 11:18:10.614064
1326  2023-12-05 11:18:10.645978
1327  2023-12-05 11:18:10.678021
1328  2023-12-05 11:18:10.725878
1329  2023-12-05 11:18:10.757793
1330  2023-12-05 11:18:10.789707
1331  2023-12-05 11:18:10.821622
1332  2023-12-05 11:18:10.853537
1333  2023-12-05 11:18:10.885451
1334  2023-12-05 11:18:10.917366
1335  2023-12-05 11:18:10.949280
1336  2023-12-05 11:18:10.982197
1337  2023-12-05 11:18:11.014115
1338  2023-12-05 11:18:11.046022
1339  2023-12-05 11:18:11.077936
1340  2023-12-05 11:18:11.125815
1341  2023-12-05 11:18:11.157723
1342  2023-12-05 11:18:11.189638
1343  2023-12-05 11:18:11.222582
1344  2023-12-05 11:18:11.254495
1345  2023-12-05 11:18:11.286413
1346  2023-12-05 11:18:11.318295
1347  2023-12-05 11:18:11.350209
1348  2023-12-05 11:18:11.382272
1349  2023-12-05 11:18:11.414038
1350  2023-12-05 11:18:11.445952
1351  2023-12-05 11:18:11.477882
1352  2023-12-05 11:18:11.525739
1353  2023-12-05 11:18:11.557653
1354  2023-12-05 11:18:11.590599
1355  2023-12-05 11:18:11.622481
1356  2023-12-05 11:18:11.653397
1357  2023-12-05 11:18:11.686342
1358  2023-12-05 11:18:11.718226
1359  2023-12-05 11:18:11.750171
1360  2023-12-05 11:18:11.782104
1361  2023-12-05 11:18:11.814015
1362  2023-12-05 11:18:11.845916
1363  2023-12-05 11:18:11.877797
1364  2023-12-05 11:18:11.925696
1365  2023-12-05 11:18:11.957588
1366  2023-12-05 11:18:11.989500
1367  2023-12-05 11:18:12.021412
1368  2023-12-05 11:18:12.054327
1369  2023-12-05 11:18:12.086270
1370  2023-12-05 11:18:12.118154
1371  2023-12-05 11:18:12.150069
1372  2023-12-05 11:18:12.181984
1373  2023-12-05 11:18:12.213932
1374  2023-12-05 11:18:12.245880
1375  2023-12-05 11:18:12.277758
1376  2023-12-05 11:18:12.325634
1377  2023-12-05 11:18:12.357551
1378  2023-12-05 11:18:12.389429
1379  2023-12-05 11:18:12.421375
1380  2023-12-05 11:18:12.453258
1381  2023-12-05 11:18:12.485173
1382  2023-12-05 11:18:12.518125
1383  2023-12-05 11:18:12.550050
1384  2023-12-05 11:18:12.581914
1385  2023-12-05 11:18:12.613865
1386  2023-12-05 11:18:12.646775
1387  2023-12-05 11:18:12.677694
1388  2023-12-05 11:18:12.726570
1389  2023-12-05 11:18:12.757477
1390  2023-12-05 11:18:12.789390
1391  2023-12-05 11:18:12.822271
1392  2023-12-05 11:18:12.854214
1393  2023-12-05 11:18:12.886132
1394  2023-12-05 11:18:12.918047
1395  2023-12-05 11:18:12.949929
1396  2023-12-05 11:18:12.981850
1397  2023-12-05 11:18:13.013794
1398  2023-12-05 11:18:13.045675
1399  2023-12-05 11:18:13.077587
1400  2023-12-05 11:18:13.125466
1401  2023-12-05 11:18:13.157374
1402  2023-12-05 11:18:13.189316
1403  2023-12-05 11:18:13.222227
1404  2023-12-05 11:18:13.254161
1405  2023-12-05 11:18:13.286058
1406  2023-12-05 11:18:13.317945
1407  2023-12-05 11:18:13.349897
1408  2023-12-05 11:18:13.381806
1409  2023-12-05 11:18:13.413721
1410  2023-12-05 11:18:13.445634
1411  2023-12-05 11:18:13.477518
1412  2023-12-05 11:18:13.525424
1413  2023-12-05 11:18:13.557334
1414  2023-12-05 11:18:13.589249
1415  2023-12-05 11:18:13.621133
1416  2023-12-05 11:18:13.654093
1417  2023-12-05 11:18:13.685994
1418  2023-12-05 11:18:13.717920
1419  2023-12-05 11:18:13.749823
1420  2023-12-05 11:18:13.781737
1421  2023-12-05 11:18:13.813659
1422  2023-12-05 11:18:13.845568
1423  2023-12-05 11:18:13.877448
1424  2023-12-05 11:18:13.925355
1425  2023-12-05 11:18:13.957234
1426  2023-12-05 11:18:13.989181
1427  2023-12-05 11:18:14.022062
1428  2023-12-05 11:18:14.054009
1429  2023-12-05 11:18:14.085891
1430  2023-12-05 11:18:14.117806
1431  2023-12-05 11:18:14.149720
1432  2023-12-05 11:18:14.181689
1433  2023-12-05 11:18:14.213580
1434  2023-12-05 11:18:14.245498
1435  2023-12-05 11:18:14.277418
1436  2023-12-05 11:18:14.325280
1437  2023-12-05 11:18:14.357204
1438  2023-12-05 11:18:14.390077
1439  2023-12-05 11:18:14.422004
1440  2023-12-05 11:18:14.453937
1441  2023-12-05 11:18:14.485822
1442  2023-12-05 11:18:14.517804
1443  2023-12-05 11:18:14.549650
1444  2023-12-05 11:18:14.581592
1445  2023-12-05 11:18:14.613512
1446  2023-12-05 11:18:14.645427
1447  2023-12-05 11:18:14.678307
1448  2023-12-05 11:18:14.725220
1449  2023-12-05 11:18:14.758093
1450  2023-12-05 11:18:14.790007
1451  2023-12-05 11:18:14.821922
1452  2023-12-05 11:18:14.853919
1453  2023-12-05 11:18:14.885942
1454  2023-12-05 11:18:14.917803
1455  2023-12-05 11:18:14.949793
1456  2023-12-05 11:18:14.981819
1457  2023-12-05 11:18:15.013684
1458  2023-12-05 11:18:15.045673
1459  2023-12-05 11:18:15.077587
1460  2023-12-05 11:18:15.125630
1461  2023-12-05 11:18:15.157620
1462  2023-12-05 11:18:15.189504
1463  2023-12-05 11:18:15.221626
1464  2023-12-05 11:18:15.253622
1465  2023-12-05 11:18:15.285535
1466  2023-12-05 11:18:15.317453
1467  2023-12-05 11:18:15.349357
1468  2023-12-05 11:18:15.381271
1469  2023-12-05 11:18:15.413196
1470  2023-12-05 11:18:15.446101
1471  2023-12-05 11:18:15.478042
1472  2023-12-05 11:18:15.525886
1473  2023-12-05 11:18:15.557802
1474  2023-12-05 11:18:15.589708
1475  2023-12-05 11:18:15.621595
1476  2023-12-05 11:18:15.653544
1477  2023-12-05 11:18:15.685455
1478  2023-12-05 11:18:15.717373
1479  2023-12-05 11:18:15.749253
1480  2023-12-05 11:18:15.781168
1481  2023-12-05 11:18:15.814108
1482  2023-12-05 11:18:15.846026
1483  2023-12-05 11:18:15.877941
1484  2023-12-05 11:18:15.925817
1485  2023-12-05 11:18:15.957733
1486  2023-12-05 11:18:15.989646
1487  2023-12-05 11:18:16.021525
1488  2023-12-05 11:18:16.053473
1489  2023-12-05 11:18:16.085401
1490  2023-12-05 11:18:16.117313
1491  2023-12-05 11:18:16.149184
1492  2023-12-05 11:18:16.182242
1493  2023-12-05 11:18:16.214162
1494  2023-12-05 11:18:16.246076
1495  2023-12-05 11:18:16.277985
1496  2023-12-05 11:18:16.325862
1497  2023-12-05 11:18:16.357775
1498  2023-12-05 11:18:16.389691
1499  2023-12-05 11:18:16.421570
1500  2023-12-05 11:18:16.453614
1501  2023-12-05 11:18:16.485513
1502  2023-12-05 11:18:16.517428
1503  2023-12-05 11:18:16.549313
1504  2023-12-05 11:18:16.582267
1505  2023-12-05 11:18:16.614174
1506  2023-12-05 11:18:16.646082
1507  2023-12-05 11:18:16.677997
1508  2023-12-05 11:18:16.725868
1509  2023-12-05 11:18:16.757768
1510  2023-12-05 11:18:16.789669
1511  2023-12-05 11:18:16.821581
1512  2023-12-05 11:18:16.853647
1513  2023-12-05 11:18:16.885522
1514  2023-12-05 11:18:16.918435
1515  2023-12-05 11:18:16.949351
1516  2023-12-05 11:18:16.981265
1517  2023-12-05 11:18:17.014210
1518  2023-12-05 11:18:17.046126
1519  2023-12-05 11:18:17.078037
1520  2023-12-05 11:18:17.125879
1521  2023-12-05 11:18:17.157825
1522  2023-12-05 11:18:17.189740
1523  2023-12-05 11:18:17.221656
1524  2023-12-05 11:18:17.253571
1525  2023-12-05 11:18:17.285499
1526  2023-12-05 11:18:17.317408
1527  2023-12-05 11:18:17.349432
1528  2023-12-05 11:18:17.381347
1529  2023-12-05 11:18:17.414261
1530  2023-12-05 11:18:17.445302
1531  2023-12-05 11:18:17.477218
1532  2023-12-05 11:18:17.526083
1533  2023-12-05 11:18:17.557991
1534  2023-12-05 11:18:17.589906
1535  2023-12-05 11:18:17.621789
1536  2023-12-05 11:18:17.653704
1537  2023-12-05 11:18:17.685651
1538  2023-12-05 11:18:17.717576
1539  2023-12-05 11:18:17.749479
1540  2023-12-05 11:18:17.781396
1541  2023-12-05 11:18:17.814274
1542  2023-12-05 11:18:17.845232
1543  2023-12-05 11:18:17.878136
1544  2023-12-05 11:18:17.926007
1545  2023-12-05 11:18:17.957920
1546  2023-12-05 11:18:17.989838
1547  2023-12-05 11:18:18.021754
1548  2023-12-05 11:18:18.053667
1549  2023-12-05 11:18:18.085583
1550  2023-12-05 11:18:18.117495
1551  2023-12-05 11:18:18.149418
1552  2023-12-05 11:18:18.181322
1553  2023-12-05 11:18:18.213238
1554  2023-12-05 11:18:18.245169
1555  2023-12-05 11:18:18.278080
1556  2023-12-05 11:18:18.325940
1557  2023-12-05 11:18:18.357858
1558  2023-12-05 11:18:18.389769
1559  2023-12-05 11:18:18.421649
1560  2023-12-05 11:18:18.453564
1561  2023-12-05 11:18:18.485523
1562  2023-12-05 11:18:18.517427
1563  2023-12-05 11:18:18.549341
1564  2023-12-05 11:18:18.581222
1565  2023-12-05 11:18:18.613137
1566  2023-12-05 11:18:18.646085
1567  2023-12-05 11:18:18.677995
1568  2023-12-05 11:18:18.725862
1569  2023-12-05 11:18:18.757786
1570  2023-12-05 11:18:18.789698
1571  2023-12-05 11:18:18.821579
1572  2023-12-05 11:18:18.853526
1573  2023-12-05 11:18:18.885438
1574  2023-12-05 11:18:18.917364
1575  2023-12-05 11:18:18.949269
1576  2023-12-05 11:18:18.981183
1577  2023-12-05 11:18:19.013097
1578  2023-12-05 11:18:19.046010
1579  2023-12-05 11:18:19.077924
1580  2023-12-05 11:18:19.125798
1581  2023-12-05 11:18:19.157715
1582  2023-12-05 11:18:19.189625
1583  2023-12-05 11:18:19.221521
1584  2023-12-05 11:18:19.254465
1585  2023-12-05 11:18:19.285381
1586  2023-12-05 11:18:19.317304
1587  2023-12-05 11:18:19.349287
1588  2023-12-05 11:18:19.382207
1589  2023-12-05 11:18:19.414119
1590  2023-12-05 11:18:19.445133
1591  2023-12-05 11:18:19.478102
1592  2023-12-05 11:18:19.525971
1593  2023-12-05 11:18:19.557884
1594  2023-12-05 11:18:19.589801
1595  2023-12-05 11:18:19.621683
1596  2023-12-05 11:18:19.653598
1597  2023-12-05 11:18:19.685559
1598  2023-12-05 11:18:19.717461
1599  2023-12-05 11:18:19.749376
1600  2023-12-05 11:18:19.782253
1601  2023-12-05 11:18:19.813171
1602  2023-12-05 11:18:19.846113
1603  2023-12-05 11:18:19.877183
1604  2023-12-05 11:18:19.926056
1605  2023-12-05 11:18:19.957948
1606  2023-12-05 11:18:19.989863
1607  2023-12-05 11:18:20.021777
1608  2023-12-05 11:18:20.053694
1609  2023-12-05 11:18:20.085575
1610  2023-12-05 11:18:20.117524
1611  2023-12-05 11:18:20.149457
1612  2023-12-05 11:18:20.181357
1613  2023-12-05 11:18:20.213233
1614  2023-12-05 11:18:20.245186
1615  2023-12-05 11:18:20.278094
1616  2023-12-05 11:18:20.325932
1617  2023-12-05 11:18:20.357882
1618  2023-12-05 11:18:20.389787
1619  2023-12-05 11:18:20.421709
1620  2023-12-05 11:18:20.453591
1621  2023-12-05 11:18:20.485505
1622  2023-12-05 11:18:20.518420
1623  2023-12-05 11:18:20.549365
1624  2023-12-05 11:18:20.582280
1625  2023-12-05 11:18:20.614161
1626  2023-12-05 11:18:20.646114
1627  2023-12-05 11:18:20.678024
1628  2023-12-05 11:18:20.725894
1629  2023-12-05 11:18:20.757824
1630  2023-12-05 11:18:20.789726
1631  2023-12-05 11:18:20.821639
1632  2023-12-05 11:18:20.853559
1633  2023-12-05 11:18:20.885474
1634  2023-12-05 11:18:20.918383
1635  2023-12-05 11:18:20.949304
1636  2023-12-05 11:18:20.981209
1637  2023-12-05 11:18:21.014091
1638  2023-12-05 11:18:21.046047
1639  2023-12-05 11:18:21.077954
1640  2023-12-05 11:18:21.125825
1641  2023-12-05 11:18:21.157746
1642  2023-12-05 11:18:21.189665
1643  2023-12-05 11:18:21.221572
1644  2023-12-05 11:18:21.253499
1645  2023-12-05 11:18:21.285365
1646  2023-12-05 11:18:21.317321
1647  2023-12-05 11:18:21.349226
1648  2023-12-05 11:18:21.381110
1649  2023-12-05 11:18:21.414021
1650  2023-12-05 11:18:21.445976
1651  2023-12-05 11:18:21.477885
1652  2023-12-05 11:18:21.525723
1653  2023-12-05 11:18:21.557671
1654  2023-12-05 11:18:21.589612
1655  2023-12-05 11:18:21.621514
1656  2023-12-05 11:18:21.653381
1657  2023-12-05 11:18:21.685296
1658  2023-12-05 11:18:21.717247
1659  2023-12-05 11:18:21.749126
1660  2023-12-05 11:18:21.782069
1661  2023-12-05 11:18:21.813952
1662  2023-12-05 11:18:21.845906
1663  2023-12-05 11:18:21.877816
1664  2023-12-05 11:18:21.925697
1665  2023-12-05 11:18:21.957605
1666  2023-12-05 11:18:21.989648
1667  2023-12-05 11:18:22.021566
1668  2023-12-05 11:18:22.053471
1669  2023-12-05 11:18:22.085395
1670  2023-12-05 11:18:22.117316
1671  2023-12-05 11:18:22.149251
1672  2023-12-05 11:18:22.181166
1673  2023-12-05 11:18:22.214091
1674  2023-12-05 11:18:22.245993
1675  2023-12-05 11:18:22.277907
1676  2023-12-05 11:18:22.325744
1677  2023-12-05 11:18:22.357692
1678  2023-12-05 11:18:22.389619
1679  2023-12-05 11:18:22.421520
1680  2023-12-05 11:18:22.453402
1681  2023-12-05 11:18:22.485317
1682  2023-12-05 11:18:22.517262
1683  2023-12-05 11:18:22.549179
1684  2023-12-05 11:18:22.582058
1685  2023-12-05 11:18:22.613973
1686  2023-12-05 11:18:22.645922
1687  2023-12-05 11:18:22.677840
1688  2023-12-05 11:18:22.725674
1689  2023-12-05 11:18:22.757589
1690  2023-12-05 11:18:22.789550
1691  2023-12-05 11:18:22.821451
1692  2023-12-05 11:18:22.853369
1693  2023-12-05 11:18:22.885247
1694  2023-12-05 11:18:22.917162
1695  2023-12-05 11:18:22.950074
1696  2023-12-05 11:18:22.981988
1697  2023-12-05 11:18:23.013903
1698  2023-12-05 11:18:23.045850
1699  2023-12-05 11:18:23.077768
1700  2023-12-05 11:18:23.125604
1701  2023-12-05 11:18:23.157524
1702  2023-12-05 11:18:23.189435
1703  2023-12-05 11:18:23.221348
1704  2023-12-05 11:18:23.253263
1705  2023-12-05 11:18:23.285177
1706  2023-12-05 11:18:23.317092
1707  2023-12-05 11:18:23.350004
1708  2023-12-05 11:18:23.381919
1709  2023-12-05 11:18:23.413875
1710  2023-12-05 11:18:23.445857
1711  2023-12-05 11:18:23.477703
1712  2023-12-05 11:18:23.525534
1713  2023-12-05 11:18:23.557449
1714  2023-12-05 11:18:23.589364
1715  2023-12-05 11:18:23.621278
1716  2023-12-05 11:18:23.653193
1717  2023-12-05 11:18:23.685107
1718  2023-12-05 11:18:23.718020
1719  2023-12-05 11:18:23.749934
1720  2023-12-05 11:18:23.781849
1721  2023-12-05 11:18:23.813802
1722  2023-12-05 11:18:23.845714
1723  2023-12-05 11:18:23.877627
1724  2023-12-05 11:18:23.925465
1725  2023-12-05 11:18:23.957379
1726  2023-12-05 11:18:23.989301
1727  2023-12-05 11:18:24.022206
1728  2023-12-05 11:18:24.053158
1729  2023-12-05 11:18:24.086080
1730  2023-12-05 11:18:24.117949
1731  2023-12-05 11:18:24.149864
1732  2023-12-05 11:18:24.181779
1733  2023-12-05 11:18:24.213729
1734  2023-12-05 11:18:24.245644
1735  2023-12-05 11:18:24.277562
1736  2023-12-05 11:18:24.325394
1737  2023-12-05 11:18:24.357309
1738  2023-12-05 11:18:24.389272
1739  2023-12-05 11:18:24.421173
1740  2023-12-05 11:18:24.454050
1741  2023-12-05 11:18:24.485965
1742  2023-12-05 11:18:24.517880
1743  2023-12-05 11:18:24.549829
1744  2023-12-05 11:18:24.581709
1745  2023-12-05 11:18:24.613656
1746  2023-12-05 11:18:24.645581
1747  2023-12-05 11:18:24.677486
1748  2023-12-05 11:18:24.725325
1749  2023-12-05 11:18:24.757270
1750  2023-12-05 11:18:24.790151
1751  2023-12-05 11:18:24.821068
1752  2023-12-05 11:18:24.853983
1753  2023-12-05 11:18:24.885935
1754  2023-12-05 11:18:24.917811
1755  2023-12-05 11:18:24.949726
1756  2023-12-05 11:18:24.981640
1757  2023-12-05 11:18:25.013588
1758  2023-12-05 11:18:25.045517
1759  2023-12-05 11:18:25.077440
1760  2023-12-05 11:18:25.125256
1761  2023-12-05 11:18:25.157327
1762  2023-12-05 11:18:25.189241
1763  2023-12-05 11:18:25.221190
1764  2023-12-05 11:18:25.253071
1765  2023-12-05 11:18:25.285983
1766  2023-12-05 11:18:25.317897
1767  2023-12-05 11:18:25.349825
1768  2023-12-05 11:18:25.381727
1769  2023-12-05 11:18:25.413678
1770  2023-12-05 11:18:25.445609
1771  2023-12-05 11:18:25.477509
1772  2023-12-05 11:18:25.525342
1773  2023-12-05 11:18:25.557257
1774  2023-12-05 11:18:25.589171
1775  2023-12-05 11:18:25.622083
1776  2023-12-05 11:18:25.654077
1777  2023-12-05 11:18:25.686058
1778  2023-12-05 11:18:25.717097
1779  2023-12-05 11:18:25.750009
1780  2023-12-05 11:18:25.781924
1781  2023-12-05 11:18:25.813871
1782  2023-12-05 11:18:25.845789
1783  2023-12-05 11:18:25.877698
1784  2023-12-05 11:18:25.925539
1785  2023-12-05 11:18:25.957461
1786  2023-12-05 11:18:25.990374
1787  2023-12-05 11:18:26.021283
1788  2023-12-05 11:18:26.053198
1789  2023-12-05 11:18:26.086145
1790  2023-12-05 11:18:26.118025
1791  2023-12-05 11:18:26.149939
1792  2023-12-05 11:18:26.181854
1793  2023-12-05 11:18:26.213802
1794  2023-12-05 11:18:26.245719
1795  2023-12-05 11:18:26.277631
1796  2023-12-05 11:18:26.325470
1797  2023-12-05 11:18:26.357384
1798  2023-12-05 11:18:26.389299
1799  2023-12-05 11:18:26.422244
1800  2023-12-05 11:18:26.453128
1801  2023-12-05 11:18:26.486040
1802  2023-12-05 11:18:26.517955
1803  2023-12-05 11:18:26.549905
1804  2023-12-05 11:18:26.581824
1805  2023-12-05 11:18:26.613729
1806  2023-12-05 11:18:26.645646
1807  2023-12-05 11:18:26.677567
1808  2023-12-05 11:18:26.725400
1809  2023-12-05 11:18:26.757355
1810  2023-12-05 11:18:26.789229
1811  2023-12-05 11:18:26.822142
1812  2023-12-05 11:18:26.853058
1813  2023-12-05 11:18:26.885999
1814  2023-12-05 11:18:26.917916
1815  2023-12-05 11:18:26.949799
1816  2023-12-05 11:18:26.981714
1817  2023-12-05 11:18:27.013666
1818  2023-12-05 11:18:27.045602
1819  2023-12-05 11:18:27.077490
1820  2023-12-05 11:18:27.125330
1821  2023-12-05 11:18:27.157244
1822  2023-12-05 11:18:27.189159
1823  2023-12-05 11:18:27.221105
1824  2023-12-05 11:18:27.254034
1825  2023-12-05 11:18:27.285900
1826  2023-12-05 11:18:27.317815
1827  2023-12-05 11:18:27.349762
1828  2023-12-05 11:18:27.381688
1829  2023-12-05 11:18:27.413618
1830  2023-12-05 11:18:27.445518
1831  2023-12-05 11:18:27.477421
1832  2023-12-05 11:18:27.525260
1833  2023-12-05 11:18:27.557211
1834  2023-12-05 11:18:27.589122
1835  2023-12-05 11:18:27.622002
1836  2023-12-05 11:18:27.653916
1837  2023-12-05 11:18:27.685831
1838  2023-12-05 11:18:27.717745
1839  2023-12-05 11:18:27.749660
1840  2023-12-05 11:18:27.781610
1841  2023-12-05 11:18:27.813522
1842  2023-12-05 11:18:27.845443
1843  2023-12-05 11:18:27.877367
1844  2023-12-05 11:18:27.926188
1845  2023-12-05 11:18:27.958102
1846  2023-12-05 11:18:27.990017
1847  2023-12-05 11:18:28.021932
1848  2023-12-05 11:18:28.053846
1849  2023-12-05 11:18:28.085761
1850  2023-12-05 11:18:28.117675
1851  2023-12-05 11:18:28.149590
1852  2023-12-05 11:18:28.181504
1853  2023-12-05 11:18:28.214452
1854  2023-12-05 11:18:28.246429
1855  2023-12-05 11:18:28.277454
1856  2023-12-05 11:18:28.325259
1857  2023-12-05 11:18:28.357174
1858  2023-12-05 11:18:28.389223
1859  2023-12-05 11:18:28.422311
1860  2023-12-05 11:18:28.453195
1861  2023-12-05 11:18:28.485111
1862  2023-12-05 11:18:28.518022
1863  2023-12-05 11:18:28.549974
1864  2023-12-05 11:18:28.581889
1865  2023-12-05 11:18:28.613806
1866  2023-12-05 11:18:28.645718
1867  2023-12-05 11:18:28.677632
1868  2023-12-05 11:18:28.725466
1869  2023-12-05 11:18:28.757417
1870  2023-12-05 11:18:28.789296
1871  2023-12-05 11:18:28.821210
1872  2023-12-05 11:18:28.853125
1873  2023-12-05 11:18:28.886083
1874  2023-12-05 11:18:28.917976
1875  2023-12-05 11:18:28.949866
1876  2023-12-05 11:18:28.981789
1877  2023-12-05 11:18:29.013735
1878  2023-12-05 11:18:29.045642
1879  2023-12-05 11:18:29.077567
1880  2023-12-05 11:18:29.125396
1881  2023-12-05 11:18:29.157311
1882  2023-12-05 11:18:29.189226
1883  2023-12-05 11:18:29.221173
1884  2023-12-05 11:18:29.254052
1885  2023-12-05 11:18:29.285967
1886  2023-12-05 11:18:29.317882
1887  2023-12-05 11:18:29.349979
1888  2023-12-05 11:18:29.381929
1889  2023-12-05 11:18:29.413842
1890  2023-12-05 11:18:29.445725
1891  2023-12-05 11:18:29.477676
1892  2023-12-05 11:18:29.525510
1893  2023-12-05 11:18:29.557424
1894  2023-12-05 11:18:29.589339
1895  2023-12-05 11:18:29.621254
1896  2023-12-05 11:18:29.654166
1897  2023-12-05 11:18:29.686081
1898  2023-12-05 11:18:29.717995
1899  2023-12-05 11:18:29.749910
1900  2023-12-05 11:18:29.781869
1901  2023-12-05 11:18:29.813960
1902  2023-12-05 11:18:29.845939
1903  2023-12-05 11:18:29.877849
1904  2023-12-05 11:18:29.925690
1905  2023-12-05 11:18:29.957604
1906  2023-12-05 11:18:29.989519
1907  2023-12-05 11:18:30.021436
1908  2023-12-05 11:18:30.053348
1909  2023-12-05 11:18:30.085263
1910  2023-12-05 11:18:30.118175
1911  2023-12-05 11:18:30.150089
1912  2023-12-05 11:18:30.182038
1913  2023-12-05 11:18:30.213953
1914  2023-12-05 11:18:30.245875
1915  2023-12-05 11:18:30.277789
1916  2023-12-05 11:18:30.325620
1917  2023-12-05 11:18:30.357575
1918  2023-12-05 11:18:30.389548
1919  2023-12-05 11:18:30.421461
1920  2023-12-05 11:18:30.453344
1921  2023-12-05 11:18:30.485259
1922  2023-12-05 11:18:30.517174
1923  2023-12-05 11:18:30.549121
1924  2023-12-05 11:18:30.582031
1925  2023-12-05 11:18:30.613943
1926  2023-12-05 11:18:30.645856
1927  2023-12-05 11:18:30.677775
1928  2023-12-05 11:18:30.725701
1929  2023-12-05 11:18:30.757643
1930  2023-12-05 11:18:30.789530
1931  2023-12-05 11:18:30.821444
1932  2023-12-05 11:18:30.853359
1933  2023-12-05 11:18:30.885308
1934  2023-12-05 11:18:30.917188
1935  2023-12-05 11:18:30.949133
1936  2023-12-05 11:18:30.982049
1937  2023-12-05 11:18:31.013969
1938  2023-12-05 11:18:31.045877
1939  2023-12-05 11:18:31.077844
1940  2023-12-05 11:18:31.125808
1941  2023-12-05 11:18:31.157722
1942  2023-12-05 11:18:31.189637
1943  2023-12-05 11:18:31.221586
1944  2023-12-05 11:18:31.253503
1945  2023-12-05 11:18:31.285381
1946  2023-12-05 11:18:31.317337
1947  2023-12-05 11:18:31.349250
1948  2023-12-05 11:18:31.381159
1949  2023-12-05 11:18:31.414069
1950  2023-12-05 11:18:31.445992
1951  2023-12-05 11:18:31.477897
1952  2023-12-05 11:18:31.525738
1953  2023-12-05 11:18:31.557652
1954  2023-12-05 11:18:31.589567
1955  2023-12-05 11:18:31.621482
1956  2023-12-05 11:18:31.653396
1957  2023-12-05 11:18:31.685393
1958  2023-12-05 11:18:31.717387
1959  2023-12-05 11:18:31.749387
1960  2023-12-05 11:18:31.781339
1961  2023-12-05 11:18:31.813303
1962  2023-12-05 11:18:31.845250
1963  2023-12-05 11:18:31.877165
1964  2023-12-05 11:18:31.926004
1965  2023-12-05 11:18:31.957918
1966  2023-12-05 11:18:31.989833
1967  2023-12-05 11:18:32.021748
1968  2023-12-05 11:18:32.053662
1969  2023-12-05 11:18:32.085577
1970  2023-12-05 11:18:32.117508
1971  2023-12-05 11:18:32.149437
1972  2023-12-05 11:18:32.181355
1973  2023-12-05 11:18:32.213266
1974  2023-12-05 11:18:32.245182
1975  2023-12-05 11:18:32.278099
1976  2023-12-05 11:18:32.325941
1977  2023-12-05 11:18:32.357849
1978  2023-12-05 11:18:32.389763
1979  2023-12-05 11:18:32.421802
1980  2023-12-05 11:18:32.453717
1981  2023-12-05 11:18:32.485631
1982  2023-12-05 11:18:32.518582
1983  2023-12-05 11:18:32.549510
1984  2023-12-05 11:18:32.582430
1985  2023-12-05 11:18:32.614289
1986  2023-12-05 11:18:32.646235
1987  2023-12-05 11:18:32.678119
1988  2023-12-05 11:18:32.725990
1989  2023-12-05 11:18:32.757904
1990  2023-12-05 11:18:32.789833
1991  2023-12-05 11:18:32.822813
1992  2023-12-05 11:18:32.853793
1993  2023-12-05 11:18:32.885708
1994  2023-12-05 11:18:32.917623
1995  2023-12-05 11:18:32.950566
1996  2023-12-05 11:18:32.982608
1997  2023-12-05 11:18:33.014525
1998  2023-12-05 11:18:33.046450
1999  2023-12-05 11:18:33.078354
2000  2023-12-05 11:18:33.126224
2001  2023-12-05 11:18:33.158144
2002  2023-12-05 11:18:33.190059
2003  2023-12-05 11:18:33.221973
2004  2023-12-05 11:18:33.253882
2005  2023-12-05 11:18:33.285765
2006  2023-12-05 11:18:33.317707
2007  2023-12-05 11:18:33.349636
2008  2023-12-05 11:18:33.381542
2009  2023-12-05 11:18:33.413466
2010  2023-12-05 11:18:33.445370
2011  2023-12-05 11:18:33.478282
2012  2023-12-05 11:18:33.526158
2013  2023-12-05 11:18:33.558074
2014  2023-12-05 11:18:33.589981
2015  2023-12-05 11:18:33.621902
2016  2023-12-05 11:18:33.653810
2017  2023-12-05 11:18:33.685727
2018  2023-12-05 11:18:33.717641
2019  2023-12-05 11:18:33.749558
2020  2023-12-05 11:18:33.781469
2021  2023-12-05 11:18:33.813386
2022  2023-12-05 11:18:33.845299
2023  2023-12-05 11:18:33.877226
2024  2023-12-05 11:18:33.925124
2025  2023-12-05 11:18:33.957966
2026  2023-12-05 11:18:33.989880
2027  2023-12-05 11:18:34.021827
2028  2023-12-05 11:18:34.053742
2029  2023-12-05 11:18:34.085657
2030  2023-12-05 11:18:34.117539
2031  2023-12-05 11:18:34.149489
2032  2023-12-05 11:18:34.181399
2033  2023-12-05 11:18:34.213377
2034  2023-12-05 11:18:34.245321
2035  2023-12-05 11:18:34.277237
2036  2023-12-05 11:18:34.326073
2037  2023-12-05 11:18:34.357987
2038  2023-12-05 11:18:34.389902
2039  2023-12-05 11:18:34.422847
2040  2023-12-05 11:18:34.454811
2041  2023-12-05 11:18:34.486728
2042  2023-12-05 11:18:34.517759
2043  2023-12-05 11:18:34.549660
2044  2023-12-05 11:18:34.581574
2045  2023-12-05 11:18:34.614485
2046  2023-12-05 11:18:34.646483
2047  2023-12-05 11:18:34.677356
2048  2023-12-05 11:18:34.726247
2049  2023-12-05 11:18:34.758213
2050  2023-12-05 11:18:34.790149
2051  2023-12-05 11:18:34.822127
2052  2023-12-05 11:18:34.854147
2053  2023-12-05 11:18:34.887052
2054  2023-12-05 11:18:34.918002
2055  2023-12-05 11:18:34.949880
2056  2023-12-05 11:18:34.982790
2057  2023-12-05 11:18:35.013717
2058  2023-12-05 11:18:35.046620
2059  2023-12-05 11:18:35.077542
2060  2023-12-05 11:18:35.126409
2061  2023-12-05 11:18:35.157336
2062  2023-12-05 11:18:35.189207
2063  2023-12-05 11:18:35.222149
2064  2023-12-05 11:18:35.254065
2065  2023-12-05 11:18:35.285984
2066  2023-12-05 11:18:35.317893
2067  2023-12-05 11:18:35.349826
2068  2023-12-05 11:18:35.381724
2069  2023-12-05 11:18:35.413641
2070  2023-12-05 11:18:35.445555
2071  2023-12-05 11:18:35.477436
2072  2023-12-05 11:18:35.525315
2073  2023-12-05 11:18:35.557254
2074  2023-12-05 11:18:35.590165
2075  2023-12-05 11:18:35.622086
2076  2023-12-05 11:18:35.654007
2077  2023-12-05 11:18:35.685916
2078  2023-12-05 11:18:35.717825
2079  2023-12-05 11:18:35.749738
2080  2023-12-05 11:18:35.781663
2081  2023-12-05 11:18:35.813569
2082  2023-12-05 11:18:35.845488
2083  2023-12-05 11:18:35.877413
2084  2023-12-05 11:18:35.925269
2085  2023-12-05 11:18:35.957192
2086  2023-12-05 11:18:35.989069
2087  2023-12-05 11:18:36.021980
2088  2023-12-05 11:18:36.053895
2089  2023-12-05 11:18:36.085810
2090  2023-12-05 11:18:36.117762
2091  2023-12-05 11:18:36.149670
2092  2023-12-05 11:18:36.181587
2093  2023-12-05 11:18:36.213500
2094  2023-12-05 11:18:36.245415
2095  2023-12-05 11:18:36.277329
2096  2023-12-05 11:18:36.325200
2097  2023-12-05 11:18:36.357117
2098  2023-12-05 11:18:36.390030
2099  2023-12-05 11:18:36.421940
2100  2023-12-05 11:18:36.453854
2101  2023-12-05 11:18:36.485771
2102  2023-12-05 11:18:36.517654
2103  2023-12-05 11:18:36.549601
2104  2023-12-05 11:18:36.581518
2105  2023-12-05 11:18:36.613445
2106  2023-12-05 11:18:36.645351
2107  2023-12-05 11:18:36.677256
2108  2023-12-05 11:18:36.725133
2109  2023-12-05 11:18:36.758065
2110  2023-12-05 11:18:36.789958
2111  2023-12-05 11:18:36.821840
2112  2023-12-05 11:18:36.853788
2113  2023-12-05 11:18:36.885704
2114  2023-12-05 11:18:36.917584
2115  2023-12-05 11:18:36.949543
2116  2023-12-05 11:18:36.981445
2117  2023-12-05 11:18:37.013360
2118  2023-12-05 11:18:37.045295
2119  2023-12-05 11:18:37.077223
2120  2023-12-05 11:18:37.126057
2121  2023-12-05 11:18:37.157973
2122  2023-12-05 11:18:37.189902
2123  2023-12-05 11:18:37.221849
2124  2023-12-05 11:18:37.253758
2125  2023-12-05 11:18:37.285679
2126  2023-12-05 11:18:37.317593
2127  2023-12-05 11:18:37.349511
2128  2023-12-05 11:18:37.381433
2129  2023-12-05 11:18:37.413379
2130  2023-12-05 11:18:37.445369
2131  2023-12-05 11:18:37.477292
2132  2023-12-05 11:18:37.525156
2133  2023-12-05 11:18:37.557027
2134  2023-12-05 11:18:37.589969
2135  2023-12-05 11:18:37.621887
2136  2023-12-05 11:18:37.653799
2137  2023-12-05 11:18:37.685713
2138  2023-12-05 11:18:37.717658
2139  2023-12-05 11:18:37.749555
2140  2023-12-05 11:18:37.781457
2141  2023-12-05 11:18:37.813372
2142  2023-12-05 11:18:37.846287
2143  2023-12-05 11:18:37.878198
2144  2023-12-05 11:18:37.926087
2145  2023-12-05 11:18:37.958121
2146  2023-12-05 11:18:37.990035
2147  2023-12-05 11:18:38.021961
2148  2023-12-05 11:18:38.053863
2149  2023-12-05 11:18:38.085785
2150  2023-12-05 11:18:38.117813
2151  2023-12-05 11:18:38.149729
2152  2023-12-05 11:18:38.181646
2153  2023-12-05 11:18:38.213592
2154  2023-12-05 11:18:38.245448
2155  2023-12-05 11:18:38.277396
2156  2023-12-05 11:18:38.325267
2157  2023-12-05 11:18:38.357183
2158  2023-12-05 11:18:38.389090
2159  2023-12-05 11:18:38.422001
2160  2023-12-05 11:18:38.453915
2161  2023-12-05 11:18:38.485831
2162  2023-12-05 11:18:38.517744
2163  2023-12-05 11:18:38.549662
2164  2023-12-05 11:18:38.581576
2165  2023-12-05 11:18:38.613455
2166  2023-12-05 11:18:38.645411
2167  2023-12-05 11:18:38.677347
2168  2023-12-05 11:18:38.725206
2169  2023-12-05 11:18:38.757133
2170  2023-12-05 11:18:38.790040
2171  2023-12-05 11:18:38.821955
2172  2023-12-05 11:18:38.853860
2173  2023-12-05 11:18:38.885776
2174  2023-12-05 11:18:38.917688
2175  2023-12-05 11:18:38.949625
2176  2023-12-05 11:18:38.981543
2177  2023-12-05 11:18:39.013565
2178  2023-12-05 11:18:39.045477
2179  2023-12-05 11:18:39.077398
2180  2023-12-05 11:18:39.125262
2181  2023-12-05 11:18:39.157182
2182  2023-12-05 11:18:39.189101
2183  2023-12-05 11:18:39.222008
2184  2023-12-05 11:18:39.253888
2185  2023-12-05 11:18:39.285837
2186  2023-12-05 11:18:39.317752
2187  2023-12-05 11:18:39.349669
2188  2023-12-05 11:18:39.381591
2189  2023-12-05 11:18:39.413508
2190  2023-12-05 11:18:39.445420
2191  2023-12-05 11:18:39.477319
2192  2023-12-05 11:18:39.525201
2193  2023-12-05 11:18:39.557114
2194  2023-12-05 11:18:39.590021
2195  2023-12-05 11:18:39.621947
2196  2023-12-05 11:18:39.653818
2197  2023-12-05 11:18:39.685758
2198  2023-12-05 11:18:39.717648
2199  2023-12-05 11:18:39.749594
2200  2023-12-05 11:18:39.781518
2201  2023-12-05 11:18:39.813424
2202  2023-12-05 11:18:39.845344
2203  2023-12-05 11:18:39.878220
2204  2023-12-05 11:18:39.926128
2205  2023-12-05 11:18:39.958047
2206  2023-12-05 11:18:39.989953
2207  2023-12-05 11:18:40.021833
2208  2023-12-05 11:18:40.053801
2209  2023-12-05 11:18:40.085663
2210  2023-12-05 11:18:40.117720
2211  2023-12-05 11:18:40.149631
2212  2023-12-05 11:18:40.181551
2213  2023-12-05 11:18:40.213466
2214  2023-12-05 11:18:40.245390
2215  2023-12-05 11:18:40.277306
2216  2023-12-05 11:18:40.325172
2217  2023-12-05 11:18:40.357086
2218  2023-12-05 11:18:40.390011
2219  2023-12-05 11:18:40.421907
2220  2023-12-05 11:18:40.453787
2221  2023-12-05 11:18:40.485737
2222  2023-12-05 11:18:40.517652
2223  2023-12-05 11:18:40.549562
2224  2023-12-05 11:18:40.581482
2225  2023-12-05 11:18:40.613408
2226  2023-12-05 11:18:40.645439
2227  2023-12-05 11:18:40.677408
2228  2023-12-05 11:18:40.725260
2229  2023-12-05 11:18:40.757190
2230  2023-12-05 11:18:40.789100
2231  2023-12-05 11:18:40.821971
2232  2023-12-05 11:18:40.853972
2233  2023-12-05 11:18:40.885956
2234  2023-12-05 11:18:40.917872
2235  2023-12-05 11:18:40.949967
2236  2023-12-05 11:18:40.981844
2237  2023-12-05 11:18:41.013875
2238  2023-12-05 11:18:41.045788
2239  2023-12-05 11:18:41.077704
2240  2023-12-05 11:18:41.125573
2241  2023-12-05 11:18:41.157615
2242  2023-12-05 11:18:41.189528
2243  2023-12-05 11:18:41.221444
2244  2023-12-05 11:18:41.315199
2245  2023-12-05 11:18:41.321204
2246  2023-12-05 11:18:41.349162
2247  2023-12-05 11:18:41.382172
2248  2023-12-05 11:18:41.414050
2249  2023-12-05 11:18:41.445970
2250  2023-12-05 11:18:41.477883
2251  2023-12-05 11:18:41.525921
2252  2023-12-05 11:18:41.557870
2253  2023-12-05 11:18:41.589783
2254  2023-12-05 11:18:41.621704
2255  2023-12-05 11:18:41.653711
2256  2023-12-05 11:18:41.685532
2257  2023-12-05 11:18:41.717443
2258  2023-12-05 11:18:41.750385
2259  2023-12-05 11:18:41.781279
2260  2023-12-05 11:18:41.814218
2261  2023-12-05 11:18:41.845135
2262  2023-12-05 11:18:41.878048
2263  2023-12-05 11:18:41.925958
2264  2023-12-05 11:18:41.957914
2265  2023-12-05 11:18:41.989823
2266  2023-12-05 11:18:42.021736
2267  2023-12-05 11:18:42.053657
2268  2023-12-05 11:18:42.085569
2269  2023-12-05 11:18:42.117482
2270  2023-12-05 11:18:42.149395
2271  2023-12-05 11:18:42.181309
2272  2023-12-05 11:18:42.214189
2273  2023-12-05 11:18:42.245149
2274  2023-12-05 11:18:42.277053
2275  2023-12-05 11:18:42.325888
2276  2023-12-05 11:18:42.357839
2277  2023-12-05 11:18:42.389752
2278  2023-12-05 11:18:42.421635
2279  2023-12-05 11:18:42.453584
2280  2023-12-05 11:18:42.485496
2281  2023-12-05 11:18:42.517408
2282  2023-12-05 11:18:42.550318
2283  2023-12-05 11:18:42.581238
2284  2023-12-05 11:18:42.613162
2285  2023-12-05 11:18:42.646064
2286  2023-12-05 11:18:42.677986
2287  2023-12-05 11:18:42.725818
2288  2023-12-05 11:18:42.757763
2289  2023-12-05 11:18:42.789688
2290  2023-12-05 11:18:42.867442
2291  2023-12-05 11:18:42.885392
2292  2023-12-05 11:18:42.917357
2293  2023-12-05 11:18:42.949255
2294  2023-12-05 11:18:42.981182
2295  2023-12-05 11:18:43.013086
2296  2023-12-05 11:18:43.046029
2297  2023-12-05 11:18:43.078011
2298  2023-12-05 11:18:43.125927
2299  2023-12-05 11:18:43.157869
2300  2023-12-05 11:18:43.189788
2301  2023-12-05 11:18:43.221698
2302  2023-12-05 11:18:43.253618
2303  2023-12-05 11:18:43.285528
2304  2023-12-05 11:18:43.317451
2305  2023-12-05 11:18:43.349369
2306  2023-12-05 11:18:43.381273
2307  2023-12-05 11:18:43.413193
2308  2023-12-05 11:18:43.445201
2309  2023-12-05 11:18:43.477112
2310  2023-12-05 11:18:43.525954
2311  2023-12-05 11:18:43.557909
2312  2023-12-05 11:18:43.589815
2313  2023-12-05 11:18:43.621729
2314  2023-12-05 11:18:43.653654
2315  2023-12-05 11:18:43.685575
2316  2023-12-05 11:18:43.717484
2317  2023-12-05 11:18:43.749415
2318  2023-12-05 11:18:43.781318
2319  2023-12-05 11:18:43.813226
2320  2023-12-05 11:18:43.845136
2321  2023-12-05 11:18:43.877056
2322  2023-12-05 11:18:43.925885
2323  2023-12-05 11:18:43.979774
2324  2023-12-05 11:18:43.989741
2325  2023-12-05 11:18:44.021666
2326  2023-12-05 11:18:44.053575
2327  2023-12-05 11:18:44.085493
2328  2023-12-05 11:18:44.117418
2329  2023-12-05 11:18:44.149322
2330  2023-12-05 11:18:44.181365
2331  2023-12-05 11:18:44.213285
2332  2023-12-05 11:18:44.245200
2333  2023-12-05 11:18:44.278113
2334  2023-12-05 11:18:44.326044
2335  2023-12-05 11:18:44.357958
2336  2023-12-05 11:18:44.389917
2337  2023-12-05 11:18:44.421848
2338  2023-12-05 11:18:44.453703
2339  2023-12-05 11:18:44.511596
2340  2023-12-05 11:18:44.520527
2341  2023-12-05 11:18:44.549448
2342  2023-12-05 11:18:44.581386
2343  2023-12-05 11:18:44.613322
2344  2023-12-05 11:18:44.645323
2345  2023-12-05 11:18:44.677242
2346  2023-12-05 11:18:44.725076
2347  2023-12-05 11:18:44.758020
2348  2023-12-05 11:18:44.789902
2349  2023-12-05 11:18:44.821793
2350  2023-12-05 11:18:44.853850
2351  2023-12-05 11:18:44.885772
2352  2023-12-05 11:18:44.917674
2353  2023-12-05 11:18:44.949601
2354  2023-12-05 11:18:44.981513
2355  2023-12-05 11:18:45.013391
2356  2023-12-05 11:18:45.082215
2357  2023-12-05 11:18:45.125092
2358  2023-12-05 11:18:45.158004
2359  2023-12-05 11:18:45.189919
2360  2023-12-05 11:18:45.222013
2361  2023-12-05 11:18:45.253903
2362  2023-12-05 11:18:45.285820
2363  2023-12-05 11:18:45.317730
2364  2023-12-05 11:18:45.349647
2365  2023-12-05 11:18:45.381575
2366  2023-12-05 11:18:45.413599
2367  2023-12-05 11:18:45.445518
2368  2023-12-05 11:18:45.477392
2369  2023-12-05 11:18:45.545208
2370  2023-12-05 11:18:45.558206
2371  2023-12-05 11:18:45.589123
2372  2023-12-05 11:18:45.622002
2373  2023-12-05 11:18:45.653950
2374  2023-12-05 11:18:45.685857
2375  2023-12-05 11:18:45.717748
2376  2023-12-05 11:18:45.749667
2377  2023-12-05 11:18:45.781615
2378  2023-12-05 11:18:45.813542
2379  2023-12-05 11:18:45.845441
2380  2023-12-05 11:18:45.878348
2381  2023-12-05 11:18:45.926223
2382  2023-12-05 11:18:45.958154
2383  2023-12-05 11:18:45.990018
2384  2023-12-05 11:18:46.021959
2385  2023-12-05 11:18:46.053884
2386  2023-12-05 11:18:46.085763
2387  2023-12-05 11:18:46.117676
2388  2023-12-05 11:18:46.180551
2389  2023-12-05 11:18:46.185497
2390  2023-12-05 11:18:46.213423
2391  2023-12-05 11:18:46.245370
2392  2023-12-05 11:18:46.277298
2393  2023-12-05 11:18:46.326119
2394  2023-12-05 11:18:46.358033
2395  2023-12-05 11:18:46.389993
2396  2023-12-05 11:18:46.421897
2397  2023-12-05 11:18:46.453815
2398  2023-12-05 11:18:46.485843
2399  2023-12-05 11:18:46.517767
2400  2023-12-05 11:18:46.549675
2401  2023-12-05 11:18:46.581601
2402  2023-12-05 11:18:46.613510
2403  2023-12-05 11:18:46.645417
2404  2023-12-05 11:18:46.677352
2405  2023-12-05 11:18:46.725208
2406  2023-12-05 11:18:46.757123
2407  2023-12-05 11:18:46.789999
2408  2023-12-05 11:18:46.821947
2409  2023-12-05 11:18:46.853987
2410  2023-12-05 11:18:46.885893
2411  2023-12-05 11:18:46.917805
2412  2023-12-05 11:18:46.949724
2413  2023-12-05 11:18:46.981602
2414  2023-12-05 11:18:47.013560
2415  2023-12-05 11:18:47.045472
2416  2023-12-05 11:18:47.077380
2417  2023-12-05 11:18:47.125218
2418  2023-12-05 11:18:47.157132
2419  2023-12-05 11:18:47.189047
2420  2023-12-05 11:18:47.221961
2421  2023-12-05 11:18:47.253911
2422  2023-12-05 11:18:47.285825
2423  2023-12-05 11:18:47.317735
2424  2023-12-05 11:18:47.349658
2425  2023-12-05 11:18:47.381571
2426  2023-12-05 11:18:47.413495
2427  2023-12-05 11:18:47.445474
2428  2023-12-05 11:18:47.477434
2429  2023-12-05 11:18:47.525267
2430  2023-12-05 11:18:47.557182
2431  2023-12-05 11:18:47.589136
2432  2023-12-05 11:18:47.621053
2433  2023-12-05 11:18:47.653966
2434  2023-12-05 11:18:47.685867
2435  2023-12-05 11:18:47.717789
2436  2023-12-05 11:18:47.749710
2437  2023-12-05 11:18:47.781618
2438  2023-12-05 11:18:47.813534
2439  2023-12-05 11:18:47.845446
2440  2023-12-05 11:18:47.877373
2441  2023-12-05 11:18:47.925240
2442  2023-12-05 11:18:47.957316
2443  2023-12-05 11:18:47.989230
2444  2023-12-05 11:18:48.021146
2445  2023-12-05 11:18:48.068079
2446  2023-12-05 11:18:48.086000
2447  2023-12-05 11:18:48.117928
2448  2023-12-05 11:18:48.149834
2449  2023-12-05 11:18:48.181767
2450  2023-12-05 11:18:48.213789
2451  2023-12-05 11:18:48.245705
2452  2023-12-05 11:18:48.277621
2453  2023-12-05 11:18:48.325457
2454  2023-12-05 11:18:48.357372
2455  2023-12-05 11:18:48.389377
2456  2023-12-05 11:18:48.421336
2457  2023-12-05 11:18:48.453242
2458  2023-12-05 11:18:48.485152
2459  2023-12-05 11:18:48.518069
2460  2023-12-05 11:18:48.549988
2461  2023-12-05 11:18:48.581897
2462  2023-12-05 11:18:48.613813
2463  2023-12-05 11:18:48.645731
2464  2023-12-05 11:18:48.677639
2465  2023-12-05 11:18:48.725478
2466  2023-12-05 11:18:48.757393
2467  2023-12-05 11:18:48.789307
2468  2023-12-05 11:18:48.821256
2469  2023-12-05 11:18:48.853175
2470  2023-12-05 11:18:48.885087
2471  2023-12-05 11:18:48.918001
2472  2023-12-05 11:18:48.949914
2473  2023-12-05 11:18:48.981824
2474  2023-12-05 11:18:49.013743
2475  2023-12-05 11:18:49.045653
2476  2023-12-05 11:18:49.077586
2477  2023-12-05 11:18:49.125408
2478  2023-12-05 11:18:49.157323
2479  2023-12-05 11:18:49.190235
2480  2023-12-05 11:18:49.221188
2481  2023-12-05 11:18:49.254066
2482  2023-12-05 11:18:49.286009
2483  2023-12-05 11:18:49.317927
2484  2023-12-05 11:18:49.349841
2485  2023-12-05 11:18:49.381761
2486  2023-12-05 11:18:49.413675
2487  2023-12-05 11:18:49.445587
2488  2023-12-05 11:18:49.477501
2489  2023-12-05 11:18:49.525338
2490  2023-12-05 11:18:49.557253
2491  2023-12-05 11:18:49.590197
2492  2023-12-05 11:18:49.622081
2493  2023-12-05 11:18:49.654043
2494  2023-12-05 11:18:49.685946
2495  2023-12-05 11:18:49.717859
2496  2023-12-05 11:18:49.749771
2497  2023-12-05 11:18:49.781690
2498  2023-12-05 11:18:49.813614
2499  2023-12-05 11:18:49.845483
2500  2023-12-05 11:18:49.877474
2501  2023-12-05 11:18:49.925431
2502  2023-12-05 11:18:49.957302
2503  2023-12-05 11:18:49.989361
2504  2023-12-05 11:18:50.021353
2505  2023-12-05 11:18:50.053267
2506  2023-12-05 11:18:50.085188
2507  2023-12-05 11:18:50.117097
2508  2023-12-05 11:18:50.150006
2509  2023-12-05 11:18:50.181921
2510  2023-12-05 11:18:50.213837
2511  2023-12-05 11:18:50.245756
2512  2023-12-05 11:18:50.277663
2513  2023-12-05 11:18:50.325505
2514  2023-12-05 11:18:50.357419
2515  2023-12-05 11:18:50.398407
2516  2023-12-05 11:18:50.421317
2517  2023-12-05 11:18:50.453310
2518  2023-12-05 11:18:50.485225
2519  2023-12-05 11:18:50.517139
2520  2023-12-05 11:18:50.549056
2521  2023-12-05 11:18:50.581965
2522  2023-12-05 11:18:50.613891
2523  2023-12-05 11:18:50.645797
2524  2023-12-05 11:18:50.677708
2525  2023-12-05 11:18:50.725680
2526  2023-12-05 11:18:50.757595
2527  2023-12-05 11:18:50.789546
2528  2023-12-05 11:18:50.821468
2529  2023-12-05 11:18:50.853371
2530  2023-12-05 11:18:50.885284
2531  2023-12-05 11:18:50.918166
2532  2023-12-05 11:18:50.950115
2533  2023-12-05 11:18:50.982112
2534  2023-12-05 11:18:51.013105
2535  2023-12-05 11:18:51.045980
2536  2023-12-05 11:18:51.077925
2537  2023-12-05 11:18:51.125766
2538  2023-12-05 11:18:51.157728
2539  2023-12-05 11:18:51.189671
2540  2023-12-05 11:18:51.221596
2541  2023-12-05 11:18:51.253521
2542  2023-12-05 11:18:51.285424
2543  2023-12-05 11:18:51.317337
2544  2023-12-05 11:18:51.349251
2545  2023-12-05 11:18:51.381166
2546  2023-12-05 11:18:51.414079
2547  2023-12-05 11:18:51.445957
2548  2023-12-05 11:18:51.493831
2549  2023-12-05 11:18:51.525744
2550  2023-12-05 11:18:51.557693
2551  2023-12-05 11:18:51.589607
2552  2023-12-05 11:18:51.621539
2553  2023-12-05 11:18:51.653483
2554  2023-12-05 11:18:51.721371
2555  2023-12-05 11:18:51.749339
2556  2023-12-05 11:18:51.781250
2557  2023-12-05 11:18:51.813176
2558  2023-12-05 11:18:51.845080
2559  2023-12-05 11:18:51.877982
2560  2023-12-05 11:18:51.925824
2561  2023-12-05 11:18:51.957738
2562  2023-12-05 11:18:51.989692
2563  2023-12-05 11:18:52.021606
2564  2023-12-05 11:18:52.053524
2565  2023-12-05 11:18:52.085436
2566  2023-12-05 11:18:52.117390
2567  2023-12-05 11:18:52.149338
2568  2023-12-05 11:18:52.181252
2569  2023-12-05 11:18:52.214180
2570  2023-12-05 11:18:52.246110
2571  2023-12-05 11:18:52.277997
2572  2023-12-05 11:18:52.325830
2573  2023-12-05 11:18:52.357744
2574  2023-12-05 11:18:52.389691
2575  2023-12-05 11:18:52.421591
2576  2023-12-05 11:18:52.453523
2577  2023-12-05 11:18:52.485441
2578  2023-12-05 11:18:52.517370
2579  2023-12-05 11:18:52.581181
2580  2023-12-05 11:18:52.589136
2581  2023-12-05 11:18:52.614099
2582  2023-12-05 11:18:52.646044
2583  2023-12-05 11:18:52.677923
2584  2023-12-05 11:18:52.725760
2585  2023-12-05 11:18:52.757748
2586  2023-12-05 11:18:52.789737
2587  2023-12-05 11:18:52.821648
2588  2023-12-05 11:18:52.853570
2589  2023-12-05 11:18:52.885481
2590  2023-12-05 11:18:52.917422
2591  2023-12-05 11:18:52.949306
2592  2023-12-05 11:18:52.981294
2593  2023-12-05 11:18:53.013212
2594  2023-12-05 11:18:53.045127
2595  2023-12-05 11:18:53.078037
2596  2023-12-05 11:18:53.125875
2597  2023-12-05 11:18:53.157789
2598  2023-12-05 11:18:53.189737
2599  2023-12-05 11:18:53.221654
2600  2023-12-05 11:18:53.253566
2601  2023-12-05 11:18:53.285491
2602  2023-12-05 11:18:53.317398
2603  2023-12-05 11:18:53.349311
2604  2023-12-05 11:18:53.381231
2605  2023-12-05 11:18:53.414142
2606  2023-12-05 11:18:53.446054
2607  2023-12-05 11:18:53.477975
2608  2023-12-05 11:18:53.525805
2609  2023-12-05 11:18:53.557719
2610  2023-12-05 11:18:53.589666
2611  2023-12-05 11:18:53.621606
2612  2023-12-05 11:18:53.653635
2613  2023-12-05 11:18:53.686512
2614  2023-12-05 11:18:53.718459
2615  2023-12-05 11:18:53.750377
2616  2023-12-05 11:18:53.783289
2617  2023-12-05 11:18:53.814174
2618  2023-12-05 11:18:53.846114
2619  2023-12-05 11:18:53.878001
2620  2023-12-05 11:18:53.925871
2621  2023-12-05 11:18:53.957787
2622  2023-12-05 11:18:53.990723
2623  2023-12-05 11:18:54.022645
2624  2023-12-05 11:18:54.053532
2625  2023-12-05 11:18:54.085444
2626  2023-12-05 11:18:54.118497
2627  2023-12-05 11:18:54.150412
2628  2023-12-05 11:18:54.182322
2629  2023-12-05 11:18:54.215201
2630  2023-12-05 11:18:54.247150
2631  2023-12-05 11:18:54.279067
2632  2023-12-05 11:18:54.326935
2633  2023-12-05 11:18:54.358849
2634  2023-12-05 11:18:54.390761
2635  2023-12-05 11:18:54.422677
2636  2023-12-05 11:18:54.454594
2637  2023-12-05 11:18:54.486502
2638  2023-12-05 11:18:54.518419
2639  2023-12-05 11:18:54.550348
2640  2023-12-05 11:18:54.582249
2641  2023-12-05 11:18:54.614168
2642  2023-12-05 11:18:54.646080
2643  2023-12-05 11:18:54.678006
2644  2023-12-05 11:18:54.725866
2645  2023-12-05 11:18:54.758785
2646  2023-12-05 11:18:54.790692
2647  2023-12-05 11:18:54.822609
2648  2023-12-05 11:18:54.854490
2649  2023-12-05 11:18:54.886443
2650  2023-12-05 11:18:54.918350
2651  2023-12-05 11:18:54.950268
2652  2023-12-05 11:18:54.982207
2653  2023-12-05 11:18:55.014095
2654  2023-12-05 11:18:55.046016
2655  2023-12-05 11:18:55.077927
2656  2023-12-05 11:18:55.125796
2657  2023-12-05 11:18:55.157710
2658  2023-12-05 11:18:55.189627
2659  2023-12-05 11:18:55.221547
2660  2023-12-05 11:18:55.253454
2661  2023-12-05 11:18:55.285364
2662  2023-12-05 11:18:55.317283
2663  2023-12-05 11:18:55.350189
2664  2023-12-05 11:18:55.382129
2665  2023-12-05 11:18:55.414025
2666  2023-12-05 11:18:55.446081
2667  2023-12-05 11:18:55.478000
2668  2023-12-05 11:18:55.525869
2669  2023-12-05 11:18:55.557785
2670  2023-12-05 11:18:55.589694
2671  2023-12-05 11:18:55.621611
2672  2023-12-05 11:18:55.653528
2673  2023-12-05 11:18:55.685409
2674  2023-12-05 11:18:55.737272
2675  2023-12-05 11:18:55.749244
2676  2023-12-05 11:18:55.782152
2677  2023-12-05 11:18:55.814066
2678  2023-12-05 11:18:55.846054
2679  2023-12-05 11:18:55.878020
2680  2023-12-05 11:18:55.925860
2681  2023-12-05 11:18:55.957810
2682  2023-12-05 11:18:55.989724
2683  2023-12-05 11:18:56.021637
2684  2023-12-05 11:18:56.053553
2685  2023-12-05 11:18:56.085463
2686  2023-12-05 11:18:56.117382
2687  2023-12-05 11:18:56.149305
2688  2023-12-05 11:18:56.183207
2689  2023-12-05 11:18:56.214131
2690  2023-12-05 11:18:56.247038
2691  2023-12-05 11:18:56.277949
2692  2023-12-05 11:18:56.326923
2693  2023-12-05 11:18:56.357837
2694  2023-12-05 11:18:56.389750
2695  2023-12-05 11:18:56.422652
2696  2023-12-05 11:18:56.455531
2697  2023-12-05 11:18:56.486480
2698  2023-12-05 11:18:56.517399
2699  2023-12-05 11:18:56.550332
2700  2023-12-05 11:18:56.583237
2701  2023-12-05 11:18:56.614137
2702  2023-12-05 11:18:56.646064
2703  2023-12-05 11:18:56.677942
2704  2023-12-05 11:18:56.726838
2705  2023-12-05 11:18:56.757753
2706  2023-12-05 11:18:56.789636
2707  2023-12-05 11:18:56.844537
2708  2023-12-05 11:18:56.854468
2709  2023-12-05 11:18:56.885382
2710  2023-12-05 11:18:56.917331
2711  2023-12-05 11:18:56.949266
2712  2023-12-05 11:18:56.982169
2713  2023-12-05 11:18:57.014072
2714  2023-12-05 11:18:57.047118
2715  2023-12-05 11:18:57.078018
2716  2023-12-05 11:18:57.125900
2717  2023-12-05 11:18:57.157808
2718  2023-12-05 11:18:57.189796
2719  2023-12-05 11:18:57.221715
2720  2023-12-05 11:18:57.254626
2721  2023-12-05 11:18:57.286541
2722  2023-12-05 11:18:57.317461
2723  2023-12-05 11:18:57.349340
2724  2023-12-05 11:18:57.382316
2725  2023-12-05 11:18:57.414196
2726  2023-12-05 11:18:57.446111
2727  2023-12-05 11:18:57.478027
2728  2023-12-05 11:18:57.525898
2729  2023-12-05 11:18:57.557812
2730  2023-12-05 11:18:57.589731
2731  2023-12-05 11:18:57.621643
2732  2023-12-05 11:18:57.653540
2733  2023-12-05 11:18:57.685484
2734  2023-12-05 11:18:57.717398
2735  2023-12-05 11:18:57.749317
2736  2023-12-05 11:18:57.781218
2737  2023-12-05 11:18:57.813126
2738  2023-12-05 11:18:57.846042
2739  2023-12-05 11:18:57.877960
2740  2023-12-05 11:18:57.925829
2741  2023-12-05 11:18:57.957743
2742  2023-12-05 11:18:57.989669
2743  2023-12-05 11:18:58.021583
2744  2023-12-05 11:18:58.053584
2745  2023-12-05 11:18:58.085566
2746  2023-12-05 11:18:58.117486
2747  2023-12-05 11:18:58.149407
2748  2023-12-05 11:18:58.181310
2749  2023-12-05 11:18:58.213225
2750  2023-12-05 11:18:58.246116
2751  2023-12-05 11:18:58.278061
2752  2023-12-05 11:18:58.325893
2753  2023-12-05 11:18:58.357850
2754  2023-12-05 11:18:58.389752
2755  2023-12-05 11:18:58.421682
2756  2023-12-05 11:18:58.453583
2757  2023-12-05 11:18:58.485514
2758  2023-12-05 11:18:58.517420
2759  2023-12-05 11:18:58.550295
2760  2023-12-05 11:18:58.582235
2761  2023-12-05 11:18:58.613162
2762  2023-12-05 11:18:58.646071
2763  2023-12-05 11:18:58.677981
2764  2023-12-05 11:18:58.775745
2765  2023-12-05 11:18:58.790678
2766  2023-12-05 11:18:58.821602
2767  2023-12-05 11:18:58.853491
2768  2023-12-05 11:18:58.886428
2769  2023-12-05 11:18:58.918348
2770  2023-12-05 11:18:58.949257
2771  2023-12-05 11:18:58.981291
2772  2023-12-05 11:18:59.014102
2773  2023-12-05 11:18:59.046048
2774  2023-12-05 11:18:59.077968
2775  2023-12-05 11:18:59.125971
2776  2023-12-05 11:18:59.157887
2777  2023-12-05 11:18:59.189884
2778  2023-12-05 11:18:59.221792
2779  2023-12-05 11:18:59.253720
2780  2023-12-05 11:18:59.285623
2781  2023-12-05 11:18:59.317541
2782  2023-12-05 11:18:59.349542
2783  2023-12-05 11:18:59.381456
2784  2023-12-05 11:18:59.413412
2785  2023-12-05 11:18:59.445409
2786  2023-12-05 11:18:59.477319
2787  2023-12-05 11:18:59.525188
2788  2023-12-05 11:18:59.558088
2789  2023-12-05 11:18:59.590013
2790  2023-12-05 11:18:59.621918
2791  2023-12-05 11:18:59.653830
2792  2023-12-05 11:18:59.685746
2793  2023-12-05 11:18:59.717656
2794  2023-12-05 11:18:59.749578
2795  2023-12-05 11:18:59.781490
2796  2023-12-05 11:18:59.813412
2797  2023-12-05 11:18:59.845319
2798  2023-12-05 11:18:59.877243
2799  2023-12-05 11:18:59.925188
2800  2023-12-05 11:18:59.958061
2801  2023-12-05 11:19:00.075747
2802  2023-12-05 11:19:00.087715
2803  2023-12-05 11:19:00.117683
2804  2023-12-05 11:19:00.149649
2805  2023-12-05 11:19:00.181630
2806  2023-12-05 11:19:00.213561
2807  2023-12-05 11:19:00.245461
2808  2023-12-05 11:19:00.277377
2809  2023-12-05 11:19:00.325250
2810  2023-12-05 11:19:00.357175
2811  2023-12-05 11:19:00.390071
2812  2023-12-05 11:19:00.421086
2813  2023-12-05 11:19:00.453974
2814  2023-12-05 11:19:00.485886
2815  2023-12-05 11:19:00.517799
2816  2023-12-05 11:19:00.549683
2817  2023-12-05 11:19:00.581628
2818  2023-12-05 11:19:00.613564
2819  2023-12-05 11:19:00.645456
2820  2023-12-05 11:19:00.677424
2821  2023-12-05 11:19:00.725350
2822  2023-12-05 11:19:00.757309
2823  2023-12-05 11:19:00.789328
2824  2023-12-05 11:19:00.821235
2825  2023-12-05 11:19:00.854119
2826  2023-12-05 11:19:00.886066
2827  2023-12-05 11:19:00.917992
2828  2023-12-05 11:19:00.950028
2829  2023-12-05 11:19:00.981946
2830  2023-12-05 11:19:01.013955
2831  2023-12-05 11:19:01.045870
2832  2023-12-05 11:19:01.077787
2833  2023-12-05 11:19:01.125828
2834  2023-12-05 11:19:01.157774
2835  2023-12-05 11:19:01.189755
2836  2023-12-05 11:19:01.221812
2837  2023-12-05 11:19:01.253714
2838  2023-12-05 11:19:01.285627
2839  2023-12-05 11:19:01.317544
2840  2023-12-05 11:19:01.349457
2841  2023-12-05 11:19:01.381371
2842  2023-12-05 11:19:01.414291
2843  2023-12-05 11:19:01.446199
2844  2023-12-05 11:19:01.477114
2845  2023-12-05 11:19:01.526013
2846  2023-12-05 11:19:01.557869
2847  2023-12-05 11:19:01.589813
2848  2023-12-05 11:19:01.621727
2849  2023-12-05 11:19:01.653646
2850  2023-12-05 11:19:01.723425
2851  2023-12-05 11:19:01.749413
2852  2023-12-05 11:19:01.781309
2853  2023-12-05 11:19:01.813216
2854  2023-12-05 11:19:01.845132
2855  2023-12-05 11:19:01.878059
2856  2023-12-05 11:19:01.925917
2857  2023-12-05 11:19:01.957831
2858  2023-12-05 11:19:01.989743
2859  2023-12-05 11:19:02.021657
2860  2023-12-05 11:19:02.053570
2861  2023-12-05 11:19:02.085496
2862  2023-12-05 11:19:02.117407
2863  2023-12-05 11:19:02.149316
2864  2023-12-05 11:19:02.182231
2865  2023-12-05 11:19:02.213146
2866  2023-12-05 11:19:02.246072
2867  2023-12-05 11:19:02.277977
2868  2023-12-05 11:19:02.325851
2869  2023-12-05 11:19:02.357766
2870  2023-12-05 11:19:02.389643
2871  2023-12-05 11:19:02.421591
2872  2023-12-05 11:19:02.453530
2873  2023-12-05 11:19:02.485427
2874  2023-12-05 11:19:02.517346
2875  2023-12-05 11:19:02.549255
2876  2023-12-05 11:19:02.581177
2877  2023-12-05 11:19:02.613077
2878  2023-12-05 11:19:02.645988
2879  2023-12-05 11:19:02.677905
2880  2023-12-05 11:19:02.725769
2881  2023-12-05 11:19:02.757334
2882  2023-12-05 11:19:02.789321
2883  2023-12-05 11:19:02.821238
2884  2023-12-05 11:19:02.853141
2885  2023-12-05 11:19:02.886059
2886  2023-12-05 11:19:02.917987
2887  2023-12-05 11:19:02.949885
2888  2023-12-05 11:19:02.981800
2889  2023-12-05 11:19:03.013715
2890  2023-12-05 11:19:03.045630
2891  2023-12-05 11:19:03.077567
2892  2023-12-05 11:19:03.125414
2893  2023-12-05 11:19:03.157404
2894  2023-12-05 11:19:03.189342
2895  2023-12-05 11:19:03.250222
2896  2023-12-05 11:19:03.257166
2897  2023-12-05 11:19:03.285130
2898  2023-12-05 11:19:03.318037
2899  2023-12-05 11:19:03.349981
2900  2023-12-05 11:19:03.381862
2901  2023-12-05 11:19:03.413776
2902  2023-12-05 11:19:03.445838
2903  2023-12-05 11:19:03.477679
2904  2023-12-05 11:19:03.525583
2905  2023-12-05 11:19:03.557467
2906  2023-12-05 11:19:03.590346
2907  2023-12-05 11:19:03.621288
2908  2023-12-05 11:19:03.653209
2909  2023-12-05 11:19:03.685129
2910  2023-12-05 11:19:03.718048
2911  2023-12-05 11:19:03.749945
2912  2023-12-05 11:19:03.781835
2913  2023-12-05 11:19:03.813749
2914  2023-12-05 11:19:03.845662
2915  2023-12-05 11:19:03.877691
2916  2023-12-05 11:19:03.925564
2917  2023-12-05 11:19:03.957444
2918  2023-12-05 11:19:03.989401
2919  2023-12-05 11:19:04.021443
2920  2023-12-05 11:19:04.053335
2921  2023-12-05 11:19:04.085257
2922  2023-12-05 11:19:04.117174
2923  2023-12-05 11:19:04.150083
2924  2023-12-05 11:19:04.181093
2925  2023-12-05 11:19:04.214010
2926  2023-12-05 11:19:04.245926
2927  2023-12-05 11:19:04.277840
2928  2023-12-05 11:19:04.325727
2929  2023-12-05 11:19:04.357627
2930  2023-12-05 11:19:04.389540
2931  2023-12-05 11:19:04.421465
2932  2023-12-05 11:19:04.453394
2933  2023-12-05 11:19:04.485285
2934  2023-12-05 11:19:04.517198
2935  2023-12-05 11:19:04.549082
2936  2023-12-05 11:19:04.581994
2937  2023-12-05 11:19:04.613908
2938  2023-12-05 11:19:04.646000
2939  2023-12-05 11:19:04.678036
2940  2023-12-05 11:19:04.725910
2941  2023-12-05 11:19:04.757802
2942  2023-12-05 11:19:04.789566
2943  2023-12-05 11:19:04.821527
2944  2023-12-05 11:19:04.853600
2945  2023-12-05 11:19:04.885577
2946  2023-12-05 11:19:04.917691
2947  2023-12-05 11:19:04.949525
2948  2023-12-05 11:19:04.981430
2949  2023-12-05 11:19:05.013342
2950  2023-12-05 11:19:05.046219
2951  2023-12-05 11:19:05.077179
2952  2023-12-05 11:19:05.126055
2953  2023-12-05 11:19:05.157966
2954  2023-12-05 11:19:05.189880
2955  2023-12-05 11:19:05.221780
2956  2023-12-05 11:19:05.253695
2957  2023-12-05 11:19:05.285632
2958  2023-12-05 11:19:05.317559
2959  2023-12-05 11:19:05.400272
2960  2023-12-05 11:19:05.414241
2961  2023-12-05 11:19:05.446151
2962  2023-12-05 11:19:05.478102
2963  2023-12-05 11:19:05.525983
2964  2023-12-05 11:19:05.557886
2965  2023-12-05 11:19:05.589894
2966  2023-12-05 11:19:05.621841
2967  2023-12-05 11:19:05.653769
2968  2023-12-05 11:19:05.685680
2969  2023-12-05 11:19:05.717592
2970  2023-12-05 11:19:05.749510
2971  2023-12-05 11:19:05.781420
2972  2023-12-05 11:19:05.813327
2973  2023-12-05 11:19:05.845241
2974  2023-12-05 11:19:05.877157
2975  2023-12-05 11:19:05.925035
2976  2023-12-05 11:19:05.957947
2977  2023-12-05 11:19:05.989853
2978  2023-12-05 11:19:06.021773
2979  2023-12-05 11:19:06.053683
2980  2023-12-05 11:19:06.085598
2981  2023-12-05 11:19:06.117523
2982  2023-12-05 11:19:06.149436
2983  2023-12-05 11:19:06.181368
2984  2023-12-05 11:19:06.213258
2985  2023-12-05 11:19:06.245139
2986  2023-12-05 11:19:06.278050
2987  2023-12-05 11:19:06.325961
2988  2023-12-05 11:19:06.357880
2989  2023-12-05 11:19:06.389793
2990  2023-12-05 11:19:06.421703
2991  2023-12-05 11:19:06.453581
2992  2023-12-05 11:19:06.520403
2993  2023-12-05 11:19:06.549370
2994  2023-12-05 11:19:06.581269
2995  2023-12-05 11:19:06.613202
2996  2023-12-05 11:19:06.646071
2997  2023-12-05 11:19:06.677981
2998  2023-12-05 11:19:06.725896
2999  2023-12-05 11:19:06.757857
3000  2023-12-05 11:19:06.789765
3001  2023-12-05 11:19:06.821683
3002  2023-12-05 11:19:06.853617
3003  2023-12-05 11:19:06.885511
3004  2023-12-05 11:19:06.917442
3005  2023-12-05 11:19:06.949340
3006  2023-12-05 11:19:06.981251
3007  2023-12-05 11:19:07.013236
3008  2023-12-05 11:19:07.045189
3009  2023-12-05 11:19:07.078088
3010  2023-12-05 11:19:07.125994
3011  2023-12-05 11:19:07.157910
3012  2023-12-05 11:19:07.189824
3013  2023-12-05 11:19:07.221737
3014  2023-12-05 11:19:07.253656
3015  2023-12-05 11:19:07.285567
3016  2023-12-05 11:19:07.317474
3017  2023-12-05 11:19:07.349400
3018  2023-12-05 11:19:07.381309
3019  2023-12-05 11:19:07.413232
3020  2023-12-05 11:19:07.446103
3021  2023-12-05 11:19:07.478018
3022  2023-12-05 11:19:07.525942
3023  2023-12-05 11:19:07.557844
3024  2023-12-05 11:19:07.642619
3025  2023-12-05 11:19:07.653590
3026  2023-12-05 11:19:07.685502
3027  2023-12-05 11:19:07.717407
3028  2023-12-05 11:19:07.749338
3029  2023-12-05 11:19:07.781249
3030  2023-12-05 11:19:07.814151
3031  2023-12-05 11:19:07.845073
3032  2023-12-05 11:19:07.877982
3033  2023-12-05 11:19:07.925857
3034  2023-12-05 11:19:07.957765
3035  2023-12-05 11:19:07.989684
3036  2023-12-05 11:19:08.021600
3037  2023-12-05 11:19:08.053522
3038  2023-12-05 11:19:08.085431
3039  2023-12-05 11:19:08.117353
3040  2023-12-05 11:19:08.149258
3041  2023-12-05 11:19:08.182166
3042  2023-12-05 11:19:08.214086
3043  2023-12-05 11:19:08.245963
3044  2023-12-05 11:19:08.277878
3045  2023-12-05 11:19:08.325756
3046  2023-12-05 11:19:08.357809
3047  2023-12-05 11:19:08.389726
3048  2023-12-05 11:19:08.421633
3049  2023-12-05 11:19:08.453556
3050  2023-12-05 11:19:08.485470
3051  2023-12-05 11:19:08.517351
3052  2023-12-05 11:19:08.593149
3053  2023-12-05 11:19:08.614094
3054  2023-12-05 11:19:08.645137
3055  2023-12-05 11:19:08.677128
3056  2023-12-05 11:19:08.725961
3057  2023-12-05 11:19:08.757875
3058  2023-12-05 11:19:08.789790
3059  2023-12-05 11:19:08.821704
3060  2023-12-05 11:19:08.853619
3061  2023-12-05 11:19:08.885628
3062  2023-12-05 11:19:08.917551
3063  2023-12-05 11:19:08.949461
3064  2023-12-05 11:19:08.981392
3065  2023-12-05 11:19:09.013255
3066  2023-12-05 11:19:09.046201
3067  2023-12-05 11:19:09.078082
3068  2023-12-05 11:19:09.125988
3069  2023-12-05 11:19:09.157899
3070  2023-12-05 11:19:09.189809
3071  2023-12-05 11:19:09.221811
3072  2023-12-05 11:19:09.253725
3073  2023-12-05 11:19:09.285639
3074  2023-12-05 11:19:09.317583
3075  2023-12-05 11:19:09.349558
3076  2023-12-05 11:19:09.381468
3077  2023-12-05 11:19:09.413425
3078  2023-12-05 11:19:09.445340
3079  2023-12-05 11:19:09.477255
3080  2023-12-05 11:19:09.525161
3081  2023-12-05 11:19:09.557073
3082  2023-12-05 11:19:09.590007
3083  2023-12-05 11:19:09.621903
3084  2023-12-05 11:19:09.653820
3085  2023-12-05 11:19:09.685722
3086  2023-12-05 11:19:09.717645
3087  2023-12-05 11:19:09.749559
3088  2023-12-05 11:19:09.781487
3089  2023-12-05 11:19:09.813356
3090  2023-12-05 11:19:09.845306
3091  2023-12-05 11:19:09.877216
3092  2023-12-05 11:19:09.925094
3093  2023-12-05 11:19:09.958020
3094  2023-12-05 11:19:09.989917
3095  2023-12-05 11:19:10.021835
3096  2023-12-05 11:19:10.053752
3097  2023-12-05 11:19:10.085671
3098  2023-12-05 11:19:10.117578
3099  2023-12-05 11:19:10.149495
3100  2023-12-05 11:19:10.181405
3101  2023-12-05 11:19:10.213328
3102  2023-12-05 11:19:10.245200
3103  2023-12-05 11:19:10.277115
3104  2023-12-05 11:19:10.326019
3105  2023-12-05 11:19:10.357936
3106  2023-12-05 11:19:10.389847
3107  2023-12-05 11:19:10.421759
3108  2023-12-05 11:19:10.453677
3109  2023-12-05 11:19:10.485603
3110  2023-12-05 11:19:10.517516
3111  2023-12-05 11:19:10.549418
3112  2023-12-05 11:19:10.581458
3113  2023-12-05 11:19:10.613342
3114  2023-12-05 11:19:10.645281
3115  2023-12-05 11:19:10.677171
3116  2023-12-05 11:19:10.726080
3117  2023-12-05 11:19:10.794857
3118  2023-12-05 11:19:10.821825
3119  2023-12-05 11:19:10.853731
3120  2023-12-05 11:19:10.885648
3121  2023-12-05 11:19:10.917561
3122  2023-12-05 11:19:10.949474
3123  2023-12-05 11:19:10.981398
3124  2023-12-05 11:19:11.013272
3125  2023-12-05 11:19:11.045187
3126  2023-12-05 11:19:11.078104
3127  2023-12-05 11:19:11.125981
3128  2023-12-05 11:19:11.161904
3129  2023-12-05 11:19:11.189841
3130  2023-12-05 11:19:11.221784
3131  2023-12-05 11:19:11.253685
3132  2023-12-05 11:19:11.285582
3133  2023-12-05 11:19:11.317504
3134  2023-12-05 11:19:11.349401
3135  2023-12-05 11:19:11.382286
3136  2023-12-05 11:19:11.413203
3137  2023-12-05 11:19:11.445117
3138  2023-12-05 11:19:11.478029
3139  2023-12-05 11:19:11.525938
3140  2023-12-05 11:19:11.557843
3141  2023-12-05 11:19:11.589732
3142  2023-12-05 11:19:11.621704
3143  2023-12-05 11:19:11.653595
3144  2023-12-05 11:19:11.685509
3145  2023-12-05 11:19:11.717427
3146  2023-12-05 11:19:11.749337
3147  2023-12-05 11:19:11.781262
3148  2023-12-05 11:19:11.813133
3149  2023-12-05 11:19:11.845084
3150  2023-12-05 11:19:11.877999
3151  2023-12-05 11:19:11.925870
3152  2023-12-05 11:19:11.957786
3153  2023-12-05 11:19:11.989701
3154  2023-12-05 11:19:12.021618
3155  2023-12-05 11:19:12.053592
3156  2023-12-05 11:19:12.085584
3157  2023-12-05 11:19:12.117507
3158  2023-12-05 11:19:12.149475
3159  2023-12-05 11:19:12.181385
3160  2023-12-05 11:19:12.213299
3161  2023-12-05 11:19:12.245249
3162  2023-12-05 11:19:12.278161
3163  2023-12-05 11:19:12.326074
3164  2023-12-05 11:19:12.357990
3165  2023-12-05 11:19:12.390013
3166  2023-12-05 11:19:12.421912
3167  2023-12-05 11:19:12.453830
3168  2023-12-05 11:19:12.485735
3169  2023-12-05 11:19:12.517663
3170  2023-12-05 11:19:12.549579
3171  2023-12-05 11:19:12.581458
3172  2023-12-05 11:19:12.613371
3173  2023-12-05 11:19:12.645282
3174  2023-12-05 11:19:12.677196
3175  2023-12-05 11:19:12.725105
3176  2023-12-05 11:19:12.758025
3177  2023-12-05 11:19:12.789930
3178  2023-12-05 11:19:12.854761
3179  2023-12-05 11:19:12.885674
3180  2023-12-05 11:19:12.917554
3181  2023-12-05 11:19:12.949515
3182  2023-12-05 11:19:12.981383
3183  2023-12-05 11:19:13.013297
3184  2023-12-05 11:19:13.045260
3185  2023-12-05 11:19:13.077126
3186  2023-12-05 11:19:13.125223
3187  2023-12-05 11:19:13.157136
3188  2023-12-05 11:19:13.189051
3189  2023-12-05 11:19:13.222075
3190  2023-12-05 11:19:13.254000
3191  2023-12-05 11:19:13.285908
3192  2023-12-05 11:19:13.317816
3193  2023-12-05 11:19:13.349732
3194  2023-12-05 11:19:13.381661
3195  2023-12-05 11:19:13.413525
3196  2023-12-05 11:19:13.445440
3197  2023-12-05 11:19:13.477437
3198  2023-12-05 11:19:13.525407
3199  2023-12-05 11:19:13.557322
3200  2023-12-05 11:19:13.589248
3201  2023-12-05 11:19:13.621161
3202  2023-12-05 11:19:13.654069
3203  2023-12-05 11:19:13.685993
3204  2023-12-05 11:19:13.717899
3205  2023-12-05 11:19:13.749806
3206  2023-12-05 11:19:13.781702
3207  2023-12-05 11:19:13.813605
3208  2023-12-05 11:19:13.845519
3209  2023-12-05 11:19:13.877434
3210  2023-12-05 11:19:13.925347
3211  2023-12-05 11:19:13.957251
3212  2023-12-05 11:19:13.990167
3213  2023-12-05 11:19:14.022085
3214  2023-12-05 11:19:14.054004
3215  2023-12-05 11:19:14.085936
3216  2023-12-05 11:19:14.117833
3217  2023-12-05 11:19:14.149754
3218  2023-12-05 11:19:14.181620
3219  2023-12-05 11:19:14.213535
3220  2023-12-05 11:19:14.245459
3221  2023-12-05 11:19:14.277370
3222  2023-12-05 11:19:14.325274
3223  2023-12-05 11:19:14.357185
3224  2023-12-05 11:19:14.390097
3225  2023-12-05 11:19:14.421978
3226  2023-12-05 11:19:14.453932
3227  2023-12-05 11:19:14.520714
3228  2023-12-05 11:19:14.549636
3229  2023-12-05 11:19:14.582412
3230  2023-12-05 11:19:14.613379
3231  2023-12-05 11:19:14.645285
3232  2023-12-05 11:19:14.677200
3233  2023-12-05 11:19:14.725209
3234  2023-12-05 11:19:14.758152
3235  2023-12-05 11:19:14.790078
3236  2023-12-05 11:19:14.821100
3237  2023-12-05 11:19:14.854046
3238  2023-12-05 11:19:14.885928
3239  2023-12-05 11:19:14.917866
3240  2023-12-05 11:19:14.949759
3241  2023-12-05 11:19:14.981637
3242  2023-12-05 11:19:15.015579
3243  2023-12-05 11:19:15.047500
3244  2023-12-05 11:19:15.079409
3245  2023-12-05 11:19:15.125283
3246  2023-12-05 11:19:15.159199
3247  2023-12-05 11:19:15.190104
3248  2023-12-05 11:19:15.223044
3249  2023-12-05 11:19:15.254940
3250  2023-12-05 11:19:15.286821
3251  2023-12-05 11:19:15.318736
3252  2023-12-05 11:19:15.350678
3253  2023-12-05 11:19:15.382600
3254  2023-12-05 11:19:15.414530
3255  2023-12-05 11:19:15.446428
3256  2023-12-05 11:19:15.479340
3257  2023-12-05 11:19:15.527214
3258  2023-12-05 11:19:15.559133
3259  2023-12-05 11:19:15.591033
3260  2023-12-05 11:19:15.622946
3261  2023-12-05 11:19:15.655017
3262  2023-12-05 11:19:15.686789
3263  2023-12-05 11:19:15.718701
3264  2023-12-05 11:19:15.750612
3265  2023-12-05 11:19:15.782635
3266  2023-12-05 11:19:15.814549
3267  2023-12-05 11:19:15.846465
3268  2023-12-05 11:19:15.879372
3269  2023-12-05 11:19:15.927253
3270  2023-12-05 11:19:15.959164
3271  2023-12-05 11:19:15.991090
3272  2023-12-05 11:19:16.022989
3273  2023-12-05 11:19:16.054906
3274  2023-12-05 11:19:16.086825
3275  2023-12-05 11:19:16.118743
3276  2023-12-05 11:19:16.150659
3277  2023-12-05 11:19:16.182579
3278  2023-12-05 11:19:16.214497
3279  2023-12-05 11:19:16.246408
3280  2023-12-05 11:19:16.278402
3281  2023-12-05 11:19:16.326291
3282  2023-12-05 11:19:16.358281
3283  2023-12-05 11:19:16.389211
3284  2023-12-05 11:19:16.503909
3285  2023-12-05 11:19:16.518865
3286  2023-12-05 11:19:16.550829
3287  2023-12-05 11:19:16.581728
3288  2023-12-05 11:19:16.613711
3289  2023-12-05 11:19:16.645620
3290  2023-12-05 11:19:16.677584
3291  2023-12-05 11:19:16.725463
3292  2023-12-05 11:19:16.758375
3293  2023-12-05 11:19:16.790291
3294  2023-12-05 11:19:16.822204
3295  2023-12-05 11:19:16.854111
3296  2023-12-05 11:19:16.886036
3297  2023-12-05 11:19:16.917948
3298  2023-12-05 11:19:16.949864
3299  2023-12-05 11:19:16.981790
3300  2023-12-05 11:19:17.013659
3301  2023-12-05 11:19:17.059575
3302  2023-12-05 11:19:17.078568
3303  2023-12-05 11:19:17.125549
3304  2023-12-05 11:19:17.157464
3305  2023-12-05 11:19:17.189380
3306  2023-12-05 11:19:17.221323
3307  2023-12-05 11:19:17.253316
3308  2023-12-05 11:19:17.285223
3309  2023-12-05 11:19:17.318135
3310  2023-12-05 11:19:17.350047
3311  2023-12-05 11:19:17.381963
3312  2023-12-05 11:19:17.413868
3313  2023-12-05 11:19:17.445791
3314  2023-12-05 11:19:17.477704
3315  2023-12-05 11:19:17.525578
3316  2023-12-05 11:19:17.557458
3317  2023-12-05 11:19:17.615310
3318  2023-12-05 11:19:17.626274
3319  2023-12-05 11:19:17.654235
3320  2023-12-05 11:19:17.685150
3321  2023-12-05 11:19:17.718069
3322  2023-12-05 11:19:17.749943
3323  2023-12-05 11:19:17.782907
3324  2023-12-05 11:19:17.814878
3325  2023-12-05 11:19:17.846782
3326  2023-12-05 11:19:17.877665
3327  2023-12-05 11:19:17.927604
3328  2023-12-05 11:19:17.957590
3329  2023-12-05 11:19:17.989516
3330  2023-12-05 11:19:18.022539
3331  2023-12-05 11:19:18.054544
3332  2023-12-05 11:19:18.087556
3333  2023-12-05 11:19:18.117476
3334  2023-12-05 11:19:18.149391
3335  2023-12-05 11:19:18.183369
3336  2023-12-05 11:19:18.214338
3337  2023-12-05 11:19:18.247213
3338  2023-12-05 11:19:18.277196
3339  2023-12-05 11:19:18.327065
3340  2023-12-05 11:19:18.357993
3341  2023-12-05 11:19:18.389895
3342  2023-12-05 11:19:18.422808
3343  2023-12-05 11:19:18.455690
3344  2023-12-05 11:19:18.486648
3345  2023-12-05 11:19:18.517556
3346  2023-12-05 11:19:18.549438
3347  2023-12-05 11:19:18.582381
3348  2023-12-05 11:19:18.614297
3349  2023-12-05 11:19:18.646211
3350  2023-12-05 11:19:18.678095
3351  2023-12-05 11:19:18.725992
3352  2023-12-05 11:19:18.757912
3353  2023-12-05 11:19:18.789826
3354  2023-12-05 11:19:18.822739
3355  2023-12-05 11:19:18.854646
3356  2023-12-05 11:19:18.886568
3357  2023-12-05 11:19:18.918485
3358  2023-12-05 11:19:18.949518
3359  2023-12-05 11:19:18.982515
3360  2023-12-05 11:19:19.014424
3361  2023-12-05 11:19:19.046338
3362  2023-12-05 11:19:19.078253
3363  2023-12-05 11:19:19.125157
3364  2023-12-05 11:19:19.161035
3365  2023-12-05 11:19:19.189953
3366  2023-12-05 11:19:19.221880
3367  2023-12-05 11:19:19.254866
3368  2023-12-05 11:19:19.285920
3369  2023-12-05 11:19:19.317837
3370  2023-12-05 11:19:19.349727
3371  2023-12-05 11:19:19.381751
3372  2023-12-05 11:19:19.414667
3373  2023-12-05 11:19:19.445730
3374  2023-12-05 11:19:19.477611
3375  2023-12-05 11:19:19.529501
3376  2023-12-05 11:19:19.559433
3377  2023-12-05 11:19:19.589381
3378  2023-12-05 11:19:19.621261
3379  2023-12-05 11:19:19.654188
3380  2023-12-05 11:19:19.686099
3381  2023-12-05 11:19:19.717994
3382  2023-12-05 11:19:19.749883
3383  2023-12-05 11:19:19.781798
3384  2023-12-05 11:19:19.813746
3385  2023-12-05 11:19:19.845718
3386  2023-12-05 11:19:19.877782
3387  2023-12-05 11:19:19.925692
3388  2023-12-05 11:19:19.957607
3389  2023-12-05 11:19:19.989484
3390  2023-12-05 11:19:20.049326
3391  2023-12-05 11:19:20.056316
3392  2023-12-05 11:19:20.085261
3393  2023-12-05 11:19:20.118141
3394  2023-12-05 11:19:20.150061
3395  2023-12-05 11:19:20.182038
3396  2023-12-05 11:19:20.213954
3397  2023-12-05 11:19:20.245934
3398  2023-12-05 11:19:20.277852
3399  2023-12-05 11:19:20.325791
3400  2023-12-05 11:19:20.357709
3401  2023-12-05 11:19:20.389619
3402  2023-12-05 11:19:20.422540
3403  2023-12-05 11:19:20.453452
3404  2023-12-05 11:19:20.485364
3405  2023-12-05 11:19:20.517293
3406  2023-12-05 11:19:20.549190
3407  2023-12-05 11:19:20.582073
3408  2023-12-05 11:19:20.613993
3409  2023-12-05 11:19:20.645932
3410  2023-12-05 11:19:20.677818
3411  2023-12-05 11:19:20.725689
3412  2023-12-05 11:19:20.758601
3413  2023-12-05 11:19:20.789549
3414  2023-12-05 11:19:20.821475
3415  2023-12-05 11:19:20.853377
3416  2023-12-05 11:19:20.886288
3417  2023-12-05 11:19:20.918172
3418  2023-12-05 11:19:20.950118
3419  2023-12-05 11:19:20.982038
3420  2023-12-05 11:19:21.013947
3421  2023-12-05 11:19:21.045830
3422  2023-12-05 11:19:21.110659
3423  2023-12-05 11:19:21.125653
3424  2023-12-05 11:19:21.157672
3425  2023-12-05 11:19:21.189583
3426  2023-12-05 11:19:21.221501
3427  2023-12-05 11:19:21.253416
3428  2023-12-05 11:19:21.285332
3429  2023-12-05 11:19:21.317384
3430  2023-12-05 11:19:21.349362
3431  2023-12-05 11:19:21.381262
3432  2023-12-05 11:19:21.413186
3433  2023-12-05 11:19:21.445101
3434  2023-12-05 11:19:21.478006
3435  2023-12-05 11:19:21.525876
3436  2023-12-05 11:19:21.557792
3437  2023-12-05 11:19:21.589675
3438  2023-12-05 11:19:21.621642
3439  2023-12-05 11:19:21.653534
3440  2023-12-05 11:19:21.685418
3441  2023-12-05 11:19:21.717368
3442  2023-12-05 11:19:21.749248
3443  2023-12-05 11:19:21.781162
3444  2023-12-05 11:19:21.813078
3445  2023-12-05 11:19:21.846024
3446  2023-12-05 11:19:21.877945
3447  2023-12-05 11:19:21.925863
3448  2023-12-05 11:19:21.957753
3449  2023-12-05 11:19:21.989674
3450  2023-12-05 11:19:22.021613
3451  2023-12-05 11:19:22.053527
3452  2023-12-05 11:19:22.085412
3453  2023-12-05 11:19:22.117380
3454  2023-12-05 11:19:22.149281
3455  2023-12-05 11:19:22.182183
3456  2023-12-05 11:19:22.213120
3457  2023-12-05 11:19:22.245041
3458  2023-12-05 11:19:22.278007
3459  2023-12-05 11:19:22.325857
3460  2023-12-05 11:19:22.357869
3461  2023-12-05 11:19:22.389782
3462  2023-12-05 11:19:22.421699
3463  2023-12-05 11:19:22.453613
3464  2023-12-05 11:19:22.485540
3465  2023-12-05 11:19:22.517453
3466  2023-12-05 11:19:22.549378
3467  2023-12-05 11:19:22.581239
3468  2023-12-05 11:19:22.613186
3469  2023-12-05 11:19:22.645109
3470  2023-12-05 11:19:22.678062
3471  2023-12-05 11:19:22.726002
3472  2023-12-05 11:19:22.757881
3473  2023-12-05 11:19:22.789825
3474  2023-12-05 11:19:22.821743
3475  2023-12-05 11:19:22.853661
3476  2023-12-05 11:19:22.885538
3477  2023-12-05 11:19:22.942388
3478  2023-12-05 11:19:22.950425
3479  2023-12-05 11:19:22.981314
3480  2023-12-05 11:19:23.013247
3481  2023-12-05 11:19:23.045303
3482  2023-12-05 11:19:23.078205
3483  2023-12-05 11:19:23.125095
3484  2023-12-05 11:19:23.157997
3485  2023-12-05 11:19:23.189906
3486  2023-12-05 11:19:23.221830
3487  2023-12-05 11:19:23.253750
3488  2023-12-05 11:19:23.285794
3489  2023-12-05 11:19:23.317696
3490  2023-12-05 11:19:23.349632
3491  2023-12-05 11:19:23.381532
3492  2023-12-05 11:19:23.413591
3493  2023-12-05 11:19:23.445505
3494  2023-12-05 11:19:23.477419
3495  2023-12-05 11:19:23.525292
3496  2023-12-05 11:19:23.557203
3497  2023-12-05 11:19:23.589127
3498  2023-12-05 11:19:23.622168
3499  2023-12-05 11:19:23.653096
3500  2023-12-05 11:19:23.685999
3501  2023-12-05 11:19:23.717911
3502  2023-12-05 11:19:23.749795
3503  2023-12-05 11:19:23.808639
3504  2023-12-05 11:19:23.814627
3505  2023-12-05 11:19:23.845572
3506  2023-12-05 11:19:23.877495
3507  2023-12-05 11:19:23.926325
3508  2023-12-05 11:19:23.957277
3509  2023-12-05 11:19:23.989199
3510  2023-12-05 11:19:24.022106
3511  2023-12-05 11:19:24.054012
3512  2023-12-05 11:19:24.085950
3513  2023-12-05 11:19:24.117841
3514  2023-12-05 11:19:24.149755
3515  2023-12-05 11:19:24.181674
3516  2023-12-05 11:19:24.213587
3517  2023-12-05 11:19:24.245508
3518  2023-12-05 11:19:24.277415
3519  2023-12-05 11:19:24.325286
3520  2023-12-05 11:19:24.357205
3521  2023-12-05 11:19:24.389117
3522  2023-12-05 11:19:24.422031
3523  2023-12-05 11:19:24.453950
3524  2023-12-05 11:19:24.485858
3525  2023-12-05 11:19:24.517774
3526  2023-12-05 11:19:24.549655
3527  2023-12-05 11:19:24.581604
3528  2023-12-05 11:19:24.613484
3529  2023-12-05 11:19:24.645434
3530  2023-12-05 11:19:24.677344
3531  2023-12-05 11:19:24.725227
3532  2023-12-05 11:19:24.758100
3533  2023-12-05 11:19:24.789061
3534  2023-12-05 11:19:24.821969
3535  2023-12-05 11:19:24.853875
3536  2023-12-05 11:19:24.885804
3537  2023-12-05 11:19:24.917671
3538  2023-12-05 11:19:24.949624
3539  2023-12-05 11:19:24.981530
3540  2023-12-05 11:19:25.013448
3541  2023-12-05 11:19:25.045375
3542  2023-12-05 11:19:25.077276
3543  2023-12-05 11:19:25.125146
3544  2023-12-05 11:19:25.157070
3545  2023-12-05 11:19:25.188980
3546  2023-12-05 11:19:25.221898
3547  2023-12-05 11:19:25.253801
3548  2023-12-05 11:19:25.285686
3549  2023-12-05 11:19:25.317637
3550  2023-12-05 11:19:25.349552
3551  2023-12-05 11:19:25.381465
3552  2023-12-05 11:19:25.413344
3553  2023-12-05 11:19:25.471222
3554  2023-12-05 11:19:25.479215
3555  2023-12-05 11:19:25.525071
3556  2023-12-05 11:19:25.557061
3557  2023-12-05 11:19:25.589980
3558  2023-12-05 11:19:25.621890
3559  2023-12-05 11:19:25.653812
3560  2023-12-05 11:19:25.685724
3561  2023-12-05 11:19:25.717641
