
1  2023-11-15 13:30:15.438433
2  2023-11-15 13:30:15.470344
3  2023-11-15 13:30:15.502253
4  2023-11-15 13:30:15.535137
5  2023-11-15 13:30:15.567095
6  2023-11-15 13:30:15.599009
7  2023-11-15 13:30:15.646882
8  2023-11-15 13:30:15.678824
9  2023-11-15 13:30:15.710711
10  2023-11-15 13:30:15.742626
11  2023-11-15 13:30:15.774541
12  2023-11-15 13:30:15.806459
13  2023-11-15 13:30:15.838413
14  2023-11-15 13:30:15.870287
15  2023-11-15 13:30:15.902208
16  2023-11-15 13:30:15.934163
17  2023-11-15 13:30:15.966171
18  2023-11-15 13:30:15.998280
19  2023-11-15 13:30:16.047093
20  2023-11-15 13:30:16.079063
21  2023-11-15 13:30:16.110923
22  2023-11-15 13:30:16.142837
23  2023-11-15 13:30:16.174783
24  2023-11-15 13:30:16.206800
25  2023-11-15 13:30:16.238712
26  2023-11-15 13:30:16.270635
27  2023-11-15 13:30:16.302648
28  2023-11-15 13:30:16.334576
29  2023-11-15 13:30:16.366574
30  2023-11-15 13:30:16.398456
31  2023-11-15 13:30:16.446359
32  2023-11-15 13:30:16.478272
33  2023-11-15 13:30:16.510157
34  2023-11-15 13:30:16.542072
35  2023-11-15 13:30:16.573987
36  2023-11-15 13:30:16.606899
37  2023-11-15 13:30:16.638814
38  2023-11-15 13:30:16.670728
39  2023-11-15 13:30:16.702643
40  2023-11-15 13:30:16.734542
41  2023-11-15 13:30:16.766445
42  2023-11-15 13:30:16.798354
43  2023-11-15 13:30:16.846226
44  2023-11-15 13:30:16.878215
45  2023-11-15 13:30:16.911119
46  2023-11-15 13:30:16.943007
47  2023-11-15 13:30:16.974923
48  2023-11-15 13:30:17.006839
49  2023-11-15 13:30:17.038784
50  2023-11-15 13:30:17.070667
51  2023-11-15 13:30:17.102627
52  2023-11-15 13:30:17.134615
53  2023-11-15 13:30:17.166563
54  2023-11-15 13:30:17.198469
55  2023-11-15 13:30:17.246324
56  2023-11-15 13:30:17.278269
57  2023-11-15 13:30:17.310220
58  2023-11-15 13:30:17.342130
59  2023-11-15 13:30:17.374062
60  2023-11-15 13:30:17.406926
61  2023-11-15 13:30:17.438871
62  2023-11-15 13:30:17.470755
63  2023-11-15 13:30:17.502677
64  2023-11-15 13:30:17.534616
65  2023-11-15 13:30:17.566531
66  2023-11-15 13:30:17.598414
67  2023-11-15 13:30:17.646320
68  2023-11-15 13:30:17.678230
69  2023-11-15 13:30:17.710116
70  2023-11-15 13:30:17.742914
71  2023-11-15 13:30:17.774828
72  2023-11-15 13:30:17.806785
73  2023-11-15 13:30:17.838658
74  2023-11-15 13:30:17.870390
75  2023-11-15 13:30:17.902262
76  2023-11-15 13:30:17.934176
77  2023-11-15 13:30:17.967089
78  2023-11-15 13:30:18.014013
79  2023-11-15 13:30:18.045961
80  2023-11-15 13:30:18.078875
81  2023-11-15 13:30:18.111064
82  2023-11-15 13:30:18.142017
83  2023-11-15 13:30:18.174897
84  2023-11-15 13:30:18.206808
85  2023-11-15 13:30:18.238722
86  2023-11-15 13:30:18.270771
87  2023-11-15 13:30:18.302678
88  2023-11-15 13:30:18.334602
89  2023-11-15 13:30:18.366514
90  2023-11-15 13:30:18.414468
91  2023-11-15 13:30:18.446347
92  2023-11-15 13:30:18.478262
93  2023-11-15 13:30:18.510218
94  2023-11-15 13:30:18.543121
95  2023-11-15 13:30:18.575004
96  2023-11-15 13:30:18.606965
97  2023-11-15 13:30:18.638833
98  2023-11-15 13:30:18.670749
99  2023-11-15 13:30:18.702695
100  2023-11-15 13:30:18.734592
101  2023-11-15 13:30:18.766554
102  2023-11-15 13:30:18.814437
103  2023-11-15 13:30:18.846390
104  2023-11-15 13:30:18.878361
105  2023-11-15 13:30:18.910276
106  2023-11-15 13:30:18.942193
107  2023-11-15 13:30:18.974151
108  2023-11-15 13:30:19.007051
109  2023-11-15 13:30:19.038972
110  2023-11-15 13:30:19.070878
111  2023-11-15 13:30:19.102841
112  2023-11-15 13:30:19.134788
113  2023-11-15 13:30:19.166709
114  2023-11-15 13:30:19.214567
115  2023-11-15 13:30:19.246491
116  2023-11-15 13:30:19.278373
117  2023-11-15 13:30:19.310287
118  2023-11-15 13:30:19.343305
119  2023-11-15 13:30:19.374285
120  2023-11-15 13:30:19.406183
121  2023-11-15 13:30:19.439051
122  2023-11-15 13:30:19.469966
123  2023-11-15 13:30:19.502932
124  2023-11-15 13:30:19.533982
125  2023-11-15 13:30:19.566852
126  2023-11-15 13:30:19.614755
127  2023-11-15 13:30:19.646639
128  2023-11-15 13:30:19.678447
129  2023-11-15 13:30:19.710329
130  2023-11-15 13:30:19.742243
131  2023-11-15 13:30:19.774199
132  2023-11-15 13:30:19.806398
133  2023-11-15 13:30:19.838311
134  2023-11-15 13:30:19.870234
135  2023-11-15 13:30:19.902121
136  2023-11-15 13:30:19.935030
137  2023-11-15 13:30:19.967046
138  2023-11-15 13:30:20.014919
139  2023-11-15 13:30:20.046833
140  2023-11-15 13:30:20.078750
141  2023-11-15 13:30:20.110713
142  2023-11-15 13:30:20.142709
143  2023-11-15 13:30:20.174592
144  2023-11-15 13:30:20.206538
145  2023-11-15 13:30:20.238454
146  2023-11-15 13:30:20.270451
147  2023-11-15 13:30:20.302320
148  2023-11-15 13:30:20.334252
149  2023-11-15 13:30:20.366212
150  2023-11-15 13:30:20.414163
151  2023-11-15 13:30:20.446147
152  2023-11-15 13:30:20.479012
153  2023-11-15 13:30:20.509929
154  2023-11-15 13:30:20.542884
155  2023-11-15 13:30:20.574790
156  2023-11-15 13:30:20.606671
157  2023-11-15 13:30:20.638746
158  2023-11-15 13:30:20.670743
159  2023-11-15 13:30:20.702762
160  2023-11-15 13:30:20.734647
161  2023-11-15 13:30:20.766593
162  2023-11-15 13:30:20.814464
163  2023-11-15 13:30:20.846385
164  2023-11-15 13:30:20.878344
165  2023-11-15 13:30:20.910304
166  2023-11-15 13:30:20.942174
167  2023-11-15 13:30:20.974368
168  2023-11-15 13:30:21.006305
169  2023-11-15 13:30:21.038208
170  2023-11-15 13:30:21.070124
171  2023-11-15 13:30:21.102993
172  2023-11-15 13:30:21.134939
173  2023-11-15 13:30:21.166841
174  2023-11-15 13:30:21.214794
175  2023-11-15 13:30:21.246676
176  2023-11-15 13:30:21.278591
177  2023-11-15 13:30:21.310506
178  2023-11-15 13:30:21.342420
179  2023-11-15 13:30:21.374377
180  2023-11-15 13:30:21.406294
181  2023-11-15 13:30:21.438164
182  2023-11-15 13:30:21.471076
183  2023-11-15 13:30:21.501993
184  2023-11-15 13:30:21.534948
185  2023-11-15 13:30:21.582778
186  2023-11-15 13:30:21.614728
187  2023-11-15 13:30:21.646607
188  2023-11-15 13:30:21.678563
189  2023-11-15 13:30:21.710470
190  2023-11-15 13:30:21.742393
191  2023-11-15 13:30:21.774308
192  2023-11-15 13:30:21.806226
193  2023-11-15 13:30:21.838208
194  2023-11-15 13:30:21.870160
195  2023-11-15 13:30:21.902038
196  2023-11-15 13:30:21.933952
197  2023-11-15 13:30:21.982821
198  2023-11-15 13:30:22.014736
199  2023-11-15 13:30:22.046651
200  2023-11-15 13:30:22.078674
201  2023-11-15 13:30:22.110593
202  2023-11-15 13:30:22.142508
203  2023-11-15 13:30:22.174536
204  2023-11-15 13:30:22.206513
205  2023-11-15 13:30:22.238467
206  2023-11-15 13:30:22.270382
207  2023-11-15 13:30:22.302297
208  2023-11-15 13:30:22.335209
209  2023-11-15 13:30:22.382083
210  2023-11-15 13:30:22.413999
211  2023-11-15 13:30:22.446910
212  2023-11-15 13:30:22.478872
213  2023-11-15 13:30:22.510740
214  2023-11-15 13:30:22.542654
215  2023-11-15 13:30:22.574569
216  2023-11-15 13:30:22.606521
217  2023-11-15 13:30:22.638398
218  2023-11-15 13:30:22.670313
219  2023-11-15 13:30:22.702228
220  2023-11-15 13:30:22.734142
221  2023-11-15 13:30:22.783012
222  2023-11-15 13:30:22.814927
223  2023-11-15 13:30:22.846841
224  2023-11-15 13:30:22.878756
225  2023-11-15 13:30:22.910671
226  2023-11-15 13:30:22.942586
227  2023-11-15 13:30:22.974500
228  2023-11-15 13:30:23.006416
229  2023-11-15 13:30:23.038365
230  2023-11-15 13:30:23.070300
231  2023-11-15 13:30:23.102159
232  2023-11-15 13:30:23.134074
233  2023-11-15 13:30:23.181946
234  2023-11-15 13:30:23.214858
235  2023-11-15 13:30:23.246803
236  2023-11-15 13:30:23.278718
237  2023-11-15 13:30:23.310602
238  2023-11-15 13:30:23.342516
239  2023-11-15 13:30:23.374431
240  2023-11-15 13:30:23.406387
241  2023-11-15 13:30:23.438260
242  2023-11-15 13:30:23.470177
243  2023-11-15 13:30:23.502090
244  2023-11-15 13:30:23.534019
245  2023-11-15 13:30:23.581877
246  2023-11-15 13:30:23.614826
247  2023-11-15 13:30:23.645978
248  2023-11-15 13:30:23.678890
249  2023-11-15 13:30:23.710805
250  2023-11-15 13:30:23.742720
251  2023-11-15 13:30:23.774635
252  2023-11-15 13:30:23.806549
253  2023-11-15 13:30:23.838464
254  2023-11-15 13:30:23.870484
255  2023-11-15 13:30:23.902398
256  2023-11-15 13:30:23.934313
257  2023-11-15 13:30:23.982185
258  2023-11-15 13:30:24.015097
259  2023-11-15 13:30:24.047014
260  2023-11-15 13:30:24.078927
261  2023-11-15 13:30:24.110872
262  2023-11-15 13:30:24.142756
263  2023-11-15 13:30:24.174671
264  2023-11-15 13:30:24.206585
265  2023-11-15 13:30:24.238546
266  2023-11-15 13:30:24.270415
267  2023-11-15 13:30:24.302329
268  2023-11-15 13:30:24.334244
269  2023-11-15 13:30:24.382116
270  2023-11-15 13:30:24.414058
271  2023-11-15 13:30:24.446095
272  2023-11-15 13:30:24.477987
273  2023-11-15 13:30:24.510910
274  2023-11-15 13:30:24.542825
275  2023-11-15 13:30:24.574740
276  2023-11-15 13:30:24.606656
277  2023-11-15 13:30:24.638569
278  2023-11-15 13:30:24.670484
279  2023-11-15 13:30:24.702441
280  2023-11-15 13:30:24.734313
281  2023-11-15 13:30:24.782185
282  2023-11-15 13:30:24.814100
283  2023-11-15 13:30:24.846014
284  2023-11-15 13:30:24.878927
285  2023-11-15 13:30:24.910841
286  2023-11-15 13:30:24.942756
287  2023-11-15 13:30:24.974670
288  2023-11-15 13:30:25.006585
289  2023-11-15 13:30:25.038500
290  2023-11-15 13:30:25.070415
291  2023-11-15 13:30:25.102329
292  2023-11-15 13:30:25.134244
293  2023-11-15 13:30:25.182116
294  2023-11-15 13:30:25.214031
295  2023-11-15 13:30:25.246943
296  2023-11-15 13:30:25.278857
297  2023-11-15 13:30:25.310773
298  2023-11-15 13:30:25.342687
299  2023-11-15 13:30:25.374602
300  2023-11-15 13:30:25.406516
301  2023-11-15 13:30:25.438439
302  2023-11-15 13:30:25.470346
303  2023-11-15 13:30:25.502351
304  2023-11-15 13:30:25.550223
305  2023-11-15 13:30:25.582138
306  2023-11-15 13:30:25.614092
307  2023-11-15 13:30:25.645967
308  2023-11-15 13:30:25.678879
309  2023-11-15 13:30:25.710794
310  2023-11-15 13:30:25.742745
311  2023-11-15 13:30:25.774630
312  2023-11-15 13:30:25.806538
313  2023-11-15 13:30:25.838452
314  2023-11-15 13:30:25.870415
315  2023-11-15 13:30:25.902323
316  2023-11-15 13:30:25.950204
317  2023-11-15 13:30:25.982070
318  2023-11-15 13:30:26.013985
319  2023-11-15 13:30:26.046897
320  2023-11-15 13:30:26.078811
321  2023-11-15 13:30:26.110726
322  2023-11-15 13:30:26.142641
323  2023-11-15 13:30:26.174555
324  2023-11-15 13:30:26.206492
325  2023-11-15 13:30:26.238385
326  2023-11-15 13:30:26.270300
327  2023-11-15 13:30:26.302214
328  2023-11-15 13:30:26.350086
329  2023-11-15 13:30:26.382001
330  2023-11-15 13:30:26.414929
331  2023-11-15 13:30:26.446829
332  2023-11-15 13:30:26.478744
333  2023-11-15 13:30:26.510657
334  2023-11-15 13:30:26.542572
335  2023-11-15 13:30:26.574487
336  2023-11-15 13:30:26.606448
337  2023-11-15 13:30:26.638398
338  2023-11-15 13:30:26.670312
339  2023-11-15 13:30:26.702195
340  2023-11-15 13:30:26.750127
341  2023-11-15 13:30:26.782042
342  2023-11-15 13:30:26.814954
343  2023-11-15 13:30:26.846869
344  2023-11-15 13:30:26.878862
345  2023-11-15 13:30:26.910746
346  2023-11-15 13:30:26.942701
347  2023-11-15 13:30:26.974575
348  2023-11-15 13:30:27.006520
349  2023-11-15 13:30:27.038405
350  2023-11-15 13:30:27.070320
351  2023-11-15 13:30:27.102279
352  2023-11-15 13:30:27.150151
353  2023-11-15 13:30:27.182066
354  2023-11-15 13:30:27.214984
355  2023-11-15 13:30:27.246893
356  2023-11-15 13:30:27.278807
357  2023-11-15 13:30:27.310722
358  2023-11-15 13:30:27.342637
359  2023-11-15 13:30:27.374551
360  2023-11-15 13:30:27.406587
361  2023-11-15 13:30:27.438502
362  2023-11-15 13:30:27.470417
363  2023-11-15 13:30:27.502331
364  2023-11-15 13:30:27.550365
365  2023-11-15 13:30:27.582280
366  2023-11-15 13:30:27.614195
367  2023-11-15 13:30:27.647107
368  2023-11-15 13:30:27.679022
369  2023-11-15 13:30:27.710937
370  2023-11-15 13:30:27.742852
371  2023-11-15 13:30:27.774766
372  2023-11-15 13:30:27.806680
373  2023-11-15 13:30:27.838595
374  2023-11-15 13:30:27.870554
375  2023-11-15 13:30:27.902460
376  2023-11-15 13:30:27.950329
377  2023-11-15 13:30:27.982211
378  2023-11-15 13:30:28.014126
379  2023-11-15 13:30:28.046041
380  2023-11-15 13:30:28.078004
381  2023-11-15 13:30:28.110024
382  2023-11-15 13:30:28.142892
383  2023-11-15 13:30:28.174807
384  2023-11-15 13:30:28.206757
385  2023-11-15 13:30:28.238672
386  2023-11-15 13:30:28.270682
387  2023-11-15 13:30:28.302597
388  2023-11-15 13:30:28.350469
389  2023-11-15 13:30:28.382384
390  2023-11-15 13:30:28.414298
391  2023-11-15 13:30:28.446213
392  2023-11-15 13:30:28.478128
393  2023-11-15 13:30:28.510043
394  2023-11-15 13:30:28.542961
395  2023-11-15 13:30:28.574879
396  2023-11-15 13:30:28.606784
397  2023-11-15 13:30:28.638699
398  2023-11-15 13:30:28.670614
399  2023-11-15 13:30:28.702528
400  2023-11-15 13:30:28.750401
401  2023-11-15 13:30:28.782315
402  2023-11-15 13:30:28.815227
403  2023-11-15 13:30:28.846144
404  2023-11-15 13:30:28.879057
405  2023-11-15 13:30:28.910971
406  2023-11-15 13:30:28.942886
407  2023-11-15 13:30:28.974800
408  2023-11-15 13:30:29.006715
409  2023-11-15 13:30:29.038169
410  2023-11-15 13:30:29.070047
411  2023-11-15 13:30:29.118916
412  2023-11-15 13:30:29.150835
413  2023-11-15 13:30:29.182799
414  2023-11-15 13:30:29.214713
415  2023-11-15 13:30:29.246666
416  2023-11-15 13:30:29.278579
417  2023-11-15 13:30:29.310458
418  2023-11-15 13:30:29.342373
419  2023-11-15 13:30:29.374329
420  2023-11-15 13:30:29.406201
421  2023-11-15 13:30:29.438116
422  2023-11-15 13:30:29.470031
423  2023-11-15 13:30:29.518901
424  2023-11-15 13:30:29.550815
425  2023-11-15 13:30:29.582730
426  2023-11-15 13:30:29.614645
427  2023-11-15 13:30:29.646559
428  2023-11-15 13:30:29.678474
429  2023-11-15 13:30:29.710389
430  2023-11-15 13:30:29.742303
431  2023-11-15 13:30:29.774219
432  2023-11-15 13:30:29.806133
433  2023-11-15 13:30:29.839045
434  2023-11-15 13:30:29.870960
435  2023-11-15 13:30:29.918832
436  2023-11-15 13:30:29.950786
437  2023-11-15 13:30:29.982661
438  2023-11-15 13:30:30.014576
439  2023-11-15 13:30:30.046490
440  2023-11-15 13:30:30.078405
441  2023-11-15 13:30:30.110363
442  2023-11-15 13:30:30.142234
443  2023-11-15 13:30:30.174149
444  2023-11-15 13:30:30.206109
445  2023-11-15 13:30:30.239007
446  2023-11-15 13:30:30.270891
447  2023-11-15 13:30:30.318851
448  2023-11-15 13:30:30.350733
449  2023-11-15 13:30:30.382647
450  2023-11-15 13:30:30.414567
451  2023-11-15 13:30:30.446477
452  2023-11-15 13:30:30.478391
453  2023-11-15 13:30:30.510306
454  2023-11-15 13:30:30.542262
455  2023-11-15 13:30:30.574135
456  2023-11-15 13:30:30.606050
457  2023-11-15 13:30:30.637965
458  2023-11-15 13:30:30.670767
459  2023-11-15 13:30:30.718639
460  2023-11-15 13:30:30.750554
461  2023-11-15 13:30:30.782469
462  2023-11-15 13:30:30.814383
463  2023-11-15 13:30:30.846298
464  2023-11-15 13:30:30.878213
465  2023-11-15 13:30:30.910127
466  2023-11-15 13:30:30.942042
467  2023-11-15 13:30:30.974095
468  2023-11-15 13:30:31.007008
469  2023-11-15 13:30:31.038024
470  2023-11-15 13:30:31.070936
471  2023-11-15 13:30:31.118808
472  2023-11-15 13:30:31.150723
473  2023-11-15 13:30:31.182638
474  2023-11-15 13:30:31.214553
475  2023-11-15 13:30:31.246545
476  2023-11-15 13:30:31.278464
477  2023-11-15 13:30:31.310380
478  2023-11-15 13:30:31.342304
479  2023-11-15 13:30:31.374206
480  2023-11-15 13:30:31.407086
481  2023-11-15 13:30:31.439010
482  2023-11-15 13:30:31.470958
483  2023-11-15 13:30:31.518819
484  2023-11-15 13:30:31.550733
485  2023-11-15 13:30:31.582616
486  2023-11-15 13:30:31.614531
487  2023-11-15 13:30:31.646483
488  2023-11-15 13:30:31.678398
489  2023-11-15 13:30:31.710601
490  2023-11-15 13:30:31.742518
491  2023-11-15 13:30:31.774479
492  2023-11-15 13:30:31.806393
493  2023-11-15 13:30:31.838308
494  2023-11-15 13:30:31.870223
495  2023-11-15 13:30:31.918095
496  2023-11-15 13:30:31.950009
497  2023-11-15 13:30:31.982053
498  2023-11-15 13:30:32.014965
499  2023-11-15 13:30:32.046880
500  2023-11-15 13:30:32.078794
501  2023-11-15 13:30:32.110709
502  2023-11-15 13:30:32.142624
503  2023-11-15 13:30:32.174538
504  2023-11-15 13:30:32.206453
505  2023-11-15 13:30:32.238368
506  2023-11-15 13:30:32.270283
507  2023-11-15 13:30:32.318155
508  2023-11-15 13:30:32.350082
509  2023-11-15 13:30:32.382982
510  2023-11-15 13:30:32.414896
511  2023-11-15 13:30:32.446811
512  2023-11-15 13:30:32.478725
513  2023-11-15 13:30:32.510640
514  2023-11-15 13:30:32.542632
515  2023-11-15 13:30:32.574506
516  2023-11-15 13:30:32.606603
517  2023-11-15 13:30:32.638488
518  2023-11-15 13:30:32.670403
519  2023-11-15 13:30:32.718361
520  2023-11-15 13:30:32.750240
521  2023-11-15 13:30:32.782236
522  2023-11-15 13:30:32.814106
523  2023-11-15 13:30:32.846020
524  2023-11-15 13:30:32.878933
525  2023-11-15 13:30:32.910855
526  2023-11-15 13:30:32.942762
527  2023-11-15 13:30:32.974676
528  2023-11-15 13:30:33.006591
529  2023-11-15 13:30:33.038560
530  2023-11-15 13:30:33.086432
531  2023-11-15 13:30:33.118347
532  2023-11-15 13:30:33.150261
533  2023-11-15 13:30:33.182303
534  2023-11-15 13:30:33.214375
535  2023-11-15 13:30:33.246290
536  2023-11-15 13:30:33.278204
537  2023-11-15 13:30:33.311148
538  2023-11-15 13:30:33.343031
539  2023-11-15 13:30:33.374874
540  2023-11-15 13:30:33.406789
541  2023-11-15 13:30:33.438704
542  2023-11-15 13:30:33.486575
543  2023-11-15 13:30:33.518490
544  2023-11-15 13:30:33.550405
545  2023-11-15 13:30:33.582319
546  2023-11-15 13:30:33.614234
547  2023-11-15 13:30:33.646149
548  2023-11-15 13:30:33.678138
549  2023-11-15 13:30:33.710052
550  2023-11-15 13:30:33.743017
551  2023-11-15 13:30:33.775014
552  2023-11-15 13:30:33.806888
553  2023-11-15 13:30:33.838864
554  2023-11-15 13:30:33.886675
555  2023-11-15 13:30:33.918590
556  2023-11-15 13:30:33.950505
557  2023-11-15 13:30:33.982526
558  2023-11-15 13:30:34.015318
559  2023-11-15 13:30:34.046190
560  2023-11-15 13:30:34.079143
561  2023-11-15 13:30:34.111017
562  2023-11-15 13:30:34.142931
563  2023-11-15 13:30:34.174847
564  2023-11-15 13:30:34.206761
565  2023-11-15 13:30:34.238775
566  2023-11-15 13:30:34.286683
567  2023-11-15 13:30:34.318599
568  2023-11-15 13:30:34.350513
569  2023-11-15 13:30:34.382427
570  2023-11-15 13:30:34.414384
571  2023-11-15 13:30:34.446303
572  2023-11-15 13:30:34.478214
573  2023-11-15 13:30:34.511251
574  2023-11-15 13:30:34.542137
575  2023-11-15 13:30:34.575079
576  2023-11-15 13:30:34.606967
577  2023-11-15 13:30:34.638880
578  2023-11-15 13:30:34.686948
579  2023-11-15 13:30:34.718104
580  2023-11-15 13:30:34.751033
581  2023-11-15 13:30:34.782931
582  2023-11-15 13:30:34.814858
583  2023-11-15 13:30:34.846761
584  2023-11-15 13:30:34.878716
585  2023-11-15 13:30:34.910591
586  2023-11-15 13:30:34.942631
587  2023-11-15 13:30:34.974542
588  2023-11-15 13:30:35.006589
589  2023-11-15 13:30:35.038533
590  2023-11-15 13:30:35.086488
591  2023-11-15 13:30:35.118560
592  2023-11-15 13:30:35.150514
593  2023-11-15 13:30:35.182859
594  2023-11-15 13:30:35.214790
595  2023-11-15 13:30:35.246705
596  2023-11-15 13:30:35.278590
597  2023-11-15 13:30:35.310631
598  2023-11-15 13:30:35.342546
599  2023-11-15 13:30:35.374460
600  2023-11-15 13:30:35.407372
601  2023-11-15 13:30:35.438291
602  2023-11-15 13:30:35.486174
603  2023-11-15 13:30:35.518109
604  2023-11-15 13:30:35.550104
605  2023-11-15 13:30:35.582132
606  2023-11-15 13:30:35.614042
607  2023-11-15 13:30:35.645956
608  2023-11-15 13:30:35.678873
609  2023-11-15 13:30:35.710786
610  2023-11-15 13:30:35.742667
611  2023-11-15 13:30:35.774583
612  2023-11-15 13:30:35.806497
613  2023-11-15 13:30:35.838538
614  2023-11-15 13:30:35.886588
615  2023-11-15 13:30:35.918485
616  2023-11-15 13:30:35.950367
617  2023-11-15 13:30:35.982375
618  2023-11-15 13:30:36.014389
619  2023-11-15 13:30:36.046414
620  2023-11-15 13:30:36.078296
621  2023-11-15 13:30:36.110255
622  2023-11-15 13:30:36.142218
623  2023-11-15 13:30:36.174132
624  2023-11-15 13:30:36.206048
625  2023-11-15 13:30:36.238003
626  2023-11-15 13:30:36.286869
627  2023-11-15 13:30:36.318776
628  2023-11-15 13:30:36.350691
629  2023-11-15 13:30:36.382721
630  2023-11-15 13:30:36.414607
631  2023-11-15 13:30:36.446389
632  2023-11-15 13:30:36.478265
633  2023-11-15 13:30:36.510217
634  2023-11-15 13:30:36.542128
635  2023-11-15 13:30:36.574042
636  2023-11-15 13:30:36.606922
637  2023-11-15 13:30:36.654827
638  2023-11-15 13:30:36.686742
639  2023-11-15 13:30:36.718623
640  2023-11-15 13:30:36.750572
641  2023-11-15 13:30:36.782484
642  2023-11-15 13:30:36.814397
643  2023-11-15 13:30:36.846282
644  2023-11-15 13:30:36.878197
645  2023-11-15 13:30:36.910156
646  2023-11-15 13:30:36.942027
647  2023-11-15 13:30:36.973980
648  2023-11-15 13:30:37.006893
649  2023-11-15 13:30:37.054767
650  2023-11-15 13:30:37.086672
651  2023-11-15 13:30:37.118585
652  2023-11-15 13:30:37.150501
653  2023-11-15 13:30:37.182410
654  2023-11-15 13:30:37.214339
655  2023-11-15 13:30:37.246213
656  2023-11-15 13:30:37.279125
657  2023-11-15 13:30:37.310085
658  2023-11-15 13:30:37.343000
659  2023-11-15 13:30:37.374902
660  2023-11-15 13:30:37.406784
661  2023-11-15 13:30:37.454721
662  2023-11-15 13:30:37.486812
663  2023-11-15 13:30:37.518711
664  2023-11-15 13:30:37.550661
665  2023-11-15 13:30:37.582542
666  2023-11-15 13:30:37.614482
667  2023-11-15 13:30:37.646370
668  2023-11-15 13:30:37.678325
669  2023-11-15 13:30:37.710245
670  2023-11-15 13:30:37.743112
671  2023-11-15 13:30:37.775027
672  2023-11-15 13:30:37.806940
673  2023-11-15 13:30:37.854854
674  2023-11-15 13:30:37.886761
675  2023-11-15 13:30:37.918720
676  2023-11-15 13:30:37.950557
677  2023-11-15 13:30:37.982542
678  2023-11-15 13:30:38.014465
679  2023-11-15 13:30:38.046384
680  2023-11-15 13:30:38.078312
681  2023-11-15 13:30:38.111201
682  2023-11-15 13:30:38.142139
683  2023-11-15 13:30:38.174033
684  2023-11-15 13:30:38.206946
685  2023-11-15 13:30:38.254816
686  2023-11-15 13:30:38.286731
687  2023-11-15 13:30:38.318613
688  2023-11-15 13:30:38.350559
689  2023-11-15 13:30:38.382473
690  2023-11-15 13:30:38.414386
691  2023-11-15 13:30:38.446324
692  2023-11-15 13:30:38.478187
693  2023-11-15 13:30:38.510111
694  2023-11-15 13:30:38.543109
695  2023-11-15 13:30:38.575020
696  2023-11-15 13:30:38.606955
697  2023-11-15 13:30:38.654775
698  2023-11-15 13:30:38.686690
699  2023-11-15 13:30:38.718635
700  2023-11-15 13:30:38.750553
701  2023-11-15 13:30:38.782472
702  2023-11-15 13:30:38.814387
703  2023-11-15 13:30:38.846292
704  2023-11-15 13:30:38.878213
705  2023-11-15 13:30:38.911137
706  2023-11-15 13:30:38.943041
707  2023-11-15 13:30:38.974950
708  2023-11-15 13:30:39.006864
709  2023-11-15 13:30:39.054735
710  2023-11-15 13:30:39.086680
711  2023-11-15 13:30:39.118535
712  2023-11-15 13:30:39.150484
713  2023-11-15 13:30:39.182396
714  2023-11-15 13:30:39.214327
715  2023-11-15 13:30:39.246239
716  2023-11-15 13:30:39.278151
717  2023-11-15 13:30:39.311029
718  2023-11-15 13:30:39.342977
719  2023-11-15 13:30:39.374884
720  2023-11-15 13:30:39.406803
721  2023-11-15 13:30:39.454666
722  2023-11-15 13:30:39.486581
723  2023-11-15 13:30:39.518592
724  2023-11-15 13:30:39.550551
725  2023-11-15 13:30:39.582551
726  2023-11-15 13:30:39.614432
727  2023-11-15 13:30:39.646438
728  2023-11-15 13:30:39.678347
729  2023-11-15 13:30:39.710225
730  2023-11-15 13:30:39.742172
731  2023-11-15 13:30:39.775087
732  2023-11-15 13:30:39.806006
733  2023-11-15 13:30:39.854869
734  2023-11-15 13:30:39.886784
735  2023-11-15 13:30:39.918698
736  2023-11-15 13:30:39.950636
737  2023-11-15 13:30:39.982529
738  2023-11-15 13:30:40.014448
739  2023-11-15 13:30:40.046360
740  2023-11-15 13:30:40.078275
741  2023-11-15 13:30:40.110184
742  2023-11-15 13:30:40.142108
743  2023-11-15 13:30:40.174020
744  2023-11-15 13:30:40.206948
745  2023-11-15 13:30:40.254800
746  2023-11-15 13:30:40.286716
747  2023-11-15 13:30:40.318633
748  2023-11-15 13:30:40.350513
749  2023-11-15 13:30:40.382461
750  2023-11-15 13:30:40.414377
751  2023-11-15 13:30:40.446311
752  2023-11-15 13:30:40.478206
753  2023-11-15 13:30:40.511091
754  2023-11-15 13:30:40.543044
755  2023-11-15 13:30:40.574945
756  2023-11-15 13:30:40.622019
757  2023-11-15 13:30:40.653931
758  2023-11-15 13:30:40.686836
759  2023-11-15 13:30:40.718759
760  2023-11-15 13:30:40.750673
761  2023-11-15 13:30:40.782563
762  2023-11-15 13:30:40.814527
763  2023-11-15 13:30:40.846441
764  2023-11-15 13:30:40.878356
765  2023-11-15 13:30:40.910355
766  2023-11-15 13:30:40.942440
767  2023-11-15 13:30:40.974332
768  2023-11-15 13:30:41.022206
769  2023-11-15 13:30:41.054118
770  2023-11-15 13:30:41.087045
771  2023-11-15 13:30:41.117947
772  2023-11-15 13:30:41.150859
773  2023-11-15 13:30:41.182922
774  2023-11-15 13:30:41.214836
775  2023-11-15 13:30:41.246716
776  2023-11-15 13:30:41.278671
777  2023-11-15 13:30:41.310546
778  2023-11-15 13:30:41.342496
779  2023-11-15 13:30:41.374418
780  2023-11-15 13:30:41.422347
781  2023-11-15 13:30:41.454262
782  2023-11-15 13:30:41.486174
783  2023-11-15 13:30:41.518093
784  2023-11-15 13:30:41.550009
785  2023-11-15 13:30:41.582918
786  2023-11-15 13:30:41.614834
787  2023-11-15 13:30:41.646752
788  2023-11-15 13:30:41.678667
789  2023-11-15 13:30:41.710545
790  2023-11-15 13:30:41.742499
791  2023-11-15 13:30:41.775372
792  2023-11-15 13:30:41.822285
793  2023-11-15 13:30:41.854196
794  2023-11-15 13:30:41.886107
795  2023-11-15 13:30:41.917998
796  2023-11-15 13:30:41.949906
797  2023-11-15 13:30:41.982852
798  2023-11-15 13:30:42.014766
799  2023-11-15 13:30:42.046689
800  2023-11-15 13:30:42.078596
801  2023-11-15 13:30:42.110513
802  2023-11-15 13:30:42.142430
803  2023-11-15 13:30:42.174336
804  2023-11-15 13:30:42.222211
805  2023-11-15 13:30:42.254257
806  2023-11-15 13:30:42.286264
807  2023-11-15 13:30:42.318177
808  2023-11-15 13:30:42.350091
809  2023-11-15 13:30:42.383018
810  2023-11-15 13:30:42.414922
811  2023-11-15 13:30:42.446852
812  2023-11-15 13:30:42.478752
813  2023-11-15 13:30:42.510671
814  2023-11-15 13:30:42.542568
815  2023-11-15 13:30:42.574490
816  2023-11-15 13:30:42.622375
817  2023-11-15 13:30:42.654339
818  2023-11-15 13:30:42.686295
819  2023-11-15 13:30:42.718269
820  2023-11-15 13:30:42.750185
821  2023-11-15 13:30:42.782097
822  2023-11-15 13:30:42.814010
823  2023-11-15 13:30:42.846930
824  2023-11-15 13:30:42.878839
825  2023-11-15 13:30:42.910755
826  2023-11-15 13:30:42.942635
827  2023-11-15 13:30:42.974612
828  2023-11-15 13:30:43.022455
829  2023-11-15 13:30:43.054368
830  2023-11-15 13:30:43.086289
831  2023-11-15 13:30:43.118197
832  2023-11-15 13:30:43.150117
833  2023-11-15 13:30:43.182026
834  2023-11-15 13:30:43.213943
835  2023-11-15 13:30:43.246872
836  2023-11-15 13:30:43.278777
837  2023-11-15 13:30:43.310652
838  2023-11-15 13:30:43.342567
839  2023-11-15 13:30:43.374526
840  2023-11-15 13:30:43.422391
841  2023-11-15 13:30:43.454302
842  2023-11-15 13:30:43.486223
843  2023-11-15 13:30:43.518133
844  2023-11-15 13:30:43.550048
845  2023-11-15 13:30:43.581960
846  2023-11-15 13:30:43.614895
847  2023-11-15 13:30:43.646796
848  2023-11-15 13:30:43.678712
849  2023-11-15 13:30:43.710583
850  2023-11-15 13:30:43.742528
851  2023-11-15 13:30:43.774456
852  2023-11-15 13:30:43.822328
853  2023-11-15 13:30:43.854229
854  2023-11-15 13:30:43.886151
855  2023-11-15 13:30:43.918071
856  2023-11-15 13:30:43.949975
857  2023-11-15 13:30:43.982855
858  2023-11-15 13:30:44.014803
859  2023-11-15 13:30:44.046727
860  2023-11-15 13:30:44.078604
861  2023-11-15 13:30:44.110514
862  2023-11-15 13:30:44.142428
863  2023-11-15 13:30:44.190301
864  2023-11-15 13:30:44.222215
865  2023-11-15 13:30:44.254307
866  2023-11-15 13:30:44.286206
867  2023-11-15 13:30:44.318125
868  2023-11-15 13:30:44.350036
869  2023-11-15 13:30:44.382915
870  2023-11-15 13:30:44.414830
871  2023-11-15 13:30:44.446744
872  2023-11-15 13:30:44.478692
873  2023-11-15 13:30:44.510608
874  2023-11-15 13:30:44.542488
875  2023-11-15 13:30:44.590393
876  2023-11-15 13:30:44.622284
877  2023-11-15 13:30:44.654190
878  2023-11-15 13:30:44.687102
879  2023-11-15 13:30:44.718056
880  2023-11-15 13:30:44.750931
881  2023-11-15 13:30:44.782847
882  2023-11-15 13:30:44.814795
883  2023-11-15 13:30:44.846675
884  2023-11-15 13:30:44.878590
885  2023-11-15 13:30:44.910538
886  2023-11-15 13:30:44.942471
887  2023-11-15 13:30:44.990326
888  2023-11-15 13:30:45.022245
889  2023-11-15 13:30:45.054121
890  2023-11-15 13:30:45.086073
891  2023-11-15 13:30:45.117984
892  2023-11-15 13:30:45.150893
893  2023-11-15 13:30:45.182777
894  2023-11-15 13:30:45.214691
895  2023-11-15 13:30:45.246637
896  2023-11-15 13:30:45.278554
897  2023-11-15 13:30:45.310436
898  2023-11-15 13:30:45.342350
899  2023-11-15 13:30:45.390222
900  2023-11-15 13:30:45.422137
901  2023-11-15 13:30:45.454089
902  2023-11-15 13:30:45.486002
903  2023-11-15 13:30:45.518879
904  2023-11-15 13:30:45.550793
905  2023-11-15 13:30:45.582750
906  2023-11-15 13:30:45.614623
907  2023-11-15 13:30:45.646537
908  2023-11-15 13:30:45.678452
909  2023-11-15 13:30:45.710415
910  2023-11-15 13:30:45.742281
911  2023-11-15 13:30:45.790202
912  2023-11-15 13:30:45.822068
913  2023-11-15 13:30:45.853983
914  2023-11-15 13:30:45.886895
915  2023-11-15 13:30:45.918810
916  2023-11-15 13:30:45.950679
917  2023-11-15 13:30:45.982724
918  2023-11-15 13:30:46.014639
919  2023-11-15 13:30:46.046554
920  2023-11-15 13:30:46.078469
921  2023-11-15 13:30:46.110383
922  2023-11-15 13:30:46.142310
923  2023-11-15 13:30:46.190278
924  2023-11-15 13:30:46.222192
925  2023-11-15 13:30:46.254107
926  2023-11-15 13:30:46.286022
927  2023-11-15 13:30:46.318984
928  2023-11-15 13:30:46.350900
929  2023-11-15 13:30:46.382822
930  2023-11-15 13:30:46.414821
931  2023-11-15 13:30:46.446733
932  2023-11-15 13:30:46.478647
933  2023-11-15 13:30:46.510562
934  2023-11-15 13:30:46.542477
935  2023-11-15 13:30:46.590350
936  2023-11-15 13:30:46.622265
937  2023-11-15 13:30:46.654214
938  2023-11-15 13:30:46.686094
939  2023-11-15 13:30:46.718009
940  2023-11-15 13:30:46.750921
941  2023-11-15 13:30:46.782836
942  2023-11-15 13:30:46.814750
943  2023-11-15 13:30:46.846665
944  2023-11-15 13:30:46.878580
945  2023-11-15 13:30:46.910525
946  2023-11-15 13:30:46.942455
947  2023-11-15 13:30:46.990333
948  2023-11-15 13:30:47.022196
949  2023-11-15 13:30:47.054110
950  2023-11-15 13:30:47.086025
951  2023-11-15 13:30:47.117973
952  2023-11-15 13:30:47.150852
953  2023-11-15 13:30:47.182767
954  2023-11-15 13:30:47.214695
955  2023-11-15 13:30:47.246628
956  2023-11-15 13:30:47.278543
957  2023-11-15 13:30:47.311428
958  2023-11-15 13:30:47.342341
959  2023-11-15 13:30:47.390351
960  2023-11-15 13:30:47.422266
961  2023-11-15 13:30:47.454181
962  2023-11-15 13:30:47.486095
963  2023-11-15 13:30:47.518010
964  2023-11-15 13:30:47.550922
965  2023-11-15 13:30:47.582837
966  2023-11-15 13:30:47.614752
967  2023-11-15 13:30:47.646666
968  2023-11-15 13:30:47.678581
969  2023-11-15 13:30:47.710496
970  2023-11-15 13:30:47.742410
971  2023-11-15 13:30:47.790399
972  2023-11-15 13:30:47.822293
973  2023-11-15 13:30:47.854193
974  2023-11-15 13:30:47.886183
975  2023-11-15 13:30:47.918093
976  2023-11-15 13:30:47.950021
977  2023-11-15 13:30:47.983010
978  2023-11-15 13:30:48.014872
979  2023-11-15 13:30:48.046849
980  2023-11-15 13:30:48.078764
981  2023-11-15 13:30:48.110710
982  2023-11-15 13:30:48.158587
983  2023-11-15 13:30:48.190465
984  2023-11-15 13:30:48.222379
985  2023-11-15 13:30:48.254294
986  2023-11-15 13:30:48.286248
987  2023-11-15 13:30:48.318156
988  2023-11-15 13:30:48.350038
989  2023-11-15 13:30:48.382950
990  2023-11-15 13:30:48.414872
991  2023-11-15 13:30:48.446816
992  2023-11-15 13:30:48.478694
993  2023-11-15 13:30:48.510609
994  2023-11-15 13:30:48.558481
995  2023-11-15 13:30:48.590396
996  2023-11-15 13:30:48.622349
997  2023-11-15 13:30:48.654265
998  2023-11-15 13:30:48.686140
999  2023-11-15 13:30:48.718055
1000  2023-11-15 13:30:48.750007
1001  2023-11-15 13:30:48.782914
1002  2023-11-15 13:30:48.814796
1003  2023-11-15 13:30:48.846711
1004  2023-11-15 13:30:48.878625
1005  2023-11-15 13:30:48.910574
1006  2023-11-15 13:30:48.958446
1007  2023-11-15 13:30:48.990365
1008  2023-11-15 13:30:49.022241
1009  2023-11-15 13:30:49.054156
1010  2023-11-15 13:30:49.086071
1011  2023-11-15 13:30:49.117986
1012  2023-11-15 13:30:49.150898
1013  2023-11-15 13:30:49.182812
1014  2023-11-15 13:30:49.214727
1015  2023-11-15 13:30:49.246646
1016  2023-11-15 13:30:49.278556
1017  2023-11-15 13:30:49.310471
1018  2023-11-15 13:30:49.358461
1019  2023-11-15 13:30:49.390375
1020  2023-11-15 13:30:49.422290
1021  2023-11-15 13:30:49.454205
1022  2023-11-15 13:30:49.486119
1023  2023-11-15 13:30:49.518034
1024  2023-11-15 13:30:49.550046
1025  2023-11-15 13:30:49.581961
1026  2023-11-15 13:30:49.614873
1027  2023-11-15 13:30:49.646787
1028  2023-11-15 13:30:49.678702
1029  2023-11-15 13:30:49.710737
1030  2023-11-15 13:30:49.758777
1031  2023-11-15 13:30:49.790338
1032  2023-11-15 13:30:49.822330
1033  2023-11-15 13:30:49.854206
1034  2023-11-15 13:30:49.886120
1035  2023-11-15 13:30:49.918035
1036  2023-11-15 13:30:49.949985
1037  2023-11-15 13:30:49.982862
1038  2023-11-15 13:30:50.014776
1039  2023-11-15 13:30:50.046691
1040  2023-11-15 13:30:50.078645
1041  2023-11-15 13:30:50.110554
1042  2023-11-15 13:30:50.158428
1043  2023-11-15 13:30:50.190307
1044  2023-11-15 13:30:50.222222
1045  2023-11-15 13:30:50.254137
1046  2023-11-15 13:30:50.286088
1047  2023-11-15 13:30:50.318004
1048  2023-11-15 13:30:50.350878
1049  2023-11-15 13:30:50.382793
1050  2023-11-15 13:30:50.414747
1051  2023-11-15 13:30:50.446663
1052  2023-11-15 13:30:50.478537
1053  2023-11-15 13:30:50.510452
1054  2023-11-15 13:30:50.558324
1055  2023-11-15 13:30:50.590238
1056  2023-11-15 13:30:50.622153
1057  2023-11-15 13:30:50.654068
1058  2023-11-15 13:30:50.686980
1059  2023-11-15 13:30:50.718894
1060  2023-11-15 13:30:50.750809
1061  2023-11-15 13:30:50.782724
1062  2023-11-15 13:30:50.814638
1063  2023-11-15 13:30:50.846553
1064  2023-11-15 13:30:50.878468
1065  2023-11-15 13:30:50.910389
1066  2023-11-15 13:30:50.958254
1067  2023-11-15 13:30:50.991179
1068  2023-11-15 13:30:51.023082
1069  2023-11-15 13:30:51.054996
1070  2023-11-15 13:30:51.086911
1071  2023-11-15 13:30:51.118837
1072  2023-11-15 13:30:51.150740
1073  2023-11-15 13:30:51.182655
1074  2023-11-15 13:30:51.214570
1075  2023-11-15 13:30:51.246488
1076  2023-11-15 13:30:51.278400
1077  2023-11-15 13:30:51.310314
1078  2023-11-15 13:30:51.359225
1079  2023-11-15 13:30:51.390100
1080  2023-11-15 13:30:51.423012
1081  2023-11-15 13:30:51.454970
1082  2023-11-15 13:30:51.486873
1083  2023-11-15 13:30:51.518756
1084  2023-11-15 13:30:51.550671
1085  2023-11-15 13:30:51.582668
1086  2023-11-15 13:30:51.614587
1087  2023-11-15 13:30:51.646548
1088  2023-11-15 13:30:51.678464
1089  2023-11-15 13:30:51.726430
1090  2023-11-15 13:30:51.758434
1091  2023-11-15 13:30:51.790390
1092  2023-11-15 13:30:51.822299
1093  2023-11-15 13:30:51.854180
1094  2023-11-15 13:30:51.886204
1095  2023-11-15 13:30:51.918200
1096  2023-11-15 13:30:51.950166
1097  2023-11-15 13:30:51.982043
1098  2023-11-15 13:30:52.014081
1099  2023-11-15 13:30:52.045996
1100  2023-11-15 13:30:52.078908
1101  2023-11-15 13:30:52.126916
1102  2023-11-15 13:30:52.158830
1103  2023-11-15 13:30:52.190745
1104  2023-11-15 13:30:52.222659
1105  2023-11-15 13:30:52.254713
1106  2023-11-15 13:30:52.286628
1107  2023-11-15 13:30:52.318542
1108  2023-11-15 13:30:52.350457
1109  2023-11-15 13:30:52.382493
1110  2023-11-15 13:30:52.414420
1111  2023-11-15 13:30:52.446322
1112  2023-11-15 13:30:52.478237
1113  2023-11-15 13:30:52.526109
1114  2023-11-15 13:30:52.558037
1115  2023-11-15 13:30:52.589996
1116  2023-11-15 13:30:52.622908
1117  2023-11-15 13:30:52.654891
1118  2023-11-15 13:30:52.686805
1119  2023-11-15 13:30:52.718721
1120  2023-11-15 13:30:52.750634
1121  2023-11-15 13:30:52.782549
1122  2023-11-15 13:30:52.814464
1123  2023-11-15 13:30:52.846388
1124  2023-11-15 13:30:52.878293
1125  2023-11-15 13:30:52.926165
1126  2023-11-15 13:30:52.958080
1127  2023-11-15 13:30:52.991128
1128  2023-11-15 13:30:53.023043
1129  2023-11-15 13:30:53.054957
1130  2023-11-15 13:30:53.086872
1131  2023-11-15 13:30:53.118787
1132  2023-11-15 13:30:53.150701
1133  2023-11-15 13:30:53.182616
1134  2023-11-15 13:30:53.214530
1135  2023-11-15 13:30:53.246445
1136  2023-11-15 13:30:53.279361
1137  2023-11-15 13:30:53.326232
1138  2023-11-15 13:30:53.358196
1139  2023-11-15 13:30:53.390227
1140  2023-11-15 13:30:53.422189
1141  2023-11-15 13:30:53.455128
1142  2023-11-15 13:30:53.486051
1143  2023-11-15 13:30:53.518931
1144  2023-11-15 13:30:53.550845
1145  2023-11-15 13:30:53.582760
1146  2023-11-15 13:30:53.614706
1147  2023-11-15 13:30:53.646658
1148  2023-11-15 13:30:53.678687
1149  2023-11-15 13:30:53.726559
1150  2023-11-15 13:30:53.758474
1151  2023-11-15 13:30:53.790393
1152  2023-11-15 13:30:53.822338
1153  2023-11-15 13:30:53.854218
1154  2023-11-15 13:30:53.886133
1155  2023-11-15 13:30:53.918062
1156  2023-11-15 13:30:53.950960
1157  2023-11-15 13:30:53.982874
1158  2023-11-15 13:30:54.014789
1159  2023-11-15 13:30:54.046704
1160  2023-11-15 13:30:54.078619
1161  2023-11-15 13:30:54.126491
1162  2023-11-15 13:30:54.158405
1163  2023-11-15 13:30:54.190320
1164  2023-11-15 13:30:54.222235
1165  2023-11-15 13:30:54.254149
1166  2023-11-15 13:30:54.286064
1167  2023-11-15 13:30:54.319025
1168  2023-11-15 13:30:54.350891
1169  2023-11-15 13:30:54.382805
1170  2023-11-15 13:30:54.414720
1171  2023-11-15 13:30:54.446635
1172  2023-11-15 13:30:54.478549
1173  2023-11-15 13:30:54.526470
1174  2023-11-15 13:30:54.558336
1175  2023-11-15 13:30:54.590251
1176  2023-11-15 13:30:54.622267
1177  2023-11-15 13:30:54.654165
1178  2023-11-15 13:30:54.686129
1179  2023-11-15 13:30:54.718166
1180  2023-11-15 13:30:54.750129
1181  2023-11-15 13:30:54.782177
1182  2023-11-15 13:30:54.814059
1183  2023-11-15 13:30:54.846008
1184  2023-11-15 13:30:54.878887
1185  2023-11-15 13:30:54.926359
1186  2023-11-15 13:30:54.958327
1187  2023-11-15 13:30:54.990218
1188  2023-11-15 13:30:55.022103
1189  2023-11-15 13:30:55.054099
1190  2023-11-15 13:30:55.086013
1191  2023-11-15 13:30:55.118098
1192  2023-11-15 13:30:55.150970
1193  2023-11-15 13:30:55.182884
1194  2023-11-15 13:30:55.214908
1195  2023-11-15 13:30:55.247025
1196  2023-11-15 13:30:55.278951
1197  2023-11-15 13:30:55.326869
1198  2023-11-15 13:30:55.358736
1199  2023-11-15 13:30:55.390651
1200  2023-11-15 13:30:55.422566
1201  2023-11-15 13:30:55.454481
1202  2023-11-15 13:30:55.486461
1203  2023-11-15 13:30:55.518447
1204  2023-11-15 13:30:55.550362
1205  2023-11-15 13:30:55.582277
1206  2023-11-15 13:30:55.614192
1207  2023-11-15 13:30:55.647106
1208  2023-11-15 13:30:55.693978
1209  2023-11-15 13:30:55.726900
1210  2023-11-15 13:30:55.758807
1211  2023-11-15 13:30:55.790725
1212  2023-11-15 13:30:55.822761
1213  2023-11-15 13:30:55.854676
1214  2023-11-15 13:30:55.887590
1215  2023-11-15 13:30:55.919535
1216  2023-11-15 13:30:55.950420
1217  2023-11-15 13:30:55.983371
1218  2023-11-15 13:30:56.015402
1219  2023-11-15 13:30:56.047312
1220  2023-11-15 13:30:56.095199
1221  2023-11-15 13:30:56.127065
1222  2023-11-15 13:30:56.159108
1223  2023-11-15 13:30:56.191020
1224  2023-11-15 13:30:56.222944
1225  2023-11-15 13:30:56.254848
1226  2023-11-15 13:30:56.286795
1227  2023-11-15 13:30:56.318678
1228  2023-11-15 13:30:56.350592
1229  2023-11-15 13:30:56.382507
1230  2023-11-15 13:30:56.414475
1231  2023-11-15 13:30:56.447388
1232  2023-11-15 13:30:56.494298
1233  2023-11-15 13:30:56.527250
1234  2023-11-15 13:30:56.558091
1235  2023-11-15 13:30:56.591046
1236  2023-11-15 13:30:56.622949
1237  2023-11-15 13:30:56.654908
1238  2023-11-15 13:30:56.686872
1239  2023-11-15 13:30:56.718790
1240  2023-11-15 13:30:56.750701
1241  2023-11-15 13:30:56.782618
1242  2023-11-15 13:30:56.814501
1243  2023-11-15 13:30:56.846416
1244  2023-11-15 13:30:56.894287
1245  2023-11-15 13:30:56.926202
1246  2023-11-15 13:30:56.958116
1247  2023-11-15 13:30:56.990031
1248  2023-11-15 13:30:57.022944
1249  2023-11-15 13:30:57.054890
1250  2023-11-15 13:30:57.086773
1251  2023-11-15 13:30:57.118688
1252  2023-11-15 13:30:57.150637
1253  2023-11-15 13:30:57.182552
1254  2023-11-15 13:30:57.214464
1255  2023-11-15 13:30:57.246385
1256  2023-11-15 13:30:57.294219
1257  2023-11-15 13:30:57.327165
1258  2023-11-15 13:30:57.359051
1259  2023-11-15 13:30:57.391024
1260  2023-11-15 13:30:57.422876
1261  2023-11-15 13:30:57.454917
1262  2023-11-15 13:30:57.486964
1263  2023-11-15 13:30:57.518878
1264  2023-11-15 13:30:57.550794
1265  2023-11-15 13:30:57.582708
1266  2023-11-15 13:30:57.614627
1267  2023-11-15 13:30:57.646539
1268  2023-11-15 13:30:57.694449
1269  2023-11-15 13:30:57.726324
1270  2023-11-15 13:30:57.759265
1271  2023-11-15 13:30:57.791209
1272  2023-11-15 13:30:57.823105
1273  2023-11-15 13:30:57.854139
1274  2023-11-15 13:30:57.886043
1275  2023-11-15 13:30:57.918955
1276  2023-11-15 13:30:57.950881
1277  2023-11-15 13:30:57.982783
1278  2023-11-15 13:30:58.014727
1279  2023-11-15 13:30:58.046642
1280  2023-11-15 13:30:58.094514
1281  2023-11-15 13:30:58.126462
1282  2023-11-15 13:30:58.158391
1283  2023-11-15 13:30:58.190262
1284  2023-11-15 13:30:58.222173
1285  2023-11-15 13:30:58.254145
1286  2023-11-15 13:30:58.286051
1287  2023-11-15 13:30:58.317965
1288  2023-11-15 13:30:58.350884
1289  2023-11-15 13:30:58.382827
1290  2023-11-15 13:30:58.414740
1291  2023-11-15 13:30:58.446661
1292  2023-11-15 13:30:58.494544
1293  2023-11-15 13:30:58.526449
1294  2023-11-15 13:30:58.558363
1295  2023-11-15 13:30:58.590311
1296  2023-11-15 13:30:58.622211
1297  2023-11-15 13:30:58.654137
1298  2023-11-15 13:30:58.686100
1299  2023-11-15 13:30:58.718054
1300  2023-11-15 13:30:58.750928
1301  2023-11-15 13:30:58.782873
1302  2023-11-15 13:30:58.814757
1303  2023-11-15 13:30:58.846671
1304  2023-11-15 13:30:58.894585
1305  2023-11-15 13:30:58.926457
1306  2023-11-15 13:30:58.958404
1307  2023-11-15 13:30:58.990346
1308  2023-11-15 13:30:59.022232
1309  2023-11-15 13:30:59.054160
1310  2023-11-15 13:30:59.086073
1311  2023-11-15 13:30:59.118980
1312  2023-11-15 13:30:59.150859
1313  2023-11-15 13:30:59.182774
1314  2023-11-15 13:30:59.214724
1315  2023-11-15 13:30:59.246637
1316  2023-11-15 13:30:59.294506
1317  2023-11-15 13:30:59.326426
1318  2023-11-15 13:30:59.358303
1319  2023-11-15 13:30:59.390261
1320  2023-11-15 13:30:59.422165
1321  2023-11-15 13:30:59.454080
1322  2023-11-15 13:30:59.486000
1323  2023-11-15 13:30:59.518874
1324  2023-11-15 13:30:59.550821
1325  2023-11-15 13:30:59.582736
1326  2023-11-15 13:30:59.614652
1327  2023-11-15 13:30:59.662521
1328  2023-11-15 13:30:59.694436
1329  2023-11-15 13:30:59.726351
1330  2023-11-15 13:30:59.758234
1331  2023-11-15 13:30:59.790179
1332  2023-11-15 13:30:59.822099
1333  2023-11-15 13:30:59.855007
1334  2023-11-15 13:30:59.886938
1335  2023-11-15 13:30:59.918836
1336  2023-11-15 13:30:59.950756
1337  2023-11-15 13:30:59.982665
1338  2023-11-15 13:31:00.014581
1339  2023-11-15 13:31:00.062462
1340  2023-11-15 13:31:00.094390
1341  2023-11-15 13:31:00.126309
1342  2023-11-15 13:31:00.158199
1343  2023-11-15 13:31:00.191113
1344  2023-11-15 13:31:00.223025
1345  2023-11-15 13:31:00.254941
1346  2023-11-15 13:31:00.286982
1347  2023-11-15 13:31:00.318894
1348  2023-11-15 13:31:00.350842
1349  2023-11-15 13:31:00.382760
1350  2023-11-15 13:31:00.414668
1351  2023-11-15 13:31:00.462541
1352  2023-11-15 13:31:00.494468
1353  2023-11-15 13:31:00.526387
1354  2023-11-15 13:31:00.558285
1355  2023-11-15 13:31:00.590199
1356  2023-11-15 13:31:00.622114
1357  2023-11-15 13:31:00.654048
1358  2023-11-15 13:31:00.686910
1359  2023-11-15 13:31:00.718825
1360  2023-11-15 13:31:00.750785
1361  2023-11-15 13:31:00.782687
1362  2023-11-15 13:31:00.814577
1363  2023-11-15 13:31:00.862448
1364  2023-11-15 13:31:00.894364
1365  2023-11-15 13:31:00.926422
1366  2023-11-15 13:31:00.958342
1367  2023-11-15 13:31:00.990254
1368  2023-11-15 13:31:01.022171
1369  2023-11-15 13:31:01.054085
1370  2023-11-15 13:31:01.086998
1371  2023-11-15 13:31:01.118920
1372  2023-11-15 13:31:01.150795
1373  2023-11-15 13:31:01.182740
1374  2023-11-15 13:31:01.214632
1375  2023-11-15 13:31:01.262527
1376  2023-11-15 13:31:01.294464
1377  2023-11-15 13:31:01.326371
1378  2023-11-15 13:31:01.358273
1379  2023-11-15 13:31:01.390188
1380  2023-11-15 13:31:01.422100
1381  2023-11-15 13:31:01.454016
1382  2023-11-15 13:31:01.486943
1383  2023-11-15 13:31:01.518843
1384  2023-11-15 13:31:01.550726
1385  2023-11-15 13:31:01.582677
1386  2023-11-15 13:31:01.614597
1387  2023-11-15 13:31:01.662460
1388  2023-11-15 13:31:01.694377
1389  2023-11-15 13:31:01.726289
1390  2023-11-15 13:31:01.758205
1391  2023-11-15 13:31:01.790116
1392  2023-11-15 13:31:01.822031
1393  2023-11-15 13:31:01.854952
1394  2023-11-15 13:31:01.886830
1395  2023-11-15 13:31:01.918744
1396  2023-11-15 13:31:01.950700
1397  2023-11-15 13:31:01.982603
1398  2023-11-15 13:31:02.014525
1399  2023-11-15 13:31:02.062399
1400  2023-11-15 13:31:02.094304
1401  2023-11-15 13:31:02.126239
1402  2023-11-15 13:31:02.158135
1403  2023-11-15 13:31:02.190048
1404  2023-11-15 13:31:02.222961
1405  2023-11-15 13:31:02.254876
1406  2023-11-15 13:31:02.286901
1407  2023-11-15 13:31:02.318816
1408  2023-11-15 13:31:02.350730
1409  2023-11-15 13:31:02.382648
1410  2023-11-15 13:31:02.414527
1411  2023-11-15 13:31:02.462428
1412  2023-11-15 13:31:02.494343
1413  2023-11-15 13:31:02.527225
1414  2023-11-15 13:31:02.558255
1415  2023-11-15 13:31:02.590171
1416  2023-11-15 13:31:02.622094
1417  2023-11-15 13:31:02.654968
1418  2023-11-15 13:31:02.686915
1419  2023-11-15 13:31:02.718830
1420  2023-11-15 13:31:02.750743
1421  2023-11-15 13:31:02.782626
1422  2023-11-15 13:31:02.814570
1423  2023-11-15 13:31:02.862449
1424  2023-11-15 13:31:02.894355
1425  2023-11-15 13:31:02.926270
1426  2023-11-15 13:31:02.958186
1427  2023-11-15 13:31:02.990101
1428  2023-11-15 13:31:03.022021
1429  2023-11-15 13:31:03.054962
1430  2023-11-15 13:31:03.086844
1431  2023-11-15 13:31:03.118765
1432  2023-11-15 13:31:03.150670
1433  2023-11-15 13:31:03.182595
1434  2023-11-15 13:31:03.230426
1435  2023-11-15 13:31:03.262373
1436  2023-11-15 13:31:03.294288
1437  2023-11-15 13:31:03.326201
1438  2023-11-15 13:31:03.358116
1439  2023-11-15 13:31:03.390036
1440  2023-11-15 13:31:03.422945
1441  2023-11-15 13:31:03.454863
1442  2023-11-15 13:31:03.486775
1443  2023-11-15 13:31:03.518688
1444  2023-11-15 13:31:03.550604
1445  2023-11-15 13:31:03.582524
1446  2023-11-15 13:31:03.630358
1447  2023-11-15 13:31:03.662322
1448  2023-11-15 13:31:03.694220
1449  2023-11-15 13:31:03.726137
1450  2023-11-15 13:31:03.758050
1451  2023-11-15 13:31:03.790967
1452  2023-11-15 13:31:03.822876
1453  2023-11-15 13:31:03.854789
1454  2023-11-15 13:31:03.886707
1455  2023-11-15 13:31:03.918620
1456  2023-11-15 13:31:03.950543
1457  2023-11-15 13:31:03.982451
1458  2023-11-15 13:31:04.030330
1459  2023-11-15 13:31:04.062237
1460  2023-11-15 13:31:04.094119
1461  2023-11-15 13:31:04.126069
1462  2023-11-15 13:31:04.158977
1463  2023-11-15 13:31:04.190891
1464  2023-11-15 13:31:04.222815
1465  2023-11-15 13:31:04.254729
1466  2023-11-15 13:31:04.286645
1467  2023-11-15 13:31:04.318552
1468  2023-11-15 13:31:04.350476
1469  2023-11-15 13:31:04.382413
1470  2023-11-15 13:31:04.430357
1471  2023-11-15 13:31:04.462272
1472  2023-11-15 13:31:04.494193
1473  2023-11-15 13:31:04.526103
1474  2023-11-15 13:31:04.558018
1475  2023-11-15 13:31:04.590945
1476  2023-11-15 13:31:04.622843
1477  2023-11-15 13:31:04.654764
1478  2023-11-15 13:31:04.686684
1479  2023-11-15 13:31:04.718595
1480  2023-11-15 13:31:04.750518
1481  2023-11-15 13:31:04.782476
1482  2023-11-15 13:31:04.830400
1483  2023-11-15 13:31:04.862285
1484  2023-11-15 13:31:04.894227
1485  2023-11-15 13:31:04.926150
1486  2023-11-15 13:31:04.958029
1487  2023-11-15 13:31:04.990938
1488  2023-11-15 13:31:05.022896
1489  2023-11-15 13:31:05.054796
1490  2023-11-15 13:31:05.086710
1491  2023-11-15 13:31:05.118755
1492  2023-11-15 13:31:05.150706
1493  2023-11-15 13:31:05.182579
1494  2023-11-15 13:31:05.230417
1495  2023-11-15 13:31:05.262372
1496  2023-11-15 13:31:05.294283
1497  2023-11-15 13:31:05.326203
1498  2023-11-15 13:31:05.358111
1499  2023-11-15 13:31:05.390998
1500  2023-11-15 13:31:05.422903
1501  2023-11-15 13:31:05.454862
1502  2023-11-15 13:31:05.486775
1503  2023-11-15 13:31:05.518679
1504  2023-11-15 13:31:05.550561
1505  2023-11-15 13:31:05.582508
1506  2023-11-15 13:31:05.630392
1507  2023-11-15 13:31:05.662295
1508  2023-11-15 13:31:05.694211
1509  2023-11-15 13:31:05.726130
1510  2023-11-15 13:31:05.758045
1511  2023-11-15 13:31:05.790919
1512  2023-11-15 13:31:05.822865
1513  2023-11-15 13:31:05.854797
1514  2023-11-15 13:31:05.886703
1515  2023-11-15 13:31:05.918608
1516  2023-11-15 13:31:05.950494
1517  2023-11-15 13:31:05.982450
1518  2023-11-15 13:31:06.030325
1519  2023-11-15 13:31:06.062228
1520  2023-11-15 13:31:06.094147
1521  2023-11-15 13:31:06.126057
1522  2023-11-15 13:31:06.158966
1523  2023-11-15 13:31:06.190886
1524  2023-11-15 13:31:06.222765
1525  2023-11-15 13:31:06.254679
1526  2023-11-15 13:31:06.286673
1527  2023-11-15 13:31:06.318711
1528  2023-11-15 13:31:06.350620
1529  2023-11-15 13:31:06.382501
1530  2023-11-15 13:31:06.430407
1531  2023-11-15 13:31:06.462288
1532  2023-11-15 13:31:06.494277
1533  2023-11-15 13:31:06.526278
1534  2023-11-15 13:31:06.558198
1535  2023-11-15 13:31:06.590118
1536  2023-11-15 13:31:06.622024
1537  2023-11-15 13:31:06.654903
1538  2023-11-15 13:31:06.686856
1539  2023-11-15 13:31:06.718774
1540  2023-11-15 13:31:06.750696
1541  2023-11-15 13:31:06.782562
1542  2023-11-15 13:31:06.830467
1543  2023-11-15 13:31:06.862348
1544  2023-11-15 13:31:06.894263
1545  2023-11-15 13:31:06.926217
1546  2023-11-15 13:31:06.958125
1547  2023-11-15 13:31:06.990039
1548  2023-11-15 13:31:07.022919
1549  2023-11-15 13:31:07.054834
1550  2023-11-15 13:31:07.086749
1551  2023-11-15 13:31:07.118695
1552  2023-11-15 13:31:07.150578
1553  2023-11-15 13:31:07.198450
1554  2023-11-15 13:31:07.230365
1555  2023-11-15 13:31:07.262279
1556  2023-11-15 13:31:07.294194
1557  2023-11-15 13:31:07.326143
1558  2023-11-15 13:31:07.359057
1559  2023-11-15 13:31:07.390062
1560  2023-11-15 13:31:07.422102
1561  2023-11-15 13:31:07.454972
1562  2023-11-15 13:31:07.486891
1563  2023-11-15 13:31:07.518875
1564  2023-11-15 13:31:07.550789
1565  2023-11-15 13:31:07.598661
1566  2023-11-15 13:31:07.630576
1567  2023-11-15 13:31:07.662490
1568  2023-11-15 13:31:07.694456
1569  2023-11-15 13:31:07.726320
1570  2023-11-15 13:31:07.758235
1571  2023-11-15 13:31:07.790181
1572  2023-11-15 13:31:07.823068
1573  2023-11-15 13:31:07.853979
1574  2023-11-15 13:31:07.886891
1575  2023-11-15 13:31:07.918806
1576  2023-11-15 13:31:07.950757
1577  2023-11-15 13:31:07.998631
1578  2023-11-15 13:31:08.030554
1579  2023-11-15 13:31:08.062423
1580  2023-11-15 13:31:08.094338
1581  2023-11-15 13:31:08.126342
1582  2023-11-15 13:31:08.158334
1583  2023-11-15 13:31:08.190203
1584  2023-11-15 13:31:08.222117
1585  2023-11-15 13:31:08.254032
1586  2023-11-15 13:31:08.286944
1587  2023-11-15 13:31:08.318859
1588  2023-11-15 13:31:08.350773
1589  2023-11-15 13:31:08.398645
1590  2023-11-15 13:31:08.430560
1591  2023-11-15 13:31:08.462475
1592  2023-11-15 13:31:08.494389
1593  2023-11-15 13:31:08.526304
1594  2023-11-15 13:31:08.558219
1595  2023-11-15 13:31:08.590134
1596  2023-11-15 13:31:08.622048
1597  2023-11-15 13:31:08.654960
1598  2023-11-15 13:31:08.686875
1599  2023-11-15 13:31:08.718790
1600  2023-11-15 13:31:08.750704
1601  2023-11-15 13:31:08.798576
1602  2023-11-15 13:31:08.830494
1603  2023-11-15 13:31:08.862406
1604  2023-11-15 13:31:08.894320
1605  2023-11-15 13:31:08.926235
1606  2023-11-15 13:31:08.958150
1607  2023-11-15 13:31:08.991062
1608  2023-11-15 13:31:09.023012
1609  2023-11-15 13:31:09.054891
1610  2023-11-15 13:31:09.086806
1611  2023-11-15 13:31:09.118763
1612  2023-11-15 13:31:09.150676
1613  2023-11-15 13:31:09.198539
1614  2023-11-15 13:31:09.230467
1615  2023-11-15 13:31:09.262337
1616  2023-11-15 13:31:09.294251
1617  2023-11-15 13:31:09.327174
1618  2023-11-15 13:31:09.358130
1619  2023-11-15 13:31:09.390993
1620  2023-11-15 13:31:09.422908
1621  2023-11-15 13:31:09.454853
1622  2023-11-15 13:31:09.486773
1623  2023-11-15 13:31:09.518652
1624  2023-11-15 13:31:09.550566
1625  2023-11-15 13:31:09.598438
1626  2023-11-15 13:31:09.630353
1627  2023-11-15 13:31:09.662268
1628  2023-11-15 13:31:09.694182
1629  2023-11-15 13:31:09.726097
1630  2023-11-15 13:31:09.759009
1631  2023-11-15 13:31:09.790924
1632  2023-11-15 13:31:09.822839
1633  2023-11-15 13:31:09.854753
1634  2023-11-15 13:31:09.886668
1635  2023-11-15 13:31:09.918583
1636  2023-11-15 13:31:09.950497
1637  2023-11-15 13:31:09.998952
1638  2023-11-15 13:31:10.030867
1639  2023-11-15 13:31:10.062782
1640  2023-11-15 13:31:10.094748
1641  2023-11-15 13:31:10.126663
1642  2023-11-15 13:31:10.158578
1643  2023-11-15 13:31:10.190499
1644  2023-11-15 13:31:10.222524
1645  2023-11-15 13:31:10.254941
1646  2023-11-15 13:31:10.286817
1647  2023-11-15 13:31:10.318731
1648  2023-11-15 13:31:10.350762
1649  2023-11-15 13:31:10.398701
1650  2023-11-15 13:31:10.430616
1651  2023-11-15 13:31:10.462530
1652  2023-11-15 13:31:10.494543
1653  2023-11-15 13:31:10.526475
1654  2023-11-15 13:31:10.558388
1655  2023-11-15 13:31:10.590302
1656  2023-11-15 13:31:10.622259
1657  2023-11-15 13:31:10.654174
1658  2023-11-15 13:31:10.686046
1659  2023-11-15 13:31:10.718958
1660  2023-11-15 13:31:10.766831
1661  2023-11-15 13:31:10.798745
1662  2023-11-15 13:31:10.830694
1663  2023-11-15 13:31:10.862613
1664  2023-11-15 13:31:10.894489
1665  2023-11-15 13:31:10.926404
1666  2023-11-15 13:31:10.958360
1667  2023-11-15 13:31:10.990274
1668  2023-11-15 13:31:11.022148
1669  2023-11-15 13:31:11.054063
1670  2023-11-15 13:31:11.086975
1671  2023-11-15 13:31:11.118890
1672  2023-11-15 13:31:11.166770
1673  2023-11-15 13:31:11.198676
1674  2023-11-15 13:31:11.230591
1675  2023-11-15 13:31:11.262517
1676  2023-11-15 13:31:11.294533
1677  2023-11-15 13:31:11.326539
1678  2023-11-15 13:31:11.358423
1679  2023-11-15 13:31:11.390384
1680  2023-11-15 13:31:11.422295
1681  2023-11-15 13:31:11.454249
1682  2023-11-15 13:31:11.486126
1683  2023-11-15 13:31:11.518039
1684  2023-11-15 13:31:11.566950
1685  2023-11-15 13:31:11.598823
1686  2023-11-15 13:31:11.630738
1687  2023-11-15 13:31:11.662689
1688  2023-11-15 13:31:11.694599
1689  2023-11-15 13:31:11.726487
1690  2023-11-15 13:31:11.758396
1691  2023-11-15 13:31:11.790477
1692  2023-11-15 13:31:11.822752
1693  2023-11-15 13:31:11.854635
1694  2023-11-15 13:31:11.886550
1695  2023-11-15 13:31:11.918480
1696  2023-11-15 13:31:11.966336
1697  2023-11-15 13:31:11.998251
1698  2023-11-15 13:31:12.030166
1699  2023-11-15 13:31:12.062080
1700  2023-11-15 13:31:12.094992
1701  2023-11-15 13:31:12.126907
1702  2023-11-15 13:31:12.158822
1703  2023-11-15 13:31:12.190740
1704  2023-11-15 13:31:12.222651
1705  2023-11-15 13:31:12.254566
1706  2023-11-15 13:31:12.286494
1707  2023-11-15 13:31:12.318395
1708  2023-11-15 13:31:12.366267
1709  2023-11-15 13:31:12.399179
1710  2023-11-15 13:31:12.431094
1711  2023-11-15 13:31:12.462011
1712  2023-11-15 13:31:12.494938
1713  2023-11-15 13:31:12.526838
1714  2023-11-15 13:31:12.558753
1715  2023-11-15 13:31:12.590668
1716  2023-11-15 13:31:12.622582
1717  2023-11-15 13:31:12.654597
1718  2023-11-15 13:31:12.686521
1719  2023-11-15 13:31:12.718426
1720  2023-11-15 13:31:12.766298
1721  2023-11-15 13:31:12.798213
1722  2023-11-15 13:31:12.830127
1723  2023-11-15 13:31:12.863048
1724  2023-11-15 13:31:12.894954
1725  2023-11-15 13:31:12.926869
1726  2023-11-15 13:31:12.958783
1727  2023-11-15 13:31:12.990724
1728  2023-11-15 13:31:13.022613
1729  2023-11-15 13:31:13.054686
1730  2023-11-15 13:31:13.086601
1731  2023-11-15 13:31:13.118092
1732  2023-11-15 13:31:13.166956
1733  2023-11-15 13:31:13.198869
1734  2023-11-15 13:31:13.230751
1735  2023-11-15 13:31:13.262438
1736  2023-11-15 13:31:13.294352
1737  2023-11-15 13:31:13.326356
1738  2023-11-15 13:31:13.358272
1739  2023-11-15 13:31:13.390187
1740  2023-11-15 13:31:13.422183
1741  2023-11-15 13:31:13.454139
1742  2023-11-15 13:31:13.487010
1743  2023-11-15 13:31:13.518052
1744  2023-11-15 13:31:13.566921
1745  2023-11-15 13:31:13.598836
1746  2023-11-15 13:31:13.630871
1747  2023-11-15 13:31:13.662786
1748  2023-11-15 13:31:13.694701
1749  2023-11-15 13:31:13.726615
1750  2023-11-15 13:31:13.758530
1751  2023-11-15 13:31:13.790445
1752  2023-11-15 13:31:13.822359
1753  2023-11-15 13:31:13.854274
1754  2023-11-15 13:31:13.886289
1755  2023-11-15 13:31:13.918204
1756  2023-11-15 13:31:13.966076
1757  2023-11-15 13:31:13.998996
1758  2023-11-15 13:31:14.030947
1759  2023-11-15 13:31:14.062862
1760  2023-11-15 13:31:14.094776
1761  2023-11-15 13:31:14.126691
1762  2023-11-15 13:31:14.158606
1763  2023-11-15 13:31:14.190520
1764  2023-11-15 13:31:14.222438
1765  2023-11-15 13:31:14.254350
1766  2023-11-15 13:31:14.286265
1767  2023-11-15 13:31:14.318179
1768  2023-11-15 13:31:14.366051
1769  2023-11-15 13:31:14.399007
1770  2023-11-15 13:31:14.430878
1771  2023-11-15 13:31:14.462060
1772  2023-11-15 13:31:14.494053
1773  2023-11-15 13:31:14.526059
1774  2023-11-15 13:31:14.558067
1775  2023-11-15 13:31:14.590079
1776  2023-11-15 13:31:14.622993
1777  2023-11-15 13:31:14.654907
1778  2023-11-15 13:31:14.686822
1779  2023-11-15 13:31:14.734799
1780  2023-11-15 13:31:14.766833
1781  2023-11-15 13:31:14.798747
1782  2023-11-15 13:31:14.830816
1783  2023-11-15 13:31:14.862730
1784  2023-11-15 13:31:14.894645
1785  2023-11-15 13:31:14.926560
1786  2023-11-15 13:31:14.958477
1787  2023-11-15 13:31:14.990389
1788  2023-11-15 13:31:15.022304
1789  2023-11-15 13:31:15.054218
1790  2023-11-15 13:31:15.086133
1791  2023-11-15 13:31:15.134005
1792  2023-11-15 13:31:15.166053
1793  2023-11-15 13:31:15.198966
1794  2023-11-15 13:31:15.230880
1795  2023-11-15 13:31:15.262948
1796  2023-11-15 13:31:15.294863
1797  2023-11-15 13:31:15.326778
1798  2023-11-15 13:31:15.358692
1799  2023-11-15 13:31:15.390607
1800  2023-11-15 13:31:15.422564
1801  2023-11-15 13:31:15.454437
1802  2023-11-15 13:31:15.486351
1803  2023-11-15 13:31:15.534278
1804  2023-11-15 13:31:15.566193
1805  2023-11-15 13:31:15.598107
1806  2023-11-15 13:31:15.630022
1807  2023-11-15 13:31:15.662934
1808  2023-11-15 13:31:15.694882
1809  2023-11-15 13:31:15.726764
1810  2023-11-15 13:31:15.758678
1811  2023-11-15 13:31:15.790593
1812  2023-11-15 13:31:15.822508
1813  2023-11-15 13:31:15.854422
1814  2023-11-15 13:31:15.886412
1815  2023-11-15 13:31:15.934280
1816  2023-11-15 13:31:15.966197
1817  2023-11-15 13:31:15.999078
1818  2023-11-15 13:31:16.030093
1819  2023-11-15 13:31:16.062950
1820  2023-11-15 13:31:16.094869
1821  2023-11-15 13:31:16.126780
1822  2023-11-15 13:31:16.158695
1823  2023-11-15 13:31:16.190609
1824  2023-11-15 13:31:16.222524
1825  2023-11-15 13:31:16.254439
1826  2023-11-15 13:31:16.286354
1827  2023-11-15 13:31:16.334225
1828  2023-11-15 13:31:16.367138
1829  2023-11-15 13:31:16.399052
1830  2023-11-15 13:31:16.430974
1831  2023-11-15 13:31:16.462882
1832  2023-11-15 13:31:16.494808
1833  2023-11-15 13:31:16.526712
1834  2023-11-15 13:31:16.558626
1835  2023-11-15 13:31:16.590540
1836  2023-11-15 13:31:16.622455
1837  2023-11-15 13:31:16.654371
1838  2023-11-15 13:31:16.686284
1839  2023-11-15 13:31:16.734156
1840  2023-11-15 13:31:16.767069
1841  2023-11-15 13:31:16.799070
1842  2023-11-15 13:31:16.830977
1843  2023-11-15 13:31:16.862892
1844  2023-11-15 13:31:16.895849
1845  2023-11-15 13:31:16.926722
1846  2023-11-15 13:31:16.959667
1847  2023-11-15 13:31:16.991581
1848  2023-11-15 13:31:17.023502
1849  2023-11-15 13:31:17.055408
1850  2023-11-15 13:31:17.087293
1851  2023-11-15 13:31:17.135199
1852  2023-11-15 13:31:17.167080
1853  2023-11-15 13:31:17.199991
1854  2023-11-15 13:31:17.230909
1855  2023-11-15 13:31:17.263873
1856  2023-11-15 13:31:17.295741
1857  2023-11-15 13:31:17.327695
1858  2023-11-15 13:31:17.359603
1859  2023-11-15 13:31:17.390603
1860  2023-11-15 13:31:17.423559
1861  2023-11-15 13:31:17.455461
1862  2023-11-15 13:31:17.487387
1863  2023-11-15 13:31:17.535250
1864  2023-11-15 13:31:17.567171
1865  2023-11-15 13:31:17.599081
1866  2023-11-15 13:31:17.630993
1867  2023-11-15 13:31:17.662910
1868  2023-11-15 13:31:17.694821
1869  2023-11-15 13:31:17.726743
1870  2023-11-15 13:31:17.758657
1871  2023-11-15 13:31:17.790567
1872  2023-11-15 13:31:17.822500
1873  2023-11-15 13:31:17.854471
1874  2023-11-15 13:31:17.886452
1875  2023-11-15 13:31:17.934376
1876  2023-11-15 13:31:17.966291
1877  2023-11-15 13:31:17.998238
1878  2023-11-15 13:31:18.030161
1879  2023-11-15 13:31:18.062034
1880  2023-11-15 13:31:18.094034
1881  2023-11-15 13:31:18.126978
1882  2023-11-15 13:31:18.158922
1883  2023-11-15 13:31:18.190950
1884  2023-11-15 13:31:18.222868
1885  2023-11-15 13:31:18.254814
1886  2023-11-15 13:31:18.302678
1887  2023-11-15 13:31:18.334600
1888  2023-11-15 13:31:18.366515
1889  2023-11-15 13:31:18.399435
1890  2023-11-15 13:31:18.430467
1891  2023-11-15 13:31:18.462374
1892  2023-11-15 13:31:18.494413
1893  2023-11-15 13:31:18.526369
1894  2023-11-15 13:31:18.559298
1895  2023-11-15 13:31:18.590199
1896  2023-11-15 13:31:18.623128
1897  2023-11-15 13:31:18.654994
1898  2023-11-15 13:31:18.702902
1899  2023-11-15 13:31:18.734823
1900  2023-11-15 13:31:18.766731
1901  2023-11-15 13:31:18.798645
1902  2023-11-15 13:31:18.830560
1903  2023-11-15 13:31:18.862487
1904  2023-11-15 13:31:18.894354
1905  2023-11-15 13:31:18.926314
1906  2023-11-15 13:31:18.959221
1907  2023-11-15 13:31:18.991154
1908  2023-11-15 13:31:19.023012
1909  2023-11-15 13:31:19.054969
1910  2023-11-15 13:31:19.103025
1911  2023-11-15 13:31:19.134940
1912  2023-11-15 13:31:19.166012
1913  2023-11-15 13:31:19.198967
1914  2023-11-15 13:31:19.230901
1915  2023-11-15 13:31:19.262929
1916  2023-11-15 13:31:19.294814
1917  2023-11-15 13:31:19.326760
1918  2023-11-15 13:31:19.358645
1919  2023-11-15 13:31:19.390591
1920  2023-11-15 13:31:19.422475
1921  2023-11-15 13:31:19.455378
1922  2023-11-15 13:31:19.502309
1923  2023-11-15 13:31:19.534316
1924  2023-11-15 13:31:19.566230
1925  2023-11-15 13:31:19.599107
1926  2023-11-15 13:31:19.630024
1927  2023-11-15 13:31:19.662999
1928  2023-11-15 13:31:19.694899
1929  2023-11-15 13:31:19.726765
1930  2023-11-15 13:31:19.758711
1931  2023-11-15 13:31:19.790627
1932  2023-11-15 13:31:19.822553
1933  2023-11-15 13:31:19.855423
1934  2023-11-15 13:31:19.903296
1935  2023-11-15 13:31:19.934244
1936  2023-11-15 13:31:19.966126
1937  2023-11-15 13:31:19.999068
1938  2023-11-15 13:31:20.031000
1939  2023-11-15 13:31:20.062915
1940  2023-11-15 13:31:20.094885
1941  2023-11-15 13:31:20.126775
1942  2023-11-15 13:31:20.158692
1943  2023-11-15 13:31:20.190620
1944  2023-11-15 13:31:20.222518
1945  2023-11-15 13:31:20.254439
1946  2023-11-15 13:31:20.302319
1947  2023-11-15 13:31:20.334232
1948  2023-11-15 13:31:20.366145
1949  2023-11-15 13:31:20.398019
1950  2023-11-15 13:31:20.430987
1951  2023-11-15 13:31:20.462902
1952  2023-11-15 13:31:20.494817
1953  2023-11-15 13:31:20.526778
1954  2023-11-15 13:31:20.558822
1955  2023-11-15 13:31:20.590707
1956  2023-11-15 13:31:20.622682
1957  2023-11-15 13:31:20.654668
1958  2023-11-15 13:31:20.702560
1959  2023-11-15 13:31:20.734467
1960  2023-11-15 13:31:20.766371
1961  2023-11-15 13:31:20.798385
1962  2023-11-15 13:31:20.830348
1963  2023-11-15 13:31:20.862348
1964  2023-11-15 13:31:20.894256
1965  2023-11-15 13:31:20.926161
1966  2023-11-15 13:31:20.958192
1967  2023-11-15 13:31:20.990192
1968  2023-11-15 13:31:21.022118
1969  2023-11-15 13:31:21.054007
1970  2023-11-15 13:31:21.102879
1971  2023-11-15 13:31:21.134793
1972  2023-11-15 13:31:21.166674
1973  2023-11-15 13:31:21.198589
1974  2023-11-15 13:31:21.230537
1975  2023-11-15 13:31:21.262453
1976  2023-11-15 13:31:21.294450
1977  2023-11-15 13:31:21.326282
1978  2023-11-15 13:31:21.359192
1979  2023-11-15 13:31:21.390118
1980  2023-11-15 13:31:21.423021
1981  2023-11-15 13:31:21.454949
1982  2023-11-15 13:31:21.502826
1983  2023-11-15 13:31:21.534733
1984  2023-11-15 13:31:21.566644
1985  2023-11-15 13:31:21.598520
1986  2023-11-15 13:31:21.630493
1987  2023-11-15 13:31:21.662351
1988  2023-11-15 13:31:21.694313
1989  2023-11-15 13:31:21.726179
1990  2023-11-15 13:31:21.758136
1991  2023-11-15 13:31:21.790161
1992  2023-11-15 13:31:21.823091
1993  2023-11-15 13:31:21.854105
1994  2023-11-15 13:31:21.902983
1995  2023-11-15 13:31:21.934907
1996  2023-11-15 13:31:21.966773
1997  2023-11-15 13:31:21.998690
1998  2023-11-15 13:31:22.030605
1999  2023-11-15 13:31:22.062553
2000  2023-11-15 13:31:22.094481
2001  2023-11-15 13:31:22.126381
2002  2023-11-15 13:31:22.158294
2003  2023-11-15 13:31:22.190209
2004  2023-11-15 13:31:22.222123
2005  2023-11-15 13:31:22.270961
2006  2023-11-15 13:31:22.302906
2007  2023-11-15 13:31:22.334821
2008  2023-11-15 13:31:22.366736
2009  2023-11-15 13:31:22.398619
2010  2023-11-15 13:31:22.430534
2011  2023-11-15 13:31:22.462489
2012  2023-11-15 13:31:22.494397
2013  2023-11-15 13:31:22.526310
2014  2023-11-15 13:31:22.558229
2015  2023-11-15 13:31:22.590113
2016  2023-11-15 13:31:22.623068
2017  2023-11-15 13:31:22.670989
2018  2023-11-15 13:31:22.702943
2019  2023-11-15 13:31:22.734852
2020  2023-11-15 13:31:22.766765
2021  2023-11-15 13:31:22.798648
2022  2023-11-15 13:31:22.830597
2023  2023-11-15 13:31:22.862607
2024  2023-11-15 13:31:22.894492
2025  2023-11-15 13:31:22.926416
2026  2023-11-15 13:31:22.958330
2027  2023-11-15 13:31:22.990245
2028  2023-11-15 13:31:23.022158
2029  2023-11-15 13:31:23.070000
2030  2023-11-15 13:31:23.102924
2031  2023-11-15 13:31:23.134864
2032  2023-11-15 13:31:23.166766
2033  2023-11-15 13:31:23.198656
2034  2023-11-15 13:31:23.230572
2035  2023-11-15 13:31:23.262520
2036  2023-11-15 13:31:23.294442
2037  2023-11-15 13:31:23.326371
2038  2023-11-15 13:31:23.359261
2039  2023-11-15 13:31:23.390180
2040  2023-11-15 13:31:23.422089
2041  2023-11-15 13:31:23.470928
2042  2023-11-15 13:31:23.502876
2043  2023-11-15 13:31:23.534794
2044  2023-11-15 13:31:23.566673
2045  2023-11-15 13:31:23.598620
2046  2023-11-15 13:31:23.630502
2047  2023-11-15 13:31:23.662418
2048  2023-11-15 13:31:23.694365
2049  2023-11-15 13:31:23.726278
2050  2023-11-15 13:31:23.758194
2051  2023-11-15 13:31:23.790108
2052  2023-11-15 13:31:23.823041
2053  2023-11-15 13:31:23.870891
2054  2023-11-15 13:31:23.902805
2055  2023-11-15 13:31:23.934719
2056  2023-11-15 13:31:23.966636
2057  2023-11-15 13:31:23.998551
2058  2023-11-15 13:31:24.030466
2059  2023-11-15 13:31:24.062384
2060  2023-11-15 13:31:24.094293
2061  2023-11-15 13:31:24.126208
2062  2023-11-15 13:31:24.158127
2063  2023-11-15 13:31:24.190037
2064  2023-11-15 13:31:24.222963
2065  2023-11-15 13:31:24.270790
2066  2023-11-15 13:31:24.302737
2067  2023-11-15 13:31:24.334652
2068  2023-11-15 13:31:24.366568
2069  2023-11-15 13:31:24.398498
2070  2023-11-15 13:31:24.430364
2071  2023-11-15 13:31:24.462308
2072  2023-11-15 13:31:24.494223
2073  2023-11-15 13:31:24.526139
2074  2023-11-15 13:31:24.558053
2075  2023-11-15 13:31:24.590975
2076  2023-11-15 13:31:24.622972
2077  2023-11-15 13:31:24.670838
2078  2023-11-15 13:31:24.702753
2079  2023-11-15 13:31:24.734670
2080  2023-11-15 13:31:24.766584
2081  2023-11-15 13:31:24.798500
2082  2023-11-15 13:31:24.830418
2083  2023-11-15 13:31:24.862326
2084  2023-11-15 13:31:24.895237
2085  2023-11-15 13:31:24.927152
2086  2023-11-15 13:31:24.958072
2087  2023-11-15 13:31:24.990980
2088  2023-11-15 13:31:25.022903
2089  2023-11-15 13:31:25.070770
2090  2023-11-15 13:31:25.102651
2091  2023-11-15 13:31:25.134598
2092  2023-11-15 13:31:25.166512
2093  2023-11-15 13:31:25.198428
2094  2023-11-15 13:31:25.230309
2095  2023-11-15 13:31:25.262264
2096  2023-11-15 13:31:25.294145
2097  2023-11-15 13:31:25.326088
2098  2023-11-15 13:31:25.359010
2099  2023-11-15 13:31:25.390923
2100  2023-11-15 13:31:25.422828
2101  2023-11-15 13:31:25.470667
2102  2023-11-15 13:31:25.502613
2103  2023-11-15 13:31:25.534535
2104  2023-11-15 13:31:25.566456
2105  2023-11-15 13:31:25.598371
2106  2023-11-15 13:31:25.630273
2107  2023-11-15 13:31:25.662190
2108  2023-11-15 13:31:25.695104
2109  2023-11-15 13:31:25.726020
2110  2023-11-15 13:31:25.758934
2111  2023-11-15 13:31:25.790845
2112  2023-11-15 13:31:25.838718
2113  2023-11-15 13:31:25.870598
2114  2023-11-15 13:31:25.902547
2115  2023-11-15 13:31:25.934464
2116  2023-11-15 13:31:25.966379
2117  2023-11-15 13:31:25.998291
2118  2023-11-15 13:31:26.030215
2119  2023-11-15 13:31:26.062120
2120  2023-11-15 13:31:26.094039
2121  2023-11-15 13:31:26.126971
2122  2023-11-15 13:31:26.158868
2123  2023-11-15 13:31:26.190774
2124  2023-11-15 13:31:26.238645
2125  2023-11-15 13:31:26.270529
2126  2023-11-15 13:31:26.302444
2127  2023-11-15 13:31:26.334363
2128  2023-11-15 13:31:26.366282
2129  2023-11-15 13:31:26.398222
2130  2023-11-15 13:31:26.430103
2131  2023-11-15 13:31:26.462051
2132  2023-11-15 13:31:26.495002
2133  2023-11-15 13:31:26.526877
2134  2023-11-15 13:31:26.558795
2135  2023-11-15 13:31:26.590715
2136  2023-11-15 13:31:26.638577
2137  2023-11-15 13:31:26.670495
2138  2023-11-15 13:31:26.702418
2139  2023-11-15 13:31:26.734323
2140  2023-11-15 13:31:26.766245
2141  2023-11-15 13:31:26.798154
2142  2023-11-15 13:31:26.830064
2143  2023-11-15 13:31:26.862946
2144  2023-11-15 13:31:26.894899
2145  2023-11-15 13:31:26.926819
2146  2023-11-15 13:31:26.958722
2147  2023-11-15 13:31:26.990605
2148  2023-11-15 13:31:27.038538
2149  2023-11-15 13:31:27.070391
2150  2023-11-15 13:31:27.102306
2151  2023-11-15 13:31:27.134252
2152  2023-11-15 13:31:27.166168
2153  2023-11-15 13:31:27.199091
2154  2023-11-15 13:31:27.230962
2155  2023-11-15 13:31:27.262877
2156  2023-11-15 13:31:27.294827
2157  2023-11-15 13:31:27.326751
2158  2023-11-15 13:31:27.358622
2159  2023-11-15 13:31:27.390536
2160  2023-11-15 13:31:27.438448
2161  2023-11-15 13:31:27.470368
2162  2023-11-15 13:31:27.502271
2163  2023-11-15 13:31:27.534195
2164  2023-11-15 13:31:27.566099
2165  2023-11-15 13:31:27.598018
2166  2023-11-15 13:31:27.630940
2167  2023-11-15 13:31:27.662845
2168  2023-11-15 13:31:27.694760
2169  2023-11-15 13:31:27.726673
2170  2023-11-15 13:31:27.758594
2171  2023-11-15 13:31:27.790508
2172  2023-11-15 13:31:27.838372
2173  2023-11-15 13:31:27.870287
2174  2023-11-15 13:31:27.902168
2175  2023-11-15 13:31:27.934083
2176  2023-11-15 13:31:27.966050
2177  2023-11-15 13:31:27.998961
2178  2023-11-15 13:31:28.030855
2179  2023-11-15 13:31:28.062739
2180  2023-11-15 13:31:28.094654
2181  2023-11-15 13:31:28.126603
2182  2023-11-15 13:31:28.158522
2183  2023-11-15 13:31:28.190443
2184  2023-11-15 13:31:28.238306
2185  2023-11-15 13:31:28.270221
2186  2023-11-15 13:31:28.302099
2187  2023-11-15 13:31:28.334014
2188  2023-11-15 13:31:28.366929
2189  2023-11-15 13:31:28.398843
2190  2023-11-15 13:31:28.430755
2191  2023-11-15 13:31:28.462670
2192  2023-11-15 13:31:28.494615
2193  2023-11-15 13:31:28.526538
2194  2023-11-15 13:31:28.558443
2195  2023-11-15 13:31:28.590372
2196  2023-11-15 13:31:28.638232
2197  2023-11-15 13:31:28.670146
2198  2023-11-15 13:31:28.702063
2199  2023-11-15 13:31:28.734981
2200  2023-11-15 13:31:28.766857
2201  2023-11-15 13:31:28.798772
2202  2023-11-15 13:31:28.830727
2203  2023-11-15 13:31:28.862635
2204  2023-11-15 13:31:28.894516
2205  2023-11-15 13:31:28.926466
2206  2023-11-15 13:31:28.958388
2207  2023-11-15 13:31:28.990294
2208  2023-11-15 13:31:29.038184
2209  2023-11-15 13:31:29.070081
2210  2023-11-15 13:31:29.102959
2211  2023-11-15 13:31:29.134873
2212  2023-11-15 13:31:29.166822
2213  2023-11-15 13:31:29.198735
2214  2023-11-15 13:31:29.230618
2215  2023-11-15 13:31:29.262532
2216  2023-11-15 13:31:29.294447
2217  2023-11-15 13:31:29.326394
2218  2023-11-15 13:31:29.358325
2219  2023-11-15 13:31:29.390191
2220  2023-11-15 13:31:29.438063
2221  2023-11-15 13:31:29.470975
2222  2023-11-15 13:31:29.502890
2223  2023-11-15 13:31:29.534804
2224  2023-11-15 13:31:29.566719
2225  2023-11-15 13:31:29.598634
2226  2023-11-15 13:31:29.630549
2227  2023-11-15 13:31:29.662463
2228  2023-11-15 13:31:29.694378
2229  2023-11-15 13:31:29.726293
2230  2023-11-15 13:31:29.758207
2231  2023-11-15 13:31:29.806079
2232  2023-11-15 13:31:29.838991
2233  2023-11-15 13:31:29.870960
2234  2023-11-15 13:31:29.902852
2235  2023-11-15 13:31:29.934735
2236  2023-11-15 13:31:29.966650
2237  2023-11-15 13:31:29.998618
2238  2023-11-15 13:31:30.030531
2239  2023-11-15 13:31:30.062590
2240  2023-11-15 13:31:30.094528
2241  2023-11-15 13:31:30.126410
2242  2023-11-15 13:31:30.158463
2243  2023-11-15 13:31:30.206293
2244  2023-11-15 13:31:30.238245
2245  2023-11-15 13:31:30.270122
2246  2023-11-15 13:31:30.302037
2247  2023-11-15 13:31:30.334949
2248  2023-11-15 13:31:30.366863
2249  2023-11-15 13:31:30.398778
2250  2023-11-15 13:31:30.430693
2251  2023-11-15 13:31:30.462608
2252  2023-11-15 13:31:30.494522
2253  2023-11-15 13:31:30.526445
2254  2023-11-15 13:31:30.558352
2255  2023-11-15 13:31:30.606223
2256  2023-11-15 13:31:30.638138
2257  2023-11-15 13:31:30.670053
2258  2023-11-15 13:31:30.702972
2259  2023-11-15 13:31:30.734881
2260  2023-11-15 13:31:30.766794
2261  2023-11-15 13:31:30.798709
2262  2023-11-15 13:31:30.830624
2263  2023-11-15 13:31:30.862538
2264  2023-11-15 13:31:30.894453
2265  2023-11-15 13:31:30.926368
2266  2023-11-15 13:31:30.958283
2267  2023-11-15 13:31:31.006155
2268  2023-11-15 13:31:31.038099
2269  2023-11-15 13:31:31.070014
2270  2023-11-15 13:31:31.102896
2271  2023-11-15 13:31:31.134811
2272  2023-11-15 13:31:31.166760
2273  2023-11-15 13:31:31.198694
2274  2023-11-15 13:31:31.230555
2275  2023-11-15 13:31:31.262472
2276  2023-11-15 13:31:31.294466
2277  2023-11-15 13:31:31.326413
2278  2023-11-15 13:31:31.358405
2279  2023-11-15 13:31:31.406273
2280  2023-11-15 13:31:31.438188
2281  2023-11-15 13:31:31.470103
2282  2023-11-15 13:31:31.503015
2283  2023-11-15 13:31:31.534930
2284  2023-11-15 13:31:31.566860
2285  2023-11-15 13:31:31.598759
2286  2023-11-15 13:31:31.630674
2287  2023-11-15 13:31:31.662588
2288  2023-11-15 13:31:31.694546
2289  2023-11-15 13:31:31.726461
2290  2023-11-15 13:31:31.758379
2291  2023-11-15 13:31:31.806295
2292  2023-11-15 13:31:31.838210
2293  2023-11-15 13:31:31.871169
2294  2023-11-15 13:31:31.903063
2295  2023-11-15 13:31:31.934952
2296  2023-11-15 13:31:31.966866
2297  2023-11-15 13:31:31.998781
2298  2023-11-15 13:31:32.030753
2299  2023-11-15 13:31:32.062711
2300  2023-11-15 13:31:32.094626
2301  2023-11-15 13:31:32.126541
2302  2023-11-15 13:31:32.158493
2303  2023-11-15 13:31:32.206434
2304  2023-11-15 13:31:32.238450
2305  2023-11-15 13:31:32.270365
2306  2023-11-15 13:31:32.302325
2307  2023-11-15 13:31:32.334267
2308  2023-11-15 13:31:32.366215
2309  2023-11-15 13:31:32.398096
2310  2023-11-15 13:31:32.430142
2311  2023-11-15 13:31:32.462056
2312  2023-11-15 13:31:32.494085
2313  2023-11-15 13:31:32.527065
2314  2023-11-15 13:31:32.558970
2315  2023-11-15 13:31:32.606978
2316  2023-11-15 13:31:32.638892
2317  2023-11-15 13:31:32.670807
2318  2023-11-15 13:31:32.702842
2319  2023-11-15 13:31:32.734757
2320  2023-11-15 13:31:32.766671
2321  2023-11-15 13:31:32.798586
2322  2023-11-15 13:31:32.830508
2323  2023-11-15 13:31:32.862415
2324  2023-11-15 13:31:32.894330
2325  2023-11-15 13:31:32.926245
2326  2023-11-15 13:31:32.958159
2327  2023-11-15 13:31:33.006032
2328  2023-11-15 13:31:33.038944
2329  2023-11-15 13:31:33.070858
2330  2023-11-15 13:31:33.102773
2331  2023-11-15 13:31:33.134688
2332  2023-11-15 13:31:33.166602
2333  2023-11-15 13:31:33.198548
2334  2023-11-15 13:31:33.230435
2335  2023-11-15 13:31:33.262350
2336  2023-11-15 13:31:33.294340
2337  2023-11-15 13:31:33.326288
2338  2023-11-15 13:31:33.374173
2339  2023-11-15 13:31:33.406089
2340  2023-11-15 13:31:33.438954
2341  2023-11-15 13:31:33.470868
2342  2023-11-15 13:31:33.502783
2343  2023-11-15 13:31:33.534733
2344  2023-11-15 13:31:33.566613
2345  2023-11-15 13:31:33.598527
2346  2023-11-15 13:31:33.630444
2347  2023-11-15 13:31:33.662392
2348  2023-11-15 13:31:33.694271
2349  2023-11-15 13:31:33.726186
2350  2023-11-15 13:31:33.774058
2351  2023-11-15 13:31:33.806970
2352  2023-11-15 13:31:33.838875
2353  2023-11-15 13:31:33.870816
2354  2023-11-15 13:31:33.902731
2355  2023-11-15 13:31:33.934661
2356  2023-11-15 13:31:33.966576
2357  2023-11-15 13:31:33.998491
2358  2023-11-15 13:31:34.030405
2359  2023-11-15 13:31:34.062320
2360  2023-11-15 13:31:34.094235
2361  2023-11-15 13:31:34.126149
2362  2023-11-15 13:31:34.175019
2363  2023-11-15 13:31:34.206933
2364  2023-11-15 13:31:34.238848
2365  2023-11-15 13:31:34.270763
2366  2023-11-15 13:31:34.302678
2367  2023-11-15 13:31:34.334627
2368  2023-11-15 13:31:34.366616
2369  2023-11-15 13:31:34.398531
2370  2023-11-15 13:31:34.430445
2371  2023-11-15 13:31:34.462360
2372  2023-11-15 13:31:34.495275
2373  2023-11-15 13:31:34.526473
2374  2023-11-15 13:31:34.574459
2375  2023-11-15 13:31:34.606376
2376  2023-11-15 13:31:34.638338
2377  2023-11-15 13:31:34.670253
2378  2023-11-15 13:31:34.702210
2379  2023-11-15 13:31:34.734083
2380  2023-11-15 13:31:34.766995
2381  2023-11-15 13:31:34.798909
2382  2023-11-15 13:31:34.830824
2383  2023-11-15 13:31:34.862739
2384  2023-11-15 13:31:34.894653
2385  2023-11-15 13:31:34.926568
2386  2023-11-15 13:31:34.974440
2387  2023-11-15 13:31:35.006355
2388  2023-11-15 13:31:35.038269
2389  2023-11-15 13:31:35.070184
2390  2023-11-15 13:31:35.103096
2391  2023-11-15 13:31:35.135016
2392  2023-11-15 13:31:35.166926
2393  2023-11-15 13:31:35.198840
2394  2023-11-15 13:31:35.230755
2395  2023-11-15 13:31:35.262670
2396  2023-11-15 13:31:35.294584
2397  2023-11-15 13:31:35.326550
2398  2023-11-15 13:31:35.374371
2399  2023-11-15 13:31:35.406286
2400  2023-11-15 13:31:35.438200
2401  2023-11-15 13:31:35.470115
2402  2023-11-15 13:31:35.503027
2403  2023-11-15 13:31:35.534943
2404  2023-11-15 13:31:35.566858
2405  2023-11-15 13:31:35.598771
2406  2023-11-15 13:31:35.630689
2407  2023-11-15 13:31:35.662642
2408  2023-11-15 13:31:35.694549
2409  2023-11-15 13:31:35.726482
2410  2023-11-15 13:31:35.774400
2411  2023-11-15 13:31:35.806299
2412  2023-11-15 13:31:35.838215
2413  2023-11-15 13:31:35.870170
2414  2023-11-15 13:31:35.903049
2415  2023-11-15 13:31:35.934964
2416  2023-11-15 13:31:35.966910
2417  2023-11-15 13:31:35.998975
2418  2023-11-15 13:31:36.030891
2419  2023-11-15 13:31:36.062805
2420  2023-11-15 13:31:36.094725
2421  2023-11-15 13:31:36.126634
2422  2023-11-15 13:31:36.174506
2423  2023-11-15 13:31:36.206421
2424  2023-11-15 13:31:36.239334
2425  2023-11-15 13:31:36.271248
2426  2023-11-15 13:31:36.303163
2427  2023-11-15 13:31:36.335077
2428  2023-11-15 13:31:36.368036
2429  2023-11-15 13:31:36.398907
2430  2023-11-15 13:31:36.430824
2431  2023-11-15 13:31:36.462736
2432  2023-11-15 13:31:36.494650
2433  2023-11-15 13:31:36.527563
2434  2023-11-15 13:31:36.575437
2435  2023-11-15 13:31:36.606367
2436  2023-11-15 13:31:36.638059
2437  2023-11-15 13:31:36.671012
2438  2023-11-15 13:31:36.702928
2439  2023-11-15 13:31:36.734882
2440  2023-11-15 13:31:36.766756
2441  2023-11-15 13:31:36.798671
2442  2023-11-15 13:31:36.830618
2443  2023-11-15 13:31:36.862534
2444  2023-11-15 13:31:36.894415
2445  2023-11-15 13:31:36.926329
2446  2023-11-15 13:31:36.975200
2447  2023-11-15 13:31:37.006116
2448  2023-11-15 13:31:37.038064
2449  2023-11-15 13:31:37.071084
2450  2023-11-15 13:31:37.102968
2451  2023-11-15 13:31:37.134886
2452  2023-11-15 13:31:37.166835
2453  2023-11-15 13:31:37.198744
2454  2023-11-15 13:31:37.230627
2455  2023-11-15 13:31:37.262541
2456  2023-11-15 13:31:37.294545
2457  2023-11-15 13:31:37.342420
2458  2023-11-15 13:31:37.374320
2459  2023-11-15 13:31:37.406205
2460  2023-11-15 13:31:37.439202
2461  2023-11-15 13:31:37.471117
2462  2023-11-15 13:31:37.503036
2463  2023-11-15 13:31:37.534912
2464  2023-11-15 13:31:37.566902
2465  2023-11-15 13:31:37.599838
2466  2023-11-15 13:31:37.630731
2467  2023-11-15 13:31:37.663833
2468  2023-11-15 13:31:37.694807
2469  2023-11-15 13:31:37.742818
2470  2023-11-15 13:31:37.775672
2471  2023-11-15 13:31:37.807620
2472  2023-11-15 13:31:37.839536
2473  2023-11-15 13:31:37.872412
2474  2023-11-15 13:31:37.903377
2475  2023-11-15 13:31:37.936274
2476  2023-11-15 13:31:37.967160
2477  2023-11-15 13:31:38.000141
2478  2023-11-15 13:31:38.031057
2479  2023-11-15 13:31:38.063006
2480  2023-11-15 13:31:38.095956
2481  2023-11-15 13:31:38.143821
2482  2023-11-15 13:31:38.175735
2483  2023-11-15 13:31:38.207660
2484  2023-11-15 13:31:38.239575
2485  2023-11-15 13:31:38.271562
2486  2023-11-15 13:31:38.303482
2487  2023-11-15 13:31:38.335390
2488  2023-11-15 13:31:38.367304
2489  2023-11-15 13:31:38.399218
2490  2023-11-15 13:31:38.431138
2491  2023-11-15 13:31:38.463047
2492  2023-11-15 13:31:38.494962
2493  2023-11-15 13:31:38.542834
2494  2023-11-15 13:31:38.574719
2495  2023-11-15 13:31:38.606633
2496  2023-11-15 13:31:38.639581
2497  2023-11-15 13:31:38.671461
2498  2023-11-15 13:31:38.703409
2499  2023-11-15 13:31:38.735317
2500  2023-11-15 13:31:38.767237
2501  2023-11-15 13:31:38.799152
2502  2023-11-15 13:31:38.831065
2503  2023-11-15 13:31:38.862981
2504  2023-11-15 13:31:38.894922
2505  2023-11-15 13:31:38.942768
2506  2023-11-15 13:31:38.974681
2507  2023-11-15 13:31:39.006598
2508  2023-11-15 13:31:39.038520
2509  2023-11-15 13:31:39.071422
2510  2023-11-15 13:31:39.102350
2511  2023-11-15 13:31:39.134255
2512  2023-11-15 13:31:39.166246
2513  2023-11-15 13:31:39.199211
2514  2023-11-15 13:31:39.231110
2515  2023-11-15 13:31:39.263026
2516  2023-11-15 13:31:39.294912
2517  2023-11-15 13:31:39.342752
2518  2023-11-15 13:31:39.374700
2519  2023-11-15 13:31:39.406580
2520  2023-11-15 13:31:39.438563
2521  2023-11-15 13:31:39.470483
2522  2023-11-15 13:31:39.502391
2523  2023-11-15 13:31:39.534309
2524  2023-11-15 13:31:39.566237
2525  2023-11-15 13:31:39.599100
2526  2023-11-15 13:31:39.631060
2527  2023-11-15 13:31:39.662988
2528  2023-11-15 13:31:39.694875
2529  2023-11-15 13:31:39.742740
2530  2023-11-15 13:31:39.774663
2531  2023-11-15 13:31:39.806577
2532  2023-11-15 13:31:39.838461
2533  2023-11-15 13:31:39.870417
2534  2023-11-15 13:31:39.903414
2535  2023-11-15 13:31:39.934342
2536  2023-11-15 13:31:39.967239
2537  2023-11-15 13:31:39.999426
2538  2023-11-15 13:31:40.030357
2539  2023-11-15 13:31:40.063223
2540  2023-11-15 13:31:40.094181
2541  2023-11-15 13:31:40.144047
2542  2023-11-15 13:31:40.174954
2543  2023-11-15 13:31:40.206839
2544  2023-11-15 13:31:40.239791
2545  2023-11-15 13:31:40.271710
2546  2023-11-15 13:31:40.303611
2547  2023-11-15 13:31:40.334504
2548  2023-11-15 13:31:40.367426
2549  2023-11-15 13:31:40.399358
2550  2023-11-15 13:31:40.431240
2551  2023-11-15 13:31:40.463196
2552  2023-11-15 13:31:40.495099
2553  2023-11-15 13:31:40.542998
2554  2023-11-15 13:31:40.574918
2555  2023-11-15 13:31:40.606827
2556  2023-11-15 13:31:40.638775
2557  2023-11-15 13:31:40.671653
2558  2023-11-15 13:31:40.703567
2559  2023-11-15 13:31:40.735490
2560  2023-11-15 13:31:40.766400
2561  2023-11-15 13:31:40.798345
2562  2023-11-15 13:31:40.831317
2563  2023-11-15 13:31:40.863219
2564  2023-11-15 13:31:40.911094
2565  2023-11-15 13:31:40.943020
2566  2023-11-15 13:31:40.974942
2567  2023-11-15 13:31:41.006804
2568  2023-11-15 13:31:41.038751
2569  2023-11-15 13:31:41.070666
2570  2023-11-15 13:31:41.102579
2571  2023-11-15 13:31:41.134498
2572  2023-11-15 13:31:41.166536
2573  2023-11-15 13:31:41.198411
2574  2023-11-15 13:31:41.230326
2575  2023-11-15 13:31:41.263289
2576  2023-11-15 13:31:41.310113
2577  2023-11-15 13:31:41.343069
2578  2023-11-15 13:31:41.374990
2579  2023-11-15 13:31:41.406884
2580  2023-11-15 13:31:41.438770
2581  2023-11-15 13:31:41.470722
2582  2023-11-15 13:31:41.503641
2583  2023-11-15 13:31:41.535511
2584  2023-11-15 13:31:41.567459
2585  2023-11-15 13:31:41.598342
2586  2023-11-15 13:31:41.631288
2587  2023-11-15 13:31:41.662202
2588  2023-11-15 13:31:41.711079
2589  2023-11-15 13:31:41.742989
2590  2023-11-15 13:31:41.775919
2591  2023-11-15 13:31:41.806819
2592  2023-11-15 13:31:41.838733
2593  2023-11-15 13:31:41.870616
2594  2023-11-15 13:31:41.903527
2595  2023-11-15 13:31:41.934477
2596  2023-11-15 13:31:41.966365
2597  2023-11-15 13:31:41.998274
2598  2023-11-15 13:31:42.030258
2599  2023-11-15 13:31:42.062259
2600  2023-11-15 13:31:42.110325
2601  2023-11-15 13:31:42.142223
2602  2023-11-15 13:31:42.174135
2603  2023-11-15 13:31:42.207035
2604  2023-11-15 13:31:42.238962
2605  2023-11-15 13:31:42.270862
2606  2023-11-15 13:31:42.302778
2607  2023-11-15 13:31:42.334693
2608  2023-11-15 13:31:42.366606
2609  2023-11-15 13:31:42.398490
2610  2023-11-15 13:31:42.430460
2611  2023-11-15 13:31:42.462359
2612  2023-11-15 13:31:42.510235
2613  2023-11-15 13:31:42.543137
2614  2023-11-15 13:31:42.574056
2615  2023-11-15 13:31:42.606978
2616  2023-11-15 13:31:42.638881
2617  2023-11-15 13:31:42.670798
2618  2023-11-15 13:31:42.702679
2619  2023-11-15 13:31:42.735630
2620  2023-11-15 13:31:42.766507
2621  2023-11-15 13:31:42.798421
2622  2023-11-15 13:31:42.830368
2623  2023-11-15 13:31:42.863250
2624  2023-11-15 13:31:42.911121
2625  2023-11-15 13:31:42.943036
2626  2023-11-15 13:31:42.974983
2627  2023-11-15 13:31:43.006864
2628  2023-11-15 13:31:43.038780
2629  2023-11-15 13:31:43.070694
2630  2023-11-15 13:31:43.102650
2631  2023-11-15 13:31:43.134557
2632  2023-11-15 13:31:43.166438
2633  2023-11-15 13:31:43.198385
2634  2023-11-15 13:31:43.230321
2635  2023-11-15 13:31:43.262214
2636  2023-11-15 13:31:43.310054
2637  2023-11-15 13:31:43.342999
2638  2023-11-15 13:31:43.374914
2639  2023-11-15 13:31:43.406986
2640  2023-11-15 13:31:43.438943
2641  2023-11-15 13:31:43.470854
2642  2023-11-15 13:31:43.502844
2643  2023-11-15 13:31:43.534923
2644  2023-11-15 13:31:43.566935
2645  2023-11-15 13:31:43.598844
2646  2023-11-15 13:31:43.630725
2647  2023-11-15 13:31:43.662668
2648  2023-11-15 13:31:43.710564
2649  2023-11-15 13:31:43.742466
2650  2023-11-15 13:31:43.774381
2651  2023-11-15 13:31:43.806289
2652  2023-11-15 13:31:43.838171
2653  2023-11-15 13:31:43.870116
2654  2023-11-15 13:31:43.902033
2655  2023-11-15 13:31:43.934944
2656  2023-11-15 13:31:43.966864
2657  2023-11-15 13:31:43.998886
2658  2023-11-15 13:31:44.030768
2659  2023-11-15 13:31:44.062717
2660  2023-11-15 13:31:44.110554
2661  2023-11-15 13:31:44.142500
2662  2023-11-15 13:31:44.174431
2663  2023-11-15 13:31:44.206303
2664  2023-11-15 13:31:44.238213
2665  2023-11-15 13:31:44.270171
2666  2023-11-15 13:31:44.303073
2667  2023-11-15 13:31:44.335000
2668  2023-11-15 13:31:44.366907
2669  2023-11-15 13:31:44.398784
2670  2023-11-15 13:31:44.430699
2671  2023-11-15 13:31:44.462615
2672  2023-11-15 13:31:44.510496
2673  2023-11-15 13:31:44.542440
2674  2023-11-15 13:31:44.575395
2675  2023-11-15 13:31:44.606435
2676  2023-11-15 13:31:44.638304
2677  2023-11-15 13:31:44.670219
2678  2023-11-15 13:31:44.702134
2679  2023-11-15 13:31:44.735047
2680  2023-11-15 13:31:44.766998
2681  2023-11-15 13:31:44.798964
2682  2023-11-15 13:31:44.830914
2683  2023-11-15 13:31:44.878900
2684  2023-11-15 13:31:44.910848
2685  2023-11-15 13:31:44.942760
2686  2023-11-15 13:31:44.974677
2687  2023-11-15 13:31:45.006560
2688  2023-11-15 13:31:45.038518
2689  2023-11-15 13:31:45.070388
2690  2023-11-15 13:31:45.102335
2691  2023-11-15 13:31:45.134252
2692  2023-11-15 13:31:45.166168
2693  2023-11-15 13:31:45.198076
2694  2023-11-15 13:31:45.230959
2695  2023-11-15 13:31:45.278876
2696  2023-11-15 13:31:45.310780
2697  2023-11-15 13:31:45.342694
2698  2023-11-15 13:31:45.374752
2699  2023-11-15 13:31:45.406670
2700  2023-11-15 13:31:45.438582
2701  2023-11-15 13:31:45.470562
2702  2023-11-15 13:31:45.502526
2703  2023-11-15 13:31:45.534419
2704  2023-11-15 13:31:45.566417
2705  2023-11-15 13:31:45.598304
2706  2023-11-15 13:31:45.630261
2707  2023-11-15 13:31:45.678091
2708  2023-11-15 13:31:45.711003
2709  2023-11-15 13:31:45.743043
2710  2023-11-15 13:31:45.774979
2711  2023-11-15 13:31:45.806828
2712  2023-11-15 13:31:45.838781
2713  2023-11-15 13:31:45.870692
2714  2023-11-15 13:31:45.902602
2715  2023-11-15 13:31:45.934602
2716  2023-11-15 13:31:45.966513
2717  2023-11-15 13:31:45.998434
2718  2023-11-15 13:31:46.030361
2719  2023-11-15 13:31:46.078215
2720  2023-11-15 13:31:46.110099
2721  2023-11-15 13:31:46.143012
2722  2023-11-15 13:31:46.174983
2723  2023-11-15 13:31:46.206874
2724  2023-11-15 13:31:46.238787
2725  2023-11-15 13:31:46.270670
2726  2023-11-15 13:31:46.302585
2727  2023-11-15 13:31:46.334532
2728  2023-11-15 13:31:46.366415
2729  2023-11-15 13:31:46.398373
2730  2023-11-15 13:31:46.430244
2731  2023-11-15 13:31:46.478149
2732  2023-11-15 13:31:46.510067
2733  2023-11-15 13:31:46.542974
2734  2023-11-15 13:31:46.574889
2735  2023-11-15 13:31:46.606805
2736  2023-11-15 13:31:46.638719
2737  2023-11-15 13:31:46.670603
2738  2023-11-15 13:31:46.702558
2739  2023-11-15 13:31:46.734474
2740  2023-11-15 13:31:46.766392
2741  2023-11-15 13:31:46.798299
2742  2023-11-15 13:31:46.830208
2743  2023-11-15 13:31:46.878047
2744  2023-11-15 13:31:46.910960
2745  2023-11-15 13:31:46.942919
2746  2023-11-15 13:31:46.974819
2747  2023-11-15 13:31:47.006734
2748  2023-11-15 13:31:47.038656
2749  2023-11-15 13:31:47.071566
2750  2023-11-15 13:31:47.102565
2751  2023-11-15 13:31:47.134510
2752  2023-11-15 13:31:47.166428
2753  2023-11-15 13:31:47.198353
2754  2023-11-15 13:31:47.230224
2755  2023-11-15 13:31:47.278138
2756  2023-11-15 13:31:47.310051
2757  2023-11-15 13:31:47.342923
2758  2023-11-15 13:31:47.374869
2759  2023-11-15 13:31:47.406787
2760  2023-11-15 13:31:47.438667
2761  2023-11-15 13:31:47.470582
2762  2023-11-15 13:31:47.502530
2763  2023-11-15 13:31:47.534446
2764  2023-11-15 13:31:47.566358
2765  2023-11-15 13:31:47.598275
2766  2023-11-15 13:31:47.631152
2767  2023-11-15 13:31:47.678081
2768  2023-11-15 13:31:47.710973
2769  2023-11-15 13:31:47.742895
2770  2023-11-15 13:31:47.774885
2771  2023-11-15 13:31:47.806800
2772  2023-11-15 13:31:47.838713
2773  2023-11-15 13:31:47.870628
2774  2023-11-15 13:31:47.902513
2775  2023-11-15 13:31:47.934464
2776  2023-11-15 13:31:47.966414
2777  2023-11-15 13:31:47.998293
2778  2023-11-15 13:31:48.030214
2779  2023-11-15 13:31:48.078081
2780  2023-11-15 13:31:48.110955
2781  2023-11-15 13:31:48.142870
2782  2023-11-15 13:31:48.174821
2783  2023-11-15 13:31:48.206734
2784  2023-11-15 13:31:48.238615
2785  2023-11-15 13:31:48.270528
2786  2023-11-15 13:31:48.302479
2787  2023-11-15 13:31:48.334399
2788  2023-11-15 13:31:48.367314
2789  2023-11-15 13:31:48.398187
2790  2023-11-15 13:31:48.447058
2791  2023-11-15 13:31:48.479020
2792  2023-11-15 13:31:48.510920
2793  2023-11-15 13:31:48.542801
2794  2023-11-15 13:31:48.574751
2795  2023-11-15 13:31:48.606665
2796  2023-11-15 13:31:48.638579
2797  2023-11-15 13:31:48.670495
2798  2023-11-15 13:31:48.702413
2799  2023-11-15 13:31:48.734324
2800  2023-11-15 13:31:48.766237
2801  2023-11-15 13:31:48.798148
2802  2023-11-15 13:31:48.847021
2803  2023-11-15 13:31:48.878953
2804  2023-11-15 13:31:48.910853
2805  2023-11-15 13:31:48.942732
2806  2023-11-15 13:31:48.974646
2807  2023-11-15 13:31:49.006591
2808  2023-11-15 13:31:49.038521
2809  2023-11-15 13:31:49.070441
2810  2023-11-15 13:31:49.102305
2811  2023-11-15 13:31:49.134220
2812  2023-11-15 13:31:49.167133
2813  2023-11-15 13:31:49.198088
2814  2023-11-15 13:31:49.246970
2815  2023-11-15 13:31:49.278833
2816  2023-11-15 13:31:49.310801
2817  2023-11-15 13:31:49.342736
2818  2023-11-15 13:31:49.374650
2819  2023-11-15 13:31:49.406595
2820  2023-11-15 13:31:49.438530
2821  2023-11-15 13:31:49.470427
2822  2023-11-15 13:31:49.502309
2823  2023-11-15 13:31:49.535222
2824  2023-11-15 13:31:49.567180
2825  2023-11-15 13:31:49.599052
2826  2023-11-15 13:31:49.646970
2827  2023-11-15 13:31:49.678873
2828  2023-11-15 13:31:49.710465
2829  2023-11-15 13:31:49.743453
2830  2023-11-15 13:31:49.774368
2831  2023-11-15 13:31:49.806315
2832  2023-11-15 13:31:49.838229
2833  2023-11-15 13:31:49.870159
2834  2023-11-15 13:31:49.903024
2835  2023-11-15 13:31:49.934937
2836  2023-11-15 13:31:49.966885
2837  2023-11-15 13:31:49.998801
2838  2023-11-15 13:31:50.046773
2839  2023-11-15 13:31:50.078690
2840  2023-11-15 13:31:50.110605
2841  2023-11-15 13:31:50.142517
2842  2023-11-15 13:31:50.174432
2843  2023-11-15 13:31:50.206347
2844  2023-11-15 13:31:50.238304
2845  2023-11-15 13:31:50.270210
2846  2023-11-15 13:31:50.302091
2847  2023-11-15 13:31:50.335003
2848  2023-11-15 13:31:50.366950
2849  2023-11-15 13:31:50.398832
2850  2023-11-15 13:31:50.446737
2851  2023-11-15 13:31:50.478619
2852  2023-11-15 13:31:50.510568
2853  2023-11-15 13:31:50.542449
2854  2023-11-15 13:31:50.574412
2855  2023-11-15 13:31:50.606313
2856  2023-11-15 13:31:50.638228
2857  2023-11-15 13:31:50.670142
2858  2023-11-15 13:31:50.702055
2859  2023-11-15 13:31:50.734934
2860  2023-11-15 13:31:50.766868
2861  2023-11-15 13:31:50.798763
2862  2023-11-15 13:31:50.846636
2863  2023-11-15 13:31:50.878581
2864  2023-11-15 13:31:50.910465
2865  2023-11-15 13:31:50.942379
2866  2023-11-15 13:31:50.974294
2867  2023-11-15 13:31:51.006285
2868  2023-11-15 13:31:51.039197
2869  2023-11-15 13:31:51.070147
2870  2023-11-15 13:31:51.103027
2871  2023-11-15 13:31:51.134942
2872  2023-11-15 13:31:51.166856
2873  2023-11-15 13:31:51.198771
2874  2023-11-15 13:31:51.246643
2875  2023-11-15 13:31:51.278558
2876  2023-11-15 13:31:51.310472
2877  2023-11-15 13:31:51.342387
2878  2023-11-15 13:31:51.374301
2879  2023-11-15 13:31:51.406217
2880  2023-11-15 13:31:51.439136
2881  2023-11-15 13:31:51.471043
2882  2023-11-15 13:31:51.502958
2883  2023-11-15 13:31:51.535032
2884  2023-11-15 13:31:51.566947
2885  2023-11-15 13:31:51.598861
2886  2023-11-15 13:31:51.646733
2887  2023-11-15 13:31:51.678647
2888  2023-11-15 13:31:51.710562
2889  2023-11-15 13:31:51.742513
2890  2023-11-15 13:31:51.774425
2891  2023-11-15 13:31:51.806306
2892  2023-11-15 13:31:51.838221
2893  2023-11-15 13:31:51.870176
2894  2023-11-15 13:31:51.902096
2895  2023-11-15 13:31:51.934089
2896  2023-11-15 13:31:51.967001
2897  2023-11-15 13:31:51.998949
2898  2023-11-15 13:31:52.046812
2899  2023-11-15 13:31:52.078740
2900  2023-11-15 13:31:52.110617
2901  2023-11-15 13:31:52.142532
2902  2023-11-15 13:31:52.174446
2903  2023-11-15 13:31:52.206428
2904  2023-11-15 13:31:52.238419
2905  2023-11-15 13:31:52.270302
2906  2023-11-15 13:31:52.302217
2907  2023-11-15 13:31:52.334164
2908  2023-11-15 13:31:52.367086
2909  2023-11-15 13:31:52.414952
2910  2023-11-15 13:31:52.446830
2911  2023-11-15 13:31:52.478745
2912  2023-11-15 13:31:52.510660
2913  2023-11-15 13:31:52.542615
2914  2023-11-15 13:31:52.574489
2915  2023-11-15 13:31:52.606404
2916  2023-11-15 13:31:52.638442
2917  2023-11-15 13:31:52.670357
2918  2023-11-15 13:31:52.702271
2919  2023-11-15 13:31:52.734186
2920  2023-11-15 13:31:52.766101
2921  2023-11-15 13:31:52.813973
2922  2023-11-15 13:31:52.846888
2923  2023-11-15 13:31:52.878802
2924  2023-11-15 13:31:52.910716
2925  2023-11-15 13:31:52.942630
2926  2023-11-15 13:31:52.974544
2927  2023-11-15 13:31:53.006458
2928  2023-11-15 13:31:53.038406
2929  2023-11-15 13:31:53.070289
2930  2023-11-15 13:31:53.102202
2931  2023-11-15 13:31:53.134296
2932  2023-11-15 13:31:53.166201
2933  2023-11-15 13:31:53.214264
2934  2023-11-15 13:31:53.246306
2935  2023-11-15 13:31:53.278214
2936  2023-11-15 13:31:53.311096
2937  2023-11-15 13:31:53.342089
2938  2023-11-15 13:31:53.375036
2939  2023-11-15 13:31:53.406916
2940  2023-11-15 13:31:53.438831
2941  2023-11-15 13:31:53.470746
2942  2023-11-15 13:31:53.502738
2943  2023-11-15 13:31:53.534694
2944  2023-11-15 13:31:53.566608
2945  2023-11-15 13:31:53.614509
2946  2023-11-15 13:31:53.646395
2947  2023-11-15 13:31:53.678318
2948  2023-11-15 13:31:53.710226
2949  2023-11-15 13:31:53.743138
2950  2023-11-15 13:31:53.775056
2951  2023-11-15 13:31:53.806972
2952  2023-11-15 13:31:53.838882
2953  2023-11-15 13:31:53.870831
2954  2023-11-15 13:31:53.902715
2955  2023-11-15 13:31:53.934626
2956  2023-11-15 13:31:53.966541
2957  2023-11-15 13:31:54.014413
2958  2023-11-15 13:31:54.046328
2959  2023-11-15 13:31:54.078242
2960  2023-11-15 13:31:54.110157
2961  2023-11-15 13:31:54.143069
2962  2023-11-15 13:31:54.174984
2963  2023-11-15 13:31:54.206898
2964  2023-11-15 13:31:54.238813
2965  2023-11-15 13:31:54.270728
2966  2023-11-15 13:31:54.302642
2967  2023-11-15 13:31:54.334557
2968  2023-11-15 13:31:54.366472
2969  2023-11-15 13:31:54.414427
2970  2023-11-15 13:31:54.446377
2971  2023-11-15 13:31:54.478335
2972  2023-11-15 13:31:54.510249
2973  2023-11-15 13:31:54.542164
2974  2023-11-15 13:31:54.575129
2975  2023-11-15 13:31:54.607001
2976  2023-11-15 13:31:54.638888
2977  2023-11-15 13:31:54.670803
2978  2023-11-15 13:31:54.702748
2979  2023-11-15 13:31:54.734632
2980  2023-11-15 13:31:54.766547
2981  2023-11-15 13:31:54.814419
2982  2023-11-15 13:31:54.846333
2983  2023-11-15 13:31:54.878248
2984  2023-11-15 13:31:54.910201
2985  2023-11-15 13:31:54.942077
2986  2023-11-15 13:31:54.974990
2987  2023-11-15 13:31:55.006904
2988  2023-11-15 13:31:55.038819
2989  2023-11-15 13:31:55.070734
2990  2023-11-15 13:31:55.102648
2991  2023-11-15 13:31:55.134563
2992  2023-11-15 13:31:55.166478
2993  2023-11-15 13:31:55.214350
2994  2023-11-15 13:31:55.246265
2995  2023-11-15 13:31:55.278179
2996  2023-11-15 13:31:55.310094
2997  2023-11-15 13:31:55.343006
2998  2023-11-15 13:31:55.374921
2999  2023-11-15 13:31:55.406835
3000  2023-11-15 13:31:55.438750
3001  2023-11-15 13:31:55.470729
3002  2023-11-15 13:31:55.502695
3003  2023-11-15 13:31:55.534656
3004  2023-11-15 13:31:55.566570
3005  2023-11-15 13:31:55.614288
3006  2023-11-15 13:31:55.646208
3007  2023-11-15 13:31:55.679176
3008  2023-11-15 13:31:55.711091
3009  2023-11-15 13:31:55.743006
3010  2023-11-15 13:31:55.774920
3011  2023-11-15 13:31:55.806835
3012  2023-11-15 13:31:55.838750
3013  2023-11-15 13:31:55.870664
3014  2023-11-15 13:31:55.902579
3015  2023-11-15 13:31:55.934494
3016  2023-11-15 13:31:55.966408
3017  2023-11-15 13:31:56.014281
3018  2023-11-15 13:31:56.046299
3019  2023-11-15 13:31:56.078545
3020  2023-11-15 13:31:56.110426
3021  2023-11-15 13:31:56.142339
3022  2023-11-15 13:31:56.174254
3023  2023-11-15 13:31:56.207167
3024  2023-11-15 13:31:56.238118
3025  2023-11-15 13:31:56.271000
3026  2023-11-15 13:31:56.302910
3027  2023-11-15 13:31:56.334865
3028  2023-11-15 13:31:56.382697
3029  2023-11-15 13:31:56.414652
3030  2023-11-15 13:31:56.446562
3031  2023-11-15 13:31:56.478441
3032  2023-11-15 13:31:56.510355
3033  2023-11-15 13:31:56.543268
3034  2023-11-15 13:31:56.574185
3035  2023-11-15 13:31:56.606100
3036  2023-11-15 13:31:56.639012
3037  2023-11-15 13:31:56.670927
3038  2023-11-15 13:31:56.702841
3039  2023-11-15 13:31:56.734756
3040  2023-11-15 13:31:56.782628
3041  2023-11-15 13:31:56.814543
3042  2023-11-15 13:31:56.846458
3043  2023-11-15 13:31:56.878372
3044  2023-11-15 13:31:56.910287
3045  2023-11-15 13:31:56.943199
3046  2023-11-15 13:31:56.975113
3047  2023-11-15 13:31:57.007060
3048  2023-11-15 13:31:57.038943
3049  2023-11-15 13:31:57.071856
3050  2023-11-15 13:31:57.102811
3051  2023-11-15 13:31:57.134756
3052  2023-11-15 13:31:57.182653
3053  2023-11-15 13:31:57.214568
3054  2023-11-15 13:31:57.246482
3055  2023-11-15 13:31:57.278399
3056  2023-11-15 13:31:57.310312
3057  2023-11-15 13:31:57.342226
3058  2023-11-15 13:31:57.375139
3059  2023-11-15 13:31:57.407055
3060  2023-11-15 13:31:57.438977
3061  2023-11-15 13:31:57.470883
3062  2023-11-15 13:31:57.502907
3063  2023-11-15 13:31:57.534859
3064  2023-11-15 13:31:57.582693
3065  2023-11-15 13:31:57.614642
3066  2023-11-15 13:31:57.646523
3067  2023-11-15 13:31:57.678437
3068  2023-11-15 13:31:57.710354
3069  2023-11-15 13:31:57.742267
3070  2023-11-15 13:31:57.774181
3071  2023-11-15 13:31:57.806096
3072  2023-11-15 13:31:57.839008
3073  2023-11-15 13:31:57.870959
3074  2023-11-15 13:31:57.902871
3075  2023-11-15 13:31:57.934752
3076  2023-11-15 13:31:57.982624
3077  2023-11-15 13:31:58.014539
3078  2023-11-15 13:31:58.046454
3079  2023-11-15 13:31:58.078375
3080  2023-11-15 13:31:58.111308
3081  2023-11-15 13:31:58.143204
3082  2023-11-15 13:31:58.174112
3083  2023-11-15 13:31:58.207094
3084  2023-11-15 13:31:58.239008
3085  2023-11-15 13:31:58.270923
3086  2023-11-15 13:31:58.302838
3087  2023-11-15 13:31:58.334753
3088  2023-11-15 13:31:58.382625
3089  2023-11-15 13:31:58.414681
3090  2023-11-15 13:31:58.446595
3091  2023-11-15 13:31:58.480505
3092  2023-11-15 13:31:58.512469
3093  2023-11-15 13:31:58.542339
3094  2023-11-15 13:31:58.576250
3095  2023-11-15 13:31:58.608165
3096  2023-11-15 13:31:58.640147
3097  2023-11-15 13:31:58.672039
3098  2023-11-15 13:31:58.703961
3099  2023-11-15 13:31:58.735824
3100  2023-11-15 13:31:58.783697
3101  2023-11-15 13:31:58.816644
3102  2023-11-15 13:31:58.847524
3103  2023-11-15 13:31:58.879476
3104  2023-11-15 13:31:58.911409
3105  2023-11-15 13:31:58.944312
3106  2023-11-15 13:31:58.975215
3107  2023-11-15 13:31:59.007138
3108  2023-11-15 13:31:59.040041
3109  2023-11-15 13:31:59.071955
3110  2023-11-15 13:31:59.103866
3111  2023-11-15 13:31:59.135792
3112  2023-11-15 13:31:59.183660
3113  2023-11-15 13:31:59.215571
3114  2023-11-15 13:31:59.247489
3115  2023-11-15 13:31:59.279409
3116  2023-11-15 13:31:59.311334
3117  2023-11-15 13:31:59.343231
3118  2023-11-15 13:31:59.375144
3119  2023-11-15 13:31:59.407073
3120  2023-11-15 13:31:59.439006
3121  2023-11-15 13:31:59.471881
3122  2023-11-15 13:31:59.503771
3123  2023-11-15 13:31:59.535717
3124  2023-11-15 13:31:59.583603
3125  2023-11-15 13:31:59.615510
3126  2023-11-15 13:31:59.647449
3127  2023-11-15 13:31:59.679334
3128  2023-11-15 13:31:59.711217
3129  2023-11-15 13:31:59.743231
3130  2023-11-15 13:31:59.775180
3131  2023-11-15 13:31:59.807094
3132  2023-11-15 13:31:59.839007
3133  2023-11-15 13:31:59.870905
3134  2023-11-15 13:31:59.903840
3135  2023-11-15 13:31:59.951702
3136  2023-11-15 13:31:59.983578
3137  2023-11-15 13:32:00.014492
3138  2023-11-15 13:32:00.046436
3139  2023-11-15 13:32:00.079357
3140  2023-11-15 13:32:00.111285
3141  2023-11-15 13:32:00.143294
3142  2023-11-15 13:32:00.175223
3143  2023-11-15 13:32:00.206996
3144  2023-11-15 13:32:00.239066
3145  2023-11-15 13:32:00.270959
3146  2023-11-15 13:32:00.302874
3147  2023-11-15 13:32:00.350744
3148  2023-11-15 13:32:00.382662
3149  2023-11-15 13:32:00.414573
3150  2023-11-15 13:32:00.446497
3151  2023-11-15 13:32:00.478408
3152  2023-11-15 13:32:00.510286
3153  2023-11-15 13:32:00.543198
3154  2023-11-15 13:32:00.574147
3155  2023-11-15 13:32:00.606060
3156  2023-11-15 13:32:00.638941
3157  2023-11-15 13:32:00.670856
3158  2023-11-15 13:32:00.702801
3159  2023-11-15 13:32:00.750690
3160  2023-11-15 13:32:00.782589
3161  2023-11-15 13:32:00.814504
3162  2023-11-15 13:32:00.846417
3163  2023-11-15 13:32:00.878336
3164  2023-11-15 13:32:00.910246
3165  2023-11-15 13:32:00.942162
3166  2023-11-15 13:32:00.975043
3167  2023-11-15 13:32:01.006957
3168  2023-11-15 13:32:01.039901
3169  2023-11-15 13:32:01.071786
3170  2023-11-15 13:32:01.103741
3171  2023-11-15 13:32:01.151620
3172  2023-11-15 13:32:01.183526
3173  2023-11-15 13:32:01.214437
3174  2023-11-15 13:32:01.246348
3175  2023-11-15 13:32:01.280228
3176  2023-11-15 13:32:01.312173
3177  2023-11-15 13:32:01.345093
3178  2023-11-15 13:32:01.374980
3179  2023-11-15 13:32:01.406889
3180  2023-11-15 13:32:01.438803
3181  2023-11-15 13:32:01.471748
3182  2023-11-15 13:32:01.503661
3183  2023-11-15 13:32:01.551692
3184  2023-11-15 13:32:01.583593
3185  2023-11-15 13:32:01.616576
3186  2023-11-15 13:32:01.647517
3187  2023-11-15 13:32:01.678503
3188  2023-11-15 13:32:01.711410
3189  2023-11-15 13:32:01.743354
3190  2023-11-15 13:32:01.775284
3191  2023-11-15 13:32:01.806156
3192  2023-11-15 13:32:01.838075
3193  2023-11-15 13:32:01.871027
3194  2023-11-15 13:32:01.902930
3195  2023-11-15 13:32:01.950806
3196  2023-11-15 13:32:01.982715
3197  2023-11-15 13:32:02.015626
3198  2023-11-15 13:32:02.046545
3199  2023-11-15 13:32:02.078482
3200  2023-11-15 13:32:02.111370
3201  2023-11-15 13:32:02.143304
3202  2023-11-15 13:32:02.175171
3203  2023-11-15 13:32:02.206088
3204  2023-11-15 13:32:02.238038
3205  2023-11-15 13:32:02.270945
3206  2023-11-15 13:32:02.302866
3207  2023-11-15 13:32:02.350738
3208  2023-11-15 13:32:02.382652
3209  2023-11-15 13:32:02.415560
3210  2023-11-15 13:32:02.446446
3211  2023-11-15 13:32:02.478407
3212  2023-11-15 13:32:02.510321
3213  2023-11-15 13:32:02.543219
3214  2023-11-15 13:32:02.575134
3215  2023-11-15 13:32:02.607015
3216  2023-11-15 13:32:02.638929
3217  2023-11-15 13:32:02.670877
3218  2023-11-15 13:32:02.702760
3219  2023-11-15 13:32:02.750663
3220  2023-11-15 13:32:02.782576
3221  2023-11-15 13:32:02.814502
3222  2023-11-15 13:32:02.846406
3223  2023-11-15 13:32:02.878290
3224  2023-11-15 13:32:02.911229
3225  2023-11-15 13:32:02.943166
3226  2023-11-15 13:32:02.975032
3227  2023-11-15 13:32:03.006408
3228  2023-11-15 13:32:03.038330
3229  2023-11-15 13:32:03.070242
3230  2023-11-15 13:32:03.102156
3231  2023-11-15 13:32:03.150980
3232  2023-11-15 13:32:03.182895
3233  2023-11-15 13:32:03.214842
3234  2023-11-15 13:32:03.246761
3235  2023-11-15 13:32:03.278646
3236  2023-11-15 13:32:03.310589
3237  2023-11-15 13:32:03.342501
3238  2023-11-15 13:32:03.374415
3239  2023-11-15 13:32:03.406328
3240  2023-11-15 13:32:03.438243
3241  2023-11-15 13:32:03.470158
3242  2023-11-15 13:32:03.503074
3243  2023-11-15 13:32:03.550943
3244  2023-11-15 13:32:03.582856
3245  2023-11-15 13:32:03.614770
3246  2023-11-15 13:32:03.646686
3247  2023-11-15 13:32:03.678569
3248  2023-11-15 13:32:03.710516
3249  2023-11-15 13:32:03.742560
3250  2023-11-15 13:32:03.774474
3251  2023-11-15 13:32:03.806359
3252  2023-11-15 13:32:03.838321
3253  2023-11-15 13:32:03.871193
3254  2023-11-15 13:32:03.918094
3255  2023-11-15 13:32:03.950972
3256  2023-11-15 13:32:03.982888
3257  2023-11-15 13:32:04.014833
3258  2023-11-15 13:32:04.046751
3259  2023-11-15 13:32:04.078663
3260  2023-11-15 13:32:04.110577
3261  2023-11-15 13:32:04.142488
3262  2023-11-15 13:32:04.174409
3263  2023-11-15 13:32:04.206323
3264  2023-11-15 13:32:04.238239
3265  2023-11-15 13:32:04.271166
3266  2023-11-15 13:32:04.319039
3267  2023-11-15 13:32:04.350911
3268  2023-11-15 13:32:04.382817
3269  2023-11-15 13:32:04.414766
3270  2023-11-15 13:32:04.446681
3271  2023-11-15 13:32:04.478562
3272  2023-11-15 13:32:04.510475
3273  2023-11-15 13:32:04.542427
3274  2023-11-15 13:32:04.574335
3275  2023-11-15 13:32:04.606255
3276  2023-11-15 13:32:04.639131
3277  2023-11-15 13:32:04.671090
3278  2023-11-15 13:32:04.718961
3279  2023-11-15 13:32:04.750915
3280  2023-11-15 13:32:04.782869
3281  2023-11-15 13:32:04.814779
3282  2023-11-15 13:32:04.846698
3283  2023-11-15 13:32:04.878580
3284  2023-11-15 13:32:04.910533
3285  2023-11-15 13:32:04.942439
3286  2023-11-15 13:32:04.974356
3287  2023-11-15 13:32:05.006268
3288  2023-11-15 13:32:05.038185
3289  2023-11-15 13:32:05.071134
3290  2023-11-15 13:32:05.118937
3291  2023-11-15 13:32:05.150879
3292  2023-11-15 13:32:05.182798
3293  2023-11-15 13:32:05.214712
3294  2023-11-15 13:32:05.246629
3295  2023-11-15 13:32:05.278540
3296  2023-11-15 13:32:05.310459
3297  2023-11-15 13:32:05.342382
3298  2023-11-15 13:32:05.374290
3299  2023-11-15 13:32:05.406168
3300  2023-11-15 13:32:05.439082
3301  2023-11-15 13:32:05.470039
3302  2023-11-15 13:32:05.518910
3303  2023-11-15 13:32:05.550815
3304  2023-11-15 13:32:05.582730
3305  2023-11-15 13:32:05.614643
3306  2023-11-15 13:32:05.646557
3307  2023-11-15 13:32:05.678474
3308  2023-11-15 13:32:05.710355
3309  2023-11-15 13:32:05.742313
3310  2023-11-15 13:32:05.774225
3311  2023-11-15 13:32:05.807097
3312  2023-11-15 13:32:05.839012
3313  2023-11-15 13:32:05.870957
3314  2023-11-15 13:32:05.918838
3315  2023-11-15 13:32:05.950745
3316  2023-11-15 13:32:05.982671
3317  2023-11-15 13:32:06.014544
3318  2023-11-15 13:32:06.046505
3319  2023-11-15 13:32:06.078405
3320  2023-11-15 13:32:06.110326
3321  2023-11-15 13:32:06.142233
3322  2023-11-15 13:32:06.174156
3323  2023-11-15 13:32:06.206074
3324  2023-11-15 13:32:06.238994
3325  2023-11-15 13:32:06.270858
3326  2023-11-15 13:32:06.318761
3327  2023-11-15 13:32:06.350685
3328  2023-11-15 13:32:06.382591
3329  2023-11-15 13:32:06.414512
3330  2023-11-15 13:32:06.446419
3331  2023-11-15 13:32:06.478335
3332  2023-11-15 13:32:06.510218
3333  2023-11-15 13:32:06.543162
3334  2023-11-15 13:32:06.575047
3335  2023-11-15 13:32:06.607012
3336  2023-11-15 13:32:06.638874
3337  2023-11-15 13:32:06.670825
3338  2023-11-15 13:32:06.718690
3339  2023-11-15 13:32:06.750606
3340  2023-11-15 13:32:06.782490
3341  2023-11-15 13:32:06.814459
3342  2023-11-15 13:32:06.846362
3343  2023-11-15 13:32:06.878266
3344  2023-11-15 13:32:06.911146
3345  2023-11-15 13:32:06.942065
3346  2023-11-15 13:32:06.974976
3347  2023-11-15 13:32:07.006929
3348  2023-11-15 13:32:07.038835
3349  2023-11-15 13:32:07.070752
3350  2023-11-15 13:32:07.118624
3351  2023-11-15 13:32:07.150554
3352  2023-11-15 13:32:07.182468
3353  2023-11-15 13:32:07.214415
3354  2023-11-15 13:32:07.246323
3355  2023-11-15 13:32:07.278341
3356  2023-11-15 13:32:07.310222
3357  2023-11-15 13:32:07.342136
3358  2023-11-15 13:32:07.374100
3359  2023-11-15 13:32:07.407015
3360  2023-11-15 13:32:07.438908
3361  2023-11-15 13:32:07.486784
3362  2023-11-15 13:32:07.518748
3363  2023-11-15 13:32:07.550632
3364  2023-11-15 13:32:07.582547
3365  2023-11-15 13:32:07.614461
3366  2023-11-15 13:32:07.646406
3367  2023-11-15 13:32:07.678332
3368  2023-11-15 13:32:07.710293
3369  2023-11-15 13:32:07.742205
3370  2023-11-15 13:32:07.774123
3371  2023-11-15 13:32:07.807031
3372  2023-11-15 13:32:07.838946
3373  2023-11-15 13:32:07.886816
3374  2023-11-15 13:32:07.918733
3375  2023-11-15 13:32:07.950648
3376  2023-11-15 13:32:07.982531
3377  2023-11-15 13:32:08.014482
3378  2023-11-15 13:32:08.046413
3379  2023-11-15 13:32:08.078308
3380  2023-11-15 13:32:08.110188
3381  2023-11-15 13:32:08.142103
3382  2023-11-15 13:32:08.175054
3383  2023-11-15 13:32:08.206975
3384  2023-11-15 13:32:08.238889
3385  2023-11-15 13:32:08.286761
3386  2023-11-15 13:32:08.318676
3387  2023-11-15 13:32:08.350591
3388  2023-11-15 13:32:08.382576
3389  2023-11-15 13:32:08.414493
3390  2023-11-15 13:32:08.446413
3391  2023-11-15 13:32:08.478324
3392  2023-11-15 13:32:08.510257
3393  2023-11-15 13:32:08.542205
3394  2023-11-15 13:32:08.575129
3395  2023-11-15 13:32:08.607001
3396  2023-11-15 13:32:08.638945
3397  2023-11-15 13:32:08.686818
3398  2023-11-15 13:32:08.718731
3399  2023-11-15 13:32:08.750615
3400  2023-11-15 13:32:08.782593
3401  2023-11-15 13:32:08.814445
3402  2023-11-15 13:32:08.846408
3403  2023-11-15 13:32:08.878311
3404  2023-11-15 13:32:08.910231
3405  2023-11-15 13:32:08.942103
3406  2023-11-15 13:32:08.975054
3407  2023-11-15 13:32:09.006961
3408  2023-11-15 13:32:09.038876
3409  2023-11-15 13:32:09.086758
3410  2023-11-15 13:32:09.118662
3411  2023-11-15 13:32:09.150584
3412  2023-11-15 13:32:09.182498
3413  2023-11-15 13:32:09.214418
3414  2023-11-15 13:32:09.246343
3415  2023-11-15 13:32:09.278245
3416  2023-11-15 13:32:09.310154
3417  2023-11-15 13:32:09.343032
3418  2023-11-15 13:32:09.374946
3419  2023-11-15 13:32:09.406891
3420  2023-11-15 13:32:09.438806
3421  2023-11-15 13:32:09.486684
3422  2023-11-15 13:32:09.518592
3423  2023-11-15 13:32:09.550522
3424  2023-11-15 13:32:09.582424
3425  2023-11-15 13:32:09.614347
3426  2023-11-15 13:32:09.646297
3427  2023-11-15 13:32:09.678323
3428  2023-11-15 13:32:09.710238
3429  2023-11-15 13:32:09.742265
3430  2023-11-15 13:32:09.774145
3431  2023-11-15 13:32:09.806094
3432  2023-11-15 13:32:09.839034
3433  2023-11-15 13:32:09.886879
3434  2023-11-15 13:32:09.918794
3435  2023-11-15 13:32:09.950710
3436  2023-11-15 13:32:09.982588
3437  2023-11-15 13:32:10.014503
3438  2023-11-15 13:32:10.046467
3439  2023-11-15 13:32:10.078369
3440  2023-11-15 13:32:10.110286
3441  2023-11-15 13:32:10.142162
3442  2023-11-15 13:32:10.174118
3443  2023-11-15 13:32:10.207037
3444  2023-11-15 13:32:10.238934
3445  2023-11-15 13:32:10.286809
3446  2023-11-15 13:32:10.318804
3447  2023-11-15 13:32:10.350796
3448  2023-11-15 13:32:10.382679
3449  2023-11-15 13:32:10.414600
3450  2023-11-15 13:32:10.446546
3451  2023-11-15 13:32:10.478454
3452  2023-11-15 13:32:10.510370
3453  2023-11-15 13:32:10.542253
3454  2023-11-15 13:32:10.575166
3455  2023-11-15 13:32:10.607111
3456  2023-11-15 13:32:10.639058
3457  2023-11-15 13:32:10.686900
3458  2023-11-15 13:32:10.718812
3459  2023-11-15 13:32:10.750731
3460  2023-11-15 13:32:10.782662
3461  2023-11-15 13:32:10.814525
3462  2023-11-15 13:32:10.846471
3463  2023-11-15 13:32:10.878386
3464  2023-11-15 13:32:10.910269
3465  2023-11-15 13:32:10.942230
3466  2023-11-15 13:32:10.975098
3467  2023-11-15 13:32:11.007052
3468  2023-11-15 13:32:11.038956
3469  2023-11-15 13:32:11.086829
3470  2023-11-15 13:32:11.118747
3471  2023-11-15 13:32:11.150657
3472  2023-11-15 13:32:11.182541
3473  2023-11-15 13:32:11.214456
3474  2023-11-15 13:32:11.246412
3475  2023-11-15 13:32:11.278319
3476  2023-11-15 13:32:11.310249
3477  2023-11-15 13:32:11.342115
3478  2023-11-15 13:32:11.375068
3479  2023-11-15 13:32:11.406973
3480  2023-11-15 13:32:11.454849
3481  2023-11-15 13:32:11.486763
3482  2023-11-15 13:32:11.518643
3483  2023-11-15 13:32:11.550594
3484  2023-11-15 13:32:11.582473
3485  2023-11-15 13:32:11.614387
3486  2023-11-15 13:32:11.646421
3487  2023-11-15 13:32:11.678378
3488  2023-11-15 13:32:11.710449
3489  2023-11-15 13:32:11.742328
3490  2023-11-15 13:32:11.774242
3491  2023-11-15 13:32:11.806242
3492  2023-11-15 13:32:11.855151
3493  2023-11-15 13:32:11.887064
3494  2023-11-15 13:32:11.919071
3495  2023-11-15 13:32:11.950986
3496  2023-11-15 13:32:11.982901
3497  2023-11-15 13:32:12.014815
3498  2023-11-15 13:32:12.046729
3499  2023-11-15 13:32:12.078644
3500  2023-11-15 13:32:12.110566
3501  2023-11-15 13:32:12.142473
3502  2023-11-15 13:32:12.174402
3503  2023-11-15 13:32:12.206302
3504  2023-11-15 13:32:12.254350
3505  2023-11-15 13:32:12.286265
3506  2023-11-15 13:32:12.319152
3507  2023-11-15 13:32:12.350063
3508  2023-11-15 13:32:12.382975
3509  2023-11-15 13:32:12.414888
3510  2023-11-15 13:32:12.446804
3511  2023-11-15 13:32:12.478781
3512  2023-11-15 13:32:12.510695
3513  2023-11-15 13:32:12.542610
3514  2023-11-15 13:32:12.574526
3515  2023-11-15 13:32:12.606439
3516  2023-11-15 13:32:12.654346
3517  2023-11-15 13:32:12.686306
3518  2023-11-15 13:32:12.718221
3519  2023-11-15 13:32:12.750178
3520  2023-11-15 13:32:12.782086
3521  2023-11-15 13:32:12.814962
3522  2023-11-15 13:32:12.846892
3523  2023-11-15 13:32:12.878792
3524  2023-11-15 13:32:12.910744
3525  2023-11-15 13:32:12.942621
3526  2023-11-15 13:32:12.974536
3527  2023-11-15 13:32:13.006450
3528  2023-11-15 13:32:13.054322
3529  2023-11-15 13:32:13.086887
3530  2023-11-15 13:32:13.118593
3531  2023-11-15 13:32:13.150471
3532  2023-11-15 13:32:13.182391
3533  2023-11-15 13:32:13.214301
3534  2023-11-15 13:32:13.246215
3535  2023-11-15 13:32:13.278130
3536  2023-11-15 13:32:13.311050
3537  2023-11-15 13:32:13.342957
3538  2023-11-15 13:32:13.374871
3539  2023-11-15 13:32:13.406786
3540  2023-11-15 13:32:13.454660
3541  2023-11-15 13:32:13.486621
3542  2023-11-15 13:32:13.518592
3543  2023-11-15 13:32:13.550506
3544  2023-11-15 13:32:13.582486
3545  2023-11-15 13:32:13.614366
3546  2023-11-15 13:32:13.646312
3547  2023-11-15 13:32:13.678227
3548  2023-11-15 13:32:13.710142
3549  2023-11-15 13:32:13.743151
3550  2023-11-15 13:32:13.775133
3551  2023-11-15 13:32:13.807041
3552  2023-11-15 13:32:13.854913
3553  2023-11-15 13:32:13.886828
3554  2023-11-15 13:32:13.918791
3555  2023-11-15 13:32:13.950669
3556  2023-11-15 13:32:13.982647
3557  2023-11-15 13:32:14.014614
3558  2023-11-15 13:32:14.046529
3559  2023-11-15 13:32:14.078475
3560  2023-11-15 13:32:14.110409
3561  2023-11-15 13:32:14.143270
