
1  2023-11-14 13:07:26.936092
2  2023-11-14 13:07:26.968062
3  2023-11-14 13:07:27.000042
4  2023-11-14 13:07:27.031925
5  2023-11-14 13:07:27.063844
6  2023-11-14 13:07:27.096852
7  2023-11-14 13:07:27.127809
8  2023-11-14 13:07:27.159847
9  2023-11-14 13:07:27.191756
10  2023-11-14 13:07:27.224678
11  2023-11-14 13:07:27.256586
12  2023-11-14 13:07:27.288462
13  2023-11-14 13:07:27.336369
14  2023-11-14 13:07:27.368295
15  2023-11-14 13:07:27.400330
16  2023-11-14 13:07:27.432262
17  2023-11-14 13:07:27.464169
18  2023-11-14 13:07:27.496073
19  2023-11-14 13:07:27.527996
20  2023-11-14 13:07:27.559913
21  2023-11-14 13:07:27.591779
22  2023-11-14 13:07:27.624692
23  2023-11-14 13:07:27.656606
24  2023-11-14 13:07:27.688521
25  2023-11-14 13:07:27.736393
26  2023-11-14 13:07:27.768426
27  2023-11-14 13:07:27.800342
28  2023-11-14 13:07:27.832255
29  2023-11-14 13:07:27.864170
30  2023-11-14 13:07:27.896085
31  2023-11-14 13:07:27.927999
32  2023-11-14 13:07:27.959916
33  2023-11-14 13:07:27.991835
34  2023-11-14 13:07:28.023745
35  2023-11-14 13:07:28.056656
36  2023-11-14 13:07:28.088570
37  2023-11-14 13:07:28.136567
38  2023-11-14 13:07:28.168460
39  2023-11-14 13:07:28.200289
40  2023-11-14 13:07:28.232203
41  2023-11-14 13:07:28.265192
42  2023-11-14 13:07:28.296073
43  2023-11-14 13:07:28.328033
44  2023-11-14 13:07:28.359899
45  2023-11-14 13:07:28.391847
46  2023-11-14 13:07:28.424761
47  2023-11-14 13:07:28.456641
48  2023-11-14 13:07:28.488556
49  2023-11-14 13:07:28.536429
50  2023-11-14 13:07:28.567929
51  2023-11-14 13:07:28.599881
52  2023-11-14 13:07:28.631796
53  2023-11-14 13:07:28.664707
54  2023-11-14 13:07:28.696622
55  2023-11-14 13:07:28.728536
56  2023-11-14 13:07:28.760450
57  2023-11-14 13:07:28.792397
58  2023-11-14 13:07:28.824280
59  2023-11-14 13:07:28.856241
60  2023-11-14 13:07:28.888156
61  2023-11-14 13:07:28.936070
62  2023-11-14 13:07:28.967985
63  2023-11-14 13:07:28.999931
64  2023-11-14 13:07:29.031931
65  2023-11-14 13:07:29.064835
66  2023-11-14 13:07:29.095757
67  2023-11-14 13:07:29.127673
68  2023-11-14 13:07:29.160580
69  2023-11-14 13:07:29.192501
70  2023-11-14 13:07:29.224417
71  2023-11-14 13:07:29.256334
72  2023-11-14 13:07:29.288252
73  2023-11-14 13:07:29.336084
74  2023-11-14 13:07:29.368039
75  2023-11-14 13:07:29.399948
76  2023-11-14 13:07:29.431880
77  2023-11-14 13:07:29.464832
78  2023-11-14 13:07:29.495798
79  2023-11-14 13:07:29.527707
80  2023-11-14 13:07:29.560604
81  2023-11-14 13:07:29.592551
82  2023-11-14 13:07:29.624466
83  2023-11-14 13:07:29.656412
84  2023-11-14 13:07:29.688295
85  2023-11-14 13:07:29.736204
86  2023-11-14 13:07:29.768119
87  2023-11-14 13:07:29.800042
88  2023-11-14 13:07:29.831955
89  2023-11-14 13:07:29.863948
90  2023-11-14 13:07:29.895836
91  2023-11-14 13:07:29.928749
92  2023-11-14 13:07:29.960663
93  2023-11-14 13:07:29.992577
94  2023-11-14 13:07:30.024492
95  2023-11-14 13:07:30.056409
96  2023-11-14 13:07:30.104313
97  2023-11-14 13:07:30.136229
98  2023-11-14 13:07:30.168108
99  2023-11-14 13:07:30.200069
100  2023-11-14 13:07:30.231946
101  2023-11-14 13:07:30.264853
102  2023-11-14 13:07:30.295767
103  2023-11-14 13:07:30.327721
104  2023-11-14 13:07:30.360640
105  2023-11-14 13:07:30.392517
106  2023-11-14 13:07:30.424456
107  2023-11-14 13:07:30.456337
108  2023-11-14 13:07:30.504243
109  2023-11-14 13:07:30.536128
110  2023-11-14 13:07:30.568039
111  2023-11-14 13:07:30.599982
112  2023-11-14 13:07:30.632017
113  2023-11-14 13:07:30.663925
114  2023-11-14 13:07:30.695926
115  2023-11-14 13:07:30.727835
116  2023-11-14 13:07:30.759741
117  2023-11-14 13:07:30.792652
118  2023-11-14 13:07:30.824536
119  2023-11-14 13:07:30.856482
120  2023-11-14 13:07:30.904527
121  2023-11-14 13:07:30.936437
122  2023-11-14 13:07:30.968317
123  2023-11-14 13:07:31.000269
124  2023-11-14 13:07:31.032090
125  2023-11-14 13:07:31.064102
126  2023-11-14 13:07:31.096021
127  2023-11-14 13:07:31.127935
128  2023-11-14 13:07:31.159850
129  2023-11-14 13:07:31.192727
130  2023-11-14 13:07:31.224641
131  2023-11-14 13:07:31.256556
132  2023-11-14 13:07:31.304428
133  2023-11-14 13:07:31.336343
134  2023-11-14 13:07:31.368290
135  2023-11-14 13:07:31.400205
136  2023-11-14 13:07:31.432120
137  2023-11-14 13:07:31.464051
138  2023-11-14 13:07:31.495972
139  2023-11-14 13:07:31.527868
140  2023-11-14 13:07:31.559778
141  2023-11-14 13:07:31.592694
142  2023-11-14 13:07:31.624572
143  2023-11-14 13:07:31.656487
144  2023-11-14 13:07:31.704444
145  2023-11-14 13:07:31.736477
146  2023-11-14 13:07:31.768386
147  2023-11-14 13:07:31.800305
148  2023-11-14 13:07:31.832217
149  2023-11-14 13:07:31.864145
150  2023-11-14 13:07:31.896047
151  2023-11-14 13:07:31.927978
152  2023-11-14 13:07:31.959842
153  2023-11-14 13:07:31.991803
154  2023-11-14 13:07:32.024673
155  2023-11-14 13:07:32.056584
156  2023-11-14 13:07:32.104486
157  2023-11-14 13:07:32.136401
158  2023-11-14 13:07:32.168316
159  2023-11-14 13:07:32.200250
160  2023-11-14 13:07:32.232157
161  2023-11-14 13:07:32.264065
162  2023-11-14 13:07:32.295944
163  2023-11-14 13:07:32.327905
164  2023-11-14 13:07:32.359820
165  2023-11-14 13:07:32.391730
166  2023-11-14 13:07:32.424600
167  2023-11-14 13:07:32.456514
168  2023-11-14 13:07:32.504386
169  2023-11-14 13:07:32.536389
170  2023-11-14 13:07:32.568381
171  2023-11-14 13:07:32.600296
172  2023-11-14 13:07:32.632211
173  2023-11-14 13:07:32.664121
174  2023-11-14 13:07:32.695791
175  2023-11-14 13:07:32.727704
176  2023-11-14 13:07:32.760616
177  2023-11-14 13:07:32.792533
178  2023-11-14 13:07:32.824412
179  2023-11-14 13:07:32.856327
180  2023-11-14 13:07:32.904199
181  2023-11-14 13:07:32.936626
182  2023-11-14 13:07:32.968623
183  2023-11-14 13:07:33.000075
184  2023-11-14 13:07:33.032028
185  2023-11-14 13:07:33.063904
186  2023-11-14 13:07:33.096834
187  2023-11-14 13:07:33.128732
188  2023-11-14 13:07:33.160682
189  2023-11-14 13:07:33.192603
190  2023-11-14 13:07:33.224475
191  2023-11-14 13:07:33.256466
192  2023-11-14 13:07:33.304377
193  2023-11-14 13:07:33.336286
194  2023-11-14 13:07:33.368202
195  2023-11-14 13:07:33.400150
196  2023-11-14 13:07:33.432141
197  2023-11-14 13:07:33.465053
198  2023-11-14 13:07:33.495932
199  2023-11-14 13:07:33.527882
200  2023-11-14 13:07:33.559800
201  2023-11-14 13:07:33.591710
202  2023-11-14 13:07:33.624596
203  2023-11-14 13:07:33.656502
204  2023-11-14 13:07:33.704405
205  2023-11-14 13:07:33.736258
206  2023-11-14 13:07:33.768268
207  2023-11-14 13:07:33.800191
208  2023-11-14 13:07:33.832191
209  2023-11-14 13:07:33.864105
210  2023-11-14 13:07:33.896027
211  2023-11-14 13:07:33.927945
212  2023-11-14 13:07:33.959863
213  2023-11-14 13:07:33.991732
214  2023-11-14 13:07:34.024644
215  2023-11-14 13:07:34.072148
216  2023-11-14 13:07:34.104113
217  2023-11-14 13:07:34.136057
218  2023-11-14 13:07:34.168047
219  2023-11-14 13:07:34.199931
220  2023-11-14 13:07:34.231881
221  2023-11-14 13:07:34.263796
222  2023-11-14 13:07:34.296672
223  2023-11-14 13:07:34.328639
224  2023-11-14 13:07:34.360501
225  2023-11-14 13:07:34.392442
226  2023-11-14 13:07:34.424331
227  2023-11-14 13:07:34.472237
228  2023-11-14 13:07:34.504150
229  2023-11-14 13:07:34.536070
230  2023-11-14 13:07:34.567981
231  2023-11-14 13:07:34.599965
232  2023-11-14 13:07:34.632840
233  2023-11-14 13:07:34.663759
234  2023-11-14 13:07:34.696671
235  2023-11-14 13:07:34.728585
236  2023-11-14 13:07:34.760501
237  2023-11-14 13:07:34.792000
238  2023-11-14 13:07:34.824118
239  2023-11-14 13:07:34.871948
240  2023-11-14 13:07:34.903932
241  2023-11-14 13:07:34.935858
242  2023-11-14 13:07:34.968768
243  2023-11-14 13:07:34.999799
244  2023-11-14 13:07:35.031693
245  2023-11-14 13:07:35.064615
246  2023-11-14 13:07:35.096507
247  2023-11-14 13:07:35.128389
248  2023-11-14 13:07:35.160336
249  2023-11-14 13:07:35.192249
250  2023-11-14 13:07:35.224167
251  2023-11-14 13:07:35.272038
252  2023-11-14 13:07:35.303957
253  2023-11-14 13:07:35.335835
254  2023-11-14 13:07:35.367786
255  2023-11-14 13:07:35.400706
256  2023-11-14 13:07:35.432607
257  2023-11-14 13:07:35.464522
258  2023-11-14 13:07:35.496446
259  2023-11-14 13:07:35.528351
260  2023-11-14 13:07:35.560281
261  2023-11-14 13:07:35.592150
262  2023-11-14 13:07:35.624064
263  2023-11-14 13:07:35.671936
264  2023-11-14 13:07:35.703896
265  2023-11-14 13:07:35.735772
266  2023-11-14 13:07:35.767717
267  2023-11-14 13:07:35.800631
268  2023-11-14 13:07:35.832546
269  2023-11-14 13:07:35.864457
270  2023-11-14 13:07:35.896371
271  2023-11-14 13:07:35.928285
272  2023-11-14 13:07:35.960192
273  2023-11-14 13:07:35.992281
274  2023-11-14 13:07:36.024165
275  2023-11-14 13:07:36.072087
276  2023-11-14 13:07:36.103995
277  2023-11-14 13:07:36.135912
278  2023-11-14 13:07:36.167781
279  2023-11-14 13:07:36.199777
280  2023-11-14 13:07:36.231841
281  2023-11-14 13:07:36.263917
282  2023-11-14 13:07:36.295791
283  2023-11-14 13:07:36.327705
284  2023-11-14 13:07:36.359671
285  2023-11-14 13:07:36.392564
286  2023-11-14 13:07:36.424447
287  2023-11-14 13:07:36.472355
288  2023-11-14 13:07:36.504258
289  2023-11-14 13:07:36.536184
290  2023-11-14 13:07:36.568096
291  2023-11-14 13:07:36.599978
292  2023-11-14 13:07:36.631937
293  2023-11-14 13:07:36.663841
294  2023-11-14 13:07:36.695754
295  2023-11-14 13:07:36.728673
296  2023-11-14 13:07:36.760593
297  2023-11-14 13:07:36.792498
298  2023-11-14 13:07:36.824378
299  2023-11-14 13:07:36.872281
300  2023-11-14 13:07:36.904195
301  2023-11-14 13:07:36.936112
302  2023-11-14 13:07:36.968032
303  2023-11-14 13:07:36.999908
304  2023-11-14 13:07:37.031823
305  2023-11-14 13:07:37.063785
306  2023-11-14 13:07:37.095689
307  2023-11-14 13:07:37.128605
308  2023-11-14 13:07:37.160510
309  2023-11-14 13:07:37.192424
310  2023-11-14 13:07:37.224340
311  2023-11-14 13:07:37.272213
312  2023-11-14 13:07:37.304149
313  2023-11-14 13:07:37.336047
314  2023-11-14 13:07:37.367974
315  2023-11-14 13:07:37.399876
316  2023-11-14 13:07:37.431788
317  2023-11-14 13:07:37.464666
318  2023-11-14 13:07:37.496611
319  2023-11-14 13:07:37.528528
320  2023-11-14 13:07:37.560459
321  2023-11-14 13:07:37.592356
322  2023-11-14 13:07:37.624239
323  2023-11-14 13:07:37.672153
324  2023-11-14 13:07:37.704026
325  2023-11-14 13:07:37.735992
326  2023-11-14 13:07:37.767919
327  2023-11-14 13:07:37.799834
328  2023-11-14 13:07:37.831823
329  2023-11-14 13:07:37.863881
330  2023-11-14 13:07:37.895797
331  2023-11-14 13:07:37.928721
332  2023-11-14 13:07:37.960640
333  2023-11-14 13:07:37.992537
334  2023-11-14 13:07:38.040419
335  2023-11-14 13:07:38.072322
336  2023-11-14 13:07:38.104236
337  2023-11-14 13:07:38.136162
338  2023-11-14 13:07:38.168075
339  2023-11-14 13:07:38.200109
340  2023-11-14 13:07:38.232110
341  2023-11-14 13:07:38.264118
342  2023-11-14 13:07:38.295988
343  2023-11-14 13:07:38.327903
344  2023-11-14 13:07:38.359934
345  2023-11-14 13:07:38.391983
346  2023-11-14 13:07:38.439929
347  2023-11-14 13:07:38.471939
348  2023-11-14 13:07:38.503850
349  2023-11-14 13:07:38.535759
350  2023-11-14 13:07:38.568684
351  2023-11-14 13:07:38.600587
352  2023-11-14 13:07:38.632502
353  2023-11-14 13:07:38.664383
354  2023-11-14 13:07:38.696332
355  2023-11-14 13:07:38.728247
356  2023-11-14 13:07:38.760166
357  2023-11-14 13:07:38.792079
358  2023-11-14 13:07:38.839950
359  2023-11-14 13:07:38.871865
360  2023-11-14 13:07:38.903775
361  2023-11-14 13:07:38.935695
362  2023-11-14 13:07:38.968570
363  2023-11-14 13:07:39.000484
364  2023-11-14 13:07:39.032443
365  2023-11-14 13:07:39.064350
366  2023-11-14 13:07:39.096262
367  2023-11-14 13:07:39.128174
368  2023-11-14 13:07:39.160106
369  2023-11-14 13:07:39.192004
370  2023-11-14 13:07:39.239881
371  2023-11-14 13:07:39.271791
372  2023-11-14 13:07:39.304674
373  2023-11-14 13:07:39.336633
374  2023-11-14 13:07:39.368533
375  2023-11-14 13:07:39.400446
376  2023-11-14 13:07:39.432365
377  2023-11-14 13:07:39.464245
378  2023-11-14 13:07:39.496191
379  2023-11-14 13:07:39.528132
380  2023-11-14 13:07:39.560029
381  2023-11-14 13:07:39.591939
382  2023-11-14 13:07:39.639808
383  2023-11-14 13:07:39.671724
384  2023-11-14 13:07:39.704647
385  2023-11-14 13:07:39.736549
386  2023-11-14 13:07:39.768463
387  2023-11-14 13:07:39.800379
388  2023-11-14 13:07:39.832294
389  2023-11-14 13:07:39.864232
390  2023-11-14 13:07:39.896245
391  2023-11-14 13:07:39.928174
392  2023-11-14 13:07:39.960075
393  2023-11-14 13:07:39.991993
394  2023-11-14 13:07:40.039873
395  2023-11-14 13:07:40.071780
396  2023-11-14 13:07:40.103695
397  2023-11-14 13:07:40.136632
398  2023-11-14 13:07:40.168518
399  2023-11-14 13:07:40.200432
400  2023-11-14 13:07:40.232348
401  2023-11-14 13:07:40.264293
402  2023-11-14 13:07:40.296287
403  2023-11-14 13:07:40.328202
404  2023-11-14 13:07:40.360117
405  2023-11-14 13:07:40.391975
406  2023-11-14 13:07:40.439917
407  2023-11-14 13:07:40.471899
408  2023-11-14 13:07:40.503898
409  2023-11-14 13:07:40.535777
410  2023-11-14 13:07:40.567692
411  2023-11-14 13:07:40.599636
412  2023-11-14 13:07:40.632553
413  2023-11-14 13:07:40.664466
414  2023-11-14 13:07:40.696378
415  2023-11-14 13:07:40.728293
416  2023-11-14 13:07:40.760177
417  2023-11-14 13:07:40.792182
418  2023-11-14 13:07:40.840208
419  2023-11-14 13:07:40.872137
420  2023-11-14 13:07:40.904033
421  2023-11-14 13:07:40.936092
422  2023-11-14 13:07:40.968089
423  2023-11-14 13:07:40.999965
424  2023-11-14 13:07:41.031923
425  2023-11-14 13:07:41.063794
426  2023-11-14 13:07:41.095746
427  2023-11-14 13:07:41.127661
428  2023-11-14 13:07:41.160568
429  2023-11-14 13:07:41.192571
430  2023-11-14 13:07:41.240443
431  2023-11-14 13:07:41.272367
432  2023-11-14 13:07:41.304273
433  2023-11-14 13:07:41.336149
434  2023-11-14 13:07:41.368069
435  2023-11-14 13:07:41.400048
436  2023-11-14 13:07:41.432158
437  2023-11-14 13:07:41.464993
438  2023-11-14 13:07:41.495907
439  2023-11-14 13:07:41.527823
440  2023-11-14 13:07:41.559737
441  2023-11-14 13:07:41.608571
442  2023-11-14 13:07:41.640486
443  2023-11-14 13:07:41.672433
444  2023-11-14 13:07:41.704316
445  2023-11-14 13:07:41.736271
446  2023-11-14 13:07:41.768187
447  2023-11-14 13:07:41.801056
448  2023-11-14 13:07:41.832012
449  2023-11-14 13:07:41.863921
450  2023-11-14 13:07:41.896833
451  2023-11-14 13:07:41.928748
452  2023-11-14 13:07:41.960663
453  2023-11-14 13:07:42.008502
454  2023-11-14 13:07:42.040416
455  2023-11-14 13:07:42.072251
456  2023-11-14 13:07:42.104165
457  2023-11-14 13:07:42.136162
458  2023-11-14 13:07:42.168063
459  2023-11-14 13:07:42.200058
460  2023-11-14 13:07:42.232022
461  2023-11-14 13:07:42.264996
462  2023-11-14 13:07:42.295917
463  2023-11-14 13:07:42.327917
464  2023-11-14 13:07:42.359800
465  2023-11-14 13:07:42.408669
466  2023-11-14 13:07:42.440588
467  2023-11-14 13:07:42.472500
468  2023-11-14 13:07:42.504456
469  2023-11-14 13:07:42.536404
470  2023-11-14 13:07:42.568426
471  2023-11-14 13:07:42.600416
472  2023-11-14 13:07:42.632332
473  2023-11-14 13:07:42.664245
474  2023-11-14 13:07:42.696162
475  2023-11-14 13:07:42.728073
476  2023-11-14 13:07:42.759995
477  2023-11-14 13:07:42.807866
478  2023-11-14 13:07:42.839779
479  2023-11-14 13:07:42.871692
480  2023-11-14 13:07:42.904617
481  2023-11-14 13:07:42.936521
482  2023-11-14 13:07:42.968434
483  2023-11-14 13:07:43.000345
484  2023-11-14 13:07:43.032229
485  2023-11-14 13:07:43.064144
486  2023-11-14 13:07:43.096093
487  2023-11-14 13:07:43.128016
488  2023-11-14 13:07:43.159924
489  2023-11-14 13:07:43.207760
490  2023-11-14 13:07:43.239675
491  2023-11-14 13:07:43.272633
492  2023-11-14 13:07:43.304552
493  2023-11-14 13:07:43.336416
494  2023-11-14 13:07:43.368362
495  2023-11-14 13:07:43.400281
496  2023-11-14 13:07:43.432196
497  2023-11-14 13:07:43.464110
498  2023-11-14 13:07:43.496037
499  2023-11-14 13:07:43.527904
500  2023-11-14 13:07:43.559849
501  2023-11-14 13:07:43.607690
502  2023-11-14 13:07:43.640611
503  2023-11-14 13:07:43.672570
504  2023-11-14 13:07:43.704464
505  2023-11-14 13:07:43.736347
506  2023-11-14 13:07:43.768294
507  2023-11-14 13:07:43.801206
508  2023-11-14 13:07:43.832139
509  2023-11-14 13:07:43.864037
510  2023-11-14 13:07:43.895920
511  2023-11-14 13:07:43.927835
512  2023-11-14 13:07:43.959785
513  2023-11-14 13:07:44.008632
514  2023-11-14 13:07:44.040565
515  2023-11-14 13:07:44.072448
516  2023-11-14 13:07:44.104395
517  2023-11-14 13:07:44.136278
518  2023-11-14 13:07:44.168231
519  2023-11-14 13:07:44.200353
520  2023-11-14 13:07:44.232267
521  2023-11-14 13:07:44.264151
522  2023-11-14 13:07:44.296065
523  2023-11-14 13:07:44.328044
524  2023-11-14 13:07:44.359930
525  2023-11-14 13:07:44.407766
526  2023-11-14 13:07:44.440679
527  2023-11-14 13:07:44.472594
528  2023-11-14 13:07:44.504508
529  2023-11-14 13:07:44.536457
530  2023-11-14 13:07:44.568371
531  2023-11-14 13:07:44.600366
532  2023-11-14 13:07:44.632281
533  2023-11-14 13:07:44.664196
534  2023-11-14 13:07:44.696123
535  2023-11-14 13:07:44.728098
536  2023-11-14 13:07:44.760013
537  2023-11-14 13:07:44.807973
538  2023-11-14 13:07:44.839922
539  2023-11-14 13:07:44.871838
540  2023-11-14 13:07:44.903762
541  2023-11-14 13:07:44.936666
542  2023-11-14 13:07:44.968598
543  2023-11-14 13:07:45.000604
544  2023-11-14 13:07:45.032488
545  2023-11-14 13:07:45.064541
546  2023-11-14 13:07:45.096455
547  2023-11-14 13:07:45.128369
548  2023-11-14 13:07:45.160283
549  2023-11-14 13:07:45.208125
550  2023-11-14 13:07:45.240099
551  2023-11-14 13:07:45.272054
552  2023-11-14 13:07:45.304003
553  2023-11-14 13:07:45.335883
554  2023-11-14 13:07:45.367955
555  2023-11-14 13:07:45.399869
556  2023-11-14 13:07:45.431806
557  2023-11-14 13:07:45.464690
558  2023-11-14 13:07:45.496624
559  2023-11-14 13:07:45.528628
560  2023-11-14 13:07:45.576466
561  2023-11-14 13:07:45.608381
562  2023-11-14 13:07:45.640297
563  2023-11-14 13:07:45.672210
564  2023-11-14 13:07:45.704170
565  2023-11-14 13:07:45.736195
566  2023-11-14 13:07:45.769158
567  2023-11-14 13:07:45.800075
568  2023-11-14 13:07:45.831991
569  2023-11-14 13:07:45.863909
570  2023-11-14 13:07:45.896936
571  2023-11-14 13:07:45.927817
572  2023-11-14 13:07:45.976585
573  2023-11-14 13:07:46.008573
574  2023-11-14 13:07:46.040456
575  2023-11-14 13:07:46.072405
576  2023-11-14 13:07:46.104331
577  2023-11-14 13:07:46.136237
578  2023-11-14 13:07:46.168147
579  2023-11-14 13:07:46.200061
580  2023-11-14 13:07:46.231981
581  2023-11-14 13:07:46.263896
582  2023-11-14 13:07:46.295807
583  2023-11-14 13:07:46.327724
584  2023-11-14 13:07:46.376558
585  2023-11-14 13:07:46.408472
586  2023-11-14 13:07:46.440420
587  2023-11-14 13:07:46.472350
588  2023-11-14 13:07:46.504250
589  2023-11-14 13:07:46.536169
590  2023-11-14 13:07:46.568082
591  2023-11-14 13:07:46.600017
592  2023-11-14 13:07:46.631911
593  2023-11-14 13:07:46.663826
594  2023-11-14 13:07:46.695739
595  2023-11-14 13:07:46.728663
596  2023-11-14 13:07:46.776488
597  2023-11-14 13:07:46.808403
598  2023-11-14 13:07:46.840354
599  2023-11-14 13:07:46.872232
600  2023-11-14 13:07:46.904178
601  2023-11-14 13:07:46.936087
602  2023-11-14 13:07:46.968079
603  2023-11-14 13:07:46.999998
604  2023-11-14 13:07:47.031914
605  2023-11-14 13:07:47.063855
606  2023-11-14 13:07:47.095741
607  2023-11-14 13:07:47.128645
608  2023-11-14 13:07:47.176485
609  2023-11-14 13:07:47.208400
610  2023-11-14 13:07:47.240346
611  2023-11-14 13:07:47.272263
612  2023-11-14 13:07:47.304262
613  2023-11-14 13:07:47.336206
614  2023-11-14 13:07:47.368135
615  2023-11-14 13:07:47.400037
616  2023-11-14 13:07:47.432980
617  2023-11-14 13:07:47.464103
618  2023-11-14 13:07:47.495996
619  2023-11-14 13:07:47.527912
620  2023-11-14 13:07:47.575750
621  2023-11-14 13:07:47.608666
622  2023-11-14 13:07:47.640580
623  2023-11-14 13:07:47.672492
624  2023-11-14 13:07:47.704511
625  2023-11-14 13:07:47.736459
626  2023-11-14 13:07:47.768374
627  2023-11-14 13:07:47.800289
628  2023-11-14 13:07:47.832170
629  2023-11-14 13:07:47.864177
630  2023-11-14 13:07:47.896174
631  2023-11-14 13:07:47.928096
632  2023-11-14 13:07:47.975970
633  2023-11-14 13:07:48.007852
634  2023-11-14 13:07:48.040766
635  2023-11-14 13:07:48.071714
636  2023-11-14 13:07:48.104629
637  2023-11-14 13:07:48.136544
638  2023-11-14 13:07:48.168455
639  2023-11-14 13:07:48.200395
640  2023-11-14 13:07:48.232287
641  2023-11-14 13:07:48.264204
642  2023-11-14 13:07:48.296082
643  2023-11-14 13:07:48.328027
644  2023-11-14 13:07:48.375868
645  2023-11-14 13:07:48.407783
646  2023-11-14 13:07:48.439738
647  2023-11-14 13:07:48.472666
648  2023-11-14 13:07:48.504524
649  2023-11-14 13:07:48.536476
650  2023-11-14 13:07:48.568397
651  2023-11-14 13:07:48.600268
652  2023-11-14 13:07:48.632218
653  2023-11-14 13:07:48.664130
654  2023-11-14 13:07:48.697041
655  2023-11-14 13:07:48.727962
656  2023-11-14 13:07:48.776907
657  2023-11-14 13:07:48.808785
658  2023-11-14 13:07:48.840702
659  2023-11-14 13:07:48.872615
660  2023-11-14 13:07:48.904585
661  2023-11-14 13:07:48.936576
662  2023-11-14 13:07:48.968455
663  2023-11-14 13:07:49.000418
664  2023-11-14 13:07:49.032283
665  2023-11-14 13:07:49.064231
666  2023-11-14 13:07:49.096166
667  2023-11-14 13:07:49.145042
668  2023-11-14 13:07:49.176922
669  2023-11-14 13:07:49.208811
670  2023-11-14 13:07:49.240763
671  2023-11-14 13:07:49.272641
672  2023-11-14 13:07:49.304736
673  2023-11-14 13:07:49.336627
674  2023-11-14 13:07:49.368548
675  2023-11-14 13:07:49.400426
676  2023-11-14 13:07:49.432386
677  2023-11-14 13:07:49.464264
678  2023-11-14 13:07:49.496204
679  2023-11-14 13:07:49.544042
680  2023-11-14 13:07:49.575955
681  2023-11-14 13:07:49.607870
682  2023-11-14 13:07:49.639843
683  2023-11-14 13:07:49.672732
684  2023-11-14 13:07:49.704656
685  2023-11-14 13:07:49.736558
686  2023-11-14 13:07:49.768442
687  2023-11-14 13:07:49.800388
688  2023-11-14 13:07:49.832375
689  2023-11-14 13:07:49.864290
690  2023-11-14 13:07:49.896276
691  2023-11-14 13:07:49.944074
692  2023-11-14 13:07:49.976023
693  2023-11-14 13:07:50.008902
694  2023-11-14 13:07:50.039863
695  2023-11-14 13:07:50.072732
696  2023-11-14 13:07:50.104647
697  2023-11-14 13:07:50.136562
698  2023-11-14 13:07:50.168491
699  2023-11-14 13:07:50.200425
700  2023-11-14 13:07:50.232336
701  2023-11-14 13:07:50.264252
702  2023-11-14 13:07:50.296165
703  2023-11-14 13:07:50.345036
704  2023-11-14 13:07:50.375920
705  2023-11-14 13:07:50.407835
706  2023-11-14 13:07:50.440785
707  2023-11-14 13:07:50.472708
708  2023-11-14 13:07:50.504586
709  2023-11-14 13:07:50.536493
710  2023-11-14 13:07:50.568446
711  2023-11-14 13:07:50.601381
712  2023-11-14 13:07:50.632357
713  2023-11-14 13:07:50.664377
714  2023-11-14 13:07:50.696381
715  2023-11-14 13:07:50.744247
716  2023-11-14 13:07:50.776295
717  2023-11-14 13:07:50.808211
718  2023-11-14 13:07:50.840118
719  2023-11-14 13:07:50.872072
720  2023-11-14 13:07:50.904045
721  2023-11-14 13:07:50.936085
722  2023-11-14 13:07:50.968002
723  2023-11-14 13:07:51.001050
724  2023-11-14 13:07:51.032927
725  2023-11-14 13:07:51.063889
726  2023-11-14 13:07:51.096756
727  2023-11-14 13:07:51.144723
728  2023-11-14 13:07:51.176644
729  2023-11-14 13:07:51.208635
730  2023-11-14 13:07:51.240549
731  2023-11-14 13:07:51.272426
732  2023-11-14 13:07:51.304378
733  2023-11-14 13:07:51.336290
734  2023-11-14 13:07:51.368171
735  2023-11-14 13:07:51.400087
736  2023-11-14 13:07:51.432000
737  2023-11-14 13:07:51.464913
738  2023-11-14 13:07:51.495884
739  2023-11-14 13:07:51.544744
740  2023-11-14 13:07:51.576647
741  2023-11-14 13:07:51.608528
742  2023-11-14 13:07:51.640480
743  2023-11-14 13:07:51.672396
744  2023-11-14 13:07:51.704273
745  2023-11-14 13:07:51.736187
746  2023-11-14 13:07:51.768137
747  2023-11-14 13:07:51.800017
748  2023-11-14 13:07:51.831932
749  2023-11-14 13:07:51.863866
750  2023-11-14 13:07:51.895808
751  2023-11-14 13:07:51.944670
752  2023-11-14 13:07:51.976570
753  2023-11-14 13:07:52.008459
754  2023-11-14 13:07:52.040416
755  2023-11-14 13:07:52.072319
756  2023-11-14 13:07:52.105206
757  2023-11-14 13:07:52.136184
758  2023-11-14 13:07:52.168066
759  2023-11-14 13:07:52.199980
760  2023-11-14 13:07:52.231892
761  2023-11-14 13:07:52.264819
762  2023-11-14 13:07:52.296719
763  2023-11-14 13:07:52.344593
764  2023-11-14 13:07:52.376512
765  2023-11-14 13:07:52.408389
766  2023-11-14 13:07:52.440337
767  2023-11-14 13:07:52.472252
768  2023-11-14 13:07:52.504171
769  2023-11-14 13:07:52.536081
770  2023-11-14 13:07:52.568106
771  2023-11-14 13:07:52.599988
772  2023-11-14 13:07:52.631947
773  2023-11-14 13:07:52.663864
774  2023-11-14 13:07:52.695770
775  2023-11-14 13:07:52.744637
776  2023-11-14 13:07:52.776515
777  2023-11-14 13:07:52.808461
778  2023-11-14 13:07:52.840375
779  2023-11-14 13:07:52.872292
780  2023-11-14 13:07:52.904207
781  2023-11-14 13:07:52.936126
782  2023-11-14 13:07:52.968039
783  2023-11-14 13:07:52.999949
784  2023-11-14 13:07:53.031864
785  2023-11-14 13:07:53.063792
786  2023-11-14 13:07:53.112647
787  2023-11-14 13:07:53.144561
788  2023-11-14 13:07:53.176476
789  2023-11-14 13:07:53.208393
790  2023-11-14 13:07:53.240305
791  2023-11-14 13:07:53.272242
792  2023-11-14 13:07:53.304143
793  2023-11-14 13:07:53.336050
794  2023-11-14 13:07:53.367966
795  2023-11-14 13:07:53.399882
796  2023-11-14 13:07:53.431806
797  2023-11-14 13:07:53.464718
798  2023-11-14 13:07:53.512579
799  2023-11-14 13:07:53.544496
800  2023-11-14 13:07:53.576409
801  2023-11-14 13:07:53.608290
802  2023-11-14 13:07:53.640240
803  2023-11-14 13:07:53.672121
804  2023-11-14 13:07:53.704067
805  2023-11-14 13:07:53.735979
806  2023-11-14 13:07:53.767865
807  2023-11-14 13:07:53.800809
808  2023-11-14 13:07:53.832732
809  2023-11-14 13:07:53.864632
810  2023-11-14 13:07:53.912510
811  2023-11-14 13:07:53.944425
812  2023-11-14 13:07:53.976351
813  2023-11-14 13:07:54.008259
814  2023-11-14 13:07:54.040178
815  2023-11-14 13:07:54.072052
816  2023-11-14 13:07:54.104200
817  2023-11-14 13:07:54.136177
818  2023-11-14 13:07:54.168062
819  2023-11-14 13:07:54.199943
820  2023-11-14 13:07:54.232896
821  2023-11-14 13:07:54.263775
822  2023-11-14 13:07:54.312717
823  2023-11-14 13:07:54.343720
824  2023-11-14 13:07:54.376633
825  2023-11-14 13:07:54.408503
826  2023-11-14 13:07:54.440449
827  2023-11-14 13:07:54.472337
828  2023-11-14 13:07:54.504263
829  2023-11-14 13:07:54.536200
830  2023-11-14 13:07:54.568111
831  2023-11-14 13:07:54.600031
832  2023-11-14 13:07:54.631908
833  2023-11-14 13:07:54.663846
834  2023-11-14 13:07:54.711729
835  2023-11-14 13:07:54.744639
836  2023-11-14 13:07:54.776009
837  2023-11-14 13:07:54.807999
838  2023-11-14 13:07:54.839921
839  2023-11-14 13:07:54.871833
840  2023-11-14 13:07:54.903747
841  2023-11-14 13:07:54.936668
842  2023-11-14 13:07:54.968569
843  2023-11-14 13:07:55.000484
844  2023-11-14 13:07:55.032400
845  2023-11-14 13:07:55.064318
846  2023-11-14 13:07:55.112308
847  2023-11-14 13:07:55.144224
848  2023-11-14 13:07:55.176145
849  2023-11-14 13:07:55.208056
850  2023-11-14 13:07:55.239971
851  2023-11-14 13:07:55.271852
852  2023-11-14 13:07:55.304801
853  2023-11-14 13:07:55.335682
854  2023-11-14 13:07:55.368628
855  2023-11-14 13:07:55.400562
856  2023-11-14 13:07:55.432424
857  2023-11-14 13:07:55.464337
858  2023-11-14 13:07:55.512237
859  2023-11-14 13:07:55.544166
860  2023-11-14 13:07:55.576071
861  2023-11-14 13:07:55.607952
862  2023-11-14 13:07:55.639905
863  2023-11-14 13:07:55.672811
864  2023-11-14 13:07:55.703727
865  2023-11-14 13:07:55.736648
866  2023-11-14 13:07:55.768538
867  2023-11-14 13:07:55.800441
868  2023-11-14 13:07:55.832383
869  2023-11-14 13:07:55.864310
870  2023-11-14 13:07:55.912179
871  2023-11-14 13:07:55.944156
872  2023-11-14 13:07:55.976072
873  2023-11-14 13:07:56.007991
874  2023-11-14 13:07:56.039894
875  2023-11-14 13:07:56.071808
876  2023-11-14 13:07:56.104690
877  2023-11-14 13:07:56.136637
878  2023-11-14 13:07:56.168644
879  2023-11-14 13:07:56.200572
880  2023-11-14 13:07:56.232476
881  2023-11-14 13:07:56.264394
882  2023-11-14 13:07:56.312260
883  2023-11-14 13:07:56.344174
884  2023-11-14 13:07:56.376106
885  2023-11-14 13:07:56.408009
886  2023-11-14 13:07:56.439938
887  2023-11-14 13:07:56.471985
888  2023-11-14 13:07:56.503900
889  2023-11-14 13:07:56.536840
890  2023-11-14 13:07:56.568725
891  2023-11-14 13:07:56.600639
892  2023-11-14 13:07:56.632553
893  2023-11-14 13:07:56.680423
894  2023-11-14 13:07:56.712304
895  2023-11-14 13:07:56.744251
896  2023-11-14 13:07:56.776174
897  2023-11-14 13:07:56.808092
898  2023-11-14 13:07:56.839999
899  2023-11-14 13:07:56.872037
900  2023-11-14 13:07:56.903954
901  2023-11-14 13:07:56.935955
902  2023-11-14 13:07:56.967914
903  2023-11-14 13:07:56.999847
904  2023-11-14 13:07:57.031943
905  2023-11-14 13:07:57.079814
906  2023-11-14 13:07:57.111693
907  2023-11-14 13:07:57.144653
908  2023-11-14 13:07:57.176554
909  2023-11-14 13:07:57.208468
910  2023-11-14 13:07:57.240395
911  2023-11-14 13:07:57.272296
912  2023-11-14 13:07:57.304223
913  2023-11-14 13:07:57.336127
914  2023-11-14 13:07:57.368056
915  2023-11-14 13:07:57.399955
916  2023-11-14 13:07:57.431872
917  2023-11-14 13:07:57.479744
918  2023-11-14 13:07:57.512656
919  2023-11-14 13:07:57.544568
920  2023-11-14 13:07:57.576481
921  2023-11-14 13:07:57.608406
922  2023-11-14 13:07:57.640316
923  2023-11-14 13:07:57.672227
924  2023-11-14 13:07:57.704154
925  2023-11-14 13:07:57.736063
926  2023-11-14 13:07:57.768971
927  2023-11-14 13:07:57.799884
928  2023-11-14 13:07:57.831769
929  2023-11-14 13:07:57.879640
930  2023-11-14 13:07:57.912568
931  2023-11-14 13:07:57.944500
932  2023-11-14 13:07:57.976412
933  2023-11-14 13:07:58.008338
934  2023-11-14 13:07:58.040243
935  2023-11-14 13:07:58.072166
936  2023-11-14 13:07:58.104091
937  2023-11-14 13:07:58.135992
938  2023-11-14 13:07:58.167918
939  2023-11-14 13:07:58.199845
940  2023-11-14 13:07:58.231733
941  2023-11-14 13:07:58.280568
942  2023-11-14 13:07:58.312517
943  2023-11-14 13:07:58.344460
944  2023-11-14 13:07:58.376346
945  2023-11-14 13:07:58.408261
946  2023-11-14 13:07:58.440175
947  2023-11-14 13:07:58.472087
948  2023-11-14 13:07:58.504020
949  2023-11-14 13:07:58.535928
950  2023-11-14 13:07:58.567842
951  2023-11-14 13:07:58.600773
952  2023-11-14 13:07:58.632660
953  2023-11-14 13:07:58.680530
954  2023-11-14 13:07:58.712413
955  2023-11-14 13:07:58.744360
956  2023-11-14 13:07:58.776280
957  2023-11-14 13:07:58.808203
958  2023-11-14 13:07:58.840121
959  2023-11-14 13:07:58.872018
960  2023-11-14 13:07:58.903935
961  2023-11-14 13:07:58.936815
962  2023-11-14 13:07:58.968730
963  2023-11-14 13:07:59.000684
964  2023-11-14 13:07:59.032588
965  2023-11-14 13:07:59.080463
966  2023-11-14 13:07:59.112344
967  2023-11-14 13:07:59.144297
968  2023-11-14 13:07:59.176255
969  2023-11-14 13:07:59.208251
970  2023-11-14 13:07:59.240170
971  2023-11-14 13:07:59.272083
972  2023-11-14 13:07:59.303998
973  2023-11-14 13:07:59.335878
974  2023-11-14 13:07:59.367829
975  2023-11-14 13:07:59.399708
976  2023-11-14 13:07:59.432649
977  2023-11-14 13:07:59.480531
978  2023-11-14 13:07:59.512437
979  2023-11-14 13:07:59.544350
980  2023-11-14 13:07:59.576266
981  2023-11-14 13:07:59.608186
982  2023-11-14 13:07:59.640106
983  2023-11-14 13:07:59.672013
984  2023-11-14 13:07:59.703945
985  2023-11-14 13:07:59.735952
986  2023-11-14 13:07:59.767899
987  2023-11-14 13:07:59.799787
988  2023-11-14 13:07:59.832701
989  2023-11-14 13:07:59.880636
990  2023-11-14 13:07:59.912609
991  2023-11-14 13:07:59.944497
992  2023-11-14 13:07:59.976414
993  2023-11-14 13:08:00.008328
994  2023-11-14 13:08:00.040244
995  2023-11-14 13:08:00.072159
996  2023-11-14 13:08:00.104071
997  2023-11-14 13:08:00.135989
998  2023-11-14 13:08:00.167907
999  2023-11-14 13:08:00.199818
1000  2023-11-14 13:08:00.231731
1001  2023-11-14 13:08:00.280620
1002  2023-11-14 13:08:00.312512
1003  2023-11-14 13:08:00.344428
1004  2023-11-14 13:08:00.376346
1005  2023-11-14 13:08:00.408261
1006  2023-11-14 13:08:00.440182
1007  2023-11-14 13:08:00.472091
1008  2023-11-14 13:08:00.504009
1009  2023-11-14 13:08:00.535909
1010  2023-11-14 13:08:00.567838
1011  2023-11-14 13:08:00.599753
1012  2023-11-14 13:08:00.648629
1013  2023-11-14 13:08:00.680534
1014  2023-11-14 13:08:00.712446
1015  2023-11-14 13:08:00.744358
1016  2023-11-14 13:08:00.776274
1017  2023-11-14 13:08:00.808187
1018  2023-11-14 13:08:00.840073
1019  2023-11-14 13:08:00.872018
1020  2023-11-14 13:08:00.904918
1021  2023-11-14 13:08:00.936848
1022  2023-11-14 13:08:00.968728
1023  2023-11-14 13:08:00.999679
1024  2023-11-14 13:08:01.048556
1025  2023-11-14 13:08:01.080467
1026  2023-11-14 13:08:01.112375
1027  2023-11-14 13:08:01.144292
1028  2023-11-14 13:08:01.176291
1029  2023-11-14 13:08:01.208289
1030  2023-11-14 13:08:01.240209
1031  2023-11-14 13:08:01.272128
1032  2023-11-14 13:08:01.304048
1033  2023-11-14 13:08:01.335957
1034  2023-11-14 13:08:01.367868
1035  2023-11-14 13:08:01.400776
1036  2023-11-14 13:08:01.448649
1037  2023-11-14 13:08:01.480566
1038  2023-11-14 13:08:01.512475
1039  2023-11-14 13:08:01.544359
1040  2023-11-14 13:08:01.576312
1041  2023-11-14 13:08:01.608221
1042  2023-11-14 13:08:01.640151
1043  2023-11-14 13:08:01.672140
1044  2023-11-14 13:08:01.704039
1045  2023-11-14 13:08:01.735950
1046  2023-11-14 13:08:01.767874
1047  2023-11-14 13:08:01.800803
1048  2023-11-14 13:08:01.847660
1049  2023-11-14 13:08:01.880570
1050  2023-11-14 13:08:01.912446
1051  2023-11-14 13:08:01.944360
1052  2023-11-14 13:08:01.976311
1053  2023-11-14 13:08:02.008226
1054  2023-11-14 13:08:02.040149
1055  2023-11-14 13:08:02.072066
1056  2023-11-14 13:08:02.103976
1057  2023-11-14 13:08:02.135890
1058  2023-11-14 13:08:02.167802
1059  2023-11-14 13:08:02.199856
1060  2023-11-14 13:08:02.247822
1061  2023-11-14 13:08:02.279742
1062  2023-11-14 13:08:02.311690
1063  2023-11-14 13:08:02.344634
1064  2023-11-14 13:08:02.376590
1065  2023-11-14 13:08:02.408496
1066  2023-11-14 13:08:02.440414
1067  2023-11-14 13:08:02.472328
1068  2023-11-14 13:08:02.504241
1069  2023-11-14 13:08:02.536160
1070  2023-11-14 13:08:02.569035
1071  2023-11-14 13:08:02.600950
1072  2023-11-14 13:08:02.647855
1073  2023-11-14 13:08:02.680771
1074  2023-11-14 13:08:02.712706
1075  2023-11-14 13:08:02.744612
1076  2023-11-14 13:08:02.776511
1077  2023-11-14 13:08:02.808426
1078  2023-11-14 13:08:02.840309
1079  2023-11-14 13:08:02.872253
1080  2023-11-14 13:08:02.904177
1081  2023-11-14 13:08:02.936053
1082  2023-11-14 13:08:02.968015
1083  2023-11-14 13:08:02.999925
1084  2023-11-14 13:08:03.047790
1085  2023-11-14 13:08:03.079702
1086  2023-11-14 13:08:03.112587
1087  2023-11-14 13:08:03.144544
1088  2023-11-14 13:08:03.176445
1089  2023-11-14 13:08:03.208362
1090  2023-11-14 13:08:03.240278
1091  2023-11-14 13:08:03.272186
1092  2023-11-14 13:08:03.304117
1093  2023-11-14 13:08:03.336025
1094  2023-11-14 13:08:03.367938
1095  2023-11-14 13:08:03.399845
1096  2023-11-14 13:08:03.447725
1097  2023-11-14 13:08:03.480630
1098  2023-11-14 13:08:03.512549
1099  2023-11-14 13:08:03.544467
1100  2023-11-14 13:08:03.576372
1101  2023-11-14 13:08:03.608287
1102  2023-11-14 13:08:03.640223
1103  2023-11-14 13:08:03.672144
1104  2023-11-14 13:08:03.704042
1105  2023-11-14 13:08:03.735951
1106  2023-11-14 13:08:03.767860
1107  2023-11-14 13:08:03.799790
1108  2023-11-14 13:08:03.848644
1109  2023-11-14 13:08:03.880561
1110  2023-11-14 13:08:03.912442
1111  2023-11-14 13:08:03.944357
1112  2023-11-14 13:08:03.976302
1113  2023-11-14 13:08:04.008222
1114  2023-11-14 13:08:04.040103
1115  2023-11-14 13:08:04.072049
1116  2023-11-14 13:08:04.103962
1117  2023-11-14 13:08:04.136888
1118  2023-11-14 13:08:04.167798
1119  2023-11-14 13:08:04.216651
1120  2023-11-14 13:08:04.248577
1121  2023-11-14 13:08:04.280491
1122  2023-11-14 13:08:04.312373
1123  2023-11-14 13:08:04.344319
1124  2023-11-14 13:08:04.376202
1125  2023-11-14 13:08:04.408149
1126  2023-11-14 13:08:04.440067
1127  2023-11-14 13:08:04.471981
1128  2023-11-14 13:08:04.503898
1129  2023-11-14 13:08:04.535819
1130  2023-11-14 13:08:04.567766
1131  2023-11-14 13:08:04.615727
1132  2023-11-14 13:08:04.648672
1133  2023-11-14 13:08:04.680644
1134  2023-11-14 13:08:04.712537
1135  2023-11-14 13:08:04.744494
1136  2023-11-14 13:08:04.776409
1137  2023-11-14 13:08:04.808363
1138  2023-11-14 13:08:04.840272
1139  2023-11-14 13:08:04.872209
1140  2023-11-14 13:08:04.904099
1141  2023-11-14 13:08:04.936034
1142  2023-11-14 13:08:04.967942
1143  2023-11-14 13:08:05.015805
1144  2023-11-14 13:08:05.048683
1145  2023-11-14 13:08:05.080645
1146  2023-11-14 13:08:05.112542
1147  2023-11-14 13:08:05.144425
1148  2023-11-14 13:08:05.176340
1149  2023-11-14 13:08:05.208286
1150  2023-11-14 13:08:05.240208
1151  2023-11-14 13:08:05.272124
1152  2023-11-14 13:08:05.304039
1153  2023-11-14 13:08:05.335948
1154  2023-11-14 13:08:05.367866
1155  2023-11-14 13:08:05.415700
1156  2023-11-14 13:08:05.448612
1157  2023-11-14 13:08:05.480527
1158  2023-11-14 13:08:05.512473
1159  2023-11-14 13:08:05.544362
1160  2023-11-14 13:08:05.576306
1161  2023-11-14 13:08:05.608217
1162  2023-11-14 13:08:05.640135
1163  2023-11-14 13:08:05.672055
1164  2023-11-14 13:08:05.703964
1165  2023-11-14 13:08:05.735874
1166  2023-11-14 13:08:05.767805
1167  2023-11-14 13:08:05.816628
1168  2023-11-14 13:08:05.848543
1169  2023-11-14 13:08:05.880458
1170  2023-11-14 13:08:05.912372
1171  2023-11-14 13:08:05.944287
1172  2023-11-14 13:08:05.976201
1173  2023-11-14 13:08:06.008168
1174  2023-11-14 13:08:06.040067
1175  2023-11-14 13:08:06.071980
1176  2023-11-14 13:08:06.103894
1177  2023-11-14 13:08:06.136773
1178  2023-11-14 13:08:06.167731
1179  2023-11-14 13:08:06.216560
1180  2023-11-14 13:08:06.248474
1181  2023-11-14 13:08:06.280388
1182  2023-11-14 13:08:06.312303
1183  2023-11-14 13:08:06.344253
1184  2023-11-14 13:08:06.376132
1185  2023-11-14 13:08:06.408078
1186  2023-11-14 13:08:06.440001
1187  2023-11-14 13:08:06.472907
1188  2023-11-14 13:08:06.504829
1189  2023-11-14 13:08:06.535745
1190  2023-11-14 13:08:06.568663
1191  2023-11-14 13:08:06.616490
1192  2023-11-14 13:08:06.648404
1193  2023-11-14 13:08:06.680365
1194  2023-11-14 13:08:06.712234
1195  2023-11-14 13:08:06.744148
1196  2023-11-14 13:08:06.776063
1197  2023-11-14 13:08:06.808011
1198  2023-11-14 13:08:06.839926
1199  2023-11-14 13:08:06.871848
1200  2023-11-14 13:08:06.903756
1201  2023-11-14 13:08:06.936635
1202  2023-11-14 13:08:06.968582
1203  2023-11-14 13:08:07.016451
1204  2023-11-14 13:08:07.048337
1205  2023-11-14 13:08:07.080251
1206  2023-11-14 13:08:07.112166
1207  2023-11-14 13:08:07.144126
1208  2023-11-14 13:08:07.176050
1209  2023-11-14 13:08:07.207910
1210  2023-11-14 13:08:07.239825
1211  2023-11-14 13:08:07.271795
1212  2023-11-14 13:08:07.303653
1213  2023-11-14 13:08:07.336598
1214  2023-11-14 13:08:07.368513
1215  2023-11-14 13:08:07.416352
1216  2023-11-14 13:08:07.448267
1217  2023-11-14 13:08:07.480218
1218  2023-11-14 13:08:07.512129
1219  2023-11-14 13:08:07.544011
1220  2023-11-14 13:08:07.576031
1221  2023-11-14 13:08:07.607976
1222  2023-11-14 13:08:07.639897
1223  2023-11-14 13:08:07.671776
1224  2023-11-14 13:08:07.703723
1225  2023-11-14 13:08:07.736636
1226  2023-11-14 13:08:07.768558
1227  2023-11-14 13:08:07.816389
1228  2023-11-14 13:08:07.848304
1229  2023-11-14 13:08:07.880218
1230  2023-11-14 13:08:07.912133
1231  2023-11-14 13:08:07.944047
1232  2023-11-14 13:08:07.975962
1233  2023-11-14 13:08:08.007877
1234  2023-11-14 13:08:08.039792
1235  2023-11-14 13:08:08.071740
1236  2023-11-14 13:08:08.104661
1237  2023-11-14 13:08:08.136566
1238  2023-11-14 13:08:08.184405
1239  2023-11-14 13:08:08.216320
1240  2023-11-14 13:08:08.248234
1241  2023-11-14 13:08:08.280149
1242  2023-11-14 13:08:08.312064
1243  2023-11-14 13:08:08.344019
1244  2023-11-14 13:08:08.375893
1245  2023-11-14 13:08:08.407888
1246  2023-11-14 13:08:08.439795
1247  2023-11-14 13:08:08.472671
1248  2023-11-14 13:08:08.504586
1249  2023-11-14 13:08:08.536532
1250  2023-11-14 13:08:08.584462
1251  2023-11-14 13:08:08.616377
1252  2023-11-14 13:08:08.648291
1253  2023-11-14 13:08:08.680207
1254  2023-11-14 13:08:08.712121
1255  2023-11-14 13:08:08.744035
1256  2023-11-14 13:08:08.775950
1257  2023-11-14 13:08:08.807898
1258  2023-11-14 13:08:08.839779
1259  2023-11-14 13:08:08.871724
1260  2023-11-14 13:08:08.904657
1261  2023-11-14 13:08:08.936554
1262  2023-11-14 13:08:08.984393
1263  2023-11-14 13:08:09.016308
1264  2023-11-14 13:08:09.048222
1265  2023-11-14 13:08:09.080137
1266  2023-11-14 13:08:09.112051
1267  2023-11-14 13:08:09.144004
1268  2023-11-14 13:08:09.175881
1269  2023-11-14 13:08:09.207795
1270  2023-11-14 13:08:09.239710
1271  2023-11-14 13:08:09.272662
1272  2023-11-14 13:08:09.304570
1273  2023-11-14 13:08:09.336483
1274  2023-11-14 13:08:09.384324
1275  2023-11-14 13:08:09.416238
1276  2023-11-14 13:08:09.448153
1277  2023-11-14 13:08:09.480068
1278  2023-11-14 13:08:09.511982
1279  2023-11-14 13:08:09.543897
1280  2023-11-14 13:08:09.575812
1281  2023-11-14 13:08:09.607726
1282  2023-11-14 13:08:09.640638
1283  2023-11-14 13:08:09.672584
1284  2023-11-14 13:08:09.704498
1285  2023-11-14 13:08:09.736415
1286  2023-11-14 13:08:09.784334
1287  2023-11-14 13:08:09.816249
1288  2023-11-14 13:08:09.848163
1289  2023-11-14 13:08:09.880078
1290  2023-11-14 13:08:09.911993
1291  2023-11-14 13:08:09.943907
1292  2023-11-14 13:08:09.975822
1293  2023-11-14 13:08:10.008734
1294  2023-11-14 13:08:10.040649
1295  2023-11-14 13:08:10.072605
1296  2023-11-14 13:08:10.104512
1297  2023-11-14 13:08:10.136434
1298  2023-11-14 13:08:10.184265
1299  2023-11-14 13:08:10.216215
1300  2023-11-14 13:08:10.248109
1301  2023-11-14 13:08:10.280009
1302  2023-11-14 13:08:10.311923
1303  2023-11-14 13:08:10.344837
1304  2023-11-14 13:08:10.375753
1305  2023-11-14 13:08:10.407667
1306  2023-11-14 13:08:10.440580
1307  2023-11-14 13:08:10.472534
1308  2023-11-14 13:08:10.504449
1309  2023-11-14 13:08:10.536354
1310  2023-11-14 13:08:10.584196
1311  2023-11-14 13:08:10.616110
1312  2023-11-14 13:08:10.648057
1313  2023-11-14 13:08:10.680115
1314  2023-11-14 13:08:10.712125
1315  2023-11-14 13:08:10.744039
1316  2023-11-14 13:08:10.775997
1317  2023-11-14 13:08:10.807869
1318  2023-11-14 13:08:10.839784
1319  2023-11-14 13:08:10.871738
1320  2023-11-14 13:08:10.904643
1321  2023-11-14 13:08:10.936558
1322  2023-11-14 13:08:10.984397
1323  2023-11-14 13:08:11.016311
1324  2023-11-14 13:08:11.048226
1325  2023-11-14 13:08:11.080141
1326  2023-11-14 13:08:11.112055
1327  2023-11-14 13:08:11.143970
1328  2023-11-14 13:08:11.175885
1329  2023-11-14 13:08:11.207940
1330  2023-11-14 13:08:11.239855
1331  2023-11-14 13:08:11.271804
1332  2023-11-14 13:08:11.303720
1333  2023-11-14 13:08:11.336628
1334  2023-11-14 13:08:11.384468
1335  2023-11-14 13:08:11.416438
1336  2023-11-14 13:08:11.448353
1337  2023-11-14 13:08:11.480267
1338  2023-11-14 13:08:11.512182
1339  2023-11-14 13:08:11.544097
1340  2023-11-14 13:08:11.576011
1341  2023-11-14 13:08:11.607926
1342  2023-11-14 13:08:11.639841
1343  2023-11-14 13:08:11.671793
1344  2023-11-14 13:08:11.703705
1345  2023-11-14 13:08:11.752539
1346  2023-11-14 13:08:11.784454
1347  2023-11-14 13:08:11.816369
1348  2023-11-14 13:08:11.848316
1349  2023-11-14 13:08:11.880205
1350  2023-11-14 13:08:11.912113
1351  2023-11-14 13:08:11.944027
1352  2023-11-14 13:08:11.975973
1353  2023-11-14 13:08:12.007895
1354  2023-11-14 13:08:12.039771
1355  2023-11-14 13:08:12.072717
1356  2023-11-14 13:08:12.104648
1357  2023-11-14 13:08:12.152470
1358  2023-11-14 13:08:12.184425
1359  2023-11-14 13:08:12.216330
1360  2023-11-14 13:08:12.248288
1361  2023-11-14 13:08:12.280202
1362  2023-11-14 13:08:12.312151
1363  2023-11-14 13:08:12.344063
1364  2023-11-14 13:08:12.375946
1365  2023-11-14 13:08:12.407861
1366  2023-11-14 13:08:12.440836
1367  2023-11-14 13:08:12.471735
1368  2023-11-14 13:08:12.504652
1369  2023-11-14 13:08:12.552474
1370  2023-11-14 13:08:12.584389
1371  2023-11-14 13:08:12.616304
1372  2023-11-14 13:08:12.648219
1373  2023-11-14 13:08:12.680133
1374  2023-11-14 13:08:12.712048
1375  2023-11-14 13:08:12.743962
1376  2023-11-14 13:08:12.775917
1377  2023-11-14 13:08:12.807968
1378  2023-11-14 13:08:12.839883
1379  2023-11-14 13:08:12.871832
1380  2023-11-14 13:08:12.903755
1381  2023-11-14 13:08:12.952582
1382  2023-11-14 13:08:12.984496
1383  2023-11-14 13:08:13.016522
1384  2023-11-14 13:08:13.048401
1385  2023-11-14 13:08:13.080316
1386  2023-11-14 13:08:13.112231
1387  2023-11-14 13:08:13.144145
1388  2023-11-14 13:08:13.176060
1389  2023-11-14 13:08:13.207975
1390  2023-11-14 13:08:13.239889
1391  2023-11-14 13:08:13.271838
1392  2023-11-14 13:08:13.303749
1393  2023-11-14 13:08:13.352589
1394  2023-11-14 13:08:13.384535
1395  2023-11-14 13:08:13.416417
1396  2023-11-14 13:08:13.448332
1397  2023-11-14 13:08:13.480302
1398  2023-11-14 13:08:13.512194
1399  2023-11-14 13:08:13.544076
1400  2023-11-14 13:08:13.575991
1401  2023-11-14 13:08:13.607905
1402  2023-11-14 13:08:13.639852
1403  2023-11-14 13:08:13.671771
1404  2023-11-14 13:08:13.704681
1405  2023-11-14 13:08:13.752519
1406  2023-11-14 13:08:13.784433
1407  2023-11-14 13:08:13.816348
1408  2023-11-14 13:08:13.848296
1409  2023-11-14 13:08:13.880177
1410  2023-11-14 13:08:13.912092
1411  2023-11-14 13:08:13.944007
1412  2023-11-14 13:08:13.975954
1413  2023-11-14 13:08:14.007836
1414  2023-11-14 13:08:14.039751
1415  2023-11-14 13:08:14.072694
1416  2023-11-14 13:08:14.104610
1417  2023-11-14 13:08:14.152450
1418  2023-11-14 13:08:14.184364
1419  2023-11-14 13:08:14.216279
1420  2023-11-14 13:08:14.248194
1421  2023-11-14 13:08:14.280108
1422  2023-11-14 13:08:14.312023
1423  2023-11-14 13:08:14.343937
1424  2023-11-14 13:08:14.375852
1425  2023-11-14 13:08:14.407928
1426  2023-11-14 13:08:14.439843
1427  2023-11-14 13:08:14.471798
1428  2023-11-14 13:08:14.503709
1429  2023-11-14 13:08:14.552541
1430  2023-11-14 13:08:14.584456
1431  2023-11-14 13:08:14.616371
1432  2023-11-14 13:08:14.648285
1433  2023-11-14 13:08:14.680200
1434  2023-11-14 13:08:14.712115
1435  2023-11-14 13:08:14.744029
1436  2023-11-14 13:08:14.775944
1437  2023-11-14 13:08:14.808859
1438  2023-11-14 13:08:14.840782
1439  2023-11-14 13:08:14.872719
1440  2023-11-14 13:08:14.904640
1441  2023-11-14 13:08:14.952472
1442  2023-11-14 13:08:14.984387
1443  2023-11-14 13:08:15.016334
1444  2023-11-14 13:08:15.048249
1445  2023-11-14 13:08:15.080131
1446  2023-11-14 13:08:15.112045
1447  2023-11-14 13:08:15.143997
1448  2023-11-14 13:08:15.175908
1449  2023-11-14 13:08:15.207789
1450  2023-11-14 13:08:15.239704
1451  2023-11-14 13:08:15.272656
1452  2023-11-14 13:08:15.304558
1453  2023-11-14 13:08:15.352435
1454  2023-11-14 13:08:15.384349
1455  2023-11-14 13:08:15.416232
1456  2023-11-14 13:08:15.448147
1457  2023-11-14 13:08:15.480096
1458  2023-11-14 13:08:15.512006
1459  2023-11-14 13:08:15.543891
1460  2023-11-14 13:08:15.575806
1461  2023-11-14 13:08:15.607751
1462  2023-11-14 13:08:15.640632
1463  2023-11-14 13:08:15.672581
1464  2023-11-14 13:08:15.720419
1465  2023-11-14 13:08:15.752334
1466  2023-11-14 13:08:15.784248
1467  2023-11-14 13:08:15.816163
1468  2023-11-14 13:08:15.848078
1469  2023-11-14 13:08:15.879992
1470  2023-11-14 13:08:15.911907
1471  2023-11-14 13:08:15.943822
1472  2023-11-14 13:08:15.975736
1473  2023-11-14 13:08:16.008649
1474  2023-11-14 13:08:16.040568
1475  2023-11-14 13:08:16.072511
1476  2023-11-14 13:08:16.120350
1477  2023-11-14 13:08:16.152264
1478  2023-11-14 13:08:16.184180
1479  2023-11-14 13:08:16.216100
1480  2023-11-14 13:08:16.248008
1481  2023-11-14 13:08:16.279923
1482  2023-11-14 13:08:16.311838
1483  2023-11-14 13:08:16.344752
1484  2023-11-14 13:08:16.376665
1485  2023-11-14 13:08:16.408579
1486  2023-11-14 13:08:16.440494
1487  2023-11-14 13:08:16.472445
1488  2023-11-14 13:08:16.520321
1489  2023-11-14 13:08:16.552226
1490  2023-11-14 13:08:16.584110
1491  2023-11-14 13:08:16.616025
1492  2023-11-14 13:08:16.647970
1493  2023-11-14 13:08:16.679854
1494  2023-11-14 13:08:16.711769
1495  2023-11-14 13:08:16.743683
1496  2023-11-14 13:08:16.776595
1497  2023-11-14 13:08:16.808622
1498  2023-11-14 13:08:16.839682
1499  2023-11-14 13:08:16.872629
1500  2023-11-14 13:08:16.920474
1501  2023-11-14 13:08:16.952380
1502  2023-11-14 13:08:16.984295
1503  2023-11-14 13:08:17.016217
1504  2023-11-14 13:08:17.048125
1505  2023-11-14 13:08:17.080039
1506  2023-11-14 13:08:17.111954
1507  2023-11-14 13:08:17.144867
1508  2023-11-14 13:08:17.176782
1509  2023-11-14 13:08:17.207698
1510  2023-11-14 13:08:17.240610
1511  2023-11-14 13:08:17.272558
1512  2023-11-14 13:08:17.320396
1513  2023-11-14 13:08:17.352355
1514  2023-11-14 13:08:17.384228
1515  2023-11-14 13:08:17.416146
1516  2023-11-14 13:08:17.448055
1517  2023-11-14 13:08:17.480005
1518  2023-11-14 13:08:17.511918
1519  2023-11-14 13:08:17.543799
1520  2023-11-14 13:08:17.575714
1521  2023-11-14 13:08:17.608658
1522  2023-11-14 13:08:17.640542
1523  2023-11-14 13:08:17.672488
1524  2023-11-14 13:08:17.720329
1525  2023-11-14 13:08:17.752243
1526  2023-11-14 13:08:17.784158
1527  2023-11-14 13:08:17.816073
1528  2023-11-14 13:08:17.847987
1529  2023-11-14 13:08:17.879902
1530  2023-11-14 13:08:17.911973
1531  2023-11-14 13:08:17.943888
1532  2023-11-14 13:08:17.976800
1533  2023-11-14 13:08:18.008716
1534  2023-11-14 13:08:18.040629
1535  2023-11-14 13:08:18.072575
1536  2023-11-14 13:08:18.120416
1537  2023-11-14 13:08:18.152601
1538  2023-11-14 13:08:18.184509
1539  2023-11-14 13:08:18.216606
1540  2023-11-14 13:08:18.248486
1541  2023-11-14 13:08:18.280400
1542  2023-11-14 13:08:18.312315
1543  2023-11-14 13:08:18.344241
1544  2023-11-14 13:08:18.376144
1545  2023-11-14 13:08:18.408059
1546  2023-11-14 13:08:18.439973
1547  2023-11-14 13:08:18.471936
1548  2023-11-14 13:08:18.520789
1549  2023-11-14 13:08:18.552741
1550  2023-11-14 13:08:18.583696
1551  2023-11-14 13:08:18.616614
1552  2023-11-14 13:08:18.648523
1553  2023-11-14 13:08:18.680646
1554  2023-11-14 13:08:18.712514
1555  2023-11-14 13:08:18.744429
1556  2023-11-14 13:08:18.776344
1557  2023-11-14 13:08:18.808411
1558  2023-11-14 13:08:18.840326
1559  2023-11-14 13:08:18.872274
1560  2023-11-14 13:08:18.920113
1561  2023-11-14 13:08:18.952027
1562  2023-11-14 13:08:18.983942
1563  2023-11-14 13:08:19.015986
1564  2023-11-14 13:08:19.047901
1565  2023-11-14 13:08:19.079815
1566  2023-11-14 13:08:19.112727
1567  2023-11-14 13:08:19.144642
1568  2023-11-14 13:08:19.176557
1569  2023-11-14 13:08:19.208472
1570  2023-11-14 13:08:19.240386
1571  2023-11-14 13:08:19.288258
1572  2023-11-14 13:08:19.320173
1573  2023-11-14 13:08:19.352087
1574  2023-11-14 13:08:19.384002
1575  2023-11-14 13:08:19.415917
1576  2023-11-14 13:08:19.447831
1577  2023-11-14 13:08:19.480743
1578  2023-11-14 13:08:19.511661
1579  2023-11-14 13:08:19.544588
1580  2023-11-14 13:08:19.576491
1581  2023-11-14 13:08:19.608402
1582  2023-11-14 13:08:19.640317
1583  2023-11-14 13:08:19.688189
1584  2023-11-14 13:08:19.720103
1585  2023-11-14 13:08:19.752018
1586  2023-11-14 13:08:19.783933
1587  2023-11-14 13:08:19.815847
1588  2023-11-14 13:08:19.848760
1589  2023-11-14 13:08:19.880675
1590  2023-11-14 13:08:19.912589
1591  2023-11-14 13:08:19.944504
1592  2023-11-14 13:08:19.976482
1593  2023-11-14 13:08:20.008469
1594  2023-11-14 13:08:20.039901
1595  2023-11-14 13:08:20.087806
1596  2023-11-14 13:08:20.119721
1597  2023-11-14 13:08:20.152633
1598  2023-11-14 13:08:20.184579
1599  2023-11-14 13:08:20.216462
1600  2023-11-14 13:08:20.248377
1601  2023-11-14 13:08:20.280292
1602  2023-11-14 13:08:20.312206
1603  2023-11-14 13:08:20.344121
1604  2023-11-14 13:08:20.376036
1605  2023-11-14 13:08:20.407950
1606  2023-11-14 13:08:20.439865
1607  2023-11-14 13:08:20.487737
1608  2023-11-14 13:08:20.520649
1609  2023-11-14 13:08:20.552573
1610  2023-11-14 13:08:20.584478
1611  2023-11-14 13:08:20.616393
1612  2023-11-14 13:08:20.648308
1613  2023-11-14 13:08:20.680222
1614  2023-11-14 13:08:20.712137
1615  2023-11-14 13:08:20.744052
1616  2023-11-14 13:08:20.775966
1617  2023-11-14 13:08:20.807918
1618  2023-11-14 13:08:20.839871
1619  2023-11-14 13:08:20.887743
1620  2023-11-14 13:08:20.920655
1621  2023-11-14 13:08:20.952667
1622  2023-11-14 13:08:20.983628
1623  2023-11-14 13:08:21.016598
1624  2023-11-14 13:08:21.048498
1625  2023-11-14 13:08:21.080369
1626  2023-11-14 13:08:21.112284
1627  2023-11-14 13:08:21.145227
1628  2023-11-14 13:08:21.176146
1629  2023-11-14 13:08:21.208144
1630  2023-11-14 13:08:21.240061
1631  2023-11-14 13:08:21.287931
1632  2023-11-14 13:08:21.319845
1633  2023-11-14 13:08:21.351796
1634  2023-11-14 13:08:21.384672
1635  2023-11-14 13:08:21.416587
1636  2023-11-14 13:08:21.448502
1637  2023-11-14 13:08:21.480416
1638  2023-11-14 13:08:21.512482
1639  2023-11-14 13:08:21.544434
1640  2023-11-14 13:08:21.577379
1641  2023-11-14 13:08:21.608263
1642  2023-11-14 13:08:21.640178
1643  2023-11-14 13:08:21.689080
1644  2023-11-14 13:08:21.721009
1645  2023-11-14 13:08:21.752923
1646  2023-11-14 13:08:21.784819
1647  2023-11-14 13:08:21.816887
1648  2023-11-14 13:08:21.848755
1649  2023-11-14 13:08:21.880670
1650  2023-11-14 13:08:21.912588
1651  2023-11-14 13:08:21.944498
1652  2023-11-14 13:08:21.977451
1653  2023-11-14 13:08:22.009372
1654  2023-11-14 13:08:22.041274
1655  2023-11-14 13:08:22.089162
1656  2023-11-14 13:08:22.121074
1657  2023-11-14 13:08:22.152989
1658  2023-11-14 13:08:22.184857
1659  2023-11-14 13:08:22.216804
1660  2023-11-14 13:08:22.248722
1661  2023-11-14 13:08:22.280770
1662  2023-11-14 13:08:22.312659
1663  2023-11-14 13:08:22.344572
1664  2023-11-14 13:08:22.376487
1665  2023-11-14 13:08:22.408415
1666  2023-11-14 13:08:22.440411
1667  2023-11-14 13:08:22.488281
1668  2023-11-14 13:08:22.520264
1669  2023-11-14 13:08:22.552261
1670  2023-11-14 13:08:22.584128
1671  2023-11-14 13:08:22.616042
1672  2023-11-14 13:08:22.648029
1673  2023-11-14 13:08:22.680919
1674  2023-11-14 13:08:22.712815
1675  2023-11-14 13:08:22.744727
1676  2023-11-14 13:08:22.776658
1677  2023-11-14 13:08:22.808561
1678  2023-11-14 13:08:22.840475
1679  2023-11-14 13:08:22.888360
1680  2023-11-14 13:08:22.920271
1681  2023-11-14 13:08:22.952306
1682  2023-11-14 13:08:22.984191
1683  2023-11-14 13:08:23.016136
1684  2023-11-14 13:08:23.048019
1685  2023-11-14 13:08:23.079934
1686  2023-11-14 13:08:23.111938
1687  2023-11-14 13:08:23.143881
1688  2023-11-14 13:08:23.175825
1689  2023-11-14 13:08:23.208691
1690  2023-11-14 13:08:23.256599
1691  2023-11-14 13:08:23.288495
1692  2023-11-14 13:08:23.320413
1693  2023-11-14 13:08:23.352476
1694  2023-11-14 13:08:23.384388
1695  2023-11-14 13:08:23.416302
1696  2023-11-14 13:08:23.448217
1697  2023-11-14 13:08:23.480130
1698  2023-11-14 13:08:23.512015
1699  2023-11-14 13:08:23.543961
1700  2023-11-14 13:08:23.575844
1701  2023-11-14 13:08:23.607758
1702  2023-11-14 13:08:23.656700
1703  2023-11-14 13:08:23.688615
1704  2023-11-14 13:08:23.720537
1705  2023-11-14 13:08:23.753474
1706  2023-11-14 13:08:23.784367
1707  2023-11-14 13:08:23.816305
1708  2023-11-14 13:08:23.848375
1709  2023-11-14 13:08:23.881331
1710  2023-11-14 13:08:23.912288
1711  2023-11-14 13:08:23.945260
1712  2023-11-14 13:08:23.976229
1713  2023-11-14 13:08:24.008169
1714  2023-11-14 13:08:24.056038
1715  2023-11-14 13:08:24.088938
1716  2023-11-14 13:08:24.120813
1717  2023-11-14 13:08:24.152916
1718  2023-11-14 13:08:24.184832
1719  2023-11-14 13:08:24.216784
1720  2023-11-14 13:08:24.248689
1721  2023-11-14 13:08:24.280644
1722  2023-11-14 13:08:24.312556
1723  2023-11-14 13:08:24.344500
1724  2023-11-14 13:08:24.376426
1725  2023-11-14 13:08:24.408415
1726  2023-11-14 13:08:24.456256
1727  2023-11-14 13:08:24.488171
1728  2023-11-14 13:08:24.521166
1729  2023-11-14 13:08:24.552990
1730  2023-11-14 13:08:24.585022
1731  2023-11-14 13:08:24.615950
1732  2023-11-14 13:08:24.647853
1733  2023-11-14 13:08:24.680840
1734  2023-11-14 13:08:24.712773
1735  2023-11-14 13:08:24.744629
1736  2023-11-14 13:08:24.776694
1737  2023-11-14 13:08:24.808657
1738  2023-11-14 13:08:24.856540
1739  2023-11-14 13:08:24.887794
1740  2023-11-14 13:08:24.919794
1741  2023-11-14 13:08:24.952699
1742  2023-11-14 13:08:24.984659
1743  2023-11-14 13:08:25.016648
1744  2023-11-14 13:08:25.048532
1745  2023-11-14 13:08:25.080477
1746  2023-11-14 13:08:25.112369
1747  2023-11-14 13:08:25.144276
1748  2023-11-14 13:08:25.176263
1749  2023-11-14 13:08:25.208272
1750  2023-11-14 13:08:25.256144
1751  2023-11-14 13:08:25.288059
1752  2023-11-14 13:08:25.320007
1753  2023-11-14 13:08:25.352212
1754  2023-11-14 13:08:25.385137
1755  2023-11-14 13:08:25.416067
1756  2023-11-14 13:08:25.447960
1757  2023-11-14 13:08:25.479962
1758  2023-11-14 13:08:25.512978
1759  2023-11-14 13:08:25.544898
1760  2023-11-14 13:08:25.576800
1761  2023-11-14 13:08:25.608678
1762  2023-11-14 13:08:25.656581
1763  2023-11-14 13:08:25.688501
1764  2023-11-14 13:08:25.720418
1765  2023-11-14 13:08:25.752326
1766  2023-11-14 13:08:25.784255
1767  2023-11-14 13:08:25.816285
1768  2023-11-14 13:08:25.848168
1769  2023-11-14 13:08:25.880208
1770  2023-11-14 13:08:25.912223
1771  2023-11-14 13:08:25.944250
1772  2023-11-14 13:08:25.976168
1773  2023-11-14 13:08:26.008185
1774  2023-11-14 13:08:26.056062
1775  2023-11-14 13:08:26.087965
1776  2023-11-14 13:08:26.119976
1777  2023-11-14 13:08:26.151901
1778  2023-11-14 13:08:26.183900
1779  2023-11-14 13:08:26.215792
1780  2023-11-14 13:08:26.247694
1781  2023-11-14 13:08:26.279741
1782  2023-11-14 13:08:26.312753
1783  2023-11-14 13:08:26.344709
1784  2023-11-14 13:08:26.376591
1785  2023-11-14 13:08:26.408533
1786  2023-11-14 13:08:26.456473
1787  2023-11-14 13:08:26.488392
1788  2023-11-14 13:08:26.520306
1789  2023-11-14 13:08:26.552222
1790  2023-11-14 13:08:26.584136
1791  2023-11-14 13:08:26.616063
1792  2023-11-14 13:08:26.647934
1793  2023-11-14 13:08:26.679888
1794  2023-11-14 13:08:26.712810
1795  2023-11-14 13:08:26.744722
1796  2023-11-14 13:08:26.776590
1797  2023-11-14 13:08:26.824594
1798  2023-11-14 13:08:26.856620
1799  2023-11-14 13:08:26.888535
1800  2023-11-14 13:08:26.920447
1801  2023-11-14 13:08:26.952333
1802  2023-11-14 13:08:26.984248
1803  2023-11-14 13:08:27.016332
1804  2023-11-14 13:08:27.048223
1805  2023-11-14 13:08:27.080121
1806  2023-11-14 13:08:27.112061
1807  2023-11-14 13:08:27.144000
1808  2023-11-14 13:08:27.176858
1809  2023-11-14 13:08:27.225780
1810  2023-11-14 13:08:27.255757
1811  2023-11-14 13:08:27.288636
1812  2023-11-14 13:08:27.320550
1813  2023-11-14 13:08:27.352516
1814  2023-11-14 13:08:27.384485
1815  2023-11-14 13:08:27.416419
1816  2023-11-14 13:08:27.448304
1817  2023-11-14 13:08:27.480256
1818  2023-11-14 13:08:27.512174
1819  2023-11-14 13:08:27.544115
1820  2023-11-14 13:08:27.576022
1821  2023-11-14 13:08:27.623943
1822  2023-11-14 13:08:27.655891
1823  2023-11-14 13:08:27.687808
1824  2023-11-14 13:08:27.719723
1825  2023-11-14 13:08:27.752645
1826  2023-11-14 13:08:27.784639
1827  2023-11-14 13:08:27.816554
1828  2023-11-14 13:08:27.848468
1829  2023-11-14 13:08:27.880386
1830  2023-11-14 13:08:27.912297
1831  2023-11-14 13:08:27.944215
1832  2023-11-14 13:08:27.976125
1833  2023-11-14 13:08:28.023989
1834  2023-11-14 13:08:28.055882
1835  2023-11-14 13:08:28.088793
1836  2023-11-14 13:08:28.120739
1837  2023-11-14 13:08:28.152654
1838  2023-11-14 13:08:28.184569
1839  2023-11-14 13:08:28.216485
1840  2023-11-14 13:08:28.248367
1841  2023-11-14 13:08:28.280313
1842  2023-11-14 13:08:28.312227
1843  2023-11-14 13:08:28.344172
1844  2023-11-14 13:08:28.376057
1845  2023-11-14 13:08:28.424938
1846  2023-11-14 13:08:28.456056
1847  2023-11-14 13:08:28.487846
1848  2023-11-14 13:08:28.519761
1849  2023-11-14 13:08:28.552748
1850  2023-11-14 13:08:28.584637
1851  2023-11-14 13:08:28.616534
1852  2023-11-14 13:08:28.648418
1853  2023-11-14 13:08:28.680347
1854  2023-11-14 13:08:28.712285
1855  2023-11-14 13:08:28.744056
1856  2023-11-14 13:08:28.776055
1857  2023-11-14 13:08:28.825058
1858  2023-11-14 13:08:28.855981
1859  2023-11-14 13:08:28.888875
1860  2023-11-14 13:08:28.919754
1861  2023-11-14 13:08:28.951788
1862  2023-11-14 13:08:28.983773
1863  2023-11-14 13:08:29.016686
1864  2023-11-14 13:08:29.048566
1865  2023-11-14 13:08:29.080479
1866  2023-11-14 13:08:29.112424
1867  2023-11-14 13:08:29.144344
1868  2023-11-14 13:08:29.176257
1869  2023-11-14 13:08:29.224096
1870  2023-11-14 13:08:29.256010
1871  2023-11-14 13:08:29.287956
1872  2023-11-14 13:08:29.319918
1873  2023-11-14 13:08:29.351875
1874  2023-11-14 13:08:29.383910
1875  2023-11-14 13:08:29.415835
1876  2023-11-14 13:08:29.447824
1877  2023-11-14 13:08:29.479740
1878  2023-11-14 13:08:29.512668
1879  2023-11-14 13:08:29.544651
1880  2023-11-14 13:08:29.576564
1881  2023-11-14 13:08:29.624401
1882  2023-11-14 13:08:29.656345
1883  2023-11-14 13:08:29.688264
1884  2023-11-14 13:08:29.720152
1885  2023-11-14 13:08:29.752090
1886  2023-11-14 13:08:29.784021
1887  2023-11-14 13:08:29.815922
1888  2023-11-14 13:08:29.847840
1889  2023-11-14 13:08:29.879718
1890  2023-11-14 13:08:29.912630
1891  2023-11-14 13:08:29.944579
1892  2023-11-14 13:08:29.976490
1893  2023-11-14 13:08:30.024480
1894  2023-11-14 13:08:30.056428
1895  2023-11-14 13:08:30.088343
1896  2023-11-14 13:08:30.120223
1897  2023-11-14 13:08:30.152196
1898  2023-11-14 13:08:30.184087
1899  2023-11-14 13:08:30.216001
1900  2023-11-14 13:08:30.247916
1901  2023-11-14 13:08:30.279797
1902  2023-11-14 13:08:30.311752
1903  2023-11-14 13:08:30.344657
1904  2023-11-14 13:08:30.376569
1905  2023-11-14 13:08:30.424439
1906  2023-11-14 13:08:30.456360
1907  2023-11-14 13:08:30.488275
1908  2023-11-14 13:08:30.520273
1909  2023-11-14 13:08:30.552286
1910  2023-11-14 13:08:30.584200
1911  2023-11-14 13:08:30.616192
1912  2023-11-14 13:08:30.648105
1913  2023-11-14 13:08:30.680167
1914  2023-11-14 13:08:30.712067
1915  2023-11-14 13:08:30.743984
1916  2023-11-14 13:08:30.791980
1917  2023-11-14 13:08:30.823899
1918  2023-11-14 13:08:30.855945
1919  2023-11-14 13:08:30.888868
1920  2023-11-14 13:08:30.920017
1921  2023-11-14 13:08:30.951897
1922  2023-11-14 13:08:30.983845
1923  2023-11-14 13:08:31.016836
1924  2023-11-14 13:08:31.048793
1925  2023-11-14 13:08:31.079746
1926  2023-11-14 13:08:31.112681
1927  2023-11-14 13:08:31.144569
1928  2023-11-14 13:08:31.192447
1929  2023-11-14 13:08:31.224411
1930  2023-11-14 13:08:31.256358
1931  2023-11-14 13:08:31.288279
1932  2023-11-14 13:08:31.320196
1933  2023-11-14 13:08:31.352120
1934  2023-11-14 13:08:31.384016
1935  2023-11-14 13:08:31.415931
1936  2023-11-14 13:08:31.447919
1937  2023-11-14 13:08:31.479874
1938  2023-11-14 13:08:31.511794
1939  2023-11-14 13:08:31.543709
1940  2023-11-14 13:08:31.592574
1941  2023-11-14 13:08:31.624485
1942  2023-11-14 13:08:31.656400
1943  2023-11-14 13:08:31.688313
1944  2023-11-14 13:08:31.720196
1945  2023-11-14 13:08:31.752111
1946  2023-11-14 13:08:31.784064
1947  2023-11-14 13:08:31.815976
1948  2023-11-14 13:08:31.847891
1949  2023-11-14 13:08:31.879770
1950  2023-11-14 13:08:31.911684
1951  2023-11-14 13:08:31.944638
1952  2023-11-14 13:08:31.992470
1953  2023-11-14 13:08:32.024383
1954  2023-11-14 13:08:32.056333
1955  2023-11-14 13:08:32.088244
1956  2023-11-14 13:08:32.120169
1957  2023-11-14 13:08:32.152075
1958  2023-11-14 13:08:32.183992
1959  2023-11-14 13:08:32.216911
1960  2023-11-14 13:08:32.247837
1961  2023-11-14 13:08:32.279744
1962  2023-11-14 13:08:32.312660
1963  2023-11-14 13:08:32.344564
1964  2023-11-14 13:08:32.392437
1965  2023-11-14 13:08:32.424314
1966  2023-11-14 13:08:32.456266
1967  2023-11-14 13:08:32.488193
1968  2023-11-14 13:08:32.520092
1969  2023-11-14 13:08:32.552006
1970  2023-11-14 13:08:32.583936
1971  2023-11-14 13:08:32.615837
1972  2023-11-14 13:08:32.647754
1973  2023-11-14 13:08:32.680631
1974  2023-11-14 13:08:32.712543
1975  2023-11-14 13:08:32.744495
1976  2023-11-14 13:08:32.792361
1977  2023-11-14 13:08:32.824245
1978  2023-11-14 13:08:32.856190
1979  2023-11-14 13:08:32.888074
1980  2023-11-14 13:08:32.920024
1981  2023-11-14 13:08:32.951903
1982  2023-11-14 13:08:32.983818
1983  2023-11-14 13:08:33.015768
1984  2023-11-14 13:08:33.048688
1985  2023-11-14 13:08:33.080591
1986  2023-11-14 13:08:33.112474
1987  2023-11-14 13:08:33.144421
1988  2023-11-14 13:08:33.192292
1989  2023-11-14 13:08:33.224212
1990  2023-11-14 13:08:33.256124
1991  2023-11-14 13:08:33.288052
1992  2023-11-14 13:08:33.319960
1993  2023-11-14 13:08:33.351871
1994  2023-11-14 13:08:33.383785
1995  2023-11-14 13:08:33.415702
1996  2023-11-14 13:08:33.448610
1997  2023-11-14 13:08:33.480522
1998  2023-11-14 13:08:33.512436
1999  2023-11-14 13:08:33.544351
2000  2023-11-14 13:08:33.592224
2001  2023-11-14 13:08:33.624151
2002  2023-11-14 13:08:33.656058
2003  2023-11-14 13:08:33.687976
2004  2023-11-14 13:08:33.719890
2005  2023-11-14 13:08:33.751765
2006  2023-11-14 13:08:33.783717
2007  2023-11-14 13:08:33.816625
2008  2023-11-14 13:08:33.848543
2009  2023-11-14 13:08:33.880455
2010  2023-11-14 13:08:33.912370
2011  2023-11-14 13:08:33.944290
2012  2023-11-14 13:08:33.992173
2013  2023-11-14 13:08:34.024076
2014  2023-11-14 13:08:34.056988
2015  2023-11-14 13:08:34.088865
2016  2023-11-14 13:08:34.119821
2017  2023-11-14 13:08:34.151731
2018  2023-11-14 13:08:34.184804
2019  2023-11-14 13:08:34.216721
2020  2023-11-14 13:08:34.248668
2021  2023-11-14 13:08:34.280581
2022  2023-11-14 13:08:34.312495
2023  2023-11-14 13:08:34.344433
2024  2023-11-14 13:08:34.392283
2025  2023-11-14 13:08:34.424164
2026  2023-11-14 13:08:34.456217
2027  2023-11-14 13:08:34.488132
2028  2023-11-14 13:08:34.520054
2029  2023-11-14 13:08:34.551961
2030  2023-11-14 13:08:34.583842
2031  2023-11-14 13:08:34.615798
2032  2023-11-14 13:08:34.647706
2033  2023-11-14 13:08:34.680615
2034  2023-11-14 13:08:34.712538
2035  2023-11-14 13:08:34.760384
2036  2023-11-14 13:08:34.792316
2037  2023-11-14 13:08:34.824233
2038  2023-11-14 13:08:34.856157
2039  2023-11-14 13:08:34.888118
2040  2023-11-14 13:08:34.920099
2041  2023-11-14 13:08:34.952011
2042  2023-11-14 13:08:34.983894
2043  2023-11-14 13:08:35.015848
2044  2023-11-14 13:08:35.047759
2045  2023-11-14 13:08:35.080680
2046  2023-11-14 13:08:35.112582
2047  2023-11-14 13:08:35.160453
2048  2023-11-14 13:08:35.192369
2049  2023-11-14 13:08:35.224285
2050  2023-11-14 13:08:35.256196
2051  2023-11-14 13:08:35.288123
2052  2023-11-14 13:08:35.320026
2053  2023-11-14 13:08:35.351945
2054  2023-11-14 13:08:35.383825
2055  2023-11-14 13:08:35.416773
2056  2023-11-14 13:08:35.448681
2057  2023-11-14 13:08:35.480597
2058  2023-11-14 13:08:35.512481
2059  2023-11-14 13:08:35.560359
2060  2023-11-14 13:08:35.592298
2061  2023-11-14 13:08:35.624216
2062  2023-11-14 13:08:35.656128
2063  2023-11-14 13:08:35.688043
2064  2023-11-14 13:08:35.719969
2065  2023-11-14 13:08:35.751841
2066  2023-11-14 13:08:35.783769
2067  2023-11-14 13:08:35.815707
2068  2023-11-14 13:08:35.848614
2069  2023-11-14 13:08:35.880528
2070  2023-11-14 13:08:35.912444
2071  2023-11-14 13:08:35.960315
2072  2023-11-14 13:08:35.992231
2073  2023-11-14 13:08:36.024159
2074  2023-11-14 13:08:36.056069
2075  2023-11-14 13:08:36.087973
2076  2023-11-14 13:08:36.119887
2077  2023-11-14 13:08:36.151772
2078  2023-11-14 13:08:36.183720
2079  2023-11-14 13:08:36.216641
2080  2023-11-14 13:08:36.248546
2081  2023-11-14 13:08:36.280459
2082  2023-11-14 13:08:36.312374
2083  2023-11-14 13:08:36.360245
2084  2023-11-14 13:08:36.392186
2085  2023-11-14 13:08:36.424076
2086  2023-11-14 13:08:36.455997
2087  2023-11-14 13:08:36.487906
2088  2023-11-14 13:08:36.519817
2089  2023-11-14 13:08:36.551736
2090  2023-11-14 13:08:36.584615
2091  2023-11-14 13:08:36.616562
2092  2023-11-14 13:08:36.648476
2093  2023-11-14 13:08:36.680398
2094  2023-11-14 13:08:36.712305
2095  2023-11-14 13:08:36.760176
2096  2023-11-14 13:08:36.792106
2097  2023-11-14 13:08:36.824012
2098  2023-11-14 13:08:36.855922
2099  2023-11-14 13:08:36.888836
2100  2023-11-14 13:08:36.920752
2101  2023-11-14 13:08:36.952630
2102  2023-11-14 13:08:36.984545
2103  2023-11-14 13:08:37.016492
2104  2023-11-14 13:08:37.048406
2105  2023-11-14 13:08:37.080320
2106  2023-11-14 13:08:37.112240
2107  2023-11-14 13:08:37.160112
2108  2023-11-14 13:08:37.192036
2109  2023-11-14 13:08:37.224943
2110  2023-11-14 13:08:37.255852
2111  2023-11-14 13:08:37.287771
2112  2023-11-14 13:08:37.320680
2113  2023-11-14 13:08:37.352606
2114  2023-11-14 13:08:37.384508
2115  2023-11-14 13:08:37.416391
2116  2023-11-14 13:08:37.448339
2117  2023-11-14 13:08:37.480257
2118  2023-11-14 13:08:37.512177
2119  2023-11-14 13:08:37.560051
2120  2023-11-14 13:08:37.591957
2121  2023-11-14 13:08:37.623869
2122  2023-11-14 13:08:37.655751
2123  2023-11-14 13:08:37.687696
2124  2023-11-14 13:08:37.720623
2125  2023-11-14 13:08:37.752524
2126  2023-11-14 13:08:37.784407
2127  2023-11-14 13:08:37.816359
2128  2023-11-14 13:08:37.848267
2129  2023-11-14 13:08:37.880192
2130  2023-11-14 13:08:37.912097
2131  2023-11-14 13:08:37.959971
2132  2023-11-14 13:08:37.991889
2133  2023-11-14 13:08:38.023802
2134  2023-11-14 13:08:38.055682
2135  2023-11-14 13:08:38.088648
2136  2023-11-14 13:08:38.120539
2137  2023-11-14 13:08:38.152458
2138  2023-11-14 13:08:38.184338
2139  2023-11-14 13:08:38.216252
2140  2023-11-14 13:08:38.248219
2141  2023-11-14 13:08:38.280127
2142  2023-11-14 13:08:38.327989
2143  2023-11-14 13:08:38.359901
2144  2023-11-14 13:08:38.391816
2145  2023-11-14 13:08:38.423749
2146  2023-11-14 13:08:38.456610
2147  2023-11-14 13:08:38.488559
2148  2023-11-14 13:08:38.520471
2149  2023-11-14 13:08:38.552388
2150  2023-11-14 13:08:38.584269
2151  2023-11-14 13:08:38.616183
2152  2023-11-14 13:08:38.648141
2153  2023-11-14 13:08:38.681049
2154  2023-11-14 13:08:38.727919
2155  2023-11-14 13:08:38.760827
2156  2023-11-14 13:08:38.791753
2157  2023-11-14 13:08:38.824673
2158  2023-11-14 13:08:38.856540
2159  2023-11-14 13:08:38.888456
2160  2023-11-14 13:08:38.920409
2161  2023-11-14 13:08:38.952317
2162  2023-11-14 13:08:38.984203
2163  2023-11-14 13:08:39.016147
2164  2023-11-14 13:08:39.048061
2165  2023-11-14 13:08:39.079977
2166  2023-11-14 13:08:39.127851
2167  2023-11-14 13:08:39.159765
2168  2023-11-14 13:08:39.192674
2169  2023-11-14 13:08:39.224583
2170  2023-11-14 13:08:39.256471
2171  2023-11-14 13:08:39.288418
2172  2023-11-14 13:08:39.320333
2173  2023-11-14 13:08:39.352108
2174  2023-11-14 13:08:39.384056
2175  2023-11-14 13:08:39.415970
2176  2023-11-14 13:08:39.447915
2177  2023-11-14 13:08:39.479840
2178  2023-11-14 13:08:39.527707
2179  2023-11-14 13:08:39.560627
2180  2023-11-14 13:08:39.592531
2181  2023-11-14 13:08:39.624451
2182  2023-11-14 13:08:39.656328
2183  2023-11-14 13:08:39.688279
2184  2023-11-14 13:08:39.720290
2185  2023-11-14 13:08:39.752205
2186  2023-11-14 13:08:39.784121
2187  2023-11-14 13:08:39.816035
2188  2023-11-14 13:08:39.847982
2189  2023-11-14 13:08:39.880862
2190  2023-11-14 13:08:39.928737
2191  2023-11-14 13:08:39.960683
2192  2023-11-14 13:08:39.992613
2193  2023-11-14 13:08:40.024509
2194  2023-11-14 13:08:40.056423
2195  2023-11-14 13:08:40.088337
2196  2023-11-14 13:08:40.120305
2197  2023-11-14 13:08:40.152252
2198  2023-11-14 13:08:40.184175
2199  2023-11-14 13:08:40.216080
2200  2023-11-14 13:08:40.247995
2201  2023-11-14 13:08:40.280007
2202  2023-11-14 13:08:40.327916
2203  2023-11-14 13:08:40.359838
2204  2023-11-14 13:08:40.392752
2205  2023-11-14 13:08:40.424649
2206  2023-11-14 13:08:40.456536
2207  2023-11-14 13:08:40.488451
2208  2023-11-14 13:08:40.520397
2209  2023-11-14 13:08:40.552311
2210  2023-11-14 13:08:40.584195
2211  2023-11-14 13:08:40.616110
2212  2023-11-14 13:08:40.648059
2213  2023-11-14 13:08:40.679974
2214  2023-11-14 13:08:40.727846
2215  2023-11-14 13:08:40.759766
2216  2023-11-14 13:08:40.792671
2217  2023-11-14 13:08:40.824589
2218  2023-11-14 13:08:40.856507
2219  2023-11-14 13:08:40.888413
2220  2023-11-14 13:08:40.920297
2221  2023-11-14 13:08:40.952211
2222  2023-11-14 13:08:40.984126
2223  2023-11-14 13:08:41.016040
2224  2023-11-14 13:08:41.047955
2225  2023-11-14 13:08:41.079870
2226  2023-11-14 13:08:41.128766
2227  2023-11-14 13:08:41.159693
2228  2023-11-14 13:08:41.192618
2229  2023-11-14 13:08:41.224518
2230  2023-11-14 13:08:41.256399
2231  2023-11-14 13:08:41.288312
2232  2023-11-14 13:08:41.320227
2233  2023-11-14 13:08:41.352178
2234  2023-11-14 13:08:41.384091
2235  2023-11-14 13:08:41.415971
2236  2023-11-14 13:08:41.447886
2237  2023-11-14 13:08:41.479836
2238  2023-11-14 13:08:41.527709
2239  2023-11-14 13:08:41.559697
2240  2023-11-14 13:08:41.592668
2241  2023-11-14 13:08:41.624581
2242  2023-11-14 13:08:41.656450
2243  2023-11-14 13:08:41.688365
2244  2023-11-14 13:08:41.720280
2245  2023-11-14 13:08:41.752194
2246  2023-11-14 13:08:41.784109
2247  2023-11-14 13:08:41.816023
2248  2023-11-14 13:08:41.847938
2249  2023-11-14 13:08:41.879853
2250  2023-11-14 13:08:41.927764
2251  2023-11-14 13:08:41.960677
2252  2023-11-14 13:08:41.992592
2253  2023-11-14 13:08:42.024500
2254  2023-11-14 13:08:42.056381
2255  2023-11-14 13:08:42.088296
2256  2023-11-14 13:08:42.120210
2257  2023-11-14 13:08:42.152125
2258  2023-11-14 13:08:42.184044
2259  2023-11-14 13:08:42.215954
2260  2023-11-14 13:08:42.247869
2261  2023-11-14 13:08:42.295774
2262  2023-11-14 13:08:42.328688
2263  2023-11-14 13:08:42.360601
2264  2023-11-14 13:08:42.392516
2265  2023-11-14 13:08:42.424429
2266  2023-11-14 13:08:42.456312
2267  2023-11-14 13:08:42.488226
2268  2023-11-14 13:08:42.520141
2269  2023-11-14 13:08:42.552056
2270  2023-11-14 13:08:42.583970
2271  2023-11-14 13:08:42.615934
2272  2023-11-14 13:08:42.647914
2273  2023-11-14 13:08:42.695823
2274  2023-11-14 13:08:42.727731
2275  2023-11-14 13:08:42.760664
2276  2023-11-14 13:08:42.792542
2277  2023-11-14 13:08:42.824476
2278  2023-11-14 13:08:42.856357
2279  2023-11-14 13:08:42.888272
2280  2023-11-14 13:08:42.920186
2281  2023-11-14 13:08:42.952101
2282  2023-11-14 13:08:42.984030
2283  2023-11-14 13:08:43.016929
2284  2023-11-14 13:08:43.047852
2285  2023-11-14 13:08:43.096716
2286  2023-11-14 13:08:43.128684
2287  2023-11-14 13:08:43.160576
2288  2023-11-14 13:08:43.192490
2289  2023-11-14 13:08:43.224415
2290  2023-11-14 13:08:43.256288
2291  2023-11-14 13:08:43.288202
2292  2023-11-14 13:08:43.320117
2293  2023-11-14 13:08:43.352062
2294  2023-11-14 13:08:43.383979
2295  2023-11-14 13:08:43.415861
2296  2023-11-14 13:08:43.447776
2297  2023-11-14 13:08:43.496678
2298  2023-11-14 13:08:43.528595
2299  2023-11-14 13:08:43.560505
2300  2023-11-14 13:08:43.592450
2301  2023-11-14 13:08:43.624342
2302  2023-11-14 13:08:43.656219
2303  2023-11-14 13:08:43.688178
2304  2023-11-14 13:08:43.720114
2305  2023-11-14 13:08:43.751963
2306  2023-11-14 13:08:43.783877
2307  2023-11-14 13:08:43.815824
2308  2023-11-14 13:08:43.847739
2309  2023-11-14 13:08:43.896610
2310  2023-11-14 13:08:43.928530
2311  2023-11-14 13:08:43.960442
2312  2023-11-14 13:08:43.992351
2313  2023-11-14 13:08:44.024271
2314  2023-11-14 13:08:44.056149
2315  2023-11-14 13:08:44.088064
2316  2023-11-14 13:08:44.119979
2317  2023-11-14 13:08:44.151893
2318  2023-11-14 13:08:44.183808
2319  2023-11-14 13:08:44.215723
2320  2023-11-14 13:08:44.248635
2321  2023-11-14 13:08:44.296540
2322  2023-11-14 13:08:44.328453
2323  2023-11-14 13:08:44.360377
2324  2023-11-14 13:08:44.392283
2325  2023-11-14 13:08:44.424197
2326  2023-11-14 13:08:44.456080
2327  2023-11-14 13:08:44.487995
2328  2023-11-14 13:08:44.519910
2329  2023-11-14 13:08:44.552854
2330  2023-11-14 13:08:44.583739
2331  2023-11-14 13:08:44.616651
2332  2023-11-14 13:08:44.648566
2333  2023-11-14 13:08:44.696469
2334  2023-11-14 13:08:44.728355
2335  2023-11-14 13:08:44.760269
2336  2023-11-14 13:08:44.792219
2337  2023-11-14 13:08:44.824130
2338  2023-11-14 13:08:44.856011
2339  2023-11-14 13:08:44.887956
2340  2023-11-14 13:08:44.919840
2341  2023-11-14 13:08:44.951755
2342  2023-11-14 13:08:44.983670
2343  2023-11-14 13:08:45.016614
2344  2023-11-14 13:08:45.048617
2345  2023-11-14 13:08:45.096525
2346  2023-11-14 13:08:45.128437
2347  2023-11-14 13:08:45.160370
2348  2023-11-14 13:08:45.192266
2349  2023-11-14 13:08:45.224183
2350  2023-11-14 13:08:45.256062
2351  2023-11-14 13:08:45.287977
2352  2023-11-14 13:08:45.319892
2353  2023-11-14 13:08:45.351806
2354  2023-11-14 13:08:45.384718
2355  2023-11-14 13:08:45.416704
2356  2023-11-14 13:08:45.448618
2357  2023-11-14 13:08:45.496531
2358  2023-11-14 13:08:45.528438
2359  2023-11-14 13:08:45.560371
2360  2023-11-14 13:08:45.592268
2361  2023-11-14 13:08:45.624198
2362  2023-11-14 13:08:45.656064
2363  2023-11-14 13:08:45.687979
2364  2023-11-14 13:08:45.720891
2365  2023-11-14 13:08:45.751808
2366  2023-11-14 13:08:45.783723
2367  2023-11-14 13:08:45.816635
2368  2023-11-14 13:08:45.864559
2369  2023-11-14 13:08:45.896462
2370  2023-11-14 13:08:45.928367
2371  2023-11-14 13:08:45.960289
2372  2023-11-14 13:08:45.992208
2373  2023-11-14 13:08:46.024123
2374  2023-11-14 13:08:46.056151
2375  2023-11-14 13:08:46.088032
2376  2023-11-14 13:08:46.119926
2377  2023-11-14 13:08:46.151862
2378  2023-11-14 13:08:46.183817
2379  2023-11-14 13:08:46.215771
2380  2023-11-14 13:08:46.264601
2381  2023-11-14 13:08:46.296552
2382  2023-11-14 13:08:46.328460
2383  2023-11-14 13:08:46.360376
2384  2023-11-14 13:08:46.392259
2385  2023-11-14 13:08:46.424220
2386  2023-11-14 13:08:46.456088
2387  2023-11-14 13:08:46.488003
2388  2023-11-14 13:08:46.519969
2389  2023-11-14 13:08:46.551868
2390  2023-11-14 13:08:46.583747
2391  2023-11-14 13:08:46.615662
2392  2023-11-14 13:08:46.664575
2393  2023-11-14 13:08:46.696487
2394  2023-11-14 13:08:46.728395
2395  2023-11-14 13:08:46.760321
2396  2023-11-14 13:08:46.792222
2397  2023-11-14 13:08:46.824196
2398  2023-11-14 13:08:46.856210
2399  2023-11-14 13:08:46.888109
2400  2023-11-14 13:08:46.919977
2401  2023-11-14 13:08:46.951892
2402  2023-11-14 13:08:46.983807
2403  2023-11-14 13:08:47.015757
2404  2023-11-14 13:08:47.064628
2405  2023-11-14 13:08:47.096538
2406  2023-11-14 13:08:47.128452
2407  2023-11-14 13:08:47.160370
2408  2023-11-14 13:08:47.192292
2409  2023-11-14 13:08:47.224201
2410  2023-11-14 13:08:47.256079
2411  2023-11-14 13:08:47.287994
2412  2023-11-14 13:08:47.319908
2413  2023-11-14 13:08:47.351823
2414  2023-11-14 13:08:47.383738
2415  2023-11-14 13:08:47.416650
2416  2023-11-14 13:08:47.464556
2417  2023-11-14 13:08:47.496474
2418  2023-11-14 13:08:47.528388
2419  2023-11-14 13:08:47.560310
2420  2023-11-14 13:08:47.592307
2421  2023-11-14 13:08:47.624232
2422  2023-11-14 13:08:47.656245
2423  2023-11-14 13:08:47.688018
2424  2023-11-14 13:08:47.720930
2425  2023-11-14 13:08:47.752340
2426  2023-11-14 13:08:47.784285
2427  2023-11-14 13:08:47.816169
2428  2023-11-14 13:08:47.864208
2429  2023-11-14 13:08:47.896119
2430  2023-11-14 13:08:47.928050
2431  2023-11-14 13:08:47.959962
2432  2023-11-14 13:08:47.991862
2433  2023-11-14 13:08:48.023846
2434  2023-11-14 13:08:48.055856
2435  2023-11-14 13:08:48.087831
2436  2023-11-14 13:08:48.119730
2437  2023-11-14 13:08:48.152633
2438  2023-11-14 13:08:48.184629
2439  2023-11-14 13:08:48.216584
2440  2023-11-14 13:08:48.264501
2441  2023-11-14 13:08:48.296510
2442  2023-11-14 13:08:48.328453
2443  2023-11-14 13:08:48.360381
2444  2023-11-14 13:08:48.392363
2445  2023-11-14 13:08:48.424284
2446  2023-11-14 13:08:48.456166
2447  2023-11-14 13:08:48.488076
2448  2023-11-14 13:08:48.519991
2449  2023-11-14 13:08:48.551906
2450  2023-11-14 13:08:48.583820
2451  2023-11-14 13:08:48.615735
2452  2023-11-14 13:08:48.664637
2453  2023-11-14 13:08:48.696550
2454  2023-11-14 13:08:48.728465
2455  2023-11-14 13:08:48.760379
2456  2023-11-14 13:08:48.792299
2457  2023-11-14 13:08:48.824212
2458  2023-11-14 13:08:48.856099
2459  2023-11-14 13:08:48.888007
2460  2023-11-14 13:08:48.920920
2461  2023-11-14 13:08:48.951837
2462  2023-11-14 13:08:48.983864
2463  2023-11-14 13:08:49.016777
2464  2023-11-14 13:08:49.064690
2465  2023-11-14 13:08:49.096565
2466  2023-11-14 13:08:49.128525
2467  2023-11-14 13:08:49.160424
2468  2023-11-14 13:08:49.192338
2469  2023-11-14 13:08:49.224264
2470  2023-11-14 13:08:49.256139
2471  2023-11-14 13:08:49.288051
2472  2023-11-14 13:08:49.319968
2473  2023-11-14 13:08:49.351883
2474  2023-11-14 13:08:49.384794
2475  2023-11-14 13:08:49.416707
2476  2023-11-14 13:08:49.465610
2477  2023-11-14 13:08:49.496522
2478  2023-11-14 13:08:49.528441
2479  2023-11-14 13:08:49.560356
2480  2023-11-14 13:08:49.592240
2481  2023-11-14 13:08:49.624200
2482  2023-11-14 13:08:49.656067
2483  2023-11-14 13:08:49.688056
2484  2023-11-14 13:08:49.720009
2485  2023-11-14 13:08:49.751984
2486  2023-11-14 13:08:49.783898
2487  2023-11-14 13:08:49.831825
2488  2023-11-14 13:08:49.863824
2489  2023-11-14 13:08:49.896700
2490  2023-11-14 13:08:49.928646
2491  2023-11-14 13:08:49.960559
2492  2023-11-14 13:08:49.992477
2493  2023-11-14 13:08:50.024390
2494  2023-11-14 13:08:50.056308
2495  2023-11-14 13:08:50.088187
2496  2023-11-14 13:08:50.120182
2497  2023-11-14 13:08:50.152156
2498  2023-11-14 13:08:50.184096
2499  2023-11-14 13:08:50.231978
2500  2023-11-14 13:08:50.263898
2501  2023-11-14 13:08:50.295906
2502  2023-11-14 13:08:50.327809
2503  2023-11-14 13:08:50.359725
2504  2023-11-14 13:08:50.392644
2505  2023-11-14 13:08:50.424684
2506  2023-11-14 13:08:50.456654
2507  2023-11-14 13:08:50.488569
2508  2023-11-14 13:08:50.520483
2509  2023-11-14 13:08:50.552398
2510  2023-11-14 13:08:50.584313
2511  2023-11-14 13:08:50.632215
2512  2023-11-14 13:08:50.664135
2513  2023-11-14 13:08:50.696059
2514  2023-11-14 13:08:50.727965
2515  2023-11-14 13:08:50.760875
2516  2023-11-14 13:08:50.791794
2517  2023-11-14 13:08:50.823704
2518  2023-11-14 13:08:50.856585
2519  2023-11-14 13:08:50.888500
2520  2023-11-14 13:08:50.920455
2521  2023-11-14 13:08:50.952359
2522  2023-11-14 13:08:50.984320
2523  2023-11-14 13:08:51.032224
2524  2023-11-14 13:08:51.064144
2525  2023-11-14 13:08:51.096055
2526  2023-11-14 13:08:51.127969
2527  2023-11-14 13:08:51.159888
2528  2023-11-14 13:08:51.191800
2529  2023-11-14 13:08:51.224712
2530  2023-11-14 13:08:51.256591
2531  2023-11-14 13:08:51.288550
2532  2023-11-14 13:08:51.320541
2533  2023-11-14 13:08:51.352486
2534  2023-11-14 13:08:51.384401
2535  2023-11-14 13:08:51.432306
2536  2023-11-14 13:08:51.464273
2537  2023-11-14 13:08:51.496240
2538  2023-11-14 13:08:51.528135
2539  2023-11-14 13:08:51.560051
2540  2023-11-14 13:08:51.591962
2541  2023-11-14 13:08:51.623882
2542  2023-11-14 13:08:51.655759
2543  2023-11-14 13:08:51.687712
2544  2023-11-14 13:08:51.720597
2545  2023-11-14 13:08:51.752500
2546  2023-11-14 13:08:51.784415
2547  2023-11-14 13:08:51.832322
2548  2023-11-14 13:08:51.864244
2549  2023-11-14 13:08:51.896157
2550  2023-11-14 13:08:51.928064
2551  2023-11-14 13:08:51.959982
2552  2023-11-14 13:08:51.991896
2553  2023-11-14 13:08:52.023813
2554  2023-11-14 13:08:52.055690
2555  2023-11-14 13:08:52.088602
2556  2023-11-14 13:08:52.120516
2557  2023-11-14 13:08:52.152431
2558  2023-11-14 13:08:52.184346
2559  2023-11-14 13:08:52.232251
2560  2023-11-14 13:08:52.264171
2561  2023-11-14 13:08:52.296082
2562  2023-11-14 13:08:52.328000
2563  2023-11-14 13:08:52.359912
2564  2023-11-14 13:08:52.391945
2565  2023-11-14 13:08:52.423874
2566  2023-11-14 13:08:52.455741
2567  2023-11-14 13:08:52.487885
2568  2023-11-14 13:08:52.519800
2569  2023-11-14 13:08:52.551796
2570  2023-11-14 13:08:52.584708
2571  2023-11-14 13:08:52.632581
2572  2023-11-14 13:08:52.664540
2573  2023-11-14 13:08:52.696540
2574  2023-11-14 13:08:52.728576
2575  2023-11-14 13:08:52.760487
2576  2023-11-14 13:08:52.792406
2577  2023-11-14 13:08:52.824315
2578  2023-11-14 13:08:52.856335
2579  2023-11-14 13:08:52.888250
2580  2023-11-14 13:08:52.920164
2581  2023-11-14 13:08:52.952079
2582  2023-11-14 13:08:52.983994
2583  2023-11-14 13:08:53.031911
2584  2023-11-14 13:08:53.063791
2585  2023-11-14 13:08:53.096788
2586  2023-11-14 13:08:53.128689
2587  2023-11-14 13:08:53.159687
2588  2023-11-14 13:08:53.191704
2589  2023-11-14 13:08:53.224574
2590  2023-11-14 13:08:53.256496
2591  2023-11-14 13:08:53.288402
2592  2023-11-14 13:08:53.320322
2593  2023-11-14 13:08:53.352233
2594  2023-11-14 13:08:53.400146
2595  2023-11-14 13:08:53.433045
2596  2023-11-14 13:08:53.464955
2597  2023-11-14 13:08:53.497875
2598  2023-11-14 13:08:53.527803
2599  2023-11-14 13:08:53.560736
2600  2023-11-14 13:08:53.593628
2601  2023-11-14 13:08:53.625551
2602  2023-11-14 13:08:53.657448
2603  2023-11-14 13:08:53.689365
2604  2023-11-14 13:08:53.721290
2605  2023-11-14 13:08:53.753287
2606  2023-11-14 13:08:53.801144
2607  2023-11-14 13:08:53.833058
2608  2023-11-14 13:08:53.864988
2609  2023-11-14 13:08:53.897890
2610  2023-11-14 13:08:53.928818
2611  2023-11-14 13:08:53.960811
2612  2023-11-14 13:08:53.992735
2613  2023-11-14 13:08:54.024636
2614  2023-11-14 13:08:54.057690
2615  2023-11-14 13:08:54.089558
2616  2023-11-14 13:08:54.121472
2617  2023-11-14 13:08:54.153433
2618  2023-11-14 13:08:54.201293
2619  2023-11-14 13:08:54.233253
2620  2023-11-14 13:08:54.265218
2621  2023-11-14 13:08:54.297119
2622  2023-11-14 13:08:54.329036
2623  2023-11-14 13:08:54.360950
2624  2023-11-14 13:08:54.393002
2625  2023-11-14 13:08:54.424865
2626  2023-11-14 13:08:54.456824
2627  2023-11-14 13:08:54.488732
2628  2023-11-14 13:08:54.521614
2629  2023-11-14 13:08:54.553574
2630  2023-11-14 13:08:54.601479
2631  2023-11-14 13:08:54.633402
2632  2023-11-14 13:08:54.665304
2633  2023-11-14 13:08:54.697243
2634  2023-11-14 13:08:54.729133
2635  2023-11-14 13:08:54.761047
2636  2023-11-14 13:08:54.792960
2637  2023-11-14 13:08:54.824993
2638  2023-11-14 13:08:54.857038
2639  2023-11-14 13:08:54.888952
2640  2023-11-14 13:08:54.920866
2641  2023-11-14 13:08:54.952779
2642  2023-11-14 13:08:55.000670
2643  2023-11-14 13:08:55.032595
2644  2023-11-14 13:08:55.064482
2645  2023-11-14 13:08:55.096401
2646  2023-11-14 13:08:55.128312
2647  2023-11-14 13:08:55.160226
2648  2023-11-14 13:08:55.193138
2649  2023-11-14 13:08:55.225053
2650  2023-11-14 13:08:55.256950
2651  2023-11-14 13:08:55.287853
2652  2023-11-14 13:08:55.320797
2653  2023-11-14 13:08:55.352720
2654  2023-11-14 13:08:55.400590
2655  2023-11-14 13:08:55.432501
2656  2023-11-14 13:08:55.464413
2657  2023-11-14 13:08:55.496328
2658  2023-11-14 13:08:55.528259
2659  2023-11-14 13:08:55.560169
2660  2023-11-14 13:08:55.592071
2661  2023-11-14 13:08:55.624002
2662  2023-11-14 13:08:55.655973
2663  2023-11-14 13:08:55.687840
2664  2023-11-14 13:08:55.719803
2665  2023-11-14 13:08:55.752751
2666  2023-11-14 13:08:55.800700
2667  2023-11-14 13:08:55.832613
2668  2023-11-14 13:08:55.864676
2669  2023-11-14 13:08:55.896569
2670  2023-11-14 13:08:55.928613
2671  2023-11-14 13:08:55.960532
2672  2023-11-14 13:08:55.992441
2673  2023-11-14 13:08:56.024362
2674  2023-11-14 13:08:56.056272
2675  2023-11-14 13:08:56.088199
2676  2023-11-14 13:08:56.121299
2677  2023-11-14 13:08:56.152204
2678  2023-11-14 13:08:56.200082
2679  2023-11-14 13:08:56.233003
2680  2023-11-14 13:08:56.264947
2681  2023-11-14 13:08:56.297905
2682  2023-11-14 13:08:56.327888
2683  2023-11-14 13:08:56.359836
2684  2023-11-14 13:08:56.392770
2685  2023-11-14 13:08:56.424655
2686  2023-11-14 13:08:56.456543
2687  2023-11-14 13:08:56.488459
2688  2023-11-14 13:08:56.520372
2689  2023-11-14 13:08:56.552322
2690  2023-11-14 13:08:56.600192
2691  2023-11-14 13:08:56.632116
2692  2023-11-14 13:08:56.664036
2693  2023-11-14 13:08:56.695950
2694  2023-11-14 13:08:56.728846
2695  2023-11-14 13:08:56.761769
2696  2023-11-14 13:08:56.792728
2697  2023-11-14 13:08:56.825680
2698  2023-11-14 13:08:56.857583
2699  2023-11-14 13:08:56.888550
2700  2023-11-14 13:08:56.920465
2701  2023-11-14 13:08:56.953376
2702  2023-11-14 13:08:57.000358
2703  2023-11-14 13:08:57.032389
2704  2023-11-14 13:08:57.064378
2705  2023-11-14 13:08:57.097295
2706  2023-11-14 13:08:57.128243
2707  2023-11-14 13:08:57.160145
2708  2023-11-14 13:08:57.193046
2709  2023-11-14 13:08:57.223955
2710  2023-11-14 13:08:57.256865
2711  2023-11-14 13:08:57.288750
2712  2023-11-14 13:08:57.320662
2713  2023-11-14 13:08:57.368564
2714  2023-11-14 13:08:57.400494
2715  2023-11-14 13:08:57.432458
2716  2023-11-14 13:08:57.464373
2717  2023-11-14 13:08:57.497327
2718  2023-11-14 13:08:57.528250
2719  2023-11-14 13:08:57.560195
2720  2023-11-14 13:08:57.592231
2721  2023-11-14 13:08:57.625147
2722  2023-11-14 13:08:57.657070
2723  2023-11-14 13:08:57.688043
2724  2023-11-14 13:08:57.720092
2725  2023-11-14 13:08:57.768033
2726  2023-11-14 13:08:57.799966
2727  2023-11-14 13:08:57.833873
2728  2023-11-14 13:08:57.864748
2729  2023-11-14 13:08:57.897687
2730  2023-11-14 13:08:57.928618
2731  2023-11-14 13:08:57.960536
2732  2023-11-14 13:08:57.993456
2733  2023-11-14 13:08:58.025497
2734  2023-11-14 13:08:58.056276
2735  2023-11-14 13:08:58.088147
2736  2023-11-14 13:08:58.120178
2737  2023-11-14 13:08:58.168151
2738  2023-11-14 13:08:58.200066
2739  2023-11-14 13:08:58.232941
2740  2023-11-14 13:08:58.263902
2741  2023-11-14 13:08:58.296800
2742  2023-11-14 13:08:58.328683
2743  2023-11-14 13:08:58.360631
2744  2023-11-14 13:08:58.392512
2745  2023-11-14 13:08:58.425452
2746  2023-11-14 13:08:58.456492
2747  2023-11-14 13:08:58.488519
2748  2023-11-14 13:08:58.520469
2749  2023-11-14 13:08:58.568357
2750  2023-11-14 13:08:58.600223
2751  2023-11-14 13:08:58.633181
2752  2023-11-14 13:08:58.665102
2753  2023-11-14 13:08:58.697050
2754  2023-11-14 13:08:58.727980
2755  2023-11-14 13:08:58.759841
2756  2023-11-14 13:08:58.792752
2757  2023-11-14 13:08:58.825723
2758  2023-11-14 13:08:58.856640
2759  2023-11-14 13:08:58.888668
2760  2023-11-14 13:08:58.920547
2761  2023-11-14 13:08:58.968465
2762  2023-11-14 13:08:59.000336
2763  2023-11-14 13:08:59.033435
2764  2023-11-14 13:08:59.065350
2765  2023-11-14 13:08:59.097281
2766  2023-11-14 13:08:59.128195
2767  2023-11-14 13:08:59.160126
2768  2023-11-14 13:08:59.193011
2769  2023-11-14 13:08:59.224929
2770  2023-11-14 13:08:59.255811
2771  2023-11-14 13:08:59.287761
2772  2023-11-14 13:08:59.320670
2773  2023-11-14 13:08:59.368579
2774  2023-11-14 13:08:59.400496
2775  2023-11-14 13:08:59.432404
2776  2023-11-14 13:08:59.465320
2777  2023-11-14 13:08:59.497229
2778  2023-11-14 13:08:59.528167
2779  2023-11-14 13:08:59.560077
2780  2023-11-14 13:08:59.593979
2781  2023-11-14 13:08:59.624898
2782  2023-11-14 13:08:59.656803
2783  2023-11-14 13:08:59.688724
2784  2023-11-14 13:08:59.720667
2785  2023-11-14 13:08:59.768499
2786  2023-11-14 13:08:59.800389
2787  2023-11-14 13:08:59.832343
2788  2023-11-14 13:08:59.865248
2789  2023-11-14 13:08:59.897169
2790  2023-11-14 13:08:59.928108
2791  2023-11-14 13:08:59.959994
2792  2023-11-14 13:08:59.991911
2793  2023-11-14 13:09:00.024822
2794  2023-11-14 13:09:00.056736
2795  2023-11-14 13:09:00.088659
2796  2023-11-14 13:09:00.120532
2797  2023-11-14 13:09:00.168446
2798  2023-11-14 13:09:00.200359
2799  2023-11-14 13:09:00.233271
2800  2023-11-14 13:09:00.264181
2801  2023-11-14 13:09:00.296104
2802  2023-11-14 13:09:00.327979
2803  2023-11-14 13:09:00.359932
2804  2023-11-14 13:09:00.392848
2805  2023-11-14 13:09:00.424756
2806  2023-11-14 13:09:00.456634
2807  2023-11-14 13:09:00.488581
2808  2023-11-14 13:09:00.520493
2809  2023-11-14 13:09:00.568368
2810  2023-11-14 13:09:00.601291
2811  2023-11-14 13:09:00.633172
2812  2023-11-14 13:09:00.665129
2813  2023-11-14 13:09:00.697031
2814  2023-11-14 13:09:00.728907
2815  2023-11-14 13:09:00.760823
2816  2023-11-14 13:09:00.792766
2817  2023-11-14 13:09:00.824680
2818  2023-11-14 13:09:00.856597
2819  2023-11-14 13:09:00.888510
2820  2023-11-14 13:09:00.936386
2821  2023-11-14 13:09:00.968296
2822  2023-11-14 13:09:01.000216
2823  2023-11-14 13:09:01.032141
2824  2023-11-14 13:09:01.065043
2825  2023-11-14 13:09:01.096946
2826  2023-11-14 13:09:01.127840
2827  2023-11-14 13:09:01.159790
2828  2023-11-14 13:09:01.192719
2829  2023-11-14 13:09:01.224614
2830  2023-11-14 13:09:01.256531
2831  2023-11-14 13:09:01.288409
2832  2023-11-14 13:09:01.337304
2833  2023-11-14 13:09:01.368199
2834  2023-11-14 13:09:01.400146
2835  2023-11-14 13:09:01.433024
2836  2023-11-14 13:09:01.465953
2837  2023-11-14 13:09:01.496966
2838  2023-11-14 13:09:01.528862
2839  2023-11-14 13:09:01.559783
2840  2023-11-14 13:09:01.592704
2841  2023-11-14 13:09:01.624644
2842  2023-11-14 13:09:01.656523
2843  2023-11-14 13:09:01.688436
2844  2023-11-14 13:09:01.736308
2845  2023-11-14 13:09:01.770214
2846  2023-11-14 13:09:01.800248
2847  2023-11-14 13:09:01.833168
2848  2023-11-14 13:09:01.865071
2849  2023-11-14 13:09:01.896991
2850  2023-11-14 13:09:01.928901
2851  2023-11-14 13:09:01.959833
2852  2023-11-14 13:09:01.992705
2853  2023-11-14 13:09:02.024615
2854  2023-11-14 13:09:02.056530
2855  2023-11-14 13:09:02.088443
2856  2023-11-14 13:09:02.137368
2857  2023-11-14 13:09:02.169275
2858  2023-11-14 13:09:02.200221
2859  2023-11-14 13:09:02.232210
2860  2023-11-14 13:09:02.264228
2861  2023-11-14 13:09:02.296129
2862  2023-11-14 13:09:02.328037
2863  2023-11-14 13:09:02.359955
2864  2023-11-14 13:09:02.391866
2865  2023-11-14 13:09:02.424751
2866  2023-11-14 13:09:02.456695
2867  2023-11-14 13:09:02.488608
2868  2023-11-14 13:09:02.536447
2869  2023-11-14 13:09:02.568396
2870  2023-11-14 13:09:02.600278
2871  2023-11-14 13:09:02.632192
2872  2023-11-14 13:09:02.665138
2873  2023-11-14 13:09:02.696051
2874  2023-11-14 13:09:02.728968
2875  2023-11-14 13:09:02.760859
2876  2023-11-14 13:09:02.791804
2877  2023-11-14 13:09:02.824886
2878  2023-11-14 13:09:02.855896
2879  2023-11-14 13:09:02.888826
2880  2023-11-14 13:09:02.936682
2881  2023-11-14 13:09:02.968601
2882  2023-11-14 13:09:03.000510
2883  2023-11-14 13:09:03.032428
2884  2023-11-14 13:09:03.064305
2885  2023-11-14 13:09:03.096250
2886  2023-11-14 13:09:03.128169
2887  2023-11-14 13:09:03.160082
2888  2023-11-14 13:09:03.191987
2889  2023-11-14 13:09:03.223910
2890  2023-11-14 13:09:03.255841
2891  2023-11-14 13:09:03.287738
2892  2023-11-14 13:09:03.336604
2893  2023-11-14 13:09:03.368500
2894  2023-11-14 13:09:03.400458
2895  2023-11-14 13:09:03.432467
2896  2023-11-14 13:09:03.464386
2897  2023-11-14 13:09:03.496296
2898  2023-11-14 13:09:03.528208
2899  2023-11-14 13:09:03.560145
2900  2023-11-14 13:09:03.592053
2901  2023-11-14 13:09:03.623952
2902  2023-11-14 13:09:03.656088
2903  2023-11-14 13:09:03.688001
2904  2023-11-14 13:09:03.735882
2905  2023-11-14 13:09:03.768792
2906  2023-11-14 13:09:03.800703
2907  2023-11-14 13:09:03.832623
2908  2023-11-14 13:09:03.864529
2909  2023-11-14 13:09:03.896446
2910  2023-11-14 13:09:03.928330
2911  2023-11-14 13:09:03.960282
2912  2023-11-14 13:09:03.992196
2913  2023-11-14 13:09:04.024121
2914  2023-11-14 13:09:04.056026
2915  2023-11-14 13:09:04.088090
2916  2023-11-14 13:09:04.136083
2917  2023-11-14 13:09:04.167970
2918  2023-11-14 13:09:04.199891
2919  2023-11-14 13:09:04.232797
2920  2023-11-14 13:09:04.264724
2921  2023-11-14 13:09:04.296653
2922  2023-11-14 13:09:04.328542
2923  2023-11-14 13:09:04.360482
2924  2023-11-14 13:09:04.392470
2925  2023-11-14 13:09:04.424380
2926  2023-11-14 13:09:04.456301
2927  2023-11-14 13:09:04.488261
2928  2023-11-14 13:09:04.536206
2929  2023-11-14 13:09:04.568124
2930  2023-11-14 13:09:04.600009
2931  2023-11-14 13:09:04.631918
2932  2023-11-14 13:09:04.663864
2933  2023-11-14 13:09:04.696756
2934  2023-11-14 13:09:04.728693
2935  2023-11-14 13:09:04.760606
2936  2023-11-14 13:09:04.792521
2937  2023-11-14 13:09:04.824505
2938  2023-11-14 13:09:04.856392
2939  2023-11-14 13:09:04.904268
2940  2023-11-14 13:09:04.936149
2941  2023-11-14 13:09:04.969092
2942  2023-11-14 13:09:05.000023
2943  2023-11-14 13:09:05.031928
2944  2023-11-14 13:09:05.063837
2945  2023-11-14 13:09:05.096718
2946  2023-11-14 13:09:05.128668
2947  2023-11-14 13:09:05.160580
2948  2023-11-14 13:09:05.192494
2949  2023-11-14 13:09:05.224411
2950  2023-11-14 13:09:05.256334
2951  2023-11-14 13:09:05.304198
2952  2023-11-14 13:09:05.336134
2953  2023-11-14 13:09:05.368034
2954  2023-11-14 13:09:05.399939
2955  2023-11-14 13:09:05.432821
2956  2023-11-14 13:09:05.465770
2957  2023-11-14 13:09:05.496649
2958  2023-11-14 13:09:05.528598
2959  2023-11-14 13:09:05.560512
2960  2023-11-14 13:09:05.592429
2961  2023-11-14 13:09:05.624340
2962  2023-11-14 13:09:05.656255
2963  2023-11-14 13:09:05.704133
2964  2023-11-14 13:09:05.737040
2965  2023-11-14 13:09:05.768922
2966  2023-11-14 13:09:05.799890
2967  2023-11-14 13:09:05.831784
2968  2023-11-14 13:09:05.864698
2969  2023-11-14 13:09:05.896615
2970  2023-11-14 13:09:05.928528
2971  2023-11-14 13:09:05.960444
2972  2023-11-14 13:09:05.992359
2973  2023-11-14 13:09:06.024272
2974  2023-11-14 13:09:06.056200
2975  2023-11-14 13:09:06.104062
2976  2023-11-14 13:09:06.135973
2977  2023-11-14 13:09:06.168852
2978  2023-11-14 13:09:06.200767
2979  2023-11-14 13:09:06.231716
2980  2023-11-14 13:09:06.264598
2981  2023-11-14 13:09:06.296547
2982  2023-11-14 13:09:06.328625
2983  2023-11-14 13:09:06.360511
2984  2023-11-14 13:09:06.392425
2985  2023-11-14 13:09:06.424369
2986  2023-11-14 13:09:06.456288
2987  2023-11-14 13:09:06.504180
2988  2023-11-14 13:09:06.536073
2989  2023-11-14 13:09:06.567956
2990  2023-11-14 13:09:06.600872
2991  2023-11-14 13:09:06.631816
2992  2023-11-14 13:09:06.663731
2993  2023-11-14 13:09:06.696656
2994  2023-11-14 13:09:06.728528
2995  2023-11-14 13:09:06.760476
2996  2023-11-14 13:09:06.792386
2997  2023-11-14 13:09:06.824300
2998  2023-11-14 13:09:06.856216
2999  2023-11-14 13:09:06.904104
3000  2023-11-14 13:09:06.937002
3001  2023-11-14 13:09:06.968927
3002  2023-11-14 13:09:06.999839
3003  2023-11-14 13:09:07.032766
3004  2023-11-14 13:09:07.064632
3005  2023-11-14 13:09:07.096577
3006  2023-11-14 13:09:07.128492
3007  2023-11-14 13:09:07.160401
3008  2023-11-14 13:09:07.192322
3009  2023-11-14 13:09:07.224235
3010  2023-11-14 13:09:07.256148
3011  2023-11-14 13:09:07.304045
3012  2023-11-14 13:09:07.335937
3013  2023-11-14 13:09:07.368816
3014  2023-11-14 13:09:07.400741
3015  2023-11-14 13:09:07.432646
3016  2023-11-14 13:09:07.465557
3017  2023-11-14 13:09:07.496474
3018  2023-11-14 13:09:07.528388
3019  2023-11-14 13:09:07.560359
3020  2023-11-14 13:09:07.593249
3021  2023-11-14 13:09:07.624180
3022  2023-11-14 13:09:07.656086
3023  2023-11-14 13:09:07.703966
3024  2023-11-14 13:09:07.735867
3025  2023-11-14 13:09:07.768746
3026  2023-11-14 13:09:07.800710
3027  2023-11-14 13:09:07.832655
3028  2023-11-14 13:09:07.863760
3029  2023-11-14 13:09:07.895871
3030  2023-11-14 13:09:07.928751
3031  2023-11-14 13:09:07.960716
3032  2023-11-14 13:09:07.992613
3033  2023-11-14 13:09:08.024527
3034  2023-11-14 13:09:08.056442
3035  2023-11-14 13:09:08.104282
3036  2023-11-14 13:09:08.136195
3037  2023-11-14 13:09:08.168138
3038  2023-11-14 13:09:08.200040
3039  2023-11-14 13:09:08.231977
3040  2023-11-14 13:09:08.264904
3041  2023-11-14 13:09:08.295803
3042  2023-11-14 13:09:08.328681
3043  2023-11-14 13:09:08.360596
3044  2023-11-14 13:09:08.392541
3045  2023-11-14 13:09:08.424458
3046  2023-11-14 13:09:08.472297
3047  2023-11-14 13:09:08.504242
3048  2023-11-14 13:09:08.536160
3049  2023-11-14 13:09:08.568082
3050  2023-11-14 13:09:08.599998
3051  2023-11-14 13:09:08.631954
3052  2023-11-14 13:09:08.663941
3053  2023-11-14 13:09:08.695859
3054  2023-11-14 13:09:08.728771
3055  2023-11-14 13:09:08.760683
3056  2023-11-14 13:09:08.792595
3057  2023-11-14 13:09:08.824510
3058  2023-11-14 13:09:08.872385
3059  2023-11-14 13:09:08.904305
3060  2023-11-14 13:09:08.936215
3061  2023-11-14 13:09:08.968130
3062  2023-11-14 13:09:09.000010
3063  2023-11-14 13:09:09.031961
3064  2023-11-14 13:09:09.063875
3065  2023-11-14 13:09:09.095755
3066  2023-11-14 13:09:09.128801
3067  2023-11-14 13:09:09.159704
3068  2023-11-14 13:09:09.192648
3069  2023-11-14 13:09:09.224699
3070  2023-11-14 13:09:09.272557
3071  2023-11-14 13:09:09.304464
3072  2023-11-14 13:09:09.336385
3073  2023-11-14 13:09:09.368265
3074  2023-11-14 13:09:09.400218
3075  2023-11-14 13:09:09.432126
3076  2023-11-14 13:09:09.465056
3077  2023-11-14 13:09:09.495954
3078  2023-11-14 13:09:09.527838
3079  2023-11-14 13:09:09.560808
3080  2023-11-14 13:09:09.592664
3081  2023-11-14 13:09:09.624612
3082  2023-11-14 13:09:09.672634
3083  2023-11-14 13:09:09.704538
3084  2023-11-14 13:09:09.736510
3085  2023-11-14 13:09:09.768432
3086  2023-11-14 13:09:09.800344
3087  2023-11-14 13:09:09.832288
3088  2023-11-14 13:09:09.864207
3089  2023-11-14 13:09:09.896121
3090  2023-11-14 13:09:09.928032
3091  2023-11-14 13:09:09.959958
3092  2023-11-14 13:09:09.991870
3093  2023-11-14 13:09:10.024756
3094  2023-11-14 13:09:10.071705
3095  2023-11-14 13:09:10.104635
3096  2023-11-14 13:09:10.136537
3097  2023-11-14 13:09:10.168453
3098  2023-11-14 13:09:10.200315
3099  2023-11-14 13:09:10.232192
3100  2023-11-14 13:09:10.264138
3101  2023-11-14 13:09:10.296059
3102  2023-11-14 13:09:10.327976
3103  2023-11-14 13:09:10.359892
3104  2023-11-14 13:09:10.391808
3105  2023-11-14 13:09:10.424710
3106  2023-11-14 13:09:10.472586
3107  2023-11-14 13:09:10.504498
3108  2023-11-14 13:09:10.536419
3109  2023-11-14 13:09:10.568331
3110  2023-11-14 13:09:10.601250
3111  2023-11-14 13:09:10.632198
3112  2023-11-14 13:09:10.664147
3113  2023-11-14 13:09:10.696061
3114  2023-11-14 13:09:10.727991
3115  2023-11-14 13:09:10.760128
3116  2023-11-14 13:09:10.791973
3117  2023-11-14 13:09:10.823887
3118  2023-11-14 13:09:10.871769
3119  2023-11-14 13:09:10.903674
3120  2023-11-14 13:09:10.936590
3121  2023-11-14 13:09:10.968511
3122  2023-11-14 13:09:11.000414
3123  2023-11-14 13:09:11.032485
3124  2023-11-14 13:09:11.064403
3125  2023-11-14 13:09:11.096313
3126  2023-11-14 13:09:11.128229
3127  2023-11-14 13:09:11.160281
3128  2023-11-14 13:09:11.192211
3129  2023-11-14 13:09:11.224110
3130  2023-11-14 13:09:11.271953
3131  2023-11-14 13:09:11.303869
3132  2023-11-14 13:09:11.335817
3133  2023-11-14 13:09:11.367697
3134  2023-11-14 13:09:11.400608
3135  2023-11-14 13:09:11.432556
3136  2023-11-14 13:09:11.464469
3137  2023-11-14 13:09:11.496384
3138  2023-11-14 13:09:11.528301
3139  2023-11-14 13:09:11.560257
3140  2023-11-14 13:09:11.592247
3141  2023-11-14 13:09:11.624182
3142  2023-11-14 13:09:11.672122
3143  2023-11-14 13:09:11.704045
3144  2023-11-14 13:09:11.735959
3145  2023-11-14 13:09:11.767878
3146  2023-11-14 13:09:11.799790
3147  2023-11-14 13:09:11.832662
3148  2023-11-14 13:09:11.864607
3149  2023-11-14 13:09:11.896551
3150  2023-11-14 13:09:11.928583
3151  2023-11-14 13:09:11.960531
3152  2023-11-14 13:09:11.992463
3153  2023-11-14 13:09:12.024326
3154  2023-11-14 13:09:12.072237
3155  2023-11-14 13:09:12.104147
3156  2023-11-14 13:09:12.136037
3157  2023-11-14 13:09:12.167975
3158  2023-11-14 13:09:12.199894
3159  2023-11-14 13:09:12.231810
3160  2023-11-14 13:09:12.264728
3161  2023-11-14 13:09:12.296645
3162  2023-11-14 13:09:12.328698
3163  2023-11-14 13:09:12.360646
3164  2023-11-14 13:09:12.392491
3165  2023-11-14 13:09:12.440404
3166  2023-11-14 13:09:12.472390
3167  2023-11-14 13:09:12.504388
3168  2023-11-14 13:09:12.536258
3169  2023-11-14 13:09:12.568177
3170  2023-11-14 13:09:12.600083
3171  2023-11-14 13:09:12.632003
3172  2023-11-14 13:09:12.663914
3173  2023-11-14 13:09:12.695831
3174  2023-11-14 13:09:12.727746
3175  2023-11-14 13:09:12.760662
3176  2023-11-14 13:09:12.792575
3177  2023-11-14 13:09:12.840442
3178  2023-11-14 13:09:12.872356
3179  2023-11-14 13:09:12.904277
3180  2023-11-14 13:09:12.936171
3181  2023-11-14 13:09:12.968164
3182  2023-11-14 13:09:13.000079
3183  2023-11-14 13:09:13.031994
3184  2023-11-14 13:09:13.063905
3185  2023-11-14 13:09:13.095835
3186  2023-11-14 13:09:13.127735
3187  2023-11-14 13:09:13.160627
3188  2023-11-14 13:09:13.192542
3189  2023-11-14 13:09:13.240531
3190  2023-11-14 13:09:13.272446
3191  2023-11-14 13:09:13.304360
3192  2023-11-14 13:09:13.336351
3193  2023-11-14 13:09:13.368359
3194  2023-11-14 13:09:13.400272
3195  2023-11-14 13:09:13.432198
3196  2023-11-14 13:09:13.464119
3197  2023-11-14 13:09:13.496018
3198  2023-11-14 13:09:13.527933
3199  2023-11-14 13:09:13.559878
3200  2023-11-14 13:09:13.591764
3201  2023-11-14 13:09:13.640644
3202  2023-11-14 13:09:13.672549
3203  2023-11-14 13:09:13.704478
3204  2023-11-14 13:09:13.736385
3205  2023-11-14 13:09:13.768289
3206  2023-11-14 13:09:13.800204
3207  2023-11-14 13:09:13.832161
3208  2023-11-14 13:09:13.864061
3209  2023-11-14 13:09:13.895959
3210  2023-11-14 13:09:13.927870
3211  2023-11-14 13:09:13.959782
3212  2023-11-14 13:09:13.992695
3213  2023-11-14 13:09:14.040564
3214  2023-11-14 13:09:14.072471
3215  2023-11-14 13:09:14.104398
3216  2023-11-14 13:09:14.136310
3217  2023-11-14 13:09:14.168220
3218  2023-11-14 13:09:14.201134
3219  2023-11-14 13:09:14.232151
3220  2023-11-14 13:09:14.264148
3221  2023-11-14 13:09:14.296064
3222  2023-11-14 13:09:14.327980
3223  2023-11-14 13:09:14.359897
3224  2023-11-14 13:09:14.391815
3225  2023-11-14 13:09:14.440643
3226  2023-11-14 13:09:14.472595
3227  2023-11-14 13:09:14.504474
3228  2023-11-14 13:09:14.536419
3229  2023-11-14 13:09:14.568332
3230  2023-11-14 13:09:14.600254
3231  2023-11-14 13:09:14.632164
3232  2023-11-14 13:09:14.664081
3233  2023-11-14 13:09:14.695994
3234  2023-11-14 13:09:14.727918
3235  2023-11-14 13:09:14.759827
3236  2023-11-14 13:09:14.791740
3237  2023-11-14 13:09:14.840575
3238  2023-11-14 13:09:14.872521
3239  2023-11-14 13:09:14.904436
3240  2023-11-14 13:09:14.936375
3241  2023-11-14 13:09:14.968297
3242  2023-11-14 13:09:15.000187
3243  2023-11-14 13:09:15.032109
3244  2023-11-14 13:09:15.064008
3245  2023-11-14 13:09:15.095924
3246  2023-11-14 13:09:15.127841
3247  2023-11-14 13:09:15.159754
3248  2023-11-14 13:09:15.192663
3249  2023-11-14 13:09:15.240505
3250  2023-11-14 13:09:15.272452
3251  2023-11-14 13:09:15.304369
3252  2023-11-14 13:09:15.336284
3253  2023-11-14 13:09:15.368358
3254  2023-11-14 13:09:15.400272
3255  2023-11-14 13:09:15.432188
3256  2023-11-14 13:09:15.464104
3257  2023-11-14 13:09:15.496022
3258  2023-11-14 13:09:15.527939
3259  2023-11-14 13:09:15.559855
3260  2023-11-14 13:09:15.592725
3261  2023-11-14 13:09:15.640595
3262  2023-11-14 13:09:15.672620
3263  2023-11-14 13:09:15.704601
3264  2023-11-14 13:09:15.736491
3265  2023-11-14 13:09:15.768401
3266  2023-11-14 13:09:15.800321
3267  2023-11-14 13:09:15.832234
3268  2023-11-14 13:09:15.864162
3269  2023-11-14 13:09:15.896070
3270  2023-11-14 13:09:15.927947
3271  2023-11-14 13:09:15.959895
3272  2023-11-14 13:09:16.008763
3273  2023-11-14 13:09:16.040644
3274  2023-11-14 13:09:16.072610
3275  2023-11-14 13:09:16.104475
3276  2023-11-14 13:09:16.136399
3277  2023-11-14 13:09:16.168349
3278  2023-11-14 13:09:16.200253
3279  2023-11-14 13:09:16.232169
3280  2023-11-14 13:09:16.264083
3281  2023-11-14 13:09:16.295996
3282  2023-11-14 13:09:16.327912
3283  2023-11-14 13:09:16.359822
3284  2023-11-14 13:09:16.407662
3285  2023-11-14 13:09:16.440617
3286  2023-11-14 13:09:16.472528
3287  2023-11-14 13:09:16.504439
3288  2023-11-14 13:09:16.536349
3289  2023-11-14 13:09:16.568264
3290  2023-11-14 13:09:16.600188
3291  2023-11-14 13:09:16.632115
3292  2023-11-14 13:09:16.664010
3293  2023-11-14 13:09:16.695926
3294  2023-11-14 13:09:16.727850
3295  2023-11-14 13:09:16.759764
3296  2023-11-14 13:09:16.808601
3297  2023-11-14 13:09:16.840505
3298  2023-11-14 13:09:16.872456
3299  2023-11-14 13:09:16.904369
3300  2023-11-14 13:09:16.936288
3301  2023-11-14 13:09:16.968202
3302  2023-11-14 13:09:17.001129
3303  2023-11-14 13:09:17.032048
3304  2023-11-14 13:09:17.063943
3305  2023-11-14 13:09:17.096821
3306  2023-11-14 13:09:17.128736
3307  2023-11-14 13:09:17.160684
3308  2023-11-14 13:09:17.208521
3309  2023-11-14 13:09:17.240436
3310  2023-11-14 13:09:17.272387
3311  2023-11-14 13:09:17.304267
3312  2023-11-14 13:09:17.336183
3313  2023-11-14 13:09:17.368128
3314  2023-11-14 13:09:17.400011
3315  2023-11-14 13:09:17.431925
3316  2023-11-14 13:09:17.464837
3317  2023-11-14 13:09:17.495784
3318  2023-11-14 13:09:17.528701
3319  2023-11-14 13:09:17.560582
3320  2023-11-14 13:09:17.608452
3321  2023-11-14 13:09:17.640416
3322  2023-11-14 13:09:17.672314
3323  2023-11-14 13:09:17.704229
3324  2023-11-14 13:09:17.736167
3325  2023-11-14 13:09:17.768073
3326  2023-11-14 13:09:17.799997
3327  2023-11-14 13:09:17.831897
3328  2023-11-14 13:09:17.863805
3329  2023-11-14 13:09:17.896726
3330  2023-11-14 13:09:17.928643
3331  2023-11-14 13:09:17.960542
3332  2023-11-14 13:09:18.008550
3333  2023-11-14 13:09:18.040465
3334  2023-11-14 13:09:18.072413
3335  2023-11-14 13:09:18.104338
3336  2023-11-14 13:09:18.136252
3337  2023-11-14 13:09:18.168173
3338  2023-11-14 13:09:18.200071
3339  2023-11-14 13:09:18.231989
3340  2023-11-14 13:09:18.263977
3341  2023-11-14 13:09:18.295982
3342  2023-11-14 13:09:18.327911
3343  2023-11-14 13:09:18.359776
3344  2023-11-14 13:09:18.408645
3345  2023-11-14 13:09:18.440560
3346  2023-11-14 13:09:18.472510
3347  2023-11-14 13:09:18.504420
3348  2023-11-14 13:09:18.536401
3349  2023-11-14 13:09:18.568316
3350  2023-11-14 13:09:18.600605
3351  2023-11-14 13:09:18.632596
3352  2023-11-14 13:09:18.664507
3353  2023-11-14 13:09:18.696425
3354  2023-11-14 13:09:18.728356
3355  2023-11-14 13:09:18.760255
3356  2023-11-14 13:09:18.808093
3357  2023-11-14 13:09:18.840007
3358  2023-11-14 13:09:18.873024
3359  2023-11-14 13:09:18.904067
3360  2023-11-14 13:09:18.935982
3361  2023-11-14 13:09:18.967887
3362  2023-11-14 13:09:18.999825
3363  2023-11-14 13:09:19.032726
3364  2023-11-14 13:09:19.064645
3365  2023-11-14 13:09:19.096553
3366  2023-11-14 13:09:19.128463
3367  2023-11-14 13:09:19.160394
3368  2023-11-14 13:09:19.208219
3369  2023-11-14 13:09:19.240141
3370  2023-11-14 13:09:19.272088
3371  2023-11-14 13:09:19.303995
3372  2023-11-14 13:09:19.336877
3373  2023-11-14 13:09:19.367839
3374  2023-11-14 13:09:19.399783
3375  2023-11-14 13:09:19.432800
3376  2023-11-14 13:09:19.464729
3377  2023-11-14 13:09:19.496626
3378  2023-11-14 13:09:19.528541
3379  2023-11-14 13:09:19.560424
3380  2023-11-14 13:09:19.608293
3381  2023-11-14 13:09:19.641210
3382  2023-11-14 13:09:19.672124
3383  2023-11-14 13:09:19.704075
3384  2023-11-14 13:09:19.735996
3385  2023-11-14 13:09:19.768867
3386  2023-11-14 13:09:19.800781
3387  2023-11-14 13:09:19.832748
3388  2023-11-14 13:09:19.864611
3389  2023-11-14 13:09:19.896524
3390  2023-11-14 13:09:19.928483
3391  2023-11-14 13:09:19.976344
3392  2023-11-14 13:09:20.008265
3393  2023-11-14 13:09:20.040139
3394  2023-11-14 13:09:20.072093
3395  2023-11-14 13:09:20.104004
3396  2023-11-14 13:09:20.135920
3397  2023-11-14 13:09:20.167831
3398  2023-11-14 13:09:20.200743
3399  2023-11-14 13:09:20.232658
3400  2023-11-14 13:09:20.264575
3401  2023-11-14 13:09:20.296492
3402  2023-11-14 13:09:20.328402
3403  2023-11-14 13:09:20.376240
3404  2023-11-14 13:09:20.408155
3405  2023-11-14 13:09:20.440070
3406  2023-11-14 13:09:20.472086
3407  2023-11-14 13:09:20.504002
3408  2023-11-14 13:09:20.535984
3409  2023-11-14 13:09:20.567966
3410  2023-11-14 13:09:20.599924
3411  2023-11-14 13:09:20.631833
3412  2023-11-14 13:09:20.663752
3413  2023-11-14 13:09:20.695712
3414  2023-11-14 13:09:20.728642
3415  2023-11-14 13:09:20.776494
3416  2023-11-14 13:09:20.808459
3417  2023-11-14 13:09:20.840413
3418  2023-11-14 13:09:20.872350
3419  2023-11-14 13:09:20.904371
3420  2023-11-14 13:09:20.936365
3421  2023-11-14 13:09:20.968280
3422  2023-11-14 13:09:21.000209
3423  2023-11-14 13:09:21.032178
3424  2023-11-14 13:09:21.064044
3425  2023-11-14 13:09:21.096947
3426  2023-11-14 13:09:21.127993
3427  2023-11-14 13:09:21.175949
3428  2023-11-14 13:09:21.207941
3429  2023-11-14 13:09:21.239896
3430  2023-11-14 13:09:21.271797
3431  2023-11-14 13:09:21.304713
3432  2023-11-14 13:09:21.336704
3433  2023-11-14 13:09:21.368619
3434  2023-11-14 13:09:21.400533
3435  2023-11-14 13:09:21.432485
3436  2023-11-14 13:09:21.464432
3437  2023-11-14 13:09:21.496345
3438  2023-11-14 13:09:21.528259
3439  2023-11-14 13:09:21.576100
3440  2023-11-14 13:09:21.608014
3441  2023-11-14 13:09:21.639963
3442  2023-11-14 13:09:21.671877
3443  2023-11-14 13:09:21.703760
3444  2023-11-14 13:09:21.735706
3445  2023-11-14 13:09:21.768630
3446  2023-11-14 13:09:21.800535
3447  2023-11-14 13:09:21.832447
3448  2023-11-14 13:09:21.864363
3449  2023-11-14 13:09:21.896282
3450  2023-11-14 13:09:21.928193
3451  2023-11-14 13:09:21.976078
3452  2023-11-14 13:09:22.008023
3453  2023-11-14 13:09:22.039974
3454  2023-11-14 13:09:22.071921
3455  2023-11-14 13:09:22.103904
3456  2023-11-14 13:09:22.135817
3457  2023-11-14 13:09:22.168727
3458  2023-11-14 13:09:22.200653
3459  2023-11-14 13:09:22.232556
3460  2023-11-14 13:09:22.265476
3461  2023-11-14 13:09:22.297428
3462  2023-11-14 13:09:22.328302
3463  2023-11-14 13:09:22.376140
3464  2023-11-14 13:09:22.408143
3465  2023-11-14 13:09:22.440103
3466  2023-11-14 13:09:22.472054
3467  2023-11-14 13:09:22.504976
3468  2023-11-14 13:09:22.536874
3469  2023-11-14 13:09:22.567787
3470  2023-11-14 13:09:22.600705
3471  2023-11-14 13:09:22.632635
3472  2023-11-14 13:09:22.664532
3473  2023-11-14 13:09:22.696447
3474  2023-11-14 13:09:22.728361
3475  2023-11-14 13:09:22.776199
3476  2023-11-14 13:09:22.808177
3477  2023-11-14 13:09:22.840117
3478  2023-11-14 13:09:22.872128
3479  2023-11-14 13:09:22.904040
3480  2023-11-14 13:09:22.935922
3481  2023-11-14 13:09:22.967838
3482  2023-11-14 13:09:22.999787
3483  2023-11-14 13:09:23.032706
3484  2023-11-14 13:09:23.064615
3485  2023-11-14 13:09:23.096528
3486  2023-11-14 13:09:23.128437
3487  2023-11-14 13:09:23.176279
3488  2023-11-14 13:09:23.208194
3489  2023-11-14 13:09:23.240108
3490  2023-11-14 13:09:23.272024
3491  2023-11-14 13:09:23.303978
3492  2023-11-14 13:09:23.336891
3493  2023-11-14 13:09:23.367882
3494  2023-11-14 13:09:23.399795
3495  2023-11-14 13:09:23.431732
3496  2023-11-14 13:09:23.463723
3497  2023-11-14 13:09:23.496648
3498  2023-11-14 13:09:23.544471
3499  2023-11-14 13:09:23.576385
3500  2023-11-14 13:09:23.608300
3501  2023-11-14 13:09:23.640215
3502  2023-11-14 13:09:23.672173
3503  2023-11-14 13:09:23.704068
3504  2023-11-14 13:09:23.735990
3505  2023-11-14 13:09:23.767908
3506  2023-11-14 13:09:23.799821
3507  2023-11-14 13:09:23.831778
3508  2023-11-14 13:09:23.864738
3509  2023-11-14 13:09:23.896651
3510  2023-11-14 13:09:23.944559
3511  2023-11-14 13:09:23.976523
3512  2023-11-14 13:09:24.008437
3513  2023-11-14 13:09:24.040352
3514  2023-11-14 13:09:24.072300
3515  2023-11-14 13:09:24.104212
3516  2023-11-14 13:09:24.136128
3517  2023-11-14 13:09:24.168043
3518  2023-11-14 13:09:24.199927
3519  2023-11-14 13:09:24.231841
3520  2023-11-14 13:09:24.264753
3521  2023-11-14 13:09:24.296702
3522  2023-11-14 13:09:24.344540
3523  2023-11-14 13:09:24.376453
3524  2023-11-14 13:09:24.408503
3525  2023-11-14 13:09:24.440442
3526  2023-11-14 13:09:24.472432
3527  2023-11-14 13:09:24.504462
3528  2023-11-14 13:09:24.536374
3529  2023-11-14 13:09:24.568287
3530  2023-11-14 13:09:24.600169
3531  2023-11-14 13:09:24.632138
3532  2023-11-14 13:09:24.664043
3533  2023-11-14 13:09:24.695945
3534  2023-11-14 13:09:24.743783
3535  2023-11-14 13:09:24.776695
3536  2023-11-14 13:09:24.808649
3537  2023-11-14 13:09:24.840525
3538  2023-11-14 13:09:24.872471
3539  2023-11-14 13:09:24.904388
3540  2023-11-14 13:09:24.936303
3541  2023-11-14 13:09:24.968216
3542  2023-11-14 13:09:25.000141
3543  2023-11-14 13:09:25.032154
3544  2023-11-14 13:09:25.064064
3545  2023-11-14 13:09:25.095981
3546  2023-11-14 13:09:25.143808
3547  2023-11-14 13:09:25.176720
3548  2023-11-14 13:09:25.208635
3549  2023-11-14 13:09:25.240550
3550  2023-11-14 13:09:25.272500
3551  2023-11-14 13:09:25.304410
3552  2023-11-14 13:09:25.336325
3553  2023-11-14 13:09:25.368361
3554  2023-11-14 13:09:25.400279
3555  2023-11-14 13:09:25.432221
3556  2023-11-14 13:09:25.464105
3557  2023-11-14 13:09:25.496014
3558  2023-11-14 13:09:25.543854
3559  2023-11-14 13:09:25.575768
3560  2023-11-14 13:09:25.607780
3561  2023-11-14 13:09:25.640041
