
1  2023-11-30 13:29:18.070634
2  2023-11-30 13:29:18.116514
3  2023-11-30 13:29:18.148559
4  2023-11-30 13:29:18.193341
5  2023-11-30 13:29:18.239508
6  2023-11-30 13:29:18.271685
7  2023-11-30 13:29:18.318605
8  2023-11-30 13:29:18.364407
9  2023-11-30 13:29:18.395531
10  2023-11-30 13:29:18.441654
11  2023-11-30 13:29:18.489457
12  2023-11-30 13:29:18.519878
13  2023-11-30 13:29:18.566953
14  2023-11-30 13:29:18.613616
15  2023-11-30 13:29:18.645170
16  2023-11-30 13:29:18.693931
17  2023-11-30 13:29:18.740381
18  2023-11-30 13:29:18.771624
19  2023-11-30 13:29:18.817061
20  2023-11-30 13:29:18.863210
21  2023-11-30 13:29:18.909723
22  2023-11-30 13:29:18.940720
23  2023-11-30 13:29:18.987199
24  2023-11-30 13:29:19.033541
25  2023-11-30 13:29:19.064599
26  2023-11-30 13:29:19.112650
27  2023-11-30 13:29:19.159466
28  2023-11-30 13:29:19.190936
29  2023-11-30 13:29:19.238804
30  2023-11-30 13:29:19.269953
31  2023-11-30 13:29:19.316532
32  2023-11-30 13:29:19.362726
33  2023-11-30 13:29:19.409760
34  2023-11-30 13:29:19.440615
35  2023-11-30 13:29:19.486707
36  2023-11-30 13:29:19.533798
37  2023-11-30 13:29:19.564302
38  2023-11-30 13:29:19.611157
39  2023-11-30 13:29:19.657053
40  2023-11-30 13:29:19.687848
41  2023-11-30 13:29:19.735942
42  2023-11-30 13:29:19.781362
43  2023-11-30 13:29:19.812329
44  2023-11-30 13:29:19.859172
45  2023-11-30 13:29:19.905293
46  2023-11-30 13:29:19.950963
47  2023-11-30 13:29:19.982432
48  2023-11-30 13:29:20.029461
49  2023-11-30 13:29:20.075743
50  2023-11-30 13:29:20.107075
51  2023-11-30 13:29:20.152454
52  2023-11-30 13:29:20.199261
53  2023-11-30 13:29:20.229460
54  2023-11-30 13:29:20.276602
55  2023-11-30 13:29:20.323705
56  2023-11-30 13:29:20.355957
57  2023-11-30 13:29:20.403675
58  2023-11-30 13:29:20.448645
59  2023-11-30 13:29:20.479580
60  2023-11-30 13:29:20.526443
61  2023-11-30 13:29:20.574161
62  2023-11-30 13:29:20.605175
63  2023-11-30 13:29:20.650115
64  2023-11-30 13:29:20.697059
65  2023-11-30 13:29:20.728312
66  2023-11-30 13:29:20.775872
67  2023-11-30 13:29:20.822989
68  2023-11-30 13:29:20.853071
69  2023-11-30 13:29:20.899777
70  2023-11-30 13:29:20.946262
71  2023-11-30 13:29:20.993108
72  2023-11-30 13:29:21.024039
73  2023-11-30 13:29:21.071284
74  2023-11-30 13:29:21.117629
75  2023-11-30 13:29:21.148955
76  2023-11-30 13:29:21.195543
77  2023-11-30 13:29:21.240498
78  2023-11-30 13:29:21.271766
79  2023-11-30 13:29:21.319522
80  2023-11-30 13:29:21.365944
81  2023-11-30 13:29:21.396299
82  2023-11-30 13:29:21.443113
83  2023-11-30 13:29:21.489336
84  2023-11-30 13:29:21.520204
85  2023-11-30 13:29:21.567172
86  2023-11-30 13:29:21.614240
87  2023-11-30 13:29:21.645206
88  2023-11-30 13:29:21.691500
89  2023-11-30 13:29:21.737858
90  2023-11-30 13:29:21.783950
91  2023-11-30 13:29:21.815070
92  2023-11-30 13:29:21.861799
93  2023-11-30 13:29:21.909484
94  2023-11-30 13:29:21.939888
95  2023-11-30 13:29:21.986735
96  2023-11-30 13:29:22.033471
97  2023-11-30 13:29:22.065061
98  2023-11-30 13:29:22.112460
99  2023-11-30 13:29:22.158334
100  2023-11-30 13:29:22.189520
101  2023-11-30 13:29:22.236526
102  2023-11-30 13:29:22.283285
103  2023-11-30 13:29:22.313567
104  2023-11-30 13:29:22.360911
105  2023-11-30 13:29:22.407622
106  2023-11-30 13:29:22.439106
107  2023-11-30 13:29:22.484464
108  2023-11-30 13:29:22.531393
109  2023-11-30 13:29:22.562281
110  2023-11-30 13:29:22.609891
111  2023-11-30 13:29:22.656806
112  2023-11-30 13:29:22.688042
113  2023-11-30 13:29:22.734729
114  2023-11-30 13:29:22.782513
115  2023-11-30 13:29:22.813315
116  2023-11-30 13:29:22.860447
117  2023-11-30 13:29:22.907381
118  2023-11-30 13:29:22.939125
119  2023-11-30 13:29:22.985929
120  2023-11-30 13:29:23.031222
121  2023-11-30 13:29:23.062520
122  2023-11-30 13:29:23.109504
123  2023-11-30 13:29:23.155959
124  2023-11-30 13:29:23.188220
125  2023-11-30 13:29:23.233799
126  2023-11-30 13:29:23.281267
127  2023-11-30 13:29:23.313263
128  2023-11-30 13:29:23.358477
129  2023-11-30 13:29:23.405155
130  2023-11-30 13:29:23.436684
131  2023-11-30 13:29:23.483050
132  2023-11-30 13:29:23.529011
133  2023-11-30 13:29:23.575494
134  2023-11-30 13:29:23.606524
135  2023-11-30 13:29:23.654505
136  2023-11-30 13:29:23.701484
137  2023-11-30 13:29:23.732745
138  2023-11-30 13:29:23.779561
139  2023-11-30 13:29:23.811799
140  2023-11-30 13:29:23.858084
141  2023-11-30 13:29:23.904670
142  2023-11-30 13:29:23.936978
143  2023-11-30 13:29:23.984347
144  2023-11-30 13:29:24.031084
145  2023-11-30 13:29:24.062923
146  2023-11-30 13:29:24.109250
147  2023-11-30 13:29:24.155419
148  2023-11-30 13:29:24.201555
149  2023-11-30 13:29:24.233006
150  2023-11-30 13:29:24.279488
151  2023-11-30 13:29:24.311431
152  2023-11-30 13:29:24.357993
153  2023-11-30 13:29:24.404303
154  2023-11-30 13:29:24.450557
155  2023-11-30 13:29:24.481658
156  2023-11-30 13:29:24.527679
157  2023-11-30 13:29:24.574786
158  2023-11-30 13:29:24.605604
159  2023-11-30 13:29:24.652473
160  2023-11-30 13:29:24.698903
161  2023-11-30 13:29:24.729986
162  2023-11-30 13:29:24.776720
163  2023-11-30 13:29:24.823458
164  2023-11-30 13:29:24.854502
165  2023-11-30 13:29:24.901736
166  2023-11-30 13:29:24.947650
167  2023-11-30 13:29:24.978866
168  2023-11-30 13:29:25.025608
169  2023-11-30 13:29:25.072189
170  2023-11-30 13:29:25.118404
171  2023-11-30 13:29:25.149468
172  2023-11-30 13:29:25.194497
173  2023-11-30 13:29:25.241485
174  2023-11-30 13:29:25.272766
175  2023-11-30 13:29:25.320476
176  2023-11-30 13:29:25.366533
177  2023-11-30 13:29:25.397900
178  2023-11-30 13:29:25.444291
179  2023-11-30 13:29:25.490317
180  2023-11-30 13:29:25.521576
181  2023-11-30 13:29:25.569312
182  2023-11-30 13:29:25.616557
183  2023-11-30 13:29:25.647552
184  2023-11-30 13:29:25.694479
185  2023-11-30 13:29:25.742012
186  2023-11-30 13:29:25.774233
187  2023-11-30 13:29:25.819467
188  2023-11-30 13:29:25.866221
189  2023-11-30 13:29:25.896676
190  2023-11-30 13:29:25.944011
191  2023-11-30 13:29:25.990263
192  2023-11-30 13:29:26.021733
193  2023-11-30 13:29:26.068669
194  2023-11-30 13:29:26.115150
195  2023-11-30 13:29:26.146153
196  2023-11-30 13:29:26.193596
197  2023-11-30 13:29:26.239443
198  2023-11-30 13:29:26.271080
199  2023-11-30 13:29:26.319171
200  2023-11-30 13:29:26.364446
201  2023-11-30 13:29:26.395444
202  2023-11-30 13:29:26.441522
203  2023-11-30 13:29:26.489481
204  2023-11-30 13:29:26.520337
205  2023-11-30 13:29:26.567085
206  2023-11-30 13:29:26.614494
207  2023-11-30 13:29:26.645748
208  2023-11-30 13:29:26.692177
209  2023-11-30 13:29:26.738699
210  2023-11-30 13:29:26.770110
211  2023-11-30 13:29:26.816954
212  2023-11-30 13:29:26.863438
213  2023-11-30 13:29:26.895281
214  2023-11-30 13:29:26.942584
215  2023-11-30 13:29:26.989008
216  2023-11-30 13:29:27.034991
217  2023-11-30 13:29:27.065544
218  2023-11-30 13:29:27.112758
219  2023-11-30 13:29:27.158614
220  2023-11-30 13:29:27.189557
221  2023-11-30 13:29:27.236813
222  2023-11-30 13:29:27.283088
223  2023-11-30 13:29:27.313734
224  2023-11-30 13:29:27.359174
225  2023-11-30 13:29:27.407357
226  2023-11-30 13:29:27.438188
227  2023-11-30 13:29:27.484474
228  2023-11-30 13:29:27.531120
229  2023-11-30 13:29:27.562735
230  2023-11-30 13:29:27.608979
231  2023-11-30 13:29:27.656457
232  2023-11-30 13:29:27.689444
233  2023-11-30 13:29:27.735356
234  2023-11-30 13:29:27.782398
235  2023-11-30 13:29:27.812670
236  2023-11-30 13:29:27.858440
237  2023-11-30 13:29:27.905903
238  2023-11-30 13:29:27.952472
239  2023-11-30 13:29:27.982870
240  2023-11-30 13:29:28.029921
241  2023-11-30 13:29:28.061444
242  2023-11-30 13:29:28.108154
243  2023-11-30 13:29:28.154483
244  2023-11-30 13:29:28.201518
245  2023-11-30 13:29:28.232810
246  2023-11-30 13:29:28.281103
247  2023-11-30 13:29:28.325842
248  2023-11-30 13:29:28.356793
249  2023-11-30 13:29:28.403365
250  2023-11-30 13:29:28.449064
251  2023-11-30 13:29:28.480177
252  2023-11-30 13:29:28.526437
253  2023-11-30 13:29:28.574190
254  2023-11-30 13:29:28.604830
255  2023-11-30 13:29:28.652323
256  2023-11-30 13:29:28.698231
257  2023-11-30 13:29:28.729397
258  2023-11-30 13:29:28.776498
259  2023-11-30 13:29:28.823458
260  2023-11-30 13:29:28.853518
261  2023-11-30 13:29:28.900108
262  2023-11-30 13:29:28.946846
263  2023-11-30 13:29:28.993474
264  2023-11-30 13:29:29.023843
265  2023-11-30 13:29:29.069810
266  2023-11-30 13:29:29.115988
267  2023-11-30 13:29:29.146768
268  2023-11-30 13:29:29.193611
269  2023-11-30 13:29:29.241115
270  2023-11-30 13:29:29.271671
271  2023-11-30 13:29:29.318428
272  2023-11-30 13:29:29.365256
273  2023-11-30 13:29:29.396662
274  2023-11-30 13:29:29.443503
275  2023-11-30 13:29:29.489995
276  2023-11-30 13:29:29.521463
277  2023-11-30 13:29:29.568208
278  2023-11-30 13:29:29.614898
279  2023-11-30 13:29:29.646487
280  2023-11-30 13:29:29.694059
281  2023-11-30 13:29:29.738741
282  2023-11-30 13:29:29.785087
283  2023-11-30 13:29:29.817627
284  2023-11-30 13:29:29.863486
285  2023-11-30 13:29:29.909766
286  2023-11-30 13:29:29.941671
287  2023-11-30 13:29:29.988219
288  2023-11-30 13:29:30.034049
289  2023-11-30 13:29:30.064962
290  2023-11-30 13:29:30.111779
291  2023-11-30 13:29:30.158429
292  2023-11-30 13:29:30.191164
293  2023-11-30 13:29:30.235937
294  2023-11-30 13:29:30.283272
295  2023-11-30 13:29:30.315176
296  2023-11-30 13:29:30.361362
297  2023-11-30 13:29:30.407798
298  2023-11-30 13:29:30.438840
299  2023-11-30 13:29:30.485775
300  2023-11-30 13:29:30.532607
301  2023-11-30 13:29:30.563544
302  2023-11-30 13:29:30.610720
303  2023-11-30 13:29:30.656877
304  2023-11-30 13:29:30.687436
305  2023-11-30 13:29:30.734767
306  2023-11-30 13:29:30.780999
307  2023-11-30 13:29:30.812098
308  2023-11-30 13:29:30.859435
309  2023-11-30 13:29:30.905517
310  2023-11-30 13:29:30.936935
311  2023-11-30 13:29:30.983126
312  2023-11-30 13:29:31.029447
313  2023-11-30 13:29:31.076622
314  2023-11-30 13:29:31.107917
315  2023-11-30 13:29:31.153565
316  2023-11-30 13:29:31.200277
317  2023-11-30 13:29:31.231393
318  2023-11-30 13:29:31.278287
319  2023-11-30 13:29:31.324484
320  2023-11-30 13:29:31.355286
321  2023-11-30 13:29:31.403696
322  2023-11-30 13:29:31.450444
323  2023-11-30 13:29:31.482292
324  2023-11-30 13:29:31.529881
325  2023-11-30 13:29:31.575479
326  2023-11-30 13:29:31.607361
327  2023-11-30 13:29:31.654797
328  2023-11-30 13:29:31.701441
329  2023-11-30 13:29:31.731872
330  2023-11-30 13:29:31.779439
331  2023-11-30 13:29:31.825334
332  2023-11-30 13:29:31.856370
333  2023-11-30 13:29:31.903664
334  2023-11-30 13:29:31.950244
335  2023-11-30 13:29:31.980824
336  2023-11-30 13:29:32.028431
337  2023-11-30 13:29:32.075070
338  2023-11-30 13:29:32.106278
339  2023-11-30 13:29:32.152668
340  2023-11-30 13:29:32.199561
341  2023-11-30 13:29:32.230262
342  2023-11-30 13:29:32.277788
343  2023-11-30 13:29:32.324375
344  2023-11-30 13:29:32.355416
345  2023-11-30 13:29:32.401660
346  2023-11-30 13:29:32.447993
347  2023-11-30 13:29:32.479584
348  2023-11-30 13:29:32.525461
349  2023-11-30 13:29:32.571857
350  2023-11-30 13:29:32.618447
351  2023-11-30 13:29:32.650090
352  2023-11-30 13:29:32.697372
353  2023-11-30 13:29:32.728918
354  2023-11-30 13:29:32.774594
355  2023-11-30 13:29:32.822449
356  2023-11-30 13:29:32.853448
357  2023-11-30 13:29:32.901401
358  2023-11-30 13:29:32.947866
359  2023-11-30 13:29:32.979478
360  2023-11-30 13:29:33.026013
361  2023-11-30 13:29:33.072971
362  2023-11-30 13:29:33.104117
363  2023-11-30 13:29:33.149833
364  2023-11-30 13:29:33.196792
365  2023-11-30 13:29:33.228020
366  2023-11-30 13:29:33.274792
367  2023-11-30 13:29:33.323015
368  2023-11-30 13:29:33.367605
369  2023-11-30 13:29:33.398264
370  2023-11-30 13:29:33.444504
371  2023-11-30 13:29:33.491050
372  2023-11-30 13:29:33.521614
373  2023-11-30 13:29:33.568503
374  2023-11-30 13:29:33.614540
375  2023-11-30 13:29:33.645733
376  2023-11-30 13:29:33.692548
377  2023-11-30 13:29:33.739831
378  2023-11-30 13:29:33.771439
379  2023-11-30 13:29:33.817440
380  2023-11-30 13:29:33.864493
381  2023-11-30 13:29:33.895191
382  2023-11-30 13:29:33.941633
383  2023-11-30 13:29:33.988478
384  2023-11-30 13:29:34.033892
385  2023-11-30 13:29:34.064659
386  2023-11-30 13:29:34.111587
387  2023-11-30 13:29:34.157275
388  2023-11-30 13:29:34.188315
389  2023-11-30 13:29:34.235584
390  2023-11-30 13:29:34.281859
391  2023-11-30 13:29:34.313450
392  2023-11-30 13:29:34.361731
393  2023-11-30 13:29:34.409364
394  2023-11-30 13:29:34.441405
395  2023-11-30 13:29:34.489180
396  2023-11-30 13:29:34.519964
397  2023-11-30 13:29:34.566937
398  2023-11-30 13:29:34.614474
399  2023-11-30 13:29:34.659486
400  2023-11-30 13:29:34.689787
401  2023-11-30 13:29:34.736622
402  2023-11-30 13:29:34.783238
403  2023-11-30 13:29:34.815269
404  2023-11-30 13:29:34.862510
405  2023-11-30 13:29:34.909146
406  2023-11-30 13:29:34.939852
407  2023-11-30 13:29:34.987244
408  2023-11-30 13:29:35.033606
409  2023-11-30 13:29:35.064510
410  2023-11-30 13:29:35.111598
411  2023-11-30 13:29:35.157493
412  2023-11-30 13:29:35.188102
413  2023-11-30 13:29:35.234560
414  2023-11-30 13:29:35.281265
415  2023-11-30 13:29:35.313013
416  2023-11-30 13:29:35.359613
417  2023-11-30 13:29:35.406783
418  2023-11-30 13:29:35.437675
419  2023-11-30 13:29:35.484599
420  2023-11-30 13:29:35.531288
421  2023-11-30 13:29:35.562583
422  2023-11-30 13:29:35.610563
423  2023-11-30 13:29:35.656434
424  2023-11-30 13:29:35.686585
425  2023-11-30 13:29:35.733506
426  2023-11-30 13:29:35.780246
427  2023-11-30 13:29:35.826142
428  2023-11-30 13:29:35.857142
429  2023-11-30 13:29:35.903566
430  2023-11-30 13:29:35.950487
431  2023-11-30 13:29:35.982005
432  2023-11-30 13:29:36.029309
433  2023-11-30 13:29:36.075969
434  2023-11-30 13:29:36.107374
435  2023-11-30 13:29:36.154618
436  2023-11-30 13:29:36.201761
437  2023-11-30 13:29:36.232623
438  2023-11-30 13:29:36.280113
439  2023-11-30 13:29:36.325709
440  2023-11-30 13:29:36.356528
441  2023-11-30 13:29:36.402464
442  2023-11-30 13:29:36.449031
443  2023-11-30 13:29:36.480725
444  2023-11-30 13:29:36.527882
445  2023-11-30 13:29:36.573550
446  2023-11-30 13:29:36.604216
447  2023-11-30 13:29:36.650860
448  2023-11-30 13:29:36.696685
449  2023-11-30 13:29:36.743663
450  2023-11-30 13:29:36.774271
451  2023-11-30 13:29:36.822148
452  2023-11-30 13:29:36.867376
453  2023-11-30 13:29:36.898376
454  2023-11-30 13:29:36.945037
455  2023-11-30 13:29:36.992029
456  2023-11-30 13:29:37.023894
457  2023-11-30 13:29:37.069773
458  2023-11-30 13:29:37.116442
459  2023-11-30 13:29:37.147439
460  2023-11-30 13:29:37.194469
461  2023-11-30 13:29:37.240731
462  2023-11-30 13:29:37.272420
463  2023-11-30 13:29:37.320373
464  2023-11-30 13:29:37.366779
465  2023-11-30 13:29:37.398340
466  2023-11-30 13:29:37.445390
467  2023-11-30 13:29:37.493382
468  2023-11-30 13:29:37.524890
469  2023-11-30 13:29:37.571593
470  2023-11-30 13:29:37.618535
471  2023-11-30 13:29:37.649678
472  2023-11-30 13:29:37.696120
473  2023-11-30 13:29:37.742058
474  2023-11-30 13:29:37.773553
475  2023-11-30 13:29:37.819929
476  2023-11-30 13:29:37.866509
477  2023-11-30 13:29:37.897332
478  2023-11-30 13:29:37.944964
479  2023-11-30 13:29:37.991171
480  2023-11-30 13:29:38.022288
481  2023-11-30 13:29:38.069097
482  2023-11-30 13:29:38.117204
483  2023-11-30 13:29:38.148640
484  2023-11-30 13:29:38.196841
485  2023-11-30 13:29:38.242857
486  2023-11-30 13:29:38.274375
487  2023-11-30 13:29:38.321452
488  2023-11-30 13:29:38.367660
489  2023-11-30 13:29:38.399140
490  2023-11-30 13:29:38.445754
491  2023-11-30 13:29:38.492858
492  2023-11-30 13:29:38.522852
493  2023-11-30 13:29:38.568914
494  2023-11-30 13:29:38.614749
495  2023-11-30 13:29:38.645601
496  2023-11-30 13:29:38.692691
497  2023-11-30 13:29:38.740519
498  2023-11-30 13:29:38.773103
499  2023-11-30 13:29:38.817950
500  2023-11-30 13:29:38.864683
501  2023-11-30 13:29:38.895576
502  2023-11-30 13:29:38.943089
503  2023-11-30 13:29:38.989456
504  2023-11-30 13:29:39.020086
505  2023-11-30 13:29:39.066817
506  2023-11-30 13:29:39.113232
507  2023-11-30 13:29:39.159406
508  2023-11-30 13:29:39.190266
509  2023-11-30 13:29:39.238287
510  2023-11-30 13:29:39.284696
511  2023-11-30 13:29:39.316422
512  2023-11-30 13:29:39.362964
513  2023-11-30 13:29:39.409461
514  2023-11-30 13:29:39.441074
515  2023-11-30 13:29:39.486356
516  2023-11-30 13:29:39.533211
517  2023-11-30 13:29:39.564507
518  2023-11-30 13:29:39.611260
519  2023-11-30 13:29:39.657225
520  2023-11-30 13:29:39.687754
521  2023-11-30 13:29:39.734735
522  2023-11-30 13:29:39.782195
523  2023-11-30 13:29:39.813519
524  2023-11-30 13:29:39.860684
525  2023-11-30 13:29:39.907885
526  2023-11-30 13:29:39.938689
527  2023-11-30 13:29:39.985187
528  2023-11-30 13:29:40.031610
529  2023-11-30 13:29:40.062955
530  2023-11-30 13:29:40.109564
531  2023-11-30 13:29:40.155467
532  2023-11-30 13:29:40.187377
533  2023-11-30 13:29:40.233147
534  2023-11-30 13:29:40.280251
535  2023-11-30 13:29:40.311888
536  2023-11-30 13:29:40.358519
537  2023-11-30 13:29:40.406921
538  2023-11-30 13:29:40.437617
539  2023-11-30 13:29:40.484812
540  2023-11-30 13:29:40.531411
541  2023-11-30 13:29:40.562859
542  2023-11-30 13:29:40.611687
543  2023-11-30 13:29:40.658113
544  2023-11-30 13:29:40.688418
545  2023-11-30 13:29:40.736420
546  2023-11-30 13:29:40.781917
547  2023-11-30 13:29:40.812450
548  2023-11-30 13:29:40.860378
549  2023-11-30 13:29:40.908047
550  2023-11-30 13:29:40.938526
551  2023-11-30 13:29:40.986292
552  2023-11-30 13:29:41.032707
553  2023-11-30 13:29:41.063601
554  2023-11-30 13:29:41.110552
555  2023-11-30 13:29:41.156799
556  2023-11-30 13:29:41.187709
557  2023-11-30 13:29:41.234651
558  2023-11-30 13:29:41.281379
559  2023-11-30 13:29:41.313450
560  2023-11-30 13:29:41.358669
561  2023-11-30 13:29:41.406187
562  2023-11-30 13:29:41.437643
563  2023-11-30 13:29:41.484437
564  2023-11-30 13:29:41.530550
565  2023-11-30 13:29:41.561507
566  2023-11-30 13:29:41.608950
567  2023-11-30 13:29:41.654679
568  2023-11-30 13:29:41.686448
569  2023-11-30 13:29:41.732558
570  2023-11-30 13:29:41.779864
571  2023-11-30 13:29:41.825280
572  2023-11-30 13:29:41.855736
573  2023-11-30 13:29:41.902516
574  2023-11-30 13:29:41.949755
575  2023-11-30 13:29:41.980559
576  2023-11-30 13:29:42.026661
577  2023-11-30 13:29:42.073433
578  2023-11-30 13:29:42.104990
579  2023-11-30 13:29:42.151375
580  2023-11-30 13:29:42.198046
581  2023-11-30 13:29:42.229467
582  2023-11-30 13:29:42.276536
583  2023-11-30 13:29:42.323594
584  2023-11-30 13:29:42.355449
585  2023-11-30 13:29:42.401609
586  2023-11-30 13:29:42.448941
587  2023-11-30 13:29:42.479814
588  2023-11-30 13:29:42.526043
589  2023-11-30 13:29:42.571627
590  2023-11-30 13:29:42.617139
591  2023-11-30 13:29:42.648175
592  2023-11-30 13:29:42.694619
593  2023-11-30 13:29:42.741573
594  2023-11-30 13:29:42.771793
595  2023-11-30 13:29:42.819033
596  2023-11-30 13:29:42.866524
597  2023-11-30 13:29:42.897583
598  2023-11-30 13:29:42.944183
599  2023-11-30 13:29:42.990495
600  2023-11-30 13:29:43.022634
601  2023-11-30 13:29:43.069621
602  2023-11-30 13:29:43.116482
603  2023-11-30 13:29:43.147918
604  2023-11-30 13:29:43.193790
605  2023-11-30 13:29:43.239575
606  2023-11-30 13:29:43.271676
607  2023-11-30 13:29:43.317609
608  2023-11-30 13:29:43.366052
609  2023-11-30 13:29:43.396751
610  2023-11-30 13:29:43.442881
611  2023-11-30 13:29:43.489429
612  2023-11-30 13:29:43.520448
613  2023-11-30 13:29:43.566398
614  2023-11-30 13:29:43.614268
615  2023-11-30 13:29:43.645664
616  2023-11-30 13:29:43.691680
617  2023-11-30 13:29:43.738992
618  2023-11-30 13:29:43.784396
619  2023-11-30 13:29:43.815622
620  2023-11-30 13:29:43.860684
621  2023-11-30 13:29:43.907392
622  2023-11-30 13:29:43.939082
623  2023-11-30 13:29:43.985466
624  2023-11-30 13:29:44.031462
625  2023-11-30 13:29:44.062585
626  2023-11-30 13:29:44.109316
627  2023-11-30 13:29:44.156909
628  2023-11-30 13:29:44.187403
629  2023-11-30 13:29:44.233728
630  2023-11-30 13:29:44.280389
631  2023-11-30 13:29:44.311676
632  2023-11-30 13:29:44.358793
633  2023-11-30 13:29:44.405053
634  2023-11-30 13:29:44.450742
635  2023-11-30 13:29:44.481709
636  2023-11-30 13:29:44.528516
637  2023-11-30 13:29:44.576029
638  2023-11-30 13:29:44.607427
639  2023-11-30 13:29:44.655392
640  2023-11-30 13:29:44.687249
641  2023-11-30 13:29:44.733054
642  2023-11-30 13:29:44.780718
643  2023-11-30 13:29:44.827420
644  2023-11-30 13:29:44.858464
645  2023-11-30 13:29:44.907070
646  2023-11-30 13:29:44.938610
647  2023-11-30 13:29:44.984443
648  2023-11-30 13:29:45.031422
649  2023-11-30 13:29:45.062600
650  2023-11-30 13:29:45.108590
651  2023-11-30 13:29:45.154617
652  2023-11-30 13:29:45.201271
653  2023-11-30 13:29:45.232729
654  2023-11-30 13:29:45.280532
655  2023-11-30 13:29:45.311975
656  2023-11-30 13:29:45.359373
657  2023-11-30 13:29:45.406063
658  2023-11-30 13:29:45.436627
659  2023-11-30 13:29:45.483401
660  2023-11-30 13:29:45.530457
661  2023-11-30 13:29:45.561546
662  2023-11-30 13:29:45.608728
663  2023-11-30 13:29:45.655389
664  2023-11-30 13:29:45.700468
665  2023-11-30 13:29:45.732092
666  2023-11-30 13:29:45.778278
667  2023-11-30 13:29:45.825004
668  2023-11-30 13:29:45.854672
669  2023-11-30 13:29:45.901540
670  2023-11-30 13:29:45.949629
671  2023-11-30 13:29:45.980709
672  2023-11-30 13:29:46.026463
673  2023-11-30 13:29:46.073591
674  2023-11-30 13:29:46.104777
675  2023-11-30 13:29:46.151684
676  2023-11-30 13:29:46.198577
677  2023-11-30 13:29:46.230464
678  2023-11-30 13:29:46.277728
679  2023-11-30 13:29:46.324772
680  2023-11-30 13:29:46.356486
681  2023-11-30 13:29:46.403693
682  2023-11-30 13:29:46.450147
683  2023-11-30 13:29:46.481561
684  2023-11-30 13:29:46.527050
685  2023-11-30 13:29:46.575005
686  2023-11-30 13:29:46.605787
687  2023-11-30 13:29:46.654446
688  2023-11-30 13:29:46.700613
689  2023-11-30 13:29:46.730182
690  2023-11-30 13:29:46.776482
691  2023-11-30 13:29:46.824358
692  2023-11-30 13:29:46.855818
693  2023-11-30 13:29:46.903259
694  2023-11-30 13:29:46.949474
695  2023-11-30 13:29:46.981480
696  2023-11-30 13:29:47.027923
697  2023-11-30 13:29:47.074633
698  2023-11-30 13:29:47.105431
699  2023-11-30 13:29:47.152017
700  2023-11-30 13:29:47.198565
701  2023-11-30 13:29:47.230722
702  2023-11-30 13:29:47.277579
703  2023-11-30 13:29:47.325845
704  2023-11-30 13:29:47.356760
705  2023-11-30 13:29:47.403698
706  2023-11-30 13:29:47.450442
707  2023-11-30 13:29:47.481664
708  2023-11-30 13:29:47.528430
709  2023-11-30 13:29:47.574582
710  2023-11-30 13:29:47.605556
711  2023-11-30 13:29:47.652486
712  2023-11-30 13:29:47.698816
713  2023-11-30 13:29:47.730964
714  2023-11-30 13:29:47.777738
715  2023-11-30 13:29:47.823818
716  2023-11-30 13:29:47.855468
717  2023-11-30 13:29:47.901343
718  2023-11-30 13:29:47.947853
719  2023-11-30 13:29:47.979685
720  2023-11-30 13:29:48.026430
721  2023-11-30 13:29:48.072080
722  2023-11-30 13:29:48.103832
723  2023-11-30 13:29:48.150484
724  2023-11-30 13:29:48.197534
725  2023-11-30 13:29:48.228218
726  2023-11-30 13:29:48.274444
727  2023-11-30 13:29:48.321348
728  2023-11-30 13:29:48.367801
729  2023-11-30 13:29:48.399537
730  2023-11-30 13:29:48.447004
731  2023-11-30 13:29:48.478784
732  2023-11-30 13:29:48.524412
733  2023-11-30 13:29:48.571897
734  2023-11-30 13:29:48.617476
735  2023-11-30 13:29:48.648380
736  2023-11-30 13:29:48.694898
737  2023-11-30 13:29:48.741543
738  2023-11-30 13:29:48.772107
739  2023-11-30 13:29:48.818285
740  2023-11-30 13:29:48.864945
741  2023-11-30 13:29:48.895618
742  2023-11-30 13:29:48.941932
743  2023-11-30 13:29:48.989857
744  2023-11-30 13:29:49.020729
745  2023-11-30 13:29:49.067547
746  2023-11-30 13:29:49.115700
747  2023-11-30 13:29:49.145607
748  2023-11-30 13:29:49.193109
749  2023-11-30 13:29:49.240489
750  2023-11-30 13:29:49.271843
751  2023-11-30 13:29:49.318743
752  2023-11-30 13:29:49.365792
753  2023-11-30 13:29:49.397753
754  2023-11-30 13:29:49.444674
755  2023-11-30 13:29:49.490871
756  2023-11-30 13:29:49.522823
757  2023-11-30 13:29:49.569389
758  2023-11-30 13:29:49.615540
759  2023-11-30 13:29:49.646949
760  2023-11-30 13:29:49.693727
761  2023-11-30 13:29:49.740504
762  2023-11-30 13:29:49.771729
763  2023-11-30 13:29:49.818468
764  2023-11-30 13:29:49.864448
765  2023-11-30 13:29:49.895471
766  2023-11-30 13:29:49.942363
767  2023-11-30 13:29:49.988410
768  2023-11-30 13:29:50.020100
769  2023-11-30 13:29:50.068029
770  2023-11-30 13:29:50.115097
771  2023-11-30 13:29:50.145526
772  2023-11-30 13:29:50.192071
773  2023-11-30 13:29:50.238624
774  2023-11-30 13:29:50.269688
775  2023-11-30 13:29:50.316648
776  2023-11-30 13:29:50.364411
777  2023-11-30 13:29:50.394905
778  2023-11-30 13:29:50.441386
779  2023-11-30 13:29:50.487468
780  2023-11-30 13:29:50.533787
781  2023-11-30 13:29:50.564736
782  2023-11-30 13:29:50.612401
783  2023-11-30 13:29:50.658554
784  2023-11-30 13:29:50.690414
785  2023-11-30 13:29:50.737725
786  2023-11-30 13:29:50.784061
787  2023-11-30 13:29:50.815512
788  2023-11-30 13:29:50.861843
789  2023-11-30 13:29:50.908631
790  2023-11-30 13:29:50.939823
791  2023-11-30 13:29:50.986404
792  2023-11-30 13:29:51.033473
793  2023-11-30 13:29:51.065427
794  2023-11-30 13:29:51.111372
795  2023-11-30 13:29:51.158948
796  2023-11-30 13:29:51.189681
797  2023-11-30 13:29:51.236026
798  2023-11-30 13:29:51.283119
799  2023-11-30 13:29:51.314185
800  2023-11-30 13:29:51.359988
801  2023-11-30 13:29:51.406716
802  2023-11-30 13:29:51.437425
803  2023-11-30 13:29:51.484822
804  2023-11-30 13:29:51.531984
805  2023-11-30 13:29:51.562337
806  2023-11-30 13:29:51.609067
807  2023-11-30 13:29:51.655344
808  2023-11-30 13:29:51.686571
809  2023-11-30 13:29:51.733407
810  2023-11-30 13:29:51.778954
811  2023-11-30 13:29:51.826124
812  2023-11-30 13:29:51.857288
813  2023-11-30 13:29:51.904128
814  2023-11-30 13:29:51.950549
815  2023-11-30 13:29:51.981598
816  2023-11-30 13:29:52.028414
817  2023-11-30 13:29:52.075539
818  2023-11-30 13:29:52.107197
819  2023-11-30 13:29:52.154251
820  2023-11-30 13:29:52.201099
821  2023-11-30 13:29:52.232498
822  2023-11-30 13:29:52.280588
823  2023-11-30 13:29:52.326463
824  2023-11-30 13:29:52.358672
825  2023-11-30 13:29:52.405551
826  2023-11-30 13:29:52.437487
827  2023-11-30 13:29:52.483791
828  2023-11-30 13:29:52.530255
829  2023-11-30 13:29:52.575990
830  2023-11-30 13:29:52.606740
831  2023-11-30 13:29:52.653704
832  2023-11-30 13:29:52.700942
833  2023-11-30 13:29:52.732483
834  2023-11-30 13:29:52.778617
835  2023-11-30 13:29:52.827414
836  2023-11-30 13:29:52.857095
837  2023-11-30 13:29:52.905317
838  2023-11-30 13:29:52.953199
839  2023-11-30 13:29:52.981936
840  2023-11-30 13:29:53.028074
841  2023-11-30 13:29:53.074899
842  2023-11-30 13:29:53.104596
843  2023-11-30 13:29:53.150450
844  2023-11-30 13:29:53.198306
845  2023-11-30 13:29:53.228719
846  2023-11-30 13:29:53.274541
847  2023-11-30 13:29:53.322544
848  2023-11-30 13:29:53.353288
849  2023-11-30 13:29:53.401473
850  2023-11-30 13:29:53.447984
851  2023-11-30 13:29:53.479369
852  2023-11-30 13:29:53.527452
853  2023-11-30 13:29:53.573559
854  2023-11-30 13:29:53.604970
855  2023-11-30 13:29:53.651050
856  2023-11-30 13:29:53.698502
857  2023-11-30 13:29:53.729780
858  2023-11-30 13:29:53.775888
859  2023-11-30 13:29:53.822774
860  2023-11-30 13:29:53.854667
861  2023-11-30 13:29:53.901687
862  2023-11-30 13:29:53.947527
863  2023-11-30 13:29:53.978600
864  2023-11-30 13:29:54.025139
865  2023-11-30 13:29:54.072808
866  2023-11-30 13:29:54.103079
867  2023-11-30 13:29:54.151277
868  2023-11-30 13:29:54.196453
869  2023-11-30 13:29:54.242413
870  2023-11-30 13:29:54.273698
871  2023-11-30 13:29:54.320582
872  2023-11-30 13:29:54.366767
873  2023-11-30 13:29:54.398662
874  2023-11-30 13:29:54.446057
875  2023-11-30 13:29:54.492378
876  2023-11-30 13:29:54.523443
877  2023-11-30 13:29:54.571401
878  2023-11-30 13:29:54.617924
879  2023-11-30 13:29:54.648862
880  2023-11-30 13:29:54.696426
881  2023-11-30 13:29:54.742744
882  2023-11-30 13:29:54.772672
883  2023-11-30 13:29:54.818149
884  2023-11-30 13:29:54.863922
885  2023-11-30 13:29:54.909394
886  2023-11-30 13:29:54.940692
887  2023-11-30 13:29:54.987567
888  2023-11-30 13:29:55.034476
889  2023-11-30 13:29:55.066334
890  2023-11-30 13:29:55.113012
891  2023-11-30 13:29:55.159347
892  2023-11-30 13:29:55.191088
893  2023-11-30 13:29:55.237303
894  2023-11-30 13:29:55.283162
895  2023-11-30 13:29:55.313957
896  2023-11-30 13:29:55.360814
897  2023-11-30 13:29:55.407788
898  2023-11-30 13:29:55.439438
899  2023-11-30 13:29:55.484392
900  2023-11-30 13:29:55.531718
901  2023-11-30 13:29:55.563495
902  2023-11-30 13:29:55.610480
903  2023-11-30 13:29:55.656415
904  2023-11-30 13:29:55.686860
905  2023-11-30 13:29:55.733515
906  2023-11-30 13:29:55.781464
907  2023-11-30 13:29:55.811610
908  2023-11-30 13:29:55.857562
909  2023-11-30 13:29:55.905000
910  2023-11-30 13:29:55.951150
911  2023-11-30 13:29:55.981550
912  2023-11-30 13:29:56.028072
913  2023-11-30 13:29:56.074728
914  2023-11-30 13:29:56.105099
915  2023-11-30 13:29:56.152444
916  2023-11-30 13:29:56.199416
917  2023-11-30 13:29:56.230869
918  2023-11-30 13:29:56.276418
919  2023-11-30 13:29:56.322873
920  2023-11-30 13:29:56.353809
921  2023-11-30 13:29:56.399698
922  2023-11-30 13:29:56.445909
923  2023-11-30 13:29:56.492374
924  2023-11-30 13:29:56.524466
925  2023-11-30 13:29:56.571924
926  2023-11-30 13:29:56.618428
927  2023-11-30 13:29:56.649197
928  2023-11-30 13:29:56.696107
929  2023-11-30 13:29:56.742456
930  2023-11-30 13:29:56.775398
931  2023-11-30 13:29:56.820894
932  2023-11-30 13:29:56.866986
933  2023-11-30 13:29:56.898852
934  2023-11-30 13:29:56.944808
935  2023-11-30 13:29:56.991855
936  2023-11-30 13:29:57.023861
937  2023-11-30 13:29:57.070803
938  2023-11-30 13:29:57.118271
939  2023-11-30 13:29:57.149714
940  2023-11-30 13:29:57.197098
941  2023-11-30 13:29:57.228119
942  2023-11-30 13:29:57.274563
943  2023-11-30 13:29:57.320770
944  2023-11-30 13:29:57.366862
945  2023-11-30 13:29:57.398670
946  2023-11-30 13:29:57.445048
947  2023-11-30 13:29:57.492860
948  2023-11-30 13:29:57.525593
949  2023-11-30 13:29:57.572627
950  2023-11-30 13:29:57.604447
951  2023-11-30 13:29:57.651845
952  2023-11-30 13:29:57.699598
953  2023-11-30 13:29:57.728923
954  2023-11-30 13:29:57.774953
955  2023-11-30 13:29:57.822612
956  2023-11-30 13:29:57.867822
957  2023-11-30 13:29:57.897516
958  2023-11-30 13:29:57.944355
959  2023-11-30 13:29:57.991855
960  2023-11-30 13:29:58.023572
961  2023-11-30 13:29:58.070523
962  2023-11-30 13:29:58.118204
963  2023-11-30 13:29:58.149961
964  2023-11-30 13:29:58.197498
965  2023-11-30 13:29:58.228934
966  2023-11-30 13:29:58.276886
967  2023-11-30 13:29:58.323697
968  2023-11-30 13:29:58.355071
969  2023-11-30 13:29:58.400294
970  2023-11-30 13:29:58.448481
971  2023-11-30 13:29:58.480513
972  2023-11-30 13:29:58.526777
973  2023-11-30 13:29:58.573072
974  2023-11-30 13:29:58.604086
975  2023-11-30 13:29:58.650447
976  2023-11-30 13:29:58.696865
977  2023-11-30 13:29:58.728808
978  2023-11-30 13:29:58.776428
979  2023-11-30 13:29:58.823867
980  2023-11-30 13:29:58.854838
981  2023-11-30 13:29:58.901635
982  2023-11-30 13:29:58.948761
983  2023-11-30 13:29:58.978961
984  2023-11-30 13:29:59.026298
985  2023-11-30 13:29:59.072381
986  2023-11-30 13:29:59.117680
987  2023-11-30 13:29:59.148423
988  2023-11-30 13:29:59.196522
989  2023-11-30 13:29:59.243392
990  2023-11-30 13:29:59.275201
991  2023-11-30 13:29:59.321497
992  2023-11-30 13:29:59.368179
993  2023-11-30 13:29:59.399887
994  2023-11-30 13:29:59.446514
995  2023-11-30 13:29:59.478889
996  2023-11-30 13:29:59.524155
997  2023-11-30 13:29:59.572219
998  2023-11-30 13:29:59.618701
999  2023-11-30 13:29:59.650592
1000  2023-11-30 13:29:59.695710
1001  2023-11-30 13:29:59.741479
1002  2023-11-30 13:29:59.771760
1003  2023-11-30 13:29:59.818620
1004  2023-11-30 13:29:59.864418
1005  2023-11-30 13:29:59.894847
1006  2023-11-30 13:29:59.941921
1007  2023-11-30 13:29:59.988278
1008  2023-11-30 13:30:00.019906
1009  2023-11-30 13:30:00.067944
1010  2023-11-30 13:30:00.115627
1011  2023-11-30 13:30:00.146152
1012  2023-11-30 13:30:00.193650
1013  2023-11-30 13:30:00.238770
1014  2023-11-30 13:30:00.269701
1015  2023-11-30 13:30:00.317484
1016  2023-11-30 13:30:00.363559
1017  2023-11-30 13:30:00.394807
1018  2023-11-30 13:30:00.440957
1019  2023-11-30 13:30:00.487052
1020  2023-11-30 13:30:00.533482
1021  2023-11-30 13:30:00.564279
1022  2023-11-30 13:30:00.610554
1023  2023-11-30 13:30:00.658163
1024  2023-11-30 13:30:00.690003
1025  2023-11-30 13:30:00.736173
1026  2023-11-30 13:30:00.783109
1027  2023-11-30 13:30:00.813602
1028  2023-11-30 13:30:00.861496
1029  2023-11-30 13:30:00.909073
1030  2023-11-30 13:30:00.939562
1031  2023-11-30 13:30:00.986587
1032  2023-11-30 13:30:01.033190
1033  2023-11-30 13:30:01.063549
1034  2023-11-30 13:30:01.110493
1035  2023-11-30 13:30:01.157649
1036  2023-11-30 13:30:01.188443
1037  2023-11-30 13:30:01.235227
1038  2023-11-30 13:30:01.281593
1039  2023-11-30 13:30:01.312680
1040  2023-11-30 13:30:01.360880
1041  2023-11-30 13:30:01.406765
1042  2023-11-30 13:30:01.438239
1043  2023-11-30 13:30:01.485734
1044  2023-11-30 13:30:01.530706
1045  2023-11-30 13:30:01.562867
1046  2023-11-30 13:30:01.609551
1047  2023-11-30 13:30:01.655812
1048  2023-11-30 13:30:01.687979
1049  2023-11-30 13:30:01.733741
1050  2023-11-30 13:30:01.780963
1051  2023-11-30 13:30:01.811535
1052  2023-11-30 13:30:01.858914
1053  2023-11-30 13:30:01.905834
1054  2023-11-30 13:30:01.937789
1055  2023-11-30 13:30:01.984492
1056  2023-11-30 13:30:02.032684
1057  2023-11-30 13:30:02.062973
1058  2023-11-30 13:30:02.109558
1059  2023-11-30 13:30:02.156459
1060  2023-11-30 13:30:02.187494
1061  2023-11-30 13:30:02.233583
1062  2023-11-30 13:30:02.279629
1063  2023-11-30 13:30:02.311536
1064  2023-11-30 13:30:02.358459
1065  2023-11-30 13:30:02.405507
1066  2023-11-30 13:30:02.451708
1067  2023-11-30 13:30:02.482683
1068  2023-11-30 13:30:02.529655
1069  2023-11-30 13:30:02.575712
1070  2023-11-30 13:30:02.606781
1071  2023-11-30 13:30:02.653215
1072  2023-11-30 13:30:02.699519
1073  2023-11-30 13:30:02.730744
1074  2023-11-30 13:30:02.778689
1075  2023-11-30 13:30:02.825667
1076  2023-11-30 13:30:02.856454
1077  2023-11-30 13:30:02.902441
1078  2023-11-30 13:30:02.948470
1079  2023-11-30 13:30:02.979473
1080  2023-11-30 13:30:03.026565
1081  2023-11-30 13:30:03.073890
1082  2023-11-30 13:30:03.104856
1083  2023-11-30 13:30:03.151872
1084  2023-11-30 13:30:03.199381
1085  2023-11-30 13:30:03.231152
1086  2023-11-30 13:30:03.278753
1087  2023-11-30 13:30:03.324786
1088  2023-11-30 13:30:03.356593
1089  2023-11-30 13:30:03.401406
1090  2023-11-30 13:30:03.447499
1091  2023-11-30 13:30:03.478488
1092  2023-11-30 13:30:03.526144
1093  2023-11-30 13:30:03.573425
1094  2023-11-30 13:30:03.604296
1095  2023-11-30 13:30:03.651498
1096  2023-11-30 13:30:03.699376
1097  2023-11-30 13:30:03.730548
1098  2023-11-30 13:30:03.777277
1099  2023-11-30 13:30:03.825156
1100  2023-11-30 13:30:03.857333
1101  2023-11-30 13:30:03.903149
1102  2023-11-30 13:30:03.950304
1103  2023-11-30 13:30:03.981131
1104  2023-11-30 13:30:04.028073
1105  2023-11-30 13:30:04.074738
1106  2023-11-30 13:30:04.105718
1107  2023-11-30 13:30:04.151536
1108  2023-11-30 13:30:04.199163
1109  2023-11-30 13:30:04.229411
1110  2023-11-30 13:30:04.276797
1111  2023-11-30 13:30:04.323179
1112  2023-11-30 13:30:04.354850
1113  2023-11-30 13:30:04.401525
1114  2023-11-30 13:30:04.449486
1115  2023-11-30 13:30:04.480124
1116  2023-11-30 13:30:04.527079
1117  2023-11-30 13:30:04.575720
1118  2023-11-30 13:30:04.606263
1119  2023-11-30 13:30:04.651282
1120  2023-11-30 13:30:04.697687
1121  2023-11-30 13:30:04.728790
1122  2023-11-30 13:30:04.776231
1123  2023-11-30 13:30:04.822409
1124  2023-11-30 13:30:04.867495
1125  2023-11-30 13:30:04.898607
1126  2023-11-30 13:30:04.946078
1127  2023-11-30 13:30:04.992908
1128  2023-11-30 13:30:05.024437
1129  2023-11-30 13:30:05.070832
1130  2023-11-30 13:30:05.117096
1131  2023-11-30 13:30:05.148033
1132  2023-11-30 13:30:05.194626
1133  2023-11-30 13:30:05.241209
1134  2023-11-30 13:30:05.271707
1135  2023-11-30 13:30:05.318008
1136  2023-11-30 13:30:05.366215
1137  2023-11-30 13:30:05.395639
1138  2023-11-30 13:30:05.441935
1139  2023-11-30 13:30:05.487911
1140  2023-11-30 13:30:05.535079
1141  2023-11-30 13:30:05.565303
1142  2023-11-30 13:30:05.612045
1143  2023-11-30 13:30:05.658434
1144  2023-11-30 13:30:05.690559
1145  2023-11-30 13:30:05.738435
1146  2023-11-30 13:30:05.770440
1147  2023-11-30 13:30:05.816635
1148  2023-11-30 13:30:05.864108
1149  2023-11-30 13:30:05.910019
1150  2023-11-30 13:30:05.940920
1151  2023-11-30 13:30:05.987325
1152  2023-11-30 13:30:06.033458
1153  2023-11-30 13:30:06.064452
1154  2023-11-30 13:30:06.110919
1155  2023-11-30 13:30:06.157848
1156  2023-11-30 13:30:06.188866
1157  2023-11-30 13:30:06.235175
1158  2023-11-30 13:30:06.282041
1159  2023-11-30 13:30:06.312878
1160  2023-11-30 13:30:06.358587
1161  2023-11-30 13:30:06.405598
1162  2023-11-30 13:30:06.451092
1163  2023-11-30 13:30:06.481915
1164  2023-11-30 13:30:06.529778
1165  2023-11-30 13:30:06.576219
1166  2023-11-30 13:30:06.607233
1167  2023-11-30 13:30:06.655492
1168  2023-11-30 13:30:06.702139
1169  2023-11-30 13:30:06.731898
1170  2023-11-30 13:30:06.778688
1171  2023-11-30 13:30:06.824606
1172  2023-11-30 13:30:06.856530
1173  2023-11-30 13:30:06.904060
1174  2023-11-30 13:30:06.950780
1175  2023-11-30 13:30:06.983030
1176  2023-11-30 13:30:07.028537
1177  2023-11-30 13:30:07.074543
1178  2023-11-30 13:30:07.105569
1179  2023-11-30 13:30:07.151482
1180  2023-11-30 13:30:07.197698
1181  2023-11-30 13:30:07.228444
1182  2023-11-30 13:30:07.274254
1183  2023-11-30 13:30:07.320976
1184  2023-11-30 13:30:07.367225
1185  2023-11-30 13:30:07.398354
1186  2023-11-30 13:30:07.445562
1187  2023-11-30 13:30:07.491987
1188  2023-11-30 13:30:07.523294
1189  2023-11-30 13:30:07.569895
1190  2023-11-30 13:30:07.616042
1191  2023-11-30 13:30:07.647233
1192  2023-11-30 13:30:07.695433
1193  2023-11-30 13:30:07.740976
1194  2023-11-30 13:30:07.770606
1195  2023-11-30 13:30:07.817027
1196  2023-11-30 13:30:07.864063
1197  2023-11-30 13:30:07.895005
1198  2023-11-30 13:30:07.942134
1199  2023-11-30 13:30:07.988635
1200  2023-11-30 13:30:08.034225
1201  2023-11-30 13:30:08.065114
1202  2023-11-30 13:30:08.111089
1203  2023-11-30 13:30:08.158093
1204  2023-11-30 13:30:08.189530
1205  2023-11-30 13:30:08.237349
1206  2023-11-30 13:30:08.285073
1207  2023-11-30 13:30:08.315713
1208  2023-11-30 13:30:08.362512
1209  2023-11-30 13:30:08.408415
1210  2023-11-30 13:30:08.439440
1211  2023-11-30 13:30:08.486451
1212  2023-11-30 13:30:08.534594
1213  2023-11-30 13:30:08.565242
1214  2023-11-30 13:30:08.611287
1215  2023-11-30 13:30:08.657432
1216  2023-11-30 13:30:08.689169
1217  2023-11-30 13:30:08.735463
1218  2023-11-30 13:30:08.782688
1219  2023-11-30 13:30:08.813392
1220  2023-11-30 13:30:08.860454
1221  2023-11-30 13:30:08.907389
1222  2023-11-30 13:30:08.937943
1223  2023-11-30 13:30:08.984422
1224  2023-11-30 13:30:09.031801
1225  2023-11-30 13:30:09.062675
1226  2023-11-30 13:30:09.108444
1227  2023-11-30 13:30:09.155993
1228  2023-11-30 13:30:09.187360
1229  2023-11-30 13:30:09.234726
1230  2023-11-30 13:30:09.279672
1231  2023-11-30 13:30:09.326416
1232  2023-11-30 13:30:09.357536
1233  2023-11-30 13:30:09.404140
1234  2023-11-30 13:30:09.451445
1235  2023-11-30 13:30:09.482142
1236  2023-11-30 13:30:09.529892
1237  2023-11-30 13:30:09.575475
1238  2023-11-30 13:30:09.606309
1239  2023-11-30 13:30:09.653589
1240  2023-11-30 13:30:09.699401
1241  2023-11-30 13:30:09.731063
1242  2023-11-30 13:30:09.776841
1243  2023-11-30 13:30:09.823535
1244  2023-11-30 13:30:09.854870
1245  2023-11-30 13:30:09.901460
1246  2023-11-30 13:30:09.948382
1247  2023-11-30 13:30:09.979407
1248  2023-11-30 13:30:10.027069
1249  2023-11-30 13:30:10.073377
1250  2023-11-30 13:30:10.117446
1251  2023-11-30 13:30:10.148859
1252  2023-11-30 13:30:10.195946
1253  2023-11-30 13:30:10.242286
1254  2023-11-30 13:30:10.273017
1255  2023-11-30 13:30:10.321258
1256  2023-11-30 13:30:10.367971
1257  2023-11-30 13:30:10.398688
1258  2023-11-30 13:30:10.446482
1259  2023-11-30 13:30:10.493671
1260  2023-11-30 13:30:10.524082
1261  2023-11-30 13:30:10.570287
1262  2023-11-30 13:30:10.615506
1263  2023-11-30 13:30:10.647325
1264  2023-11-30 13:30:10.693751
1265  2023-11-30 13:30:10.741574
1266  2023-11-30 13:30:10.772691
1267  2023-11-30 13:30:10.818564
1268  2023-11-30 13:30:10.864690
1269  2023-11-30 13:30:10.895378
1270  2023-11-30 13:30:10.942456
1271  2023-11-30 13:30:10.989589
1272  2023-11-30 13:30:11.021582
1273  2023-11-30 13:30:11.068498
1274  2023-11-30 13:30:11.114253
1275  2023-11-30 13:30:11.145565
1276  2023-11-30 13:30:11.193443
1277  2023-11-30 13:30:11.241258
1278  2023-11-30 13:30:11.272534
1279  2023-11-30 13:30:11.319173
1280  2023-11-30 13:30:11.365310
1281  2023-11-30 13:30:11.396076
1282  2023-11-30 13:30:11.442538
1283  2023-11-30 13:30:11.488261
1284  2023-11-30 13:30:11.534546
1285  2023-11-30 13:30:11.565224
1286  2023-11-30 13:30:11.611766
1287  2023-11-30 13:30:11.659277
1288  2023-11-30 13:30:11.689122
1289  2023-11-30 13:30:11.736523
1290  2023-11-30 13:30:11.784881
1291  2023-11-30 13:30:11.814521
1292  2023-11-30 13:30:11.861444
1293  2023-11-30 13:30:11.907406
1294  2023-11-30 13:30:11.937922
1295  2023-11-30 13:30:11.984452
1296  2023-11-30 13:30:12.030507
1297  2023-11-30 13:30:12.061500
1298  2023-11-30 13:30:12.109531
1299  2023-11-30 13:30:12.156673
1300  2023-11-30 13:30:12.188244
1301  2023-11-30 13:30:12.234560
1302  2023-11-30 13:30:12.281370
1303  2023-11-30 13:30:12.312643
1304  2023-11-30 13:30:12.359564
1305  2023-11-30 13:30:12.406404
1306  2023-11-30 13:30:12.437422
1307  2023-11-30 13:30:12.485403
1308  2023-11-30 13:30:12.533957
1309  2023-11-30 13:30:12.564442
1310  2023-11-30 13:30:12.611755
1311  2023-11-30 13:30:12.657493
1312  2023-11-30 13:30:12.689071
1313  2023-11-30 13:30:12.735840
1314  2023-11-30 13:30:12.781962
1315  2023-11-30 13:30:12.813906
1316  2023-11-30 13:30:12.860287
1317  2023-11-30 13:30:12.906416
1318  2023-11-30 13:30:12.937905
1319  2023-11-30 13:30:12.984076
1320  2023-11-30 13:30:13.032260
1321  2023-11-30 13:30:13.062696
1322  2023-11-30 13:30:13.108229
1323  2023-11-30 13:30:13.154524
1324  2023-11-30 13:30:13.200595
1325  2023-11-30 13:30:13.231401
1326  2023-11-30 13:30:13.278248
1327  2023-11-30 13:30:13.323447
1328  2023-11-30 13:30:13.355311
1329  2023-11-30 13:30:13.402478
1330  2023-11-30 13:30:13.450592
1331  2023-11-30 13:30:13.480989
1332  2023-11-30 13:30:13.528260
1333  2023-11-30 13:30:13.575433
1334  2023-11-30 13:30:13.607059
1335  2023-11-30 13:30:13.655329
1336  2023-11-30 13:30:13.700072
1337  2023-11-30 13:30:13.731043
1338  2023-11-30 13:30:13.778298
1339  2023-11-30 13:30:13.826065
1340  2023-11-30 13:30:13.856624
1341  2023-11-30 13:30:13.904499
1342  2023-11-30 13:30:13.951237
1343  2023-11-30 13:30:13.982384
1344  2023-11-30 13:30:14.028407
1345  2023-11-30 13:30:14.075273
1346  2023-11-30 13:30:14.106482
1347  2023-11-30 13:30:14.154005
1348  2023-11-30 13:30:14.200677
1349  2023-11-30 13:30:14.232601
1350  2023-11-30 13:30:14.278885
1351  2023-11-30 13:30:14.325754
1352  2023-11-30 13:30:14.356334
1353  2023-11-30 13:30:14.402855
1354  2023-11-30 13:30:14.450465
1355  2023-11-30 13:30:14.482789
1356  2023-11-30 13:30:14.528642
1357  2023-11-30 13:30:14.574065
1358  2023-11-30 13:30:14.606059
1359  2023-11-30 13:30:14.651598
1360  2023-11-30 13:30:14.697602
1361  2023-11-30 13:30:14.728468
1362  2023-11-30 13:30:14.776392
1363  2023-11-30 13:30:14.825213
1364  2023-11-30 13:30:14.855407
1365  2023-11-30 13:30:14.902409
1366  2023-11-30 13:30:14.949394
1367  2023-11-30 13:30:14.982355
1368  2023-11-30 13:30:15.028512
1369  2023-11-30 13:30:15.074684
1370  2023-11-30 13:30:15.106892
1371  2023-11-30 13:30:15.154560
1372  2023-11-30 13:30:15.201820
1373  2023-11-30 13:30:15.233153
1374  2023-11-30 13:30:15.279594
1375  2023-11-30 13:30:15.325693
1376  2023-11-30 13:30:15.356851
1377  2023-11-30 13:30:15.403399
1378  2023-11-30 13:30:15.450584
1379  2023-11-30 13:30:15.482041
1380  2023-11-30 13:30:15.528559
1381  2023-11-30 13:30:15.575679
1382  2023-11-30 13:30:15.607434
1383  2023-11-30 13:30:15.655377
1384  2023-11-30 13:30:15.686327
1385  2023-11-30 13:30:15.734153
1386  2023-11-30 13:30:15.779236
1387  2023-11-30 13:30:15.825997
1388  2023-11-30 13:30:15.856734
1389  2023-11-30 13:30:15.902989
1390  2023-11-30 13:30:15.949816
1391  2023-11-30 13:30:15.981317
1392  2023-11-30 13:30:16.027903
1393  2023-11-30 13:30:16.074524
1394  2023-11-30 13:30:16.106342
1395  2023-11-30 13:30:16.152675
1396  2023-11-30 13:30:16.199619
1397  2023-11-30 13:30:16.231239
1398  2023-11-30 13:30:16.278658
1399  2023-11-30 13:30:16.326062
1400  2023-11-30 13:30:16.357305
1401  2023-11-30 13:30:16.406080
1402  2023-11-30 13:30:16.436786
1403  2023-11-30 13:30:16.484923
1404  2023-11-30 13:30:16.533047
1405  2023-11-30 13:30:16.563514
1406  2023-11-30 13:30:16.608850
1407  2023-11-30 13:30:16.656259
1408  2023-11-30 13:30:16.687402
1409  2023-11-30 13:30:16.733818
1410  2023-11-30 13:30:16.780844
1411  2023-11-30 13:30:16.811750
1412  2023-11-30 13:30:16.858602
1413  2023-11-30 13:30:16.905678
1414  2023-11-30 13:30:16.937083
1415  2023-11-30 13:30:16.983438
1416  2023-11-30 13:30:17.030616
1417  2023-11-30 13:30:17.076633
1418  2023-11-30 13:30:17.108728
1419  2023-11-30 13:30:17.156177
1420  2023-11-30 13:30:17.188242
1421  2023-11-30 13:30:17.236046
1422  2023-11-30 13:30:17.281899
1423  2023-11-30 13:30:17.312923
1424  2023-11-30 13:30:17.358590
1425  2023-11-30 13:30:17.405914
1426  2023-11-30 13:30:17.437362
1427  2023-11-30 13:30:17.483195
1428  2023-11-30 13:30:17.531190
1429  2023-11-30 13:30:17.562599
1430  2023-11-30 13:30:17.608658
1431  2023-11-30 13:30:17.656138
1432  2023-11-30 13:30:17.688191
1433  2023-11-30 13:30:17.735028
1434  2023-11-30 13:30:17.783961
1435  2023-11-30 13:30:17.813919
1436  2023-11-30 13:30:17.861801
1437  2023-11-30 13:30:17.909648
1438  2023-11-30 13:30:17.941557
1439  2023-11-30 13:30:17.988696
1440  2023-11-30 13:30:18.034334
1441  2023-11-30 13:30:18.067226
1442  2023-11-30 13:30:18.114745
1443  2023-11-30 13:30:18.159210
1444  2023-11-30 13:30:18.191367
1445  2023-11-30 13:30:18.238233
1446  2023-11-30 13:30:18.284611
1447  2023-11-30 13:30:18.316400
1448  2023-11-30 13:30:18.363477
1449  2023-11-30 13:30:18.410157
1450  2023-11-30 13:30:18.441505
1451  2023-11-30 13:30:18.487277
1452  2023-11-30 13:30:18.534341
1453  2023-11-30 13:30:18.565067
1454  2023-11-30 13:30:18.613371
1455  2023-11-30 13:30:18.659363
1456  2023-11-30 13:30:18.692015
1457  2023-11-30 13:30:18.738222
1458  2023-11-30 13:30:18.785950
1459  2023-11-30 13:30:18.815449
1460  2023-11-30 13:30:18.861843
1461  2023-11-30 13:30:18.908493
1462  2023-11-30 13:30:18.940561
1463  2023-11-30 13:30:18.986496
1464  2023-11-30 13:30:19.033065
1465  2023-11-30 13:30:19.064101
1466  2023-11-30 13:30:19.111954
1467  2023-11-30 13:30:19.158027
1468  2023-11-30 13:30:19.188624
1469  2023-11-30 13:30:19.234422
1470  2023-11-30 13:30:19.281385
1471  2023-11-30 13:30:19.313516
1472  2023-11-30 13:30:19.358390
1473  2023-11-30 13:30:19.404678
1474  2023-11-30 13:30:19.451462
1475  2023-11-30 13:30:19.482156
1476  2023-11-30 13:30:19.528392
1477  2023-11-30 13:30:19.576165
1478  2023-11-30 13:30:19.606417
1479  2023-11-30 13:30:19.653121
1480  2023-11-30 13:30:19.700367
1481  2023-11-30 13:30:19.731211
1482  2023-11-30 13:30:19.779339
1483  2023-11-30 13:30:19.811343
1484  2023-11-30 13:30:19.858457
1485  2023-11-30 13:30:19.905819
1486  2023-11-30 13:30:19.950548
1487  2023-11-30 13:30:19.981157
1488  2023-11-30 13:30:20.027615
1489  2023-11-30 13:30:20.074375
1490  2023-11-30 13:30:20.106102
1491  2023-11-30 13:30:20.151809
1492  2023-11-30 13:30:20.198849
1493  2023-11-30 13:30:20.230699
1494  2023-11-30 13:30:20.277158
1495  2023-11-30 13:30:20.324197
1496  2023-11-30 13:30:20.356258
1497  2023-11-30 13:30:20.403610
1498  2023-11-30 13:30:20.449985
1499  2023-11-30 13:30:20.480889
1500  2023-11-30 13:30:20.529127
1501  2023-11-30 13:30:20.577361
1502  2023-11-30 13:30:20.606991
1503  2023-11-30 13:30:20.652796
1504  2023-11-30 13:30:20.699823
1505  2023-11-30 13:30:20.730449
1506  2023-11-30 13:30:20.777413
1507  2023-11-30 13:30:20.823023
1508  2023-11-30 13:30:20.853577
1509  2023-11-30 13:30:20.900473
1510  2023-11-30 13:30:20.947888
1511  2023-11-30 13:30:20.979483
1512  2023-11-30 13:30:21.026326
1513  2023-11-30 13:30:21.072942
1514  2023-11-30 13:30:21.104026
1515  2023-11-30 13:30:21.150332
1516  2023-11-30 13:30:21.197516
1517  2023-11-30 13:30:21.243536
1518  2023-11-30 13:30:21.275555
1519  2023-11-30 13:30:21.322427
1520  2023-11-30 13:30:21.353581
1521  2023-11-30 13:30:21.400494
1522  2023-11-30 13:30:21.447184
1523  2023-11-30 13:30:21.478926
1524  2023-11-30 13:30:21.526100
1525  2023-11-30 13:30:21.573493
1526  2023-11-30 13:30:21.604495
1527  2023-11-30 13:30:21.651738
1528  2023-11-30 13:30:21.698972
1529  2023-11-30 13:30:21.730310
1530  2023-11-30 13:30:21.777380
1531  2023-11-30 13:30:21.824777
1532  2023-11-30 13:30:21.856868
1533  2023-11-30 13:30:21.902062
1534  2023-11-30 13:30:21.949339
1535  2023-11-30 13:30:21.980267
1536  2023-11-30 13:30:22.027035
1537  2023-11-30 13:30:22.074234
1538  2023-11-30 13:30:22.105645
1539  2023-11-30 13:30:22.151578
1540  2023-11-30 13:30:22.197634
1541  2023-11-30 13:30:22.228662
1542  2023-11-30 13:30:22.275344
1543  2023-11-30 13:30:22.322469
1544  2023-11-30 13:30:22.353855
1545  2023-11-30 13:30:22.400022
1546  2023-11-30 13:30:22.447199
1547  2023-11-30 13:30:22.492909
1548  2023-11-30 13:30:22.524223
1549  2023-11-30 13:30:22.570692
1550  2023-11-30 13:30:22.618489
1551  2023-11-30 13:30:22.648889
1552  2023-11-30 13:30:22.695515
1553  2023-11-30 13:30:22.742433
1554  2023-11-30 13:30:22.775428
1555  2023-11-30 13:30:22.822421
1556  2023-11-30 13:30:22.853385
1557  2023-11-30 13:30:22.899203
1558  2023-11-30 13:30:22.945717
1559  2023-11-30 13:30:22.993244
1560  2023-11-30 13:30:23.024712
1561  2023-11-30 13:30:23.070315
1562  2023-11-30 13:30:23.117306
1563  2023-11-30 13:30:23.148264
1564  2023-11-30 13:30:23.195508
1565  2023-11-30 13:30:23.243494
1566  2023-11-30 13:30:23.275289
1567  2023-11-30 13:30:23.322527
1568  2023-11-30 13:30:23.354651
1569  2023-11-30 13:30:23.401712
1570  2023-11-30 13:30:23.447867
1571  2023-11-30 13:30:23.479836
1572  2023-11-30 13:30:23.525567
1573  2023-11-30 13:30:23.572474
1574  2023-11-30 13:30:23.604291
1575  2023-11-30 13:30:23.650350
1576  2023-11-30 13:30:23.696502
1577  2023-11-30 13:30:23.744014
1578  2023-11-30 13:30:23.774543
1579  2023-11-30 13:30:23.819647
1580  2023-11-30 13:30:23.865891
1581  2023-11-30 13:30:23.896409
1582  2023-11-30 13:30:23.943418
1583  2023-11-30 13:30:23.990724
1584  2023-11-30 13:30:24.021624
1585  2023-11-30 13:30:24.068789
1586  2023-11-30 13:30:24.114807
1587  2023-11-30 13:30:24.145629
1588  2023-11-30 13:30:24.192381
1589  2023-11-30 13:30:24.240341
1590  2023-11-30 13:30:24.272501
1591  2023-11-30 13:30:24.318275
1592  2023-11-30 13:30:24.366533
1593  2023-11-30 13:30:24.396418
1594  2023-11-30 13:30:24.442879
1595  2023-11-30 13:30:24.488437
1596  2023-11-30 13:30:24.535052
1597  2023-11-30 13:30:24.565422
1598  2023-11-30 13:30:24.611770
1599  2023-11-30 13:30:24.658713
1600  2023-11-30 13:30:24.690487
1601  2023-11-30 13:30:24.737142
1602  2023-11-30 13:30:24.784159
1603  2023-11-30 13:30:24.815383
1604  2023-11-30 13:30:24.863370
1605  2023-11-30 13:30:24.910581
1606  2023-11-30 13:30:24.942677
1607  2023-11-30 13:30:24.989327
1608  2023-11-30 13:30:25.034964
1609  2023-11-30 13:30:25.066398
1610  2023-11-30 13:30:25.114491
1611  2023-11-30 13:30:25.159475
1612  2023-11-30 13:30:25.190702
1613  2023-11-30 13:30:25.238437
1614  2023-11-30 13:30:25.285183
1615  2023-11-30 13:30:25.316501
1616  2023-11-30 13:30:25.363957
1617  2023-11-30 13:30:25.395041
1618  2023-11-30 13:30:25.441883
1619  2023-11-30 13:30:25.488558
1620  2023-11-30 13:30:25.520244
1621  2023-11-30 13:30:25.567632
1622  2023-11-30 13:30:25.614866
1623  2023-11-30 13:30:25.646113
1624  2023-11-30 13:30:25.694387
1625  2023-11-30 13:30:25.740839
1626  2023-11-30 13:30:25.771718
1627  2023-11-30 13:30:25.817886
1628  2023-11-30 13:30:25.864761
1629  2023-11-30 13:30:25.896429
1630  2023-11-30 13:30:25.943425
1631  2023-11-30 13:30:25.990609
1632  2023-11-30 13:30:26.021556
1633  2023-11-30 13:30:26.068483
1634  2023-11-30 13:30:26.114849
1635  2023-11-30 13:30:26.145906
1636  2023-11-30 13:30:26.192332
1637  2023-11-30 13:30:26.238656
1638  2023-11-30 13:30:26.285374
1639  2023-11-30 13:30:26.315078
1640  2023-11-30 13:30:26.363382
1641  2023-11-30 13:30:26.409459
1642  2023-11-30 13:30:26.441040
1643  2023-11-30 13:30:26.487534
1644  2023-11-30 13:30:26.534152
1645  2023-11-30 13:30:26.565454
1646  2023-11-30 13:30:26.611963
1647  2023-11-30 13:30:26.658372
1648  2023-11-30 13:30:26.689709
1649  2023-11-30 13:30:26.736255
1650  2023-11-30 13:30:26.783116
1651  2023-11-30 13:30:26.813209
1652  2023-11-30 13:30:26.859617
1653  2023-11-30 13:30:26.907677
1654  2023-11-30 13:30:26.940469
1655  2023-11-30 13:30:26.987586
1656  2023-11-30 13:30:27.033018
1657  2023-11-30 13:30:27.064241
1658  2023-11-30 13:30:27.111457
1659  2023-11-30 13:30:27.158638
1660  2023-11-30 13:30:27.189596
1661  2023-11-30 13:30:27.234379
1662  2023-11-30 13:30:27.280803
1663  2023-11-30 13:30:27.311957
1664  2023-11-30 13:30:27.358355
1665  2023-11-30 13:30:27.405391
1666  2023-11-30 13:30:27.437379
1667  2023-11-30 13:30:27.485223
1668  2023-11-30 13:30:27.532347
1669  2023-11-30 13:30:27.563690
1670  2023-11-30 13:30:27.609484
1671  2023-11-30 13:30:27.656419
1672  2023-11-30 13:30:27.687927
1673  2023-11-30 13:30:27.734299
1674  2023-11-30 13:30:27.781101
1675  2023-11-30 13:30:27.811744
1676  2023-11-30 13:30:27.858669
1677  2023-11-30 13:30:27.905056
1678  2023-11-30 13:30:27.936922
1679  2023-11-30 13:30:27.983291
1680  2023-11-30 13:30:28.030078
1681  2023-11-30 13:30:28.061449
1682  2023-11-30 13:30:28.107723
1683  2023-11-30 13:30:28.155633
1684  2023-11-30 13:30:28.186614
1685  2023-11-30 13:30:28.235590
1686  2023-11-30 13:30:28.282280
1687  2023-11-30 13:30:28.311877
1688  2023-11-30 13:30:28.357576
1689  2023-11-30 13:30:28.403990
1690  2023-11-30 13:30:28.450004
1691  2023-11-30 13:30:28.481350
1692  2023-11-30 13:30:28.528058
1693  2023-11-30 13:30:28.575319
1694  2023-11-30 13:30:28.605702
1695  2023-11-30 13:30:28.653411
1696  2023-11-30 13:30:28.698729
1697  2023-11-30 13:30:28.731421
1698  2023-11-30 13:30:28.778264
1699  2023-11-30 13:30:28.827579
1700  2023-11-30 13:30:28.855669
1701  2023-11-30 13:30:28.902264
1702  2023-11-30 13:30:28.947617
1703  2023-11-30 13:30:28.979145
1704  2023-11-30 13:30:29.025490
1705  2023-11-30 13:30:29.072845
1706  2023-11-30 13:30:29.104174
1707  2023-11-30 13:30:29.150520
1708  2023-11-30 13:30:29.198450
1709  2023-11-30 13:30:29.229379
1710  2023-11-30 13:30:29.276404
1711  2023-11-30 13:30:29.325224
1712  2023-11-30 13:30:29.356157
1713  2023-11-30 13:30:29.403203
1714  2023-11-30 13:30:29.450372
1715  2023-11-30 13:30:29.481394
1716  2023-11-30 13:30:29.527513
1717  2023-11-30 13:30:29.574623
1718  2023-11-30 13:30:29.605536
1719  2023-11-30 13:30:29.652107
1720  2023-11-30 13:30:29.697671
1721  2023-11-30 13:30:29.728851
1722  2023-11-30 13:30:29.774779
1723  2023-11-30 13:30:29.820750
1724  2023-11-30 13:30:29.867631
1725  2023-11-30 13:30:29.898697
1726  2023-11-30 13:30:29.947375
1727  2023-11-30 13:30:29.993270
1728  2023-11-30 13:30:30.026512
1729  2023-11-30 13:30:30.072528
1730  2023-11-30 13:30:30.104517
1731  2023-11-30 13:30:30.152538
1732  2023-11-30 13:30:30.200285
1733  2023-11-30 13:30:30.230804
1734  2023-11-30 13:30:30.277117
1735  2023-11-30 13:30:30.323249
1736  2023-11-30 13:30:30.353625
1737  2023-11-30 13:30:30.400413
1738  2023-11-30 13:30:30.446969
1739  2023-11-30 13:30:30.493461
1740  2023-11-30 13:30:30.524010
1741  2023-11-30 13:30:30.571460
1742  2023-11-30 13:30:30.618027
1743  2023-11-30 13:30:30.649430
1744  2023-11-30 13:30:30.696434
1745  2023-11-30 13:30:30.742776
1746  2023-11-30 13:30:30.774206
1747  2023-11-30 13:30:30.822413
1748  2023-11-30 13:30:30.853936
1749  2023-11-30 13:30:30.899365
1750  2023-11-30 13:30:30.945357
1751  2023-11-30 13:30:30.991741
1752  2023-11-30 13:30:31.022849
1753  2023-11-30 13:30:31.071002
1754  2023-11-30 13:30:31.117917
1755  2023-11-30 13:30:31.149285
1756  2023-11-30 13:30:31.195056
1757  2023-11-30 13:30:31.242050
1758  2023-11-30 13:30:31.273489
1759  2023-11-30 13:30:31.323189
1760  2023-11-30 13:30:31.354974
1761  2023-11-30 13:30:31.400375
1762  2023-11-30 13:30:31.448415
1763  2023-11-30 13:30:31.479444
1764  2023-11-30 13:30:31.524645
1765  2023-11-30 13:30:31.571918
1766  2023-11-30 13:30:31.618506
1767  2023-11-30 13:30:31.650350
1768  2023-11-30 13:30:31.696745
1769  2023-11-30 13:30:31.743407
1770  2023-11-30 13:30:31.774329
1771  2023-11-30 13:30:31.821408
1772  2023-11-30 13:30:31.868066
1773  2023-11-30 13:30:31.899216
1774  2023-11-30 13:30:31.945375
1775  2023-11-30 13:30:31.991454
1776  2023-11-30 13:30:32.021600
1777  2023-11-30 13:30:32.070419
1778  2023-11-30 13:30:32.118530
1779  2023-11-30 13:30:32.149338
1780  2023-11-30 13:30:32.195103
1781  2023-11-30 13:30:32.240835
1782  2023-11-30 13:30:32.271972
1783  2023-11-30 13:30:32.319881
1784  2023-11-30 13:30:32.365793
1785  2023-11-30 13:30:32.397145
1786  2023-11-30 13:30:32.443913
1787  2023-11-30 13:30:32.490405
1788  2023-11-30 13:30:32.521277
1789  2023-11-30 13:30:32.567685
1790  2023-11-30 13:30:32.617409
1791  2023-11-30 13:30:32.659430
1792  2023-11-30 13:30:32.689820
1793  2023-11-30 13:30:32.737168
1794  2023-11-30 13:30:32.783361
1795  2023-11-30 13:30:32.815230
1796  2023-11-30 13:30:32.862017
1797  2023-11-30 13:30:32.909489
1798  2023-11-30 13:30:32.940028
1799  2023-11-30 13:30:32.987556
1800  2023-11-30 13:30:33.019897
1801  2023-11-30 13:30:33.066373
1802  2023-11-30 13:30:33.113692
1803  2023-11-30 13:30:33.159876
1804  2023-11-30 13:30:33.193327
1805  2023-11-30 13:30:33.238604
1806  2023-11-30 13:30:33.270627
1807  2023-11-30 13:30:33.319295
1808  2023-11-30 13:30:33.366546
1809  2023-11-30 13:30:33.397778
1810  2023-11-30 13:30:33.443710
1811  2023-11-30 13:30:33.490367
1812  2023-11-30 13:30:33.520880
1813  2023-11-30 13:30:33.566811
1814  2023-11-30 13:30:33.612576
1815  2023-11-30 13:30:33.659406
1816  2023-11-30 13:30:33.691430
1817  2023-11-30 13:30:33.737421
1818  2023-11-30 13:30:33.784370
1819  2023-11-30 13:30:33.818600
1820  2023-11-30 13:30:33.864771
1821  2023-11-30 13:30:33.910635
1822  2023-11-30 13:30:33.942309
1823  2023-11-30 13:30:33.989655
1824  2023-11-30 13:30:34.022158
1825  2023-11-30 13:30:34.067152
1826  2023-11-30 13:30:34.114864
1827  2023-11-30 13:30:34.159463
1828  2023-11-30 13:30:34.191072
1829  2023-11-30 13:30:34.237475
1830  2023-11-30 13:30:34.283631
1831  2023-11-30 13:30:34.314407
1832  2023-11-30 13:30:34.361019
1833  2023-11-30 13:30:34.407587
1834  2023-11-30 13:30:34.438677
1835  2023-11-30 13:30:34.485663
1836  2023-11-30 13:30:34.533558
1837  2023-11-30 13:30:34.565293
1838  2023-11-30 13:30:34.610736
1839  2023-11-30 13:30:34.656420
1840  2023-11-30 13:30:34.687848
1841  2023-11-30 13:30:34.733466
1842  2023-11-30 13:30:34.780215
1843  2023-11-30 13:30:34.811359
1844  2023-11-30 13:30:34.858975
1845  2023-11-30 13:30:34.906256
1846  2023-11-30 13:30:34.936597
1847  2023-11-30 13:30:34.983841
1848  2023-11-30 13:30:35.030253
1849  2023-11-30 13:30:35.061256
1850  2023-11-30 13:30:35.109324
1851  2023-11-30 13:30:35.156863
1852  2023-11-30 13:30:35.186625
1853  2023-11-30 13:30:35.232544
1854  2023-11-30 13:30:35.279616
1855  2023-11-30 13:30:35.326328
1856  2023-11-30 13:30:35.357022
1857  2023-11-30 13:30:35.403843
1858  2023-11-30 13:30:35.449959
1859  2023-11-30 13:30:35.481141
1860  2023-11-30 13:30:35.528120
1861  2023-11-30 13:30:35.575430
1862  2023-11-30 13:30:35.606764
1863  2023-11-30 13:30:35.653871
1864  2023-11-30 13:30:35.702393
1865  2023-11-30 13:30:35.732381
1866  2023-11-30 13:30:35.780830
1867  2023-11-30 13:30:35.825144
1868  2023-11-30 13:30:35.855836
1869  2023-11-30 13:30:35.903219
1870  2023-11-30 13:30:35.948597
1871  2023-11-30 13:30:35.980454
1872  2023-11-30 13:30:36.027454
1873  2023-11-30 13:30:36.074488
1874  2023-11-30 13:30:36.105412
1875  2023-11-30 13:30:36.153009
1876  2023-11-30 13:30:36.199330
1877  2023-11-30 13:30:36.230563
1878  2023-11-30 13:30:36.278388
1879  2023-11-30 13:30:36.326259
1880  2023-11-30 13:30:36.356994
1881  2023-11-30 13:30:36.405303
1882  2023-11-30 13:30:36.449262
1883  2023-11-30 13:30:36.480810
1884  2023-11-30 13:30:36.527615
1885  2023-11-30 13:30:36.572907
1886  2023-11-30 13:30:36.604482
1887  2023-11-30 13:30:36.650471
1888  2023-11-30 13:30:36.698375
1889  2023-11-30 13:30:36.730535
1890  2023-11-30 13:30:36.776863
1891  2023-11-30 13:30:36.822908
1892  2023-11-30 13:30:36.854806
1893  2023-11-30 13:30:36.901391
1894  2023-11-30 13:30:36.948890
1895  2023-11-30 13:30:36.979759
1896  2023-11-30 13:30:37.027478
1897  2023-11-30 13:30:37.076645
1898  2023-11-30 13:30:37.107482
1899  2023-11-30 13:30:37.151757
1900  2023-11-30 13:30:37.197989
1901  2023-11-30 13:30:37.229299
1902  2023-11-30 13:30:37.276584
1903  2023-11-30 13:30:37.324023
1904  2023-11-30 13:30:37.354400
1905  2023-11-30 13:30:37.401242
1906  2023-11-30 13:30:37.447279
1907  2023-11-30 13:30:37.478990
1908  2023-11-30 13:30:37.524186
1909  2023-11-30 13:30:37.571685
1910  2023-11-30 13:30:37.618484
1911  2023-11-30 13:30:37.648190
1912  2023-11-30 13:30:37.694996
1913  2023-11-30 13:30:37.741003
1914  2023-11-30 13:30:37.772938
1915  2023-11-30 13:30:37.819510
1916  2023-11-30 13:30:37.866761
1917  2023-11-30 13:30:37.897334
1918  2023-11-30 13:30:37.944863
1919  2023-11-30 13:30:37.991608
1920  2023-11-30 13:30:38.021897
1921  2023-11-30 13:30:38.067892
1922  2023-11-30 13:30:38.115547
1923  2023-11-30 13:30:38.146853
1924  2023-11-30 13:30:38.194322
1925  2023-11-30 13:30:38.242942
1926  2023-11-30 13:30:38.271433
1927  2023-11-30 13:30:38.318242
1928  2023-11-30 13:30:38.366422
1929  2023-11-30 13:30:38.397055
1930  2023-11-30 13:30:38.443827
1931  2023-11-30 13:30:38.491456
1932  2023-11-30 13:30:38.522470
1933  2023-11-30 13:30:38.568580
1934  2023-11-30 13:30:38.615426
1935  2023-11-30 13:30:38.646901
1936  2023-11-30 13:30:38.693228
1937  2023-11-30 13:30:38.740502
1938  2023-11-30 13:30:38.772901
1939  2023-11-30 13:30:38.818191
1940  2023-11-30 13:30:38.865465
1941  2023-11-30 13:30:38.897343
1942  2023-11-30 13:30:38.944888
1943  2023-11-30 13:30:38.991543
1944  2023-11-30 13:30:39.022527
1945  2023-11-30 13:30:39.069408
1946  2023-11-30 13:30:39.116280
1947  2023-11-30 13:30:39.148193
1948  2023-11-30 13:30:39.196106
1949  2023-11-30 13:30:39.227982
1950  2023-11-30 13:30:39.275851
1951  2023-11-30 13:30:39.322663
1952  2023-11-30 13:30:39.353156
1953  2023-11-30 13:30:39.399917
1954  2023-11-30 13:30:39.446528
1955  2023-11-30 13:30:39.492572
1956  2023-11-30 13:30:39.524792
1957  2023-11-30 13:30:39.571870
1958  2023-11-30 13:30:39.618236
1959  2023-11-30 13:30:39.648906
1960  2023-11-30 13:30:39.697261
1961  2023-11-30 13:30:39.747114
1962  2023-11-30 13:30:39.774031
1963  2023-11-30 13:30:39.820361
1964  2023-11-30 13:30:39.866713
1965  2023-11-30 13:30:39.898546
1966  2023-11-30 13:30:39.946124
1967  2023-11-30 13:30:39.992433
1968  2023-11-30 13:30:40.023195
1969  2023-11-30 13:30:40.069968
1970  2023-11-30 13:30:40.116152
1971  2023-11-30 13:30:40.148062
1972  2023-11-30 13:30:40.195085
1973  2023-11-30 13:30:40.241618
1974  2023-11-30 13:30:40.272850
1975  2023-11-30 13:30:40.319871
1976  2023-11-30 13:30:40.365017
1977  2023-11-30 13:30:40.396641
1978  2023-11-30 13:30:40.443287
1979  2023-11-30 13:30:40.491140
1980  2023-11-30 13:30:40.522560
1981  2023-11-30 13:30:40.569417
1982  2023-11-30 13:30:40.617036
1983  2023-11-30 13:30:40.648951
1984  2023-11-30 13:30:40.695845
1985  2023-11-30 13:30:40.742959
1986  2023-11-30 13:30:40.775991
1987  2023-11-30 13:30:40.820503
1988  2023-11-30 13:30:40.868774
1989  2023-11-30 13:30:40.898464
1990  2023-11-30 13:30:40.945499
1991  2023-11-30 13:30:40.993437
1992  2023-11-30 13:30:41.023495
1993  2023-11-30 13:30:41.069823
1994  2023-11-30 13:30:41.116854
1995  2023-11-30 13:30:41.148316
1996  2023-11-30 13:30:41.194855
1997  2023-11-30 13:30:41.242434
1998  2023-11-30 13:30:41.274595
1999  2023-11-30 13:30:41.322605
2000  2023-11-30 13:30:41.353143
2001  2023-11-30 13:30:41.399953
2002  2023-11-30 13:30:41.447161
2003  2023-11-30 13:30:41.492612
2004  2023-11-30 13:30:41.524014
2005  2023-11-30 13:30:41.570657
2006  2023-11-30 13:30:41.617007
2007  2023-11-30 13:30:41.648507
2008  2023-11-30 13:30:41.695416
2009  2023-11-30 13:30:41.743014
2010  2023-11-30 13:30:41.774592
2011  2023-11-30 13:30:41.820549
2012  2023-11-30 13:30:41.866242
2013  2023-11-30 13:30:41.897393
2014  2023-11-30 13:30:41.944170
2015  2023-11-30 13:30:41.992123
2016  2023-11-30 13:30:42.022772
2017  2023-11-30 13:30:42.070765
2018  2023-11-30 13:30:42.117640
2019  2023-11-30 13:30:42.148314
2020  2023-11-30 13:30:42.195473
2021  2023-11-30 13:30:42.242447
2022  2023-11-30 13:30:42.273235
2023  2023-11-30 13:30:42.320722
2024  2023-11-30 13:30:42.367913
2025  2023-11-30 13:30:42.399988
2026  2023-11-30 13:30:42.447193
2027  2023-11-30 13:30:42.495803
2028  2023-11-30 13:30:42.524148
2029  2023-11-30 13:30:42.570663
2030  2023-11-30 13:30:42.616368
2031  2023-11-30 13:30:42.648284
2032  2023-11-30 13:30:42.694585
2033  2023-11-30 13:30:42.739896
2034  2023-11-30 13:30:42.770422
2035  2023-11-30 13:30:42.816988
2036  2023-11-30 13:30:42.864855
2037  2023-11-30 13:30:42.896275
2038  2023-11-30 13:30:42.944147
2039  2023-11-30 13:30:42.991767
2040  2023-11-30 13:30:43.022355
2041  2023-11-30 13:30:43.070806
2042  2023-11-30 13:30:43.117681
2043  2023-11-30 13:30:43.147848
2044  2023-11-30 13:30:43.194402
2045  2023-11-30 13:30:43.240971
2046  2023-11-30 13:30:43.271384
2047  2023-11-30 13:30:43.318441
2048  2023-11-30 13:30:43.365012
2049  2023-11-30 13:30:43.395466
2050  2023-11-30 13:30:43.441435
2051  2023-11-30 13:30:43.489072
2052  2023-11-30 13:30:43.520553
2053  2023-11-30 13:30:43.568383
2054  2023-11-30 13:30:43.614076
2055  2023-11-30 13:30:43.645735
2056  2023-11-30 13:30:43.691574
2057  2023-11-30 13:30:43.738616
2058  2023-11-30 13:30:43.769738
2059  2023-11-30 13:30:43.816454
2060  2023-11-30 13:30:43.864347
2061  2023-11-30 13:30:43.896257
2062  2023-11-30 13:30:43.943262
2063  2023-11-30 13:30:43.989668
2064  2023-11-30 13:30:44.021270
2065  2023-11-30 13:30:44.067935
2066  2023-11-30 13:30:44.115007
2067  2023-11-30 13:30:44.146809
2068  2023-11-30 13:30:44.192698
2069  2023-11-30 13:30:44.240030
2070  2023-11-30 13:30:44.271061
2071  2023-11-30 13:30:44.316828
2072  2023-11-30 13:30:44.366037
2073  2023-11-30 13:30:44.398053
2074  2023-11-30 13:30:44.441273
2075  2023-11-30 13:30:44.487329
2076  2023-11-30 13:30:44.534552
2077  2023-11-30 13:30:44.566212
2078  2023-11-30 13:30:44.614427
2079  2023-11-30 13:30:44.645433
2080  2023-11-30 13:30:44.691945
2081  2023-11-30 13:30:44.737997
2082  2023-11-30 13:30:44.784729
2083  2023-11-30 13:30:44.815619
2084  2023-11-30 13:30:44.863131
2085  2023-11-30 13:30:44.909042
2086  2023-11-30 13:30:44.941456
2087  2023-11-30 13:30:44.988277
2088  2023-11-30 13:30:45.033730
2089  2023-11-30 13:30:45.065173
2090  2023-11-30 13:30:45.111419
2091  2023-11-30 13:30:45.157493
2092  2023-11-30 13:30:45.189101
2093  2023-11-30 13:30:45.235408
2094  2023-11-30 13:30:45.282847
2095  2023-11-30 13:30:45.314722
2096  2023-11-30 13:30:45.361595
2097  2023-11-30 13:30:45.409879
2098  2023-11-30 13:30:45.441437
2099  2023-11-30 13:30:45.487386
2100  2023-11-30 13:30:45.534561
2101  2023-11-30 13:30:45.567434
2102  2023-11-30 13:30:45.615425
2103  2023-11-30 13:30:45.646373
2104  2023-11-30 13:30:45.692666
2105  2023-11-30 13:30:45.736746
2106  2023-11-30 13:30:45.783392
2107  2023-11-30 13:30:45.815562
2108  2023-11-30 13:30:45.862386
2109  2023-11-30 13:30:45.909563
2110  2023-11-30 13:30:45.940643
2111  2023-11-30 13:30:45.987347
2112  2023-11-30 13:30:46.034285
2113  2023-11-30 13:30:46.064943
2114  2023-11-30 13:30:46.112267
2115  2023-11-30 13:30:46.157976
2116  2023-11-30 13:30:46.188763
2117  2023-11-30 13:30:46.235572
2118  2023-11-30 13:30:46.283603
2119  2023-11-30 13:30:46.316460
2120  2023-11-30 13:30:46.360518
2121  2023-11-30 13:30:46.406203
2122  2023-11-30 13:30:46.438287
2123  2023-11-30 13:30:46.484113
2124  2023-11-30 13:30:46.530102
2125  2023-11-30 13:30:46.576771
2126  2023-11-30 13:30:46.606585
2127  2023-11-30 13:30:46.654050
2128  2023-11-30 13:30:46.701301
2129  2023-11-30 13:30:46.733365
2130  2023-11-30 13:30:46.779111
2131  2023-11-30 13:30:46.827649
2132  2023-11-30 13:30:46.859259
2133  2023-11-30 13:30:46.904325
2134  2023-11-30 13:30:46.936281
2135  2023-11-30 13:30:46.983317
2136  2023-11-30 13:30:47.029552
2137  2023-11-30 13:30:47.062002
2138  2023-11-30 13:30:47.108425
2139  2023-11-30 13:30:47.155315
2140  2023-11-30 13:30:47.201112
2141  2023-11-30 13:30:47.232554
2142  2023-11-30 13:30:47.279041
2143  2023-11-30 13:30:47.326388
2144  2023-11-30 13:30:47.357391
2145  2023-11-30 13:30:47.405877
2146  2023-11-30 13:30:47.452917
2147  2023-11-30 13:30:47.483378
2148  2023-11-30 13:30:47.528565
2149  2023-11-30 13:30:47.574444
2150  2023-11-30 13:30:47.605650
2151  2023-11-30 13:30:47.651387
2152  2023-11-30 13:30:47.698608
2153  2023-11-30 13:30:47.729354
2154  2023-11-30 13:30:47.776748
2155  2023-11-30 13:30:47.822590
2156  2023-11-30 13:30:47.853527
2157  2023-11-30 13:30:47.900243
2158  2023-11-30 13:30:47.947616
2159  2023-11-30 13:30:47.978284
2160  2023-11-30 13:30:48.026006
2161  2023-11-30 13:30:48.072880
2162  2023-11-30 13:30:48.105581
2163  2023-11-30 13:30:48.152246
2164  2023-11-30 13:30:48.197457
2165  2023-11-30 13:30:48.228590
2166  2023-11-30 13:30:48.274209
2167  2023-11-30 13:30:48.320001
2168  2023-11-30 13:30:48.367034
2169  2023-11-30 13:30:48.398943
2170  2023-11-30 13:30:48.445367
2171  2023-11-30 13:30:48.492310
2172  2023-11-30 13:30:48.525374
2173  2023-11-30 13:30:48.571599
2174  2023-11-30 13:30:48.617450
2175  2023-11-30 13:30:48.649364
2176  2023-11-30 13:30:48.693786
2177  2023-11-30 13:30:48.740898
2178  2023-11-30 13:30:48.771630
2179  2023-11-30 13:30:48.818168
2180  2023-11-30 13:30:48.865087
2181  2023-11-30 13:30:48.896469
2182  2023-11-30 13:30:48.942821
2183  2023-11-30 13:30:48.989394
2184  2023-11-30 13:30:49.021464
2185  2023-11-30 13:30:49.068562
2186  2023-11-30 13:30:49.114464
2187  2023-11-30 13:30:49.146376
2188  2023-11-30 13:30:49.193522
2189  2023-11-30 13:30:49.240998
2190  2023-11-30 13:30:49.274100
2191  2023-11-30 13:30:49.321385
2192  2023-11-30 13:30:49.366172
2193  2023-11-30 13:30:49.397428
2194  2023-11-30 13:30:49.443354
2195  2023-11-30 13:30:49.489769
2196  2023-11-30 13:30:49.520809
2197  2023-11-30 13:30:49.566824
2198  2023-11-30 13:30:49.613545
2199  2023-11-30 13:30:49.645497
2200  2023-11-30 13:30:49.693339
2201  2023-11-30 13:30:49.740735
2202  2023-11-30 13:30:49.772692
2203  2023-11-30 13:30:49.819799
2204  2023-11-30 13:30:49.867488
2205  2023-11-30 13:30:49.899535
2206  2023-11-30 13:30:49.946355
2207  2023-11-30 13:30:49.992788
2208  2023-11-30 13:30:50.026287
2209  2023-11-30 13:30:50.073279
2210  2023-11-30 13:30:50.117427
2211  2023-11-30 13:30:50.148483
2212  2023-11-30 13:30:50.195251
2213  2023-11-30 13:30:50.242453
2214  2023-11-30 13:30:50.273548
2215  2023-11-30 13:30:50.319537
2216  2023-11-30 13:30:50.366647
2217  2023-11-30 13:30:50.397748
2218  2023-11-30 13:30:50.444072
2219  2023-11-30 13:30:50.491381
2220  2023-11-30 13:30:50.523072
2221  2023-11-30 13:30:50.569629
2222  2023-11-30 13:30:50.617119
2223  2023-11-30 13:30:50.649115
2224  2023-11-30 13:30:50.696102
2225  2023-11-30 13:30:50.728336
2226  2023-11-30 13:30:50.776521
2227  2023-11-30 13:30:50.821439
2228  2023-11-30 13:30:50.867405
2229  2023-11-30 13:30:50.898540
2230  2023-11-30 13:30:50.945410
2231  2023-11-30 13:30:50.991693
2232  2023-11-30 13:30:51.022319
2233  2023-11-30 13:30:51.068630
2234  2023-11-30 13:30:51.114472
2235  2023-11-30 13:30:51.146580
2236  2023-11-30 13:30:51.193428
2237  2023-11-30 13:30:51.240684
2238  2023-11-30 13:30:51.272715
2239  2023-11-30 13:30:51.319528
2240  2023-11-30 13:30:51.366358
2241  2023-11-30 13:30:51.397461
2242  2023-11-30 13:30:51.443736
2243  2023-11-30 13:30:51.489601
2244  2023-11-30 13:30:51.520976
2245  2023-11-30 13:30:51.567561
2246  2023-11-30 13:30:51.613305
2247  2023-11-30 13:30:51.661382
2248  2023-11-30 13:30:51.690498
2249  2023-11-30 13:30:51.737371
2250  2023-11-30 13:30:51.785088
2251  2023-11-30 13:30:51.816583
2252  2023-11-30 13:30:51.863693
2253  2023-11-30 13:30:51.895108
2254  2023-11-30 13:30:51.942567
2255  2023-11-30 13:30:51.990506
2256  2023-11-30 13:30:52.023657
2257  2023-11-30 13:30:52.070502
2258  2023-11-30 13:30:52.116416
2259  2023-11-30 13:30:52.148569
2260  2023-11-30 13:30:52.193277
2261  2023-11-30 13:30:52.240908
2262  2023-11-30 13:30:52.272772
2263  2023-11-30 13:30:52.320959
2264  2023-11-30 13:30:52.367711
2265  2023-11-30 13:30:52.398632
2266  2023-11-30 13:30:52.446536
2267  2023-11-30 13:30:52.478472
2268  2023-11-30 13:30:52.525838
2269  2023-11-30 13:30:52.573040
2270  2023-11-30 13:30:52.604369
2271  2023-11-30 13:30:52.650545
2272  2023-11-30 13:30:52.697242
2273  2023-11-30 13:30:52.728406
2274  2023-11-30 13:30:52.775715
2275  2023-11-30 13:30:52.823554
2276  2023-11-30 13:30:52.867736
2277  2023-11-30 13:30:52.899576
2278  2023-11-30 13:30:52.946091
2279  2023-11-30 13:30:52.993050
2280  2023-11-30 13:30:53.023572
2281  2023-11-30 13:30:53.070813
2282  2023-11-30 13:30:53.117249
2283  2023-11-30 13:30:53.148119
2284  2023-11-30 13:30:53.196026
2285  2023-11-30 13:30:53.242518
2286  2023-11-30 13:30:53.273570
2287  2023-11-30 13:30:53.319346
2288  2023-11-30 13:30:53.366559
2289  2023-11-30 13:30:53.397959
2290  2023-11-30 13:30:53.446694
2291  2023-11-30 13:30:53.494342
2292  2023-11-30 13:30:53.524810
2293  2023-11-30 13:30:53.574311
2294  2023-11-30 13:30:53.606898
2295  2023-11-30 13:30:53.649557
2296  2023-11-30 13:30:53.696818
2297  2023-11-30 13:30:53.742661
2298  2023-11-30 13:30:53.773186
2299  2023-11-30 13:30:53.820180
2300  2023-11-30 13:30:53.865641
2301  2023-11-30 13:30:53.896359
2302  2023-11-30 13:30:53.944366
2303  2023-11-30 13:30:53.989996
2304  2023-11-30 13:30:54.022019
2305  2023-11-30 13:30:54.066149
2306  2023-11-30 13:30:54.113567
2307  2023-11-30 13:30:54.159942
2308  2023-11-30 13:30:54.191827
2309  2023-11-30 13:30:54.239936
2310  2023-11-30 13:30:54.271437
2311  2023-11-30 13:30:54.317679
2312  2023-11-30 13:30:54.364115
2313  2023-11-30 13:30:54.395947
2314  2023-11-30 13:30:54.442622
2315  2023-11-30 13:30:54.488947
2316  2023-11-30 13:30:54.520138
2317  2023-11-30 13:30:54.567995
2318  2023-11-30 13:30:54.615603
2319  2023-11-30 13:30:54.646719
2320  2023-11-30 13:30:54.693823
2321  2023-11-30 13:30:54.740861
2322  2023-11-30 13:30:54.772753
2323  2023-11-30 13:30:54.820253
2324  2023-11-30 13:30:54.865928
2325  2023-11-30 13:30:54.897285
2326  2023-11-30 13:30:54.943839
2327  2023-11-30 13:30:54.989394
2328  2023-11-30 13:30:55.020414
2329  2023-11-30 13:30:55.067287
2330  2023-11-30 13:30:55.114343
2331  2023-11-30 13:30:55.145260
2332  2023-11-30 13:30:55.192488
2333  2023-11-30 13:30:55.239616
2334  2023-11-30 13:30:55.271521
2335  2023-11-30 13:30:55.318900
2336  2023-11-30 13:30:55.365249
2337  2023-11-30 13:30:55.396874
2338  2023-11-30 13:30:55.445213
2339  2023-11-30 13:30:55.491717
2340  2023-11-30 13:30:55.522561
2341  2023-11-30 13:30:55.569106
2342  2023-11-30 13:30:55.614935
2343  2023-11-30 13:30:55.645450
2344  2023-11-30 13:30:55.691670
2345  2023-11-30 13:30:55.738482
2346  2023-11-30 13:30:55.770406
2347  2023-11-30 13:30:55.818223
2348  2023-11-30 13:30:55.866179
2349  2023-11-30 13:30:55.897923
2350  2023-11-30 13:30:55.944538
2351  2023-11-30 13:30:55.990934
2352  2023-11-30 13:30:56.021901
2353  2023-11-30 13:30:56.068766
2354  2023-11-30 13:30:56.117632
2355  2023-11-30 13:30:56.147563
2356  2023-11-30 13:30:56.194943
2357  2023-11-30 13:30:56.245153
2358  2023-11-30 13:30:56.276067
2359  2023-11-30 13:30:56.322779
2360  2023-11-30 13:30:56.367982
2361  2023-11-30 13:30:56.398420
2362  2023-11-30 13:30:56.444661
2363  2023-11-30 13:30:56.490852
2364  2023-11-30 13:30:56.521982
2365  2023-11-30 13:30:56.568901
2366  2023-11-30 13:30:56.614190
2367  2023-11-30 13:30:56.645814
2368  2023-11-30 13:30:56.692091
2369  2023-11-30 13:30:56.740171
2370  2023-11-30 13:30:56.772037
2371  2023-11-30 13:30:56.817953
2372  2023-11-30 13:30:56.863785
2373  2023-11-30 13:30:56.894641
2374  2023-11-30 13:30:56.942709
2375  2023-11-30 13:30:56.988177
2376  2023-11-30 13:30:57.019720
2377  2023-11-30 13:30:57.066594
2378  2023-11-30 13:30:57.112837
2379  2023-11-30 13:30:57.159451
2380  2023-11-30 13:30:57.190502
2381  2023-11-30 13:30:57.237977
2382  2023-11-30 13:30:57.283777
2383  2023-11-30 13:30:57.315657
2384  2023-11-30 13:30:57.363503
2385  2023-11-30 13:30:57.410507
2386  2023-11-30 13:30:57.439081
2387  2023-11-30 13:30:57.485958
2388  2023-11-30 13:30:57.532174
2389  2023-11-30 13:30:57.562686
2390  2023-11-30 13:30:57.609616
2391  2023-11-30 13:30:57.657713
2392  2023-11-30 13:30:57.687611
2393  2023-11-30 13:30:57.734422
2394  2023-11-30 13:30:57.780467
2395  2023-11-30 13:30:57.812196
2396  2023-11-30 13:30:57.858882
2397  2023-11-30 13:30:57.905658
2398  2023-11-30 13:30:57.937573
2399  2023-11-30 13:30:57.983681
2400  2023-11-30 13:30:58.030304
2401  2023-11-30 13:30:58.061690
2402  2023-11-30 13:30:58.107461
2403  2023-11-30 13:30:58.153383
2404  2023-11-30 13:30:58.199756
2405  2023-11-30 13:30:58.230937
2406  2023-11-30 13:30:58.278880
2407  2023-11-30 13:30:58.324757
2408  2023-11-30 13:30:58.355782
2409  2023-11-30 13:30:58.402226
2410  2023-11-30 13:30:58.449540
2411  2023-11-30 13:30:58.481560
2412  2023-11-30 13:30:58.526711
2413  2023-11-30 13:30:58.574013
2414  2023-11-30 13:30:58.605565
2415  2023-11-30 13:30:58.652760
2416  2023-11-30 13:30:58.698856
2417  2023-11-30 13:30:58.729502
2418  2023-11-30 13:30:58.775904
2419  2023-11-30 13:30:58.823778
2420  2023-11-30 13:30:58.855366
2421  2023-11-30 13:30:58.902032
2422  2023-11-30 13:30:58.949224
2423  2023-11-30 13:30:58.980886
2424  2023-11-30 13:30:59.026958
2425  2023-11-30 13:30:59.074139
2426  2023-11-30 13:30:59.105119
2427  2023-11-30 13:30:59.153021
2428  2023-11-30 13:30:59.197420
2429  2023-11-30 13:30:59.228069
2430  2023-11-30 13:30:59.275565
2431  2023-11-30 13:30:59.323488
2432  2023-11-30 13:30:59.354037
2433  2023-11-30 13:30:59.400845
2434  2023-11-30 13:30:59.447940
2435  2023-11-30 13:30:59.478385
2436  2023-11-30 13:30:59.525470
2437  2023-11-30 13:30:59.572653
2438  2023-11-30 13:30:59.617676
2439  2023-11-30 13:30:59.649665
2440  2023-11-30 13:30:59.696520
2441  2023-11-30 13:30:59.729004
2442  2023-11-30 13:30:59.774439
2443  2023-11-30 13:30:59.820801
2444  2023-11-30 13:30:59.867739
2445  2023-11-30 13:30:59.899103
2446  2023-11-30 13:30:59.946486
2447  2023-11-30 13:30:59.992920
2448  2023-11-30 13:31:00.023400
2449  2023-11-30 13:31:00.070604
2450  2023-11-30 13:31:00.117314
2451  2023-11-30 13:31:00.149170
2452  2023-11-30 13:31:00.195117
2453  2023-11-30 13:31:00.242200
2454  2023-11-30 13:31:00.272941
2455  2023-11-30 13:31:00.319919
2456  2023-11-30 13:31:00.368034
2457  2023-11-30 13:31:00.399772
2458  2023-11-30 13:31:00.445825
2459  2023-11-30 13:31:00.491834
2460  2023-11-30 13:31:00.522490
2461  2023-11-30 13:31:00.568560
2462  2023-11-30 13:31:00.616403
2463  2023-11-30 13:31:00.648512
2464  2023-11-30 13:31:00.695090
2465  2023-11-30 13:31:00.741796
2466  2023-11-30 13:31:00.773148
2467  2023-11-30 13:31:00.820528
2468  2023-11-30 13:31:00.867889
2469  2023-11-30 13:31:00.899026
2470  2023-11-30 13:31:00.946658
2471  2023-11-30 13:31:00.979026
2472  2023-11-30 13:31:01.025791
2473  2023-11-30 13:31:01.074525
2474  2023-11-30 13:31:01.103634
2475  2023-11-30 13:31:01.152304
2476  2023-11-30 13:31:01.199529
2477  2023-11-30 13:31:01.230187
2478  2023-11-30 13:31:01.276613
2479  2023-11-30 13:31:01.323217
2480  2023-11-30 13:31:01.355134
2481  2023-11-30 13:31:01.403136
2482  2023-11-30 13:31:01.450551
2483  2023-11-30 13:31:01.481274
2484  2023-11-30 13:31:01.527713
2485  2023-11-30 13:31:01.574644
2486  2023-11-30 13:31:01.605870
2487  2023-11-30 13:31:01.651914
2488  2023-11-30 13:31:01.698161
2489  2023-11-30 13:31:01.729102
2490  2023-11-30 13:31:01.779562
2491  2023-11-30 13:31:01.824641
2492  2023-11-30 13:31:01.857034
2493  2023-11-30 13:31:01.903328
2494  2023-11-30 13:31:01.950193
2495  2023-11-30 13:31:01.982280
2496  2023-11-30 13:31:02.029554
2497  2023-11-30 13:31:02.075464
2498  2023-11-30 13:31:02.106916
2499  2023-11-30 13:31:02.153621
2500  2023-11-30 13:31:02.198970
2501  2023-11-30 13:31:02.230995
2502  2023-11-30 13:31:02.278484
2503  2023-11-30 13:31:02.325462
2504  2023-11-30 13:31:02.356376
2505  2023-11-30 13:31:02.403091
2506  2023-11-30 13:31:02.449790
2507  2023-11-30 13:31:02.481137
2508  2023-11-30 13:31:02.527910
2509  2023-11-30 13:31:02.575296
2510  2023-11-30 13:31:02.606180
2511  2023-11-30 13:31:02.654041
2512  2023-11-30 13:31:02.701443
2513  2023-11-30 13:31:02.731587
2514  2023-11-30 13:31:02.778692
2515  2023-11-30 13:31:02.824378
2516  2023-11-30 13:31:02.855553
2517  2023-11-30 13:31:02.901559
2518  2023-11-30 13:31:02.948692
2519  2023-11-30 13:31:02.979390
2520  2023-11-30 13:31:03.025898
2521  2023-11-30 13:31:03.073193
2522  2023-11-30 13:31:03.104815
2523  2023-11-30 13:31:03.150945
2524  2023-11-30 13:31:03.197615
2525  2023-11-30 13:31:03.228733
2526  2023-11-30 13:31:03.274518
2527  2023-11-30 13:31:03.321467
2528  2023-11-30 13:31:03.367850
2529  2023-11-30 13:31:03.399899
2530  2023-11-30 13:31:03.446187
2531  2023-11-30 13:31:03.478404
2532  2023-11-30 13:31:03.526474
2533  2023-11-30 13:31:03.574116
2534  2023-11-30 13:31:03.606089
2535  2023-11-30 13:31:03.653971
2536  2023-11-30 13:31:03.700846
2537  2023-11-30 13:31:03.732760
2538  2023-11-30 13:31:03.778800
2539  2023-11-30 13:31:03.825092
2540  2023-11-30 13:31:03.856092
2541  2023-11-30 13:31:03.903936
2542  2023-11-30 13:31:03.949053
2543  2023-11-30 13:31:03.981197
2544  2023-11-30 13:31:04.028437
2545  2023-11-30 13:31:04.073451
2546  2023-11-30 13:31:04.103935
2547  2023-11-30 13:31:04.150456
2548  2023-11-30 13:31:04.197625
2549  2023-11-30 13:31:04.229623
2550  2023-11-30 13:31:04.276096
2551  2023-11-30 13:31:04.323099
2552  2023-11-30 13:31:04.353052
2553  2023-11-30 13:31:04.400919
2554  2023-11-30 13:31:04.447822
2555  2023-11-30 13:31:04.479368
2556  2023-11-30 13:31:04.526844
2557  2023-11-30 13:31:04.573571
2558  2023-11-30 13:31:04.605475
2559  2023-11-30 13:31:04.652185
2560  2023-11-30 13:31:04.700313
2561  2023-11-30 13:31:04.730358
2562  2023-11-30 13:31:04.776412
2563  2023-11-30 13:31:04.822425
2564  2023-11-30 13:31:04.854020
2565  2023-11-30 13:31:04.900796
2566  2023-11-30 13:31:04.947660
2567  2023-11-30 13:31:04.978367
2568  2023-11-30 13:31:05.024714
2569  2023-11-30 13:31:05.070820
2570  2023-11-30 13:31:05.117518
2571  2023-11-30 13:31:05.149323
2572  2023-11-30 13:31:05.196047
2573  2023-11-30 13:31:05.244408
2574  2023-11-30 13:31:05.275325
2575  2023-11-30 13:31:05.321200
2576  2023-11-30 13:31:05.353235
2577  2023-11-30 13:31:05.401179
2578  2023-11-30 13:31:05.447272
2579  2023-11-30 13:31:05.479193
2580  2023-11-30 13:31:05.524615
2581  2023-11-30 13:31:05.571193
2582  2023-11-30 13:31:05.618018
2583  2023-11-30 13:31:05.648372
2584  2023-11-30 13:31:05.695550
2585  2023-11-30 13:31:05.743385
2586  2023-11-30 13:31:05.773407
2587  2023-11-30 13:31:05.820041
2588  2023-11-30 13:31:05.867421
2589  2023-11-30 13:31:05.899326
2590  2023-11-30 13:31:05.945077
2591  2023-11-30 13:31:05.991414
2592  2023-11-30 13:31:06.023340
2593  2023-11-30 13:31:06.070624
2594  2023-11-30 13:31:06.115417
2595  2023-11-30 13:31:06.146905
2596  2023-11-30 13:31:06.193505
2597  2023-11-30 13:31:06.240784
2598  2023-11-30 13:31:06.271989
2599  2023-11-30 13:31:06.318831
2600  2023-11-30 13:31:06.365145
2601  2023-11-30 13:31:06.396933
2602  2023-11-30 13:31:06.445978
2603  2023-11-30 13:31:06.490427
2604  2023-11-30 13:31:06.522323
2605  2023-11-30 13:31:06.569851
2606  2023-11-30 13:31:06.616314
2607  2023-11-30 13:31:06.647392
2608  2023-11-30 13:31:06.694576
2609  2023-11-30 13:31:06.742013
2610  2023-11-30 13:31:06.772017
2611  2023-11-30 13:31:06.818043
2612  2023-11-30 13:31:06.864740
2613  2023-11-30 13:31:06.895398
2614  2023-11-30 13:31:06.941605
2615  2023-11-30 13:31:06.988390
2616  2023-11-30 13:31:07.019855
2617  2023-11-30 13:31:07.066323
2618  2023-11-30 13:31:07.113533
2619  2023-11-30 13:31:07.146109
2620  2023-11-30 13:31:07.191515
2621  2023-11-30 13:31:07.238135
2622  2023-11-30 13:31:07.284309
2623  2023-11-30 13:31:07.315185
2624  2023-11-30 13:31:07.362968
2625  2023-11-30 13:31:07.409011
2626  2023-11-30 13:31:07.440728
2627  2023-11-30 13:31:07.487557
2628  2023-11-30 13:31:07.534656
2629  2023-11-30 13:31:07.566024
2630  2023-11-30 13:31:07.613284
2631  2023-11-30 13:31:07.659613
2632  2023-11-30 13:31:07.690861
2633  2023-11-30 13:31:07.737637
2634  2023-11-30 13:31:07.785882
2635  2023-11-30 13:31:07.817863
2636  2023-11-30 13:31:07.862941
2637  2023-11-30 13:31:07.908422
2638  2023-11-30 13:31:07.939794
2639  2023-11-30 13:31:07.986111
2640  2023-11-30 13:31:08.032306
2641  2023-11-30 13:31:08.063374
2642  2023-11-30 13:31:08.110914
2643  2023-11-30 13:31:08.157608
2644  2023-11-30 13:31:08.188699
2645  2023-11-30 13:31:08.236762
2646  2023-11-30 13:31:08.283889
2647  2023-11-30 13:31:08.314471
2648  2023-11-30 13:31:08.362294
2649  2023-11-30 13:31:08.408941
2650  2023-11-30 13:31:08.440679
2651  2023-11-30 13:31:08.486936
2652  2023-11-30 13:31:08.533647
2653  2023-11-30 13:31:08.565570
2654  2023-11-30 13:31:08.611988
2655  2023-11-30 13:31:08.658066
2656  2023-11-30 13:31:08.687836
2657  2023-11-30 13:31:08.735054
2658  2023-11-30 13:31:08.782026
2659  2023-11-30 13:31:08.812843
2660  2023-11-30 13:31:08.860718
2661  2023-11-30 13:31:08.906731
2662  2023-11-30 13:31:08.937699
2663  2023-11-30 13:31:08.986531
2664  2023-11-30 13:31:09.034747
2665  2023-11-30 13:31:09.065663
2666  2023-11-30 13:31:09.113504
2667  2023-11-30 13:31:09.159739
2668  2023-11-30 13:31:09.189226
2669  2023-11-30 13:31:09.235027
2670  2023-11-30 13:31:09.282532
2671  2023-11-30 13:31:09.314186
2672  2023-11-30 13:31:09.360772
2673  2023-11-30 13:31:09.406749
2674  2023-11-30 13:31:09.437948
2675  2023-11-30 13:31:09.484546
2676  2023-11-30 13:31:09.531050
2677  2023-11-30 13:31:09.563377
2678  2023-11-30 13:31:09.608323
2679  2023-11-30 13:31:09.655884
2680  2023-11-30 13:31:09.687935
2681  2023-11-30 13:31:09.736300
2682  2023-11-30 13:31:09.780480
2683  2023-11-30 13:31:09.826249
2684  2023-11-30 13:31:09.858050
2685  2023-11-30 13:31:09.903987
2686  2023-11-30 13:31:09.950950
2687  2023-11-30 13:31:09.982208
2688  2023-11-30 13:31:10.029333
2689  2023-11-30 13:31:10.076944
2690  2023-11-30 13:31:10.107580
2691  2023-11-30 13:31:10.156610
2692  2023-11-30 13:31:10.200874
2693  2023-11-30 13:31:10.232839
2694  2023-11-30 13:31:10.280764
2695  2023-11-30 13:31:10.326664
2696  2023-11-30 13:31:10.359243
2697  2023-11-30 13:31:10.406611
2698  2023-11-30 13:31:10.437395
2699  2023-11-30 13:31:10.483451
2700  2023-11-30 13:31:10.529148
2701  2023-11-30 13:31:10.575220
2702  2023-11-30 13:31:10.606770
2703  2023-11-30 13:31:10.653224
2704  2023-11-30 13:31:10.699302
2705  2023-11-30 13:31:10.730576
2706  2023-11-30 13:31:10.777913
2707  2023-11-30 13:31:10.825747
2708  2023-11-30 13:31:10.857643
2709  2023-11-30 13:31:10.904517
2710  2023-11-30 13:31:10.936432
2711  2023-11-30 13:31:10.984304
2712  2023-11-30 13:31:11.030089
2713  2023-11-30 13:31:11.075484
2714  2023-11-30 13:31:11.105939
2715  2023-11-30 13:31:11.152744
2716  2023-11-30 13:31:11.199708
2717  2023-11-30 13:31:11.230457
2718  2023-11-30 13:31:11.277394
2719  2023-11-30 13:31:11.325091
2720  2023-11-30 13:31:11.356617
2721  2023-11-30 13:31:11.402735
2722  2023-11-30 13:31:11.450088
2723  2023-11-30 13:31:11.481435
2724  2023-11-30 13:31:11.527610
2725  2023-11-30 13:31:11.576696
2726  2023-11-30 13:31:11.607811
2727  2023-11-30 13:31:11.655593
2728  2023-11-30 13:31:11.702200
2729  2023-11-30 13:31:11.731745
2730  2023-11-30 13:31:11.779649
2731  2023-11-30 13:31:11.826780
2732  2023-11-30 13:31:11.857445
2733  2023-11-30 13:31:11.904548
2734  2023-11-30 13:31:11.951392
2735  2023-11-30 13:31:11.983049
2736  2023-11-30 13:31:12.029663
2737  2023-11-30 13:31:12.075990
2738  2023-11-30 13:31:12.107351
2739  2023-11-30 13:31:12.154625
2740  2023-11-30 13:31:12.200583
2741  2023-11-30 13:31:12.231092
2742  2023-11-30 13:31:12.279966
2743  2023-11-30 13:31:12.323201
2744  2023-11-30 13:31:12.354448
2745  2023-11-30 13:31:12.401511
2746  2023-11-30 13:31:12.447957
2747  2023-11-30 13:31:12.478262
2748  2023-11-30 13:31:12.525978
2749  2023-11-30 13:31:12.573232
2750  2023-11-30 13:31:12.604739
2751  2023-11-30 13:31:12.651346
2752  2023-11-30 13:31:12.698420
2753  2023-11-30 13:31:12.730302
2754  2023-11-30 13:31:12.777506
2755  2023-11-30 13:31:12.823462
2756  2023-11-30 13:31:12.855376
2757  2023-11-30 13:31:12.903294
2758  2023-11-30 13:31:12.950325
2759  2023-11-30 13:31:12.981319
2760  2023-11-30 13:31:13.028942
2761  2023-11-30 13:31:13.076950
2762  2023-11-30 13:31:13.108611
2763  2023-11-30 13:31:13.154340
2764  2023-11-30 13:31:13.201251
2765  2023-11-30 13:31:13.232314
2766  2023-11-30 13:31:13.278638
2767  2023-11-30 13:31:13.325552
2768  2023-11-30 13:31:13.356367
2769  2023-11-30 13:31:13.403491
2770  2023-11-30 13:31:13.450646
2771  2023-11-30 13:31:13.482559
2772  2023-11-30 13:31:13.529007
2773  2023-11-30 13:31:13.576012
2774  2023-11-30 13:31:13.607661
2775  2023-11-30 13:31:13.655114
2776  2023-11-30 13:31:13.686862
2777  2023-11-30 13:31:13.733783
2778  2023-11-30 13:31:13.781868
2779  2023-11-30 13:31:13.813783
2780  2023-11-30 13:31:13.859914
2781  2023-11-30 13:31:13.904679
2782  2023-11-30 13:31:13.951007
2783  2023-11-30 13:31:13.982306
2784  2023-11-30 13:31:14.028364
2785  2023-11-30 13:31:14.075989
2786  2023-11-30 13:31:14.106542
2787  2023-11-30 13:31:14.152861
2788  2023-11-30 13:31:14.199360
2789  2023-11-30 13:31:14.230536
2790  2023-11-30 13:31:14.277951
2791  2023-11-30 13:31:14.324993
2792  2023-11-30 13:31:14.356047
2793  2023-11-30 13:31:14.404546
2794  2023-11-30 13:31:14.448732
2795  2023-11-30 13:31:14.480562
2796  2023-11-30 13:31:14.526356
2797  2023-11-30 13:31:14.572972
2798  2023-11-30 13:31:14.605186
2799  2023-11-30 13:31:14.652593
2800  2023-11-30 13:31:14.700176
2801  2023-11-30 13:31:14.732186
2802  2023-11-30 13:31:14.779201
2803  2023-11-30 13:31:14.828345
2804  2023-11-30 13:31:14.857268
2805  2023-11-30 13:31:14.904102
2806  2023-11-30 13:31:14.950863
2807  2023-11-30 13:31:14.982829
2808  2023-11-30 13:31:15.029816
2809  2023-11-30 13:31:15.076866
2810  2023-11-30 13:31:15.107880
2811  2023-11-30 13:31:15.155747
2812  2023-11-30 13:31:15.200283
2813  2023-11-30 13:31:15.231360
2814  2023-11-30 13:31:15.278006
2815  2023-11-30 13:31:15.324229
2816  2023-11-30 13:31:15.354741
2817  2023-11-30 13:31:15.400904
2818  2023-11-30 13:31:15.447446
2819  2023-11-30 13:31:15.479261
2820  2023-11-30 13:31:15.526914
2821  2023-11-30 13:31:15.573342
2822  2023-11-30 13:31:15.605357
2823  2023-11-30 13:31:15.653229
2824  2023-11-30 13:31:15.700391
2825  2023-11-30 13:31:15.733193
2826  2023-11-30 13:31:15.779085
2827  2023-11-30 13:31:15.825991
2828  2023-11-30 13:31:15.857912
2829  2023-11-30 13:31:15.905940
2830  2023-11-30 13:31:15.938833
2831  2023-11-30 13:31:15.982438
2832  2023-11-30 13:31:16.029533
2833  2023-11-30 13:31:16.076582
2834  2023-11-30 13:31:16.108614
2835  2023-11-30 13:31:16.155664
2836  2023-11-30 13:31:16.186298
2837  2023-11-30 13:31:16.232353
2838  2023-11-30 13:31:16.279476
2839  2023-11-30 13:31:16.325872
2840  2023-11-30 13:31:16.356856
2841  2023-11-30 13:31:16.404360
2842  2023-11-30 13:31:16.436345
2843  2023-11-30 13:31:16.484310
2844  2023-11-30 13:31:16.530564
2845  2023-11-30 13:31:16.562583
2846  2023-11-30 13:31:16.610041
2847  2023-11-30 13:31:16.655959
2848  2023-11-30 13:31:16.687255
2849  2023-11-30 13:31:16.733995
2850  2023-11-30 13:31:16.779932
2851  2023-11-30 13:31:16.811281
2852  2023-11-30 13:31:16.858627
2853  2023-11-30 13:31:16.905500
2854  2023-11-30 13:31:16.937023
2855  2023-11-30 13:31:16.983520
2856  2023-11-30 13:31:17.030413
2857  2023-11-30 13:31:17.061517
2858  2023-11-30 13:31:17.108361
2859  2023-11-30 13:31:17.156522
2860  2023-11-30 13:31:17.201606
2861  2023-11-30 13:31:17.234291
2862  2023-11-30 13:31:17.278673
2863  2023-11-30 13:31:17.325739
2864  2023-11-30 13:31:17.357542
2865  2023-11-30 13:31:17.404742
2866  2023-11-30 13:31:17.450865
2867  2023-11-30 13:31:17.482569
2868  2023-11-30 13:31:17.528430
2869  2023-11-30 13:31:17.574481
2870  2023-11-30 13:31:17.606408
2871  2023-11-30 13:31:17.652549
2872  2023-11-30 13:31:17.699338
2873  2023-11-30 13:31:17.730481
2874  2023-11-30 13:31:17.778389
2875  2023-11-30 13:31:17.826276
2876  2023-11-30 13:31:17.857154
2877  2023-11-30 13:31:17.904895
2878  2023-11-30 13:31:17.952257
2879  2023-11-30 13:31:17.986201
2880  2023-11-30 13:31:18.029946
2881  2023-11-30 13:31:18.061810
2882  2023-11-30 13:31:18.108447
2883  2023-11-30 13:31:18.155581
2884  2023-11-30 13:31:18.186997
2885  2023-11-30 13:31:18.233203
2886  2023-11-30 13:31:18.279892
2887  2023-11-30 13:31:18.325989
2888  2023-11-30 13:31:18.357914
2889  2023-11-30 13:31:18.403768
2890  2023-11-30 13:31:18.449706
2891  2023-11-30 13:31:18.480927
2892  2023-11-30 13:31:18.528444
2893  2023-11-30 13:31:18.576284
2894  2023-11-30 13:31:18.608197
2895  2023-11-30 13:31:18.656100
2896  2023-11-30 13:31:18.688008
2897  2023-11-30 13:31:18.733865
2898  2023-11-30 13:31:18.780775
2899  2023-11-30 13:31:18.811695
2900  2023-11-30 13:31:18.859022
2901  2023-11-30 13:31:18.907077
2902  2023-11-30 13:31:18.938556
2903  2023-11-30 13:31:18.986760
2904  2023-11-30 13:31:19.033410
2905  2023-11-30 13:31:19.064037
2906  2023-11-30 13:31:19.111214
2907  2023-11-30 13:31:19.158469
2908  2023-11-30 13:31:19.189260
2909  2023-11-30 13:31:19.237049
2910  2023-11-30 13:31:19.282701
2911  2023-11-30 13:31:19.315310
2912  2023-11-30 13:31:19.360285
2913  2023-11-30 13:31:19.407745
2914  2023-11-30 13:31:19.437862
2915  2023-11-30 13:31:19.485337
2916  2023-11-30 13:31:19.530628
2917  2023-11-30 13:31:19.562655
2918  2023-11-30 13:31:19.609054
2919  2023-11-30 13:31:19.656046
2920  2023-11-30 13:31:19.686962
2921  2023-11-30 13:31:19.734571
2922  2023-11-30 13:31:19.782453
2923  2023-11-30 13:31:19.814637
2924  2023-11-30 13:31:19.859722
2925  2023-11-30 13:31:19.906797
2926  2023-11-30 13:31:19.938365
2927  2023-11-30 13:31:19.985303
2928  2023-11-30 13:31:20.031585
2929  2023-11-30 13:31:20.075637
2930  2023-11-30 13:31:20.106994
2931  2023-11-30 13:31:20.153514
2932  2023-11-30 13:31:20.200512
2933  2023-11-30 13:31:20.232651
2934  2023-11-30 13:31:20.279464
2935  2023-11-30 13:31:20.311515
2936  2023-11-30 13:31:20.358672
2937  2023-11-30 13:31:20.404575
2938  2023-11-30 13:31:20.450390
2939  2023-11-30 13:31:20.482408
2940  2023-11-30 13:31:20.528812
2941  2023-11-30 13:31:20.575292
2942  2023-11-30 13:31:20.606784
2943  2023-11-30 13:31:20.651587
2944  2023-11-30 13:31:20.699497
2945  2023-11-30 13:31:20.730407
2946  2023-11-30 13:31:20.778363
2947  2023-11-30 13:31:20.823949
2948  2023-11-30 13:31:20.854830
2949  2023-11-30 13:31:20.902141
2950  2023-11-30 13:31:20.949548
2951  2023-11-30 13:31:20.981468
2952  2023-11-30 13:31:21.027726
2953  2023-11-30 13:31:21.074714
2954  2023-11-30 13:31:21.105535
2955  2023-11-30 13:31:21.152702
2956  2023-11-30 13:31:21.199402
2957  2023-11-30 13:31:21.230745
2958  2023-11-30 13:31:21.277930
2959  2023-11-30 13:31:21.326066
2960  2023-11-30 13:31:21.356566
2961  2023-11-30 13:31:21.402804
2962  2023-11-30 13:31:21.450082
2963  2023-11-30 13:31:21.480426
2964  2023-11-30 13:31:21.527319
2965  2023-11-30 13:31:21.574547
2966  2023-11-30 13:31:21.605452
2967  2023-11-30 13:31:21.652487
2968  2023-11-30 13:31:21.699839
2969  2023-11-30 13:31:21.731707
2970  2023-11-30 13:31:21.778445
2971  2023-11-30 13:31:21.826030
2972  2023-11-30 13:31:21.856387
2973  2023-11-30 13:31:21.904329
2974  2023-11-30 13:31:21.952732
2975  2023-11-30 13:31:21.983317
2976  2023-11-30 13:31:22.029594
2977  2023-11-30 13:31:22.075262
2978  2023-11-30 13:31:22.106482
2979  2023-11-30 13:31:22.153274
2980  2023-11-30 13:31:22.200388
2981  2023-11-30 13:31:22.231992
2982  2023-11-30 13:31:22.278528
2983  2023-11-30 13:31:22.325605
2984  2023-11-30 13:31:22.357518
2985  2023-11-30 13:31:22.405548
2986  2023-11-30 13:31:22.451554
2987  2023-11-30 13:31:22.482847
2988  2023-11-30 13:31:22.528971
2989  2023-11-30 13:31:22.577688
2990  2023-11-30 13:31:22.608835
2991  2023-11-30 13:31:22.655911
2992  2023-11-30 13:31:22.701544
2993  2023-11-30 13:31:22.733428
2994  2023-11-30 13:31:22.783323
2995  2023-11-30 13:31:22.826368
2996  2023-11-30 13:31:22.857583
2997  2023-11-30 13:31:22.905488
2998  2023-11-30 13:31:22.937399
2999  2023-11-30 13:31:22.984197
3000  2023-11-30 13:31:23.029931
3001  2023-11-30 13:31:23.076089
3002  2023-11-30 13:31:23.106630
3003  2023-11-30 13:31:23.152351
3004  2023-11-30 13:31:23.198682
3005  2023-11-30 13:31:23.230166
3006  2023-11-30 13:31:23.277978
3007  2023-11-30 13:31:23.321758
3008  2023-11-30 13:31:23.368396
3009  2023-11-30 13:31:23.399063
3010  2023-11-30 13:31:23.445668
3011  2023-11-30 13:31:23.493334
3012  2023-11-30 13:31:23.525441
3013  2023-11-30 13:31:23.571763
3014  2023-11-30 13:31:23.603066
3015  2023-11-30 13:31:23.649614
3016  2023-11-30 13:31:23.697064
3017  2023-11-30 13:31:23.727875
3018  2023-11-30 13:31:23.776365
3019  2023-11-30 13:31:23.821078
3020  2023-11-30 13:31:23.867990
3021  2023-11-30 13:31:23.901142
3022  2023-11-30 13:31:23.947618
3023  2023-11-30 13:31:23.992537
3024  2023-11-30 13:31:24.023787
3025  2023-11-30 13:31:24.071105
3026  2023-11-30 13:31:24.118147
3027  2023-11-30 13:31:24.149525
3028  2023-11-30 13:31:24.195927
3029  2023-11-30 13:31:24.227842
3030  2023-11-30 13:31:24.275701
3031  2023-11-30 13:31:24.323483
3032  2023-11-30 13:31:24.354722
3033  2023-11-30 13:31:24.400979
3034  2023-11-30 13:31:24.447009
3035  2023-11-30 13:31:24.479082
3036  2023-11-30 13:31:24.528050
3037  2023-11-30 13:31:24.573924
3038  2023-11-30 13:31:24.605892
3039  2023-11-30 13:31:24.653175
3040  2023-11-30 13:31:24.699053
3041  2023-11-30 13:31:24.728721
3042  2023-11-30 13:31:24.775860
3043  2023-11-30 13:31:24.822627
3044  2023-11-30 13:31:24.867577
3045  2023-11-30 13:31:24.899463
3046  2023-11-30 13:31:24.945924
3047  2023-11-30 13:31:24.993096
3048  2023-11-30 13:31:25.024793
3049  2023-11-30 13:31:25.072220
3050  2023-11-30 13:31:25.103147
3051  2023-11-30 13:31:25.150867
3052  2023-11-30 13:31:25.199419
3053  2023-11-30 13:31:25.230440
3054  2023-11-30 13:31:25.276427
3055  2023-11-30 13:31:25.324868
3056  2023-11-30 13:31:25.358874
3057  2023-11-30 13:31:25.404752
3058  2023-11-30 13:31:25.452013
3059  2023-11-30 13:31:25.482566
3060  2023-11-30 13:31:25.530687
3061  2023-11-30 13:31:25.575974
3062  2023-11-30 13:31:25.606629
3063  2023-11-30 13:31:25.653523
3064  2023-11-30 13:31:25.700607
3065  2023-11-30 13:31:25.732407
3066  2023-11-30 13:31:25.779079
3067  2023-11-30 13:31:25.825502
3068  2023-11-30 13:31:25.857400
3069  2023-11-30 13:31:25.904429
3070  2023-11-30 13:31:25.950569
3071  2023-11-30 13:31:25.980865
3072  2023-11-30 13:31:26.028335
3073  2023-11-30 13:31:26.076312
3074  2023-11-30 13:31:26.107531
3075  2023-11-30 13:31:26.157298
3076  2023-11-30 13:31:26.186220
3077  2023-11-30 13:31:26.234093
3078  2023-11-30 13:31:26.281963
3079  2023-11-30 13:31:26.314143
3080  2023-11-30 13:31:26.359248
3081  2023-11-30 13:31:26.406000
3082  2023-11-30 13:31:26.436475
3083  2023-11-30 13:31:26.482828
3084  2023-11-30 13:31:26.529544
3085  2023-11-30 13:31:26.576115
3086  2023-11-30 13:31:26.607226
3087  2023-11-30 13:31:26.655539
3088  2023-11-30 13:31:26.686264
3089  2023-11-30 13:31:26.733103
3090  2023-11-30 13:31:26.780039
3091  2023-11-30 13:31:26.811781
3092  2023-11-30 13:31:26.857956
3093  2023-11-30 13:31:26.905975
3094  2023-11-30 13:31:26.938269
3095  2023-11-30 13:31:26.986713
3096  2023-11-30 13:31:27.029775
3097  2023-11-30 13:31:27.075673
3098  2023-11-30 13:31:27.106782
3099  2023-11-30 13:31:27.153938
3100  2023-11-30 13:31:27.200784
3101  2023-11-30 13:31:27.232695
3102  2023-11-30 13:31:27.280568
3103  2023-11-30 13:31:27.312512
3104  2023-11-30 13:31:27.358427
3105  2023-11-30 13:31:27.405987
3106  2023-11-30 13:31:27.437338
3107  2023-11-30 13:31:27.486540
3108  2023-11-30 13:31:27.531391
3109  2023-11-30 13:31:27.563610
3110  2023-11-30 13:31:27.609051
3111  2023-11-30 13:31:27.654386
3112  2023-11-30 13:31:27.700785
3113  2023-11-30 13:31:27.732166
3114  2023-11-30 13:31:27.778074
3115  2023-11-30 13:31:27.825167
3116  2023-11-30 13:31:27.856012
3117  2023-11-30 13:31:27.903119
3118  2023-11-30 13:31:27.951003
3119  2023-11-30 13:31:27.981988
3120  2023-11-30 13:31:28.027386
3121  2023-11-30 13:31:28.074034
3122  2023-11-30 13:31:28.105662
3123  2023-11-30 13:31:28.156619
3124  2023-11-30 13:31:28.200965
3125  2023-11-30 13:31:28.232848
3126  2023-11-30 13:31:28.276733
3127  2023-11-30 13:31:28.323394
3128  2023-11-30 13:31:28.354587
3129  2023-11-30 13:31:28.401358
3130  2023-11-30 13:31:28.447557
3131  2023-11-30 13:31:28.479619
3132  2023-11-30 13:31:28.526552
3133  2023-11-30 13:31:28.573086
3134  2023-11-30 13:31:28.604419
3135  2023-11-30 13:31:28.650500
3136  2023-11-30 13:31:28.696712
3137  2023-11-30 13:31:28.746486
3138  2023-11-30 13:31:28.773404
3139  2023-11-30 13:31:28.820422
3140  2023-11-30 13:31:28.866849
3141  2023-11-30 13:31:28.897891
3142  2023-11-30 13:31:28.943858
3143  2023-11-30 13:31:28.990753
3144  2023-11-30 13:31:29.022415
3145  2023-11-30 13:31:29.070255
3146  2023-11-30 13:31:29.117017
3147  2023-11-30 13:31:29.148037
3148  2023-11-30 13:31:29.194313
3149  2023-11-30 13:31:29.241963
3150  2023-11-30 13:31:29.274049
3151  2023-11-30 13:31:29.319666
3152  2023-11-30 13:31:29.367540
3153  2023-11-30 13:31:29.399404
3154  2023-11-30 13:31:29.444099
3155  2023-11-30 13:31:29.490831
3156  2023-11-30 13:31:29.521689
3157  2023-11-30 13:31:29.568602
3158  2023-11-30 13:31:29.616162
3159  2023-11-30 13:31:29.647896
3160  2023-11-30 13:31:29.694079
3161  2023-11-30 13:31:29.741609
3162  2023-11-30 13:31:29.772499
3163  2023-11-30 13:31:29.819238
3164  2023-11-30 13:31:29.867384
3165  2023-11-30 13:31:29.897386
3166  2023-11-30 13:31:29.944475
3167  2023-11-30 13:31:29.993419
3168  2023-11-30 13:31:30.024467
3169  2023-11-30 13:31:30.068127
3170  2023-11-30 13:31:30.115607
3171  2023-11-30 13:31:30.147412
3172  2023-11-30 13:31:30.194030
3173  2023-11-30 13:31:30.241464
3174  2023-11-30 13:31:30.272826
3175  2023-11-30 13:31:30.319770
3176  2023-11-30 13:31:30.365866
3177  2023-11-30 13:31:30.397223
3178  2023-11-30 13:31:30.443722
3179  2023-11-30 13:31:30.490411
3180  2023-11-30 13:31:30.522517
3181  2023-11-30 13:31:30.570158
3182  2023-11-30 13:31:30.617446
3183  2023-11-30 13:31:30.649395
3184  2023-11-30 13:31:30.696901
3185  2023-11-30 13:31:30.728165
3186  2023-11-30 13:31:30.776317
3187  2023-11-30 13:31:30.825239
3188  2023-11-30 13:31:30.854799
3189  2023-11-30 13:31:30.902578
3190  2023-11-30 13:31:30.950353
3191  2023-11-30 13:31:30.980275
3192  2023-11-30 13:31:31.026995
3193  2023-11-30 13:31:31.072938
3194  2023-11-30 13:31:31.104599
3195  2023-11-30 13:31:31.150648
3196  2023-11-30 13:31:31.196321
3197  2023-11-30 13:31:31.228277
3198  2023-11-30 13:31:31.275333
3199  2023-11-30 13:31:31.321031
3200  2023-11-30 13:31:31.367464
3201  2023-11-30 13:31:31.399614
3202  2023-11-30 13:31:31.447598
3203  2023-11-30 13:31:31.495324
3204  2023-11-30 13:31:31.526789
3205  2023-11-30 13:31:31.570577
3206  2023-11-30 13:31:31.616843
3207  2023-11-30 13:31:31.648367
3208  2023-11-30 13:31:31.695327
3209  2023-11-30 13:31:31.741204
3210  2023-11-30 13:31:31.772089
3211  2023-11-30 13:31:31.819962
3212  2023-11-30 13:31:31.867837
3213  2023-11-30 13:31:31.898752
3214  2023-11-30 13:31:31.946092
3215  2023-11-30 13:31:31.992537
3216  2023-11-30 13:31:32.026447
3217  2023-11-30 13:31:32.071810
3218  2023-11-30 13:31:32.105331
3219  2023-11-30 13:31:32.150295
3220  2023-11-30 13:31:32.194637
3221  2023-11-30 13:31:32.241488
3222  2023-11-30 13:31:32.272434
3223  2023-11-30 13:31:32.318193
3224  2023-11-30 13:31:32.365163
3225  2023-11-30 13:31:32.396415
3226  2023-11-30 13:31:32.443906
3227  2023-11-30 13:31:32.490230
3228  2023-11-30 13:31:32.521228
3229  2023-11-30 13:31:32.569032
3230  2023-11-30 13:31:32.616950
3231  2023-11-30 13:31:32.648229
3232  2023-11-30 13:31:32.695065
3233  2023-11-30 13:31:32.743055
3234  2023-11-30 13:31:32.777150
3235  2023-11-30 13:31:32.821813
3236  2023-11-30 13:31:32.852977
3237  2023-11-30 13:31:32.901154
3238  2023-11-30 13:31:32.945727
3239  2023-11-30 13:31:32.992811
3240  2023-11-30 13:31:33.024273
3241  2023-11-30 13:31:33.071821
3242  2023-11-30 13:31:33.103303
3243  2023-11-30 13:31:33.149922
3244  2023-11-30 13:31:33.195793
3245  2023-11-30 13:31:33.242614
3246  2023-11-30 13:31:33.272989
3247  2023-11-30 13:31:33.320201
3248  2023-11-30 13:31:33.366649
3249  2023-11-30 13:31:33.398177
3250  2023-11-30 13:31:33.445315
3251  2023-11-30 13:31:33.492738
3252  2023-11-30 13:31:33.521371
3253  2023-11-30 13:31:33.567610
3254  2023-11-30 13:31:33.614477
3255  2023-11-30 13:31:33.645469
3256  2023-11-30 13:31:33.692625
3257  2023-11-30 13:31:33.740592
3258  2023-11-30 13:31:33.772466
3259  2023-11-30 13:31:33.820439
3260  2023-11-30 13:31:33.865358
3261  2023-11-30 13:31:33.896174
3262  2023-11-30 13:31:33.943139
3263  2023-11-30 13:31:33.990081
3264  2023-11-30 13:31:34.024124
3265  2023-11-30 13:31:34.069411
3266  2023-11-30 13:31:34.117052
3267  2023-11-30 13:31:34.148776
3268  2023-11-30 13:31:34.193699
3269  2023-11-30 13:31:34.240855
3270  2023-11-30 13:31:34.271680
3271  2023-11-30 13:31:34.317684
3272  2023-11-30 13:31:34.364148
3273  2023-11-30 13:31:34.395550
3274  2023-11-30 13:31:34.442530
3275  2023-11-30 13:31:34.490406
3276  2023-11-30 13:31:34.520672
3277  2023-11-30 13:31:34.567879
3278  2023-11-30 13:31:34.615626
3279  2023-11-30 13:31:34.647764
3280  2023-11-30 13:31:34.694488
3281  2023-11-30 13:31:34.740264
3282  2023-11-30 13:31:34.771499
3283  2023-11-30 13:31:34.819166
3284  2023-11-30 13:31:34.867157
3285  2023-11-30 13:31:34.899232
3286  2023-11-30 13:31:34.946948
3287  2023-11-30 13:31:34.992771
3288  2023-11-30 13:31:35.024474
3289  2023-11-30 13:31:35.072061
3290  2023-11-30 13:31:35.103473
3291  2023-11-30 13:31:35.150789
3292  2023-11-30 13:31:35.196642
3293  2023-11-30 13:31:35.242682
3294  2023-11-30 13:31:35.273606
3295  2023-11-30 13:31:35.320525
3296  2023-11-30 13:31:35.368925
3297  2023-11-30 13:31:35.399871
3298  2023-11-30 13:31:35.446652
3299  2023-11-30 13:31:35.492701
3300  2023-11-30 13:31:35.525474
3301  2023-11-30 13:31:35.570291
3302  2023-11-30 13:31:35.616158
3303  2023-11-30 13:31:35.647502
3304  2023-11-30 13:31:35.693897
3305  2023-11-30 13:31:35.740012
3306  2023-11-30 13:31:35.771527
3307  2023-11-30 13:31:35.817867
3308  2023-11-30 13:31:35.864744
3309  2023-11-30 13:31:35.895657
3310  2023-11-30 13:31:35.942901
3311  2023-11-30 13:31:35.989016
3312  2023-11-30 13:31:36.021368
3313  2023-11-30 13:31:36.067151
3314  2023-11-30 13:31:36.113353
3315  2023-11-30 13:31:36.145688
3316  2023-11-30 13:31:36.191186
3317  2023-11-30 13:31:36.238216
3318  2023-11-30 13:31:36.284601
3319  2023-11-30 13:31:36.316576
3320  2023-11-30 13:31:36.363968
3321  2023-11-30 13:31:36.394673
3322  2023-11-30 13:31:36.440514
3323  2023-11-30 13:31:36.487658
3324  2023-11-30 13:31:36.533883
3325  2023-11-30 13:31:36.564747
3326  2023-11-30 13:31:36.611656
3327  2023-11-30 13:31:36.659402
3328  2023-11-30 13:31:36.691404
3329  2023-11-30 13:31:36.738992
3330  2023-11-30 13:31:36.770770
3331  2023-11-30 13:31:36.818293
3332  2023-11-30 13:31:36.865625
3333  2023-11-30 13:31:36.909346
3334  2023-11-30 13:31:36.940351
3335  2023-11-30 13:31:36.987558
3336  2023-11-30 13:31:37.034233
3337  2023-11-30 13:31:37.064755
3338  2023-11-30 13:31:37.112200
3339  2023-11-30 13:31:37.158457
3340  2023-11-30 13:31:37.190154
3341  2023-11-30 13:31:37.238140
3342  2023-11-30 13:31:37.284550
3343  2023-11-30 13:31:37.317109
3344  2023-11-30 13:31:37.362821
3345  2023-11-30 13:31:37.409612
3346  2023-11-30 13:31:37.441921
3347  2023-11-30 13:31:37.486695
3348  2023-11-30 13:31:37.533907
3349  2023-11-30 13:31:37.564806
3350  2023-11-30 13:31:37.611397
3351  2023-11-30 13:31:37.658152
3352  2023-11-30 13:31:37.688097
3353  2023-11-30 13:31:37.734981
3354  2023-11-30 13:31:37.782414
3355  2023-11-30 13:31:37.812981
3356  2023-11-30 13:31:37.859460
3357  2023-11-30 13:31:37.907543
3358  2023-11-30 13:31:37.937766
3359  2023-11-30 13:31:37.987845
3360  2023-11-30 13:31:38.032537
3361  2023-11-30 13:31:38.064102
3362  2023-11-30 13:31:38.111975
3363  2023-11-30 13:31:38.160668
3364  2023-11-30 13:31:38.189519
3365  2023-11-30 13:31:38.236377
3366  2023-11-30 13:31:38.282320
3367  2023-11-30 13:31:38.314051
3368  2023-11-30 13:31:38.360614
3369  2023-11-30 13:31:38.406943
3370  2023-11-30 13:31:38.437739
3371  2023-11-30 13:31:38.484416
3372  2023-11-30 13:31:38.530914
3373  2023-11-30 13:31:38.562248
3374  2023-11-30 13:31:38.609465
3375  2023-11-30 13:31:38.657229
3376  2023-11-30 13:31:38.689478
3377  2023-11-30 13:31:38.737217
3378  2023-11-30 13:31:38.783383
3379  2023-11-30 13:31:38.815665
3380  2023-11-30 13:31:38.865063
3381  2023-11-30 13:31:38.908909
3382  2023-11-30 13:31:38.938817
3383  2023-11-30 13:31:38.986447
3384  2023-11-30 13:31:39.034194
3385  2023-11-30 13:31:39.064737
3386  2023-11-30 13:31:39.111129
3387  2023-11-30 13:31:39.158164
3388  2023-11-30 13:31:39.188715
3389  2023-11-30 13:31:39.236552
3390  2023-11-30 13:31:39.283431
3391  2023-11-30 13:31:39.314379
3392  2023-11-30 13:31:39.361249
3393  2023-11-30 13:31:39.408567
3394  2023-11-30 13:31:39.440479
3395  2023-11-30 13:31:39.488302
3396  2023-11-30 13:31:39.536118
3397  2023-11-30 13:31:39.564811
3398  2023-11-30 13:31:39.612178
3399  2023-11-30 13:31:39.659430
3400  2023-11-30 13:31:39.691400
3401  2023-11-30 13:31:39.738585
3402  2023-11-30 13:31:39.769810
3403  2023-11-30 13:31:39.816448
3404  2023-11-30 13:31:39.863343
3405  2023-11-30 13:31:39.909509
3406  2023-11-30 13:31:39.940839
3407  2023-11-30 13:31:39.987170
3408  2023-11-30 13:31:40.033684
3409  2023-11-30 13:31:40.065778
3410  2023-11-30 13:31:40.112983
3411  2023-11-30 13:31:40.158603
3412  2023-11-30 13:31:40.190523
3413  2023-11-30 13:31:40.235511
3414  2023-11-30 13:31:40.283258
3415  2023-11-30 13:31:40.315141
3416  2023-11-30 13:31:40.360061
3417  2023-11-30 13:31:40.407895
3418  2023-11-30 13:31:40.439841
3419  2023-11-30 13:31:40.485721
3420  2023-11-30 13:31:40.533613
3421  2023-11-30 13:31:40.565512
3422  2023-11-30 13:31:40.612374
3423  2023-11-30 13:31:40.659313
3424  2023-11-30 13:31:40.690817
3425  2023-11-30 13:31:40.737682
3426  2023-11-30 13:31:40.786079
3427  2023-11-30 13:31:40.815473
3428  2023-11-30 13:31:40.864499
3429  2023-11-30 13:31:40.909921
3430  2023-11-30 13:31:40.941714
3431  2023-11-30 13:31:40.989595
3432  2023-11-30 13:31:41.022902
3433  2023-11-30 13:31:41.066468
3434  2023-11-30 13:31:41.112670
3435  2023-11-30 13:31:41.158991
3436  2023-11-30 13:31:41.190537
3437  2023-11-30 13:31:41.236374
3438  2023-11-30 13:31:41.282917
3439  2023-11-30 13:31:41.313771
3440  2023-11-30 13:31:41.360673
3441  2023-11-30 13:31:41.407866
3442  2023-11-30 13:31:41.439259
3443  2023-11-30 13:31:41.485693
3444  2023-11-30 13:31:41.534452
3445  2023-11-30 13:31:41.563401
3446  2023-11-30 13:31:41.609461
3447  2023-11-30 13:31:41.656343
3448  2023-11-30 13:31:41.687990
3449  2023-11-30 13:31:41.733847
3450  2023-11-30 13:31:41.781584
3451  2023-11-30 13:31:41.812894
3452  2023-11-30 13:31:41.858742
3453  2023-11-30 13:31:41.905479
3454  2023-11-30 13:31:41.938268
3455  2023-11-30 13:31:41.984492
3456  2023-11-30 13:31:42.031445
3457  2023-11-30 13:31:42.064613
3458  2023-11-30 13:31:42.110572
3459  2023-11-30 13:31:42.157976
3460  2023-11-30 13:31:42.189027
3461  2023-11-30 13:31:42.234426
3462  2023-11-30 13:31:42.283604
3463  2023-11-30 13:31:42.314636
3464  2023-11-30 13:31:42.361664
3465  2023-11-30 13:31:42.408771
3466  2023-11-30 13:31:42.440689
3467  2023-11-30 13:31:42.487019
3468  2023-11-30 13:31:42.533554
3469  2023-11-30 13:31:42.565552
3470  2023-11-30 13:31:42.611750
3471  2023-11-30 13:31:42.658319
3472  2023-11-30 13:31:42.689594
3473  2023-11-30 13:31:42.736965
3474  2023-11-30 13:31:42.783925
3475  2023-11-30 13:31:42.815774
3476  2023-11-30 13:31:42.861779
3477  2023-11-30 13:31:42.908843
3478  2023-11-30 13:31:42.940655
3479  2023-11-30 13:31:42.986686
3480  2023-11-30 13:31:43.034367
3481  2023-11-30 13:31:43.064639
3482  2023-11-30 13:31:43.111547
3483  2023-11-30 13:31:43.158486
3484  2023-11-30 13:31:43.189486
3485  2023-11-30 13:31:43.235759
3486  2023-11-30 13:31:43.282795
3487  2023-11-30 13:31:43.313523
3488  2023-11-30 13:31:43.359902
3489  2023-11-30 13:31:43.407846
3490  2023-11-30 13:31:43.437777
3491  2023-11-30 13:31:43.486310
3492  2023-11-30 13:31:43.534512
3493  2023-11-30 13:31:43.564561
3494  2023-11-30 13:31:43.612726
3495  2023-11-30 13:31:43.658023
3496  2023-11-30 13:31:43.689336
3497  2023-11-30 13:31:43.736523
3498  2023-11-30 13:31:43.783012
3499  2023-11-30 13:31:43.814548
3500  2023-11-30 13:31:43.861438
3501  2023-11-30 13:31:43.906478
3502  2023-11-30 13:31:43.938683
3503  2023-11-30 13:31:43.984537
3504  2023-11-30 13:31:44.032138
3505  2023-11-30 13:31:44.063667
3506  2023-11-30 13:31:44.110927
3507  2023-11-30 13:31:44.157343
3508  2023-11-30 13:31:44.189308
3509  2023-11-30 13:31:44.237350
3510  2023-11-30 13:31:44.285601
3511  2023-11-30 13:31:44.315614
3512  2023-11-30 13:31:44.363374
3513  2023-11-30 13:31:44.410629
3514  2023-11-30 13:31:44.440632
3515  2023-11-30 13:31:44.487777
3516  2023-11-30 13:31:44.534342
3517  2023-11-30 13:31:44.565997
3518  2023-11-30 13:31:44.613382
3519  2023-11-30 13:31:44.659711
3520  2023-11-30 13:31:44.690575
3521  2023-11-30 13:31:44.737835
3522  2023-11-30 13:31:44.784496
3523  2023-11-30 13:31:44.814920
3524  2023-11-30 13:31:44.862138
3525  2023-11-30 13:31:44.908023
3526  2023-11-30 13:31:44.938985
3527  2023-11-30 13:31:44.986966
3528  2023-11-30 13:31:45.032479
3529  2023-11-30 13:31:45.063672
3530  2023-11-30 13:31:45.109589
3531  2023-11-30 13:31:45.158418
3532  2023-11-30 13:31:45.189335
3533  2023-11-30 13:31:45.236126
3534  2023-11-30 13:31:45.283999
3535  2023-11-30 13:31:45.315081
3536  2023-11-30 13:31:45.361768
3537  2023-11-30 13:31:45.409347
3538  2023-11-30 13:31:45.439645
3539  2023-11-30 13:31:45.488360
3540  2023-11-30 13:31:45.534192
3541  2023-11-30 13:31:45.565839
3542  2023-11-30 13:31:45.612351
3543  2023-11-30 13:31:45.659647
3544  2023-11-30 13:31:45.691105
3545  2023-11-30 13:31:45.738370
3546  2023-11-30 13:31:45.787126
3547  2023-11-30 13:31:45.815370
3548  2023-11-30 13:31:45.862501
3549  2023-11-30 13:31:45.909599
3550  2023-11-30 13:31:45.940104
3551  2023-11-30 13:31:45.986781
3552  2023-11-30 13:31:46.034791
3553  2023-11-30 13:31:46.066843
3554  2023-11-30 13:31:46.113055
3555  2023-11-30 13:31:46.159915
3556  2023-11-30 13:31:46.191658
3557  2023-11-30 13:31:46.238875
3558  2023-11-30 13:31:46.287075
3559  2023-11-30 13:31:46.318037
3560  2023-11-30 13:31:46.363922
3561  2023-11-30 13:31:46.409814
