
1  2023-11-30 13:39:53.923836
2  2023-11-30 13:39:53.954718
3  2023-11-30 13:39:54.000384
4  2023-11-30 13:39:54.047380
5  2023-11-30 13:39:54.094380
6  2023-11-30 13:39:54.125947
7  2023-11-30 13:39:54.173365
8  2023-11-30 13:39:54.205715
9  2023-11-30 13:39:54.252935
10  2023-11-30 13:39:54.300842
11  2023-11-30 13:39:54.332282
12  2023-11-30 13:39:54.377497
13  2023-11-30 13:39:54.423964
14  2023-11-30 13:39:54.454947
15  2023-11-30 13:39:54.501018
16  2023-11-30 13:39:54.547223
17  2023-11-30 13:39:54.594045
18  2023-11-30 13:39:54.625770
19  2023-11-30 13:39:54.671501
20  2023-11-30 13:39:54.718267
21  2023-11-30 13:39:54.748942
22  2023-11-30 13:39:54.794989
23  2023-11-30 13:39:54.841490
24  2023-11-30 13:39:54.872513
25  2023-11-30 13:39:54.918893
26  2023-11-30 13:39:54.965812
27  2023-11-30 13:39:54.996730
28  2023-11-30 13:39:55.044742
29  2023-11-30 13:39:55.091643
30  2023-11-30 13:39:55.122784
31  2023-11-30 13:39:55.169919
32  2023-11-30 13:39:55.215979
33  2023-11-30 13:39:55.246860
34  2023-11-30 13:39:55.292907
35  2023-11-30 13:39:55.340477
36  2023-11-30 13:39:55.372331
37  2023-11-30 13:39:55.419197
38  2023-11-30 13:39:55.465842
39  2023-11-30 13:39:55.497067
40  2023-11-30 13:39:55.543567
41  2023-11-30 13:39:55.589843
42  2023-11-30 13:39:55.620740
43  2023-11-30 13:39:55.667121
44  2023-11-30 13:39:55.714601
45  2023-11-30 13:39:55.747099
46  2023-11-30 13:39:55.791487
47  2023-11-30 13:39:55.838495
48  2023-11-30 13:39:55.884830
49  2023-11-30 13:39:55.915709
50  2023-11-30 13:39:55.962315
51  2023-11-30 13:39:56.009242
52  2023-11-30 13:39:56.040235
53  2023-11-30 13:39:56.086672
54  2023-11-30 13:39:56.133737
55  2023-11-30 13:39:56.164788
56  2023-11-30 13:39:56.212810
57  2023-11-30 13:39:56.259756
58  2023-11-30 13:39:56.289807
59  2023-11-30 13:39:56.337771
60  2023-11-30 13:39:56.383622
61  2023-11-30 13:39:56.414182
62  2023-11-30 13:39:56.460141
63  2023-11-30 13:39:56.506293
64  2023-11-30 13:39:56.537729
65  2023-11-30 13:39:56.583901
66  2023-11-30 13:39:56.630642
67  2023-11-30 13:39:56.677725
68  2023-11-30 13:39:56.708433
69  2023-11-30 13:39:56.755764
70  2023-11-30 13:39:56.801968
71  2023-11-30 13:39:56.831960
72  2023-11-30 13:39:56.877729
73  2023-11-30 13:39:56.924474
74  2023-11-30 13:39:56.955251
75  2023-11-30 13:39:57.002750
76  2023-11-30 13:39:57.049723
77  2023-11-30 13:39:57.080967
78  2023-11-30 13:39:57.128840
79  2023-11-30 13:39:57.176023
80  2023-11-30 13:39:57.207648
81  2023-11-30 13:39:57.254207
82  2023-11-30 13:39:57.300911
83  2023-11-30 13:39:57.333774
84  2023-11-30 13:39:57.378611
85  2023-11-30 13:39:57.425192
86  2023-11-30 13:39:57.456224
87  2023-11-30 13:39:57.502193
88  2023-11-30 13:39:57.548655
89  2023-11-30 13:39:57.579148
90  2023-11-30 13:39:57.626070
91  2023-11-30 13:39:57.673293
92  2023-11-30 13:39:57.703827
93  2023-11-30 13:39:57.750996
94  2023-11-30 13:39:57.798053
95  2023-11-30 13:39:57.829689
96  2023-11-30 13:39:57.877316
97  2023-11-30 13:39:57.923877
98  2023-11-30 13:39:57.955944
99  2023-11-30 13:39:58.003014
100  2023-11-30 13:39:58.049749
101  2023-11-30 13:39:58.082084
102  2023-11-30 13:39:58.128915
103  2023-11-30 13:39:58.175688
104  2023-11-30 13:39:58.206739
105  2023-11-30 13:39:58.253771
106  2023-11-30 13:39:58.300904
107  2023-11-30 13:39:58.331537
108  2023-11-30 13:39:58.377755
109  2023-11-30 13:39:58.425471
110  2023-11-30 13:39:58.456980
111  2023-11-30 13:39:58.504242
112  2023-11-30 13:39:58.550742
113  2023-11-30 13:39:58.581701
114  2023-11-30 13:39:58.629628
115  2023-11-30 13:39:58.676300
116  2023-11-30 13:39:58.708245
117  2023-11-30 13:39:58.754775
118  2023-11-30 13:39:58.801936
119  2023-11-30 13:39:58.832225
120  2023-11-30 13:39:58.877795
121  2023-11-30 13:39:58.923767
122  2023-11-30 13:39:58.954845
123  2023-11-30 13:39:59.002179
124  2023-11-30 13:39:59.049686
125  2023-11-30 13:39:59.080703
126  2023-11-30 13:39:59.126631
127  2023-11-30 13:39:59.174071
128  2023-11-30 13:39:59.205680
129  2023-11-30 13:39:59.252338
130  2023-11-30 13:39:59.299040
131  2023-11-30 13:39:59.330344
132  2023-11-30 13:39:59.378508
133  2023-11-30 13:39:59.424237
134  2023-11-30 13:39:59.455573
135  2023-11-30 13:39:59.503193
136  2023-11-30 13:39:59.549824
137  2023-11-30 13:39:59.581139
138  2023-11-30 13:39:59.627390
139  2023-11-30 13:39:59.674330
140  2023-11-30 13:39:59.705549
141  2023-11-30 13:39:59.751812
142  2023-11-30 13:39:59.798483
143  2023-11-30 13:39:59.830071
144  2023-11-30 13:39:59.878208
145  2023-11-30 13:39:59.924755
146  2023-11-30 13:39:59.956027
147  2023-11-30 13:40:00.003110
148  2023-11-30 13:40:00.048013
149  2023-11-30 13:40:00.094156
150  2023-11-30 13:40:00.125994
151  2023-11-30 13:40:00.172063
152  2023-11-30 13:40:00.218398
153  2023-11-30 13:40:00.249259
154  2023-11-30 13:40:00.296790
155  2023-11-30 13:40:00.342642
156  2023-11-30 13:40:00.373675
157  2023-11-30 13:40:00.420902
158  2023-11-30 13:40:00.468611
159  2023-11-30 13:40:00.498884
160  2023-11-30 13:40:00.545664
161  2023-11-30 13:40:00.591612
162  2023-11-30 13:40:00.623594
163  2023-11-30 13:40:00.669273
164  2023-11-30 13:40:00.716012
165  2023-11-30 13:40:00.747538
166  2023-11-30 13:40:00.794469
167  2023-11-30 13:40:00.841230
168  2023-11-30 13:40:00.873116
169  2023-11-30 13:40:00.919873
170  2023-11-30 13:40:00.965831
171  2023-11-30 13:40:00.997297
172  2023-11-30 13:40:01.045728
173  2023-11-30 13:40:01.091768
174  2023-11-30 13:40:01.122797
175  2023-11-30 13:40:01.169749
176  2023-11-30 13:40:01.216847
177  2023-11-30 13:40:01.248048
178  2023-11-30 13:40:01.294233
179  2023-11-30 13:40:01.341180
180  2023-11-30 13:40:01.372052
181  2023-11-30 13:40:01.419229
182  2023-11-30 13:40:01.465826
183  2023-11-30 13:40:01.496468
184  2023-11-30 13:40:01.543083
185  2023-11-30 13:40:01.591370
186  2023-11-30 13:40:01.621488
187  2023-11-30 13:40:01.668241
188  2023-11-30 13:40:01.713956
189  2023-11-30 13:40:01.760153
190  2023-11-30 13:40:01.790637
191  2023-11-30 13:40:01.837499
192  2023-11-30 13:40:01.884136
193  2023-11-30 13:40:01.913993
194  2023-11-30 13:40:01.961522
195  2023-11-30 13:40:02.007793
196  2023-11-30 13:40:02.039745
197  2023-11-30 13:40:02.085419
198  2023-11-30 13:40:02.131765
199  2023-11-30 13:40:02.163709
200  2023-11-30 13:40:02.210122
201  2023-11-30 13:40:02.256341
202  2023-11-30 13:40:02.287962
203  2023-11-30 13:40:02.333244
204  2023-11-30 13:40:02.380383
205  2023-11-30 13:40:02.426466
206  2023-11-30 13:40:02.457677
207  2023-11-30 13:40:02.503630
208  2023-11-30 13:40:02.550954
209  2023-11-30 13:40:02.582557
210  2023-11-30 13:40:02.629448
211  2023-11-30 13:40:02.676119
212  2023-11-30 13:40:02.707861
213  2023-11-30 13:40:02.755800
214  2023-11-30 13:40:02.802736
215  2023-11-30 13:40:02.832133
216  2023-11-30 13:40:02.877968
217  2023-11-30 13:40:02.924870
218  2023-11-30 13:40:02.956023
219  2023-11-30 13:40:03.002083
220  2023-11-30 13:40:03.048480
221  2023-11-30 13:40:03.080133
222  2023-11-30 13:40:03.127002
223  2023-11-30 13:40:03.173587
224  2023-11-30 13:40:03.204857
225  2023-11-30 13:40:03.251782
226  2023-11-30 13:40:03.299721
227  2023-11-30 13:40:03.331356
228  2023-11-30 13:40:03.376132
229  2023-11-30 13:40:03.422799
230  2023-11-30 13:40:03.454198
231  2023-11-30 13:40:03.500857
232  2023-11-30 13:40:03.547357
233  2023-11-30 13:40:03.591985
234  2023-11-30 13:40:03.623200
235  2023-11-30 13:40:03.669860
236  2023-11-30 13:40:03.716948
237  2023-11-30 13:40:03.748733
238  2023-11-30 13:40:03.796754
239  2023-11-30 13:40:03.844083
240  2023-11-30 13:40:03.875470
241  2023-11-30 13:40:03.923772
242  2023-11-30 13:40:03.968436
243  2023-11-30 13:40:03.999442
244  2023-11-30 13:40:04.045099
245  2023-11-30 13:40:04.091167
246  2023-11-30 13:40:04.123137
247  2023-11-30 13:40:04.169443
248  2023-11-30 13:40:04.216491
249  2023-11-30 13:40:04.247631
250  2023-11-30 13:40:04.294960
251  2023-11-30 13:40:04.340893
252  2023-11-30 13:40:04.371517
253  2023-11-30 13:40:04.418526
254  2023-11-30 13:40:04.463387
255  2023-11-30 13:40:04.510429
256  2023-11-30 13:40:04.541596
257  2023-11-30 13:40:04.587135
258  2023-11-30 13:40:04.633942
259  2023-11-30 13:40:04.664988
260  2023-11-30 13:40:04.712830
261  2023-11-30 13:40:04.758877
262  2023-11-30 13:40:04.790458
263  2023-11-30 13:40:04.836871
264  2023-11-30 13:40:04.884684
265  2023-11-30 13:40:04.914661
266  2023-11-30 13:40:04.961038
267  2023-11-30 13:40:05.006815
268  2023-11-30 13:40:05.037345
269  2023-11-30 13:40:05.083900
270  2023-11-30 13:40:05.130116
271  2023-11-30 13:40:05.176715
272  2023-11-30 13:40:05.208659
273  2023-11-30 13:40:05.255304
274  2023-11-30 13:40:05.302692
275  2023-11-30 13:40:05.332608
276  2023-11-30 13:40:05.379596
277  2023-11-30 13:40:05.427184
278  2023-11-30 13:40:05.457754
279  2023-11-30 13:40:05.503868
280  2023-11-30 13:40:05.549980
281  2023-11-30 13:40:05.580914
282  2023-11-30 13:40:05.626772
283  2023-11-30 13:40:05.673000
284  2023-11-30 13:40:05.718843
285  2023-11-30 13:40:05.750566
286  2023-11-30 13:40:05.797517
287  2023-11-30 13:40:05.829139
288  2023-11-30 13:40:05.876718
289  2023-11-30 13:40:05.923877
290  2023-11-30 13:40:05.955162
291  2023-11-30 13:40:06.002730
292  2023-11-30 13:40:06.051192
293  2023-11-30 13:40:06.082871
294  2023-11-30 13:40:06.130663
295  2023-11-30 13:40:06.163673
296  2023-11-30 13:40:06.209737
297  2023-11-30 13:40:06.257678
298  2023-11-30 13:40:06.289640
299  2023-11-30 13:40:06.336814
300  2023-11-30 13:40:06.383413
301  2023-11-30 13:40:06.414623
302  2023-11-30 13:40:06.460957
303  2023-11-30 13:40:06.506875
304  2023-11-30 13:40:06.537737
305  2023-11-30 13:40:06.583419
306  2023-11-30 13:40:06.630590
307  2023-11-30 13:40:06.676762
308  2023-11-30 13:40:06.707952
309  2023-11-30 13:40:06.754069
310  2023-11-30 13:40:06.801379
311  2023-11-30 13:40:06.832343
312  2023-11-30 13:40:06.879439
313  2023-11-30 13:40:06.925828
314  2023-11-30 13:40:06.956373
315  2023-11-30 13:40:07.003468
316  2023-11-30 13:40:07.049780
317  2023-11-30 13:40:07.080824
318  2023-11-30 13:40:07.126950
319  2023-11-30 13:40:07.173327
320  2023-11-30 13:40:07.205678
321  2023-11-30 13:40:07.252115
322  2023-11-30 13:40:07.299609
323  2023-11-30 13:40:07.330641
324  2023-11-30 13:40:07.378640
325  2023-11-30 13:40:07.426539
326  2023-11-30 13:40:07.458561
327  2023-11-30 13:40:07.506080
328  2023-11-30 13:40:07.552851
329  2023-11-30 13:40:07.582584
330  2023-11-30 13:40:07.630180
331  2023-11-30 13:40:07.676786
332  2023-11-30 13:40:07.707144
333  2023-11-30 13:40:07.753565
334  2023-11-30 13:40:07.800285
335  2023-11-30 13:40:07.829282
336  2023-11-30 13:40:07.875611
337  2023-11-30 13:40:07.923666
338  2023-11-30 13:40:07.954862
339  2023-11-30 13:40:08.001392
340  2023-11-30 13:40:08.048516
341  2023-11-30 13:40:08.079432
342  2023-11-30 13:40:08.126704
343  2023-11-30 13:40:08.172436
344  2023-11-30 13:40:08.218518
345  2023-11-30 13:40:08.249665
346  2023-11-30 13:40:08.295271
347  2023-11-30 13:40:08.341139
348  2023-11-30 13:40:08.372224
349  2023-11-30 13:40:08.419064
350  2023-11-30 13:40:08.465794
351  2023-11-30 13:40:08.496661
352  2023-11-30 13:40:08.542669
353  2023-11-30 13:40:08.589438
354  2023-11-30 13:40:08.620416
355  2023-11-30 13:40:08.666699
356  2023-11-30 13:40:08.713083
357  2023-11-30 13:40:08.759964
358  2023-11-30 13:40:08.791297
359  2023-11-30 13:40:08.837513
360  2023-11-30 13:40:08.883928
361  2023-11-30 13:40:08.914863
362  2023-11-30 13:40:08.961715
363  2023-11-30 13:40:09.008686
364  2023-11-30 13:40:09.040522
365  2023-11-30 13:40:09.088588
366  2023-11-30 13:40:09.135030
367  2023-11-30 13:40:09.167948
368  2023-11-30 13:40:09.211834
369  2023-11-30 13:40:09.257775
370  2023-11-30 13:40:09.288099
371  2023-11-30 13:40:09.335505
372  2023-11-30 13:40:09.382230
373  2023-11-30 13:40:09.413808
374  2023-11-30 13:40:09.461616
375  2023-11-30 13:40:09.508686
376  2023-11-30 13:40:09.539154
377  2023-11-30 13:40:09.586220
378  2023-11-30 13:40:09.633706
379  2023-11-30 13:40:09.665097
380  2023-11-30 13:40:09.712813
381  2023-11-30 13:40:09.760655
382  2023-11-30 13:40:09.792030
383  2023-11-30 13:40:09.837737
384  2023-11-30 13:40:09.884131
385  2023-11-30 13:40:09.915182
386  2023-11-30 13:40:09.961693
387  2023-11-30 13:40:10.008663
388  2023-11-30 13:40:10.039634
389  2023-11-30 13:40:10.085423
390  2023-11-30 13:40:10.132721
391  2023-11-30 13:40:10.162758
392  2023-11-30 13:40:10.209922
393  2023-11-30 13:40:10.257591
394  2023-11-30 13:40:10.288175
395  2023-11-30 13:40:10.335152
396  2023-11-30 13:40:10.381477
397  2023-11-30 13:40:10.412629
398  2023-11-30 13:40:10.458384
399  2023-11-30 13:40:10.504755
400  2023-11-30 13:40:10.551324
401  2023-11-30 13:40:10.582513
402  2023-11-30 13:40:10.629905
403  2023-11-30 13:40:10.676923
404  2023-11-30 13:40:10.708638
405  2023-11-30 13:40:10.756722
406  2023-11-30 13:40:10.802769
407  2023-11-30 13:40:10.832299
408  2023-11-30 13:40:10.878983
409  2023-11-30 13:40:10.925045
410  2023-11-30 13:40:10.956283
411  2023-11-30 13:40:11.002875
412  2023-11-30 13:40:11.049722
413  2023-11-30 13:40:11.080599
414  2023-11-30 13:40:11.127814
415  2023-11-30 13:40:11.173559
416  2023-11-30 13:40:11.204583
417  2023-11-30 13:40:11.250738
418  2023-11-30 13:40:11.298747
419  2023-11-30 13:40:11.330253
420  2023-11-30 13:40:11.377726
421  2023-11-30 13:40:11.423978
422  2023-11-30 13:40:11.454548
423  2023-11-30 13:40:11.500733
424  2023-11-30 13:40:11.547398
425  2023-11-30 13:40:11.593458
426  2023-11-30 13:40:11.624587
427  2023-11-30 13:40:11.670775
428  2023-11-30 13:40:11.716738
429  2023-11-30 13:40:11.749378
430  2023-11-30 13:40:11.795723
431  2023-11-30 13:40:11.842830
432  2023-11-30 13:40:11.873901
433  2023-11-30 13:40:11.920330
434  2023-11-30 13:40:11.966179
435  2023-11-30 13:40:11.998132
436  2023-11-30 13:40:12.044727
437  2023-11-30 13:40:12.090808
438  2023-11-30 13:40:12.121715
439  2023-11-30 13:40:12.168793
440  2023-11-30 13:40:12.214830
441  2023-11-30 13:40:12.246679
442  2023-11-30 13:40:12.293397
443  2023-11-30 13:40:12.339969
444  2023-11-30 13:40:12.371717
445  2023-11-30 13:40:12.418801
446  2023-11-30 13:40:12.465415
447  2023-11-30 13:40:12.496271
448  2023-11-30 13:40:12.542373
449  2023-11-30 13:40:12.589814
450  2023-11-30 13:40:12.620672
451  2023-11-30 13:40:12.666673
452  2023-11-30 13:40:12.713754
453  2023-11-30 13:40:12.760278
454  2023-11-30 13:40:12.791187
455  2023-11-30 13:40:12.837973
456  2023-11-30 13:40:12.884540
457  2023-11-30 13:40:12.915826
458  2023-11-30 13:40:12.963367
459  2023-11-30 13:40:13.009745
460  2023-11-30 13:40:13.042738
461  2023-11-30 13:40:13.087780
462  2023-11-30 13:40:13.134663
463  2023-11-30 13:40:13.165246
464  2023-11-30 13:40:13.212500
465  2023-11-30 13:40:13.259175
466  2023-11-30 13:40:13.290016
467  2023-11-30 13:40:13.336568
468  2023-11-30 13:40:13.382122
469  2023-11-30 13:40:13.412721
470  2023-11-30 13:40:13.458849
471  2023-11-30 13:40:13.505736
472  2023-11-30 13:40:13.551822
473  2023-11-30 13:40:13.582757
474  2023-11-30 13:40:13.629020
475  2023-11-30 13:40:13.676352
476  2023-11-30 13:40:13.707814
477  2023-11-30 13:40:13.754391
478  2023-11-30 13:40:13.800510
479  2023-11-30 13:40:13.831828
480  2023-11-30 13:40:13.878776
481  2023-11-30 13:40:13.925854
482  2023-11-30 13:40:13.956923
483  2023-11-30 13:40:14.003454
484  2023-11-30 13:40:14.050773
485  2023-11-30 13:40:14.081754
486  2023-11-30 13:40:14.129195
487  2023-11-30 13:40:14.175749
488  2023-11-30 13:40:14.206730
489  2023-11-30 13:40:14.254073
490  2023-11-30 13:40:14.300558
491  2023-11-30 13:40:14.332125
492  2023-11-30 13:40:14.379790
493  2023-11-30 13:40:14.427715
494  2023-11-30 13:40:14.457768
495  2023-11-30 13:40:14.504941
496  2023-11-30 13:40:14.551437
497  2023-11-30 13:40:14.583005
498  2023-11-30 13:40:14.628819
499  2023-11-30 13:40:14.677051
500  2023-11-30 13:40:14.708658
501  2023-11-30 13:40:14.755731
502  2023-11-30 13:40:14.801724
503  2023-11-30 13:40:14.832855
504  2023-11-30 13:40:14.879335
505  2023-11-30 13:40:14.925423
506  2023-11-30 13:40:14.956602
507  2023-11-30 13:40:15.003644
508  2023-11-30 13:40:15.051341
509  2023-11-30 13:40:15.083896
510  2023-11-30 13:40:15.131016
511  2023-11-30 13:40:15.162387
512  2023-11-30 13:40:15.208837
513  2023-11-30 13:40:15.256617
514  2023-11-30 13:40:15.301993
515  2023-11-30 13:40:15.331493
516  2023-11-30 13:40:15.379489
517  2023-11-30 13:40:15.425754
518  2023-11-30 13:40:15.457743
519  2023-11-30 13:40:15.504081
520  2023-11-30 13:40:15.551024
521  2023-11-30 13:40:15.581352
522  2023-11-30 13:40:15.626975
523  2023-11-30 13:40:15.674896
524  2023-11-30 13:40:15.707047
525  2023-11-30 13:40:15.753120
526  2023-11-30 13:40:15.800019
527  2023-11-30 13:40:15.831246
528  2023-11-30 13:40:15.879159
529  2023-11-30 13:40:15.925518
530  2023-11-30 13:40:15.957192
531  2023-11-30 13:40:16.002717
532  2023-11-30 13:40:16.050823
533  2023-11-30 13:40:16.080963
534  2023-11-30 13:40:16.126933
535  2023-11-30 13:40:16.172678
536  2023-11-30 13:40:16.204525
537  2023-11-30 13:40:16.251602
538  2023-11-30 13:40:16.298179
539  2023-11-30 13:40:16.328794
540  2023-11-30 13:40:16.376010
541  2023-11-30 13:40:16.422336
542  2023-11-30 13:40:16.469256
543  2023-11-30 13:40:16.500989
544  2023-11-30 13:40:16.548510
545  2023-11-30 13:40:16.580075
546  2023-11-30 13:40:16.626848
547  2023-11-30 13:40:16.673724
548  2023-11-30 13:40:16.705785
549  2023-11-30 13:40:16.753871
550  2023-11-30 13:40:16.799620
551  2023-11-30 13:40:16.830395
552  2023-11-30 13:40:16.876877
553  2023-11-30 13:40:16.923839
554  2023-11-30 13:40:16.954073
555  2023-11-30 13:40:17.001084
556  2023-11-30 13:40:17.047384
557  2023-11-30 13:40:17.093514
558  2023-11-30 13:40:17.124437
559  2023-11-30 13:40:17.170500
560  2023-11-30 13:40:17.217246
561  2023-11-30 13:40:17.247877
562  2023-11-30 13:40:17.294122
563  2023-11-30 13:40:17.340461
564  2023-11-30 13:40:17.371243
565  2023-11-30 13:40:17.418427
566  2023-11-30 13:40:17.465819
567  2023-11-30 13:40:17.497603
568  2023-11-30 13:40:17.544895
569  2023-11-30 13:40:17.591685
570  2023-11-30 13:40:17.622983
571  2023-11-30 13:40:17.668933
572  2023-11-30 13:40:17.715725
573  2023-11-30 13:40:17.746744
574  2023-11-30 13:40:17.793292
575  2023-11-30 13:40:17.840492
576  2023-11-30 13:40:17.871794
577  2023-11-30 13:40:17.918024
578  2023-11-30 13:40:17.963895
579  2023-11-30 13:40:18.011090
580  2023-11-30 13:40:18.042822
581  2023-11-30 13:40:18.089473
582  2023-11-30 13:40:18.121038
583  2023-11-30 13:40:18.167519
584  2023-11-30 13:40:18.215789
585  2023-11-30 13:40:18.245761
586  2023-11-30 13:40:18.292943
587  2023-11-30 13:40:18.339606
588  2023-11-30 13:40:18.385264
589  2023-11-30 13:40:18.415901
590  2023-11-30 13:40:18.462175
591  2023-11-30 13:40:18.508728
592  2023-11-30 13:40:18.539955
593  2023-11-30 13:40:18.585755
594  2023-11-30 13:40:18.632429
595  2023-11-30 13:40:18.663713
596  2023-11-30 13:40:18.709709
597  2023-11-30 13:40:18.755923
598  2023-11-30 13:40:18.788197
599  2023-11-30 13:40:18.834920
600  2023-11-30 13:40:18.882154
601  2023-11-30 13:40:18.913361
602  2023-11-30 13:40:18.959823
603  2023-11-30 13:40:19.006868
604  2023-11-30 13:40:19.037757
605  2023-11-30 13:40:19.084611
606  2023-11-30 13:40:19.131344
607  2023-11-30 13:40:19.162398
608  2023-11-30 13:40:19.209527
609  2023-11-30 13:40:19.255777
610  2023-11-30 13:40:19.303282
611  2023-11-30 13:40:19.333708
612  2023-11-30 13:40:19.380317
613  2023-11-30 13:40:19.426914
614  2023-11-30 13:40:19.457955
615  2023-11-30 13:40:19.505710
616  2023-11-30 13:40:19.552676
617  2023-11-30 13:40:19.583709
618  2023-11-30 13:40:19.630258
619  2023-11-30 13:40:19.676828
620  2023-11-30 13:40:19.707796
621  2023-11-30 13:40:19.754352
622  2023-11-30 13:40:19.801931
623  2023-11-30 13:40:19.831882
624  2023-11-30 13:40:19.880107
625  2023-11-30 13:40:19.927099
626  2023-11-30 13:40:19.956723
627  2023-11-30 13:40:20.004393
628  2023-11-30 13:40:20.049397
629  2023-11-30 13:40:20.080034
630  2023-11-30 13:40:20.126664
631  2023-11-30 13:40:20.173485
632  2023-11-30 13:40:20.204721
633  2023-11-30 13:40:20.250698
634  2023-11-30 13:40:20.297741
635  2023-11-30 13:40:20.329378
636  2023-11-30 13:40:20.376022
637  2023-11-30 13:40:20.424206
638  2023-11-30 13:40:20.456678
639  2023-11-30 13:40:20.503847
640  2023-11-30 13:40:20.550743
641  2023-11-30 13:40:20.581600
642  2023-11-30 13:40:20.628966
643  2023-11-30 13:40:20.674809
644  2023-11-30 13:40:20.705774
645  2023-11-30 13:40:20.752729
646  2023-11-30 13:40:20.799718
647  2023-11-30 13:40:20.831668
648  2023-11-30 13:40:20.878300
649  2023-11-30 13:40:20.924725
650  2023-11-30 13:40:20.955839
651  2023-11-30 13:40:21.001697
652  2023-11-30 13:40:21.048186
653  2023-11-30 13:40:21.079101
654  2023-11-30 13:40:21.124756
655  2023-11-30 13:40:21.171495
656  2023-11-30 13:40:21.218067
657  2023-11-30 13:40:21.249753
658  2023-11-30 13:40:21.295666
659  2023-11-30 13:40:21.342369
660  2023-11-30 13:40:21.374373
661  2023-11-30 13:40:21.420705
662  2023-11-30 13:40:21.467127
663  2023-11-30 13:40:21.498115
664  2023-11-30 13:40:21.543814
665  2023-11-30 13:40:21.591183
666  2023-11-30 13:40:21.622087
667  2023-11-30 13:40:21.669174
668  2023-11-30 13:40:21.714646
669  2023-11-30 13:40:21.746736
670  2023-11-30 13:40:21.793671
671  2023-11-30 13:40:21.839640
672  2023-11-30 13:40:21.871047
673  2023-11-30 13:40:21.917927
674  2023-11-30 13:40:21.963694
675  2023-11-30 13:40:22.009231
676  2023-11-30 13:40:22.039985
677  2023-11-30 13:40:22.086753
678  2023-11-30 13:40:22.132723
679  2023-11-30 13:40:22.162466
680  2023-11-30 13:40:22.209717
681  2023-11-30 13:40:22.255615
682  2023-11-30 13:40:22.287216
683  2023-11-30 13:40:22.333676
684  2023-11-30 13:40:22.379888
685  2023-11-30 13:40:22.427200
686  2023-11-30 13:40:22.457646
687  2023-11-30 13:40:22.503971
688  2023-11-30 13:40:22.550525
689  2023-11-30 13:40:22.581761
690  2023-11-30 13:40:22.628943
691  2023-11-30 13:40:22.676682
692  2023-11-30 13:40:22.707743
693  2023-11-30 13:40:22.753340
694  2023-11-30 13:40:22.801257
695  2023-11-30 13:40:22.831023
696  2023-11-30 13:40:22.877077
697  2023-11-30 13:40:22.923105
698  2023-11-30 13:40:22.954048
699  2023-11-30 13:40:23.001747
700  2023-11-30 13:40:23.048156
701  2023-11-30 13:40:23.079358
702  2023-11-30 13:40:23.125769
703  2023-11-30 13:40:23.174308
704  2023-11-30 13:40:23.219444
705  2023-11-30 13:40:23.249730
706  2023-11-30 13:40:23.296705
707  2023-11-30 13:40:23.343732
708  2023-11-30 13:40:23.375412
709  2023-11-30 13:40:23.421529
710  2023-11-30 13:40:23.468175
711  2023-11-30 13:40:23.498650
712  2023-11-30 13:40:23.545277
713  2023-11-30 13:40:23.592609
714  2023-11-30 13:40:23.623020
715  2023-11-30 13:40:23.669954
716  2023-11-30 13:40:23.717035
717  2023-11-30 13:40:23.748639
718  2023-11-30 13:40:23.795731
719  2023-11-30 13:40:23.842895
720  2023-11-30 13:40:23.875739
721  2023-11-30 13:40:23.922719
722  2023-11-30 13:40:23.967942
723  2023-11-30 13:40:23.998999
724  2023-11-30 13:40:24.044734
725  2023-11-30 13:40:24.092051
726  2023-11-30 13:40:24.123922
727  2023-11-30 13:40:24.170344
728  2023-11-30 13:40:24.217142
729  2023-11-30 13:40:24.248720
730  2023-11-30 13:40:24.294269
731  2023-11-30 13:40:24.340818
732  2023-11-30 13:40:24.372880
733  2023-11-30 13:40:24.419183
734  2023-11-30 13:40:24.464563
735  2023-11-30 13:40:24.495714
736  2023-11-30 13:40:24.542792
737  2023-11-30 13:40:24.588355
738  2023-11-30 13:40:24.635031
739  2023-11-30 13:40:24.666939
740  2023-11-30 13:40:24.713747
741  2023-11-30 13:40:24.760371
742  2023-11-30 13:40:24.790997
743  2023-11-30 13:40:24.837660
744  2023-11-30 13:40:24.884346
745  2023-11-30 13:40:24.914878
746  2023-11-30 13:40:24.961686
747  2023-11-30 13:40:25.008830
748  2023-11-30 13:40:25.040058
749  2023-11-30 13:40:25.087665
750  2023-11-30 13:40:25.134554
751  2023-11-30 13:40:25.165789
752  2023-11-30 13:40:25.211757
753  2023-11-30 13:40:25.258123
754  2023-11-30 13:40:25.290339
755  2023-11-30 13:40:25.336845
756  2023-11-30 13:40:25.383546
757  2023-11-30 13:40:25.414576
758  2023-11-30 13:40:25.461857
759  2023-11-30 13:40:25.509711
760  2023-11-30 13:40:25.541910
761  2023-11-30 13:40:25.588488
762  2023-11-30 13:40:25.635922
763  2023-11-30 13:40:25.666933
764  2023-11-30 13:40:25.713062
765  2023-11-30 13:40:25.759375
766  2023-11-30 13:40:25.790361
767  2023-11-30 13:40:25.837265
768  2023-11-30 13:40:25.883367
769  2023-11-30 13:40:25.914782
770  2023-11-30 13:40:25.960936
771  2023-11-30 13:40:26.007706
772  2023-11-30 13:40:26.038749
773  2023-11-30 13:40:26.085264
774  2023-11-30 13:40:26.132217
775  2023-11-30 13:40:26.163396
776  2023-11-30 13:40:26.209748
777  2023-11-30 13:40:26.256421
778  2023-11-30 13:40:26.287602
779  2023-11-30 13:40:26.333073
780  2023-11-30 13:40:26.380550
781  2023-11-30 13:40:26.426759
782  2023-11-30 13:40:26.457765
783  2023-11-30 13:40:26.504073
784  2023-11-30 13:40:26.550903
785  2023-11-30 13:40:26.581667
786  2023-11-30 13:40:26.629026
787  2023-11-30 13:40:26.676389
788  2023-11-30 13:40:26.706687
789  2023-11-30 13:40:26.752871
790  2023-11-30 13:40:26.799207
791  2023-11-30 13:40:26.829309
792  2023-11-30 13:40:26.875950
793  2023-11-30 13:40:26.923302
794  2023-11-30 13:40:26.953848
795  2023-11-30 13:40:27.000928
796  2023-11-30 13:40:27.046383
797  2023-11-30 13:40:27.092726
798  2023-11-30 13:40:27.124211
799  2023-11-30 13:40:27.170363
800  2023-11-30 13:40:27.217863
801  2023-11-30 13:40:27.247944
802  2023-11-30 13:40:27.293768
803  2023-11-30 13:40:27.340543
804  2023-11-30 13:40:27.371916
805  2023-11-30 13:40:27.418254
806  2023-11-30 13:40:27.465443
807  2023-11-30 13:40:27.496395
808  2023-11-30 13:40:27.542871
809  2023-11-30 13:40:27.588975
810  2023-11-30 13:40:27.635887
811  2023-11-30 13:40:27.665858
812  2023-11-30 13:40:27.712516
813  2023-11-30 13:40:27.760531
814  2023-11-30 13:40:27.791888
815  2023-11-30 13:40:27.837275
816  2023-11-30 13:40:27.883700
817  2023-11-30 13:40:27.915535
818  2023-11-30 13:40:27.961465
819  2023-11-30 13:40:28.009402
820  2023-11-30 13:40:28.040871
821  2023-11-30 13:40:28.087214
822  2023-11-30 13:40:28.133732
823  2023-11-30 13:40:28.165563
824  2023-11-30 13:40:28.211429
825  2023-11-30 13:40:28.258477
826  2023-11-30 13:40:28.290266
827  2023-11-30 13:40:28.337163
828  2023-11-30 13:40:28.384983
829  2023-11-30 13:40:28.415776
830  2023-11-30 13:40:28.461716
831  2023-11-30 13:40:28.508082
832  2023-11-30 13:40:28.539504
833  2023-11-30 13:40:28.586720
834  2023-11-30 13:40:28.632957
835  2023-11-30 13:40:28.664311
836  2023-11-30 13:40:28.712248
837  2023-11-30 13:40:28.758608
838  2023-11-30 13:40:28.789774
839  2023-11-30 13:40:28.836878
840  2023-11-30 13:40:28.882687
841  2023-11-30 13:40:28.914095
842  2023-11-30 13:40:28.959314
843  2023-11-30 13:40:29.005754
844  2023-11-30 13:40:29.038670
845  2023-11-30 13:40:29.084132
846  2023-11-30 13:40:29.130905
847  2023-11-30 13:40:29.162698
848  2023-11-30 13:40:29.208711
849  2023-11-30 13:40:29.255203
850  2023-11-30 13:40:29.302136
851  2023-11-30 13:40:29.331690
852  2023-11-30 13:40:29.378612
853  2023-11-30 13:40:29.426598
854  2023-11-30 13:40:29.458061
855  2023-11-30 13:40:29.506024
856  2023-11-30 13:40:29.538701
857  2023-11-30 13:40:29.584332
858  2023-11-30 13:40:29.630816
859  2023-11-30 13:40:29.663061
860  2023-11-30 13:40:29.710882
861  2023-11-30 13:40:29.758724
862  2023-11-30 13:40:29.788827
863  2023-11-30 13:40:29.835626
864  2023-11-30 13:40:29.882805
865  2023-11-30 13:40:29.914339
866  2023-11-30 13:40:29.962116
867  2023-11-30 13:40:30.008657
868  2023-11-30 13:40:30.039434
869  2023-11-30 13:40:30.086183
870  2023-11-30 13:40:30.132601
871  2023-11-30 13:40:30.163478
872  2023-11-30 13:40:30.209813
873  2023-11-30 13:40:30.257727
874  2023-11-30 13:40:30.289801
875  2023-11-30 13:40:30.336737
876  2023-11-30 13:40:30.383687
877  2023-11-30 13:40:30.415508
878  2023-11-30 13:40:30.463037
879  2023-11-30 13:40:30.508096
880  2023-11-30 13:40:30.538756
881  2023-11-30 13:40:30.584784
882  2023-11-30 13:40:30.630846
883  2023-11-30 13:40:30.662918
884  2023-11-30 13:40:30.709685
885  2023-11-30 13:40:30.756924
886  2023-11-30 13:40:30.787850
887  2023-11-30 13:40:30.833616
888  2023-11-30 13:40:30.879674
889  2023-11-30 13:40:30.927259
890  2023-11-30 13:40:30.956782
891  2023-11-30 13:40:31.003168
892  2023-11-30 13:40:31.049863
893  2023-11-30 13:40:31.080710
894  2023-11-30 13:40:31.127159
895  2023-11-30 13:40:31.173995
896  2023-11-30 13:40:31.204887
897  2023-11-30 13:40:31.251601
898  2023-11-30 13:40:31.298866
899  2023-11-30 13:40:31.329581
900  2023-11-30 13:40:31.377656
901  2023-11-30 13:40:31.423449
902  2023-11-30 13:40:31.454355
903  2023-11-30 13:40:31.501634
904  2023-11-30 13:40:31.547835
905  2023-11-30 13:40:31.578815
906  2023-11-30 13:40:31.625473
907  2023-11-30 13:40:31.672296
908  2023-11-30 13:40:31.718278
909  2023-11-30 13:40:31.749546
910  2023-11-30 13:40:31.795924
911  2023-11-30 13:40:31.841710
912  2023-11-30 13:40:31.874741
913  2023-11-30 13:40:31.920186
914  2023-11-30 13:40:31.968058
915  2023-11-30 13:40:31.999972
916  2023-11-30 13:40:32.047513
917  2023-11-30 13:40:32.079428
918  2023-11-30 13:40:32.126350
919  2023-11-30 13:40:32.172585
920  2023-11-30 13:40:32.218564
921  2023-11-30 13:40:32.249679
922  2023-11-30 13:40:32.295809
923  2023-11-30 13:40:32.342571
924  2023-11-30 13:40:32.373538
925  2023-11-30 13:40:32.419807
926  2023-11-30 13:40:32.467874
927  2023-11-30 13:40:32.498911
928  2023-11-30 13:40:32.544846
929  2023-11-30 13:40:32.592649
930  2023-11-30 13:40:32.624678
931  2023-11-30 13:40:32.670717
932  2023-11-30 13:40:32.717714
933  2023-11-30 13:40:32.749700
934  2023-11-30 13:40:32.797504
935  2023-11-30 13:40:32.844268
936  2023-11-30 13:40:32.874721
937  2023-11-30 13:40:32.921912
938  2023-11-30 13:40:32.967721
939  2023-11-30 13:40:32.999367
940  2023-11-30 13:40:33.045479
941  2023-11-30 13:40:33.092832
942  2023-11-30 13:40:33.123383
943  2023-11-30 13:40:33.172028
944  2023-11-30 13:40:33.217733
945  2023-11-30 13:40:33.248705
946  2023-11-30 13:40:33.294851
947  2023-11-30 13:40:33.342044
948  2023-11-30 13:40:33.373047
949  2023-11-30 13:40:33.420612
950  2023-11-30 13:40:33.467456
951  2023-11-30 13:40:33.497565
952  2023-11-30 13:40:33.544491
953  2023-11-30 13:40:33.591286
954  2023-11-30 13:40:33.622799
955  2023-11-30 13:40:33.670371
956  2023-11-30 13:40:33.716804
957  2023-11-30 13:40:33.747681
958  2023-11-30 13:40:33.794901
959  2023-11-30 13:40:33.841701
960  2023-11-30 13:40:33.872710
961  2023-11-30 13:40:33.918522
962  2023-11-30 13:40:33.965389
963  2023-11-30 13:40:33.996904
964  2023-11-30 13:40:34.043412
965  2023-11-30 13:40:34.090872
966  2023-11-30 13:40:34.120498
967  2023-11-30 13:40:34.166885
968  2023-11-30 13:40:34.212921
969  2023-11-30 13:40:34.259713
970  2023-11-30 13:40:34.290977
971  2023-11-30 13:40:34.337694
972  2023-11-30 13:40:34.384944
973  2023-11-30 13:40:34.414890
974  2023-11-30 13:40:34.460562
975  2023-11-30 13:40:34.508058
976  2023-11-30 13:40:34.538984
977  2023-11-30 13:40:34.585069
978  2023-11-30 13:40:34.631589
979  2023-11-30 13:40:34.662772
980  2023-11-30 13:40:34.709981
981  2023-11-30 13:40:34.755766
982  2023-11-30 13:40:34.787909
983  2023-11-30 13:40:34.834702
984  2023-11-30 13:40:34.880734
985  2023-11-30 13:40:34.926917
986  2023-11-30 13:40:34.957443
987  2023-11-30 13:40:35.003764
988  2023-11-30 13:40:35.050473
989  2023-11-30 13:40:35.083451
990  2023-11-30 13:40:35.130054
991  2023-11-30 13:40:35.175852
992  2023-11-30 13:40:35.206642
993  2023-11-30 13:40:35.253730
994  2023-11-30 13:40:35.300614
995  2023-11-30 13:40:35.331834
996  2023-11-30 13:40:35.377800
997  2023-11-30 13:40:35.424538
998  2023-11-30 13:40:35.455293
999  2023-11-30 13:40:35.501926
1000  2023-11-30 13:40:35.548790
1001  2023-11-30 13:40:35.579877
1002  2023-11-30 13:40:35.625233
1003  2023-11-30 13:40:35.671884
1004  2023-11-30 13:40:35.718689
1005  2023-11-30 13:40:35.750669
1006  2023-11-30 13:40:35.797689
1007  2023-11-30 13:40:35.829156
1008  2023-11-30 13:40:35.876581
1009  2023-11-30 13:40:35.922858
1010  2023-11-30 13:40:35.954148
1011  2023-11-30 13:40:36.000655
1012  2023-11-30 13:40:36.046444
1013  2023-11-30 13:40:36.093211
1014  2023-11-30 13:40:36.124388
1015  2023-11-30 13:40:36.171682
1016  2023-11-30 13:40:36.217810
1017  2023-11-30 13:40:36.248634
1018  2023-11-30 13:40:36.294961
1019  2023-11-30 13:40:36.341901
1020  2023-11-30 13:40:36.372864
1021  2023-11-30 13:40:36.419927
1022  2023-11-30 13:40:36.466646
1023  2023-11-30 13:40:36.497902
1024  2023-11-30 13:40:36.543780
1025  2023-11-30 13:40:36.589719
1026  2023-11-30 13:40:36.635188
1027  2023-11-30 13:40:36.665918
1028  2023-11-30 13:40:36.713678
1029  2023-11-30 13:40:36.745598
1030  2023-11-30 13:40:36.792996
1031  2023-11-30 13:40:36.837813
1032  2023-11-30 13:40:36.884826
1033  2023-11-30 13:40:36.915359
1034  2023-11-30 13:40:36.961489
1035  2023-11-30 13:40:37.007411
1036  2023-11-30 13:40:37.038290
1037  2023-11-30 13:40:37.083902
1038  2023-11-30 13:40:37.130101
1039  2023-11-30 13:40:37.178251
1040  2023-11-30 13:40:37.207982
1041  2023-11-30 13:40:37.253871
1042  2023-11-30 13:40:37.300694
1043  2023-11-30 13:40:37.332060
1044  2023-11-30 13:40:37.379737
1045  2023-11-30 13:40:37.425674
1046  2023-11-30 13:40:37.456939
1047  2023-11-30 13:40:37.503719
1048  2023-11-30 13:40:37.550353
1049  2023-11-30 13:40:37.581212
1050  2023-11-30 13:40:37.627408
1051  2023-11-30 13:40:37.674345
1052  2023-11-30 13:40:37.706222
1053  2023-11-30 13:40:37.751465
1054  2023-11-30 13:40:37.797940
1055  2023-11-30 13:40:37.843729
1056  2023-11-30 13:40:37.874928
1057  2023-11-30 13:40:37.922256
1058  2023-11-30 13:40:37.967923
1059  2023-11-30 13:40:37.999364
1060  2023-11-30 13:40:38.044632
1061  2023-11-30 13:40:38.091355
1062  2023-11-30 13:40:38.121754
1063  2023-11-30 13:40:38.169006
1064  2023-11-30 13:40:38.215707
1065  2023-11-30 13:40:38.246720
1066  2023-11-30 13:40:38.292872
1067  2023-11-30 13:40:38.339690
1068  2023-11-30 13:40:38.385638
1069  2023-11-30 13:40:38.416375
1070  2023-11-30 13:40:38.462327
1071  2023-11-30 13:40:38.508375
1072  2023-11-30 13:40:38.539254
1073  2023-11-30 13:40:38.586096
1074  2023-11-30 13:40:38.632414
1075  2023-11-30 13:40:38.663017
1076  2023-11-30 13:40:38.710942
1077  2023-11-30 13:40:38.756462
1078  2023-11-30 13:40:38.787877
1079  2023-11-30 13:40:38.833785
1080  2023-11-30 13:40:38.879790
1081  2023-11-30 13:40:38.926977
1082  2023-11-30 13:40:38.957253
1083  2023-11-30 13:40:39.004575
1084  2023-11-30 13:40:39.049931
1085  2023-11-30 13:40:39.082006
1086  2023-11-30 13:40:39.128969
1087  2023-11-30 13:40:39.176887
1088  2023-11-30 13:40:39.206930
1089  2023-11-30 13:40:39.254211
1090  2023-11-30 13:40:39.300693
1091  2023-11-30 13:40:39.331687
1092  2023-11-30 13:40:39.378700
1093  2023-11-30 13:40:39.425882
1094  2023-11-30 13:40:39.457693
1095  2023-11-30 13:40:39.503243
1096  2023-11-30 13:40:39.549444
1097  2023-11-30 13:40:39.580657
1098  2023-11-30 13:40:39.626819
1099  2023-11-30 13:40:39.672932
1100  2023-11-30 13:40:39.704304
1101  2023-11-30 13:40:39.752008
1102  2023-11-30 13:40:39.798019
1103  2023-11-30 13:40:39.830019
1104  2023-11-30 13:40:39.874994
1105  2023-11-30 13:40:39.921332
1106  2023-11-30 13:40:39.967768
1107  2023-11-30 13:40:39.998943
1108  2023-11-30 13:40:40.045863
1109  2023-11-30 13:40:40.092198
1110  2023-11-30 13:40:40.123608
1111  2023-11-30 13:40:40.170667
1112  2023-11-30 13:40:40.216889
1113  2023-11-30 13:40:40.248126
1114  2023-11-30 13:40:40.296233
1115  2023-11-30 13:40:40.343673
1116  2023-11-30 13:40:40.374010
1117  2023-11-30 13:40:40.421577
1118  2023-11-30 13:40:40.468296
1119  2023-11-30 13:40:40.498640
1120  2023-11-30 13:40:40.543778
1121  2023-11-30 13:40:40.589896
1122  2023-11-30 13:40:40.621515
1123  2023-11-30 13:40:40.668371
1124  2023-11-30 13:40:40.715941
1125  2023-11-30 13:40:40.746569
1126  2023-11-30 13:40:40.792917
1127  2023-11-30 13:40:40.839795
1128  2023-11-30 13:40:40.870845
1129  2023-11-30 13:40:40.917688
1130  2023-11-30 13:40:40.965454
1131  2023-11-30 13:40:40.996439
1132  2023-11-30 13:40:41.043644
1133  2023-11-30 13:40:41.088751
1134  2023-11-30 13:40:41.134950
1135  2023-11-30 13:40:41.167062
1136  2023-11-30 13:40:41.213223
1137  2023-11-30 13:40:41.260641
1138  2023-11-30 13:40:41.292960
1139  2023-11-30 13:40:41.338796
1140  2023-11-30 13:40:41.384338
1141  2023-11-30 13:40:41.414603
1142  2023-11-30 13:40:41.461131
1143  2023-11-30 13:40:41.507850
1144  2023-11-30 13:40:41.538823
1145  2023-11-30 13:40:41.585779
1146  2023-11-30 13:40:41.632644
1147  2023-11-30 13:40:41.663591
1148  2023-11-30 13:40:41.710765
1149  2023-11-30 13:40:41.758646
1150  2023-11-30 13:40:41.789568
1151  2023-11-30 13:40:41.836810
1152  2023-11-30 13:40:41.883051
1153  2023-11-30 13:40:41.913613
1154  2023-11-30 13:40:41.959572
1155  2023-11-30 13:40:42.006594
1156  2023-11-30 13:40:42.038991
1157  2023-11-30 13:40:42.085516
1158  2023-11-30 13:40:42.132038
1159  2023-11-30 13:40:42.176688
1160  2023-11-30 13:40:42.208689
1161  2023-11-30 13:40:42.255181
1162  2023-11-30 13:40:42.301272
1163  2023-11-30 13:40:42.333221
1164  2023-11-30 13:40:42.380019
1165  2023-11-30 13:40:42.425521
1166  2023-11-30 13:40:42.457237
1167  2023-11-30 13:40:42.503619
1168  2023-11-30 13:40:42.552202
1169  2023-11-30 13:40:42.581926
1170  2023-11-30 13:40:42.628134
1171  2023-11-30 13:40:42.674989
1172  2023-11-30 13:40:42.706163
1173  2023-11-30 13:40:42.753325
1174  2023-11-30 13:40:42.798929
1175  2023-11-30 13:40:42.829758
1176  2023-11-30 13:40:42.876356
1177  2023-11-30 13:40:42.922881
1178  2023-11-30 13:40:42.954118
1179  2023-11-30 13:40:43.001324
1180  2023-11-30 13:40:43.047069
1181  2023-11-30 13:40:43.093668
1182  2023-11-30 13:40:43.124601
1183  2023-11-30 13:40:43.171711
1184  2023-11-30 13:40:43.216794
1185  2023-11-30 13:40:43.248077
1186  2023-11-30 13:40:43.293999
1187  2023-11-30 13:40:43.340214
1188  2023-11-30 13:40:43.370928
1189  2023-11-30 13:40:43.417417
1190  2023-11-30 13:40:43.465143
1191  2023-11-30 13:40:43.496087
1192  2023-11-30 13:40:43.542519
1193  2023-11-30 13:40:43.589657
1194  2023-11-30 13:40:43.621200
1195  2023-11-30 13:40:43.667993
1196  2023-11-30 13:40:43.715197
1197  2023-11-30 13:40:43.747294
1198  2023-11-30 13:40:43.794745
1199  2023-11-30 13:40:43.842831
1200  2023-11-30 13:40:43.874821
1201  2023-11-30 13:40:43.921301
1202  2023-11-30 13:40:43.967107
1203  2023-11-30 13:40:43.999065
1204  2023-11-30 13:40:44.045285
1205  2023-11-30 13:40:44.091679
1206  2023-11-30 13:40:44.123169
1207  2023-11-30 13:40:44.168789
1208  2023-11-30 13:40:44.214694
1209  2023-11-30 13:40:44.245692
1210  2023-11-30 13:40:44.292358
1211  2023-11-30 13:40:44.338716
1212  2023-11-30 13:40:44.386082
1213  2023-11-30 13:40:44.415572
1214  2023-11-30 13:40:44.461887
1215  2023-11-30 13:40:44.507967
1216  2023-11-30 13:40:44.538884
1217  2023-11-30 13:40:44.585229
1218  2023-11-30 13:40:44.631345
1219  2023-11-30 13:40:44.662299
1220  2023-11-30 13:40:44.709018
1221  2023-11-30 13:40:44.754854
1222  2023-11-30 13:40:44.802718
1223  2023-11-30 13:40:44.832903
1224  2023-11-30 13:40:44.878566
1225  2023-11-30 13:40:44.924778
1226  2023-11-30 13:40:44.955599
1227  2023-11-30 13:40:45.002094
1228  2023-11-30 13:40:45.049211
1229  2023-11-30 13:40:45.079937
1230  2023-11-30 13:40:45.127416
1231  2023-11-30 13:40:45.173465
1232  2023-11-30 13:40:45.204644
1233  2023-11-30 13:40:45.252579
1234  2023-11-30 13:40:45.299432
1235  2023-11-30 13:40:45.330591
1236  2023-11-30 13:40:45.378669
1237  2023-11-30 13:40:45.424321
1238  2023-11-30 13:40:45.454891
1239  2023-11-30 13:40:45.501077
1240  2023-11-30 13:40:45.546786
1241  2023-11-30 13:40:45.592435
1242  2023-11-30 13:40:45.623386
1243  2023-11-30 13:40:45.670783
1244  2023-11-30 13:40:45.716499
1245  2023-11-30 13:40:45.747039
1246  2023-11-30 13:40:45.794271
1247  2023-11-30 13:40:45.841286
1248  2023-11-30 13:40:45.873236
1249  2023-11-30 13:40:45.920928
1250  2023-11-30 13:40:45.968784
1251  2023-11-30 13:40:45.998938
1252  2023-11-30 13:40:46.046322
1253  2023-11-30 13:40:46.092235
1254  2023-11-30 13:40:46.122875
1255  2023-11-30 13:40:46.169274
1256  2023-11-30 13:40:46.215144
1257  2023-11-30 13:40:46.246104
1258  2023-11-30 13:40:46.293707
1259  2023-11-30 13:40:46.340896
1260  2023-11-30 13:40:46.372018
1261  2023-11-30 13:40:46.418816
1262  2023-11-30 13:40:46.465091
1263  2023-11-30 13:40:46.496375
1264  2023-11-30 13:40:46.545281
1265  2023-11-30 13:40:46.589757
1266  2023-11-30 13:40:46.620500
1267  2023-11-30 13:40:46.668005
1268  2023-11-30 13:40:46.715253
1269  2023-11-30 13:40:46.745822
1270  2023-11-30 13:40:46.792074
1271  2023-11-30 13:40:46.839197
1272  2023-11-30 13:40:46.870572
1273  2023-11-30 13:40:46.916192
1274  2023-11-30 13:40:46.962270
1275  2023-11-30 13:40:47.010045
1276  2023-11-30 13:40:47.042011
1277  2023-11-30 13:40:47.088853
1278  2023-11-30 13:40:47.135981
1279  2023-11-30 13:40:47.167780
1280  2023-11-30 13:40:47.213408
1281  2023-11-30 13:40:47.260356
1282  2023-11-30 13:40:47.291063
1283  2023-11-30 13:40:47.338313
1284  2023-11-30 13:40:47.383962
1285  2023-11-30 13:40:47.415482
1286  2023-11-30 13:40:47.460955
1287  2023-11-30 13:40:47.507949
1288  2023-11-30 13:40:47.539553
1289  2023-11-30 13:40:47.586605
1290  2023-11-30 13:40:47.633778
1291  2023-11-30 13:40:47.664719
1292  2023-11-30 13:40:47.714441
1293  2023-11-30 13:40:47.759558
1294  2023-11-30 13:40:47.791682
1295  2023-11-30 13:40:47.839012
1296  2023-11-30 13:40:47.884199
1297  2023-11-30 13:40:47.914813
1298  2023-11-30 13:40:47.960737
1299  2023-11-30 13:40:48.007426
1300  2023-11-30 13:40:48.038480
1301  2023-11-30 13:40:48.084686
1302  2023-11-30 13:40:48.130915
1303  2023-11-30 13:40:48.177301
1304  2023-11-30 13:40:48.209372
1305  2023-11-30 13:40:48.255932
1306  2023-11-30 13:40:48.302870
1307  2023-11-30 13:40:48.333776
1308  2023-11-30 13:40:48.380216
1309  2023-11-30 13:40:48.426410
1310  2023-11-30 13:40:48.457620
1311  2023-11-30 13:40:48.504641
1312  2023-11-30 13:40:48.551676
1313  2023-11-30 13:40:48.582554
1314  2023-11-30 13:40:48.628992
1315  2023-11-30 13:40:48.676289
1316  2023-11-30 13:40:48.706849
1317  2023-11-30 13:40:48.753154
1318  2023-11-30 13:40:48.800154
1319  2023-11-30 13:40:48.831698
1320  2023-11-30 13:40:48.879324
1321  2023-11-30 13:40:48.927192
1322  2023-11-30 13:40:48.958690
1323  2023-11-30 13:40:49.005776
1324  2023-11-30 13:40:49.038182
1325  2023-11-30 13:40:49.086379
1326  2023-11-30 13:40:49.130617
1327  2023-11-30 13:40:49.175779
1328  2023-11-30 13:40:49.207276
1329  2023-11-30 13:40:49.253210
1330  2023-11-30 13:40:49.300328
1331  2023-11-30 13:40:49.331972
1332  2023-11-30 13:40:49.378370
1333  2023-11-30 13:40:49.425777
1334  2023-11-30 13:40:49.456638
1335  2023-11-30 13:40:49.503811
1336  2023-11-30 13:40:49.550857
1337  2023-11-30 13:40:49.582112
1338  2023-11-30 13:40:49.629000
1339  2023-11-30 13:40:49.674738
1340  2023-11-30 13:40:49.705227
1341  2023-11-30 13:40:49.751875
1342  2023-11-30 13:40:49.797996
1343  2023-11-30 13:40:49.828849
1344  2023-11-30 13:40:49.874794
1345  2023-11-30 13:40:49.922791
1346  2023-11-30 13:40:49.953765
1347  2023-11-30 13:40:50.000283
1348  2023-11-30 13:40:50.048206
1349  2023-11-30 13:40:50.095746
1350  2023-11-30 13:40:50.126385
1351  2023-11-30 13:40:50.173364
1352  2023-11-30 13:40:50.207497
1353  2023-11-30 13:40:50.251472
1354  2023-11-30 13:40:50.298188
1355  2023-11-30 13:40:50.329204
1356  2023-11-30 13:40:50.376480
1357  2023-11-30 13:40:50.422806
1358  2023-11-30 13:40:50.454336
1359  2023-11-30 13:40:50.501464
1360  2023-11-30 13:40:50.548504
1361  2023-11-30 13:40:50.579528
1362  2023-11-30 13:40:50.626308
1363  2023-11-30 13:40:50.673101
1364  2023-11-30 13:40:50.719104
1365  2023-11-30 13:40:50.750206
1366  2023-11-30 13:40:50.799064
1367  2023-11-30 13:40:50.829565
1368  2023-11-30 13:40:50.877990
1369  2023-11-30 13:40:50.923961
1370  2023-11-30 13:40:50.955505
1371  2023-11-30 13:40:51.003230
1372  2023-11-30 13:40:51.049209
1373  2023-11-30 13:40:51.080143
1374  2023-11-30 13:40:51.126960
1375  2023-11-30 13:40:51.173125
1376  2023-11-30 13:40:51.203970
1377  2023-11-30 13:40:51.250634
1378  2023-11-30 13:40:51.298649
1379  2023-11-30 13:40:51.329684
1380  2023-11-30 13:40:51.376180
1381  2023-11-30 13:40:51.422293
1382  2023-11-30 13:40:51.454269
1383  2023-11-30 13:40:51.500155
1384  2023-11-30 13:40:51.548074
1385  2023-11-30 13:40:51.579159
1386  2023-11-30 13:40:51.624797
1387  2023-11-30 13:40:51.672256
1388  2023-11-30 13:40:51.718714
1389  2023-11-30 13:40:51.749518
1390  2023-11-30 13:40:51.795656
1391  2023-11-30 13:40:51.842416
1392  2023-11-30 13:40:51.874686
1393  2023-11-30 13:40:51.920421
1394  2023-11-30 13:40:51.966863
1395  2023-11-30 13:40:51.998532
1396  2023-11-30 13:40:52.043740
1397  2023-11-30 13:40:52.090393
1398  2023-11-30 13:40:52.120955
1399  2023-11-30 13:40:52.166983
1400  2023-11-30 13:40:52.213107
1401  2023-11-30 13:40:52.259840
1402  2023-11-30 13:40:52.290659
1403  2023-11-30 13:40:52.337706
1404  2023-11-30 13:40:52.385713
1405  2023-11-30 13:40:52.417692
1406  2023-11-30 13:40:52.463720
1407  2023-11-30 13:40:52.510114
1408  2023-11-30 13:40:52.540733
1409  2023-11-30 13:40:52.588709
1410  2023-11-30 13:40:52.620703
1411  2023-11-30 13:40:52.670388
1412  2023-11-30 13:40:52.716730
1413  2023-11-30 13:40:52.748321
1414  2023-11-30 13:40:52.796285
1415  2023-11-30 13:40:52.841337
1416  2023-11-30 13:40:52.872651
1417  2023-11-30 13:40:52.919696
1418  2023-11-30 13:40:52.965309
1419  2023-11-30 13:40:52.995520
1420  2023-11-30 13:40:53.042413
1421  2023-11-30 13:40:53.088648
1422  2023-11-30 13:40:53.120754
1423  2023-11-30 13:40:53.167231
1424  2023-11-30 13:40:53.213692
1425  2023-11-30 13:40:53.259882
1426  2023-11-30 13:40:53.291065
1427  2023-11-30 13:40:53.338719
1428  2023-11-30 13:40:53.384666
1429  2023-11-30 13:40:53.416411
1430  2023-11-30 13:40:53.463470
1431  2023-11-30 13:40:53.495895
1432  2023-11-30 13:40:53.541864
1433  2023-11-30 13:40:53.587700
1434  2023-11-30 13:40:53.634657
1435  2023-11-30 13:40:53.664689
1436  2023-11-30 13:40:53.711945
1437  2023-11-30 13:40:53.757903
1438  2023-11-30 13:40:53.788467
1439  2023-11-30 13:40:53.836525
1440  2023-11-30 13:40:53.883452
1441  2023-11-30 13:40:53.913766
1442  2023-11-30 13:40:53.959935
1443  2023-11-30 13:40:54.007002
1444  2023-11-30 13:40:54.038653
1445  2023-11-30 13:40:54.085416
1446  2023-11-30 13:40:54.132811
1447  2023-11-30 13:40:54.163867
1448  2023-11-30 13:40:54.210368
1449  2023-11-30 13:40:54.258273
1450  2023-11-30 13:40:54.290196
1451  2023-11-30 13:40:54.336084
1452  2023-11-30 13:40:54.383946
1453  2023-11-30 13:40:54.415878
1454  2023-11-30 13:40:54.463714
1455  2023-11-30 13:40:54.509517
1456  2023-11-30 13:40:54.540275
1457  2023-11-30 13:40:54.586691
1458  2023-11-30 13:40:54.634086
1459  2023-11-30 13:40:54.665845
1460  2023-11-30 13:40:54.712971
1461  2023-11-30 13:40:54.759972
1462  2023-11-30 13:40:54.791107
1463  2023-11-30 13:40:54.836112
1464  2023-11-30 13:40:54.882550
1465  2023-11-30 13:40:54.913792
1466  2023-11-30 13:40:54.960791
1467  2023-11-30 13:40:55.007838
1468  2023-11-30 13:40:55.039239
1469  2023-11-30 13:40:55.085569
1470  2023-11-30 13:40:55.131738
1471  2023-11-30 13:40:55.162438
1472  2023-11-30 13:40:55.209773
1473  2023-11-30 13:40:55.254592
1474  2023-11-30 13:40:55.301470
1475  2023-11-30 13:40:55.333269
1476  2023-11-30 13:40:55.380390
1477  2023-11-30 13:40:55.426589
1478  2023-11-30 13:40:55.457727
1479  2023-11-30 13:40:55.504183
1480  2023-11-30 13:40:55.550103
1481  2023-11-30 13:40:55.581207
1482  2023-11-30 13:40:55.627200
1483  2023-11-30 13:40:55.674306
1484  2023-11-30 13:40:55.705993
1485  2023-11-30 13:40:55.752158
1486  2023-11-30 13:40:55.800304
1487  2023-11-30 13:40:55.830606
1488  2023-11-30 13:40:55.878281
1489  2023-11-30 13:40:55.925107
1490  2023-11-30 13:40:55.955273
1491  2023-11-30 13:40:56.003145
1492  2023-11-30 13:40:56.050254
1493  2023-11-30 13:40:56.082386
1494  2023-11-30 13:40:56.129675
1495  2023-11-30 13:40:56.176629
1496  2023-11-30 13:40:56.207593
1497  2023-11-30 13:40:56.254264
1498  2023-11-30 13:40:56.300400
1499  2023-11-30 13:40:56.330830
1500  2023-11-30 13:40:56.377699
1501  2023-11-30 13:40:56.424619
1502  2023-11-30 13:40:56.456759
1503  2023-11-30 13:40:56.503944
1504  2023-11-30 13:40:56.549498
1505  2023-11-30 13:40:56.580415
1506  2023-11-30 13:40:56.627690
1507  2023-11-30 13:40:56.675717
1508  2023-11-30 13:40:56.705928
1509  2023-11-30 13:40:56.751987
1510  2023-11-30 13:40:56.798137
1511  2023-11-30 13:40:56.829925
1512  2023-11-30 13:40:56.876169
1513  2023-11-30 13:40:56.923477
1514  2023-11-30 13:40:56.955506
1515  2023-11-30 13:40:57.001796
1516  2023-11-30 13:40:57.048196
1517  2023-11-30 13:40:57.079890
1518  2023-11-30 13:40:57.128532
1519  2023-11-30 13:40:57.173864
1520  2023-11-30 13:40:57.206554
1521  2023-11-30 13:40:57.252683
1522  2023-11-30 13:40:57.297832
1523  2023-11-30 13:40:57.328794
1524  2023-11-30 13:40:57.375066
1525  2023-11-30 13:40:57.421988
1526  2023-11-30 13:40:57.467454
1527  2023-11-30 13:40:57.499451
1528  2023-11-30 13:40:57.546168
1529  2023-11-30 13:40:57.593055
1530  2023-11-30 13:40:57.625476
1531  2023-11-30 13:40:57.671242
1532  2023-11-30 13:40:57.718816
1533  2023-11-30 13:40:57.750505
1534  2023-11-30 13:40:57.795758
1535  2023-11-30 13:40:57.843672
1536  2023-11-30 13:40:57.873679
1537  2023-11-30 13:40:57.920325
1538  2023-11-30 13:40:57.967140
1539  2023-11-30 13:40:57.998169
1540  2023-11-30 13:40:58.045658
1541  2023-11-30 13:40:58.092479
1542  2023-11-30 13:40:58.123548
1543  2023-11-30 13:40:58.169164
1544  2023-11-30 13:40:58.214847
1545  2023-11-30 13:40:58.246990
1546  2023-11-30 13:40:58.293804
1547  2023-11-30 13:40:58.342985
1548  2023-11-30 13:40:58.371845
1549  2023-11-30 13:40:58.419681
1550  2023-11-30 13:40:58.466921
1551  2023-11-30 13:40:58.498601
1552  2023-11-30 13:40:58.545575
1553  2023-11-30 13:40:58.591781
1554  2023-11-30 13:40:58.623027
1555  2023-11-30 13:40:58.669610
1556  2023-11-30 13:40:58.716367
1557  2023-11-30 13:40:58.746914
1558  2023-11-30 13:40:58.793036
1559  2023-11-30 13:40:58.839546
1560  2023-11-30 13:40:58.870651
1561  2023-11-30 13:40:58.918586
1562  2023-11-30 13:40:58.963659
1563  2023-11-30 13:40:58.995648
1564  2023-11-30 13:40:59.043690
1565  2023-11-30 13:40:59.090530
1566  2023-11-30 13:40:59.121789
1567  2023-11-30 13:40:59.168687
1568  2023-11-30 13:40:59.215150
1569  2023-11-30 13:40:59.245917
1570  2023-11-30 13:40:59.292845
1571  2023-11-30 13:40:59.339246
1572  2023-11-30 13:40:59.370648
1573  2023-11-30 13:40:59.416805
1574  2023-11-30 13:40:59.463074
1575  2023-11-30 13:40:59.510640
1576  2023-11-30 13:40:59.541248
1577  2023-11-30 13:40:59.587685
1578  2023-11-30 13:40:59.636598
1579  2023-11-30 13:40:59.666712
1580  2023-11-30 13:40:59.713339
1581  2023-11-30 13:40:59.759215
1582  2023-11-30 13:40:59.790559
1583  2023-11-30 13:40:59.837024
1584  2023-11-30 13:40:59.884474
1585  2023-11-30 13:40:59.915289
1586  2023-11-30 13:40:59.962843
1587  2023-11-30 13:41:00.009177
1588  2023-11-30 13:41:00.040214
1589  2023-11-30 13:41:00.088655
1590  2023-11-30 13:41:00.134881
1591  2023-11-30 13:41:00.166797
1592  2023-11-30 13:41:00.214664
1593  2023-11-30 13:41:00.260750
1594  2023-11-30 13:41:00.292714
1595  2023-11-30 13:41:00.338670
1596  2023-11-30 13:41:00.384839
1597  2023-11-30 13:41:00.415452
1598  2023-11-30 13:41:00.461597
1599  2023-11-30 13:41:00.508240
1600  2023-11-30 13:41:00.538719
1601  2023-11-30 13:41:00.585650
1602  2023-11-30 13:41:00.632816
1603  2023-11-30 13:41:00.662932
1604  2023-11-30 13:41:00.710983
1605  2023-11-30 13:41:00.757576
1606  2023-11-30 13:41:00.788965
1607  2023-11-30 13:41:00.836862
1608  2023-11-30 13:41:00.883903
1609  2023-11-30 13:41:00.916682
1610  2023-11-30 13:41:00.963597
1611  2023-11-30 13:41:00.996627
1612  2023-11-30 13:41:01.041681
1613  2023-11-30 13:41:01.089697
1614  2023-11-30 13:41:01.135288
1615  2023-11-30 13:41:01.165860
1616  2023-11-30 13:41:01.211925
1617  2023-11-30 13:41:01.259830
1618  2023-11-30 13:41:01.290437
1619  2023-11-30 13:41:01.337490
1620  2023-11-30 13:41:01.384818
1621  2023-11-30 13:41:01.416126
1622  2023-11-30 13:41:01.462191
1623  2023-11-30 13:41:01.510064
1624  2023-11-30 13:41:01.541977
1625  2023-11-30 13:41:01.589858
1626  2023-11-30 13:41:01.620768
1627  2023-11-30 13:41:01.668612
1628  2023-11-30 13:41:01.717646
1629  2023-11-30 13:41:01.747910
1630  2023-11-30 13:41:01.796271
1631  2023-11-30 13:41:01.841095
1632  2023-11-30 13:41:01.872089
1633  2023-11-30 13:41:01.917808
1634  2023-11-30 13:41:01.964564
1635  2023-11-30 13:41:01.995615
1636  2023-11-30 13:41:02.042163
1637  2023-11-30 13:41:02.088807
1638  2023-11-30 13:41:02.133659
1639  2023-11-30 13:41:02.164095
1640  2023-11-30 13:41:02.212014
1641  2023-11-30 13:41:02.258472
1642  2023-11-30 13:41:02.288678
1643  2023-11-30 13:41:02.335500
1644  2023-11-30 13:41:02.382063
1645  2023-11-30 13:41:02.413557
1646  2023-11-30 13:41:02.460167
1647  2023-11-30 13:41:02.506120
1648  2023-11-30 13:41:02.552488
1649  2023-11-30 13:41:02.583664
1650  2023-11-30 13:41:02.631047
1651  2023-11-30 13:41:02.678970
1652  2023-11-30 13:41:02.707968
1653  2023-11-30 13:41:02.754830
1654  2023-11-30 13:41:02.800036
1655  2023-11-30 13:41:02.830610
1656  2023-11-30 13:41:02.877962
1657  2023-11-30 13:41:02.924603
1658  2023-11-30 13:41:02.955928
1659  2023-11-30 13:41:03.002061
1660  2023-11-30 13:41:03.048674
1661  2023-11-30 13:41:03.079732
1662  2023-11-30 13:41:03.126766
1663  2023-11-30 13:41:03.173544
1664  2023-11-30 13:41:03.204616
1665  2023-11-30 13:41:03.252325
1666  2023-11-30 13:41:03.300829
1667  2023-11-30 13:41:03.331591
1668  2023-11-30 13:41:03.379641
1669  2023-11-30 13:41:03.428556
1670  2023-11-30 13:41:03.458153
1671  2023-11-30 13:41:03.504011
1672  2023-11-30 13:41:03.549665
1673  2023-11-30 13:41:03.581156
1674  2023-11-30 13:41:03.627822
1675  2023-11-30 13:41:03.674099
1676  2023-11-30 13:41:03.705356
1677  2023-11-30 13:41:03.751480
1678  2023-11-30 13:41:03.798311
1679  2023-11-30 13:41:03.829246
1680  2023-11-30 13:41:03.877655
1681  2023-11-30 13:41:03.922878
1682  2023-11-30 13:41:03.954182
1683  2023-11-30 13:41:04.001192
1684  2023-11-30 13:41:04.047574
1685  2023-11-30 13:41:04.080017
1686  2023-11-30 13:41:04.126616
1687  2023-11-30 13:41:04.173118
1688  2023-11-30 13:41:04.218907
1689  2023-11-30 13:41:04.249592
1690  2023-11-30 13:41:04.295615
1691  2023-11-30 13:41:04.341381
1692  2023-11-30 13:41:04.373797
1693  2023-11-30 13:41:04.420463
1694  2023-11-30 13:41:04.468424
1695  2023-11-30 13:41:04.499492
1696  2023-11-30 13:41:04.546465
1697  2023-11-30 13:41:04.594348
1698  2023-11-30 13:41:04.625272
1699  2023-11-30 13:41:04.673361
1700  2023-11-30 13:41:04.718443
1701  2023-11-30 13:41:04.749427
1702  2023-11-30 13:41:04.795852
1703  2023-11-30 13:41:04.842929
1704  2023-11-30 13:41:04.874436
1705  2023-11-30 13:41:04.921405
1706  2023-11-30 13:41:04.967298
1707  2023-11-30 13:41:04.999266
1708  2023-11-30 13:41:05.046228
1709  2023-11-30 13:41:05.094314
1710  2023-11-30 13:41:05.126116
1711  2023-11-30 13:41:05.173622
1712  2023-11-30 13:41:05.205015
1713  2023-11-30 13:41:05.251834
1714  2023-11-30 13:41:05.299508
1715  2023-11-30 13:41:05.330419
1716  2023-11-30 13:41:05.380283
1717  2023-11-30 13:41:05.426810
1718  2023-11-30 13:41:05.457608
1719  2023-11-30 13:41:05.506666
1720  2023-11-30 13:41:05.537548
1721  2023-11-30 13:41:05.584354
1722  2023-11-30 13:41:05.630490
1723  2023-11-30 13:41:05.662222
1724  2023-11-30 13:41:05.709218
1725  2023-11-30 13:41:05.755223
1726  2023-11-30 13:41:05.800694
1727  2023-11-30 13:41:05.831720
1728  2023-11-30 13:41:05.878122
1729  2023-11-30 13:41:05.925193
1730  2023-11-30 13:41:05.956455
1731  2023-11-30 13:41:06.003892
1732  2023-11-30 13:41:06.050800
1733  2023-11-30 13:41:06.082768
1734  2023-11-30 13:41:06.129870
1735  2023-11-30 13:41:06.177136
1736  2023-11-30 13:41:06.207791
1737  2023-11-30 13:41:06.255686
1738  2023-11-30 13:41:06.301468
1739  2023-11-30 13:41:06.332391
1740  2023-11-30 13:41:06.378717
1741  2023-11-30 13:41:06.425102
1742  2023-11-30 13:41:06.455878
1743  2023-11-30 13:41:06.502437
1744  2023-11-30 13:41:06.549839
1745  2023-11-30 13:41:06.580714
1746  2023-11-30 13:41:06.626983
1747  2023-11-30 13:41:06.674774
1748  2023-11-30 13:41:06.705823
1749  2023-11-30 13:41:06.753362
1750  2023-11-30 13:41:06.800052
1751  2023-11-30 13:41:06.831930
1752  2023-11-30 13:41:06.878457
1753  2023-11-30 13:41:06.924713
1754  2023-11-30 13:41:06.955880
1755  2023-11-30 13:41:07.002333
1756  2023-11-30 13:41:07.048799
1757  2023-11-30 13:41:07.079666
1758  2023-11-30 13:41:07.127026
1759  2023-11-30 13:41:07.174239
1760  2023-11-30 13:41:07.206145
1761  2023-11-30 13:41:07.252381
1762  2023-11-30 13:41:07.299949
1763  2023-11-30 13:41:07.330323
1764  2023-11-30 13:41:07.378215
1765  2023-11-30 13:41:07.423008
1766  2023-11-30 13:41:07.468850
1767  2023-11-30 13:41:07.499267
1768  2023-11-30 13:41:07.544776
1769  2023-11-30 13:41:07.591439
1770  2023-11-30 13:41:07.623222
1771  2023-11-30 13:41:07.669425
1772  2023-11-30 13:41:07.716116
1773  2023-11-30 13:41:07.747110
1774  2023-11-30 13:41:07.793238
1775  2023-11-30 13:41:07.839822
1776  2023-11-30 13:41:07.871493
1777  2023-11-30 13:41:07.918428
1778  2023-11-30 13:41:07.964046
1779  2023-11-30 13:41:08.009936
1780  2023-11-30 13:41:08.040898
1781  2023-11-30 13:41:08.088340
1782  2023-11-30 13:41:08.134606
1783  2023-11-30 13:41:08.166041
1784  2023-11-30 13:41:08.211517
1785  2023-11-30 13:41:08.258146
1786  2023-11-30 13:41:08.289556
1787  2023-11-30 13:41:08.335936
1788  2023-11-30 13:41:08.381276
1789  2023-11-30 13:41:08.412824
1790  2023-11-30 13:41:08.459862
1791  2023-11-30 13:41:08.507383
1792  2023-11-30 13:41:08.537055
1793  2023-11-30 13:41:08.584783
1794  2023-11-30 13:41:08.631313
1795  2023-11-30 13:41:08.662935
1796  2023-11-30 13:41:08.708555
1797  2023-11-30 13:41:08.755717
1798  2023-11-30 13:41:08.787391
1799  2023-11-30 13:41:08.833848
1800  2023-11-30 13:41:08.881118
1801  2023-11-30 13:41:08.912442
1802  2023-11-30 13:41:08.957921
1803  2023-11-30 13:41:09.005719
1804  2023-11-30 13:41:09.037525
1805  2023-11-30 13:41:09.085647
1806  2023-11-30 13:41:09.131271
1807  2023-11-30 13:41:09.162310
1808  2023-11-30 13:41:09.208877
1809  2023-11-30 13:41:09.255481
1810  2023-11-30 13:41:09.301602
1811  2023-11-30 13:41:09.333552
1812  2023-11-30 13:41:09.380562
1813  2023-11-30 13:41:09.427026
1814  2023-11-30 13:41:09.457752
1815  2023-11-30 13:41:09.504714
1816  2023-11-30 13:41:09.551450
1817  2023-11-30 13:41:09.582949
1818  2023-11-30 13:41:09.630130
1819  2023-11-30 13:41:09.677222
1820  2023-11-30 13:41:09.708974
1821  2023-11-30 13:41:09.756950
1822  2023-11-30 13:41:09.801819
1823  2023-11-30 13:41:09.832987
1824  2023-11-30 13:41:09.879939
1825  2023-11-30 13:41:09.926924
1826  2023-11-30 13:41:09.958142
1827  2023-11-30 13:41:10.005154
1828  2023-11-30 13:41:10.051688
1829  2023-11-30 13:41:10.082229
1830  2023-11-30 13:41:10.128865
1831  2023-11-30 13:41:10.175699
1832  2023-11-30 13:41:10.206916
1833  2023-11-30 13:41:10.254585
1834  2023-11-30 13:41:10.301266
1835  2023-11-30 13:41:10.333153
1836  2023-11-30 13:41:10.380059
1837  2023-11-30 13:41:10.412912
1838  2023-11-30 13:41:10.460531
1839  2023-11-30 13:41:10.504308
1840  2023-11-30 13:41:10.551457
1841  2023-11-30 13:41:10.581922
1842  2023-11-30 13:41:10.629520
1843  2023-11-30 13:41:10.675174
1844  2023-11-30 13:41:10.706765
1845  2023-11-30 13:41:10.752095
1846  2023-11-30 13:41:10.798671
1847  2023-11-30 13:41:10.829920
1848  2023-11-30 13:41:10.876355
1849  2023-11-30 13:41:10.923981
1850  2023-11-30 13:41:10.954723
1851  2023-11-30 13:41:11.001113
1852  2023-11-30 13:41:11.047297
1853  2023-11-30 13:41:11.093747
1854  2023-11-30 13:41:11.124795
1855  2023-11-30 13:41:11.172839
1856  2023-11-30 13:41:11.219774
1857  2023-11-30 13:41:11.250733
1858  2023-11-30 13:41:11.297822
1859  2023-11-30 13:41:11.329213
1860  2023-11-30 13:41:11.375611
1861  2023-11-30 13:41:11.423007
1862  2023-11-30 13:41:11.454817
1863  2023-11-30 13:41:11.502270
1864  2023-11-30 13:41:11.549435
1865  2023-11-30 13:41:11.580278
1866  2023-11-30 13:41:11.627632
1867  2023-11-30 13:41:11.675589
1868  2023-11-30 13:41:11.704992
1869  2023-11-30 13:41:11.751720
1870  2023-11-30 13:41:11.797557
1871  2023-11-30 13:41:11.829158
1872  2023-11-30 13:41:11.876057
1873  2023-11-30 13:41:11.923860
1874  2023-11-30 13:41:11.954689
1875  2023-11-30 13:41:12.001813
1876  2023-11-30 13:41:12.048928
1877  2023-11-30 13:41:12.079520
1878  2023-11-30 13:41:12.126274
1879  2023-11-30 13:41:12.173383
1880  2023-11-30 13:41:12.205871
1881  2023-11-30 13:41:12.251725
1882  2023-11-30 13:41:12.295937
1883  2023-11-30 13:41:12.343102
1884  2023-11-30 13:41:12.374457
1885  2023-11-30 13:41:12.421607
1886  2023-11-30 13:41:12.468797
1887  2023-11-30 13:41:12.500447
1888  2023-11-30 13:41:12.547504
1889  2023-11-30 13:41:12.580562
1890  2023-11-30 13:41:12.625904
1891  2023-11-30 13:41:12.672805
1892  2023-11-30 13:41:12.704253
1893  2023-11-30 13:41:12.751601
1894  2023-11-30 13:41:12.797376
1895  2023-11-30 13:41:12.844652
1896  2023-11-30 13:41:12.876331
1897  2023-11-30 13:41:12.922542
1898  2023-11-30 13:41:12.955486
1899  2023-11-30 13:41:13.002666
1900  2023-11-30 13:41:13.046772
1901  2023-11-30 13:41:13.094249
1902  2023-11-30 13:41:13.126196
1903  2023-11-30 13:41:13.173135
1904  2023-11-30 13:41:13.205606
1905  2023-11-30 13:41:13.252319
1906  2023-11-30 13:41:13.298839
1907  2023-11-30 13:41:13.330397
1908  2023-11-30 13:41:13.378663
1909  2023-11-30 13:41:13.423525
1910  2023-11-30 13:41:13.455150
1911  2023-11-30 13:41:13.501876
1912  2023-11-30 13:41:13.548691
1913  2023-11-30 13:41:13.579017
1914  2023-11-30 13:41:13.625474
1915  2023-11-30 13:41:13.673067
1916  2023-11-30 13:41:13.719081
1917  2023-11-30 13:41:13.749577
1918  2023-11-30 13:41:13.796073
1919  2023-11-30 13:41:13.843892
1920  2023-11-30 13:41:13.875988
1921  2023-11-30 13:41:13.922720
1922  2023-11-30 13:41:13.953682
1923  2023-11-30 13:41:13.999953
1924  2023-11-30 13:41:14.046100
1925  2023-11-30 13:41:14.092924
1926  2023-11-30 13:41:14.123320
1927  2023-11-30 13:41:14.170351
1928  2023-11-30 13:41:14.218427
1929  2023-11-30 13:41:14.249155
1930  2023-11-30 13:41:14.297401
1931  2023-11-30 13:41:14.344984
1932  2023-11-30 13:41:14.374787
1933  2023-11-30 13:41:14.422685
1934  2023-11-30 13:41:14.469381
1935  2023-11-30 13:41:14.500393
1936  2023-11-30 13:41:14.547077
1937  2023-11-30 13:41:14.593515
1938  2023-11-30 13:41:14.624706
1939  2023-11-30 13:41:14.670823
1940  2023-11-30 13:41:14.718012
1941  2023-11-30 13:41:14.748953
1942  2023-11-30 13:41:14.795983
1943  2023-11-30 13:41:14.842971
1944  2023-11-30 13:41:14.874899
1945  2023-11-30 13:41:14.921206
1946  2023-11-30 13:41:14.968821
1947  2023-11-30 13:41:14.998180
1948  2023-11-30 13:41:15.044948
1949  2023-11-30 13:41:15.092774
1950  2023-11-30 13:41:15.123916
1951  2023-11-30 13:41:15.170668
1952  2023-11-30 13:41:15.219683
1953  2023-11-30 13:41:15.250025
1954  2023-11-30 13:41:15.297817
1955  2023-11-30 13:41:15.329385
1956  2023-11-30 13:41:15.376312
1957  2023-11-30 13:41:15.422462
1958  2023-11-30 13:41:15.454540
1959  2023-11-30 13:41:15.500588
1960  2023-11-30 13:41:15.547139
1961  2023-11-30 13:41:15.593689
1962  2023-11-30 13:41:15.625169
1963  2023-11-30 13:41:15.671682
1964  2023-11-30 13:41:15.717778
1965  2023-11-30 13:41:15.748636
1966  2023-11-30 13:41:15.794725
1967  2023-11-30 13:41:15.841694
1968  2023-11-30 13:41:15.872375
1969  2023-11-30 13:41:15.917754
1970  2023-11-30 13:41:15.963755
1971  2023-11-30 13:41:16.010273
1972  2023-11-30 13:41:16.041041
1973  2023-11-30 13:41:16.088633
1974  2023-11-30 13:41:16.132672
1975  2023-11-30 13:41:16.163257
1976  2023-11-30 13:41:16.210657
1977  2023-11-30 13:41:16.255537
1978  2023-11-30 13:41:16.301885
1979  2023-11-30 13:41:16.333546
1980  2023-11-30 13:41:16.380767
1981  2023-11-30 13:41:16.412898
1982  2023-11-30 13:41:16.459413
1983  2023-11-30 13:41:16.506206
1984  2023-11-30 13:41:16.538137
1985  2023-11-30 13:41:16.586071
1986  2023-11-30 13:41:16.633652
1987  2023-11-30 13:41:16.664772
1988  2023-11-30 13:41:16.712413
1989  2023-11-30 13:41:16.758710
1990  2023-11-30 13:41:16.791113
1991  2023-11-30 13:41:16.836833
1992  2023-11-30 13:41:16.883364
1993  2023-11-30 13:41:16.915327
1994  2023-11-30 13:41:16.962858
1995  2023-11-30 13:41:17.008693
1996  2023-11-30 13:41:17.040169
1997  2023-11-30 13:41:17.086504
1998  2023-11-30 13:41:17.132397
1999  2023-11-30 13:41:17.163094
2000  2023-11-30 13:41:17.209738
2001  2023-11-30 13:41:17.257270
2002  2023-11-30 13:41:17.289508
2003  2023-11-30 13:41:17.335508
2004  2023-11-30 13:41:17.383514
2005  2023-11-30 13:41:17.413400
2006  2023-11-30 13:41:17.462725
2007  2023-11-30 13:41:17.507844
2008  2023-11-30 13:41:17.539576
2009  2023-11-30 13:41:17.587590
2010  2023-11-30 13:41:17.632930
2011  2023-11-30 13:41:17.663717
2012  2023-11-30 13:41:17.709390
2013  2023-11-30 13:41:17.756478
2014  2023-11-30 13:41:17.787218
2015  2023-11-30 13:41:17.833753
2016  2023-11-30 13:41:17.879915
2017  2023-11-30 13:41:17.928953
2018  2023-11-30 13:41:17.958161
2019  2023-11-30 13:41:18.006124
2020  2023-11-30 13:41:18.037070
2021  2023-11-30 13:41:18.085837
2022  2023-11-30 13:41:18.131878
2023  2023-11-30 13:41:18.163646
2024  2023-11-30 13:41:18.210809
2025  2023-11-30 13:41:18.258550
2026  2023-11-30 13:41:18.289671
2027  2023-11-30 13:41:18.336018
2028  2023-11-30 13:41:18.382089
2029  2023-11-30 13:41:18.412482
2030  2023-11-30 13:41:18.459670
2031  2023-11-30 13:41:18.507537
2032  2023-11-30 13:41:18.538230
2033  2023-11-30 13:41:18.584515
2034  2023-11-30 13:41:18.631403
2035  2023-11-30 13:41:18.663318
2036  2023-11-30 13:41:18.709404
2037  2023-11-30 13:41:18.756594
2038  2023-11-30 13:41:18.802923
2039  2023-11-30 13:41:18.832420
2040  2023-11-30 13:41:18.879318
2041  2023-11-30 13:41:18.925790
2042  2023-11-30 13:41:18.956189
2043  2023-11-30 13:41:19.002640
2044  2023-11-30 13:41:19.050679
2045  2023-11-30 13:41:19.081186
2046  2023-11-30 13:41:19.128591
2047  2023-11-30 13:41:19.173928
2048  2023-11-30 13:41:19.205646
2049  2023-11-30 13:41:19.252655
2050  2023-11-30 13:41:19.300491
2051  2023-11-30 13:41:19.330552
2052  2023-11-30 13:41:19.378609
2053  2023-11-30 13:41:19.425663
2054  2023-11-30 13:41:19.456776
2055  2023-11-30 13:41:19.503453
2056  2023-11-30 13:41:19.550657
2057  2023-11-30 13:41:19.581439
2058  2023-11-30 13:41:19.628973
2059  2023-11-30 13:41:19.674891
2060  2023-11-30 13:41:19.705503
2061  2023-11-30 13:41:19.752436
2062  2023-11-30 13:41:19.798834
2063  2023-11-30 13:41:19.843987
2064  2023-11-30 13:41:19.874938
2065  2023-11-30 13:41:19.921656
2066  2023-11-30 13:41:19.966817
2067  2023-11-30 13:41:19.997977
2068  2023-11-30 13:41:20.043722
2069  2023-11-30 13:41:20.090040
2070  2023-11-30 13:41:20.120990
2071  2023-11-30 13:41:20.167690
2072  2023-11-30 13:41:20.213665
2073  2023-11-30 13:41:20.260705
2074  2023-11-30 13:41:20.292680
2075  2023-11-30 13:41:20.338914
2076  2023-11-30 13:41:20.385123
2077  2023-11-30 13:41:20.415370
2078  2023-11-30 13:41:20.462174
2079  2023-11-30 13:41:20.510015
2080  2023-11-30 13:41:20.540895
2081  2023-11-30 13:41:20.588100
2082  2023-11-30 13:41:20.634362
2083  2023-11-30 13:41:20.666175
2084  2023-11-30 13:41:20.714066
2085  2023-11-30 13:41:20.745981
2086  2023-11-30 13:41:20.793862
2087  2023-11-30 13:41:20.840745
2088  2023-11-30 13:41:20.872145
2089  2023-11-30 13:41:20.918623
2090  2023-11-30 13:41:20.966592
2091  2023-11-30 13:41:20.996869
2092  2023-11-30 13:41:21.044660
2093  2023-11-30 13:41:21.092393
2094  2023-11-30 13:41:21.124360
2095  2023-11-30 13:41:21.168546
2096  2023-11-30 13:41:21.215671
2097  2023-11-30 13:41:21.247081
2098  2023-11-30 13:41:21.293288
2099  2023-11-30 13:41:21.340186
2100  2023-11-30 13:41:21.371462
2101  2023-11-30 13:41:21.418095
2102  2023-11-30 13:41:21.464482
2103  2023-11-30 13:41:21.495713
2104  2023-11-30 13:41:21.540859
2105  2023-11-30 13:41:21.588338
2106  2023-11-30 13:41:21.636095
2107  2023-11-30 13:41:21.667010
2108  2023-11-30 13:41:21.714871
2109  2023-11-30 13:41:21.747368
2110  2023-11-30 13:41:21.792664
2111  2023-11-30 13:41:21.839383
2112  2023-11-30 13:41:21.870297
2113  2023-11-30 13:41:21.916421
2114  2023-11-30 13:41:21.962472
2115  2023-11-30 13:41:22.009577
2116  2023-11-30 13:41:22.041127
2117  2023-11-30 13:41:22.087935
2118  2023-11-30 13:41:22.135377
2119  2023-11-30 13:41:22.166708
2120  2023-11-30 13:41:22.213771
2121  2023-11-30 13:41:22.245954
2122  2023-11-30 13:41:22.293268
2123  2023-11-30 13:41:22.341211
2124  2023-11-30 13:41:22.372884
2125  2023-11-30 13:41:22.420297
2126  2023-11-30 13:41:22.468161
2127  2023-11-30 13:41:22.499070
2128  2023-11-30 13:41:22.546679
2129  2023-11-30 13:41:22.594192
2130  2023-11-30 13:41:22.623819
2131  2023-11-30 13:41:22.670081
2132  2023-11-30 13:41:22.716298
2133  2023-11-30 13:41:22.747095
2134  2023-11-30 13:41:22.793833
2135  2023-11-30 13:41:22.839693
2136  2023-11-30 13:41:22.871554
2137  2023-11-30 13:41:22.918270
2138  2023-11-30 13:41:22.964905
2139  2023-11-30 13:41:22.996256
2140  2023-11-30 13:41:23.044965
2141  2023-11-30 13:41:23.089915
2142  2023-11-30 13:41:23.135303
2143  2023-11-30 13:41:23.166268
2144  2023-11-30 13:41:23.211892
2145  2023-11-30 13:41:23.258580
2146  2023-11-30 13:41:23.290180
2147  2023-11-30 13:41:23.336391
2148  2023-11-30 13:41:23.382339
2149  2023-11-30 13:41:23.413209
2150  2023-11-30 13:41:23.460609
2151  2023-11-30 13:41:23.508541
2152  2023-11-30 13:41:23.539057
2153  2023-11-30 13:41:23.586692
2154  2023-11-30 13:41:23.636504
2155  2023-11-30 13:41:23.665767
2156  2023-11-30 13:41:23.713869
2157  2023-11-30 13:41:23.761368
2158  2023-11-30 13:41:23.790604
2159  2023-11-30 13:41:23.836799
2160  2023-11-30 13:41:23.882184
2161  2023-11-30 13:41:23.913410
2162  2023-11-30 13:41:23.961096
2163  2023-11-30 13:41:24.007202
2164  2023-11-30 13:41:24.039122
2165  2023-11-30 13:41:24.085364
2166  2023-11-30 13:41:24.133354
2167  2023-11-30 13:41:24.164504
2168  2023-11-30 13:41:24.211588
2169  2023-11-30 13:41:24.257238
2170  2023-11-30 13:41:24.288971
2171  2023-11-30 13:41:24.337839
2172  2023-11-30 13:41:24.382081
2173  2023-11-30 13:41:24.412777
2174  2023-11-30 13:41:24.459380
2175  2023-11-30 13:41:24.505703
2176  2023-11-30 13:41:24.538128
2177  2023-11-30 13:41:24.584177
2178  2023-11-30 13:41:24.630792
2179  2023-11-30 13:41:24.662109
2180  2023-11-30 13:41:24.709532
2181  2023-11-30 13:41:24.756783
2182  2023-11-30 13:41:24.788483
2183  2023-11-30 13:41:24.836106
2184  2023-11-30 13:41:24.884796
2185  2023-11-30 13:41:24.915557
2186  2023-11-30 13:41:24.961702
2187  2023-11-30 13:41:25.008857
2188  2023-11-30 13:41:25.039774
2189  2023-11-30 13:41:25.087681
2190  2023-11-30 13:41:25.133460
2191  2023-11-30 13:41:25.163940
2192  2023-11-30 13:41:25.210071
2193  2023-11-30 13:41:25.256831
2194  2023-11-30 13:41:25.287861
2195  2023-11-30 13:41:25.334614
2196  2023-11-30 13:41:25.381311
2197  2023-11-30 13:41:25.412395
2198  2023-11-30 13:41:25.459885
2199  2023-11-30 13:41:25.506741
2200  2023-11-30 13:41:25.539833
2201  2023-11-30 13:41:25.586539
2202  2023-11-30 13:41:25.633994
2203  2023-11-30 13:41:25.665720
2204  2023-11-30 13:41:25.712966
2205  2023-11-30 13:41:25.759210
2206  2023-11-30 13:41:25.788904
2207  2023-11-30 13:41:25.835714
2208  2023-11-30 13:41:25.882391
2209  2023-11-30 13:41:25.912850
2210  2023-11-30 13:41:25.959215
2211  2023-11-30 13:41:26.006594
2212  2023-11-30 13:41:26.037445
2213  2023-11-30 13:41:26.084307
2214  2023-11-30 13:41:26.131181
2215  2023-11-30 13:41:26.162519
2216  2023-11-30 13:41:26.208618
2217  2023-11-30 13:41:26.258196
2218  2023-11-30 13:41:26.287167
2219  2023-11-30 13:41:26.335501
2220  2023-11-30 13:41:26.379650
2221  2023-11-30 13:41:26.426041
2222  2023-11-30 13:41:26.456832
2223  2023-11-30 13:41:26.503157
2224  2023-11-30 13:41:26.550036
2225  2023-11-30 13:41:26.581832
2226  2023-11-30 13:41:26.628568
2227  2023-11-30 13:41:26.674789
2228  2023-11-30 13:41:26.705854
2229  2023-11-30 13:41:26.753290
2230  2023-11-30 13:41:26.800122
2231  2023-11-30 13:41:26.830817
2232  2023-11-30 13:41:26.878130
2233  2023-11-30 13:41:26.923802
2234  2023-11-30 13:41:26.955630
2235  2023-11-30 13:41:27.003208
2236  2023-11-30 13:41:27.050939
2237  2023-11-30 13:41:27.082768
2238  2023-11-30 13:41:27.128591
2239  2023-11-30 13:41:27.175024
2240  2023-11-30 13:41:27.207075
2241  2023-11-30 13:41:27.253975
2242  2023-11-30 13:41:27.301330
2243  2023-11-30 13:41:27.332793
2244  2023-11-30 13:41:27.379602
2245  2023-11-30 13:41:27.426225
2246  2023-11-30 13:41:27.457811
2247  2023-11-30 13:41:27.504448
2248  2023-11-30 13:41:27.551324
2249  2023-11-30 13:41:27.584498
2250  2023-11-30 13:41:27.630648
2251  2023-11-30 13:41:27.675254
2252  2023-11-30 13:41:27.706374
2253  2023-11-30 13:41:27.752286
2254  2023-11-30 13:41:27.799831
2255  2023-11-30 13:41:27.831437
2256  2023-11-30 13:41:27.877920
2257  2023-11-30 13:41:27.925186
2258  2023-11-30 13:41:27.956708
2259  2023-11-30 13:41:28.003114
2260  2023-11-30 13:41:28.050037
2261  2023-11-30 13:41:28.080918
2262  2023-11-30 13:41:28.129044
2263  2023-11-30 13:41:28.173909
2264  2023-11-30 13:41:28.205741
2265  2023-11-30 13:41:28.253781
2266  2023-11-30 13:41:28.302155
2267  2023-11-30 13:41:28.332448
2268  2023-11-30 13:41:28.378023
2269  2023-11-30 13:41:28.424422
2270  2023-11-30 13:41:28.456762
2271  2023-11-30 13:41:28.503791
2272  2023-11-30 13:41:28.551182
2273  2023-11-30 13:41:28.583210
2274  2023-11-30 13:41:28.630149
2275  2023-11-30 13:41:28.676870
2276  2023-11-30 13:41:28.707999
2277  2023-11-30 13:41:28.753721
2278  2023-11-30 13:41:28.800900
2279  2023-11-30 13:41:28.831861
2280  2023-11-30 13:41:28.879355
2281  2023-11-30 13:41:28.926780
2282  2023-11-30 13:41:28.957694
2283  2023-11-30 13:41:29.003995
2284  2023-11-30 13:41:29.050091
2285  2023-11-30 13:41:29.080075
2286  2023-11-30 13:41:29.127035
2287  2023-11-30 13:41:29.174054
2288  2023-11-30 13:41:29.205432
2289  2023-11-30 13:41:29.252136
2290  2023-11-30 13:41:29.300313
2291  2023-11-30 13:41:29.330083
2292  2023-11-30 13:41:29.377948
2293  2023-11-30 13:41:29.425824
2294  2023-11-30 13:41:29.456880
2295  2023-11-30 13:41:29.505750
2296  2023-11-30 13:41:29.551741
2297  2023-11-30 13:41:29.582927
2298  2023-11-30 13:41:29.628654
2299  2023-11-30 13:41:29.676702
2300  2023-11-30 13:41:29.705806
2301  2023-11-30 13:41:29.753598
2302  2023-11-30 13:41:29.799925
2303  2023-11-30 13:41:29.831361
2304  2023-11-30 13:41:29.878157
2305  2023-11-30 13:41:29.925623
2306  2023-11-30 13:41:29.956869
2307  2023-11-30 13:41:30.004077
2308  2023-11-30 13:41:30.050799
2309  2023-11-30 13:41:30.082751
2310  2023-11-30 13:41:30.130387
2311  2023-11-30 13:41:30.176708
2312  2023-11-30 13:41:30.207655
2313  2023-11-30 13:41:30.254852
2314  2023-11-30 13:41:30.301744
2315  2023-11-30 13:41:30.333227
2316  2023-11-30 13:41:30.380388
2317  2023-11-30 13:41:30.411968
2318  2023-11-30 13:41:30.459848
2319  2023-11-30 13:41:30.507737
2320  2023-11-30 13:41:30.539216
2321  2023-11-30 13:41:30.587436
2322  2023-11-30 13:41:30.635401
2323  2023-11-30 13:41:30.665424
2324  2023-11-30 13:41:30.712377
2325  2023-11-30 13:41:30.759333
2326  2023-11-30 13:41:30.790423
2327  2023-11-30 13:41:30.837059
2328  2023-11-30 13:41:30.884161
2329  2023-11-30 13:41:30.914752
2330  2023-11-30 13:41:30.961732
2331  2023-11-30 13:41:31.009417
2332  2023-11-30 13:41:31.040192
2333  2023-11-30 13:41:31.086000
2334  2023-11-30 13:41:31.132868
2335  2023-11-30 13:41:31.164784
2336  2023-11-30 13:41:31.211328
2337  2023-11-30 13:41:31.258995
2338  2023-11-30 13:41:31.288669
2339  2023-11-30 13:41:31.334946
2340  2023-11-30 13:41:31.381545
2341  2023-11-30 13:41:31.412731
2342  2023-11-30 13:41:31.459877
2343  2023-11-30 13:41:31.506283
2344  2023-11-30 13:41:31.537650
2345  2023-11-30 13:41:31.584596
2346  2023-11-30 13:41:31.630511
2347  2023-11-30 13:41:31.676859
2348  2023-11-30 13:41:31.708902
2349  2023-11-30 13:41:31.756272
2350  2023-11-30 13:41:31.789537
2351  2023-11-30 13:41:31.834509
2352  2023-11-30 13:41:31.880317
2353  2023-11-30 13:41:31.926577
2354  2023-11-30 13:41:31.957776
2355  2023-11-30 13:41:32.005345
2356  2023-11-30 13:41:32.052345
2357  2023-11-30 13:41:32.084308
2358  2023-11-30 13:41:32.130130
2359  2023-11-30 13:41:32.176715
2360  2023-11-30 13:41:32.207398
2361  2023-11-30 13:41:32.253070
2362  2023-11-30 13:41:32.300521
2363  2023-11-30 13:41:32.331858
2364  2023-11-30 13:41:32.377827
2365  2023-11-30 13:41:32.425296
2366  2023-11-30 13:41:32.457296
2367  2023-11-30 13:41:32.506335
2368  2023-11-30 13:41:32.551172
2369  2023-11-30 13:41:32.582519
2370  2023-11-30 13:41:32.629817
2371  2023-11-30 13:41:32.677046
2372  2023-11-30 13:41:32.708142
2373  2023-11-30 13:41:32.755913
2374  2023-11-30 13:41:32.802475
2375  2023-11-30 13:41:32.833822
2376  2023-11-30 13:41:32.879624
2377  2023-11-30 13:41:32.925698
2378  2023-11-30 13:41:32.955892
2379  2023-11-30 13:41:33.003522
2380  2023-11-30 13:41:33.049776
2381  2023-11-30 13:41:33.081676
2382  2023-11-30 13:41:33.128778
2383  2023-11-30 13:41:33.174980
2384  2023-11-30 13:41:33.205957
2385  2023-11-30 13:41:33.253141
2386  2023-11-30 13:41:33.300477
2387  2023-11-30 13:41:33.331677
2388  2023-11-30 13:41:33.378820
2389  2023-11-30 13:41:33.426321
2390  2023-11-30 13:41:33.458236
2391  2023-11-30 13:41:33.505606
2392  2023-11-30 13:41:33.551477
2393  2023-11-30 13:41:33.583555
2394  2023-11-30 13:41:33.630009
2395  2023-11-30 13:41:33.662070
2396  2023-11-30 13:41:33.709310
2397  2023-11-30 13:41:33.756389
2398  2023-11-30 13:41:33.787525
2399  2023-11-30 13:41:33.835057
2400  2023-11-30 13:41:33.882152
2401  2023-11-30 13:41:33.915742
2402  2023-11-30 13:41:33.961264
2403  2023-11-30 13:41:34.009025
2404  2023-11-30 13:41:34.038142
2405  2023-11-30 13:41:34.084931
2406  2023-11-30 13:41:34.130640
2407  2023-11-30 13:41:34.177022
2408  2023-11-30 13:41:34.208358
2409  2023-11-30 13:41:34.254633
2410  2023-11-30 13:41:34.300743
2411  2023-11-30 13:41:34.331669
2412  2023-11-30 13:41:34.377345
2413  2023-11-30 13:41:34.426174
2414  2023-11-30 13:41:34.456931
2415  2023-11-30 13:41:34.504243
2416  2023-11-30 13:41:34.550097
2417  2023-11-30 13:41:34.581458
2418  2023-11-30 13:41:34.629327
2419  2023-11-30 13:41:34.676038
2420  2023-11-30 13:41:34.707308
2421  2023-11-30 13:41:34.754312
2422  2023-11-30 13:41:34.800753
2423  2023-11-30 13:41:34.832053
2424  2023-11-30 13:41:34.878639
2425  2023-11-30 13:41:34.925520
2426  2023-11-30 13:41:34.956083
2427  2023-11-30 13:41:35.003784
2428  2023-11-30 13:41:35.051039
2429  2023-11-30 13:41:35.081613
2430  2023-11-30 13:41:35.128181
2431  2023-11-30 13:41:35.176394
2432  2023-11-30 13:41:35.207539
2433  2023-11-30 13:41:35.253479
2434  2023-11-30 13:41:35.301438
2435  2023-11-30 13:41:35.332040
2436  2023-11-30 13:41:35.379571
2437  2023-11-30 13:41:35.426069
2438  2023-11-30 13:41:35.457709
2439  2023-11-30 13:41:35.504788
2440  2023-11-30 13:41:35.552140
2441  2023-11-30 13:41:35.583831
2442  2023-11-30 13:41:35.630326
2443  2023-11-30 13:41:35.676309
2444  2023-11-30 13:41:35.706853
2445  2023-11-30 13:41:35.753977
2446  2023-11-30 13:41:35.801499
2447  2023-11-30 13:41:35.832480
2448  2023-11-30 13:41:35.878573
2449  2023-11-30 13:41:35.927922
2450  2023-11-30 13:41:35.959427
2451  2023-11-30 13:41:36.003858
2452  2023-11-30 13:41:36.051446
2453  2023-11-30 13:41:36.082635
2454  2023-11-30 13:41:36.129566
2455  2023-11-30 13:41:36.176294
2456  2023-11-30 13:41:36.207072
2457  2023-11-30 13:41:36.253973
2458  2023-11-30 13:41:36.299730
2459  2023-11-30 13:41:36.331611
2460  2023-11-30 13:41:36.379486
2461  2023-11-30 13:41:36.425401
2462  2023-11-30 13:41:36.456337
2463  2023-11-30 13:41:36.504154
2464  2023-11-30 13:41:36.549748
2465  2023-11-30 13:41:36.580362
2466  2023-11-30 13:41:36.626804
2467  2023-11-30 13:41:36.674523
2468  2023-11-30 13:41:36.705704
2469  2023-11-30 13:41:36.751955
2470  2023-11-30 13:41:36.798885
2471  2023-11-30 13:41:36.830178
2472  2023-11-30 13:41:36.876348
2473  2023-11-30 13:41:36.923284
2474  2023-11-30 13:41:36.954666
2475  2023-11-30 13:41:37.001178
2476  2023-11-30 13:41:37.050455
2477  2023-11-30 13:41:37.080066
2478  2023-11-30 13:41:37.127536
2479  2023-11-30 13:41:37.176063
2480  2023-11-30 13:41:37.206922
2481  2023-11-30 13:41:37.253126
2482  2023-11-30 13:41:37.300857
2483  2023-11-30 13:41:37.331289
2484  2023-11-30 13:41:37.378644
2485  2023-11-30 13:41:37.425612
2486  2023-11-30 13:41:37.457703
2487  2023-11-30 13:41:37.504919
2488  2023-11-30 13:41:37.552246
2489  2023-11-30 13:41:37.582092
2490  2023-11-30 13:41:37.627640
2491  2023-11-30 13:41:37.674612
2492  2023-11-30 13:41:37.705227
2493  2023-11-30 13:41:37.751819
2494  2023-11-30 13:41:37.798072
2495  2023-11-30 13:41:37.829914
2496  2023-11-30 13:41:37.877896
2497  2023-11-30 13:41:37.926658
2498  2023-11-30 13:41:37.954746
2499  2023-11-30 13:41:38.001522
2500  2023-11-30 13:41:38.048900
2501  2023-11-30 13:41:38.079870
2502  2023-11-30 13:41:38.125892
2503  2023-11-30 13:41:38.172147
2504  2023-11-30 13:41:38.218668
2505  2023-11-30 13:41:38.249515
2506  2023-11-30 13:41:38.296676
2507  2023-11-30 13:41:38.343140
2508  2023-11-30 13:41:38.373963
2509  2023-11-30 13:41:38.421366
2510  2023-11-30 13:41:38.469453
2511  2023-11-30 13:41:38.498668
2512  2023-11-30 13:41:38.545836
2513  2023-11-30 13:41:38.593387
2514  2023-11-30 13:41:38.624647
2515  2023-11-30 13:41:38.670784
2516  2023-11-30 13:41:38.718041
2517  2023-11-30 13:41:38.748738
2518  2023-11-30 13:41:38.795260
2519  2023-11-30 13:41:38.842533
2520  2023-11-30 13:41:38.873113
2521  2023-11-30 13:41:38.919850
2522  2023-11-30 13:41:38.966762
2523  2023-11-30 13:41:38.998494
2524  2023-11-30 13:41:39.045293
2525  2023-11-30 13:41:39.093630
2526  2023-11-30 13:41:39.123424
2527  2023-11-30 13:41:39.169705
2528  2023-11-30 13:41:39.216175
2529  2023-11-30 13:41:39.246799
2530  2023-11-30 13:41:39.293477
2531  2023-11-30 13:41:39.340374
2532  2023-11-30 13:41:39.371113
2533  2023-11-30 13:41:39.417277
2534  2023-11-30 13:41:39.464362
2535  2023-11-30 13:41:39.510144
2536  2023-11-30 13:41:39.541213
2537  2023-11-30 13:41:39.588117
2538  2023-11-30 13:41:39.637613
2539  2023-11-30 13:41:39.665802
2540  2023-11-30 13:41:39.713600
2541  2023-11-30 13:41:39.745638
2542  2023-11-30 13:41:39.793730
2543  2023-11-30 13:41:39.839907
2544  2023-11-30 13:41:39.871242
2545  2023-11-30 13:41:39.918814
2546  2023-11-30 13:41:39.966119
2547  2023-11-30 13:41:39.997341
2548  2023-11-30 13:41:40.043480
2549  2023-11-30 13:41:40.091121
2550  2023-11-30 13:41:40.122180
2551  2023-11-30 13:41:40.168174
2552  2023-11-30 13:41:40.216349
2553  2023-11-30 13:41:40.260781
2554  2023-11-30 13:41:40.291847
2555  2023-11-30 13:41:40.339286
2556  2023-11-30 13:41:40.384904
2557  2023-11-30 13:41:40.415732
2558  2023-11-30 13:41:40.463082
2559  2023-11-30 13:41:40.508692
2560  2023-11-30 13:41:40.539723
2561  2023-11-30 13:41:40.586494
2562  2023-11-30 13:41:40.632602
2563  2023-11-30 13:41:40.663556
2564  2023-11-30 13:41:40.709978
2565  2023-11-30 13:41:40.756458
2566  2023-11-30 13:41:40.788431
2567  2023-11-30 13:41:40.835820
2568  2023-11-30 13:41:40.880984
2569  2023-11-30 13:41:40.914830
2570  2023-11-30 13:41:40.958784
2571  2023-11-30 13:41:41.004880
2572  2023-11-30 13:41:41.052688
2573  2023-11-30 13:41:41.083650
2574  2023-11-30 13:41:41.130215
2575  2023-11-30 13:41:41.176528
2576  2023-11-30 13:41:41.207418
2577  2023-11-30 13:41:41.254194
2578  2023-11-30 13:41:41.301206
2579  2023-11-30 13:41:41.331368
2580  2023-11-30 13:41:41.380003
2581  2023-11-30 13:41:41.426617
2582  2023-11-30 13:41:41.459525
2583  2023-11-30 13:41:41.504625
2584  2023-11-30 13:41:41.550396
2585  2023-11-30 13:41:41.580496
2586  2023-11-30 13:41:41.627968
2587  2023-11-30 13:41:41.673611
2588  2023-11-30 13:41:41.705412
2589  2023-11-30 13:41:41.752081
2590  2023-11-30 13:41:41.798271
2591  2023-11-30 13:41:41.830666
2592  2023-11-30 13:41:41.875828
2593  2023-11-30 13:41:41.922509
2594  2023-11-30 13:41:41.970465
2595  2023-11-30 13:41:41.998929
2596  2023-11-30 13:41:42.044951
2597  2023-11-30 13:41:42.091552
2598  2023-11-30 13:41:42.122307
2599  2023-11-30 13:41:42.169436
2600  2023-11-30 13:41:42.215605
2601  2023-11-30 13:41:42.246806
2602  2023-11-30 13:41:42.293874
2603  2023-11-30 13:41:42.340900
2604  2023-11-30 13:41:42.371571
2605  2023-11-30 13:41:42.418888
2606  2023-11-30 13:41:42.467290
2607  2023-11-30 13:41:42.498243
2608  2023-11-30 13:41:42.546323
2609  2023-11-30 13:41:42.593196
2610  2023-11-30 13:41:42.625291
2611  2023-11-30 13:41:42.670302
2612  2023-11-30 13:41:42.716119
2613  2023-11-30 13:41:42.747547
2614  2023-11-30 13:41:42.793650
2615  2023-11-30 13:41:42.839686
2616  2023-11-30 13:41:42.871463
2617  2023-11-30 13:41:42.918167
2618  2023-11-30 13:41:42.964592
2619  2023-11-30 13:41:42.996128
2620  2023-11-30 13:41:43.043576
2621  2023-11-30 13:41:43.090523
2622  2023-11-30 13:41:43.122520
2623  2023-11-30 13:41:43.169314
2624  2023-11-30 13:41:43.219146
2625  2023-11-30 13:41:43.249367
2626  2023-11-30 13:41:43.294884
2627  2023-11-30 13:41:43.341400
2628  2023-11-30 13:41:43.372276
2629  2023-11-30 13:41:43.418542
2630  2023-11-30 13:41:43.464446
2631  2023-11-30 13:41:43.495440
2632  2023-11-30 13:41:43.542790
2633  2023-11-30 13:41:43.588818
2634  2023-11-30 13:41:43.634961
2635  2023-11-30 13:41:43.667988
2636  2023-11-30 13:41:43.715587
2637  2023-11-30 13:41:43.760144
2638  2023-11-30 13:41:43.792025
2639  2023-11-30 13:41:43.837950
2640  2023-11-30 13:41:43.884062
2641  2023-11-30 13:41:43.915343
2642  2023-11-30 13:41:43.961154
2643  2023-11-30 13:41:44.007619
2644  2023-11-30 13:41:44.039285
2645  2023-11-30 13:41:44.086348
2646  2023-11-30 13:41:44.133747
2647  2023-11-30 13:41:44.165659
2648  2023-11-30 13:41:44.215333
2649  2023-11-30 13:41:44.259325
2650  2023-11-30 13:41:44.290485
2651  2023-11-30 13:41:44.338131
2652  2023-11-30 13:41:44.386326
2653  2023-11-30 13:41:44.418291
2654  2023-11-30 13:41:44.466180
2655  2023-11-30 13:41:44.496194
2656  2023-11-30 13:41:44.544363
2657  2023-11-30 13:41:44.592928
2658  2023-11-30 13:41:44.623488
2659  2023-11-30 13:41:44.670149
2660  2023-11-30 13:41:44.716669
2661  2023-11-30 13:41:44.747943
2662  2023-11-30 13:41:44.793922
2663  2023-11-30 13:41:44.840935
2664  2023-11-30 13:41:44.872084
2665  2023-11-30 13:41:44.919132
2666  2023-11-30 13:41:44.965991
2667  2023-11-30 13:41:44.997575
2668  2023-11-30 13:41:45.045451
2669  2023-11-30 13:41:45.092324
2670  2023-11-30 13:41:45.123939
2671  2023-11-30 13:41:45.171515
2672  2023-11-30 13:41:45.217565
2673  2023-11-30 13:41:45.248577
2674  2023-11-30 13:41:45.295058
2675  2023-11-30 13:41:45.342929
2676  2023-11-30 13:41:45.372605
2677  2023-11-30 13:41:45.426071
2678  2023-11-30 13:41:45.465977
2679  2023-11-30 13:41:45.497030
2680  2023-11-30 13:41:45.544266
2681  2023-11-30 13:41:45.591687
2682  2023-11-30 13:41:45.623621
2683  2023-11-30 13:41:45.670032
2684  2023-11-30 13:41:45.716673
2685  2023-11-30 13:41:45.747284
2686  2023-11-30 13:41:45.794058
2687  2023-11-30 13:41:45.840269
2688  2023-11-30 13:41:45.871865
2689  2023-11-30 13:41:45.918369
2690  2023-11-30 13:41:45.966204
2691  2023-11-30 13:41:46.010678
2692  2023-11-30 13:41:46.041242
2693  2023-11-30 13:41:46.088916
2694  2023-11-30 13:41:46.134591
2695  2023-11-30 13:41:46.164826
2696  2023-11-30 13:41:46.212092
2697  2023-11-30 13:41:46.260023
2698  2023-11-30 13:41:46.291886
2699  2023-11-30 13:41:46.339939
2700  2023-11-30 13:41:46.385618
2701  2023-11-30 13:41:46.417420
2702  2023-11-30 13:41:46.465649
2703  2023-11-30 13:41:46.495372
2704  2023-11-30 13:41:46.542162
2705  2023-11-30 13:41:46.587451
2706  2023-11-30 13:41:46.633971
2707  2023-11-30 13:41:46.664866
2708  2023-11-30 13:41:46.712243
2709  2023-11-30 13:41:46.760456
2710  2023-11-30 13:41:46.790817
2711  2023-11-30 13:41:46.837026
2712  2023-11-30 13:41:46.883897
2713  2023-11-30 13:41:46.915860
2714  2023-11-30 13:41:46.961837
2715  2023-11-30 13:41:47.009305
2716  2023-11-30 13:41:47.039373
2717  2023-11-30 13:41:47.087555
2718  2023-11-30 13:41:47.173175
2719  2023-11-30 13:41:47.213099
2720  2023-11-30 13:41:47.258706
2721  2023-11-30 13:41:47.290724
2722  2023-11-30 13:41:47.336971
2723  2023-11-30 13:41:47.383882
2724  2023-11-30 13:41:47.415387
2725  2023-11-30 13:41:47.461243
2726  2023-11-30 13:41:47.525853
2727  2023-11-30 13:41:47.539807
2728  2023-11-30 13:41:47.586261
2729  2023-11-30 13:41:47.633696
2730  2023-11-30 13:41:47.666515
2731  2023-11-30 13:41:47.713600
2732  2023-11-30 13:41:47.760631
2733  2023-11-30 13:41:47.792434
2734  2023-11-30 13:41:47.840038
2735  2023-11-30 13:41:47.872044
2736  2023-11-30 13:41:47.919924
2737  2023-11-30 13:41:47.966515
2738  2023-11-30 13:41:47.997461
2739  2023-11-30 13:41:48.042919
2740  2023-11-30 13:41:48.089343
2741  2023-11-30 13:41:48.120245
2742  2023-11-30 13:41:48.167063
2743  2023-11-30 13:41:48.213598
2744  2023-11-30 13:41:48.259879
2745  2023-11-30 13:41:48.291833
2746  2023-11-30 13:41:48.338138
2747  2023-11-30 13:41:48.385791
2748  2023-11-30 13:41:48.416490
2749  2023-11-30 13:41:48.463260
2750  2023-11-30 13:41:48.508718
2751  2023-11-30 13:41:48.540871
2752  2023-11-30 13:41:48.586281
2753  2023-11-30 13:41:48.632492
2754  2023-11-30 13:41:48.664030
2755  2023-11-30 13:41:48.710533
2756  2023-11-30 13:41:48.757749
2757  2023-11-30 13:41:48.789309
2758  2023-11-30 13:41:48.836147
2759  2023-11-30 13:41:48.882806
2760  2023-11-30 13:41:48.914269
2761  2023-11-30 13:41:48.960851
2762  2023-11-30 13:41:49.007544
2763  2023-11-30 13:41:49.038620
2764  2023-11-30 13:41:49.087681
2765  2023-11-30 13:41:49.134565
2766  2023-11-30 13:41:49.167575
2767  2023-11-30 13:41:49.213230
2768  2023-11-30 13:41:49.260079
2769  2023-11-30 13:41:49.292031
2770  2023-11-30 13:41:49.337335
2771  2023-11-30 13:41:49.384114
2772  2023-11-30 13:41:49.415381
2773  2023-11-30 13:41:49.462253
2774  2023-11-30 13:41:49.509001
2775  2023-11-30 13:41:49.539938
2776  2023-11-30 13:41:49.587870
2777  2023-11-30 13:41:49.632736
2778  2023-11-30 13:41:49.664476
2779  2023-11-30 13:41:49.710266
2780  2023-11-30 13:41:49.756730
2781  2023-11-30 13:41:49.787974
2782  2023-11-30 13:41:49.835477
2783  2023-11-30 13:41:49.881412
2784  2023-11-30 13:41:49.911959
2785  2023-11-30 13:41:49.959004
2786  2023-11-30 13:41:50.004969
2787  2023-11-30 13:41:50.036915
2788  2023-11-30 13:41:50.083947
2789  2023-11-30 13:41:50.130650
2790  2023-11-30 13:41:50.176724
2791  2023-11-30 13:41:50.207595
2792  2023-11-30 13:41:50.254577
2793  2023-11-30 13:41:50.302115
2794  2023-11-30 13:41:50.334017
2795  2023-11-30 13:41:50.380857
2796  2023-11-30 13:41:50.412801
2797  2023-11-30 13:41:50.460413
2798  2023-11-30 13:41:50.508171
2799  2023-11-30 13:41:50.555160
2800  2023-11-30 13:41:50.586116
2801  2023-11-30 13:41:50.632668
2802  2023-11-30 13:41:50.662994
2803  2023-11-30 13:41:50.738861
2804  2023-11-30 13:41:50.755781
2805  2023-11-30 13:41:50.787901
2806  2023-11-30 13:41:50.833805
2807  2023-11-30 13:41:50.879874
2808  2023-11-30 13:41:50.927020
2809  2023-11-30 13:41:50.958081
2810  2023-11-30 13:41:51.004741
2811  2023-11-30 13:41:51.050989
2812  2023-11-30 13:41:51.082686
2813  2023-11-30 13:41:51.130245
2814  2023-11-30 13:41:51.176119
2815  2023-11-30 13:41:51.208033
2816  2023-11-30 13:41:51.255945
2817  2023-11-30 13:41:51.301819
2818  2023-11-30 13:41:51.358662
2819  2023-11-30 13:41:51.380609
2820  2023-11-30 13:41:51.412568
2821  2023-11-30 13:41:51.460450
2822  2023-11-30 13:41:51.506962
2823  2023-11-30 13:41:51.537626
2824  2023-11-30 13:41:51.583530
2825  2023-11-30 13:41:51.630069
2826  2023-11-30 13:41:51.677353
2827  2023-11-30 13:41:51.707722
2828  2023-11-30 13:41:51.767555
2829  2023-11-30 13:41:51.801719
2830  2023-11-30 13:41:51.833969
2831  2023-11-30 13:41:51.878656
2832  2023-11-30 13:41:51.925801
2833  2023-11-30 13:41:51.956868
2834  2023-11-30 13:41:52.003899
2835  2023-11-30 13:41:52.050804
2836  2023-11-30 13:41:52.081634
2837  2023-11-30 13:41:52.127111
2838  2023-11-30 13:41:52.174974
2839  2023-11-30 13:41:52.205922
2840  2023-11-30 13:41:52.252041
2841  2023-11-30 13:41:52.297906
2842  2023-11-30 13:41:52.329627
2843  2023-11-30 13:41:52.375458
2844  2023-11-30 13:41:52.431358
2845  2023-11-30 13:41:52.454250
2846  2023-11-30 13:41:52.502118
2847  2023-11-30 13:41:52.549087
2848  2023-11-30 13:41:52.580009
2849  2023-11-30 13:41:52.627559
2850  2023-11-30 13:41:52.674851
2851  2023-11-30 13:41:52.706735
2852  2023-11-30 13:41:52.753714
2853  2023-11-30 13:41:52.800042
2854  2023-11-30 13:41:52.831530
2855  2023-11-30 13:41:52.877922
2856  2023-11-30 13:41:52.925225
2857  2023-11-30 13:41:52.956514
2858  2023-11-30 13:41:53.003601
2859  2023-11-30 13:41:53.051553
2860  2023-11-30 13:41:53.083402
2861  2023-11-30 13:41:53.129303
2862  2023-11-30 13:41:53.177177
2863  2023-11-30 13:41:53.208827
2864  2023-11-30 13:41:53.253146
2865  2023-11-30 13:41:53.299751
2866  2023-11-30 13:41:53.330640
2867  2023-11-30 13:41:53.396153
2868  2023-11-30 13:41:53.424595
2869  2023-11-30 13:41:53.456092
2870  2023-11-30 13:41:53.502982
2871  2023-11-30 13:41:53.549031
2872  2023-11-30 13:41:53.579455
2873  2023-11-30 13:41:53.626976
2874  2023-11-30 13:41:53.672522
2875  2023-11-30 13:41:53.705409
2876  2023-11-30 13:41:53.752963
2877  2023-11-30 13:41:53.800278
2878  2023-11-30 13:41:53.832193
2879  2023-11-30 13:41:53.876975
2880  2023-11-30 13:41:53.922812
2881  2023-11-30 13:41:53.954777
2882  2023-11-30 13:41:54.000830
2883  2023-11-30 13:41:54.047764
2884  2023-11-30 13:41:54.078980
2885  2023-11-30 13:41:54.125523
2886  2023-11-30 13:41:54.171683
2887  2023-11-30 13:41:54.219267
2888  2023-11-30 13:41:54.249450
2889  2023-11-30 13:41:54.297338
2890  2023-11-30 13:41:54.329326
2891  2023-11-30 13:41:54.377820
2892  2023-11-30 13:41:54.423711
2893  2023-11-30 13:41:54.478545
2894  2023-11-30 13:41:54.501221
2895  2023-11-30 13:41:54.548403
2896  2023-11-30 13:41:54.579320
2897  2023-11-30 13:41:54.625707
2898  2023-11-30 13:41:54.672716
2899  2023-11-30 13:41:54.704200
2900  2023-11-30 13:41:54.750736
2901  2023-11-30 13:41:54.798454
2902  2023-11-30 13:41:54.829005
2903  2023-11-30 13:41:54.876245
2904  2023-11-30 13:41:54.922724
2905  2023-11-30 13:41:54.969419
2906  2023-11-30 13:41:54.999524
2907  2023-11-30 13:41:55.047554
2908  2023-11-30 13:41:55.092872
2909  2023-11-30 13:41:55.123828
2910  2023-11-30 13:41:55.170633
2911  2023-11-30 13:41:55.217098
2912  2023-11-30 13:41:55.248238
2913  2023-11-30 13:41:55.294252
2914  2023-11-30 13:41:55.341180
2915  2023-11-30 13:41:55.371793
2916  2023-11-30 13:41:55.418672
2917  2023-11-30 13:41:55.466577
2918  2023-11-30 13:41:55.498524
2919  2023-11-30 13:41:55.544935
2920  2023-11-30 13:41:55.592218
2921  2023-11-30 13:41:55.624137
2922  2023-11-30 13:41:55.671009
2923  2023-11-30 13:41:55.718538
2924  2023-11-30 13:41:55.750434
2925  2023-11-30 13:41:55.798450
2926  2023-11-30 13:41:55.830042
2927  2023-11-30 13:41:55.875043
2928  2023-11-30 13:41:55.923246
2929  2023-11-30 13:41:55.954664
2930  2023-11-30 13:41:56.002542
2931  2023-11-30 13:41:56.050197
2932  2023-11-30 13:41:56.082164
2933  2023-11-30 13:41:56.128893
2934  2023-11-30 13:41:56.176383
2935  2023-11-30 13:41:56.207389
2936  2023-11-30 13:41:56.254253
2937  2023-11-30 13:41:56.300783
2938  2023-11-30 13:41:56.331840
2939  2023-11-30 13:41:56.378263
2940  2023-11-30 13:41:56.424680
2941  2023-11-30 13:41:56.457698
2942  2023-11-30 13:41:56.502181
2943  2023-11-30 13:41:56.549998
2944  2023-11-30 13:41:56.582356
2945  2023-11-30 13:41:56.626698
2946  2023-11-30 13:41:56.687076
2947  2023-11-30 13:41:56.705996
2948  2023-11-30 13:41:56.751284
2949  2023-11-30 13:41:56.797999
2950  2023-11-30 13:41:56.829364
2951  2023-11-30 13:41:56.876113
2952  2023-11-30 13:41:56.923343
2953  2023-11-30 13:41:56.954110
2954  2023-11-30 13:41:57.000930
2955  2023-11-30 13:41:57.049002
2956  2023-11-30 13:41:57.079984
2957  2023-11-30 13:41:57.127141
2958  2023-11-30 13:41:57.174241
2959  2023-11-30 13:41:57.215527
2960  2023-11-30 13:41:57.251592
2961  2023-11-30 13:41:57.299526
2962  2023-11-30 13:41:57.330443
2963  2023-11-30 13:41:57.377318
2964  2023-11-30 13:41:57.422937
2965  2023-11-30 13:41:57.468545
2966  2023-11-30 13:41:57.499728
2967  2023-11-30 13:41:57.546923
2968  2023-11-30 13:41:57.594103
2969  2023-11-30 13:41:57.625076
2970  2023-11-30 13:41:57.672376
2971  2023-11-30 13:41:57.720462
2972  2023-11-30 13:41:57.748774
2973  2023-11-30 13:41:57.798512
2974  2023-11-30 13:41:57.843979
2975  2023-11-30 13:41:57.875843
2976  2023-11-30 13:41:57.921688
2977  2023-11-30 13:41:57.968723
2978  2023-11-30 13:41:57.998738
2979  2023-11-30 13:41:58.045610
2980  2023-11-30 13:41:58.092237
2981  2023-11-30 13:41:58.122740
2982  2023-11-30 13:41:58.169724
2983  2023-11-30 13:41:58.217151
2984  2023-11-30 13:41:58.249518
2985  2023-11-30 13:41:58.295119
2986  2023-11-30 13:41:58.342155
2987  2023-11-30 13:41:58.374137
2988  2023-11-30 13:41:58.421283
2989  2023-11-30 13:41:58.469446
2990  2023-11-30 13:41:58.498689
2991  2023-11-30 13:41:58.546350
2992  2023-11-30 13:41:58.593618
2993  2023-11-30 13:41:58.624108
2994  2023-11-30 13:41:58.671177
2995  2023-11-30 13:41:58.718506
2996  2023-11-30 13:41:58.749661
2997  2023-11-30 13:41:58.796219
2998  2023-11-30 13:41:58.842377
2999  2023-11-30 13:41:58.873164
3000  2023-11-30 13:41:58.921384
3001  2023-11-30 13:41:58.967533
3002  2023-11-30 13:41:59.024180
3003  2023-11-30 13:41:59.046123
3004  2023-11-30 13:41:59.094011
3005  2023-11-30 13:41:59.126004
3006  2023-11-30 13:41:59.172808
3007  2023-11-30 13:41:59.204618
3008  2023-11-30 13:41:59.251623
3009  2023-11-30 13:41:59.300120
3010  2023-11-30 13:41:59.328911
3011  2023-11-30 13:41:59.374421
3012  2023-11-30 13:41:59.421024
3013  2023-11-30 13:41:59.468896
3014  2023-11-30 13:41:59.500045
3015  2023-11-30 13:41:59.546711
3016  2023-11-30 13:41:59.593135
3017  2023-11-30 13:41:59.623696
3018  2023-11-30 13:41:59.670131
3019  2023-11-30 13:41:59.720392
3020  2023-11-30 13:41:59.748839
3021  2023-11-30 13:41:59.795452
3022  2023-11-30 13:41:59.844480
3023  2023-11-30 13:41:59.876944
3024  2023-11-30 13:41:59.921124
3025  2023-11-30 13:41:59.966993
3026  2023-11-30 13:41:59.997920
3027  2023-11-30 13:42:00.044464
3028  2023-11-30 13:42:00.091241
3029  2023-11-30 13:42:00.122613
3030  2023-11-30 13:42:00.169674
3031  2023-11-30 13:42:00.216490
3032  2023-11-30 13:42:00.248372
3033  2023-11-30 13:42:00.294146
3034  2023-11-30 13:42:00.341335
3035  2023-11-30 13:42:00.373897
3036  2023-11-30 13:42:00.420079
3037  2023-11-30 13:42:00.467732
3038  2023-11-30 13:42:00.498921
3039  2023-11-30 13:42:00.547837
3040  2023-11-30 13:42:00.595791
3041  2023-11-30 13:42:00.623978
3042  2023-11-30 13:42:00.669886
3043  2023-11-30 13:42:00.716190
3044  2023-11-30 13:42:00.747972
3045  2023-11-30 13:42:00.795283
3046  2023-11-30 13:42:00.841213
3047  2023-11-30 13:42:00.872599
3048  2023-11-30 13:42:00.919806
3049  2023-11-30 13:42:00.966506
3050  2023-11-30 13:42:00.997420
3051  2023-11-30 13:42:01.044862
3052  2023-11-30 13:42:01.090719
3053  2023-11-30 13:42:01.122324
3054  2023-11-30 13:42:01.167575
3055  2023-11-30 13:42:01.213773
3056  2023-11-30 13:42:01.260849
3057  2023-11-30 13:42:01.292312
3058  2023-11-30 13:42:01.338907
3059  2023-11-30 13:42:01.370926
3060  2023-11-30 13:42:01.416809
3061  2023-11-30 13:42:01.463501
3062  2023-11-30 13:42:01.509829
3063  2023-11-30 13:42:01.540844
3064  2023-11-30 13:42:01.588199
3065  2023-11-30 13:42:01.635777
3066  2023-11-30 13:42:01.666608
3067  2023-11-30 13:42:01.715442
3068  2023-11-30 13:42:01.761882
3069  2023-11-30 13:42:01.789812
3070  2023-11-30 13:42:01.836478
3071  2023-11-30 13:42:01.882913
3072  2023-11-30 13:42:01.913864
3073  2023-11-30 13:42:01.960262
3074  2023-11-30 13:42:02.008107
3075  2023-11-30 13:42:02.040047
3076  2023-11-30 13:42:02.105384
3077  2023-11-30 13:42:02.132244
3078  2023-11-30 13:42:02.163482
3079  2023-11-30 13:42:02.210639
3080  2023-11-30 13:42:02.259573
3081  2023-11-30 13:42:02.289518
3082  2023-11-30 13:42:02.337810
3083  2023-11-30 13:42:02.383155
3084  2023-11-30 13:42:02.413666
3085  2023-11-30 13:42:02.460487
3086  2023-11-30 13:42:02.507091
3087  2023-11-30 13:42:02.538997
3088  2023-11-30 13:42:02.586085
3089  2023-11-30 13:42:02.665370
3090  2023-11-30 13:42:02.710155
3091  2023-11-30 13:42:02.756207
3092  2023-11-30 13:42:02.788476
3093  2023-11-30 13:42:02.836118
3094  2023-11-30 13:42:02.881107
3095  2023-11-30 13:42:02.927015
3096  2023-11-30 13:42:02.957540
3097  2023-11-30 13:42:03.004138
3098  2023-11-30 13:42:03.052009
3099  2023-11-30 13:42:03.084015
3100  2023-11-30 13:42:03.130396
3101  2023-11-30 13:42:03.209296
3102  2023-11-30 13:42:03.253963
3103  2023-11-30 13:42:03.300727
3104  2023-11-30 13:42:03.331959
3105  2023-11-30 13:42:03.380800
3106  2023-11-30 13:42:03.427752
3107  2023-11-30 13:42:03.459671
3108  2023-11-30 13:42:03.505670
3109  2023-11-30 13:42:03.537228
3110  2023-11-30 13:42:03.584655
3111  2023-11-30 13:42:03.631432
3112  2023-11-30 13:42:03.676581
3113  2023-11-30 13:42:03.706897
3114  2023-11-30 13:42:03.754653
3115  2023-11-30 13:42:03.800798
3116  2023-11-30 13:42:03.832369
3117  2023-11-30 13:42:03.878925
3118  2023-11-30 13:42:03.925831
3119  2023-11-30 13:42:03.956514
3120  2023-11-30 13:42:04.003138
3121  2023-11-30 13:42:04.049168
3122  2023-11-30 13:42:04.080697
3123  2023-11-30 13:42:04.128147
3124  2023-11-30 13:42:04.175079
3125  2023-11-30 13:42:04.207163
3126  2023-11-30 13:42:04.253390
3127  2023-11-30 13:42:04.301057
3128  2023-11-30 13:42:04.348025
3129  2023-11-30 13:42:04.378066
3130  2023-11-30 13:42:04.424743
3131  2023-11-30 13:42:04.455727
3132  2023-11-30 13:42:04.502595
3133  2023-11-30 13:42:04.549820
3134  2023-11-30 13:42:04.581440
3135  2023-11-30 13:42:04.628377
3136  2023-11-30 13:42:04.675540
3137  2023-11-30 13:42:04.706519
3138  2023-11-30 13:42:04.753518
3139  2023-11-30 13:42:04.800957
3140  2023-11-30 13:42:04.832409
3141  2023-11-30 13:42:04.880474
3142  2023-11-30 13:42:04.927467
3143  2023-11-30 13:42:04.959293
3144  2023-11-30 13:42:05.008130
3145  2023-11-30 13:42:05.052059
3146  2023-11-30 13:42:05.082274
3147  2023-11-30 13:42:05.129314
3148  2023-11-30 13:42:05.176213
3149  2023-11-30 13:42:05.206992
3150  2023-11-30 13:42:05.254299
3151  2023-11-30 13:42:05.302195
3152  2023-11-30 13:42:05.332151
3153  2023-11-30 13:42:05.379541
3154  2023-11-30 13:42:05.427180
3155  2023-11-30 13:42:05.459028
3156  2023-11-30 13:42:05.505792
3157  2023-11-30 13:42:05.551868
3158  2023-11-30 13:42:05.584782
3159  2023-11-30 13:42:05.630266
3160  2023-11-30 13:42:05.678302
3161  2023-11-30 13:42:05.707760
3162  2023-11-30 13:42:05.754098
3163  2023-11-30 13:42:05.801268
3164  2023-11-30 13:42:05.833316
3165  2023-11-30 13:42:05.880096
3166  2023-11-30 13:42:05.926135
3167  2023-11-30 13:42:05.957202
3168  2023-11-30 13:42:06.003015
3169  2023-11-30 13:42:06.050207
3170  2023-11-30 13:42:06.080288
3171  2023-11-30 13:42:06.127482
3172  2023-11-30 13:42:06.175360
3173  2023-11-30 13:42:06.208240
3174  2023-11-30 13:42:06.253929
3175  2023-11-30 13:42:06.299497
3176  2023-11-30 13:42:06.331446
3177  2023-11-30 13:42:06.379325
3178  2023-11-30 13:42:06.427152
3179  2023-11-30 13:42:06.459094
3180  2023-11-30 13:42:06.505919
3181  2023-11-30 13:42:06.537099
3182  2023-11-30 13:42:06.583859
3183  2023-11-30 13:42:06.631850
3184  2023-11-30 13:42:06.662171
3185  2023-11-30 13:42:06.708026
3186  2023-11-30 13:42:06.754716
3187  2023-11-30 13:42:06.801117
3188  2023-11-30 13:42:06.832039
3189  2023-11-30 13:42:06.879474
3190  2023-11-30 13:42:06.925371
3191  2023-11-30 13:42:06.958259
3192  2023-11-30 13:42:07.002327
3193  2023-11-30 13:42:07.048269
3194  2023-11-30 13:42:07.080119
3195  2023-11-30 13:42:07.127871
3196  2023-11-30 13:42:07.173834
3197  2023-11-30 13:42:07.205476
3198  2023-11-30 13:42:07.251762
3199  2023-11-30 13:42:07.298424
3200  2023-11-30 13:42:07.389493
3201  2023-11-30 13:42:07.423027
3202  2023-11-30 13:42:07.469162
3203  2023-11-30 13:42:07.501614
3204  2023-11-30 13:42:07.545356
3205  2023-11-30 13:42:07.591236
3206  2023-11-30 13:42:07.622841
3207  2023-11-30 13:42:07.669052
3208  2023-11-30 13:42:07.715947
3209  2023-11-30 13:42:07.747808
3210  2023-11-30 13:42:07.794939
3211  2023-11-30 13:42:07.841577
3212  2023-11-30 13:42:07.873791
3213  2023-11-30 13:42:07.919968
3214  2023-11-30 13:42:07.967725
3215  2023-11-30 13:42:07.998893
3216  2023-11-30 13:42:08.045416
3217  2023-11-30 13:42:08.092470
3218  2023-11-30 13:42:08.124307
3219  2023-11-30 13:42:08.170114
3220  2023-11-30 13:42:08.217152
3221  2023-11-30 13:42:08.248599
3222  2023-11-30 13:42:08.294817
3223  2023-11-30 13:42:08.340865
3224  2023-11-30 13:42:08.371355
3225  2023-11-30 13:42:08.418159
3226  2023-11-30 13:42:08.464713
3227  2023-11-30 13:42:08.556219
3228  2023-11-30 13:42:08.590147
3229  2023-11-30 13:42:08.622058
3230  2023-11-30 13:42:08.668341
3231  2023-11-30 13:42:08.716133
3232  2023-11-30 13:42:08.747582
3233  2023-11-30 13:42:08.793760
3234  2023-11-30 13:42:08.839221
3235  2023-11-30 13:42:08.885216
3236  2023-11-30 13:42:08.915890
3237  2023-11-30 13:42:08.961834
3238  2023-11-30 13:42:09.008638
3239  2023-11-30 13:42:09.039832
3240  2023-11-30 13:42:09.086593
3241  2023-11-30 13:42:09.133845
3242  2023-11-30 13:42:09.165490
3243  2023-11-30 13:42:09.213144
3244  2023-11-30 13:42:09.261201
3245  2023-11-30 13:42:09.292861
3246  2023-11-30 13:42:09.340569
3247  2023-11-30 13:42:09.385080
3248  2023-11-30 13:42:09.416907
3249  2023-11-30 13:42:09.498891
3250  2023-11-30 13:42:09.511825
3251  2023-11-30 13:42:09.541034
3252  2023-11-30 13:42:09.588454
3253  2023-11-30 13:42:09.635325
3254  2023-11-30 13:42:09.706928
3255  2023-11-30 13:42:09.717863
3256  2023-11-30 13:42:09.760466
3257  2023-11-30 13:42:09.791080
3258  2023-11-30 13:42:09.838014
3259  2023-11-30 13:42:09.884935
3260  2023-11-30 13:42:09.917075
3261  2023-11-30 13:42:09.963920
3262  2023-11-30 13:42:10.010724
3263  2023-11-30 13:42:10.043254
3264  2023-11-30 13:42:10.088325
3265  2023-11-30 13:42:10.134281
3266  2023-11-30 13:42:10.166176
3267  2023-11-30 13:42:10.212819
3268  2023-11-30 13:42:10.259855
3269  2023-11-30 13:42:10.289673
3270  2023-11-30 13:42:10.336350
3271  2023-11-30 13:42:10.382014
3272  2023-11-30 13:42:10.413814
3273  2023-11-30 13:42:10.461376
3274  2023-11-30 13:42:10.510413
3275  2023-11-30 13:42:10.539776
3276  2023-11-30 13:42:10.586708
3277  2023-11-30 13:42:10.634743
3278  2023-11-30 13:42:10.706825
3279  2023-11-30 13:42:10.715801
3280  2023-11-30 13:42:10.746801
3281  2023-11-30 13:42:10.794262
3282  2023-11-30 13:42:10.840127
3283  2023-11-30 13:42:10.871473
3284  2023-11-30 13:42:10.917888
3285  2023-11-30 13:42:10.963842
3286  2023-11-30 13:42:11.010257
3287  2023-11-30 13:42:11.041663
3288  2023-11-30 13:42:11.086735
3289  2023-11-30 13:42:11.133420
3290  2023-11-30 13:42:11.165234
3291  2023-11-30 13:42:11.211107
3292  2023-11-30 13:42:11.257836
3293  2023-11-30 13:42:11.289632
3294  2023-11-30 13:42:11.338739
3295  2023-11-30 13:42:11.383246
3296  2023-11-30 13:42:11.414938
3297  2023-11-30 13:42:11.461673
3298  2023-11-30 13:42:11.508113
3299  2023-11-30 13:42:11.537901
3300  2023-11-30 13:42:11.584666
3301  2023-11-30 13:42:11.631044
3302  2023-11-30 13:42:11.728970
3303  2023-11-30 13:42:11.756655
3304  2023-11-30 13:42:11.802651
3305  2023-11-30 13:42:11.833660
3306  2023-11-30 13:42:11.881613
3307  2023-11-30 13:42:11.913335
3308  2023-11-30 13:42:11.959034
3309  2023-11-30 13:42:12.005083
3310  2023-11-30 13:42:12.036990
3311  2023-11-30 13:42:12.083444
3312  2023-11-30 13:42:12.129356
3313  2023-11-30 13:42:12.175449
3314  2023-11-30 13:42:12.206907
3315  2023-11-30 13:42:12.253225
3316  2023-11-30 13:42:12.300890
3317  2023-11-30 13:42:12.331648
3318  2023-11-30 13:42:12.379070
3319  2023-11-30 13:42:12.426262
3320  2023-11-30 13:42:12.457882
3321  2023-11-30 13:42:12.506175
3322  2023-11-30 13:42:12.552501
3323  2023-11-30 13:42:12.585859
3324  2023-11-30 13:42:12.629408
3325  2023-11-30 13:42:12.677210
3326  2023-11-30 13:42:12.708854
3327  2023-11-30 13:42:12.755761
3328  2023-11-30 13:42:12.787803
3329  2023-11-30 13:42:12.834428
3330  2023-11-30 13:42:12.881886
3331  2023-11-30 13:42:12.913802
3332  2023-11-30 13:42:12.960600
3333  2023-11-30 13:42:13.007257
3334  2023-11-30 13:42:13.039362
3335  2023-11-30 13:42:13.085686
3336  2023-11-30 13:42:13.132911
3337  2023-11-30 13:42:13.162966
3338  2023-11-30 13:42:13.209799
3339  2023-11-30 13:42:13.257505
3340  2023-11-30 13:42:13.287779
3341  2023-11-30 13:42:13.336480
3342  2023-11-30 13:42:13.380121
3343  2023-11-30 13:42:13.426576
3344  2023-11-30 13:42:13.457541
3345  2023-11-30 13:42:13.504223
3346  2023-11-30 13:42:13.549837
3347  2023-11-30 13:42:13.580997
3348  2023-11-30 13:42:13.628292
3349  2023-11-30 13:42:13.674681
3350  2023-11-30 13:42:13.762917
3351  2023-11-30 13:42:13.796301
3352  2023-11-30 13:42:13.842720
3353  2023-11-30 13:42:13.873756
3354  2023-11-30 13:42:13.919951
3355  2023-11-30 13:42:13.966101
3356  2023-11-30 13:42:13.998276
3357  2023-11-30 13:42:14.044334
3358  2023-11-30 13:42:14.090882
3359  2023-11-30 13:42:14.122174
3360  2023-11-30 13:42:14.169338
3361  2023-11-30 13:42:14.217972
3362  2023-11-30 13:42:14.249885
3363  2023-11-30 13:42:14.295660
3364  2023-11-30 13:42:14.342899
3365  2023-11-30 13:42:14.372208
3366  2023-11-30 13:42:14.419231
3367  2023-11-30 13:42:14.465849
3368  2023-11-30 13:42:14.497124
3369  2023-11-30 13:42:14.543881
3370  2023-11-30 13:42:14.590010
3371  2023-11-30 13:42:14.620941
3372  2023-11-30 13:42:14.667487
3373  2023-11-30 13:42:14.713900
3374  2023-11-30 13:42:14.760204
3375  2023-11-30 13:42:14.792349
3376  2023-11-30 13:42:14.838222
3377  2023-11-30 13:42:14.995846
3378  2023-11-30 13:42:15.010862
3379  2023-11-30 13:42:15.042031
3380  2023-11-30 13:42:15.087911
3381  2023-11-30 13:42:15.134424
3382  2023-11-30 13:42:15.165815
3383  2023-11-30 13:42:15.211911
3384  2023-11-30 13:42:15.258502
3385  2023-11-30 13:42:15.289822
3386  2023-11-30 13:42:15.336825
3387  2023-11-30 13:42:15.385382
3388  2023-11-30 13:42:15.414859
3389  2023-11-30 13:42:15.460190
3390  2023-11-30 13:42:15.506402
3391  2023-11-30 13:42:15.551676
3392  2023-11-30 13:42:15.583601
3393  2023-11-30 13:42:15.630286
3394  2023-11-30 13:42:15.662292
3395  2023-11-30 13:42:15.709214
3396  2023-11-30 13:42:15.754994
3397  2023-11-30 13:42:15.801556
3398  2023-11-30 13:42:15.832162
3399  2023-11-30 13:42:15.878832
3400  2023-11-30 13:42:15.927441
3401  2023-11-30 13:42:16.009080
3402  2023-11-30 13:42:16.051544
3403  2023-11-30 13:42:16.083256
3404  2023-11-30 13:42:16.129143
3405  2023-11-30 13:42:16.176033
3406  2023-11-30 13:42:16.207442
3407  2023-11-30 13:42:16.254290
3408  2023-11-30 13:42:16.301212
3409  2023-11-30 13:42:16.332278
3410  2023-11-30 13:42:16.379200
3411  2023-11-30 13:42:16.425321
3412  2023-11-30 13:42:16.457352
3413  2023-11-30 13:42:16.504885
3414  2023-11-30 13:42:16.551647
3415  2023-11-30 13:42:16.583860
3416  2023-11-30 13:42:16.631927
3417  2023-11-30 13:42:16.662646
3418  2023-11-30 13:42:16.710525
3419  2023-11-30 13:42:16.758274
3420  2023-11-30 13:42:16.802351
3421  2023-11-30 13:42:16.833926
3422  2023-11-30 13:42:16.879683
3423  2023-11-30 13:42:16.926500
3424  2023-11-30 13:42:16.957641
3425  2023-11-30 13:42:17.004587
3426  2023-11-30 13:42:17.051708
3427  2023-11-30 13:42:17.104575
3428  2023-11-30 13:42:17.128891
3429  2023-11-30 13:42:17.176895
3430  2023-11-30 13:42:17.206619
3431  2023-11-30 13:42:17.252482
3432  2023-11-30 13:42:17.300847
3433  2023-11-30 13:42:17.333715
3434  2023-11-30 13:42:17.377739
3435  2023-11-30 13:42:17.424564
3436  2023-11-30 13:42:17.455282
3437  2023-11-30 13:42:17.501758
3438  2023-11-30 13:42:17.548248
3439  2023-11-30 13:42:17.593401
3440  2023-11-30 13:42:17.624437
3441  2023-11-30 13:42:17.670031
3442  2023-11-30 13:42:17.717922
3443  2023-11-30 13:42:17.749316
3444  2023-11-30 13:42:17.793244
3445  2023-11-30 13:42:17.840664
3446  2023-11-30 13:42:17.871314
3447  2023-11-30 13:42:17.916947
3448  2023-11-30 13:42:17.963964
3449  2023-11-30 13:42:18.010271
3450  2023-11-30 13:42:18.042276
3451  2023-11-30 13:42:18.088770
3452  2023-11-30 13:42:18.135304
3453  2023-11-30 13:42:18.192840
3454  2023-11-30 13:42:18.213842
3455  2023-11-30 13:42:18.259719
3456  2023-11-30 13:42:18.289685
3457  2023-11-30 13:42:18.337553
3458  2023-11-30 13:42:18.385463
3459  2023-11-30 13:42:18.416095
3460  2023-11-30 13:42:18.463389
3461  2023-11-30 13:42:18.509850
3462  2023-11-30 13:42:18.541504
3463  2023-11-30 13:42:18.587704
3464  2023-11-30 13:42:18.634885
3465  2023-11-30 13:42:18.665039
3466  2023-11-30 13:42:18.710829
3467  2023-11-30 13:42:18.759070
3468  2023-11-30 13:42:18.790013
3469  2023-11-30 13:42:18.838709
3470  2023-11-30 13:42:18.884846
3471  2023-11-30 13:42:18.915892
3472  2023-11-30 13:42:18.963707
3473  2023-11-30 13:42:19.007857
3474  2023-11-30 13:42:19.039526
3475  2023-11-30 13:42:19.085974
3476  2023-11-30 13:42:19.133796
3477  2023-11-30 13:42:19.164001
3478  2023-11-30 13:42:19.209934
3479  2023-11-30 13:42:19.256453
3480  2023-11-30 13:42:19.288373
3481  2023-11-30 13:42:19.335275
3482  2023-11-30 13:42:19.383047
3483  2023-11-30 13:42:19.413790
3484  2023-11-30 13:42:19.459952
3485  2023-11-30 13:42:19.507670
3486  2023-11-30 13:42:19.540439
3487  2023-11-30 13:42:19.584250
3488  2023-11-30 13:42:19.630600
3489  2023-11-30 13:42:19.676520
3490  2023-11-30 13:42:19.708544
3491  2023-11-30 13:42:19.755818
3492  2023-11-30 13:42:19.802277
3493  2023-11-30 13:42:19.833279
3494  2023-11-30 13:42:19.879739
3495  2023-11-30 13:42:19.927004
3496  2023-11-30 13:42:19.957988
3497  2023-11-30 13:42:20.003757
3498  2023-11-30 13:42:20.051851
3499  2023-11-30 13:42:20.082764
3500  2023-11-30 13:42:20.131566
3501  2023-11-30 13:42:20.178662
3502  2023-11-30 13:42:20.207676
3503  2023-11-30 13:42:20.254139
3504  2023-11-30 13:42:20.301012
3505  2023-11-30 13:42:20.406555
3506  2023-11-30 13:42:20.427495
3507  2023-11-30 13:42:20.457704
3508  2023-11-30 13:42:20.504125
3509  2023-11-30 13:42:20.551366
3510  2023-11-30 13:42:20.583226
3511  2023-11-30 13:42:20.630065
3512  2023-11-30 13:42:20.675740
3513  2023-11-30 13:42:20.706725
3514  2023-11-30 13:42:20.753966
3515  2023-11-30 13:42:20.799509
3516  2023-11-30 13:42:20.829723
3517  2023-11-30 13:42:20.875500
3518  2023-11-30 13:42:20.923179
3519  2023-11-30 13:42:20.953825
3520  2023-11-30 13:42:20.999833
3521  2023-11-30 13:42:21.047843
3522  2023-11-30 13:42:21.093848
3523  2023-11-30 13:42:21.125772
3524  2023-11-30 13:42:21.172708
3525  2023-11-30 13:42:21.204668
3526  2023-11-30 13:42:21.251553
3527  2023-11-30 13:42:21.298753
3528  2023-11-30 13:42:21.329680
3529  2023-11-30 13:42:21.376514
3530  2023-11-30 13:42:21.429407
3531  2023-11-30 13:42:21.454345
3532  2023-11-30 13:42:21.500872
3533  2023-11-30 13:42:21.547494
3534  2023-11-30 13:42:21.593329
3535  2023-11-30 13:42:21.624747
3536  2023-11-30 13:42:21.672571
3537  2023-11-30 13:42:21.704480
3538  2023-11-30 13:42:21.750455
3539  2023-11-30 13:42:21.797653
3540  2023-11-30 13:42:21.843444
3541  2023-11-30 13:42:21.876319
3542  2023-11-30 13:42:21.921325
3543  2023-11-30 13:42:21.970184
3544  2023-11-30 13:42:22.001743
3545  2023-11-30 13:42:22.046394
3546  2023-11-30 13:42:22.093503
3547  2023-11-30 13:42:22.124853
3548  2023-11-30 13:42:22.171360
3549  2023-11-30 13:42:22.218519
3550  2023-11-30 13:42:22.249682
3551  2023-11-30 13:42:22.295994
3552  2023-11-30 13:42:22.342587
3553  2023-11-30 13:42:22.374045
3554  2023-11-30 13:42:22.420441
3555  2023-11-30 13:42:22.510387
3556  2023-11-30 13:42:22.545745
3557  2023-11-30 13:42:22.592764
3558  2023-11-30 13:42:22.624813
3559  2023-11-30 13:42:22.672662
3560  2023-11-30 13:42:22.704788
3561  2023-11-30 13:42:22.753335
