
1  2023-10-18 12:56:12.901785
2  2023-10-18 12:56:12.933699
3  2023-10-18 12:56:12.965609
4  2023-10-18 12:56:12.997486
5  2023-10-18 12:56:13.030452
6  2023-10-18 12:56:13.061317
7  2023-10-18 12:56:13.094254
8  2023-10-18 12:56:13.126172
9  2023-10-18 12:56:13.158093
10  2023-10-18 12:56:13.190022
11  2023-10-18 12:56:13.237874
12  2023-10-18 12:56:13.269790
13  2023-10-18 12:56:13.301709
14  2023-10-18 12:56:13.333621
15  2023-10-18 12:56:13.365543
16  2023-10-18 12:56:13.397475
17  2023-10-18 12:56:13.430370
18  2023-10-18 12:56:13.462281
19  2023-10-18 12:56:13.494201
20  2023-10-18 12:56:13.526116
21  2023-10-18 12:56:13.557987
22  2023-10-18 12:56:13.589947
23  2023-10-18 12:56:13.637810
24  2023-10-18 12:56:13.669729
25  2023-10-18 12:56:13.701639
26  2023-10-18 12:56:13.733550
27  2023-10-18 12:56:13.765470
28  2023-10-18 12:56:13.798396
29  2023-10-18 12:56:13.830259
30  2023-10-18 12:56:13.862207
31  2023-10-18 12:56:13.894133
32  2023-10-18 12:56:13.926036
33  2023-10-18 12:56:13.957917
34  2023-10-18 12:56:13.989831
35  2023-10-18 12:56:14.037704
36  2023-10-18 12:56:14.069618
37  2023-10-18 12:56:14.102531
38  2023-10-18 12:56:14.134447
39  2023-10-18 12:56:14.165414
40  2023-10-18 12:56:14.198306
41  2023-10-18 12:56:14.230220
42  2023-10-18 12:56:14.262105
43  2023-10-18 12:56:14.294067
44  2023-10-18 12:56:14.325933
45  2023-10-18 12:56:14.357883
46  2023-10-18 12:56:14.389762
47  2023-10-18 12:56:14.437675
48  2023-10-18 12:56:14.469586
49  2023-10-18 12:56:14.501498
50  2023-10-18 12:56:14.533404
51  2023-10-18 12:56:14.565342
52  2023-10-18 12:56:14.598248
53  2023-10-18 12:56:14.630155
54  2023-10-18 12:56:14.662082
55  2023-10-18 12:56:14.693984
56  2023-10-18 12:56:14.725906
57  2023-10-18 12:56:14.757783
58  2023-10-18 12:56:14.789743
59  2023-10-18 12:56:14.837598
60  2023-10-18 12:56:14.869505
61  2023-10-18 12:56:14.901430
62  2023-10-18 12:56:14.933350
63  2023-10-18 12:56:14.966247
64  2023-10-18 12:56:14.998180
65  2023-10-18 12:56:15.030049
66  2023-10-18 12:56:15.062002
67  2023-10-18 12:56:15.093909
68  2023-10-18 12:56:15.125836
69  2023-10-18 12:56:15.157754
70  2023-10-18 12:56:15.189659
71  2023-10-18 12:56:15.237551
72  2023-10-18 12:56:15.269443
73  2023-10-18 12:56:15.302355
74  2023-10-18 12:56:15.334269
75  2023-10-18 12:56:15.366199
76  2023-10-18 12:56:15.398095
77  2023-10-18 12:56:15.430017
78  2023-10-18 12:56:15.461934
79  2023-10-18 12:56:15.493837
80  2023-10-18 12:56:15.525792
81  2023-10-18 12:56:15.557671
82  2023-10-18 12:56:15.605549
83  2023-10-18 12:56:15.637465
84  2023-10-18 12:56:15.669367
85  2023-10-18 12:56:15.702301
86  2023-10-18 12:56:15.734217
87  2023-10-18 12:56:15.766081
88  2023-10-18 12:56:15.798029
89  2023-10-18 12:56:15.829948
90  2023-10-18 12:56:15.861870
91  2023-10-18 12:56:15.893784
92  2023-10-18 12:56:15.925692
93  2023-10-18 12:56:15.957602
94  2023-10-18 12:56:16.006474
95  2023-10-18 12:56:16.038381
96  2023-10-18 12:56:16.069270
97  2023-10-18 12:56:16.102186
98  2023-10-18 12:56:16.134148
99  2023-10-18 12:56:16.166037
100  2023-10-18 12:56:16.197969
101  2023-10-18 12:56:16.229890
102  2023-10-18 12:56:16.261813
103  2023-10-18 12:56:16.293715
104  2023-10-18 12:56:16.325613
105  2023-10-18 12:56:16.357532
106  2023-10-18 12:56:16.405372
107  2023-10-18 12:56:16.673654
108  2023-10-18 12:56:16.693604
109  2023-10-18 12:56:16.725514
110  2023-10-18 12:56:16.757430
111  2023-10-18 12:56:16.806298
112  2023-10-18 12:56:16.838239
113  2023-10-18 12:56:16.870167
114  2023-10-18 12:56:16.902074
115  2023-10-18 12:56:16.933991
116  2023-10-18 12:56:16.965915
117  2023-10-18 12:56:16.997816
118  2023-10-18 12:56:17.029746
119  2023-10-18 12:56:17.061654
120  2023-10-18 12:56:17.093564
121  2023-10-18 12:56:17.125477
122  2023-10-18 12:56:17.157359
123  2023-10-18 12:56:17.205262
124  2023-10-18 12:56:17.238174
125  2023-10-18 12:56:17.270110
126  2023-10-18 12:56:17.302033
127  2023-10-18 12:56:17.333922
128  2023-10-18 12:56:17.365838
129  2023-10-18 12:56:17.397771
130  2023-10-18 12:56:17.429663
131  2023-10-18 12:56:17.461593
132  2023-10-18 12:56:17.493512
133  2023-10-18 12:56:17.525403
134  2023-10-18 12:56:17.558353
135  2023-10-18 12:56:17.606201
136  2023-10-18 12:56:17.638125
137  2023-10-18 12:56:17.670041
138  2023-10-18 12:56:17.701902
139  2023-10-18 12:56:17.733817
140  2023-10-18 12:56:17.765775
141  2023-10-18 12:56:17.797697
142  2023-10-18 12:56:17.829596
143  2023-10-18 12:56:17.861525
144  2023-10-18 12:56:17.893429
145  2023-10-18 12:56:17.925346
146  2023-10-18 12:56:17.958263
147  2023-10-18 12:56:18.006125
148  2023-10-18 12:56:18.038038
149  2023-10-18 12:56:18.069962
150  2023-10-18 12:56:18.101879
151  2023-10-18 12:56:18.133788
152  2023-10-18 12:56:18.165717
153  2023-10-18 12:56:18.197628
154  2023-10-18 12:56:18.229529
155  2023-10-18 12:56:18.262405
156  2023-10-18 12:56:18.294320
157  2023-10-18 12:56:18.326268
158  2023-10-18 12:56:18.358195
159  2023-10-18 12:56:18.406020
160  2023-10-18 12:56:18.437975
161  2023-10-18 12:56:18.469897
162  2023-10-18 12:56:18.501802
163  2023-10-18 12:56:18.533705
164  2023-10-18 12:56:18.565620
165  2023-10-18 12:56:18.597539
166  2023-10-18 12:56:18.629454
167  2023-10-18 12:56:18.661374
168  2023-10-18 12:56:18.693297
169  2023-10-18 12:56:18.726190
170  2023-10-18 12:56:18.758079
171  2023-10-18 12:56:18.805950
172  2023-10-18 12:56:18.837865
173  2023-10-18 12:56:18.869814
174  2023-10-18 12:56:18.901729
175  2023-10-18 12:56:18.933644
176  2023-10-18 12:56:18.965561
177  2023-10-18 12:56:18.997463
178  2023-10-18 12:56:19.029387
179  2023-10-18 12:56:19.061305
180  2023-10-18 12:56:19.094225
181  2023-10-18 12:56:19.126136
182  2023-10-18 12:56:19.174010
183  2023-10-18 12:56:19.205914
184  2023-10-18 12:56:19.237795
185  2023-10-18 12:56:19.269755
186  2023-10-18 12:56:19.301678
187  2023-10-18 12:56:19.333584
188  2023-10-18 12:56:19.365454
189  2023-10-18 12:56:19.397422
190  2023-10-18 12:56:19.429315
191  2023-10-18 12:56:19.462232
192  2023-10-18 12:56:19.494142
193  2023-10-18 12:56:19.526058
194  2023-10-18 12:56:19.573895
195  2023-10-18 12:56:19.605848
196  2023-10-18 12:56:19.637724
197  2023-10-18 12:56:19.669638
198  2023-10-18 12:56:19.701592
199  2023-10-18 12:56:19.733504
200  2023-10-18 12:56:19.765382
201  2023-10-18 12:56:19.798297
202  2023-10-18 12:56:19.830211
203  2023-10-18 12:56:19.862175
204  2023-10-18 12:56:19.894040
205  2023-10-18 12:56:19.925954
206  2023-10-18 12:56:19.973825
207  2023-10-18 12:56:20.005792
208  2023-10-18 12:56:20.037654
209  2023-10-18 12:56:20.069569
210  2023-10-18 12:56:20.101510
211  2023-10-18 12:56:20.133435
212  2023-10-18 12:56:20.165350
213  2023-10-18 12:56:20.197261
214  2023-10-18 12:56:20.230173
215  2023-10-18 12:56:20.262055
216  2023-10-18 12:56:20.293968
217  2023-10-18 12:56:20.325925
218  2023-10-18 12:56:20.373755
219  2023-10-18 12:56:20.405671
220  2023-10-18 12:56:20.437585
221  2023-10-18 12:56:20.469500
222  2023-10-18 12:56:20.501414
223  2023-10-18 12:56:20.533328
224  2023-10-18 12:56:20.565243
225  2023-10-18 12:56:20.598155
226  2023-10-18 12:56:20.630070
227  2023-10-18 12:56:20.662036
228  2023-10-18 12:56:20.693928
229  2023-10-18 12:56:20.725850
230  2023-10-18 12:56:20.773722
231  2023-10-18 12:56:20.805600
232  2023-10-18 12:56:20.837515
233  2023-10-18 12:56:20.869430
234  2023-10-18 12:56:20.901344
235  2023-10-18 12:56:20.933258
236  2023-10-18 12:56:20.966198
237  2023-10-18 12:56:20.998088
238  2023-10-18 12:56:21.030000
239  2023-10-18 12:56:21.061914
240  2023-10-18 12:56:21.093869
241  2023-10-18 12:56:21.125792
242  2023-10-18 12:56:21.173657
243  2023-10-18 12:56:21.205559
244  2023-10-18 12:56:21.237445
245  2023-10-18 12:56:21.269386
246  2023-10-18 12:56:21.302308
247  2023-10-18 12:56:21.334239
248  2023-10-18 12:56:21.366128
249  2023-10-18 12:56:21.398016
250  2023-10-18 12:56:21.429931
251  2023-10-18 12:56:21.461878
252  2023-10-18 12:56:21.493825
253  2023-10-18 12:56:21.525703
254  2023-10-18 12:56:21.573574
255  2023-10-18 12:56:21.605463
256  2023-10-18 12:56:21.637375
257  2023-10-18 12:56:21.669291
258  2023-10-18 12:56:21.702202
259  2023-10-18 12:56:21.734116
260  2023-10-18 12:56:21.766065
261  2023-10-18 12:56:21.797988
262  2023-10-18 12:56:21.829860
263  2023-10-18 12:56:21.861839
264  2023-10-18 12:56:21.893719
265  2023-10-18 12:56:21.925631
266  2023-10-18 12:56:21.973510
267  2023-10-18 12:56:22.005392
268  2023-10-18 12:56:22.505072
269  2023-10-18 12:56:22.533978
270  2023-10-18 12:56:22.565940
271  2023-10-18 12:56:22.597860
272  2023-10-18 12:56:22.629759
273  2023-10-18 12:56:22.661680
274  2023-10-18 12:56:22.693550
275  2023-10-18 12:56:22.725496
276  2023-10-18 12:56:22.773398
277  2023-10-18 12:56:22.806299
278  2023-10-18 12:56:22.838164
279  2023-10-18 12:56:22.870078
280  2023-10-18 12:56:22.901993
281  2023-10-18 12:56:22.933942
282  2023-10-18 12:56:22.965822
283  2023-10-18 12:56:22.997736
284  2023-10-18 12:56:23.029705
285  2023-10-18 12:56:23.061595
286  2023-10-18 12:56:23.093516
287  2023-10-18 12:56:23.142352
288  2023-10-18 12:56:23.174265
289  2023-10-18 12:56:23.206179
290  2023-10-18 12:56:23.238093
291  2023-10-18 12:56:23.270041
292  2023-10-18 12:56:23.301967
293  2023-10-18 12:56:23.333867
294  2023-10-18 12:56:23.365781
295  2023-10-18 12:56:23.397667
296  2023-10-18 12:56:23.429618
297  2023-10-18 12:56:23.461542
298  2023-10-18 12:56:23.493437
299  2023-10-18 12:56:23.542310
300  2023-10-18 12:56:23.574245
301  2023-10-18 12:56:23.606111
302  2023-10-18 12:56:23.638064
303  2023-10-18 12:56:23.669938
304  2023-10-18 12:56:23.701855
305  2023-10-18 12:56:23.733795
306  2023-10-18 12:56:23.765723
307  2023-10-18 12:56:23.797633
308  2023-10-18 12:56:23.829553
309  2023-10-18 12:56:23.862462
310  2023-10-18 12:56:23.893391
311  2023-10-18 12:56:23.942242
312  2023-10-18 12:56:23.974154
313  2023-10-18 12:56:24.006039
314  2023-10-18 12:56:24.037981
315  2023-10-18 12:56:24.069868
316  2023-10-18 12:56:24.101812
317  2023-10-18 12:56:24.133752
318  2023-10-18 12:56:24.165654
319  2023-10-18 12:56:24.197527
320  2023-10-18 12:56:24.229474
321  2023-10-18 12:56:24.262354
322  2023-10-18 12:56:24.294270
323  2023-10-18 12:56:24.342168
324  2023-10-18 12:56:24.374084
325  2023-10-18 12:56:24.405969
326  2023-10-18 12:56:24.437917
327  2023-10-18 12:56:24.469802
328  2023-10-18 12:56:24.501752
329  2023-10-18 12:56:24.533662
330  2023-10-18 12:56:24.565576
331  2023-10-18 12:56:24.597494
332  2023-10-18 12:56:24.629404
333  2023-10-18 12:56:24.662324
334  2023-10-18 12:56:24.694235
335  2023-10-18 12:56:24.742107
336  2023-10-18 12:56:24.774028
337  2023-10-18 12:56:24.805901
338  2023-10-18 12:56:24.837844
339  2023-10-18 12:56:24.869765
340  2023-10-18 12:56:24.901686
341  2023-10-18 12:56:24.933598
342  2023-10-18 12:56:24.966475
343  2023-10-18 12:56:24.997424
344  2023-10-18 12:56:25.029303
345  2023-10-18 12:56:25.062249
346  2023-10-18 12:56:25.094162
347  2023-10-18 12:56:25.142034
348  2023-10-18 12:56:25.173950
349  2023-10-18 12:56:25.205873
350  2023-10-18 12:56:25.237776
351  2023-10-18 12:56:25.269701
352  2023-10-18 12:56:25.301610
353  2023-10-18 12:56:25.333516
354  2023-10-18 12:56:25.366402
355  2023-10-18 12:56:25.398318
356  2023-10-18 12:56:25.430264
357  2023-10-18 12:56:25.462147
358  2023-10-18 12:56:25.494103
359  2023-10-18 12:56:25.541932
360  2023-10-18 12:56:25.573882
361  2023-10-18 12:56:25.605795
362  2023-10-18 12:56:25.637711
363  2023-10-18 12:56:25.669591
364  2023-10-18 12:56:25.701550
365  2023-10-18 12:56:25.733452
366  2023-10-18 12:56:25.765366
367  2023-10-18 12:56:25.798293
368  2023-10-18 12:56:25.830162
369  2023-10-18 12:56:25.862077
370  2023-10-18 12:56:25.894017
371  2023-10-18 12:56:25.941898
372  2023-10-18 12:56:25.973814
373  2023-10-18 12:56:26.005720
374  2023-10-18 12:56:26.037634
375  2023-10-18 12:56:26.069547
376  2023-10-18 12:56:26.101463
377  2023-10-18 12:56:26.133384
378  2023-10-18 12:56:26.166293
379  2023-10-18 12:56:26.198207
380  2023-10-18 12:56:26.230092
381  2023-10-18 12:56:26.262053
382  2023-10-18 12:56:26.293956
383  2023-10-18 12:56:26.341793
384  2023-10-18 12:56:26.373735
385  2023-10-18 12:56:26.405622
386  2023-10-18 12:56:26.437537
387  2023-10-18 12:56:26.469451
388  2023-10-18 12:56:26.501366
389  2023-10-18 12:56:26.533281
390  2023-10-18 12:56:26.565235
391  2023-10-18 12:56:26.598136
392  2023-10-18 12:56:26.630050
393  2023-10-18 12:56:26.661939
394  2023-10-18 12:56:26.693883
395  2023-10-18 12:56:26.741750
396  2023-10-18 12:56:26.773685
397  2023-10-18 12:56:26.805591
398  2023-10-18 12:56:26.837499
399  2023-10-18 12:56:26.869381
400  2023-10-18 12:56:26.901329
401  2023-10-18 12:56:26.933241
402  2023-10-18 12:56:26.966153
403  2023-10-18 12:56:26.998038
404  2023-10-18 12:56:27.029982
405  2023-10-18 12:56:27.061894
406  2023-10-18 12:56:27.109766
407  2023-10-18 12:56:27.141680
408  2023-10-18 12:56:27.173614
409  2023-10-18 12:56:27.205515
410  2023-10-18 12:56:27.237432
411  2023-10-18 12:56:27.269349
412  2023-10-18 12:56:27.302226
413  2023-10-18 12:56:27.334182
414  2023-10-18 12:56:27.366096
415  2023-10-18 12:56:27.397968
416  2023-10-18 12:56:27.429883
417  2023-10-18 12:56:27.461798
418  2023-10-18 12:56:27.509669
419  2023-10-18 12:56:27.541583
420  2023-10-18 12:56:27.573498
421  2023-10-18 12:56:27.605450
422  2023-10-18 12:56:27.638362
423  2023-10-18 12:56:27.670241
424  2023-10-18 12:56:27.702154
425  2023-10-18 12:56:27.734097
426  2023-10-18 12:56:27.766035
427  2023-10-18 12:56:27.797897
428  2023-10-18 12:56:27.829812
429  2023-10-18 12:56:27.861773
430  2023-10-18 12:56:27.909635
431  2023-10-18 12:56:27.941513
432  2023-10-18 12:56:27.973428
433  2023-10-18 12:56:28.005374
434  2023-10-18 12:56:28.037291
435  2023-10-18 12:56:28.070171
436  2023-10-18 12:56:28.102085
437  2023-10-18 12:56:28.706469
438  2023-10-18 12:56:28.711455
439  2023-10-18 12:56:28.742372
440  2023-10-18 12:56:28.773314
441  2023-10-18 12:56:28.806201
442  2023-10-18 12:56:28.838116
443  2023-10-18 12:56:28.870030
444  2023-10-18 12:56:28.901945
445  2023-10-18 12:56:28.933887
446  2023-10-18 12:56:28.965803
447  2023-10-18 12:56:28.997717
448  2023-10-18 12:56:29.029603
449  2023-10-18 12:56:29.061545
450  2023-10-18 12:56:29.109390
451  2023-10-18 12:56:29.141304
452  2023-10-18 12:56:29.174217
453  2023-10-18 12:56:29.206131
454  2023-10-18 12:56:29.238046
455  2023-10-18 12:56:29.269960
456  2023-10-18 12:56:29.301875
457  2023-10-18 12:56:29.333818
458  2023-10-18 12:56:29.365745
459  2023-10-18 12:56:29.397641
460  2023-10-18 12:56:29.429534
461  2023-10-18 12:56:29.461489
462  2023-10-18 12:56:29.509371
463  2023-10-18 12:56:29.541267
464  2023-10-18 12:56:29.574200
465  2023-10-18 12:56:29.606096
466  2023-10-18 12:56:29.638051
467  2023-10-18 12:56:29.669891
468  2023-10-18 12:56:29.701857
469  2023-10-18 12:56:29.733752
470  2023-10-18 12:56:29.765662
471  2023-10-18 12:56:29.797582
472  2023-10-18 12:56:29.830503
473  2023-10-18 12:56:29.861421
474  2023-10-18 12:56:29.910280
475  2023-10-18 12:56:29.942192
476  2023-10-18 12:56:29.974077
477  2023-10-18 12:56:30.005991
478  2023-10-18 12:56:30.037941
479  2023-10-18 12:56:30.069856
480  2023-10-18 12:56:30.101777
481  2023-10-18 12:56:30.133683
482  2023-10-18 12:56:30.165591
483  2023-10-18 12:56:30.197480
484  2023-10-18 12:56:30.229394
485  2023-10-18 12:56:30.262306
486  2023-10-18 12:56:30.310220
487  2023-10-18 12:56:30.342130
488  2023-10-18 12:56:30.374056
489  2023-10-18 12:56:30.405958
490  2023-10-18 12:56:30.437870
491  2023-10-18 12:56:30.469781
492  2023-10-18 12:56:30.501707
493  2023-10-18 12:56:30.533612
494  2023-10-18 12:56:30.565525
495  2023-10-18 12:56:30.597410
496  2023-10-18 12:56:30.629325
497  2023-10-18 12:56:30.678193
498  2023-10-18 12:56:30.710152
499  2023-10-18 12:56:30.742023
500  2023-10-18 12:56:30.773938
501  2023-10-18 12:56:30.805879
502  2023-10-18 12:56:30.837795
503  2023-10-18 12:56:30.869724
504  2023-10-18 12:56:30.901650
505  2023-10-18 12:56:30.933538
506  2023-10-18 12:56:30.965463
507  2023-10-18 12:56:30.998374
508  2023-10-18 12:56:31.029291
509  2023-10-18 12:56:31.078167
510  2023-10-18 12:56:31.110071
511  2023-10-18 12:56:31.141979
512  2023-10-18 12:56:31.173907
513  2023-10-18 12:56:31.205786
514  2023-10-18 12:56:31.237732
515  2023-10-18 12:56:31.269649
516  2023-10-18 12:56:31.301525
517  2023-10-18 12:56:31.333483
518  2023-10-18 12:56:31.365411
519  2023-10-18 12:56:31.397273
520  2023-10-18 12:56:31.430227
521  2023-10-18 12:56:31.478107
522  2023-10-18 12:56:31.510010
523  2023-10-18 12:56:31.541915
524  2023-10-18 12:56:31.573838
525  2023-10-18 12:56:31.605744
526  2023-10-18 12:56:31.637662
527  2023-10-18 12:56:31.669599
528  2023-10-18 12:56:31.701501
529  2023-10-18 12:56:31.733409
530  2023-10-18 12:56:31.765332
531  2023-10-18 12:56:31.798239
532  2023-10-18 12:56:31.830112
533  2023-10-18 12:56:31.878025
534  2023-10-18 12:56:31.909938
535  2023-10-18 12:56:31.941847
536  2023-10-18 12:56:31.973771
537  2023-10-18 12:56:32.005689
538  2023-10-18 12:56:32.037596
539  2023-10-18 12:56:32.069511
540  2023-10-18 12:56:32.101420
541  2023-10-18 12:56:32.133340
542  2023-10-18 12:56:32.166257
543  2023-10-18 12:56:32.198161
544  2023-10-18 12:56:32.230087
545  2023-10-18 12:56:32.277968
546  2023-10-18 12:56:32.309864
547  2023-10-18 12:56:32.341779
548  2023-10-18 12:56:32.373659
549  2023-10-18 12:56:32.405574
550  2023-10-18 12:56:32.437519
551  2023-10-18 12:56:32.470428
552  2023-10-18 12:56:32.502315
553  2023-10-18 12:56:32.534254
554  2023-10-18 12:56:32.566178
555  2023-10-18 12:56:32.598118
556  2023-10-18 12:56:32.630016
557  2023-10-18 12:56:32.677902
558  2023-10-18 12:56:32.710759
559  2023-10-18 12:56:32.741712
560  2023-10-18 12:56:32.773622
561  2023-10-18 12:56:32.806537
562  2023-10-18 12:56:32.838441
563  2023-10-18 12:56:32.869390
564  2023-10-18 12:56:32.901292
565  2023-10-18 12:56:32.934160
566  2023-10-18 12:56:32.966077
567  2023-10-18 12:56:32.998022
568  2023-10-18 12:56:33.029946
569  2023-10-18 12:56:33.077812
570  2023-10-18 12:56:33.109729
571  2023-10-18 12:56:33.141632
572  2023-10-18 12:56:33.173552
573  2023-10-18 12:56:33.205467
574  2023-10-18 12:56:33.237381
575  2023-10-18 12:56:33.269291
576  2023-10-18 12:56:33.302211
577  2023-10-18 12:56:33.334123
578  2023-10-18 12:56:33.366047
579  2023-10-18 12:56:33.397962
580  2023-10-18 12:56:33.429861
581  2023-10-18 12:56:33.477708
582  2023-10-18 12:56:33.509654
583  2023-10-18 12:56:33.541572
584  2023-10-18 12:56:33.573490
585  2023-10-18 12:56:33.605443
586  2023-10-18 12:56:33.638319
587  2023-10-18 12:56:33.670192
588  2023-10-18 12:56:34.102036
589  2023-10-18 12:56:34.107023
590  2023-10-18 12:56:34.133949
591  2023-10-18 12:56:34.165899
592  2023-10-18 12:56:34.197780
593  2023-10-18 12:56:34.229726
594  2023-10-18 12:56:34.277599
595  2023-10-18 12:56:34.309507
596  2023-10-18 12:56:34.341420
597  2023-10-18 12:56:34.374343
598  2023-10-18 12:56:34.406266
599  2023-10-18 12:56:34.438170
600  2023-10-18 12:56:34.470094
601  2023-10-18 12:56:34.502000
602  2023-10-18 12:56:34.533880
603  2023-10-18 12:56:34.565793
604  2023-10-18 12:56:34.597755
605  2023-10-18 12:56:34.645629
606  2023-10-18 12:56:34.677522
607  2023-10-18 12:56:34.709447
608  2023-10-18 12:56:34.741362
609  2023-10-18 12:56:34.774278
610  2023-10-18 12:56:34.806194
611  2023-10-18 12:56:34.838119
612  2023-10-18 12:56:34.869984
613  2023-10-18 12:56:34.901932
614  2023-10-18 12:56:34.933845
615  2023-10-18 12:56:34.965783
616  2023-10-18 12:56:34.997699
617  2023-10-18 12:56:35.045555
618  2023-10-18 12:56:35.077426
619  2023-10-18 12:56:35.109343
620  2023-10-18 12:56:35.141296
621  2023-10-18 12:56:35.174240
622  2023-10-18 12:56:35.206116
623  2023-10-18 12:56:35.238032
624  2023-10-18 12:56:35.269938
625  2023-10-18 12:56:35.301868
626  2023-10-18 12:56:35.333780
627  2023-10-18 12:56:35.365711
628  2023-10-18 12:56:35.397614
629  2023-10-18 12:56:35.445473
630  2023-10-18 12:56:35.477396
631  2023-10-18 12:56:35.509303
632  2023-10-18 12:56:35.542190
633  2023-10-18 12:56:35.574138
634  2023-10-18 12:56:35.606081
635  2023-10-18 12:56:35.637927
636  2023-10-18 12:56:35.669880
637  2023-10-18 12:56:35.701790
638  2023-10-18 12:56:35.733711
639  2023-10-18 12:56:35.765622
640  2023-10-18 12:56:35.797547
641  2023-10-18 12:56:35.846369
642  2023-10-18 12:56:35.878284
643  2023-10-18 12:56:35.910239
644  2023-10-18 12:56:35.942149
645  2023-10-18 12:56:35.974062
646  2023-10-18 12:56:36.005980
647  2023-10-18 12:56:36.037904
648  2023-10-18 12:56:36.069805
649  2023-10-18 12:56:36.101735
650  2023-10-18 12:56:36.133601
651  2023-10-18 12:56:36.165516
652  2023-10-18 12:56:36.197464
653  2023-10-18 12:56:36.246301
654  2023-10-18 12:56:36.277249
655  2023-10-18 12:56:36.310170
656  2023-10-18 12:56:36.342069
657  2023-10-18 12:56:36.374000
658  2023-10-18 12:56:36.405908
659  2023-10-18 12:56:36.437825
660  2023-10-18 12:56:36.469760
661  2023-10-18 12:56:36.501653
662  2023-10-18 12:56:36.533563
663  2023-10-18 12:56:36.565500
664  2023-10-18 12:56:36.597390
665  2023-10-18 12:56:36.645260
666  2023-10-18 12:56:36.678148
667  2023-10-18 12:56:36.710060
668  2023-10-18 12:56:36.742015
669  2023-10-18 12:56:36.773923
670  2023-10-18 12:56:36.805839
671  2023-10-18 12:56:36.837748
672  2023-10-18 12:56:36.869678
673  2023-10-18 12:56:36.901573
674  2023-10-18 12:56:36.933487
675  2023-10-18 12:56:36.965412
676  2023-10-18 12:56:36.997340
677  2023-10-18 12:56:37.046194
678  2023-10-18 12:56:37.078120
679  2023-10-18 12:56:37.110033
680  2023-10-18 12:56:37.141941
681  2023-10-18 12:56:37.173850
682  2023-10-18 12:56:37.205770
683  2023-10-18 12:56:37.237648
684  2023-10-18 12:56:37.269596
685  2023-10-18 12:56:37.301510
686  2023-10-18 12:56:37.333437
687  2023-10-18 12:56:37.365349
688  2023-10-18 12:56:37.397274
689  2023-10-18 12:56:37.446123
690  2023-10-18 12:56:37.478038
691  2023-10-18 12:56:37.509963
692  2023-10-18 12:56:37.541869
693  2023-10-18 12:56:37.573795
694  2023-10-18 12:56:37.605729
695  2023-10-18 12:56:37.637620
696  2023-10-18 12:56:37.669558
697  2023-10-18 12:56:37.701440
698  2023-10-18 12:56:37.733376
699  2023-10-18 12:56:37.766234
700  2023-10-18 12:56:37.798148
701  2023-10-18 12:56:37.846019
702  2023-10-18 12:56:37.877971
703  2023-10-18 12:56:37.909884
704  2023-10-18 12:56:37.941819
705  2023-10-18 12:56:37.973712
706  2023-10-18 12:56:38.005642
707  2023-10-18 12:56:38.037561
708  2023-10-18 12:56:38.069461
709  2023-10-18 12:56:38.101371
710  2023-10-18 12:56:38.134251
711  2023-10-18 12:56:38.166209
712  2023-10-18 12:56:38.214069
713  2023-10-18 12:56:38.245978
714  2023-10-18 12:56:38.277898
715  2023-10-18 12:56:38.309780
716  2023-10-18 12:56:38.341696
717  2023-10-18 12:56:38.373648
718  2023-10-18 12:56:38.405560
719  2023-10-18 12:56:38.437494
720  2023-10-18 12:56:38.469399
721  2023-10-18 12:56:38.501315
722  2023-10-18 12:56:38.533227
723  2023-10-18 12:56:38.566134
724  2023-10-18 12:56:38.614009
725  2023-10-18 12:56:38.645910
726  2023-10-18 12:56:38.677838
727  2023-10-18 12:56:38.709743
728  2023-10-18 12:56:38.741662
729  2023-10-18 12:56:38.773588
730  2023-10-18 12:56:38.805480
731  2023-10-18 12:56:38.837397
732  2023-10-18 12:56:38.870281
733  2023-10-18 12:56:38.902195
734  2023-10-18 12:56:38.934143
735  2023-10-18 12:56:38.966064
736  2023-10-18 12:56:39.013949
737  2023-10-18 12:56:39.045859
738  2023-10-18 12:56:39.077759
739  2023-10-18 12:56:39.109684
740  2023-10-18 12:56:39.141581
741  2023-10-18 12:56:39.173495
742  2023-10-18 12:56:39.205425
743  2023-10-18 12:56:39.237332
744  2023-10-18 12:56:39.270210
745  2023-10-18 12:56:39.710034
746  2023-10-18 12:56:39.733971
747  2023-10-18 12:56:39.765921
748  2023-10-18 12:56:39.813787
749  2023-10-18 12:56:39.845673
750  2023-10-18 12:56:39.877618
751  2023-10-18 12:56:39.909499
752  2023-10-18 12:56:39.941414
753  2023-10-18 12:56:39.973331
754  2023-10-18 12:56:40.006287
755  2023-10-18 12:56:40.038158
756  2023-10-18 12:56:40.070070
757  2023-10-18 12:56:40.102014
758  2023-10-18 12:56:40.133942
759  2023-10-18 12:56:40.165814
760  2023-10-18 12:56:40.213688
761  2023-10-18 12:56:40.245632
762  2023-10-18 12:56:40.277515
763  2023-10-18 12:56:40.309469
764  2023-10-18 12:56:40.341371
765  2023-10-18 12:56:40.374256
766  2023-10-18 12:56:40.406171
767  2023-10-18 12:56:40.438085
768  2023-10-18 12:56:40.470001
769  2023-10-18 12:56:40.501916
770  2023-10-18 12:56:40.533868
771  2023-10-18 12:56:40.565745
772  2023-10-18 12:56:40.613646
773  2023-10-18 12:56:40.645567
774  2023-10-18 12:56:40.677490
775  2023-10-18 12:56:40.709360
776  2023-10-18 12:56:40.741274
777  2023-10-18 12:56:40.774186
778  2023-10-18 12:56:40.806129
779  2023-10-18 12:56:40.838018
780  2023-10-18 12:56:40.869930
781  2023-10-18 12:56:40.901845
782  2023-10-18 12:56:40.933759
783  2023-10-18 12:56:40.965674
784  2023-10-18 12:56:41.013574
785  2023-10-18 12:56:41.045495
786  2023-10-18 12:56:41.077375
787  2023-10-18 12:56:41.109290
788  2023-10-18 12:56:41.142202
789  2023-10-18 12:56:41.174116
790  2023-10-18 12:56:41.206031
791  2023-10-18 12:56:41.237946
792  2023-10-18 12:56:41.269861
793  2023-10-18 12:56:41.301775
794  2023-10-18 12:56:41.333690
795  2023-10-18 12:56:41.365604
796  2023-10-18 12:56:41.413506
797  2023-10-18 12:56:41.445417
798  2023-10-18 12:56:41.477305
799  2023-10-18 12:56:41.510218
800  2023-10-18 12:56:41.542132
801  2023-10-18 12:56:41.574047
802  2023-10-18 12:56:41.605962
803  2023-10-18 12:56:41.637876
804  2023-10-18 12:56:41.669792
805  2023-10-18 12:56:41.701710
806  2023-10-18 12:56:41.733620
807  2023-10-18 12:56:41.765535
808  2023-10-18 12:56:41.813408
809  2023-10-18 12:56:41.846371
810  2023-10-18 12:56:41.878263
811  2023-10-18 12:56:41.910148
812  2023-10-18 12:56:41.942062
813  2023-10-18 12:56:41.974007
814  2023-10-18 12:56:42.005893
815  2023-10-18 12:56:42.037806
816  2023-10-18 12:56:42.069721
817  2023-10-18 12:56:42.101663
818  2023-10-18 12:56:42.133581
819  2023-10-18 12:56:42.181467
820  2023-10-18 12:56:42.213371
821  2023-10-18 12:56:42.245280
822  2023-10-18 12:56:42.278164
823  2023-10-18 12:56:42.310078
824  2023-10-18 12:56:42.341992
825  2023-10-18 12:56:42.373907
826  2023-10-18 12:56:42.405822
827  2023-10-18 12:56:42.437736
828  2023-10-18 12:56:42.469651
829  2023-10-18 12:56:42.501566
830  2023-10-18 12:56:42.533481
831  2023-10-18 12:56:42.581385
832  2023-10-18 12:56:42.613302
833  2023-10-18 12:56:42.646212
834  2023-10-18 12:56:42.678094
835  2023-10-18 12:56:42.710010
836  2023-10-18 12:56:42.741923
837  2023-10-18 12:56:42.773841
838  2023-10-18 12:56:42.805752
839  2023-10-18 12:56:42.837667
840  2023-10-18 12:56:42.869581
841  2023-10-18 12:56:42.901496
842  2023-10-18 12:56:42.933411
843  2023-10-18 12:56:42.981322
844  2023-10-18 12:56:43.013239
845  2023-10-18 12:56:43.046146
846  2023-10-18 12:56:43.078024
847  2023-10-18 12:56:43.109938
848  2023-10-18 12:56:43.141853
849  2023-10-18 12:56:43.173768
850  2023-10-18 12:56:43.205682
851  2023-10-18 12:56:43.237597
852  2023-10-18 12:56:43.269512
853  2023-10-18 12:56:43.301426
854  2023-10-18 12:56:43.333341
855  2023-10-18 12:56:43.382248
856  2023-10-18 12:56:43.414153
857  2023-10-18 12:56:43.446040
858  2023-10-18 12:56:43.477954
859  2023-10-18 12:56:43.509869
860  2023-10-18 12:56:43.541783
861  2023-10-18 12:56:43.573698
862  2023-10-18 12:56:43.605613
863  2023-10-18 12:56:43.637527
864  2023-10-18 12:56:43.669442
865  2023-10-18 12:56:43.701356
866  2023-10-18 12:56:43.733271
867  2023-10-18 12:56:43.782197
868  2023-10-18 12:56:43.814093
869  2023-10-18 12:56:43.845970
870  2023-10-18 12:56:43.877885
871  2023-10-18 12:56:43.909799
872  2023-10-18 12:56:43.941714
873  2023-10-18 12:56:43.973628
874  2023-10-18 12:56:44.006570
875  2023-10-18 12:56:44.037457
876  2023-10-18 12:56:44.069376
877  2023-10-18 12:56:44.102284
878  2023-10-18 12:56:44.134234
879  2023-10-18 12:56:44.182107
880  2023-10-18 12:56:44.214025
881  2023-10-18 12:56:44.245936
882  2023-10-18 12:56:44.277814
883  2023-10-18 12:56:44.309772
884  2023-10-18 12:56:44.341676
885  2023-10-18 12:56:44.373592
886  2023-10-18 12:56:44.405473
887  2023-10-18 12:56:44.437431
888  2023-10-18 12:56:44.469341
889  2023-10-18 12:56:44.502215
890  2023-10-18 12:56:44.534129
891  2023-10-18 12:56:44.582044
892  2023-10-18 12:56:44.613915
893  2023-10-18 12:56:44.645870
894  2023-10-18 12:56:44.677773
895  2023-10-18 12:56:44.709662
896  2023-10-18 12:56:44.741574
897  2023-10-18 12:56:44.773489
898  2023-10-18 12:56:44.805403
899  2023-10-18 12:56:44.837318
900  2023-10-18 12:56:44.870231
901  2023-10-18 12:56:44.902146
902  2023-10-18 12:56:44.934061
903  2023-10-18 12:56:44.981972
904  2023-10-18 12:56:45.013888
905  2023-10-18 12:56:45.045792
906  2023-10-18 12:56:45.077677
907  2023-10-18 12:56:45.109591
908  2023-10-18 12:56:45.141506
909  2023-10-18 12:56:45.173420
910  2023-10-18 12:56:45.205335
911  2023-10-18 12:56:45.238255
912  2023-10-18 12:56:45.270162
913  2023-10-18 12:56:45.302076
914  2023-10-18 12:56:45.333992
915  2023-10-18 12:56:45.718961
916  2023-10-18 12:56:45.749877
917  2023-10-18 12:56:45.781795
918  2023-10-18 12:56:45.813744
919  2023-10-18 12:56:45.845659
920  2023-10-18 12:56:45.877537
921  2023-10-18 12:56:45.909451
922  2023-10-18 12:56:45.941366
923  2023-10-18 12:56:45.973281
924  2023-10-18 12:56:46.006193
925  2023-10-18 12:56:46.038107
926  2023-10-18 12:56:46.070022
927  2023-10-18 12:56:46.101937
928  2023-10-18 12:56:46.149837
929  2023-10-18 12:56:46.181750
930  2023-10-18 12:56:46.213654
931  2023-10-18 12:56:46.245581
932  2023-10-18 12:56:46.277467
933  2023-10-18 12:56:46.309382
934  2023-10-18 12:56:46.341298
935  2023-10-18 12:56:46.373211
936  2023-10-18 12:56:46.406123
937  2023-10-18 12:56:46.438038
938  2023-10-18 12:56:46.469978
939  2023-10-18 12:56:46.501867
940  2023-10-18 12:56:46.549740
941  2023-10-18 12:56:46.581695
942  2023-10-18 12:56:46.613569
943  2023-10-18 12:56:46.645508
944  2023-10-18 12:56:46.677435
945  2023-10-18 12:56:46.709312
946  2023-10-18 12:56:46.741227
947  2023-10-18 12:56:46.774139
948  2023-10-18 12:56:46.806079
949  2023-10-18 12:56:46.837968
950  2023-10-18 12:56:46.869883
951  2023-10-18 12:56:46.901797
952  2023-10-18 12:56:46.949721
953  2023-10-18 12:56:46.981610
954  2023-10-18 12:56:47.013533
955  2023-10-18 12:56:47.045414
956  2023-10-18 12:56:47.077328
957  2023-10-18 12:56:47.109242
958  2023-10-18 12:56:47.142154
959  2023-10-18 12:56:47.174069
960  2023-10-18 12:56:47.205983
961  2023-10-18 12:56:47.237898
962  2023-10-18 12:56:47.269813
963  2023-10-18 12:56:47.301727
964  2023-10-18 12:56:47.349631
965  2023-10-18 12:56:47.381515
966  2023-10-18 12:56:47.413454
967  2023-10-18 12:56:47.446376
968  2023-10-18 12:56:47.477258
969  2023-10-18 12:56:47.510170
970  2023-10-18 12:56:47.542085
971  2023-10-18 12:56:47.573999
972  2023-10-18 12:56:47.605915
973  2023-10-18 12:56:47.637828
974  2023-10-18 12:56:47.669743
975  2023-10-18 12:56:47.701658
976  2023-10-18 12:56:47.749558
977  2023-10-18 12:56:47.781473
978  2023-10-18 12:56:47.813359
979  2023-10-18 12:56:47.846271
980  2023-10-18 12:56:47.878189
981  2023-10-18 12:56:47.910101
982  2023-10-18 12:56:47.942019
983  2023-10-18 12:56:47.973930
984  2023-10-18 12:56:48.005846
985  2023-10-18 12:56:48.037759
986  2023-10-18 12:56:48.069674
987  2023-10-18 12:56:48.101589
988  2023-10-18 12:56:48.149489
989  2023-10-18 12:56:48.182372
990  2023-10-18 12:56:48.213288
991  2023-10-18 12:56:48.246235
992  2023-10-18 12:56:48.278116
993  2023-10-18 12:56:48.310056
994  2023-10-18 12:56:48.341982
995  2023-10-18 12:56:48.373860
996  2023-10-18 12:56:48.405775
997  2023-10-18 12:56:48.437690
998  2023-10-18 12:56:48.469638
999  2023-10-18 12:56:48.501521
1000  2023-10-18 12:56:48.549391
1001  2023-10-18 12:56:48.581340
1002  2023-10-18 12:56:48.613280
1003  2023-10-18 12:56:48.646131
1004  2023-10-18 12:56:48.678094
1005  2023-10-18 12:56:48.709961
1006  2023-10-18 12:56:48.741875
1007  2023-10-18 12:56:48.773790
1008  2023-10-18 12:56:48.805704
1009  2023-10-18 12:56:48.837619
1010  2023-10-18 12:56:48.869534
1011  2023-10-18 12:56:48.901448
1012  2023-10-18 12:56:48.949358
1013  2023-10-18 12:56:48.981262
1014  2023-10-18 12:56:49.014176
1015  2023-10-18 12:56:49.046090
1016  2023-10-18 12:56:49.077976
1017  2023-10-18 12:56:49.109891
1018  2023-10-18 12:56:49.141805
1019  2023-10-18 12:56:49.173721
1020  2023-10-18 12:56:49.205635
1021  2023-10-18 12:56:49.237549
1022  2023-10-18 12:56:49.269464
1023  2023-10-18 12:56:49.301378
1024  2023-10-18 12:56:49.349278
1025  2023-10-18 12:56:49.382190
1026  2023-10-18 12:56:49.414111
1027  2023-10-18 12:56:49.446028
1028  2023-10-18 12:56:49.477907
1029  2023-10-18 12:56:49.509822
1030  2023-10-18 12:56:49.541737
1031  2023-10-18 12:56:49.573651
1032  2023-10-18 12:56:49.605566
1033  2023-10-18 12:56:49.637481
1034  2023-10-18 12:56:49.670392
1035  2023-10-18 12:56:49.718263
1036  2023-10-18 12:56:49.750226
1037  2023-10-18 12:56:49.782126
1038  2023-10-18 12:56:49.814008
1039  2023-10-18 12:56:49.845958
1040  2023-10-18 12:56:49.877837
1041  2023-10-18 12:56:49.909751
1042  2023-10-18 12:56:49.941666
1043  2023-10-18 12:56:49.973608
1044  2023-10-18 12:56:50.005543
1045  2023-10-18 12:56:50.037410
1046  2023-10-18 12:56:50.069326
1047  2023-10-18 12:56:50.117237
1048  2023-10-18 12:56:50.150134
1049  2023-10-18 12:56:50.182059
1050  2023-10-18 12:56:50.213968
1051  2023-10-18 12:56:50.245853
1052  2023-10-18 12:56:50.277767
1053  2023-10-18 12:56:50.309707
1054  2023-10-18 12:56:50.341632
1055  2023-10-18 12:56:50.373561
1056  2023-10-18 12:56:50.405463
1057  2023-10-18 12:56:50.437379
1058  2023-10-18 12:56:50.469305
1059  2023-10-18 12:56:50.518151
1060  2023-10-18 12:56:50.550068
1061  2023-10-18 12:56:50.581992
1062  2023-10-18 12:56:50.613911
1063  2023-10-18 12:56:50.645824
1064  2023-10-18 12:56:50.677740
1065  2023-10-18 12:56:50.709661
1066  2023-10-18 12:56:50.741576
1067  2023-10-18 12:56:50.773480
1068  2023-10-18 12:56:50.805356
1069  2023-10-18 12:56:50.837313
1070  2023-10-18 12:56:50.870224
1071  2023-10-18 12:56:50.918053
1072  2023-10-18 12:56:51.069675
1073  2023-10-18 12:56:51.078626
1074  2023-10-18 12:56:51.109577
1075  2023-10-18 12:56:51.141497
1076  2023-10-18 12:56:51.173405
1077  2023-10-18 12:56:51.205326
1078  2023-10-18 12:56:51.238230
1079  2023-10-18 12:56:51.270163
1080  2023-10-18 12:56:51.318026
1081  2023-10-18 12:56:51.349901
1082  2023-10-18 12:56:51.381813
1083  2023-10-18 12:56:51.413728
1084  2023-10-18 12:56:51.445642
1085  2023-10-18 12:56:51.477557
1086  2023-10-18 12:56:51.509471
1087  2023-10-18 12:56:51.541387
1088  2023-10-18 12:56:51.573353
1089  2023-10-18 12:56:51.605253
1090  2023-10-18 12:56:51.638157
1091  2023-10-18 12:56:51.670069
1092  2023-10-18 12:56:51.717942
1093  2023-10-18 12:56:51.749857
1094  2023-10-18 12:56:51.781770
1095  2023-10-18 12:56:51.813687
1096  2023-10-18 12:56:51.845614
1097  2023-10-18 12:56:51.877489
1098  2023-10-18 12:56:51.909455
1099  2023-10-18 12:56:51.941355
1100  2023-10-18 12:56:51.973271
1101  2023-10-18 12:56:52.006177
1102  2023-10-18 12:56:52.038092
1103  2023-10-18 12:56:52.070005
1104  2023-10-18 12:56:52.117886
1105  2023-10-18 12:56:52.149792
1106  2023-10-18 12:56:52.181716
1107  2023-10-18 12:56:52.213617
1108  2023-10-18 12:56:52.245538
1109  2023-10-18 12:56:52.277474
1110  2023-10-18 12:56:52.310329
1111  2023-10-18 12:56:52.341291
1112  2023-10-18 12:56:52.374197
1113  2023-10-18 12:56:52.406075
1114  2023-10-18 12:56:52.437989
1115  2023-10-18 12:56:52.469942
1116  2023-10-18 12:56:52.517809
1117  2023-10-18 12:56:52.549689
1118  2023-10-18 12:56:52.581650
1119  2023-10-18 12:56:52.613548
1120  2023-10-18 12:56:52.645465
1121  2023-10-18 12:56:52.677376
1122  2023-10-18 12:56:52.710261
1123  2023-10-18 12:56:52.742176
1124  2023-10-18 12:56:52.774089
1125  2023-10-18 12:56:52.806044
1126  2023-10-18 12:56:52.837955
1127  2023-10-18 12:56:52.869881
1128  2023-10-18 12:56:52.918738
1129  2023-10-18 12:56:52.950644
1130  2023-10-18 12:56:52.982566
1131  2023-10-18 12:56:53.014447
1132  2023-10-18 12:56:53.046399
1133  2023-10-18 12:56:53.078275
1134  2023-10-18 12:56:53.110190
1135  2023-10-18 12:56:53.142146
1136  2023-10-18 12:56:53.174019
1137  2023-10-18 12:56:53.205960
1138  2023-10-18 12:56:53.237906
1139  2023-10-18 12:56:53.269804
1140  2023-10-18 12:56:53.318673
1141  2023-10-18 12:56:53.350576
1142  2023-10-18 12:56:53.382493
1143  2023-10-18 12:56:53.414404
1144  2023-10-18 12:56:53.446292
1145  2023-10-18 12:56:53.478234
1146  2023-10-18 12:56:53.510121
1147  2023-10-18 12:56:53.542071
1148  2023-10-18 12:56:53.573990
1149  2023-10-18 12:56:53.605901
1150  2023-10-18 12:56:53.637778
1151  2023-10-18 12:56:53.685693
1152  2023-10-18 12:56:53.717600
1153  2023-10-18 12:56:53.750510
1154  2023-10-18 12:56:53.782418
1155  2023-10-18 12:56:53.814307
1156  2023-10-18 12:56:53.846257
1157  2023-10-18 12:56:53.878163
1158  2023-10-18 12:56:53.910052
1159  2023-10-18 12:56:53.941964
1160  2023-10-18 12:56:53.973881
1161  2023-10-18 12:56:54.005794
1162  2023-10-18 12:56:54.037708
1163  2023-10-18 12:56:54.086620
1164  2023-10-18 12:56:54.117531
1165  2023-10-18 12:56:54.149428
1166  2023-10-18 12:56:54.182323
1167  2023-10-18 12:56:54.214237
1168  2023-10-18 12:56:54.246153
1169  2023-10-18 12:56:54.278099
1170  2023-10-18 12:56:54.309980
1171  2023-10-18 12:56:54.341931
1172  2023-10-18 12:56:54.373846
1173  2023-10-18 12:56:54.405767
1174  2023-10-18 12:56:54.437681
1175  2023-10-18 12:56:54.485540
1176  2023-10-18 12:56:54.517471
1177  2023-10-18 12:56:54.550386
1178  2023-10-18 12:56:54.582301
1179  2023-10-18 12:56:54.614200
1180  2023-10-18 12:56:54.646110
1181  2023-10-18 12:56:54.678026
1182  2023-10-18 12:56:54.709954
1183  2023-10-18 12:56:54.741825
1184  2023-10-18 12:56:54.773769
1185  2023-10-18 12:56:54.805690
1186  2023-10-18 12:56:54.837604
1187  2023-10-18 12:56:54.885442
1188  2023-10-18 12:56:54.917394
1189  2023-10-18 12:56:54.949271
1190  2023-10-18 12:56:54.981186
1191  2023-10-18 12:56:55.014135
1192  2023-10-18 12:56:55.046057
1193  2023-10-18 12:56:55.077957
1194  2023-10-18 12:56:55.109842
1195  2023-10-18 12:56:55.141757
1196  2023-10-18 12:56:55.173671
1197  2023-10-18 12:56:55.205585
1198  2023-10-18 12:56:55.237536
1199  2023-10-18 12:56:55.285405
1200  2023-10-18 12:56:55.317288
1201  2023-10-18 12:56:55.350198
1202  2023-10-18 12:56:55.382138
1203  2023-10-18 12:56:55.414055
1204  2023-10-18 12:56:55.445969
1205  2023-10-18 12:56:55.477895
1206  2023-10-18 12:56:55.510800
1207  2023-10-18 12:56:55.541686
1208  2023-10-18 12:56:55.573627
1209  2023-10-18 12:56:55.605544
1210  2023-10-18 12:56:55.638428
1211  2023-10-18 12:56:55.686326
1212  2023-10-18 12:56:55.718213
1213  2023-10-18 12:56:55.750129
1214  2023-10-18 12:56:55.782086
1215  2023-10-18 12:56:55.813958
1216  2023-10-18 12:56:55.845902
1217  2023-10-18 12:56:55.877819
1218  2023-10-18 12:56:55.909739
1219  2023-10-18 12:56:55.942648
1220  2023-10-18 12:56:55.973536
1221  2023-10-18 12:56:56.005471
1222  2023-10-18 12:56:56.038394
1223  2023-10-18 12:56:56.085274
1224  2023-10-18 12:56:56.118159
1225  2023-10-18 12:56:56.150059
1226  2023-10-18 12:56:56.182007
1227  2023-10-18 12:56:56.213935
1228  2023-10-18 12:56:56.245805
1229  2023-10-18 12:56:56.277717
1230  2023-10-18 12:56:56.309681
1231  2023-10-18 12:56:56.342576
1232  2023-10-18 12:56:56.373502
1233  2023-10-18 12:56:56.405404
1234  2023-10-18 12:56:56.438323
1235  2023-10-18 12:56:56.486164
1236  2023-10-18 12:56:56.557969
1237  2023-10-18 12:56:56.582938
1238  2023-10-18 12:56:56.613849
1239  2023-10-18 12:56:56.645735
1240  2023-10-18 12:56:56.677712
1241  2023-10-18 12:56:56.710559
1242  2023-10-18 12:56:56.741526
1243  2023-10-18 12:56:56.773430
1244  2023-10-18 12:56:56.805307
1245  2023-10-18 12:56:56.838251
1246  2023-10-18 12:56:56.886116
1247  2023-10-18 12:56:56.918007
1248  2023-10-18 12:56:56.949957
1249  2023-10-18 12:56:56.981866
1250  2023-10-18 12:56:57.013749
1251  2023-10-18 12:56:57.045664
1252  2023-10-18 12:56:57.077579
1253  2023-10-18 12:56:57.109531
1254  2023-10-18 12:56:57.141451
1255  2023-10-18 12:56:57.173373
1256  2023-10-18 12:56:57.205269
1257  2023-10-18 12:56:57.254141
1258  2023-10-18 12:56:57.286068
1259  2023-10-18 12:56:57.317935
1260  2023-10-18 12:56:57.349851
1261  2023-10-18 12:56:57.381801
1262  2023-10-18 12:56:57.413706
1263  2023-10-18 12:56:57.445594
1264  2023-10-18 12:56:57.477541
1265  2023-10-18 12:56:57.509464
1266  2023-10-18 12:56:57.541366
1267  2023-10-18 12:56:57.573298
1268  2023-10-18 12:56:57.605202
1269  2023-10-18 12:56:57.654079
1270  2023-10-18 12:56:57.685951
1271  2023-10-18 12:56:57.717915
1272  2023-10-18 12:56:57.749780
1273  2023-10-18 12:56:57.782734
1274  2023-10-18 12:56:57.813609
1275  2023-10-18 12:56:57.845524
1276  2023-10-18 12:56:57.878482
1277  2023-10-18 12:56:57.909355
1278  2023-10-18 12:56:57.941316
1279  2023-10-18 12:56:57.974180
1280  2023-10-18 12:56:58.006120
1281  2023-10-18 12:56:58.053997
1282  2023-10-18 12:56:58.085881
1283  2023-10-18 12:56:58.117826
1284  2023-10-18 12:56:58.149739
1285  2023-10-18 12:56:58.182665
1286  2023-10-18 12:56:58.214588
1287  2023-10-18 12:56:58.245493
1288  2023-10-18 12:56:58.277407
1289  2023-10-18 12:56:58.309316
1290  2023-10-18 12:56:58.342196
1291  2023-10-18 12:56:58.374110
1292  2023-10-18 12:56:58.406051
1293  2023-10-18 12:56:58.453896
1294  2023-10-18 12:56:58.485811
1295  2023-10-18 12:56:58.517759
1296  2023-10-18 12:56:58.549682
1297  2023-10-18 12:56:58.582591
1298  2023-10-18 12:56:58.613470
1299  2023-10-18 12:56:58.645385
1300  2023-10-18 12:56:58.677327
1301  2023-10-18 12:56:58.709213
1302  2023-10-18 12:56:58.742126
1303  2023-10-18 12:56:58.774040
1304  2023-10-18 12:56:58.805983
1305  2023-10-18 12:56:58.853855
1306  2023-10-18 12:56:58.885740
1307  2023-10-18 12:56:58.917704
1308  2023-10-18 12:56:58.949571
1309  2023-10-18 12:56:58.981518
1310  2023-10-18 12:56:59.013401
1311  2023-10-18 12:56:59.045315
1312  2023-10-18 12:56:59.078260
1313  2023-10-18 12:56:59.110186
1314  2023-10-18 12:56:59.142056
1315  2023-10-18 12:56:59.173971
1316  2023-10-18 12:56:59.205919
1317  2023-10-18 12:56:59.253757
1318  2023-10-18 12:56:59.285706
1319  2023-10-18 12:56:59.317586
1320  2023-10-18 12:56:59.349529
1321  2023-10-18 12:56:59.382439
1322  2023-10-18 12:56:59.413331
1323  2023-10-18 12:56:59.446277
1324  2023-10-18 12:56:59.478194
1325  2023-10-18 12:56:59.510111
1326  2023-10-18 12:56:59.542012
1327  2023-10-18 12:56:59.573901
1328  2023-10-18 12:56:59.605850
1329  2023-10-18 12:56:59.653742
1330  2023-10-18 12:56:59.685637
1331  2023-10-18 12:56:59.717521
1332  2023-10-18 12:56:59.749432
1333  2023-10-18 12:56:59.782343
1334  2023-10-18 12:56:59.814258
1335  2023-10-18 12:56:59.846218
1336  2023-10-18 12:56:59.878086
1337  2023-10-18 12:56:59.910032
1338  2023-10-18 12:56:59.941942
1339  2023-10-18 12:56:59.973869
1340  2023-10-18 12:57:00.005805
1341  2023-10-18 12:57:00.053663
1342  2023-10-18 12:57:00.085566
1343  2023-10-18 12:57:00.117490
1344  2023-10-18 12:57:00.150398
1345  2023-10-18 12:57:00.182307
1346  2023-10-18 12:57:00.214222
1347  2023-10-18 12:57:00.246131
1348  2023-10-18 12:57:00.278050
1349  2023-10-18 12:57:00.309961
1350  2023-10-18 12:57:00.341888
1351  2023-10-18 12:57:00.373792
1352  2023-10-18 12:57:00.405722
1353  2023-10-18 12:57:00.453592
1354  2023-10-18 12:57:00.485462
1355  2023-10-18 12:57:00.517426
1356  2023-10-18 12:57:00.550315
1357  2023-10-18 12:57:00.582225
1358  2023-10-18 12:57:00.614146
1359  2023-10-18 12:57:00.646034
1360  2023-10-18 12:57:00.677984
1361  2023-10-18 12:57:00.709897
1362  2023-10-18 12:57:00.741776
1363  2023-10-18 12:57:00.773737
1364  2023-10-18 12:57:00.805661
1365  2023-10-18 12:57:00.853516
1366  2023-10-18 12:57:00.885431
1367  2023-10-18 12:57:00.917349
1368  2023-10-18 12:57:00.950264
1369  2023-10-18 12:57:00.982136
1370  2023-10-18 12:57:01.014081
1371  2023-10-18 12:57:01.045963
1372  2023-10-18 12:57:01.077876
1373  2023-10-18 12:57:01.109822
1374  2023-10-18 12:57:01.141769
1375  2023-10-18 12:57:01.173649
1376  2023-10-18 12:57:01.222492
1377  2023-10-18 12:57:01.254406
1378  2023-10-18 12:57:01.285323
1379  2023-10-18 12:57:01.318279
1380  2023-10-18 12:57:01.350186
1381  2023-10-18 12:57:01.382064
1382  2023-10-18 12:57:01.414012
1383  2023-10-18 12:57:01.445931
1384  2023-10-18 12:57:01.477846
1385  2023-10-18 12:57:01.509759
1386  2023-10-18 12:57:01.541684
1387  2023-10-18 12:57:01.573551
1388  2023-10-18 12:57:01.705200
1389  2023-10-18 12:57:01.718166
1390  2023-10-18 12:57:01.750081
1391  2023-10-18 12:57:01.782022
1392  2023-10-18 12:57:01.813908
1393  2023-10-18 12:57:01.845860
1394  2023-10-18 12:57:01.877765
1395  2023-10-18 12:57:01.909689
1396  2023-10-18 12:57:01.941606
1397  2023-10-18 12:57:01.973510
1398  2023-10-18 12:57:02.021381
1399  2023-10-18 12:57:02.054307
1400  2023-10-18 12:57:02.085217
1401  2023-10-18 12:57:02.118133
1402  2023-10-18 12:57:02.150056
1403  2023-10-18 12:57:02.181958
1404  2023-10-18 12:57:02.213889
1405  2023-10-18 12:57:02.245794
1406  2023-10-18 12:57:02.277670
1407  2023-10-18 12:57:02.309616
1408  2023-10-18 12:57:02.341553
1409  2023-10-18 12:57:02.373441
1410  2023-10-18 12:57:02.421319
1411  2023-10-18 12:57:02.454223
1412  2023-10-18 12:57:02.486139
1413  2023-10-18 12:57:02.518058
1414  2023-10-18 12:57:02.549981
1415  2023-10-18 12:57:02.581855
1416  2023-10-18 12:57:02.613804
1417  2023-10-18 12:57:02.645730
1418  2023-10-18 12:57:02.677597
1419  2023-10-18 12:57:02.709547
1420  2023-10-18 12:57:02.741460
1421  2023-10-18 12:57:02.773384
1422  2023-10-18 12:57:02.822212
1423  2023-10-18 12:57:02.854158
1424  2023-10-18 12:57:02.886067
1425  2023-10-18 12:57:02.917959
1426  2023-10-18 12:57:02.949912
1427  2023-10-18 12:57:02.981833
1428  2023-10-18 12:57:03.013700
1429  2023-10-18 12:57:03.045657
1430  2023-10-18 12:57:03.077593
1431  2023-10-18 12:57:03.109503
1432  2023-10-18 12:57:03.142396
1433  2023-10-18 12:57:03.174319
1434  2023-10-18 12:57:03.222143
1435  2023-10-18 12:57:03.254057
1436  2023-10-18 12:57:03.286005
1437  2023-10-18 12:57:03.317920
1438  2023-10-18 12:57:03.349802
1439  2023-10-18 12:57:03.381716
1440  2023-10-18 12:57:03.413664
1441  2023-10-18 12:57:03.445589
1442  2023-10-18 12:57:03.477487
1443  2023-10-18 12:57:03.509402
1444  2023-10-18 12:57:03.541330
1445  2023-10-18 12:57:03.574234
1446  2023-10-18 12:57:03.622103
1447  2023-10-18 12:57:03.654029
1448  2023-10-18 12:57:03.685945
1449  2023-10-18 12:57:03.717842
1450  2023-10-18 12:57:03.749764
1451  2023-10-18 12:57:03.781696
1452  2023-10-18 12:57:03.813560
1453  2023-10-18 12:57:03.845518
1454  2023-10-18 12:57:03.877388
1455  2023-10-18 12:57:03.909336
1456  2023-10-18 12:57:03.942253
1457  2023-10-18 12:57:03.974170
1458  2023-10-18 12:57:04.022036
1459  2023-10-18 12:57:04.053948
1460  2023-10-18 12:57:04.085866
1461  2023-10-18 12:57:04.117774
1462  2023-10-18 12:57:04.149693
1463  2023-10-18 12:57:04.181575
1464  2023-10-18 12:57:04.213491
1465  2023-10-18 12:57:04.245406
1466  2023-10-18 12:57:04.277348
1467  2023-10-18 12:57:04.310231
1468  2023-10-18 12:57:04.342148
1469  2023-10-18 12:57:04.374099
1470  2023-10-18 12:57:04.421934
1471  2023-10-18 12:57:04.453896
1472  2023-10-18 12:57:04.485761
1473  2023-10-18 12:57:04.517703
1474  2023-10-18 12:57:04.549592
1475  2023-10-18 12:57:04.581507
1476  2023-10-18 12:57:04.613458
1477  2023-10-18 12:57:04.646359
1478  2023-10-18 12:57:04.678277
1479  2023-10-18 12:57:04.710188
1480  2023-10-18 12:57:04.742109
1481  2023-10-18 12:57:04.789992
1482  2023-10-18 12:57:04.821890
1483  2023-10-18 12:57:04.853823
1484  2023-10-18 12:57:04.885723
1485  2023-10-18 12:57:04.917647
1486  2023-10-18 12:57:04.949549
1487  2023-10-18 12:57:04.981436
1488  2023-10-18 12:57:05.013386
1489  2023-10-18 12:57:05.046288
1490  2023-10-18 12:57:05.078225
1491  2023-10-18 12:57:05.110125
1492  2023-10-18 12:57:05.142039
1493  2023-10-18 12:57:05.189918
1494  2023-10-18 12:57:05.221828
1495  2023-10-18 12:57:05.253738
1496  2023-10-18 12:57:05.285654
1497  2023-10-18 12:57:05.317537
1498  2023-10-18 12:57:05.349492
1499  2023-10-18 12:57:05.382366
1500  2023-10-18 12:57:05.413281
1501  2023-10-18 12:57:05.446221
1502  2023-10-18 12:57:05.478107
1503  2023-10-18 12:57:05.510050
1504  2023-10-18 12:57:05.541938
1505  2023-10-18 12:57:05.589808
1506  2023-10-18 12:57:05.621773
1507  2023-10-18 12:57:05.653681
1508  2023-10-18 12:57:05.685553
1509  2023-10-18 12:57:05.717496
1510  2023-10-18 12:57:05.749382
1511  2023-10-18 12:57:05.781297
1512  2023-10-18 12:57:05.814243
1513  2023-10-18 12:57:05.846124
1514  2023-10-18 12:57:05.878037
1515  2023-10-18 12:57:05.909951
1516  2023-10-18 12:57:05.941904
1517  2023-10-18 12:57:05.989765
1518  2023-10-18 12:57:06.021654
1519  2023-10-18 12:57:06.053607
1520  2023-10-18 12:57:06.086481
1521  2023-10-18 12:57:06.118395
1522  2023-10-18 12:57:06.149312
1523  2023-10-18 12:57:06.182226
1524  2023-10-18 12:57:06.214161
1525  2023-10-18 12:57:06.246091
1526  2023-10-18 12:57:06.277972
1527  2023-10-18 12:57:06.309919
1528  2023-10-18 12:57:06.341828
1529  2023-10-18 12:57:06.389697
1530  2023-10-18 12:57:06.421609
1531  2023-10-18 12:57:06.453541
1532  2023-10-18 12:57:06.485442
1533  2023-10-18 12:57:06.517327
1534  2023-10-18 12:57:06.549243
1535  2023-10-18 12:57:06.582184
1536  2023-10-18 12:57:06.614130
1537  2023-10-18 12:57:06.645985
1538  2023-10-18 12:57:06.677899
1539  2023-10-18 12:57:06.709841
1540  2023-10-18 12:57:06.741753
1541  2023-10-18 12:57:06.789628
1542  2023-10-18 12:57:06.821514
1543  2023-10-18 12:57:06.853465
1544  2023-10-18 12:57:06.885344
1545  2023-10-18 12:57:06.917270
1546  2023-10-18 12:57:06.950197
1547  2023-10-18 12:57:06.982085
1548  2023-10-18 12:57:07.014000
1549  2023-10-18 12:57:07.045915
1550  2023-10-18 12:57:07.077829
1551  2023-10-18 12:57:07.109744
1552  2023-10-18 12:57:07.141686
1553  2023-10-18 12:57:07.189530
1554  2023-10-18 12:57:07.221446
1555  2023-10-18 12:57:07.254356
1556  2023-10-18 12:57:07.285274
1557  2023-10-18 12:57:07.318185
1558  2023-10-18 12:57:07.350102
1559  2023-10-18 12:57:07.382015
1560  2023-10-18 12:57:07.413931
1561  2023-10-18 12:57:07.445844
1562  2023-10-18 12:57:07.477758
1563  2023-10-18 12:57:07.509714
1564  2023-10-18 12:57:07.541621
1565  2023-10-18 12:57:07.589486
1566  2023-10-18 12:57:07.621375
1567  2023-10-18 12:57:07.653289
1568  2023-10-18 12:57:07.686258
1569  2023-10-18 12:57:07.718142
1570  2023-10-18 12:57:07.750071
1571  2023-10-18 12:57:07.781947
1572  2023-10-18 12:57:07.813860
1573  2023-10-18 12:57:07.845775
1574  2023-10-18 12:57:07.877722
1575  2023-10-18 12:57:07.909604
1576  2023-10-18 12:57:07.941546
1577  2023-10-18 12:57:07.989417
1578  2023-10-18 12:57:08.022330
1579  2023-10-18 12:57:08.054265
1580  2023-10-18 12:57:08.086158
1581  2023-10-18 12:57:08.118090
1582  2023-10-18 12:57:08.149998
1583  2023-10-18 12:57:08.181915
1584  2023-10-18 12:57:08.213792
1585  2023-10-18 12:57:08.245738
1586  2023-10-18 12:57:08.277619
1587  2023-10-18 12:57:08.309534
1588  2023-10-18 12:57:08.341449
1589  2023-10-18 12:57:08.390318
1590  2023-10-18 12:57:08.422234
1591  2023-10-18 12:57:08.454182
1592  2023-10-18 12:57:08.486089
1593  2023-10-18 12:57:08.518018
1594  2023-10-18 12:57:08.549937
1595  2023-10-18 12:57:08.581806
1596  2023-10-18 12:57:08.613755
1597  2023-10-18 12:57:08.645636
1598  2023-10-18 12:57:08.677581
1599  2023-10-18 12:57:08.709498
1600  2023-10-18 12:57:08.757367
1601  2023-10-18 12:57:08.789280
1602  2023-10-18 12:57:08.821227
1603  2023-10-18 12:57:08.854110
1604  2023-10-18 12:57:08.886034
1605  2023-10-18 12:57:08.917935
1606  2023-10-18 12:57:08.949846
1607  2023-10-18 12:57:08.981763
1608  2023-10-18 12:57:09.013650
1609  2023-10-18 12:57:09.045594
1610  2023-10-18 12:57:09.077514
1611  2023-10-18 12:57:09.109421
1612  2023-10-18 12:57:09.157315
1613  2023-10-18 12:57:09.189214
1614  2023-10-18 12:57:09.222128
1615  2023-10-18 12:57:09.254008
1616  2023-10-18 12:57:09.285963
1617  2023-10-18 12:57:09.317875
1618  2023-10-18 12:57:09.349782
1619  2023-10-18 12:57:09.382664
1620  2023-10-18 12:57:09.413609
1621  2023-10-18 12:57:09.445496
1622  2023-10-18 12:57:09.477459
1623  2023-10-18 12:57:09.510324
1624  2023-10-18 12:57:09.557223
1625  2023-10-18 12:57:09.590135
1626  2023-10-18 12:57:09.622062
1627  2023-10-18 12:57:09.653939
1628  2023-10-18 12:57:09.685888
1629  2023-10-18 12:57:09.717771
1630  2023-10-18 12:57:09.749728
1631  2023-10-18 12:57:09.781650
1632  2023-10-18 12:57:09.813540
1633  2023-10-18 12:57:09.846424
1634  2023-10-18 12:57:09.877395
1635  2023-10-18 12:57:09.910253
1636  2023-10-18 12:57:09.958167
1637  2023-10-18 12:57:09.990072
1638  2023-10-18 12:57:10.021980
1639  2023-10-18 12:57:10.053868
1640  2023-10-18 12:57:10.085810
1641  2023-10-18 12:57:10.117697
1642  2023-10-18 12:57:10.149643
1643  2023-10-18 12:57:10.181562
1644  2023-10-18 12:57:10.213485
1645  2023-10-18 12:57:10.245384
1646  2023-10-18 12:57:10.277307
1647  2023-10-18 12:57:10.310220
1648  2023-10-18 12:57:10.358087
1649  2023-10-18 12:57:10.389995
1650  2023-10-18 12:57:10.421917
1651  2023-10-18 12:57:10.453842
1652  2023-10-18 12:57:10.485758
1653  2023-10-18 12:57:10.517628
1654  2023-10-18 12:57:10.549579
1655  2023-10-18 12:57:10.581487
1656  2023-10-18 12:57:10.614398
1657  2023-10-18 12:57:10.646310
1658  2023-10-18 12:57:10.678235
1659  2023-10-18 12:57:10.710113
1660  2023-10-18 12:57:10.758019
1661  2023-10-18 12:57:10.789926
1662  2023-10-18 12:57:10.821845
1663  2023-10-18 12:57:10.853776
1664  2023-10-18 12:57:10.885687
1665  2023-10-18 12:57:10.917591
1666  2023-10-18 12:57:10.949500
1667  2023-10-18 12:57:10.981438
1668  2023-10-18 12:57:11.014300
1669  2023-10-18 12:57:11.046255
1670  2023-10-18 12:57:11.078158
1671  2023-10-18 12:57:11.110046
1672  2023-10-18 12:57:11.157940
1673  2023-10-18 12:57:11.189859
1674  2023-10-18 12:57:11.221789
1675  2023-10-18 12:57:11.253660
1676  2023-10-18 12:57:11.285605
1677  2023-10-18 12:57:11.317488
1678  2023-10-18 12:57:11.349440
1679  2023-10-18 12:57:11.382316
1680  2023-10-18 12:57:11.414259
1681  2023-10-18 12:57:11.446189
1682  2023-10-18 12:57:11.478095
1683  2023-10-18 12:57:11.510025
1684  2023-10-18 12:57:11.557881
1685  2023-10-18 12:57:11.589808
1686  2023-10-18 12:57:11.621704
1687  2023-10-18 12:57:11.653642
1688  2023-10-18 12:57:11.685549
1689  2023-10-18 12:57:11.717419
1690  2023-10-18 12:57:11.749369
1691  2023-10-18 12:57:11.782282
1692  2023-10-18 12:57:11.814199
1693  2023-10-18 12:57:11.846107
1694  2023-10-18 12:57:11.878014
1695  2023-10-18 12:57:11.909934
1696  2023-10-18 12:57:11.957801
1697  2023-10-18 12:57:11.989725
1698  2023-10-18 12:57:12.021661
1699  2023-10-18 12:57:12.053553
1700  2023-10-18 12:57:12.086470
1701  2023-10-18 12:57:12.118348
1702  2023-10-18 12:57:12.149289
1703  2023-10-18 12:57:12.182201
1704  2023-10-18 12:57:12.214090
1705  2023-10-18 12:57:12.246033
1706  2023-10-18 12:57:12.277954
1707  2023-10-18 12:57:12.325818
1708  2023-10-18 12:57:12.357731
1709  2023-10-18 12:57:12.389677
1710  2023-10-18 12:57:12.421562
1711  2023-10-18 12:57:12.453502
1712  2023-10-18 12:57:12.485393
1713  2023-10-18 12:57:12.517307
1714  2023-10-18 12:57:12.549221
1715  2023-10-18 12:57:12.582139
1716  2023-10-18 12:57:12.614022
1717  2023-10-18 12:57:12.645972
1718  2023-10-18 12:57:12.677848
1719  2023-10-18 12:57:12.725758
1720  2023-10-18 12:57:12.757671
1721  2023-10-18 12:57:12.789589
1722  2023-10-18 12:57:12.821504
1723  2023-10-18 12:57:12.853408
1724  2023-10-18 12:57:12.885294
1725  2023-10-18 12:57:12.918206
1726  2023-10-18 12:57:12.950147
1727  2023-10-18 12:57:12.982061
1728  2023-10-18 12:57:13.013952
1729  2023-10-18 12:57:13.045865
1730  2023-10-18 12:57:13.077851
1731  2023-10-18 12:57:13.125690
1732  2023-10-18 12:57:13.157602
1733  2023-10-18 12:57:13.189482
1734  2023-10-18 12:57:13.221402
1735  2023-10-18 12:57:13.253355
1736  2023-10-18 12:57:13.286261
1737  2023-10-18 12:57:13.318164
1738  2023-10-18 12:57:13.350082
1739  2023-10-18 12:57:13.382004
1740  2023-10-18 12:57:13.413909
1741  2023-10-18 12:57:13.445800
1742  2023-10-18 12:57:13.477750
1743  2023-10-18 12:57:13.525622
1744  2023-10-18 12:57:13.557540
1745  2023-10-18 12:57:13.589440
1746  2023-10-18 12:57:13.621353
1747  2023-10-18 12:57:13.653274
1748  2023-10-18 12:57:13.686156
1749  2023-10-18 12:57:13.718106
1750  2023-10-18 12:57:13.750012
1751  2023-10-18 12:57:13.781924
1752  2023-10-18 12:57:13.813844
1753  2023-10-18 12:57:13.845763
1754  2023-10-18 12:57:13.877668
1755  2023-10-18 12:57:13.925537
1756  2023-10-18 12:57:13.957430
1757  2023-10-18 12:57:13.990370
1758  2023-10-18 12:57:14.021293
1759  2023-10-18 12:57:14.053198
1760  2023-10-18 12:57:14.086110
1761  2023-10-18 12:57:14.118030
1762  2023-10-18 12:57:14.149912
1763  2023-10-18 12:57:14.181857
1764  2023-10-18 12:57:14.213778
1765  2023-10-18 12:57:14.245685
1766  2023-10-18 12:57:14.277604
1767  2023-10-18 12:57:14.325470
1768  2023-10-18 12:57:14.357386
1769  2023-10-18 12:57:14.389309
1770  2023-10-18 12:57:14.421213
1771  2023-10-18 12:57:14.454125
1772  2023-10-18 12:57:14.486016
1773  2023-10-18 12:57:14.517972
1774  2023-10-18 12:57:14.549868
1775  2023-10-18 12:57:14.581793
1776  2023-10-18 12:57:14.613701
1777  2023-10-18 12:57:14.645625
1778  2023-10-18 12:57:14.677532
1779  2023-10-18 12:57:14.725431
1780  2023-10-18 12:57:14.758285
1781  2023-10-18 12:57:14.790227
1782  2023-10-18 12:57:14.822113
1783  2023-10-18 12:57:14.854060
1784  2023-10-18 12:57:14.885978
1785  2023-10-18 12:57:14.917907
1786  2023-10-18 12:57:14.949772
1787  2023-10-18 12:57:14.981712
1788  2023-10-18 12:57:15.013636
1789  2023-10-18 12:57:15.046516
1790  2023-10-18 12:57:15.077478
1791  2023-10-18 12:57:15.125339
1792  2023-10-18 12:57:15.158244
1793  2023-10-18 12:57:15.190161
1794  2023-10-18 12:57:15.222044
1795  2023-10-18 12:57:15.253985
1796  2023-10-18 12:57:15.285901
1797  2023-10-18 12:57:15.317814
1798  2023-10-18 12:57:15.349703
1799  2023-10-18 12:57:15.381624
1800  2023-10-18 12:57:15.413559
1801  2023-10-18 12:57:15.445481
1802  2023-10-18 12:57:15.477386
1803  2023-10-18 12:57:15.525261
1804  2023-10-18 12:57:15.558200
1805  2023-10-18 12:57:15.590093
1806  2023-10-18 12:57:15.622008
1807  2023-10-18 12:57:15.653932
1808  2023-10-18 12:57:15.685847
1809  2023-10-18 12:57:15.717760
1810  2023-10-18 12:57:15.749677
1811  2023-10-18 12:57:15.781585
1812  2023-10-18 12:57:15.813503
1813  2023-10-18 12:57:15.845429
1814  2023-10-18 12:57:15.878287
1815  2023-10-18 12:57:15.926192
1816  2023-10-18 12:57:15.958113
1817  2023-10-18 12:57:15.990019
1818  2023-10-18 12:57:16.021946
1819  2023-10-18 12:57:16.053851
1820  2023-10-18 12:57:16.085760
1821  2023-10-18 12:57:16.117687
1822  2023-10-18 12:57:16.149628
1823  2023-10-18 12:57:16.181478
1824  2023-10-18 12:57:16.214389
1825  2023-10-18 12:57:16.245338
1826  2023-10-18 12:57:16.294177
1827  2023-10-18 12:57:16.326122
1828  2023-10-18 12:57:16.358031
1829  2023-10-18 12:57:16.389953
1830  2023-10-18 12:57:16.421845
1831  2023-10-18 12:57:16.453782
1832  2023-10-18 12:57:16.485719
1833  2023-10-18 12:57:16.517615
1834  2023-10-18 12:57:16.550491
1835  2023-10-18 12:57:16.581456
1836  2023-10-18 12:57:16.613351
1837  2023-10-18 12:57:16.646263
1838  2023-10-18 12:57:16.694139
1839  2023-10-18 12:57:16.726021
1840  2023-10-18 12:57:16.757935
1841  2023-10-18 12:57:16.789896
1842  2023-10-18 12:57:16.821790
1843  2023-10-18 12:57:16.853708
1844  2023-10-18 12:57:16.885595
1845  2023-10-18 12:57:16.917512
1846  2023-10-18 12:57:16.949461
1847  2023-10-18 12:57:16.982335
1848  2023-10-18 12:57:17.014251
1849  2023-10-18 12:57:17.046232
1850  2023-10-18 12:57:17.094064
1851  2023-10-18 12:57:17.125983
1852  2023-10-18 12:57:17.157904
1853  2023-10-18 12:57:17.189784
1854  2023-10-18 12:57:17.221738
1855  2023-10-18 12:57:17.253639
1856  2023-10-18 12:57:17.285561
1857  2023-10-18 12:57:17.317468
1858  2023-10-18 12:57:17.350377
1859  2023-10-18 12:57:17.382299
1860  2023-10-18 12:57:17.413236
1861  2023-10-18 12:57:17.446161
1862  2023-10-18 12:57:17.493997
1863  2023-10-18 12:57:17.525928
1864  2023-10-18 12:57:17.557828
1865  2023-10-18 12:57:17.589740
1866  2023-10-18 12:57:17.621659
1867  2023-10-18 12:57:17.653576
1868  2023-10-18 12:57:17.685503
1869  2023-10-18 12:57:17.717398
1870  2023-10-18 12:57:17.750282
1871  2023-10-18 12:57:17.782238
1872  2023-10-18 12:57:17.814136
1873  2023-10-18 12:57:17.846024
1874  2023-10-18 12:57:17.893901
1875  2023-10-18 12:57:17.925811
1876  2023-10-18 12:57:17.957761
1877  2023-10-18 12:57:17.989641
1878  2023-10-18 12:57:18.021583
1879  2023-10-18 12:57:18.053504
1880  2023-10-18 12:57:18.085387
1881  2023-10-18 12:57:18.117327
1882  2023-10-18 12:57:18.149246
1883  2023-10-18 12:57:18.182125
1884  2023-10-18 12:57:18.214041
1885  2023-10-18 12:57:18.245990
1886  2023-10-18 12:57:18.293859
1887  2023-10-18 12:57:18.325768
1888  2023-10-18 12:57:18.357705
1889  2023-10-18 12:57:18.389613
1890  2023-10-18 12:57:18.421542
1891  2023-10-18 12:57:18.453430
1892  2023-10-18 12:57:18.486352
1893  2023-10-18 12:57:18.518228
1894  2023-10-18 12:57:18.550150
1895  2023-10-18 12:57:18.582056
1896  2023-10-18 12:57:18.613974
1897  2023-10-18 12:57:18.645928
1898  2023-10-18 12:57:18.693793
1899  2023-10-18 12:57:18.725700
1900  2023-10-18 12:57:18.757612
1901  2023-10-18 12:57:18.789551
1902  2023-10-18 12:57:18.821456
1903  2023-10-18 12:57:18.853331
1904  2023-10-18 12:57:18.886242
1905  2023-10-18 12:57:18.918183
1906  2023-10-18 12:57:18.950111
1907  2023-10-18 12:57:18.981990
1908  2023-10-18 12:57:19.013926
1909  2023-10-18 12:57:19.045848
1910  2023-10-18 12:57:19.093733
1911  2023-10-18 12:57:19.125632
1912  2023-10-18 12:57:19.157516
1913  2023-10-18 12:57:19.189460
1914  2023-10-18 12:57:19.221375
1915  2023-10-18 12:57:19.253308
1916  2023-10-18 12:57:19.286207
1917  2023-10-18 12:57:19.318091
1918  2023-10-18 12:57:19.350032
1919  2023-10-18 12:57:19.381961
1920  2023-10-18 12:57:19.413876
1921  2023-10-18 12:57:19.445779
1922  2023-10-18 12:57:19.493658
1923  2023-10-18 12:57:19.525560
1924  2023-10-18 12:57:19.557482
1925  2023-10-18 12:57:19.590359
1926  2023-10-18 12:57:19.621304
1927  2023-10-18 12:57:19.653225
1928  2023-10-18 12:57:19.686157
1929  2023-10-18 12:57:19.718016
1930  2023-10-18 12:57:19.749979
1931  2023-10-18 12:57:19.781873
1932  2023-10-18 12:57:19.813793
1933  2023-10-18 12:57:19.861670
1934  2023-10-18 12:57:19.893585
1935  2023-10-18 12:57:19.925506
1936  2023-10-18 12:57:19.957416
1937  2023-10-18 12:57:19.989328
1938  2023-10-18 12:57:20.021239
1939  2023-10-18 12:57:20.054154
1940  2023-10-18 12:57:20.086067
1941  2023-10-18 12:57:20.117977
1942  2023-10-18 12:57:20.149892
1943  2023-10-18 12:57:20.181803
1944  2023-10-18 12:57:20.213692
1945  2023-10-18 12:57:20.261597
1946  2023-10-18 12:57:20.293480
1947  2023-10-18 12:57:20.325431
1948  2023-10-18 12:57:20.357336
1949  2023-10-18 12:57:20.390247
1950  2023-10-18 12:57:20.422136
1951  2023-10-18 12:57:20.454076
1952  2023-10-18 12:57:20.486015
1953  2023-10-18 12:57:20.517878
1954  2023-10-18 12:57:20.549821
1955  2023-10-18 12:57:20.581757
1956  2023-10-18 12:57:20.613658
1957  2023-10-18 12:57:20.661528
1958  2023-10-18 12:57:20.693448
1959  2023-10-18 12:57:20.726352
1960  2023-10-18 12:57:20.758236
1961  2023-10-18 12:57:20.790149
1962  2023-10-18 12:57:20.822063
1963  2023-10-18 12:57:20.854007
1964  2023-10-18 12:57:20.885929
1965  2023-10-18 12:57:20.917854
1966  2023-10-18 12:57:20.949775
1967  2023-10-18 12:57:20.981676
1968  2023-10-18 12:57:21.013581
1969  2023-10-18 12:57:21.061460
1970  2023-10-18 12:57:21.093366
1971  2023-10-18 12:57:21.126301
1972  2023-10-18 12:57:21.158192
1973  2023-10-18 12:57:21.190108
1974  2023-10-18 12:57:21.222032
1975  2023-10-18 12:57:21.253938
1976  2023-10-18 12:57:21.285865
1977  2023-10-18 12:57:21.317790
1978  2023-10-18 12:57:21.349682
1979  2023-10-18 12:57:21.382595
1980  2023-10-18 12:57:21.413523
1981  2023-10-18 12:57:21.461388
1982  2023-10-18 12:57:21.493298
1983  2023-10-18 12:57:21.526223
1984  2023-10-18 12:57:21.558134
1985  2023-10-18 12:57:21.590036
1986  2023-10-18 12:57:21.621959
1987  2023-10-18 12:57:21.653870
1988  2023-10-18 12:57:21.685802
1989  2023-10-18 12:57:21.717705
1990  2023-10-18 12:57:21.749633
1991  2023-10-18 12:57:21.781524
1992  2023-10-18 12:57:21.813442
1993  2023-10-18 12:57:21.861285
1994  2023-10-18 12:57:21.893234
1995  2023-10-18 12:57:21.926144
1996  2023-10-18 12:57:21.958052
1997  2023-10-18 12:57:21.989971
1998  2023-10-18 12:57:22.021884
1999  2023-10-18 12:57:22.053796
2000  2023-10-18 12:57:22.085713
2001  2023-10-18 12:57:22.117642
2002  2023-10-18 12:57:22.149548
2003  2023-10-18 12:57:22.181466
2004  2023-10-18 12:57:22.213384
2005  2023-10-18 12:57:22.261248
2006  2023-10-18 12:57:22.294170
2007  2023-10-18 12:57:22.326078
2008  2023-10-18 12:57:22.358010
2009  2023-10-18 12:57:22.389871
2010  2023-10-18 12:57:22.421784
2011  2023-10-18 12:57:22.453727
2012  2023-10-18 12:57:22.485620
2013  2023-10-18 12:57:22.517556
2014  2023-10-18 12:57:22.549445
2015  2023-10-18 12:57:22.581391
2016  2023-10-18 12:57:22.613306
2017  2023-10-18 12:57:22.661184
2018  2023-10-18 12:57:22.694090
2019  2023-10-18 12:57:22.725971
2020  2023-10-18 12:57:22.757887
2021  2023-10-18 12:57:22.789847
2022  2023-10-18 12:57:22.821753
2023  2023-10-18 12:57:22.853671
2024  2023-10-18 12:57:22.885547
2025  2023-10-18 12:57:22.917507
2026  2023-10-18 12:57:22.949406
2027  2023-10-18 12:57:22.981318
2028  2023-10-18 12:57:23.014232
2029  2023-10-18 12:57:23.062071
2030  2023-10-18 12:57:23.094021
2031  2023-10-18 12:57:23.125929
2032  2023-10-18 12:57:23.157843
2033  2023-10-18 12:57:23.189763
2034  2023-10-18 12:57:23.221682
2035  2023-10-18 12:57:23.253596
2036  2023-10-18 12:57:23.285506
2037  2023-10-18 12:57:23.317422
2038  2023-10-18 12:57:23.349304
2039  2023-10-18 12:57:23.382216
2040  2023-10-18 12:57:23.414167
2041  2023-10-18 12:57:23.462001
2042  2023-10-18 12:57:23.493960
2043  2023-10-18 12:57:23.525832
2044  2023-10-18 12:57:23.557748
2045  2023-10-18 12:57:23.589662
2046  2023-10-18 12:57:23.621603
2047  2023-10-18 12:57:23.653535
2048  2023-10-18 12:57:23.685406
2049  2023-10-18 12:57:23.717353
2050  2023-10-18 12:57:23.749268
2051  2023-10-18 12:57:23.782178
2052  2023-10-18 12:57:23.830017
2053  2023-10-18 12:57:23.861932
2054  2023-10-18 12:57:23.893881
2055  2023-10-18 12:57:23.925807
2056  2023-10-18 12:57:23.957708
2057  2023-10-18 12:57:23.989620
2058  2023-10-18 12:57:24.021548
2059  2023-10-18 12:57:24.053466
2060  2023-10-18 12:57:24.085369
2061  2023-10-18 12:57:24.118248
2062  2023-10-18 12:57:24.150195
2063  2023-10-18 12:57:24.182104
2064  2023-10-18 12:57:24.229947
2065  2023-10-18 12:57:24.261862
2066  2023-10-18 12:57:24.293804
2067  2023-10-18 12:57:24.325729
2068  2023-10-18 12:57:24.357636
2069  2023-10-18 12:57:24.389551
2070  2023-10-18 12:57:24.421466
2071  2023-10-18 12:57:24.453393
2072  2023-10-18 12:57:24.486301
2073  2023-10-18 12:57:24.518205
2074  2023-10-18 12:57:24.550093
2075  2023-10-18 12:57:24.582050
2076  2023-10-18 12:57:24.629879
2077  2023-10-18 12:57:24.661792
2078  2023-10-18 12:57:24.693745
2079  2023-10-18 12:57:24.725669
2080  2023-10-18 12:57:24.757577
2081  2023-10-18 12:57:24.789481
2082  2023-10-18 12:57:24.821401
2083  2023-10-18 12:57:24.853312
2084  2023-10-18 12:57:24.885195
2085  2023-10-18 12:57:24.918148
2086  2023-10-18 12:57:24.950057
2087  2023-10-18 12:57:24.981971
2088  2023-10-18 12:57:25.029808
2089  2023-10-18 12:57:25.061722
2090  2023-10-18 12:57:25.093638
2091  2023-10-18 12:57:25.125582
2092  2023-10-18 12:57:25.157528
2093  2023-10-18 12:57:25.189386
2094  2023-10-18 12:57:25.221333
2095  2023-10-18 12:57:25.253249
2096  2023-10-18 12:57:25.286160
2097  2023-10-18 12:57:25.318067
2098  2023-10-18 12:57:25.349979
2099  2023-10-18 12:57:25.381894
2100  2023-10-18 12:57:25.429767
2101  2023-10-18 12:57:25.461653
2102  2023-10-18 12:57:25.493604
2103  2023-10-18 12:57:25.525528
2104  2023-10-18 12:57:25.557441
2105  2023-10-18 12:57:25.589348
2106  2023-10-18 12:57:25.621253
2107  2023-10-18 12:57:25.654182
2108  2023-10-18 12:57:25.686080
2109  2023-10-18 12:57:25.718005
2110  2023-10-18 12:57:25.749911
2111  2023-10-18 12:57:25.781835
2112  2023-10-18 12:57:25.829668
2113  2023-10-18 12:57:25.861583
2114  2023-10-18 12:57:25.893536
2115  2023-10-18 12:57:25.925439
2116  2023-10-18 12:57:25.957375
2117  2023-10-18 12:57:25.989275
2118  2023-10-18 12:57:26.022191
2119  2023-10-18 12:57:26.054099
2120  2023-10-18 12:57:26.086011
2121  2023-10-18 12:57:26.117927
2122  2023-10-18 12:57:26.149845
2123  2023-10-18 12:57:26.181755
2124  2023-10-18 12:57:26.229598
2125  2023-10-18 12:57:26.261513
2126  2023-10-18 12:57:26.293456
2127  2023-10-18 12:57:26.325371
2128  2023-10-18 12:57:26.357294
2129  2023-10-18 12:57:26.389199
2130  2023-10-18 12:57:26.422127
2131  2023-10-18 12:57:26.454034
2132  2023-10-18 12:57:26.485944
2133  2023-10-18 12:57:26.517860
2134  2023-10-18 12:57:26.549771
2135  2023-10-18 12:57:26.581698
2136  2023-10-18 12:57:26.629529
2137  2023-10-18 12:57:26.661443
2138  2023-10-18 12:57:26.693387
2139  2023-10-18 12:57:26.725314
2140  2023-10-18 12:57:26.757216
2141  2023-10-18 12:57:26.790136
2142  2023-10-18 12:57:26.822044
2143  2023-10-18 12:57:26.853963
2144  2023-10-18 12:57:26.885875
2145  2023-10-18 12:57:26.917786
2146  2023-10-18 12:57:26.949735
2147  2023-10-18 12:57:26.981635
2148  2023-10-18 12:57:27.029459
2149  2023-10-18 12:57:27.061374
2150  2023-10-18 12:57:27.094325
2151  2023-10-18 12:57:27.126201
2152  2023-10-18 12:57:27.158157
2153  2023-10-18 12:57:27.190061
2154  2023-10-18 12:57:27.221945
2155  2023-10-18 12:57:27.253899
2156  2023-10-18 12:57:27.285802
2157  2023-10-18 12:57:27.317727
2158  2023-10-18 12:57:27.349609
2159  2023-10-18 12:57:27.381552
2160  2023-10-18 12:57:27.430440
2161  2023-10-18 12:57:27.461306
2162  2023-10-18 12:57:27.493245
2163  2023-10-18 12:57:27.526167
2164  2023-10-18 12:57:27.558046
2165  2023-10-18 12:57:27.589960
2166  2023-10-18 12:57:27.621918
2167  2023-10-18 12:57:27.653825
2168  2023-10-18 12:57:27.685732
2169  2023-10-18 12:57:27.717652
2170  2023-10-18 12:57:27.749560
2171  2023-10-18 12:57:27.797468
2172  2023-10-18 12:57:27.829319
2173  2023-10-18 12:57:27.862232
2174  2023-10-18 12:57:27.894150
2175  2023-10-18 12:57:27.926107
2176  2023-10-18 12:57:27.958006
2177  2023-10-18 12:57:27.989918
2178  2023-10-18 12:57:28.021833
2179  2023-10-18 12:57:28.053757
2180  2023-10-18 12:57:28.085679
2181  2023-10-18 12:57:28.117587
2182  2023-10-18 12:57:28.149494
2183  2023-10-18 12:57:28.197335
2184  2023-10-18 12:57:28.229250
2185  2023-10-18 12:57:28.262162
2186  2023-10-18 12:57:28.294110
2187  2023-10-18 12:57:28.326023
2188  2023-10-18 12:57:28.357935
2189  2023-10-18 12:57:28.389849
2190  2023-10-18 12:57:28.421766
2191  2023-10-18 12:57:28.453705
2192  2023-10-18 12:57:28.485595
2193  2023-10-18 12:57:28.517527
2194  2023-10-18 12:57:28.549422
2195  2023-10-18 12:57:28.597267
2196  2023-10-18 12:57:28.629181
2197  2023-10-18 12:57:28.662094
2198  2023-10-18 12:57:28.694035
2199  2023-10-18 12:57:28.725967
2200  2023-10-18 12:57:28.757839
2201  2023-10-18 12:57:28.789785
2202  2023-10-18 12:57:28.821697
2203  2023-10-18 12:57:28.853614
2204  2023-10-18 12:57:28.885496
2205  2023-10-18 12:57:28.917444
2206  2023-10-18 12:57:28.949353
2207  2023-10-18 12:57:28.997197
2208  2023-10-18 12:57:29.030110
2209  2023-10-18 12:57:29.062028
2210  2023-10-18 12:57:29.093946
2211  2023-10-18 12:57:29.125891
2212  2023-10-18 12:57:29.157808
2213  2023-10-18 12:57:29.189708
2214  2023-10-18 12:57:29.221639
2215  2023-10-18 12:57:29.253555
2216  2023-10-18 12:57:29.285472
2217  2023-10-18 12:57:29.317366
2218  2023-10-18 12:57:29.349293
2219  2023-10-18 12:57:29.398124
2220  2023-10-18 12:57:29.430039
2221  2023-10-18 12:57:29.461954
2222  2023-10-18 12:57:29.493904
2223  2023-10-18 12:57:29.525783
2224  2023-10-18 12:57:29.557723
2225  2023-10-18 12:57:29.589639
2226  2023-10-18 12:57:29.621563
2227  2023-10-18 12:57:29.653483
2228  2023-10-18 12:57:29.685399
2229  2023-10-18 12:57:29.718269
2230  2023-10-18 12:57:29.750183
2231  2023-10-18 12:57:29.798057
2232  2023-10-18 12:57:29.829970
2233  2023-10-18 12:57:29.861886
2234  2023-10-18 12:57:29.893834
2235  2023-10-18 12:57:29.925715
2236  2023-10-18 12:57:29.957662
2237  2023-10-18 12:57:29.989586
2238  2023-10-18 12:57:30.021483
2239  2023-10-18 12:57:30.053380
2240  2023-10-18 12:57:30.085315
2241  2023-10-18 12:57:30.118233
2242  2023-10-18 12:57:30.150117
2243  2023-10-18 12:57:30.197985
2244  2023-10-18 12:57:30.229900
2245  2023-10-18 12:57:30.261852
2246  2023-10-18 12:57:30.293756
2247  2023-10-18 12:57:30.325677
2248  2023-10-18 12:57:30.357601
2249  2023-10-18 12:57:30.389512
2250  2023-10-18 12:57:30.421415
2251  2023-10-18 12:57:30.453329
2252  2023-10-18 12:57:30.485244
2253  2023-10-18 12:57:30.518157
2254  2023-10-18 12:57:30.550077
2255  2023-10-18 12:57:30.597950
2256  2023-10-18 12:57:30.629830
2257  2023-10-18 12:57:30.661745
2258  2023-10-18 12:57:30.693687
2259  2023-10-18 12:57:30.725599
2260  2023-10-18 12:57:30.757523
2261  2023-10-18 12:57:30.789442
2262  2023-10-18 12:57:30.821350
2263  2023-10-18 12:57:30.853260
2264  2023-10-18 12:57:30.886144
2265  2023-10-18 12:57:30.918059
2266  2023-10-18 12:57:30.950009
2267  2023-10-18 12:57:30.997846
2268  2023-10-18 12:57:31.029760
2269  2023-10-18 12:57:31.061675
2270  2023-10-18 12:57:31.093626
2271  2023-10-18 12:57:31.125534
2272  2023-10-18 12:57:31.157459
2273  2023-10-18 12:57:31.190330
2274  2023-10-18 12:57:31.221276
2275  2023-10-18 12:57:31.253200
2276  2023-10-18 12:57:31.286109
2277  2023-10-18 12:57:31.318015
2278  2023-10-18 12:57:31.365861
2279  2023-10-18 12:57:31.397776
2280  2023-10-18 12:57:31.429690
2281  2023-10-18 12:57:31.461605
2282  2023-10-18 12:57:31.493555
2283  2023-10-18 12:57:31.525462
2284  2023-10-18 12:57:31.557379
2285  2023-10-18 12:57:31.589264
2286  2023-10-18 12:57:31.622206
2287  2023-10-18 12:57:31.654126
2288  2023-10-18 12:57:31.686011
2289  2023-10-18 12:57:31.717920
2290  2023-10-18 12:57:31.765793
2291  2023-10-18 12:57:31.797706
2292  2023-10-18 12:57:31.829621
2293  2023-10-18 12:57:31.861535
2294  2023-10-18 12:57:31.893451
2295  2023-10-18 12:57:31.925393
2296  2023-10-18 12:57:31.957307
2297  2023-10-18 12:57:31.989220
2298  2023-10-18 12:57:32.022138
2299  2023-10-18 12:57:32.054048
2300  2023-10-18 12:57:32.085962
2301  2023-10-18 12:57:32.117876
2302  2023-10-18 12:57:32.165722
2303  2023-10-18 12:57:32.197638
2304  2023-10-18 12:57:32.229578
2305  2023-10-18 12:57:32.261494
2306  2023-10-18 12:57:32.293406
2307  2023-10-18 12:57:32.325330
2308  2023-10-18 12:57:32.357235
2309  2023-10-18 12:57:32.390151
2310  2023-10-18 12:57:32.422066
2311  2023-10-18 12:57:32.453983
2312  2023-10-18 12:57:32.485896
2313  2023-10-18 12:57:32.517809
2314  2023-10-18 12:57:32.565652
2315  2023-10-18 12:57:32.597566
2316  2023-10-18 12:57:32.629481
2317  2023-10-18 12:57:32.661396
2318  2023-10-18 12:57:32.693338
2319  2023-10-18 12:57:32.725226
2320  2023-10-18 12:57:32.758138
2321  2023-10-18 12:57:32.790097
2322  2023-10-18 12:57:32.821966
2323  2023-10-18 12:57:32.853881
2324  2023-10-18 12:57:32.885796
2325  2023-10-18 12:57:32.917776
2326  2023-10-18 12:57:32.965583
2327  2023-10-18 12:57:32.997497
2328  2023-10-18 12:57:33.029412
2329  2023-10-18 12:57:33.061327
2330  2023-10-18 12:57:33.094240
2331  2023-10-18 12:57:33.126153
2332  2023-10-18 12:57:33.158099
2333  2023-10-18 12:57:33.190008
2334  2023-10-18 12:57:33.221924
2335  2023-10-18 12:57:33.253813
2336  2023-10-18 12:57:33.285756
2337  2023-10-18 12:57:33.317679
2338  2023-10-18 12:57:33.365512
2339  2023-10-18 12:57:33.397427
2340  2023-10-18 12:57:33.429377
2341  2023-10-18 12:57:33.461256
2342  2023-10-18 12:57:33.493203
2343  2023-10-18 12:57:33.526121
2344  2023-10-18 12:57:33.558052
2345  2023-10-18 12:57:33.589940
2346  2023-10-18 12:57:33.621853
2347  2023-10-18 12:57:33.653770
2348  2023-10-18 12:57:33.685690
2349  2023-10-18 12:57:33.717600
2350  2023-10-18 12:57:33.765442
2351  2023-10-18 12:57:33.797357
2352  2023-10-18 12:57:33.830269
2353  2023-10-18 12:57:33.862184
2354  2023-10-18 12:57:33.894126
2355  2023-10-18 12:57:33.926014
2356  2023-10-18 12:57:33.957951
2357  2023-10-18 12:57:33.989872
2358  2023-10-18 12:57:34.021792
2359  2023-10-18 12:57:34.053672
2360  2023-10-18 12:57:34.085605
2361  2023-10-18 12:57:34.117538
2362  2023-10-18 12:57:34.165408
2363  2023-10-18 12:57:34.197331
2364  2023-10-18 12:57:34.229231
2365  2023-10-18 12:57:34.261149
2366  2023-10-18 12:57:34.294063
2367  2023-10-18 12:57:34.325976
2368  2023-10-18 12:57:34.357862
2369  2023-10-18 12:57:34.389778
2370  2023-10-18 12:57:34.421686
2371  2023-10-18 12:57:34.453642
2372  2023-10-18 12:57:34.485546
2373  2023-10-18 12:57:34.517461
2374  2023-10-18 12:57:34.565372
2375  2023-10-18 12:57:34.598249
2376  2023-10-18 12:57:34.630170
2377  2023-10-18 12:57:34.662085
2378  2023-10-18 12:57:34.693989
2379  2023-10-18 12:57:34.725906
2380  2023-10-18 12:57:34.757830
2381  2023-10-18 12:57:34.789748
2382  2023-10-18 12:57:34.821644
2383  2023-10-18 12:57:34.853559
2384  2023-10-18 12:57:34.885474
2385  2023-10-18 12:57:34.918388
2386  2023-10-18 12:57:34.966229
2387  2023-10-18 12:57:34.998197
2388  2023-10-18 12:57:35.030110
2389  2023-10-18 12:57:35.062018
2390  2023-10-18 12:57:35.093889
2391  2023-10-18 12:57:35.125831
2392  2023-10-18 12:57:35.157760
2393  2023-10-18 12:57:35.189667
2394  2023-10-18 12:57:35.221580
2395  2023-10-18 12:57:35.253497
2396  2023-10-18 12:57:35.286417
2397  2023-10-18 12:57:35.334273
2398  2023-10-18 12:57:35.366161
2399  2023-10-18 12:57:35.398129
2400  2023-10-18 12:57:35.430033
2401  2023-10-18 12:57:35.461979
2402  2023-10-18 12:57:35.493819
2403  2023-10-18 12:57:35.525770
2404  2023-10-18 12:57:35.557653
2405  2023-10-18 12:57:35.589564
2406  2023-10-18 12:57:35.621521
2407  2023-10-18 12:57:35.653421
2408  2023-10-18 12:57:35.685334
2409  2023-10-18 12:57:35.733214
2410  2023-10-18 12:57:35.766117
2411  2023-10-18 12:57:35.798035
2412  2023-10-18 12:57:35.829981
2413  2023-10-18 12:57:35.861886
2414  2023-10-18 12:57:35.893749
2415  2023-10-18 12:57:35.925700
2416  2023-10-18 12:57:35.957619
2417  2023-10-18 12:57:35.989535
2418  2023-10-18 12:57:36.021445
2419  2023-10-18 12:57:36.053323
2420  2023-10-18 12:57:36.085294
2421  2023-10-18 12:57:36.134110
2422  2023-10-18 12:57:36.166055
2423  2023-10-18 12:57:36.197977
2424  2023-10-18 12:57:36.229897
2425  2023-10-18 12:57:36.261840
2426  2023-10-18 12:57:36.293705
2427  2023-10-18 12:57:36.325621
2428  2023-10-18 12:57:36.357542
2429  2023-10-18 12:57:36.389423
2430  2023-10-18 12:57:36.421367
2431  2023-10-18 12:57:36.453297
2432  2023-10-18 12:57:36.485216
2433  2023-10-18 12:57:36.534072
2434  2023-10-18 12:57:36.565996
2435  2023-10-18 12:57:36.597865
2436  2023-10-18 12:57:36.629779
2437  2023-10-18 12:57:36.661751
2438  2023-10-18 12:57:36.693647
2439  2023-10-18 12:57:36.725552
2440  2023-10-18 12:57:36.757476
2441  2023-10-18 12:57:36.789394
2442  2023-10-18 12:57:36.821336
2443  2023-10-18 12:57:36.853210
2444  2023-10-18 12:57:36.886123
2445  2023-10-18 12:57:36.934005
2446  2023-10-18 12:57:36.965882
2447  2023-10-18 12:57:36.997839
2448  2023-10-18 12:57:37.029751
2449  2023-10-18 12:57:37.061662
2450  2023-10-18 12:57:37.094537
2451  2023-10-18 12:57:37.126454
2452  2023-10-18 12:57:37.157369
2453  2023-10-18 12:57:37.189284
2454  2023-10-18 12:57:37.222198
2455  2023-10-18 12:57:37.254137
2456  2023-10-18 12:57:37.286068
2457  2023-10-18 12:57:37.333937
2458  2023-10-18 12:57:37.365849
2459  2023-10-18 12:57:37.397761
2460  2023-10-18 12:57:37.430664
2461  2023-10-18 12:57:37.461608
2462  2023-10-18 12:57:37.493522
2463  2023-10-18 12:57:37.527407
2464  2023-10-18 12:57:37.558297
2465  2023-10-18 12:57:37.589245
2466  2023-10-18 12:57:37.623151
2467  2023-10-18 12:57:37.654089
2468  2023-10-18 12:57:37.685954
2469  2023-10-18 12:57:37.734857
2470  2023-10-18 12:57:37.765781
2471  2023-10-18 12:57:37.797706
2472  2023-10-18 12:57:37.829619
2473  2023-10-18 12:57:37.862525
2474  2023-10-18 12:57:37.893429
2475  2023-10-18 12:57:37.925343
2476  2023-10-18 12:57:37.959225
2477  2023-10-18 12:57:37.991176
2478  2023-10-18 12:57:38.022057
2479  2023-10-18 12:57:38.054973
2480  2023-10-18 12:57:38.086922
2481  2023-10-18 12:57:38.134755
2482  2023-10-18 12:57:38.166713
2483  2023-10-18 12:57:38.198614
2484  2023-10-18 12:57:38.230531
2485  2023-10-18 12:57:38.262413
2486  2023-10-18 12:57:38.295329
2487  2023-10-18 12:57:38.327280
2488  2023-10-18 12:57:38.359188
2489  2023-10-18 12:57:38.391098
2490  2023-10-18 12:57:38.423012
2491  2023-10-18 12:57:38.454925
2492  2023-10-18 12:57:38.486840
2493  2023-10-18 12:57:38.534731
2494  2023-10-18 12:57:38.566643
2495  2023-10-18 12:57:38.598550
2496  2023-10-18 12:57:38.630458
2497  2023-10-18 12:57:38.662378
2498  2023-10-18 12:57:38.694291
2499  2023-10-18 12:57:38.726173
2500  2023-10-18 12:57:38.758124
2501  2023-10-18 12:57:38.791036
2502  2023-10-18 12:57:38.822919
2503  2023-10-18 12:57:38.854836
2504  2023-10-18 12:57:38.902726
2505  2023-10-18 12:57:38.934629
2506  2023-10-18 12:57:38.966532
2507  2023-10-18 12:57:38.998446
2508  2023-10-18 12:57:39.030400
2509  2023-10-18 12:57:39.062274
2510  2023-10-18 12:57:39.094190
2511  2023-10-18 12:57:39.126104
2512  2023-10-18 12:57:39.159017
2513  2023-10-18 12:57:39.189971
2514  2023-10-18 12:57:39.222890
2515  2023-10-18 12:57:39.254798
2516  2023-10-18 12:57:39.302665
2517  2023-10-18 12:57:39.334581
2518  2023-10-18 12:57:39.366510
2519  2023-10-18 12:57:39.398410
2520  2023-10-18 12:57:39.430315
2521  2023-10-18 12:57:39.462232
2522  2023-10-18 12:57:39.494152
2523  2023-10-18 12:57:39.526032
2524  2023-10-18 12:57:39.557974
2525  2023-10-18 12:57:39.589904
2526  2023-10-18 12:57:39.621814
2527  2023-10-18 12:57:39.654717
2528  2023-10-18 12:57:39.702607
2529  2023-10-18 12:57:39.734508
2530  2023-10-18 12:57:39.766417
2531  2023-10-18 12:57:39.798307
2532  2023-10-18 12:57:39.830250
2533  2023-10-18 12:57:39.862135
2534  2023-10-18 12:57:39.894049
2535  2023-10-18 12:57:39.925973
2536  2023-10-18 12:57:39.957879
2537  2023-10-18 12:57:39.989826
2538  2023-10-18 12:57:40.021740
2539  2023-10-18 12:57:40.054650
2540  2023-10-18 12:57:40.102518
2541  2023-10-18 12:57:40.134433
2542  2023-10-18 12:57:40.166365
2543  2023-10-18 12:57:40.198236
2544  2023-10-18 12:57:40.230150
2545  2023-10-18 12:57:40.262095
2546  2023-10-18 12:57:40.294008
2547  2023-10-18 12:57:40.325924
2548  2023-10-18 12:57:40.358875
2549  2023-10-18 12:57:40.390749
2550  2023-10-18 12:57:40.421686
2551  2023-10-18 12:57:40.454586
2552  2023-10-18 12:57:40.502458
2553  2023-10-18 12:57:40.534364
2554  2023-10-18 12:57:40.566300
2555  2023-10-18 12:57:40.598206
2556  2023-10-18 12:57:40.630108
2557  2023-10-18 12:57:40.662038
2558  2023-10-18 12:57:40.693956
2559  2023-10-18 12:57:40.725828
2560  2023-10-18 12:57:40.757794
2561  2023-10-18 12:57:40.789679
2562  2023-10-18 12:57:40.821624
2563  2023-10-18 12:57:40.853509
2564  2023-10-18 12:57:40.902402
2565  2023-10-18 12:57:40.934296
2566  2023-10-18 12:57:40.966216
2567  2023-10-18 12:57:40.998136
2568  2023-10-18 12:57:41.030015
2569  2023-10-18 12:57:41.061926
2570  2023-10-18 12:57:41.093841
2571  2023-10-18 12:57:41.125756
2572  2023-10-18 12:57:41.157696
2573  2023-10-18 12:57:41.189614
2574  2023-10-18 12:57:41.222533
2575  2023-10-18 12:57:41.254465
2576  2023-10-18 12:57:41.302282
2577  2023-10-18 12:57:41.334223
2578  2023-10-18 12:57:41.366150
2579  2023-10-18 12:57:41.398056
2580  2023-10-18 12:57:41.429967
2581  2023-10-18 12:57:41.461893
2582  2023-10-18 12:57:41.493805
2583  2023-10-18 12:57:41.525727
2584  2023-10-18 12:57:41.557605
2585  2023-10-18 12:57:41.590516
2586  2023-10-18 12:57:41.621456
2587  2023-10-18 12:57:41.654341
2588  2023-10-18 12:57:41.701244
2589  2023-10-18 12:57:41.734153
2590  2023-10-18 12:57:41.766081
2591  2023-10-18 12:57:41.797956
2592  2023-10-18 12:57:41.829898
2593  2023-10-18 12:57:41.861784
2594  2023-10-18 12:57:41.894698
2595  2023-10-18 12:57:41.925620
2596  2023-10-18 12:57:41.957575
2597  2023-10-18 12:57:41.991440
2598  2023-10-18 12:57:42.021392
2599  2023-10-18 12:57:42.054272
2600  2023-10-18 12:57:42.102145
2601  2023-10-18 12:57:42.134090
2602  2023-10-18 12:57:42.165980
2603  2023-10-18 12:57:42.197915
2604  2023-10-18 12:57:42.229839
2605  2023-10-18 12:57:42.261751
2606  2023-10-18 12:57:42.293663
2607  2023-10-18 12:57:42.325589
2608  2023-10-18 12:57:42.359483
2609  2023-10-18 12:57:42.389430
2610  2023-10-18 12:57:42.421353
2611  2023-10-18 12:57:42.454229
2612  2023-10-18 12:57:42.502073
2613  2023-10-18 12:57:42.534032
2614  2023-10-18 12:57:42.565955
2615  2023-10-18 12:57:42.597860
2616  2023-10-18 12:57:42.629767
2617  2023-10-18 12:57:42.662648
2618  2023-10-18 12:57:42.693603
2619  2023-10-18 12:57:42.725511
2620  2023-10-18 12:57:42.757391
2621  2023-10-18 12:57:42.789353
2622  2023-10-18 12:57:42.821220
2623  2023-10-18 12:57:42.871147
2624  2023-10-18 12:57:42.903036
2625  2023-10-18 12:57:42.933918
2626  2023-10-18 12:57:42.965832
2627  2023-10-18 12:57:42.998780
2628  2023-10-18 12:57:43.030687
2629  2023-10-18 12:57:43.062574
2630  2023-10-18 12:57:43.094488
2631  2023-10-18 12:57:43.125434
2632  2023-10-18 12:57:43.159369
2633  2023-10-18 12:57:43.190232
2634  2023-10-18 12:57:43.222148
2635  2023-10-18 12:57:43.271041
2636  2023-10-18 12:57:43.302956
2637  2023-10-18 12:57:43.333848
2638  2023-10-18 12:57:43.365762
2639  2023-10-18 12:57:43.398718
2640  2023-10-18 12:57:43.430622
2641  2023-10-18 12:57:43.462561
2642  2023-10-18 12:57:43.493458
2643  2023-10-18 12:57:43.525382
2644  2023-10-18 12:57:43.557252
2645  2023-10-18 12:57:43.590163
2646  2023-10-18 12:57:43.622079
2647  2023-10-18 12:57:43.670985
2648  2023-10-18 12:57:43.702899
2649  2023-10-18 12:57:43.733778
2650  2023-10-18 12:57:43.765728
2651  2023-10-18 12:57:43.798652
2652  2023-10-18 12:57:43.830562
2653  2023-10-18 12:57:43.862463
2654  2023-10-18 12:57:43.893386
2655  2023-10-18 12:57:43.926264
2656  2023-10-18 12:57:43.959214
2657  2023-10-18 12:57:43.991157
2658  2023-10-18 12:57:44.023060
2659  2023-10-18 12:57:44.070910
2660  2023-10-18 12:57:44.102833
2661  2023-10-18 12:57:44.134737
2662  2023-10-18 12:57:44.165667
2663  2023-10-18 12:57:44.197575
2664  2023-10-18 12:57:44.230479
2665  2023-10-18 12:57:44.262396
2666  2023-10-18 12:57:44.295278
2667  2023-10-18 12:57:44.326225
2668  2023-10-18 12:57:44.358108
2669  2023-10-18 12:57:44.390067
2670  2023-10-18 12:57:44.422978
2671  2023-10-18 12:57:44.470832
2672  2023-10-18 12:57:44.501759
2673  2023-10-18 12:57:44.534671
2674  2023-10-18 12:57:44.565585
2675  2023-10-18 12:57:44.597497
2676  2023-10-18 12:57:44.630408
2677  2023-10-18 12:57:44.662336
2678  2023-10-18 12:57:44.695236
2679  2023-10-18 12:57:44.726124
2680  2023-10-18 12:57:44.758064
2681  2023-10-18 12:57:44.791002
2682  2023-10-18 12:57:44.822864
2683  2023-10-18 12:57:44.869766
2684  2023-10-18 12:57:44.901680
2685  2023-10-18 12:57:44.934595
2686  2023-10-18 12:57:44.965529
2687  2023-10-18 12:57:44.997437
2688  2023-10-18 12:57:45.030348
2689  2023-10-18 12:57:45.062229
2690  2023-10-18 12:57:45.095176
2691  2023-10-18 12:57:45.126054
2692  2023-10-18 12:57:45.157996
2693  2023-10-18 12:57:45.190909
2694  2023-10-18 12:57:45.222830
2695  2023-10-18 12:57:45.269702
2696  2023-10-18 12:57:45.301611
2697  2023-10-18 12:57:45.333544
2698  2023-10-18 12:57:45.365412
2699  2023-10-18 12:57:45.397333
2700  2023-10-18 12:57:45.430240
2701  2023-10-18 12:57:45.462200
2702  2023-10-18 12:57:45.494107
2703  2023-10-18 12:57:45.525983
2704  2023-10-18 12:57:45.557899
2705  2023-10-18 12:57:45.590854
2706  2023-10-18 12:57:45.622767
2707  2023-10-18 12:57:45.669641
2708  2023-10-18 12:57:45.701558
2709  2023-10-18 12:57:45.733459
2710  2023-10-18 12:57:45.765370
2711  2023-10-18 12:57:45.797297
2712  2023-10-18 12:57:45.830197
2713  2023-10-18 12:57:45.862133
2714  2023-10-18 12:57:45.895037
2715  2023-10-18 12:57:45.925915
2716  2023-10-18 12:57:45.957829
2717  2023-10-18 12:57:45.990774
2718  2023-10-18 12:57:46.022693
2719  2023-10-18 12:57:46.070560
2720  2023-10-18 12:57:46.101444
2721  2023-10-18 12:57:46.134394
2722  2023-10-18 12:57:46.165303
2723  2023-10-18 12:57:46.197188
2724  2023-10-18 12:57:46.230101
2725  2023-10-18 12:57:46.262059
2726  2023-10-18 12:57:46.293979
2727  2023-10-18 12:57:46.325845
2728  2023-10-18 12:57:46.357759
2729  2023-10-18 12:57:46.390675
2730  2023-10-18 12:57:46.437574
2731  2023-10-18 12:57:46.469496
2732  2023-10-18 12:57:46.501431
2733  2023-10-18 12:57:46.533322
2734  2023-10-18 12:57:46.565242
2735  2023-10-18 12:57:46.598143
2736  2023-10-18 12:57:46.630072
2737  2023-10-18 12:57:46.661973
2738  2023-10-18 12:57:46.693892
2739  2023-10-18 12:57:46.725806
2740  2023-10-18 12:57:46.757746
2741  2023-10-18 12:57:46.789650
2742  2023-10-18 12:57:46.837475
2743  2023-10-18 12:57:46.869419
2744  2023-10-18 12:57:46.901350
2745  2023-10-18 12:57:46.933255
2746  2023-10-18 12:57:46.966134
2747  2023-10-18 12:57:46.998074
2748  2023-10-18 12:57:47.029995
2749  2023-10-18 12:57:47.061911
2750  2023-10-18 12:57:47.094816
2751  2023-10-18 12:57:47.125706
2752  2023-10-18 12:57:47.157651
2753  2023-10-18 12:57:47.190568
2754  2023-10-18 12:57:47.237406
2755  2023-10-18 12:57:47.270319
2756  2023-10-18 12:57:47.303256
2757  2023-10-18 12:57:47.334147
2758  2023-10-18 12:57:47.366066
2759  2023-10-18 12:57:47.398012
2760  2023-10-18 12:57:47.429929
2761  2023-10-18 12:57:47.461857
2762  2023-10-18 12:57:47.493765
2763  2023-10-18 12:57:47.525668
2764  2023-10-18 12:57:47.558549
2765  2023-10-18 12:57:47.590507
2766  2023-10-18 12:57:47.638375
2767  2023-10-18 12:57:47.670251
2768  2023-10-18 12:57:47.702164
2769  2023-10-18 12:57:47.734077
2770  2023-10-18 12:57:47.766033
2771  2023-10-18 12:57:47.797939
2772  2023-10-18 12:57:47.829822
2773  2023-10-18 12:57:47.861737
2774  2023-10-18 12:57:47.894650
2775  2023-10-18 12:57:47.925610
2776  2023-10-18 12:57:47.957514
2777  2023-10-18 12:57:47.990422
2778  2023-10-18 12:57:48.037306
2779  2023-10-18 12:57:48.069231
2780  2023-10-18 12:57:48.102094
2781  2023-10-18 12:57:48.134042
2782  2023-10-18 12:57:48.165922
2783  2023-10-18 12:57:48.197836
2784  2023-10-18 12:57:48.229796
2785  2023-10-18 12:57:48.261703
2786  2023-10-18 12:57:48.293607
2787  2023-10-18 12:57:48.325531
2788  2023-10-18 12:57:48.357439
2789  2023-10-18 12:57:48.389330
2790  2023-10-18 12:57:48.437230
2791  2023-10-18 12:57:48.470109
2792  2023-10-18 12:57:48.502066
2793  2023-10-18 12:57:48.533964
2794  2023-10-18 12:57:48.565892
2795  2023-10-18 12:57:48.597767
2796  2023-10-18 12:57:48.629721
2797  2023-10-18 12:57:48.661596
2798  2023-10-18 12:57:48.695505
2799  2023-10-18 12:57:48.725462
2800  2023-10-18 12:57:48.758338
2801  2023-10-18 12:57:48.790292
2802  2023-10-18 12:57:48.838123
2803  2023-10-18 12:57:48.870066
2804  2023-10-18 12:57:48.901983
2805  2023-10-18 12:57:48.933901
2806  2023-10-18 12:57:48.965813
2807  2023-10-18 12:57:48.997734
2808  2023-10-18 12:57:49.029631
2809  2023-10-18 12:57:49.061527
2810  2023-10-18 12:57:49.094507
2811  2023-10-18 12:57:49.125357
2812  2023-10-18 12:57:49.157306
2813  2023-10-18 12:57:49.190228
2814  2023-10-18 12:57:49.238054
2815  2023-10-18 12:57:49.269969
2816  2023-10-18 12:57:49.301883
2817  2023-10-18 12:57:49.333837
2818  2023-10-18 12:57:49.365739
2819  2023-10-18 12:57:49.397651
2820  2023-10-18 12:57:49.429572
2821  2023-10-18 12:57:49.461457
2822  2023-10-18 12:57:49.494369
2823  2023-10-18 12:57:49.526284
2824  2023-10-18 12:57:49.557201
2825  2023-10-18 12:57:49.590115
2826  2023-10-18 12:57:49.638012
2827  2023-10-18 12:57:49.669930
2828  2023-10-18 12:57:49.701843
2829  2023-10-18 12:57:49.733758
2830  2023-10-18 12:57:49.765680
2831  2023-10-18 12:57:49.797557
2832  2023-10-18 12:57:49.829502
2833  2023-10-18 12:57:49.861415
2834  2023-10-18 12:57:49.894330
2835  2023-10-18 12:57:49.926216
2836  2023-10-18 12:57:49.958128
2837  2023-10-18 12:57:49.990043
2838  2023-10-18 12:57:50.037914
2839  2023-10-18 12:57:50.069868
2840  2023-10-18 12:57:50.101776
2841  2023-10-18 12:57:50.133660
2842  2023-10-18 12:57:50.165601
2843  2023-10-18 12:57:50.197487
2844  2023-10-18 12:57:50.229460
2845  2023-10-18 12:57:50.261355
2846  2023-10-18 12:57:50.294229
2847  2023-10-18 12:57:50.326144
2848  2023-10-18 12:57:50.358059
2849  2023-10-18 12:57:50.405957
2850  2023-10-18 12:57:50.437880
2851  2023-10-18 12:57:50.469759
2852  2023-10-18 12:57:50.501676
2853  2023-10-18 12:57:50.533622
2854  2023-10-18 12:57:50.565531
2855  2023-10-18 12:57:50.598418
2856  2023-10-18 12:57:50.629334
2857  2023-10-18 12:57:50.662245
2858  2023-10-18 12:57:50.694160
2859  2023-10-18 12:57:50.726075
2860  2023-10-18 12:57:50.757990
2861  2023-10-18 12:57:50.805907
2862  2023-10-18 12:57:50.837778
2863  2023-10-18 12:57:50.869690
2864  2023-10-18 12:57:50.901644
2865  2023-10-18 12:57:50.933568
2866  2023-10-18 12:57:50.965464
2867  2023-10-18 12:57:50.997348
2868  2023-10-18 12:57:51.029262
2869  2023-10-18 12:57:51.061178
2870  2023-10-18 12:57:51.094124
2871  2023-10-18 12:57:51.126004
2872  2023-10-18 12:57:51.157920
2873  2023-10-18 12:57:51.205830
2874  2023-10-18 12:57:51.237705
2875  2023-10-18 12:57:51.269662
2876  2023-10-18 12:57:51.301562
2877  2023-10-18 12:57:51.333493
2878  2023-10-18 12:57:51.365394
2879  2023-10-18 12:57:51.397313
2880  2023-10-18 12:57:51.429193
2881  2023-10-18 12:57:51.462106
2882  2023-10-18 12:57:51.494020
2883  2023-10-18 12:57:51.525935
2884  2023-10-18 12:57:51.557849
2885  2023-10-18 12:57:51.605774
2886  2023-10-18 12:57:51.637664
2887  2023-10-18 12:57:51.669552
2888  2023-10-18 12:57:51.701508
2889  2023-10-18 12:57:51.733423
2890  2023-10-18 12:57:51.765346
2891  2023-10-18 12:57:51.797210
2892  2023-10-18 12:57:51.830150
2893  2023-10-18 12:57:51.862084
2894  2023-10-18 12:57:51.893951
2895  2023-10-18 12:57:51.925881
2896  2023-10-18 12:57:51.957807
2897  2023-10-18 12:57:52.005679
2898  2023-10-18 12:57:52.037567
2899  2023-10-18 12:57:52.069510
2900  2023-10-18 12:57:52.101433
2901  2023-10-18 12:57:52.134335
2902  2023-10-18 12:57:52.165253
2903  2023-10-18 12:57:52.198137
2904  2023-10-18 12:57:52.230085
2905  2023-10-18 12:57:52.262015
2906  2023-10-18 12:57:52.293907
2907  2023-10-18 12:57:52.325844
2908  2023-10-18 12:57:52.357710
2909  2023-10-18 12:57:52.405634
2910  2023-10-18 12:57:52.437533
2911  2023-10-18 12:57:52.469450
2912  2023-10-18 12:57:52.502324
2913  2023-10-18 12:57:52.534246
2914  2023-10-18 12:57:52.566157
2915  2023-10-18 12:57:52.598124
2916  2023-10-18 12:57:52.630008
2917  2023-10-18 12:57:52.661925
2918  2023-10-18 12:57:52.693847
2919  2023-10-18 12:57:52.725756
2920  2023-10-18 12:57:52.757641
2921  2023-10-18 12:57:52.806543
2922  2023-10-18 12:57:52.837427
2923  2023-10-18 12:57:52.869370
2924  2023-10-18 12:57:52.902291
2925  2023-10-18 12:57:52.933204
2926  2023-10-18 12:57:52.966082
2927  2023-10-18 12:57:52.998034
2928  2023-10-18 12:57:53.029912
2929  2023-10-18 12:57:53.061859
2930  2023-10-18 12:57:53.093741
2931  2023-10-18 12:57:53.125697
2932  2023-10-18 12:57:53.157571
2933  2023-10-18 12:57:53.205476
2934  2023-10-18 12:57:53.237385
2935  2023-10-18 12:57:53.269299
2936  2023-10-18 12:57:53.302222
2937  2023-10-18 12:57:53.334128
2938  2023-10-18 12:57:53.366044
2939  2023-10-18 12:57:53.397957
2940  2023-10-18 12:57:53.429842
2941  2023-10-18 12:57:53.461773
2942  2023-10-18 12:57:53.494709
2943  2023-10-18 12:57:53.525625
2944  2023-10-18 12:57:53.557501
2945  2023-10-18 12:57:53.605377
2946  2023-10-18 12:57:53.637315
2947  2023-10-18 12:57:53.669244
2948  2023-10-18 12:57:53.701155
2949  2023-10-18 12:57:53.734076
2950  2023-10-18 12:57:53.765971
2951  2023-10-18 12:57:53.797894
2952  2023-10-18 12:57:53.829822
2953  2023-10-18 12:57:53.861723
2954  2023-10-18 12:57:53.893629
2955  2023-10-18 12:57:53.925553
2956  2023-10-18 12:57:53.973414
2957  2023-10-18 12:57:54.006301
2958  2023-10-18 12:57:54.038215
2959  2023-10-18 12:57:54.069158
2960  2023-10-18 12:57:54.102089
2961  2023-10-18 12:57:54.133961
2962  2023-10-18 12:57:54.165883
2963  2023-10-18 12:57:54.197815
2964  2023-10-18 12:57:54.229735
2965  2023-10-18 12:57:54.261663
2966  2023-10-18 12:57:54.294530
2967  2023-10-18 12:57:54.325481
2968  2023-10-18 12:57:54.373348
2969  2023-10-18 12:57:54.406258
2970  2023-10-18 12:57:54.437189
2971  2023-10-18 12:57:54.470059
2972  2023-10-18 12:57:54.502026
2973  2023-10-18 12:57:54.533888
2974  2023-10-18 12:57:54.565804
2975  2023-10-18 12:57:54.597745
2976  2023-10-18 12:57:54.629634
2977  2023-10-18 12:57:54.661598
2978  2023-10-18 12:57:54.694461
2979  2023-10-18 12:57:54.725415
2980  2023-10-18 12:57:54.773296
2981  2023-10-18 12:57:54.806199
2982  2023-10-18 12:57:54.838076
2983  2023-10-18 12:57:54.869990
2984  2023-10-18 12:57:54.901933
2985  2023-10-18 12:57:54.933846
2986  2023-10-18 12:57:54.965734
2987  2023-10-18 12:57:54.997649
2988  2023-10-18 12:57:55.029592
2989  2023-10-18 12:57:55.061504
2990  2023-10-18 12:57:55.094425
2991  2023-10-18 12:57:55.126305
2992  2023-10-18 12:57:55.174212
2993  2023-10-18 12:57:55.206152
2994  2023-10-18 12:57:55.238035
2995  2023-10-18 12:57:55.269921
2996  2023-10-18 12:57:55.301834
2997  2023-10-18 12:57:55.333749
2998  2023-10-18 12:57:55.365700
2999  2023-10-18 12:57:55.397610
3000  2023-10-18 12:57:55.429494
3001  2023-10-18 12:57:55.462406
3002  2023-10-18 12:57:55.494361
3003  2023-10-18 12:57:55.526235
3004  2023-10-18 12:57:55.574146
3005  2023-10-18 12:57:55.606050
3006  2023-10-18 12:57:55.637963
3007  2023-10-18 12:57:55.669877
3008  2023-10-18 12:57:55.701799
3009  2023-10-18 12:57:55.733722
3010  2023-10-18 12:57:55.765627
3011  2023-10-18 12:57:55.797535
3012  2023-10-18 12:57:55.829450
3013  2023-10-18 12:57:55.861367
3014  2023-10-18 12:57:55.894291
3015  2023-10-18 12:57:55.926199
3016  2023-10-18 12:57:55.974079
3017  2023-10-18 12:57:56.005977
3018  2023-10-18 12:57:56.037892
3019  2023-10-18 12:57:56.069781
3020  2023-10-18 12:57:56.101725
3021  2023-10-18 12:57:56.133641
3022  2023-10-18 12:57:56.165551
3023  2023-10-18 12:57:56.197468
3024  2023-10-18 12:57:56.229382
3025  2023-10-18 12:57:56.261309
3026  2023-10-18 12:57:56.294181
3027  2023-10-18 12:57:56.326095
3028  2023-10-18 12:57:56.373997
3029  2023-10-18 12:57:56.405909
3030  2023-10-18 12:57:56.437840
3031  2023-10-18 12:57:56.469711
3032  2023-10-18 12:57:56.501626
3033  2023-10-18 12:57:56.533540
3034  2023-10-18 12:57:56.565459
3035  2023-10-18 12:57:56.597373
3036  2023-10-18 12:57:56.629284
3037  2023-10-18 12:57:56.661199
3038  2023-10-18 12:57:56.694113
3039  2023-10-18 12:57:56.726078
3040  2023-10-18 12:57:56.773934
3041  2023-10-18 12:57:56.805844
3042  2023-10-18 12:57:56.837760
3043  2023-10-18 12:57:56.869641
3044  2023-10-18 12:57:56.901586
3045  2023-10-18 12:57:56.933508
3046  2023-10-18 12:57:56.965386
3047  2023-10-18 12:57:56.997338
3048  2023-10-18 12:57:57.029247
3049  2023-10-18 12:57:57.061176
3050  2023-10-18 12:57:57.094043
3051  2023-10-18 12:57:57.125955
3052  2023-10-18 12:57:57.173829
3053  2023-10-18 12:57:57.205789
3054  2023-10-18 12:57:57.237689
3055  2023-10-18 12:57:57.269597
3056  2023-10-18 12:57:57.301486
3057  2023-10-18 12:57:57.333433
3058  2023-10-18 12:57:57.365350
3059  2023-10-18 12:57:57.397287
3060  2023-10-18 12:57:57.430148
3061  2023-10-18 12:57:57.462057
3062  2023-10-18 12:57:57.493973
3063  2023-10-18 12:57:57.525885
3064  2023-10-18 12:57:57.573786
3065  2023-10-18 12:57:57.605699
3066  2023-10-18 12:57:57.637617
3067  2023-10-18 12:57:57.669536
3068  2023-10-18 12:57:57.701457
3069  2023-10-18 12:57:57.733387
3070  2023-10-18 12:57:57.765271
3071  2023-10-18 12:57:57.797191
3072  2023-10-18 12:57:57.830101
3073  2023-10-18 12:57:57.862023
3074  2023-10-18 12:57:57.893902
3075  2023-10-18 12:57:57.941774
3076  2023-10-18 12:57:57.973722
3077  2023-10-18 12:57:58.005631
3078  2023-10-18 12:57:58.037555
3079  2023-10-18 12:57:58.069469
3080  2023-10-18 12:57:58.101350
3081  2023-10-18 12:57:58.133265
3082  2023-10-18 12:57:58.165178
3083  2023-10-18 12:57:58.198141
3084  2023-10-18 12:57:58.230030
3085  2023-10-18 12:57:58.261954
3086  2023-10-18 12:57:58.293876
3087  2023-10-18 12:57:58.341748
3088  2023-10-18 12:57:58.373644
3089  2023-10-18 12:57:58.405561
3090  2023-10-18 12:57:58.437476
3091  2023-10-18 12:57:58.469363
3092  2023-10-18 12:57:58.501313
3093  2023-10-18 12:57:58.533226
3094  2023-10-18 12:57:58.566104
3095  2023-10-18 12:57:58.598048
3096  2023-10-18 12:57:58.629933
3097  2023-10-18 12:57:58.661881
3098  2023-10-18 12:57:58.693805
3099  2023-10-18 12:57:58.741670
3100  2023-10-18 12:57:58.773587
3101  2023-10-18 12:57:58.805463
3102  2023-10-18 12:57:58.837377
3103  2023-10-18 12:57:58.869328
3104  2023-10-18 12:57:58.902248
3105  2023-10-18 12:57:58.933182
3106  2023-10-18 12:57:58.966070
3107  2023-10-18 12:57:58.997991
3108  2023-10-18 12:57:59.029863
3109  2023-10-18 12:57:59.061805
3110  2023-10-18 12:57:59.093692
3111  2023-10-18 12:57:59.141567
3112  2023-10-18 12:57:59.173483
3113  2023-10-18 12:57:59.205435
3114  2023-10-18 12:57:59.237337
3115  2023-10-18 12:57:59.269253
3116  2023-10-18 12:57:59.302170
3117  2023-10-18 12:57:59.334088
3118  2023-10-18 12:57:59.366006
3119  2023-10-18 12:57:59.397915
3120  2023-10-18 12:57:59.429824
3121  2023-10-18 12:57:59.461779
3122  2023-10-18 12:57:59.493622
3123  2023-10-18 12:57:59.541548
3124  2023-10-18 12:57:59.573409
3125  2023-10-18 12:57:59.605328
3126  2023-10-18 12:57:59.638236
3127  2023-10-18 12:57:59.669206
3128  2023-10-18 12:57:59.702100
3129  2023-10-18 12:57:59.734028
3130  2023-10-18 12:57:59.765943
3131  2023-10-18 12:57:59.797836
3132  2023-10-18 12:57:59.829749
3133  2023-10-18 12:57:59.861698
3134  2023-10-18 12:57:59.893553
3135  2023-10-18 12:57:59.941455
3136  2023-10-18 12:57:59.973365
3137  2023-10-18 12:58:00.005290
3138  2023-10-18 12:58:00.038166
3139  2023-10-18 12:58:00.070124
3140  2023-10-18 12:58:00.102030
3141  2023-10-18 12:58:00.133911
3142  2023-10-18 12:58:00.165825
3143  2023-10-18 12:58:00.197766
3144  2023-10-18 12:58:00.229655
3145  2023-10-18 12:58:00.261601
3146  2023-10-18 12:58:00.293485
3147  2023-10-18 12:58:00.342352
3148  2023-10-18 12:58:00.374267
3149  2023-10-18 12:58:00.406182
3150  2023-10-18 12:58:00.438136
3151  2023-10-18 12:58:00.470052
3152  2023-10-18 12:58:00.501966
3153  2023-10-18 12:58:00.533870
3154  2023-10-18 12:58:00.565780
3155  2023-10-18 12:58:00.597669
3156  2023-10-18 12:58:00.629586
3157  2023-10-18 12:58:00.661497
3158  2023-10-18 12:58:00.693415
3159  2023-10-18 12:58:00.741313
3160  2023-10-18 12:58:00.774199
3161  2023-10-18 12:58:00.806112
3162  2023-10-18 12:58:00.838058
3163  2023-10-18 12:58:00.869990
3164  2023-10-18 12:58:00.901882
3165  2023-10-18 12:58:00.933804
3166  2023-10-18 12:58:00.965728
3167  2023-10-18 12:58:00.997629
3168  2023-10-18 12:58:01.029550
3169  2023-10-18 12:58:01.061455
3170  2023-10-18 12:58:01.094342
3171  2023-10-18 12:58:01.141242
3172  2023-10-18 12:58:01.173178
3173  2023-10-18 12:58:01.206042
3174  2023-10-18 12:58:01.237996
3175  2023-10-18 12:58:01.269900
3176  2023-10-18 12:58:01.301817
3177  2023-10-18 12:58:01.333746
3178  2023-10-18 12:58:01.365643
3179  2023-10-18 12:58:01.397558
3180  2023-10-18 12:58:01.429476
3181  2023-10-18 12:58:01.461409
3182  2023-10-18 12:58:01.493302
3183  2023-10-18 12:58:01.542172
3184  2023-10-18 12:58:01.574093
3185  2023-10-18 12:58:01.606002
3186  2023-10-18 12:58:01.637916
3187  2023-10-18 12:58:01.669828
3188  2023-10-18 12:58:01.701756
3189  2023-10-18 12:58:01.733631
3190  2023-10-18 12:58:01.765549
3191  2023-10-18 12:58:01.797495
3192  2023-10-18 12:58:01.829406
3193  2023-10-18 12:58:01.861326
3194  2023-10-18 12:58:01.909189
3195  2023-10-18 12:58:01.942130
3196  2023-10-18 12:58:01.973989
3197  2023-10-18 12:58:02.005904
3198  2023-10-18 12:58:02.037843
3199  2023-10-18 12:58:02.069768
3200  2023-10-18 12:58:02.101680
3201  2023-10-18 12:58:02.133561
3202  2023-10-18 12:58:02.165526
3203  2023-10-18 12:58:02.197426
3204  2023-10-18 12:58:02.229323
3205  2023-10-18 12:58:02.261249
3206  2023-10-18 12:58:02.310118
3207  2023-10-18 12:58:02.342036
3208  2023-10-18 12:58:02.373977
3209  2023-10-18 12:58:02.405859
3210  2023-10-18 12:58:02.437779
3211  2023-10-18 12:58:02.469698
3212  2023-10-18 12:58:02.501615
3213  2023-10-18 12:58:02.533526
3214  2023-10-18 12:58:02.565459
3215  2023-10-18 12:58:02.597358
3216  2023-10-18 12:58:02.629273
3217  2023-10-18 12:58:02.662153
3218  2023-10-18 12:58:02.710047
3219  2023-10-18 12:58:02.741969
3220  2023-10-18 12:58:02.773884
3221  2023-10-18 12:58:02.805763
3222  2023-10-18 12:58:02.837712
3223  2023-10-18 12:58:02.869634
3224  2023-10-18 12:58:02.901539
3225  2023-10-18 12:58:02.933451
3226  2023-10-18 12:58:02.965382
3227  2023-10-18 12:58:02.997278
3228  2023-10-18 12:58:03.029202
3229  2023-10-18 12:58:03.062116
3230  2023-10-18 12:58:03.109975
3231  2023-10-18 12:58:03.141903
3232  2023-10-18 12:58:03.173824
3233  2023-10-18 12:58:03.205737
3234  2023-10-18 12:58:03.237655
3235  2023-10-18 12:58:03.269563
3236  2023-10-18 12:58:03.301480
3237  2023-10-18 12:58:03.333398
3238  2023-10-18 12:58:03.365313
3239  2023-10-18 12:58:03.398179
3240  2023-10-18 12:58:03.430129
3241  2023-10-18 12:58:03.462057
3242  2023-10-18 12:58:03.509921
3243  2023-10-18 12:58:03.541846
3244  2023-10-18 12:58:03.573762
3245  2023-10-18 12:58:03.605650
3246  2023-10-18 12:58:03.637564
3247  2023-10-18 12:58:03.669479
3248  2023-10-18 12:58:03.701424
3249  2023-10-18 12:58:03.733321
3250  2023-10-18 12:58:03.765197
3251  2023-10-18 12:58:03.798113
3252  2023-10-18 12:58:03.830057
3253  2023-10-18 12:58:03.861939
3254  2023-10-18 12:58:03.909851
3255  2023-10-18 12:58:03.941725
3256  2023-10-18 12:58:03.973673
3257  2023-10-18 12:58:04.005592
3258  2023-10-18 12:58:04.037497
3259  2023-10-18 12:58:04.069418
3260  2023-10-18 12:58:04.101326
3261  2023-10-18 12:58:04.133218
3262  2023-10-18 12:58:04.166125
3263  2023-10-18 12:58:04.198069
3264  2023-10-18 12:58:04.229957
3265  2023-10-18 12:58:04.261904
3266  2023-10-18 12:58:04.309739
3267  2023-10-18 12:58:04.341694
3268  2023-10-18 12:58:04.373626
3269  2023-10-18 12:58:04.405514
3270  2023-10-18 12:58:04.437439
3271  2023-10-18 12:58:04.469313
3272  2023-10-18 12:58:04.501264
3273  2023-10-18 12:58:04.534176
3274  2023-10-18 12:58:04.566099
3275  2023-10-18 12:58:04.598004
3276  2023-10-18 12:58:04.629912
3277  2023-10-18 12:58:04.661832
3278  2023-10-18 12:58:04.709700
3279  2023-10-18 12:58:04.741665
3280  2023-10-18 12:58:04.773579
3281  2023-10-18 12:58:04.805494
3282  2023-10-18 12:58:04.837409
3283  2023-10-18 12:58:04.869365
3284  2023-10-18 12:58:04.901238
3285  2023-10-18 12:58:04.933198
3286  2023-10-18 12:58:04.966105
3287  2023-10-18 12:58:04.998034
3288  2023-10-18 12:58:05.029893
3289  2023-10-18 12:58:05.061808
3290  2023-10-18 12:58:05.109707
3291  2023-10-18 12:58:05.141596
3292  2023-10-18 12:58:05.173554
3293  2023-10-18 12:58:05.205424
3294  2023-10-18 12:58:05.237343
3295  2023-10-18 12:58:05.269256
3296  2023-10-18 12:58:05.302166
3297  2023-10-18 12:58:05.334079
3298  2023-10-18 12:58:05.366038
3299  2023-10-18 12:58:05.397913
3300  2023-10-18 12:58:05.429853
3301  2023-10-18 12:58:05.477732
3302  2023-10-18 12:58:05.509651
3303  2023-10-18 12:58:05.541525
3304  2023-10-18 12:58:05.573440
3305  2023-10-18 12:58:05.605402
3306  2023-10-18 12:58:05.637296
3307  2023-10-18 12:58:05.670181
3308  2023-10-18 12:58:05.702096
3309  2023-10-18 12:58:05.734010
3310  2023-10-18 12:58:05.765925
3311  2023-10-18 12:58:05.797839
3312  2023-10-18 12:58:05.829795
3313  2023-10-18 12:58:05.877626
3314  2023-10-18 12:58:05.909582
3315  2023-10-18 12:58:05.941455
3316  2023-10-18 12:58:05.973399
3317  2023-10-18 12:58:06.005325
3318  2023-10-18 12:58:06.037239
3319  2023-10-18 12:58:06.070111
3320  2023-10-18 12:58:06.102027
3321  2023-10-18 12:58:06.133973
3322  2023-10-18 12:58:06.165883
3323  2023-10-18 12:58:06.197796
3324  2023-10-18 12:58:06.229718
3325  2023-10-18 12:58:06.277610
3326  2023-10-18 12:58:06.309499
3327  2023-10-18 12:58:06.341385
3328  2023-10-18 12:58:06.373300
3329  2023-10-18 12:58:06.405241
3330  2023-10-18 12:58:06.438127
3331  2023-10-18 12:58:06.470041
3332  2023-10-18 12:58:06.501956
3333  2023-10-18 12:58:06.533871
3334  2023-10-18 12:58:06.565790
3335  2023-10-18 12:58:06.597702
3336  2023-10-18 12:58:06.629615
3337  2023-10-18 12:58:06.677533
3338  2023-10-18 12:58:06.709428
3339  2023-10-18 12:58:06.741315
3340  2023-10-18 12:58:06.773230
3341  2023-10-18 12:58:06.805146
3342  2023-10-18 12:58:06.838057
3343  2023-10-18 12:58:06.870014
3344  2023-10-18 12:58:06.901886
3345  2023-10-18 12:58:06.933833
3346  2023-10-18 12:58:06.965755
3347  2023-10-18 12:58:06.997630
3348  2023-10-18 12:58:07.029606
3349  2023-10-18 12:58:07.077454
3350  2023-10-18 12:58:07.109362
3351  2023-10-18 12:58:07.141246
3352  2023-10-18 12:58:07.174158
3353  2023-10-18 12:58:07.206072
3354  2023-10-18 12:58:07.237987
3355  2023-10-18 12:58:07.269902
3356  2023-10-18 12:58:07.301816
3357  2023-10-18 12:58:07.333731
3358  2023-10-18 12:58:07.365645
3359  2023-10-18 12:58:07.397560
3360  2023-10-18 12:58:07.429476
3361  2023-10-18 12:58:07.477348
3362  2023-10-18 12:58:07.509267
3363  2023-10-18 12:58:07.542174
3364  2023-10-18 12:58:07.574088
3365  2023-10-18 12:58:07.606002
3366  2023-10-18 12:58:07.637922
3367  2023-10-18 12:58:07.669832
3368  2023-10-18 12:58:07.701746
3369  2023-10-18 12:58:07.733661
3370  2023-10-18 12:58:07.765614
3371  2023-10-18 12:58:07.797519
3372  2023-10-18 12:58:07.829445
3373  2023-10-18 12:58:07.877277
3374  2023-10-18 12:58:07.909242
3375  2023-10-18 12:58:07.942104
3376  2023-10-18 12:58:07.974073
3377  2023-10-18 12:58:08.005961
3378  2023-10-18 12:58:08.037847
3379  2023-10-18 12:58:08.069762
3380  2023-10-18 12:58:08.101734
3381  2023-10-18 12:58:08.133632
3382  2023-10-18 12:58:08.165506
3383  2023-10-18 12:58:08.197421
3384  2023-10-18 12:58:08.229357
3385  2023-10-18 12:58:08.277265
3386  2023-10-18 12:58:08.309155
3387  2023-10-18 12:58:08.342083
3388  2023-10-18 12:58:08.373948
3389  2023-10-18 12:58:08.405863
3390  2023-10-18 12:58:08.437816
3391  2023-10-18 12:58:08.469729
3392  2023-10-18 12:58:08.501610
3393  2023-10-18 12:58:08.533522
3394  2023-10-18 12:58:08.565437
3395  2023-10-18 12:58:08.597356
3396  2023-10-18 12:58:08.629265
3397  2023-10-18 12:58:08.678135
3398  2023-10-18 12:58:08.710049
3399  2023-10-18 12:58:08.741964
3400  2023-10-18 12:58:08.773879
3401  2023-10-18 12:58:08.805793
3402  2023-10-18 12:58:08.837708
3403  2023-10-18 12:58:08.869623
3404  2023-10-18 12:58:08.901538
3405  2023-10-18 12:58:08.933454
3406  2023-10-18 12:58:08.966366
3407  2023-10-18 12:58:08.997281
3408  2023-10-18 12:58:09.029196
3409  2023-10-18 12:58:09.078065
3410  2023-10-18 12:58:09.109979
3411  2023-10-18 12:58:09.141894
3412  2023-10-18 12:58:09.173811
3413  2023-10-18 12:58:09.205723
3414  2023-10-18 12:58:09.237638
3415  2023-10-18 12:58:09.269603
3416  2023-10-18 12:58:09.301468
3417  2023-10-18 12:58:09.333382
3418  2023-10-18 12:58:09.365296
3419  2023-10-18 12:58:09.397211
3420  2023-10-18 12:58:09.446123
3421  2023-10-18 12:58:09.478052
3422  2023-10-18 12:58:09.509948
3423  2023-10-18 12:58:09.541824
3424  2023-10-18 12:58:09.573739
3425  2023-10-18 12:58:09.605692
3426  2023-10-18 12:58:09.637607
3427  2023-10-18 12:58:09.669483
3428  2023-10-18 12:58:09.701398
3429  2023-10-18 12:58:09.733312
3430  2023-10-18 12:58:09.765228
3431  2023-10-18 12:58:09.798140
3432  2023-10-18 12:58:09.846040
3433  2023-10-18 12:58:09.877926
3434  2023-10-18 12:58:09.909905
3435  2023-10-18 12:58:09.941804
3436  2023-10-18 12:58:09.973707
3437  2023-10-18 12:58:10.005620
3438  2023-10-18 12:58:10.037541
3439  2023-10-18 12:58:10.069463
3440  2023-10-18 12:58:10.101388
3441  2023-10-18 12:58:10.133278
3442  2023-10-18 12:58:10.165192
3443  2023-10-18 12:58:10.198120
3444  2023-10-18 12:58:10.245983
3445  2023-10-18 12:58:10.277900
3446  2023-10-18 12:58:10.309809
3447  2023-10-18 12:58:10.341685
3448  2023-10-18 12:58:10.373640
3449  2023-10-18 12:58:10.405514
3450  2023-10-18 12:58:10.437430
3451  2023-10-18 12:58:10.470342
3452  2023-10-18 12:58:10.502257
3453  2023-10-18 12:58:10.533214
3454  2023-10-18 12:58:10.566134
3455  2023-10-18 12:58:10.598000
3456  2023-10-18 12:58:10.645910
3457  2023-10-18 12:58:10.677817
3458  2023-10-18 12:58:10.709737
3459  2023-10-18 12:58:10.741620
3460  2023-10-18 12:58:10.773534
3461  2023-10-18 12:58:10.805445
3462  2023-10-18 12:58:10.837418
3463  2023-10-18 12:58:10.869311
3464  2023-10-18 12:58:10.901231
3465  2023-10-18 12:58:10.934100
3466  2023-10-18 12:58:10.966015
3467  2023-10-18 12:58:10.997983
3468  2023-10-18 12:58:11.045850
3469  2023-10-18 12:58:11.077749
3470  2023-10-18 12:58:11.109667
3471  2023-10-18 12:58:11.141599
3472  2023-10-18 12:58:11.173494
3473  2023-10-18 12:58:11.205424
3474  2023-10-18 12:58:11.237336
3475  2023-10-18 12:58:11.269248
3476  2023-10-18 12:58:11.301155
3477  2023-10-18 12:58:11.334032
3478  2023-10-18 12:58:11.365989
3479  2023-10-18 12:58:11.397901
3480  2023-10-18 12:58:11.445734
3481  2023-10-18 12:58:11.477650
3482  2023-10-18 12:58:11.509562
3483  2023-10-18 12:58:11.541516
3484  2023-10-18 12:58:11.573438
3485  2023-10-18 12:58:11.605337
3486  2023-10-18 12:58:11.638219
3487  2023-10-18 12:58:11.670184
3488  2023-10-18 12:58:11.702091
3489  2023-10-18 12:58:11.733962
3490  2023-10-18 12:58:11.765876
3491  2023-10-18 12:58:11.797796
3492  2023-10-18 12:58:11.845664
3493  2023-10-18 12:58:11.877612
3494  2023-10-18 12:58:11.909543
3495  2023-10-18 12:58:11.941448
3496  2023-10-18 12:58:11.973348
3497  2023-10-18 12:58:12.005280
3498  2023-10-18 12:58:12.038147
3499  2023-10-18 12:58:12.070068
3500  2023-10-18 12:58:12.101982
3501  2023-10-18 12:58:12.133934
3502  2023-10-18 12:58:12.165852
3503  2023-10-18 12:58:12.197748
3504  2023-10-18 12:58:12.245632
3505  2023-10-18 12:58:12.277545
3506  2023-10-18 12:58:12.309448
3507  2023-10-18 12:58:12.341374
3508  2023-10-18 12:58:12.373295
3509  2023-10-18 12:58:12.405212
3510  2023-10-18 12:58:12.438114
3511  2023-10-18 12:58:12.470027
3512  2023-10-18 12:58:12.501956
3513  2023-10-18 12:58:12.533848
3514  2023-10-18 12:58:12.565736
3515  2023-10-18 12:58:12.597651
3516  2023-10-18 12:58:12.645561
3517  2023-10-18 12:58:12.677488
3518  2023-10-18 12:58:12.709392
3519  2023-10-18 12:58:12.741317
3520  2023-10-18 12:58:12.774180
3521  2023-10-18 12:58:12.806094
3522  2023-10-18 12:58:12.838049
3523  2023-10-18 12:58:12.869958
3524  2023-10-18 12:58:12.901873
3525  2023-10-18 12:58:12.933799
3526  2023-10-18 12:58:12.965707
3527  2023-10-18 12:58:13.013582
3528  2023-10-18 12:58:13.045489
3529  2023-10-18 12:58:13.077434
3530  2023-10-18 12:58:13.109331
3531  2023-10-18 12:58:13.142231
3532  2023-10-18 12:58:13.174139
3533  2023-10-18 12:58:13.206054
3534  2023-10-18 12:58:13.237990
3535  2023-10-18 12:58:13.269914
3536  2023-10-18 12:58:13.301769
3537  2023-10-18 12:58:13.333728
3538  2023-10-18 12:58:13.365645
3539  2023-10-18 12:58:13.413496
3540  2023-10-18 12:58:13.445418
3541  2023-10-18 12:58:13.477326
3542  2023-10-18 12:58:13.510245
3543  2023-10-18 12:58:13.541171
3544  2023-10-18 12:58:13.574086
3545  2023-10-18 12:58:13.605989
3546  2023-10-18 12:58:13.637868
3547  2023-10-18 12:58:13.669782
3548  2023-10-18 12:58:13.701733
3549  2023-10-18 12:58:13.733662
3550  2023-10-18 12:58:13.765566
3551  2023-10-18 12:58:13.813403
3552  2023-10-18 12:58:13.846312
3553  2023-10-18 12:58:13.878228
3554  2023-10-18 12:58:13.910174
3555  2023-10-18 12:58:13.942124
3556  2023-10-18 12:58:13.974031
3557  2023-10-18 12:58:14.005923
3558  2023-10-18 12:58:14.037844
3559  2023-10-18 12:58:14.069758
3560  2023-10-18 12:58:14.101663
3561  2023-10-18 12:58:14.133571
