
1  2023-10-25 10:09:21.163765
2  2023-10-25 10:09:21.195680
3  2023-10-25 10:09:21.227627
4  2023-10-25 10:09:21.259541
5  2023-10-25 10:09:21.291488
6  2023-10-25 10:09:21.339328
7  2023-10-25 10:09:21.372242
8  2023-10-25 10:09:21.403157
9  2023-10-25 10:09:21.436071
10  2023-10-25 10:09:21.466991
11  2023-10-25 10:09:21.498906
12  2023-10-25 10:09:21.531814
13  2023-10-25 10:09:21.563728
14  2023-10-25 10:09:21.595643
15  2023-10-25 10:09:21.627557
16  2023-10-25 10:09:21.659472
17  2023-10-25 10:09:21.707344
18  2023-10-25 10:09:21.739259
19  2023-10-25 10:09:21.771176
20  2023-10-25 10:09:21.803118
21  2023-10-25 10:09:21.835013
22  2023-10-25 10:09:21.867941
23  2023-10-25 10:09:21.899831
24  2023-10-25 10:09:21.931797
25  2023-10-25 10:09:21.963721
26  2023-10-25 10:09:21.995770
27  2023-10-25 10:09:22.027684
28  2023-10-25 10:09:22.059599
29  2023-10-25 10:09:22.107471
30  2023-10-25 10:09:22.139385
31  2023-10-25 10:09:22.171300
32  2023-10-25 10:09:22.204214
33  2023-10-25 10:09:22.235200
34  2023-10-25 10:09:22.268041
35  2023-10-25 10:09:22.298959
36  2023-10-25 10:09:22.331871
37  2023-10-25 10:09:22.363815
38  2023-10-25 10:09:22.395744
39  2023-10-25 10:09:22.427615
40  2023-10-25 10:09:22.459530
41  2023-10-25 10:09:22.507401
42  2023-10-25 10:09:22.539316
43  2023-10-25 10:09:22.571231
44  2023-10-25 10:09:22.603146
45  2023-10-25 10:09:22.635075
46  2023-10-25 10:09:22.667082
47  2023-10-25 10:09:22.698953
48  2023-10-25 10:09:22.731118
49  2023-10-25 10:09:22.764021
50  2023-10-25 10:09:22.794978
51  2023-10-25 10:09:22.827851
52  2023-10-25 10:09:22.859766
53  2023-10-25 10:09:22.907638
54  2023-10-25 10:09:22.939629
55  2023-10-25 10:09:22.971604
56  2023-10-25 10:09:23.003518
57  2023-10-25 10:09:23.035433
58  2023-10-25 10:09:23.067348
59  2023-10-25 10:09:23.099262
60  2023-10-25 10:09:23.131177
61  2023-10-25 10:09:23.164090
62  2023-10-25 10:09:23.196004
63  2023-10-25 10:09:23.226921
64  2023-10-25 10:09:23.259833
65  2023-10-25 10:09:23.307712
66  2023-10-25 10:09:23.339620
67  2023-10-25 10:09:23.371535
68  2023-10-25 10:09:23.403449
69  2023-10-25 10:09:23.435365
70  2023-10-25 10:09:23.467278
71  2023-10-25 10:09:23.499193
72  2023-10-25 10:09:23.531108
73  2023-10-25 10:09:23.564020
74  2023-10-25 10:09:23.594937
75  2023-10-25 10:09:23.626851
76  2023-10-25 10:09:23.659764
77  2023-10-25 10:09:23.707635
78  2023-10-25 10:09:23.739550
79  2023-10-25 10:09:23.771499
80  2023-10-25 10:09:23.803380
81  2023-10-25 10:09:23.835294
82  2023-10-25 10:09:23.867209
83  2023-10-25 10:09:23.899123
84  2023-10-25 10:09:23.931038
85  2023-10-25 10:09:23.963950
86  2023-10-25 10:09:23.995865
87  2023-10-25 10:09:24.027780
88  2023-10-25 10:09:24.059694
89  2023-10-25 10:09:24.107566
90  2023-10-25 10:09:24.139481
91  2023-10-25 10:09:24.171396
92  2023-10-25 10:09:24.203389
93  2023-10-25 10:09:24.235308
94  2023-10-25 10:09:24.267216
95  2023-10-25 10:09:24.300083
96  2023-10-25 10:09:24.331995
97  2023-10-25 10:09:24.363912
98  2023-10-25 10:09:24.395827
99  2023-10-25 10:09:24.427822
100  2023-10-25 10:09:24.459736
101  2023-10-25 10:09:24.507643
102  2023-10-25 10:09:24.539617
103  2023-10-25 10:09:24.571543
104  2023-10-25 10:09:24.603448
105  2023-10-25 10:09:24.635363
106  2023-10-25 10:09:24.667279
107  2023-10-25 10:09:24.699191
108  2023-10-25 10:09:24.731106
109  2023-10-25 10:09:24.763021
110  2023-10-25 10:09:24.795932
111  2023-10-25 10:09:24.826851
112  2023-10-25 10:09:24.858765
113  2023-10-25 10:09:24.907633
114  2023-10-25 10:09:24.939548
115  2023-10-25 10:09:24.971463
116  2023-10-25 10:09:25.003377
117  2023-10-25 10:09:25.035292
118  2023-10-25 10:09:25.067208
119  2023-10-25 10:09:25.099122
120  2023-10-25 10:09:25.131543
121  2023-10-25 10:09:25.163458
122  2023-10-25 10:09:25.195373
123  2023-10-25 10:09:25.227288
124  2023-10-25 10:09:25.259202
125  2023-10-25 10:09:25.308072
126  2023-10-25 10:09:25.339853
127  2023-10-25 10:09:25.371769
128  2023-10-25 10:09:25.403684
129  2023-10-25 10:09:25.435449
130  2023-10-25 10:09:25.467378
131  2023-10-25 10:09:25.499363
132  2023-10-25 10:09:25.531307
133  2023-10-25 10:09:25.563190
134  2023-10-25 10:09:25.596106
135  2023-10-25 10:09:25.627156
136  2023-10-25 10:09:25.675044
137  2023-10-25 10:09:25.706959
138  2023-10-25 10:09:25.740009
139  2023-10-25 10:09:25.770934
140  2023-10-25 10:09:25.803376
141  2023-10-25 10:09:25.835794
142  2023-10-25 10:09:25.867708
143  2023-10-25 10:09:25.899675
144  2023-10-25 10:09:25.931596
145  2023-10-25 10:09:25.963508
146  2023-10-25 10:09:25.995423
147  2023-10-25 10:09:26.027337
148  2023-10-25 10:09:26.075647
149  2023-10-25 10:09:26.107562
150  2023-10-25 10:09:26.139476
151  2023-10-25 10:09:26.171391
152  2023-10-25 10:09:26.203306
153  2023-10-25 10:09:26.235682
154  2023-10-25 10:09:26.267669
155  2023-10-25 10:09:26.299584
156  2023-10-25 10:09:26.331533
157  2023-10-25 10:09:26.363952
158  2023-10-25 10:09:26.394872
159  2023-10-25 10:09:26.427296
160  2023-10-25 10:09:26.475187
161  2023-10-25 10:09:26.507104
162  2023-10-25 10:09:26.539018
163  2023-10-25 10:09:26.570933
164  2023-10-25 10:09:26.603845
165  2023-10-25 10:09:26.635761
166  2023-10-25 10:09:26.667480
167  2023-10-25 10:09:26.699364
168  2023-10-25 10:09:26.731278
169  2023-10-25 10:09:26.763193
170  2023-10-25 10:09:26.795110
171  2023-10-25 10:09:26.828020
172  2023-10-25 10:09:26.874944
173  2023-10-25 10:09:26.907858
174  2023-10-25 10:09:26.938774
175  2023-10-25 10:09:26.971687
176  2023-10-25 10:09:27.003601
177  2023-10-25 10:09:27.035786
178  2023-10-25 10:09:27.067691
179  2023-10-25 10:09:27.099669
180  2023-10-25 10:09:27.131583
181  2023-10-25 10:09:27.163513
182  2023-10-25 10:09:27.195429
183  2023-10-25 10:09:27.227344
184  2023-10-25 10:09:27.275215
185  2023-10-25 10:09:27.307129
186  2023-10-25 10:09:27.339047
187  2023-10-25 10:09:27.370961
188  2023-10-25 10:09:27.403873
189  2023-10-25 10:09:27.435788
190  2023-10-25 10:09:27.467706
191  2023-10-25 10:09:27.499617
192  2023-10-25 10:09:27.531532
193  2023-10-25 10:09:27.563447
194  2023-10-25 10:09:27.595867
195  2023-10-25 10:09:27.627781
196  2023-10-25 10:09:27.675558
197  2023-10-25 10:09:27.707526
198  2023-10-25 10:09:27.739452
199  2023-10-25 10:09:27.771327
200  2023-10-25 10:09:27.803242
201  2023-10-25 10:09:27.835742
202  2023-10-25 10:09:27.867690
203  2023-10-25 10:09:27.899559
204  2023-10-25 10:09:27.931471
205  2023-10-25 10:09:27.963110
206  2023-10-25 10:09:27.996020
207  2023-10-25 10:09:28.027097
208  2023-10-25 10:09:28.074972
209  2023-10-25 10:09:28.107881
210  2023-10-25 10:09:28.139796
211  2023-10-25 10:09:28.171120
212  2023-10-25 10:09:28.203078
213  2023-10-25 10:09:28.234993
214  2023-10-25 10:09:28.267906
215  2023-10-25 10:09:28.299819
216  2023-10-25 10:09:28.331735
217  2023-10-25 10:09:28.363649
218  2023-10-25 10:09:28.396576
219  2023-10-25 10:09:28.427478
220  2023-10-25 10:09:28.475351
221  2023-10-25 10:09:28.507265
222  2023-10-25 10:09:28.540177
223  2023-10-25 10:09:28.571175
224  2023-10-25 10:09:28.603055
225  2023-10-25 10:09:28.635044
226  2023-10-25 10:09:28.666977
227  2023-10-25 10:09:28.698902
228  2023-10-25 10:09:28.731774
229  2023-10-25 10:09:28.763688
230  2023-10-25 10:09:28.796601
231  2023-10-25 10:09:28.827568
232  2023-10-25 10:09:28.875390
233  2023-10-25 10:09:28.907305
234  2023-10-25 10:09:28.939220
235  2023-10-25 10:09:28.971136
236  2023-10-25 10:09:29.004099
237  2023-10-25 10:09:29.036012
238  2023-10-25 10:09:29.067927
239  2023-10-25 10:09:29.098912
240  2023-10-25 10:09:29.131788
241  2023-10-25 10:09:29.163701
242  2023-10-25 10:09:29.195616
243  2023-10-25 10:09:29.243519
244  2023-10-25 10:09:29.275403
245  2023-10-25 10:09:29.307318
246  2023-10-25 10:09:29.339231
247  2023-10-25 10:09:29.371148
248  2023-10-25 10:09:29.404092
249  2023-10-25 10:09:29.435974
250  2023-10-25 10:09:29.466923
251  2023-10-25 10:09:29.499803
252  2023-10-25 10:09:29.531733
253  2023-10-25 10:09:29.563666
254  2023-10-25 10:09:29.595545
255  2023-10-25 10:09:29.643661
256  2023-10-25 10:09:29.675532
257  2023-10-25 10:09:29.707596
258  2023-10-25 10:09:29.739544
259  2023-10-25 10:09:29.771465
260  2023-10-25 10:09:29.803340
261  2023-10-25 10:09:29.835270
262  2023-10-25 10:09:29.867221
263  2023-10-25 10:09:29.899120
264  2023-10-25 10:09:29.930999
265  2023-10-25 10:09:29.963912
266  2023-10-25 10:09:29.995826
267  2023-10-25 10:09:30.043698
268  2023-10-25 10:09:30.075612
269  2023-10-25 10:09:30.107527
270  2023-10-25 10:09:30.139442
271  2023-10-25 10:09:30.171356
272  2023-10-25 10:09:30.203271
273  2023-10-25 10:09:30.235186
274  2023-10-25 10:09:30.267101
275  2023-10-25 10:09:30.299015
276  2023-10-25 10:09:30.331927
277  2023-10-25 10:09:30.363842
278  2023-10-25 10:09:30.395757
279  2023-10-25 10:09:30.443628
280  2023-10-25 10:09:30.475543
281  2023-10-25 10:09:30.507458
282  2023-10-25 10:09:30.539372
283  2023-10-25 10:09:30.571287
284  2023-10-25 10:09:30.603024
285  2023-10-25 10:09:30.635935
286  2023-10-25 10:09:30.666886
287  2023-10-25 10:09:30.699764
288  2023-10-25 10:09:30.731678
289  2023-10-25 10:09:30.763593
290  2023-10-25 10:09:30.796518
291  2023-10-25 10:09:30.843379
292  2023-10-25 10:09:30.875295
293  2023-10-25 10:09:30.907210
294  2023-10-25 10:09:30.939201
295  2023-10-25 10:09:30.971114
296  2023-10-25 10:09:31.003081
297  2023-10-25 10:09:31.035020
298  2023-10-25 10:09:31.067909
299  2023-10-25 10:09:31.099820
300  2023-10-25 10:09:31.131735
301  2023-10-25 10:09:31.163650
302  2023-10-25 10:09:31.195565
303  2023-10-25 10:09:31.243437
304  2023-10-25 10:09:31.275364
305  2023-10-25 10:09:31.307252
306  2023-10-25 10:09:31.339166
307  2023-10-25 10:09:31.371111
308  2023-10-25 10:09:31.403000
309  2023-10-25 10:09:31.434942
310  2023-10-25 10:09:31.466889
311  2023-10-25 10:09:31.499802
312  2023-10-25 10:09:31.531717
313  2023-10-25 10:09:31.563635
314  2023-10-25 10:09:31.595560
315  2023-10-25 10:09:31.643418
316  2023-10-25 10:09:31.675332
317  2023-10-25 10:09:31.707247
318  2023-10-25 10:09:31.739162
319  2023-10-25 10:09:31.771077
320  2023-10-25 10:09:31.803988
321  2023-10-25 10:09:31.835904
322  2023-10-25 10:09:31.866820
323  2023-10-25 10:09:31.899733
324  2023-10-25 10:09:31.931647
325  2023-10-25 10:09:31.963562
326  2023-10-25 10:09:31.995476
327  2023-10-25 10:09:32.043348
328  2023-10-25 10:09:32.075263
329  2023-10-25 10:09:32.107178
330  2023-10-25 10:09:32.140090
331  2023-10-25 10:09:32.171007
332  2023-10-25 10:09:32.203964
333  2023-10-25 10:09:32.235881
334  2023-10-25 10:09:32.266827
335  2023-10-25 10:09:32.299717
336  2023-10-25 10:09:32.331623
337  2023-10-25 10:09:32.363538
338  2023-10-25 10:09:32.395452
339  2023-10-25 10:09:32.443364
340  2023-10-25 10:09:32.475270
341  2023-10-25 10:09:32.507154
342  2023-10-25 10:09:32.539121
343  2023-10-25 10:09:32.571025
344  2023-10-25 10:09:32.603895
345  2023-10-25 10:09:32.634814
346  2023-10-25 10:09:32.667741
347  2023-10-25 10:09:32.699639
348  2023-10-25 10:09:32.731566
349  2023-10-25 10:09:32.763469
350  2023-10-25 10:09:32.811340
351  2023-10-25 10:09:32.843286
352  2023-10-25 10:09:32.875213
353  2023-10-25 10:09:32.907123
354  2023-10-25 10:09:32.940004
355  2023-10-25 10:09:32.971912
356  2023-10-25 10:09:33.003827
357  2023-10-25 10:09:33.035742
358  2023-10-25 10:09:33.067657
359  2023-10-25 10:09:33.099570
360  2023-10-25 10:09:33.131484
361  2023-10-25 10:09:33.163455
362  2023-10-25 10:09:33.211327
363  2023-10-25 10:09:33.243242
364  2023-10-25 10:09:33.275196
365  2023-10-25 10:09:33.307071
366  2023-10-25 10:09:33.338986
367  2023-10-25 10:09:33.371898
368  2023-10-25 10:09:33.403813
369  2023-10-25 10:09:33.435728
370  2023-10-25 10:09:33.467642
371  2023-10-25 10:09:33.499556
372  2023-10-25 10:09:33.531471
373  2023-10-25 10:09:33.564384
374  2023-10-25 10:09:33.611258
375  2023-10-25 10:09:33.643173
376  2023-10-25 10:09:33.675087
377  2023-10-25 10:09:33.707002
378  2023-10-25 10:09:33.738916
379  2023-10-25 10:09:33.771829
380  2023-10-25 10:09:33.803743
381  2023-10-25 10:09:33.835299
382  2023-10-25 10:09:33.867273
383  2023-10-25 10:09:33.899308
384  2023-10-25 10:09:33.931264
385  2023-10-25 10:09:33.964176
386  2023-10-25 10:09:34.012048
387  2023-10-25 10:09:34.042965
388  2023-10-25 10:09:34.074880
389  2023-10-25 10:09:34.107825
390  2023-10-25 10:09:34.139720
391  2023-10-25 10:09:34.171621
392  2023-10-25 10:09:34.203536
393  2023-10-25 10:09:34.235453
394  2023-10-25 10:09:34.267365
395  2023-10-25 10:09:34.299280
396  2023-10-25 10:09:34.331203
397  2023-10-25 10:09:34.363180
398  2023-10-25 10:09:34.411979
399  2023-10-25 10:09:34.442943
400  2023-10-25 10:09:34.474811
401  2023-10-25 10:09:34.506860
402  2023-10-25 10:09:34.539772
403  2023-10-25 10:09:34.571688
404  2023-10-25 10:09:34.603601
405  2023-10-25 10:09:34.635522
406  2023-10-25 10:09:34.667432
407  2023-10-25 10:09:34.699381
408  2023-10-25 10:09:34.731327
409  2023-10-25 10:09:34.763176
410  2023-10-25 10:09:34.811113
411  2023-10-25 10:09:34.842962
412  2023-10-25 10:09:34.874877
413  2023-10-25 10:09:34.907789
414  2023-10-25 10:09:34.939704
415  2023-10-25 10:09:34.971619
416  2023-10-25 10:09:35.003533
417  2023-10-25 10:09:35.035448
418  2023-10-25 10:09:35.067363
419  2023-10-25 10:09:35.099278
420  2023-10-25 10:09:35.131192
421  2023-10-25 10:09:35.163107
422  2023-10-25 10:09:35.210979
423  2023-10-25 10:09:35.242893
424  2023-10-25 10:09:35.274808
425  2023-10-25 10:09:35.307720
426  2023-10-25 10:09:35.339635
427  2023-10-25 10:09:35.371550
428  2023-10-25 10:09:35.403464
429  2023-10-25 10:09:35.435379
430  2023-10-25 10:09:35.467293
431  2023-10-25 10:09:35.499208
432  2023-10-25 10:09:35.531123
433  2023-10-25 10:09:35.563037
434  2023-10-25 10:09:35.611918
435  2023-10-25 10:09:35.642824
436  2023-10-25 10:09:35.675736
437  2023-10-25 10:09:35.707651
438  2023-10-25 10:09:35.739565
439  2023-10-25 10:09:35.771480
440  2023-10-25 10:09:35.803395
441  2023-10-25 10:09:35.835309
442  2023-10-25 10:09:35.867224
443  2023-10-25 10:09:35.899139
444  2023-10-25 10:09:35.931053
445  2023-10-25 10:09:35.963966
446  2023-10-25 10:09:36.010855
447  2023-10-25 10:09:36.043752
448  2023-10-25 10:09:36.075667
449  2023-10-25 10:09:36.107582
450  2023-10-25 10:09:36.139496
451  2023-10-25 10:09:36.171411
452  2023-10-25 10:09:36.203326
453  2023-10-25 10:09:36.235279
454  2023-10-25 10:09:36.267160
455  2023-10-25 10:09:36.299070
456  2023-10-25 10:09:36.331982
457  2023-10-25 10:09:36.363897
458  2023-10-25 10:09:36.411768
459  2023-10-25 10:09:36.443779
460  2023-10-25 10:09:36.475664
461  2023-10-25 10:09:36.507574
462  2023-10-25 10:09:36.539489
463  2023-10-25 10:09:36.571404
464  2023-10-25 10:09:36.603318
465  2023-10-25 10:09:36.635233
466  2023-10-25 10:09:36.668181
467  2023-10-25 10:09:36.699090
468  2023-10-25 10:09:36.732007
469  2023-10-25 10:09:36.778882
470  2023-10-25 10:09:36.811883
471  2023-10-25 10:09:36.843878
472  2023-10-25 10:09:36.874825
473  2023-10-25 10:09:36.907737
474  2023-10-25 10:09:36.939652
475  2023-10-25 10:09:36.971567
476  2023-10-25 10:09:37.003482
477  2023-10-25 10:09:37.035396
478  2023-10-25 10:09:37.067311
479  2023-10-25 10:09:37.099225
480  2023-10-25 10:09:37.131280
481  2023-10-25 10:09:37.179152
482  2023-10-25 10:09:37.211067
483  2023-10-25 10:09:37.242990
484  2023-10-25 10:09:37.275894
485  2023-10-25 10:09:37.307822
486  2023-10-25 10:09:37.339724
487  2023-10-25 10:09:37.371643
488  2023-10-25 10:09:37.403552
489  2023-10-25 10:09:37.435468
490  2023-10-25 10:09:37.467382
491  2023-10-25 10:09:37.499296
492  2023-10-25 10:09:37.531211
493  2023-10-25 10:09:37.579083
494  2023-10-25 10:09:37.610998
495  2023-10-25 10:09:37.642913
496  2023-10-25 10:09:37.675824
497  2023-10-25 10:09:37.707739
498  2023-10-25 10:09:37.739680
499  2023-10-25 10:09:37.771569
500  2023-10-25 10:09:37.803483
501  2023-10-25 10:09:37.835398
502  2023-10-25 10:09:37.867313
503  2023-10-25 10:09:37.899264
504  2023-10-25 10:09:37.931150
505  2023-10-25 10:09:37.979014
506  2023-10-25 10:09:38.010928
507  2023-10-25 10:09:38.042948
508  2023-10-25 10:09:38.074970
509  2023-10-25 10:09:38.107838
510  2023-10-25 10:09:38.139753
511  2023-10-25 10:09:38.171667
512  2023-10-25 10:09:38.203582
513  2023-10-25 10:09:38.235496
514  2023-10-25 10:09:38.267411
515  2023-10-25 10:09:38.299326
516  2023-10-25 10:09:38.331240
517  2023-10-25 10:09:38.379112
518  2023-10-25 10:09:38.411027
519  2023-10-25 10:09:38.442941
520  2023-10-25 10:09:38.474856
521  2023-10-25 10:09:38.506771
522  2023-10-25 10:09:38.539683
523  2023-10-25 10:09:38.571598
524  2023-10-25 10:09:38.603512
525  2023-10-25 10:09:38.635427
526  2023-10-25 10:09:38.667342
527  2023-10-25 10:09:38.699256
528  2023-10-25 10:09:38.731191
529  2023-10-25 10:09:38.779043
530  2023-10-25 10:09:38.810958
531  2023-10-25 10:09:38.842872
532  2023-10-25 10:09:38.875784
533  2023-10-25 10:09:38.907700
534  2023-10-25 10:09:38.939614
535  2023-10-25 10:09:38.971529
536  2023-10-25 10:09:39.003443
537  2023-10-25 10:09:39.036356
538  2023-10-25 10:09:39.067272
539  2023-10-25 10:09:39.099194
540  2023-10-25 10:09:39.132100
541  2023-10-25 10:09:39.178986
542  2023-10-25 10:09:39.211971
543  2023-10-25 10:09:39.243931
544  2023-10-25 10:09:39.274935
545  2023-10-25 10:09:39.307815
546  2023-10-25 10:09:39.339730
547  2023-10-25 10:09:39.372643
548  2023-10-25 10:09:39.403617
549  2023-10-25 10:09:39.435509
550  2023-10-25 10:09:39.467394
551  2023-10-25 10:09:39.500300
552  2023-10-25 10:09:39.531218
553  2023-10-25 10:09:39.579089
554  2023-10-25 10:09:39.612002
555  2023-10-25 10:09:39.643917
556  2023-10-25 10:09:39.675831
557  2023-10-25 10:09:39.707753
558  2023-10-25 10:09:39.739660
559  2023-10-25 10:09:39.771575
560  2023-10-25 10:09:39.803490
561  2023-10-25 10:09:39.835464
562  2023-10-25 10:09:39.867379
563  2023-10-25 10:09:39.900292
564  2023-10-25 10:09:39.932215
565  2023-10-25 10:09:39.979080
566  2023-10-25 10:09:40.010995
567  2023-10-25 10:09:40.043947
568  2023-10-25 10:09:40.075853
569  2023-10-25 10:09:40.107833
570  2023-10-25 10:09:40.139749
571  2023-10-25 10:09:40.171695
572  2023-10-25 10:09:40.203577
573  2023-10-25 10:09:40.235610
574  2023-10-25 10:09:40.267525
575  2023-10-25 10:09:40.299439
576  2023-10-25 10:09:40.347315
577  2023-10-25 10:09:40.379225
578  2023-10-25 10:09:40.411202
579  2023-10-25 10:09:40.443197
580  2023-10-25 10:09:40.476111
581  2023-10-25 10:09:40.508027
582  2023-10-25 10:09:40.538941
583  2023-10-25 10:09:40.571854
584  2023-10-25 10:09:40.603807
585  2023-10-25 10:09:40.635691
586  2023-10-25 10:09:40.667598
587  2023-10-25 10:09:40.699552
588  2023-10-25 10:09:40.747385
589  2023-10-25 10:09:40.779412
590  2023-10-25 10:09:40.811327
591  2023-10-25 10:09:40.843241
592  2023-10-25 10:09:40.875164
593  2023-10-25 10:09:40.908100
594  2023-10-25 10:09:40.940068
595  2023-10-25 10:09:40.971992
596  2023-10-25 10:09:41.003907
597  2023-10-25 10:09:41.034930
598  2023-10-25 10:09:41.067842
599  2023-10-25 10:09:41.099760
600  2023-10-25 10:09:41.147743
601  2023-10-25 10:09:41.179626
602  2023-10-25 10:09:41.211542
603  2023-10-25 10:09:41.243456
604  2023-10-25 10:09:41.275371
605  2023-10-25 10:09:41.307286
606  2023-10-25 10:09:41.339213
607  2023-10-25 10:09:41.372144
608  2023-10-25 10:09:41.403128
609  2023-10-25 10:09:41.435044
610  2023-10-25 10:09:41.466985
611  2023-10-25 10:09:41.499870
612  2023-10-25 10:09:41.547917
613  2023-10-25 10:09:41.579768
614  2023-10-25 10:09:41.611708
615  2023-10-25 10:09:41.643638
616  2023-10-25 10:09:41.675511
617  2023-10-25 10:09:41.707441
618  2023-10-25 10:09:41.739341
619  2023-10-25 10:09:41.771260
620  2023-10-25 10:09:41.803173
621  2023-10-25 10:09:41.835085
622  2023-10-25 10:09:41.868024
623  2023-10-25 10:09:41.899911
624  2023-10-25 10:09:41.947785
625  2023-10-25 10:09:41.979752
626  2023-10-25 10:09:42.011669
627  2023-10-25 10:09:42.043662
628  2023-10-25 10:09:42.075533
629  2023-10-25 10:09:42.107450
630  2023-10-25 10:09:42.139364
631  2023-10-25 10:09:42.171277
632  2023-10-25 10:09:42.203194
633  2023-10-25 10:09:42.235131
634  2023-10-25 10:09:42.268052
635  2023-10-25 10:09:42.299965
636  2023-10-25 10:09:42.347874
637  2023-10-25 10:09:42.379838
638  2023-10-25 10:09:42.411752
639  2023-10-25 10:09:42.443707
640  2023-10-25 10:09:42.475656
641  2023-10-25 10:09:42.507539
642  2023-10-25 10:09:42.539513
643  2023-10-25 10:09:42.571426
644  2023-10-25 10:09:42.603373
645  2023-10-25 10:09:42.635287
646  2023-10-25 10:09:42.667172
647  2023-10-25 10:09:42.699162
648  2023-10-25 10:09:42.747007
649  2023-10-25 10:09:42.778911
650  2023-10-25 10:09:42.811813
651  2023-10-25 10:09:42.842704
652  2023-10-25 10:09:42.875612
653  2023-10-25 10:09:42.907566
654  2023-10-25 10:09:42.939449
655  2023-10-25 10:09:42.971357
656  2023-10-25 10:09:43.003273
657  2023-10-25 10:09:43.036217
658  2023-10-25 10:09:43.067261
659  2023-10-25 10:09:43.099164
660  2023-10-25 10:09:43.147025
661  2023-10-25 10:09:43.178898
662  2023-10-25 10:09:43.211806
663  2023-10-25 10:09:43.242825
664  2023-10-25 10:09:43.274791
665  2023-10-25 10:09:43.307655
666  2023-10-25 10:09:43.339603
667  2023-10-25 10:09:43.371517
668  2023-10-25 10:09:43.403535
669  2023-10-25 10:09:43.435432
670  2023-10-25 10:09:43.467302
671  2023-10-25 10:09:43.499218
672  2023-10-25 10:09:43.547089
673  2023-10-25 10:09:43.579089
674  2023-10-25 10:09:43.611921
675  2023-10-25 10:09:43.643868
676  2023-10-25 10:09:43.674797
677  2023-10-25 10:09:43.707700
678  2023-10-25 10:09:43.739607
679  2023-10-25 10:09:43.771491
680  2023-10-25 10:09:43.803404
681  2023-10-25 10:09:43.835318
682  2023-10-25 10:09:43.867233
683  2023-10-25 10:09:43.900146
684  2023-10-25 10:09:43.947069
685  2023-10-25 10:09:43.978936
686  2023-10-25 10:09:44.010897
687  2023-10-25 10:09:44.042812
688  2023-10-25 10:09:44.075720
689  2023-10-25 10:09:44.107638
690  2023-10-25 10:09:44.139678
691  2023-10-25 10:09:44.171553
692  2023-10-25 10:09:44.203503
693  2023-10-25 10:09:44.235433
694  2023-10-25 10:09:44.267299
695  2023-10-25 10:09:44.315218
696  2023-10-25 10:09:44.347131
697  2023-10-25 10:09:44.380049
698  2023-10-25 10:09:44.411953
699  2023-10-25 10:09:44.442863
700  2023-10-25 10:09:44.475774
701  2023-10-25 10:09:44.507662
702  2023-10-25 10:09:44.539614
703  2023-10-25 10:09:44.571509
704  2023-10-25 10:09:44.603433
705  2023-10-25 10:09:44.635313
706  2023-10-25 10:09:44.667260
707  2023-10-25 10:09:44.715236
708  2023-10-25 10:09:44.747161
709  2023-10-25 10:09:44.779059
710  2023-10-25 10:09:44.810975
711  2023-10-25 10:09:44.842904
712  2023-10-25 10:09:44.874821
713  2023-10-25 10:09:44.907755
714  2023-10-25 10:09:44.939630
715  2023-10-25 10:09:44.971521
716  2023-10-25 10:09:45.003455
717  2023-10-25 10:09:45.035377
718  2023-10-25 10:09:45.067294
719  2023-10-25 10:09:45.115162
720  2023-10-25 10:09:45.147077
721  2023-10-25 10:09:45.179040
722  2023-10-25 10:09:45.211003
723  2023-10-25 10:09:45.242910
724  2023-10-25 10:09:45.274830
725  2023-10-25 10:09:45.307710
726  2023-10-25 10:09:45.339683
727  2023-10-25 10:09:45.371570
728  2023-10-25 10:09:45.403507
729  2023-10-25 10:09:45.435369
730  2023-10-25 10:09:45.467283
731  2023-10-25 10:09:45.515220
732  2023-10-25 10:09:45.547070
733  2023-10-25 10:09:45.579023
734  2023-10-25 10:09:45.610948
735  2023-10-25 10:09:45.642863
736  2023-10-25 10:09:45.674761
737  2023-10-25 10:09:45.707641
738  2023-10-25 10:09:45.739557
739  2023-10-25 10:09:45.771506
740  2023-10-25 10:09:45.803419
741  2023-10-25 10:09:45.835339
742  2023-10-25 10:09:45.867241
743  2023-10-25 10:09:45.915086
744  2023-10-25 10:09:45.947032
745  2023-10-25 10:09:45.978951
746  2023-10-25 10:09:46.010873
747  2023-10-25 10:09:46.043768
748  2023-10-25 10:09:46.075701
749  2023-10-25 10:09:46.107624
750  2023-10-25 10:09:46.139539
751  2023-10-25 10:09:46.171453
752  2023-10-25 10:09:46.203482
753  2023-10-25 10:09:46.235388
754  2023-10-25 10:09:46.267257
755  2023-10-25 10:09:46.315165
756  2023-10-25 10:09:46.347044
757  2023-10-25 10:09:46.378989
758  2023-10-25 10:09:46.410919
759  2023-10-25 10:09:46.443837
760  2023-10-25 10:09:46.475740
761  2023-10-25 10:09:46.507662
762  2023-10-25 10:09:46.539560
763  2023-10-25 10:09:46.571494
764  2023-10-25 10:09:46.603394
765  2023-10-25 10:09:46.635299
766  2023-10-25 10:09:46.667188
767  2023-10-25 10:09:46.715109
768  2023-10-25 10:09:46.747008
769  2023-10-25 10:09:46.778923
770  2023-10-25 10:09:46.811841
771  2023-10-25 10:09:46.842766
772  2023-10-25 10:09:46.875668
773  2023-10-25 10:09:46.907583
774  2023-10-25 10:09:46.939461
775  2023-10-25 10:09:46.971400
776  2023-10-25 10:09:47.003340
777  2023-10-25 10:09:47.035233
778  2023-10-25 10:09:47.067158
779  2023-10-25 10:09:47.115103
780  2023-10-25 10:09:47.147032
781  2023-10-25 10:09:47.178934
782  2023-10-25 10:09:47.210893
783  2023-10-25 10:09:47.243825
784  2023-10-25 10:09:47.275687
785  2023-10-25 10:09:47.307672
786  2023-10-25 10:09:47.339586
787  2023-10-25 10:09:47.371553
788  2023-10-25 10:09:47.403416
789  2023-10-25 10:09:47.435384
790  2023-10-25 10:09:47.467297
791  2023-10-25 10:09:47.515232
792  2023-10-25 10:09:47.547213
793  2023-10-25 10:09:47.579063
794  2023-10-25 10:09:47.611010
795  2023-10-25 10:09:47.642939
796  2023-10-25 10:09:47.674840
797  2023-10-25 10:09:47.707720
798  2023-10-25 10:09:47.739675
799  2023-10-25 10:09:47.771576
800  2023-10-25 10:09:47.803517
801  2023-10-25 10:09:47.835411
802  2023-10-25 10:09:47.883422
803  2023-10-25 10:09:47.915340
804  2023-10-25 10:09:47.947232
805  2023-10-25 10:09:47.979144
806  2023-10-25 10:09:48.012060
807  2023-10-25 10:09:48.042966
808  2023-10-25 10:09:48.074890
809  2023-10-25 10:09:48.107771
810  2023-10-25 10:09:48.139683
811  2023-10-25 10:09:48.171632
812  2023-10-25 10:09:48.203566
813  2023-10-25 10:09:48.235452
814  2023-10-25 10:09:48.283340
815  2023-10-25 10:09:48.315242
816  2023-10-25 10:09:48.347170
817  2023-10-25 10:09:48.379073
818  2023-10-25 10:09:48.410992
819  2023-10-25 10:09:48.443870
820  2023-10-25 10:09:48.474796
821  2023-10-25 10:09:48.507757
822  2023-10-25 10:09:48.539613
823  2023-10-25 10:09:48.571561
824  2023-10-25 10:09:48.603474
825  2023-10-25 10:09:48.635390
826  2023-10-25 10:09:48.683270
827  2023-10-25 10:09:48.715191
828  2023-10-25 10:09:48.747099
829  2023-10-25 10:09:48.779149
830  2023-10-25 10:09:48.811031
831  2023-10-25 10:09:48.842937
832  2023-10-25 10:09:48.874871
833  2023-10-25 10:09:48.906841
834  2023-10-25 10:09:48.939853
835  2023-10-25 10:09:48.971788
836  2023-10-25 10:09:49.003667
837  2023-10-25 10:09:49.035589
838  2023-10-25 10:09:49.083469
839  2023-10-25 10:09:49.115360
840  2023-10-25 10:09:49.147429
841  2023-10-25 10:09:49.179438
842  2023-10-25 10:09:49.211275
843  2023-10-25 10:09:49.243196
844  2023-10-25 10:09:49.275117
845  2023-10-25 10:09:49.307991
846  2023-10-25 10:09:49.339905
847  2023-10-25 10:09:49.370876
848  2023-10-25 10:09:49.403767
849  2023-10-25 10:09:49.435728
850  2023-10-25 10:09:49.483545
851  2023-10-25 10:09:49.515469
852  2023-10-25 10:09:49.547384
853  2023-10-25 10:09:49.579297
854  2023-10-25 10:09:49.611238
855  2023-10-25 10:09:49.643140
856  2023-10-25 10:09:49.675041
857  2023-10-25 10:09:49.706963
858  2023-10-25 10:09:49.739838
859  2023-10-25 10:09:49.771770
860  2023-10-25 10:09:49.803701
861  2023-10-25 10:09:49.835654
862  2023-10-25 10:09:49.883485
863  2023-10-25 10:09:49.915445
864  2023-10-25 10:09:49.947440
865  2023-10-25 10:09:49.979334
866  2023-10-25 10:09:50.011271
867  2023-10-25 10:09:50.043200
868  2023-10-25 10:09:50.075108
869  2023-10-25 10:09:50.106982
870  2023-10-25 10:09:50.139944
871  2023-10-25 10:09:50.170861
872  2023-10-25 10:09:50.203847
873  2023-10-25 10:09:50.235772
874  2023-10-25 10:09:50.283775
875  2023-10-25 10:09:50.315679
876  2023-10-25 10:09:50.347606
877  2023-10-25 10:09:50.379501
878  2023-10-25 10:09:50.411410
879  2023-10-25 10:09:50.443334
880  2023-10-25 10:09:50.475259
881  2023-10-25 10:09:50.507155
882  2023-10-25 10:09:50.539044
883  2023-10-25 10:09:50.571007
884  2023-10-25 10:09:50.602910
885  2023-10-25 10:09:50.635858
886  2023-10-25 10:09:50.683695
887  2023-10-25 10:09:50.715597
888  2023-10-25 10:09:50.747512
889  2023-10-25 10:09:50.779445
890  2023-10-25 10:09:50.811340
891  2023-10-25 10:09:50.843257
892  2023-10-25 10:09:50.875176
893  2023-10-25 10:09:50.907094
894  2023-10-25 10:09:50.939007
895  2023-10-25 10:09:50.971886
896  2023-10-25 10:09:51.003838
897  2023-10-25 10:09:51.035735
898  2023-10-25 10:09:51.082616
899  2023-10-25 10:09:51.115532
900  2023-10-25 10:09:51.147443
901  2023-10-25 10:09:51.179358
902  2023-10-25 10:09:51.211271
903  2023-10-25 10:09:51.243262
904  2023-10-25 10:09:51.275286
905  2023-10-25 10:09:51.307215
906  2023-10-25 10:09:51.339122
907  2023-10-25 10:09:51.371998
908  2023-10-25 10:09:51.403028
909  2023-10-25 10:09:51.435005
910  2023-10-25 10:09:51.482877
911  2023-10-25 10:09:51.514808
912  2023-10-25 10:09:51.547696
913  2023-10-25 10:09:51.579611
914  2023-10-25 10:09:51.611533
915  2023-10-25 10:09:51.643441
916  2023-10-25 10:09:51.675353
917  2023-10-25 10:09:51.707304
918  2023-10-25 10:09:51.739198
919  2023-10-25 10:09:51.771083
920  2023-10-25 10:09:51.804018
921  2023-10-25 10:09:51.850888
922  2023-10-25 10:09:51.882807
923  2023-10-25 10:09:51.915746
924  2023-10-25 10:09:51.947640
925  2023-10-25 10:09:51.979540
926  2023-10-25 10:09:52.011523
927  2023-10-25 10:09:52.043372
928  2023-10-25 10:09:52.075310
929  2023-10-25 10:09:52.107174
930  2023-10-25 10:09:52.140088
931  2023-10-25 10:09:52.171004
932  2023-10-25 10:09:52.202953
933  2023-10-25 10:09:52.251788
934  2023-10-25 10:09:52.283743
935  2023-10-25 10:09:52.315628
936  2023-10-25 10:09:52.347534
937  2023-10-25 10:09:52.379473
938  2023-10-25 10:09:52.411361
939  2023-10-25 10:09:52.443325
940  2023-10-25 10:09:52.475234
941  2023-10-25 10:09:52.507147
942  2023-10-25 10:09:52.539020
943  2023-10-25 10:09:52.571933
944  2023-10-25 10:09:52.603849
945  2023-10-25 10:09:52.651788
946  2023-10-25 10:09:52.683704
947  2023-10-25 10:09:52.715581
948  2023-10-25 10:09:52.747512
949  2023-10-25 10:09:52.779403
950  2023-10-25 10:09:52.811317
951  2023-10-25 10:09:52.843240
952  2023-10-25 10:09:52.875166
953  2023-10-25 10:09:52.907070
954  2023-10-25 10:09:52.939004
955  2023-10-25 10:09:52.970865
956  2023-10-25 10:09:53.003838
957  2023-10-25 10:09:53.051649
958  2023-10-25 10:09:53.083588
959  2023-10-25 10:09:53.115503
960  2023-10-25 10:09:53.147435
961  2023-10-25 10:09:53.179341
962  2023-10-25 10:09:53.211250
963  2023-10-25 10:09:53.243174
964  2023-10-25 10:09:53.275079
965  2023-10-25 10:09:53.307013
966  2023-10-25 10:09:53.339879
967  2023-10-25 10:09:53.371794
968  2023-10-25 10:09:53.403779
969  2023-10-25 10:09:53.451619
970  2023-10-25 10:09:53.483521
971  2023-10-25 10:09:53.515440
972  2023-10-25 10:09:53.547349
973  2023-10-25 10:09:53.579274
974  2023-10-25 10:09:53.611190
975  2023-10-25 10:09:53.643115
976  2023-10-25 10:09:53.675017
977  2023-10-25 10:09:53.706925
978  2023-10-25 10:09:53.739810
979  2023-10-25 10:09:53.771780
980  2023-10-25 10:09:53.803686
981  2023-10-25 10:09:53.851511
982  2023-10-25 10:09:53.883456
983  2023-10-25 10:09:53.915371
984  2023-10-25 10:09:53.947292
985  2023-10-25 10:09:53.979208
986  2023-10-25 10:09:54.011120
987  2023-10-25 10:09:54.043193
988  2023-10-25 10:09:54.075079
989  2023-10-25 10:09:54.107966
990  2023-10-25 10:09:54.138911
991  2023-10-25 10:09:54.171795
992  2023-10-25 10:09:54.203820
993  2023-10-25 10:09:54.250759
994  2023-10-25 10:09:54.283721
995  2023-10-25 10:09:54.315633
996  2023-10-25 10:09:54.347531
997  2023-10-25 10:09:54.379417
998  2023-10-25 10:09:54.411332
999  2023-10-25 10:09:54.443283
1000  2023-10-25 10:09:54.475193
1001  2023-10-25 10:09:54.507134
1002  2023-10-25 10:09:54.538990
1003  2023-10-25 10:09:54.571902
1004  2023-10-25 10:09:54.603819
1005  2023-10-25 10:09:54.651689
1006  2023-10-25 10:09:54.683628
1007  2023-10-25 10:09:54.715545
1008  2023-10-25 10:09:54.747467
1009  2023-10-25 10:09:54.779382
1010  2023-10-25 10:09:54.811262
1011  2023-10-25 10:09:54.843177
1012  2023-10-25 10:09:54.875120
1013  2023-10-25 10:09:54.908004
1014  2023-10-25 10:09:54.938968
1015  2023-10-25 10:09:54.971834
1016  2023-10-25 10:09:55.003756
1017  2023-10-25 10:09:55.051620
1018  2023-10-25 10:09:55.083534
1019  2023-10-25 10:09:55.115473
1020  2023-10-25 10:09:55.147396
1021  2023-10-25 10:09:55.179307
1022  2023-10-25 10:09:55.211193
1023  2023-10-25 10:09:55.243108
1024  2023-10-25 10:09:55.275056
1025  2023-10-25 10:09:55.307996
1026  2023-10-25 10:09:55.339862
1027  2023-10-25 10:09:55.371764
1028  2023-10-25 10:09:55.419637
1029  2023-10-25 10:09:55.451552
1030  2023-10-25 10:09:55.483507
1031  2023-10-25 10:09:55.515412
1032  2023-10-25 10:09:55.547338
1033  2023-10-25 10:09:55.579245
1034  2023-10-25 10:09:55.611151
1035  2023-10-25 10:09:55.643071
1036  2023-10-25 10:09:55.674984
1037  2023-10-25 10:09:55.707868
1038  2023-10-25 10:09:55.739782
1039  2023-10-25 10:09:55.771747
1040  2023-10-25 10:09:55.819611
1041  2023-10-25 10:09:55.851482
1042  2023-10-25 10:09:55.883397
1043  2023-10-25 10:09:55.915335
1044  2023-10-25 10:09:55.947257
1045  2023-10-25 10:09:55.979192
1046  2023-10-25 10:09:56.011056
1047  2023-10-25 10:09:56.043162
1048  2023-10-25 10:09:56.075105
1049  2023-10-25 10:09:56.107019
1050  2023-10-25 10:09:56.139904
1051  2023-10-25 10:09:56.171818
1052  2023-10-25 10:09:56.219690
1053  2023-10-25 10:09:56.251605
1054  2023-10-25 10:09:56.283519
1055  2023-10-25 10:09:56.315434
1056  2023-10-25 10:09:56.347349
1057  2023-10-25 10:09:56.379263
1058  2023-10-25 10:09:56.411178
1059  2023-10-25 10:09:56.443093
1060  2023-10-25 10:09:56.475007
1061  2023-10-25 10:09:56.506958
1062  2023-10-25 10:09:56.539834
1063  2023-10-25 10:09:56.571749
1064  2023-10-25 10:09:56.619621
1065  2023-10-25 10:09:56.651535
1066  2023-10-25 10:09:56.683450
1067  2023-10-25 10:09:56.715365
1068  2023-10-25 10:09:56.747279
1069  2023-10-25 10:09:56.779304
1070  2023-10-25 10:09:56.811251
1071  2023-10-25 10:09:56.843165
1072  2023-10-25 10:09:56.875080
1073  2023-10-25 10:09:56.907145
1074  2023-10-25 10:09:56.939111
1075  2023-10-25 10:09:56.971972
1076  2023-10-25 10:09:57.019925
1077  2023-10-25 10:09:57.050842
1078  2023-10-25 10:09:57.082800
1079  2023-10-25 10:09:57.114750
1080  2023-10-25 10:09:57.147665
1081  2023-10-25 10:09:57.179541
1082  2023-10-25 10:09:57.211585
1083  2023-10-25 10:09:57.243499
1084  2023-10-25 10:09:57.275530
1085  2023-10-25 10:09:57.307496
1086  2023-10-25 10:09:57.339410
1087  2023-10-25 10:09:57.371325
1088  2023-10-25 10:09:57.419197
1089  2023-10-25 10:09:57.451112
1090  2023-10-25 10:09:57.483052
1091  2023-10-25 10:09:57.514941
1092  2023-10-25 10:09:57.546856
1093  2023-10-25 10:09:57.578770
1094  2023-10-25 10:09:57.611717
1095  2023-10-25 10:09:57.643627
1096  2023-10-25 10:09:57.675512
1097  2023-10-25 10:09:57.707426
1098  2023-10-25 10:09:57.739375
1099  2023-10-25 10:09:57.771318
1100  2023-10-25 10:09:57.819159
1101  2023-10-25 10:09:57.851042
1102  2023-10-25 10:09:57.882957
1103  2023-10-25 10:09:57.914872
1104  2023-10-25 10:09:57.946822
1105  2023-10-25 10:09:57.979731
1106  2023-10-25 10:09:58.011614
1107  2023-10-25 10:09:58.043528
1108  2023-10-25 10:09:58.075475
1109  2023-10-25 10:09:58.107400
1110  2023-10-25 10:09:58.139272
1111  2023-10-25 10:09:58.171186
1112  2023-10-25 10:09:58.219058
1113  2023-10-25 10:09:58.250973
1114  2023-10-25 10:09:58.282888
1115  2023-10-25 10:09:58.314802
1116  2023-10-25 10:09:58.347714
1117  2023-10-25 10:09:58.379629
1118  2023-10-25 10:09:58.411544
1119  2023-10-25 10:09:58.443458
1120  2023-10-25 10:09:58.475373
1121  2023-10-25 10:09:58.507288
1122  2023-10-25 10:09:58.539202
1123  2023-10-25 10:09:58.571117
1124  2023-10-25 10:09:58.618989
1125  2023-10-25 10:09:58.650904
1126  2023-10-25 10:09:58.682818
1127  2023-10-25 10:09:58.715730
1128  2023-10-25 10:09:58.747645
1129  2023-10-25 10:09:58.779560
1130  2023-10-25 10:09:58.811474
1131  2023-10-25 10:09:58.843389
1132  2023-10-25 10:09:58.875304
1133  2023-10-25 10:09:58.907218
1134  2023-10-25 10:09:58.940130
1135  2023-10-25 10:09:58.987005
1136  2023-10-25 10:09:59.018920
1137  2023-10-25 10:09:59.050834
1138  2023-10-25 10:09:59.083746
1139  2023-10-25 10:09:59.115661
1140  2023-10-25 10:09:59.147576
1141  2023-10-25 10:09:59.179490
1142  2023-10-25 10:09:59.211405
1143  2023-10-25 10:09:59.243473
1144  2023-10-25 10:09:59.275388
1145  2023-10-25 10:09:59.307303
1146  2023-10-25 10:09:59.339217
1147  2023-10-25 10:09:59.388087
1148  2023-10-25 10:09:59.419004
1149  2023-10-25 10:09:59.450919
1150  2023-10-25 10:09:59.483831
1151  2023-10-25 10:09:59.515746
1152  2023-10-25 10:09:59.547660
1153  2023-10-25 10:09:59.579575
1154  2023-10-25 10:09:59.611490
1155  2023-10-25 10:09:59.643407
1156  2023-10-25 10:09:59.675319
1157  2023-10-25 10:09:59.707323
1158  2023-10-25 10:09:59.739328
1159  2023-10-25 10:09:59.787191
1160  2023-10-25 10:09:59.819106
1161  2023-10-25 10:09:59.851054
1162  2023-10-25 10:09:59.882935
1163  2023-10-25 10:09:59.914970
1164  2023-10-25 10:09:59.946884
1165  2023-10-25 10:09:59.978790
1166  2023-10-25 10:10:00.011679
1167  2023-10-25 10:10:00.043649
1168  2023-10-25 10:10:00.075598
1169  2023-10-25 10:10:00.107519
1170  2023-10-25 10:10:00.139393
1171  2023-10-25 10:10:00.187265
1172  2023-10-25 10:10:00.219179
1173  2023-10-25 10:10:00.251094
1174  2023-10-25 10:10:00.283009
1175  2023-10-25 10:10:00.314923
1176  2023-10-25 10:10:00.346838
1177  2023-10-25 10:10:00.378753
1178  2023-10-25 10:10:00.411665
1179  2023-10-25 10:10:00.443579
1180  2023-10-25 10:10:00.475596
1181  2023-10-25 10:10:00.507511
1182  2023-10-25 10:10:00.539425
1183  2023-10-25 10:10:00.587297
1184  2023-10-25 10:10:00.619216
1185  2023-10-25 10:10:00.651127
1186  2023-10-25 10:10:00.683132
1187  2023-10-25 10:10:00.715046
1188  2023-10-25 10:10:00.746961
1189  2023-10-25 10:10:00.778876
1190  2023-10-25 10:10:00.810792
1191  2023-10-25 10:10:00.843703
1192  2023-10-25 10:10:00.875617
1193  2023-10-25 10:10:00.907532
1194  2023-10-25 10:10:00.939614
1195  2023-10-25 10:10:00.987486
1196  2023-10-25 10:10:01.019400
1197  2023-10-25 10:10:01.051315
1198  2023-10-25 10:10:01.083230
1199  2023-10-25 10:10:01.115145
1200  2023-10-25 10:10:01.147059
1201  2023-10-25 10:10:01.180005
1202  2023-10-25 10:10:01.210888
1203  2023-10-25 10:10:01.242816
1204  2023-10-25 10:10:01.275715
1205  2023-10-25 10:10:01.307630
1206  2023-10-25 10:10:01.339545
1207  2023-10-25 10:10:01.387417
1208  2023-10-25 10:10:01.419331
1209  2023-10-25 10:10:01.451246
1210  2023-10-25 10:10:01.483225
1211  2023-10-25 10:10:01.515111
1212  2023-10-25 10:10:01.546990
1213  2023-10-25 10:10:01.578913
1214  2023-10-25 10:10:01.610885
1215  2023-10-25 10:10:01.643768
1216  2023-10-25 10:10:01.675646
1217  2023-10-25 10:10:01.707561
1218  2023-10-25 10:10:01.739501
1219  2023-10-25 10:10:01.787347
1220  2023-10-25 10:10:01.819295
1221  2023-10-25 10:10:01.851177
1222  2023-10-25 10:10:01.883091
1223  2023-10-25 10:10:01.915006
1224  2023-10-25 10:10:01.946999
1225  2023-10-25 10:10:01.978975
1226  2023-10-25 10:10:02.010857
1227  2023-10-25 10:10:02.042906
1228  2023-10-25 10:10:02.074848
1229  2023-10-25 10:10:02.107758
1230  2023-10-25 10:10:02.139648
1231  2023-10-25 10:10:02.187520
1232  2023-10-25 10:10:02.219480
1233  2023-10-25 10:10:02.251445
1234  2023-10-25 10:10:02.283359
1235  2023-10-25 10:10:02.315274
1236  2023-10-25 10:10:02.347189
1237  2023-10-25 10:10:02.379103
1238  2023-10-25 10:10:02.411018
1239  2023-10-25 10:10:02.442933
1240  2023-10-25 10:10:02.474856
1241  2023-10-25 10:10:02.507760
1242  2023-10-25 10:10:02.539674
1243  2023-10-25 10:10:02.587546
1244  2023-10-25 10:10:02.619495
1245  2023-10-25 10:10:02.651376
1246  2023-10-25 10:10:02.683291
1247  2023-10-25 10:10:02.715205
1248  2023-10-25 10:10:02.747119
1249  2023-10-25 10:10:02.779034
1250  2023-10-25 10:10:02.811947
1251  2023-10-25 10:10:02.842863
1252  2023-10-25 10:10:02.875775
1253  2023-10-25 10:10:02.907691
1254  2023-10-25 10:10:02.955562
1255  2023-10-25 10:10:02.987569
1256  2023-10-25 10:10:03.019475
1257  2023-10-25 10:10:03.051425
1258  2023-10-25 10:10:03.083340
1259  2023-10-25 10:10:03.115289
1260  2023-10-25 10:10:03.147171
1261  2023-10-25 10:10:03.179084
1262  2023-10-25 10:10:03.210999
1263  2023-10-25 10:10:03.243021
1264  2023-10-25 10:10:03.274970
1265  2023-10-25 10:10:03.307848
1266  2023-10-25 10:10:03.355865
1267  2023-10-25 10:10:03.387750
1268  2023-10-25 10:10:03.419736
1269  2023-10-25 10:10:03.451639
1270  2023-10-25 10:10:03.483539
1271  2023-10-25 10:10:03.515493
1272  2023-10-25 10:10:03.547525
1273  2023-10-25 10:10:03.579440
1274  2023-10-25 10:10:03.611355
1275  2023-10-25 10:10:03.643269
1276  2023-10-25 10:10:03.675186
1277  2023-10-25 10:10:03.707099
1278  2023-10-25 10:10:03.754971
1279  2023-10-25 10:10:03.786885
1280  2023-10-25 10:10:03.818800
1281  2023-10-25 10:10:03.851712
1282  2023-10-25 10:10:03.883627
1283  2023-10-25 10:10:03.915541
1284  2023-10-25 10:10:03.947456
1285  2023-10-25 10:10:03.979371
1286  2023-10-25 10:10:04.011285
1287  2023-10-25 10:10:04.043200
1288  2023-10-25 10:10:04.075115
1289  2023-10-25 10:10:04.108027
1290  2023-10-25 10:10:04.154901
1291  2023-10-25 10:10:04.187816
1292  2023-10-25 10:10:04.219728
1293  2023-10-25 10:10:04.251643
1294  2023-10-25 10:10:04.283558
1295  2023-10-25 10:10:04.315481
1296  2023-10-25 10:10:04.347388
1297  2023-10-25 10:10:04.379301
1298  2023-10-25 10:10:04.411216
1299  2023-10-25 10:10:04.443164
1300  2023-10-25 10:10:04.475046
1301  2023-10-25 10:10:04.506960
1302  2023-10-25 10:10:04.554833
1303  2023-10-25 10:10:04.586943
1304  2023-10-25 10:10:04.618828
1305  2023-10-25 10:10:04.651738
1306  2023-10-25 10:10:04.683668
1307  2023-10-25 10:10:04.715617
1308  2023-10-25 10:10:04.747531
1309  2023-10-25 10:10:04.779511
1310  2023-10-25 10:10:04.811415
1311  2023-10-25 10:10:04.843288
1312  2023-10-25 10:10:04.875300
1313  2023-10-25 10:10:04.907228
1314  2023-10-25 10:10:04.955065
1315  2023-10-25 10:10:04.987031
1316  2023-10-25 10:10:05.018938
1317  2023-10-25 10:10:05.050809
1318  2023-10-25 10:10:05.083721
1319  2023-10-25 10:10:05.115714
1320  2023-10-25 10:10:05.147649
1321  2023-10-25 10:10:05.179628
1322  2023-10-25 10:10:05.211533
1323  2023-10-25 10:10:05.243448
1324  2023-10-25 10:10:05.275363
1325  2023-10-25 10:10:05.307313
1326  2023-10-25 10:10:05.355242
1327  2023-10-25 10:10:05.387156
1328  2023-10-25 10:10:05.419071
1329  2023-10-25 10:10:05.450985
1330  2023-10-25 10:10:05.482900
1331  2023-10-25 10:10:05.514815
1332  2023-10-25 10:10:05.547727
1333  2023-10-25 10:10:05.579642
1334  2023-10-25 10:10:05.611556
1335  2023-10-25 10:10:05.643471
1336  2023-10-25 10:10:05.675386
1337  2023-10-25 10:10:05.707300
1338  2023-10-25 10:10:05.755172
1339  2023-10-25 10:10:05.787087
1340  2023-10-25 10:10:05.819002
1341  2023-10-25 10:10:05.850966
1342  2023-10-25 10:10:05.882831
1343  2023-10-25 10:10:05.915745
1344  2023-10-25 10:10:05.947716
1345  2023-10-25 10:10:05.979597
1346  2023-10-25 10:10:06.011487
1347  2023-10-25 10:10:06.043403
1348  2023-10-25 10:10:06.075452
1349  2023-10-25 10:10:06.107421
1350  2023-10-25 10:10:06.155265
1351  2023-10-25 10:10:06.187152
1352  2023-10-25 10:10:06.219066
1353  2023-10-25 10:10:06.250981
1354  2023-10-25 10:10:06.282896
1355  2023-10-25 10:10:06.315808
1356  2023-10-25 10:10:06.347731
1357  2023-10-25 10:10:06.379637
1358  2023-10-25 10:10:06.411552
1359  2023-10-25 10:10:06.443467
1360  2023-10-25 10:10:06.475381
1361  2023-10-25 10:10:06.523253
1362  2023-10-25 10:10:06.555168
1363  2023-10-25 10:10:06.587082
1364  2023-10-25 10:10:06.618997
1365  2023-10-25 10:10:06.650912
1366  2023-10-25 10:10:06.683824
1367  2023-10-25 10:10:06.715747
1368  2023-10-25 10:10:06.747778
1369  2023-10-25 10:10:06.779685
1370  2023-10-25 10:10:06.811599
1371  2023-10-25 10:10:06.843514
1372  2023-10-25 10:10:06.875429
1373  2023-10-25 10:10:06.923301
1374  2023-10-25 10:10:06.955224
1375  2023-10-25 10:10:06.987130
1376  2023-10-25 10:10:07.019045
1377  2023-10-25 10:10:07.050959
1378  2023-10-25 10:10:07.083872
1379  2023-10-25 10:10:07.115786
1380  2023-10-25 10:10:07.147704
1381  2023-10-25 10:10:07.179615
1382  2023-10-25 10:10:07.211698
1383  2023-10-25 10:10:07.243612
1384  2023-10-25 10:10:07.275527
1385  2023-10-25 10:10:07.323399
1386  2023-10-25 10:10:07.355439
1387  2023-10-25 10:10:07.387450
1388  2023-10-25 10:10:07.419365
1389  2023-10-25 10:10:07.451280
1390  2023-10-25 10:10:07.483207
1391  2023-10-25 10:10:07.515109
1392  2023-10-25 10:10:07.547024
1393  2023-10-25 10:10:07.578938
1394  2023-10-25 10:10:07.610853
1395  2023-10-25 10:10:07.643765
1396  2023-10-25 10:10:07.675680
1397  2023-10-25 10:10:07.723552
1398  2023-10-25 10:10:07.755466
1399  2023-10-25 10:10:07.787381
1400  2023-10-25 10:10:07.819297
1401  2023-10-25 10:10:07.851241
1402  2023-10-25 10:10:07.884124
1403  2023-10-25 10:10:07.915040
1404  2023-10-25 10:10:07.947006
1405  2023-10-25 10:10:07.978916
1406  2023-10-25 10:10:08.011782
1407  2023-10-25 10:10:08.043696
1408  2023-10-25 10:10:08.075648
1409  2023-10-25 10:10:08.123482
1410  2023-10-25 10:10:08.155397
1411  2023-10-25 10:10:08.187312
1412  2023-10-25 10:10:08.219226
1413  2023-10-25 10:10:08.251141
1414  2023-10-25 10:10:08.283056
1415  2023-10-25 10:10:08.315044
1416  2023-10-25 10:10:08.346993
1417  2023-10-25 10:10:08.378908
1418  2023-10-25 10:10:08.411820
1419  2023-10-25 10:10:08.442819
1420  2023-10-25 10:10:08.474754
1421  2023-10-25 10:10:08.523624
1422  2023-10-25 10:10:08.555539
1423  2023-10-25 10:10:08.587453
1424  2023-10-25 10:10:08.619511
1425  2023-10-25 10:10:08.651425
1426  2023-10-25 10:10:08.683345
1427  2023-10-25 10:10:08.715255
1428  2023-10-25 10:10:08.747170
1429  2023-10-25 10:10:08.779084
1430  2023-10-25 10:10:08.810999
1431  2023-10-25 10:10:08.842913
1432  2023-10-25 10:10:08.874828
1433  2023-10-25 10:10:08.923697
1434  2023-10-25 10:10:08.955612
1435  2023-10-25 10:10:08.987527
1436  2023-10-25 10:10:09.019441
1437  2023-10-25 10:10:09.051356
1438  2023-10-25 10:10:09.083271
1439  2023-10-25 10:10:09.115196
1440  2023-10-25 10:10:09.148099
1441  2023-10-25 10:10:09.180015
1442  2023-10-25 10:10:09.210929
1443  2023-10-25 10:10:09.243842
1444  2023-10-25 10:10:09.275767
1445  2023-10-25 10:10:09.323628
1446  2023-10-25 10:10:09.355554
1447  2023-10-25 10:10:09.387523
1448  2023-10-25 10:10:09.419438
1449  2023-10-25 10:10:09.451352
1450  2023-10-25 10:10:09.483307
1451  2023-10-25 10:10:09.515182
1452  2023-10-25 10:10:09.547096
1453  2023-10-25 10:10:09.579011
1454  2023-10-25 10:10:09.611301
1455  2023-10-25 10:10:09.643268
1456  2023-10-25 10:10:09.675183
1457  2023-10-25 10:10:09.723055
1458  2023-10-25 10:10:09.754980
1459  2023-10-25 10:10:09.787881
1460  2023-10-25 10:10:09.819796
1461  2023-10-25 10:10:09.850807
1462  2023-10-25 10:10:09.883744
1463  2023-10-25 10:10:09.915659
1464  2023-10-25 10:10:09.947574
1465  2023-10-25 10:10:09.979488
1466  2023-10-25 10:10:10.011403
1467  2023-10-25 10:10:10.043318
1468  2023-10-25 10:10:10.091312
1469  2023-10-25 10:10:10.123227
1470  2023-10-25 10:10:10.155141
1471  2023-10-25 10:10:10.188054
1472  2023-10-25 10:10:10.219980
1473  2023-10-25 10:10:10.250885
1474  2023-10-25 10:10:10.283798
1475  2023-10-25 10:10:10.315878
1476  2023-10-25 10:10:10.347755
1477  2023-10-25 10:10:10.379657
1478  2023-10-25 10:10:10.411567
1479  2023-10-25 10:10:10.443485
1480  2023-10-25 10:10:10.491354
1481  2023-10-25 10:10:10.523270
1482  2023-10-25 10:10:10.555186
1483  2023-10-25 10:10:10.587098
1484  2023-10-25 10:10:10.619013
1485  2023-10-25 10:10:10.650959
1486  2023-10-25 10:10:10.683890
1487  2023-10-25 10:10:10.714897
1488  2023-10-25 10:10:10.747810
1489  2023-10-25 10:10:10.778853
1490  2023-10-25 10:10:10.811825
1491  2023-10-25 10:10:10.843679
1492  2023-10-25 10:10:10.891587
1493  2023-10-25 10:10:10.923466
1494  2023-10-25 10:10:10.955381
1495  2023-10-25 10:10:10.987327
1496  2023-10-25 10:10:11.019408
1497  2023-10-25 10:10:11.051417
1498  2023-10-25 10:10:11.083465
1499  2023-10-25 10:10:11.115380
1500  2023-10-25 10:10:11.147339
1501  2023-10-25 10:10:11.179440
1502  2023-10-25 10:10:11.211458
1503  2023-10-25 10:10:11.243372
1504  2023-10-25 10:10:11.292287
1505  2023-10-25 10:10:11.324276
1506  2023-10-25 10:10:11.356331
1507  2023-10-25 10:10:11.388369
1508  2023-10-25 10:10:11.420450
1509  2023-10-25 10:10:11.452366
1510  2023-10-25 10:10:11.484282
1511  2023-10-25 10:10:11.516303
1512  2023-10-25 10:10:11.548308
1513  2023-10-25 10:10:11.580311
1514  2023-10-25 10:10:11.612240
1515  2023-10-25 10:10:11.644141
1516  2023-10-25 10:10:11.692010
1517  2023-10-25 10:10:11.723895
1518  2023-10-25 10:10:11.755809
1519  2023-10-25 10:10:11.787724
1520  2023-10-25 10:10:11.819705
1521  2023-10-25 10:10:11.851587
1522  2023-10-25 10:10:11.884465
1523  2023-10-25 10:10:11.915382
1524  2023-10-25 10:10:11.947389
1525  2023-10-25 10:10:11.980305
1526  2023-10-25 10:10:12.012274
1527  2023-10-25 10:10:12.044130
1528  2023-10-25 10:10:12.092002
1529  2023-10-25 10:10:12.123917
1530  2023-10-25 10:10:12.155931
1531  2023-10-25 10:10:12.187839
1532  2023-10-25 10:10:12.219751
1533  2023-10-25 10:10:12.251661
1534  2023-10-25 10:10:12.283584
1535  2023-10-25 10:10:12.315465
1536  2023-10-25 10:10:12.347379
1537  2023-10-25 10:10:12.379293
1538  2023-10-25 10:10:12.411210
1539  2023-10-25 10:10:12.443163
1540  2023-10-25 10:10:12.491040
1541  2023-10-25 10:10:12.524035
1542  2023-10-25 10:10:12.555007
1543  2023-10-25 10:10:12.587952
1544  2023-10-25 10:10:12.619848
1545  2023-10-25 10:10:12.651834
1546  2023-10-25 10:10:12.682811
1547  2023-10-25 10:10:12.715767
1548  2023-10-25 10:10:12.747640
1549  2023-10-25 10:10:12.779594
1550  2023-10-25 10:10:12.811500
1551  2023-10-25 10:10:12.843433
1552  2023-10-25 10:10:12.891286
1553  2023-10-25 10:10:12.923168
1554  2023-10-25 10:10:12.955083
1555  2023-10-25 10:10:12.987051
1556  2023-10-25 10:10:13.018912
1557  2023-10-25 10:10:13.050827
1558  2023-10-25 10:10:13.083769
1559  2023-10-25 10:10:13.115720
1560  2023-10-25 10:10:13.147626
1561  2023-10-25 10:10:13.179514
1562  2023-10-25 10:10:13.211525
1563  2023-10-25 10:10:13.243527
1564  2023-10-25 10:10:13.291435
1565  2023-10-25 10:10:13.323338
1566  2023-10-25 10:10:13.355227
1567  2023-10-25 10:10:13.387181
1568  2023-10-25 10:10:13.419058
1569  2023-10-25 10:10:13.450972
1570  2023-10-25 10:10:13.482901
1571  2023-10-25 10:10:13.515768
1572  2023-10-25 10:10:13.547682
1573  2023-10-25 10:10:13.579650
1574  2023-10-25 10:10:13.611561
1575  2023-10-25 10:10:13.643453
1576  2023-10-25 10:10:13.691345
1577  2023-10-25 10:10:13.723259
1578  2023-10-25 10:10:13.755155
1579  2023-10-25 10:10:13.787073
1580  2023-10-25 10:10:13.818990
1581  2023-10-25 10:10:13.850871
1582  2023-10-25 10:10:13.882816
1583  2023-10-25 10:10:13.915701
1584  2023-10-25 10:10:13.947613
1585  2023-10-25 10:10:13.979532
1586  2023-10-25 10:10:14.011443
1587  2023-10-25 10:10:14.060338
1588  2023-10-25 10:10:14.092259
1589  2023-10-25 10:10:14.123217
1590  2023-10-25 10:10:14.155092
1591  2023-10-25 10:10:14.187975
1592  2023-10-25 10:10:14.219885
1593  2023-10-25 10:10:14.252798
1594  2023-10-25 10:10:14.283784
1595  2023-10-25 10:10:14.315631
1596  2023-10-25 10:10:14.347610
1597  2023-10-25 10:10:14.380505
1598  2023-10-25 10:10:14.412450
1599  2023-10-25 10:10:14.460315
1600  2023-10-25 10:10:14.491180
1601  2023-10-25 10:10:14.524124
1602  2023-10-25 10:10:14.555026
1603  2023-10-25 10:10:14.586939
1604  2023-10-25 10:10:14.619815
1605  2023-10-25 10:10:14.651777
1606  2023-10-25 10:10:14.683646
1607  2023-10-25 10:10:14.715559
1608  2023-10-25 10:10:14.747476
1609  2023-10-25 10:10:14.779436
1610  2023-10-25 10:10:14.812301
1611  2023-10-25 10:10:14.860218
1612  2023-10-25 10:10:14.892122
1613  2023-10-25 10:10:14.923083
1614  2023-10-25 10:10:14.954964
1615  2023-10-25 10:10:14.987833
1616  2023-10-25 10:10:15.019748
1617  2023-10-25 10:10:15.051744
1618  2023-10-25 10:10:15.083606
1619  2023-10-25 10:10:15.115534
1620  2023-10-25 10:10:15.147446
1621  2023-10-25 10:10:15.179388
1622  2023-10-25 10:10:15.211235
1623  2023-10-25 10:10:15.259142
1624  2023-10-25 10:10:15.291022
1625  2023-10-25 10:10:15.322966
1626  2023-10-25 10:10:15.354874
1627  2023-10-25 10:10:15.386765
1628  2023-10-25 10:10:15.419708
1629  2023-10-25 10:10:15.451635
1630  2023-10-25 10:10:15.483545
1631  2023-10-25 10:10:15.515421
1632  2023-10-25 10:10:15.547335
1633  2023-10-25 10:10:15.579276
1634  2023-10-25 10:10:15.611201
1635  2023-10-25 10:10:15.659085
1636  2023-10-25 10:10:15.690978
1637  2023-10-25 10:10:15.722866
1638  2023-10-25 10:10:15.754827
1639  2023-10-25 10:10:15.787747
1640  2023-10-25 10:10:15.819642
1641  2023-10-25 10:10:15.851565
1642  2023-10-25 10:10:15.883630
1643  2023-10-25 10:10:15.915498
1644  2023-10-25 10:10:15.947455
1645  2023-10-25 10:10:15.979353
1646  2023-10-25 10:10:16.011298
1647  2023-10-25 10:10:16.059116
1648  2023-10-25 10:10:16.091030
1649  2023-10-25 10:10:16.122985
1650  2023-10-25 10:10:16.154996
1651  2023-10-25 10:10:16.187961
1652  2023-10-25 10:10:16.218888
1653  2023-10-25 10:10:16.251807
1654  2023-10-25 10:10:16.283723
1655  2023-10-25 10:10:16.315593
1656  2023-10-25 10:10:16.347529
1657  2023-10-25 10:10:16.379466
1658  2023-10-25 10:10:16.411375
1659  2023-10-25 10:10:16.459237
1660  2023-10-25 10:10:16.491162
1661  2023-10-25 10:10:16.523063
1662  2023-10-25 10:10:16.554947
1663  2023-10-25 10:10:16.586861
1664  2023-10-25 10:10:16.619789
1665  2023-10-25 10:10:16.651723
1666  2023-10-25 10:10:16.683608
1667  2023-10-25 10:10:16.715517
1668  2023-10-25 10:10:16.747482
1669  2023-10-25 10:10:16.779449
1670  2023-10-25 10:10:16.811398
1671  2023-10-25 10:10:16.859266
1672  2023-10-25 10:10:16.891215
1673  2023-10-25 10:10:16.923083
1674  2023-10-25 10:10:16.954998
1675  2023-10-25 10:10:16.986939
1676  2023-10-25 10:10:17.018853
1677  2023-10-25 10:10:17.051780
1678  2023-10-25 10:10:17.082786
1679  2023-10-25 10:10:17.115753
1680  2023-10-25 10:10:17.147694
1681  2023-10-25 10:10:17.179589
1682  2023-10-25 10:10:17.211502
1683  2023-10-25 10:10:17.259437
1684  2023-10-25 10:10:17.291348
1685  2023-10-25 10:10:17.323222
1686  2023-10-25 10:10:17.355140
1687  2023-10-25 10:10:17.387105
1688  2023-10-25 10:10:17.419041
1689  2023-10-25 10:10:17.450957
1690  2023-10-25 10:10:17.482881
1691  2023-10-25 10:10:17.515751
1692  2023-10-25 10:10:17.547665
1693  2023-10-25 10:10:17.579621
1694  2023-10-25 10:10:17.627452
1695  2023-10-25 10:10:17.659422
1696  2023-10-25 10:10:17.691325
1697  2023-10-25 10:10:17.723231
1698  2023-10-25 10:10:17.755111
1699  2023-10-25 10:10:17.787027
1700  2023-10-25 10:10:17.819018
1701  2023-10-25 10:10:17.850894
1702  2023-10-25 10:10:17.882852
1703  2023-10-25 10:10:17.915681
1704  2023-10-25 10:10:17.947628
1705  2023-10-25 10:10:17.979547
1706  2023-10-25 10:10:18.027429
1707  2023-10-25 10:10:18.059324
1708  2023-10-25 10:10:18.091246
1709  2023-10-25 10:10:18.123178
1710  2023-10-25 10:10:18.155079
1711  2023-10-25 10:10:18.186984
1712  2023-10-25 10:10:18.218903
1713  2023-10-25 10:10:18.250787
1714  2023-10-25 10:10:18.283732
1715  2023-10-25 10:10:18.315637
1716  2023-10-25 10:10:18.347527
1717  2023-10-25 10:10:18.379477
1718  2023-10-25 10:10:18.427313
1719  2023-10-25 10:10:18.459277
1720  2023-10-25 10:10:18.491186
1721  2023-10-25 10:10:18.523092
1722  2023-10-25 10:10:18.555006
1723  2023-10-25 10:10:18.586921
1724  2023-10-25 10:10:18.619800
1725  2023-10-25 10:10:18.651746
1726  2023-10-25 10:10:18.683668
1727  2023-10-25 10:10:18.715583
1728  2023-10-25 10:10:18.747488
1729  2023-10-25 10:10:18.779396
1730  2023-10-25 10:10:18.827280
1731  2023-10-25 10:10:18.859198
1732  2023-10-25 10:10:18.891143
1733  2023-10-25 10:10:18.923026
1734  2023-10-25 10:10:18.954949
1735  2023-10-25 10:10:18.986848
1736  2023-10-25 10:10:19.019767
1737  2023-10-25 10:10:19.051678
1738  2023-10-25 10:10:19.083673
1739  2023-10-25 10:10:19.115629
1740  2023-10-25 10:10:19.147616
1741  2023-10-25 10:10:19.179583
1742  2023-10-25 10:10:19.227568
1743  2023-10-25 10:10:19.259483
1744  2023-10-25 10:10:19.291429
1745  2023-10-25 10:10:19.323364
1746  2023-10-25 10:10:19.355289
1747  2023-10-25 10:10:19.387142
1748  2023-10-25 10:10:19.419089
1749  2023-10-25 10:10:19.451004
1750  2023-10-25 10:10:19.482934
1751  2023-10-25 10:10:19.514834
1752  2023-10-25 10:10:19.547743
1753  2023-10-25 10:10:19.579706
1754  2023-10-25 10:10:19.627629
1755  2023-10-25 10:10:19.659577
1756  2023-10-25 10:10:19.691532
1757  2023-10-25 10:10:19.723414
1758  2023-10-25 10:10:19.755329
1759  2023-10-25 10:10:19.787271
1760  2023-10-25 10:10:19.819155
1761  2023-10-25 10:10:19.852055
1762  2023-10-25 10:10:19.882979
1763  2023-10-25 10:10:19.914983
1764  2023-10-25 10:10:19.946802
1765  2023-10-25 10:10:19.979772
1766  2023-10-25 10:10:20.027595
1767  2023-10-25 10:10:20.059475
1768  2023-10-25 10:10:20.091431
1769  2023-10-25 10:10:20.123411
1770  2023-10-25 10:10:20.155390
1771  2023-10-25 10:10:20.187458
1772  2023-10-25 10:10:20.219337
1773  2023-10-25 10:10:20.251252
1774  2023-10-25 10:10:20.283226
1775  2023-10-25 10:10:20.315136
1776  2023-10-25 10:10:20.347032
1777  2023-10-25 10:10:20.378938
1778  2023-10-25 10:10:20.426921
1779  2023-10-25 10:10:20.459834
1780  2023-10-25 10:10:20.491804
1781  2023-10-25 10:10:20.523694
1782  2023-10-25 10:10:20.555618
1783  2023-10-25 10:10:20.587517
1784  2023-10-25 10:10:20.619442
1785  2023-10-25 10:10:20.651347
1786  2023-10-25 10:10:20.683281
1787  2023-10-25 10:10:20.715204
1788  2023-10-25 10:10:20.747111
1789  2023-10-25 10:10:20.779027
1790  2023-10-25 10:10:20.826852
1791  2023-10-25 10:10:20.859773
1792  2023-10-25 10:10:20.891716
1793  2023-10-25 10:10:20.923635
1794  2023-10-25 10:10:20.955550
1795  2023-10-25 10:10:20.987455
1796  2023-10-25 10:10:21.019378
1797  2023-10-25 10:10:21.051447
1798  2023-10-25 10:10:21.083515
1799  2023-10-25 10:10:21.115419
1800  2023-10-25 10:10:21.147413
1801  2023-10-25 10:10:21.179402
1802  2023-10-25 10:10:21.227236
1803  2023-10-25 10:10:21.259150
1804  2023-10-25 10:10:21.291128
1805  2023-10-25 10:10:21.323012
1806  2023-10-25 10:10:21.354940
1807  2023-10-25 10:10:21.386842
1808  2023-10-25 10:10:21.419770
1809  2023-10-25 10:10:21.451662
1810  2023-10-25 10:10:21.483575
1811  2023-10-25 10:10:21.515501
1812  2023-10-25 10:10:21.547411
1813  2023-10-25 10:10:21.595252
1814  2023-10-25 10:10:21.627166
1815  2023-10-25 10:10:21.659113
1816  2023-10-25 10:10:21.691023
1817  2023-10-25 10:10:21.722942
1818  2023-10-25 10:10:21.754857
1819  2023-10-25 10:10:21.786771
1820  2023-10-25 10:10:21.819686
1821  2023-10-25 10:10:21.851630
1822  2023-10-25 10:10:21.883519
1823  2023-10-25 10:10:21.915421
1824  2023-10-25 10:10:21.947338
1825  2023-10-25 10:10:21.995235
1826  2023-10-25 10:10:22.027150
1827  2023-10-25 10:10:22.059012
1828  2023-10-25 10:10:22.090960
1829  2023-10-25 10:10:22.122876
1830  2023-10-25 10:10:22.155792
1831  2023-10-25 10:10:22.187668
1832  2023-10-25 10:10:22.219615
1833  2023-10-25 10:10:22.251618
1834  2023-10-25 10:10:22.283568
1835  2023-10-25 10:10:22.315630
1836  2023-10-25 10:10:22.347555
1837  2023-10-25 10:10:22.395434
1838  2023-10-25 10:10:22.427439
1839  2023-10-25 10:10:22.459304
1840  2023-10-25 10:10:22.491219
1841  2023-10-25 10:10:22.523222
1842  2023-10-25 10:10:22.555094
1843  2023-10-25 10:10:22.586997
1844  2023-10-25 10:10:22.618910
1845  2023-10-25 10:10:22.650825
1846  2023-10-25 10:10:22.683738
1847  2023-10-25 10:10:22.715643
1848  2023-10-25 10:10:22.747559
1849  2023-10-25 10:10:22.795455
1850  2023-10-25 10:10:22.827352
1851  2023-10-25 10:10:22.859271
1852  2023-10-25 10:10:22.891264
1853  2023-10-25 10:10:22.923195
1854  2023-10-25 10:10:22.955113
1855  2023-10-25 10:10:22.987032
1856  2023-10-25 10:10:23.018946
1857  2023-10-25 10:10:23.050860
1858  2023-10-25 10:10:23.083800
1859  2023-10-25 10:10:23.115693
1860  2023-10-25 10:10:23.147634
1861  2023-10-25 10:10:23.195474
1862  2023-10-25 10:10:23.227357
1863  2023-10-25 10:10:23.259269
1864  2023-10-25 10:10:23.291184
1865  2023-10-25 10:10:23.323168
1866  2023-10-25 10:10:23.355047
1867  2023-10-25 10:10:23.386975
1868  2023-10-25 10:10:23.418875
1869  2023-10-25 10:10:23.450790
1870  2023-10-25 10:10:23.483704
1871  2023-10-25 10:10:23.515608
1872  2023-10-25 10:10:23.547533
1873  2023-10-25 10:10:23.595425
1874  2023-10-25 10:10:23.627344
1875  2023-10-25 10:10:23.660234
1876  2023-10-25 10:10:23.691155
1877  2023-10-25 10:10:23.723063
1878  2023-10-25 10:10:23.754981
1879  2023-10-25 10:10:23.786894
1880  2023-10-25 10:10:23.818804
1881  2023-10-25 10:10:23.851727
1882  2023-10-25 10:10:23.883624
1883  2023-10-25 10:10:23.915541
1884  2023-10-25 10:10:23.947456
1885  2023-10-25 10:10:23.995328
1886  2023-10-25 10:10:24.027250
1887  2023-10-25 10:10:24.059130
1888  2023-10-25 10:10:24.091045
1889  2023-10-25 10:10:24.122996
1890  2023-10-25 10:10:24.154901
1891  2023-10-25 10:10:24.186821
1892  2023-10-25 10:10:24.219737
1893  2023-10-25 10:10:24.251658
1894  2023-10-25 10:10:24.283556
1895  2023-10-25 10:10:24.315470
1896  2023-10-25 10:10:24.347384
1897  2023-10-25 10:10:24.395266
1898  2023-10-25 10:10:24.427229
1899  2023-10-25 10:10:24.459065
1900  2023-10-25 10:10:24.491050
1901  2023-10-25 10:10:24.522965
1902  2023-10-25 10:10:24.554882
1903  2023-10-25 10:10:24.586787
1904  2023-10-25 10:10:24.619674
1905  2023-10-25 10:10:24.651709
1906  2023-10-25 10:10:24.683602
1907  2023-10-25 10:10:24.715515
1908  2023-10-25 10:10:24.747431
1909  2023-10-25 10:10:24.795314
1910  2023-10-25 10:10:24.827224
1911  2023-10-25 10:10:24.859155
1912  2023-10-25 10:10:24.891023
1913  2023-10-25 10:10:24.923967
1914  2023-10-25 10:10:24.954875
1915  2023-10-25 10:10:24.986790
1916  2023-10-25 10:10:25.019720
1917  2023-10-25 10:10:25.051656
1918  2023-10-25 10:10:25.083539
1919  2023-10-25 10:10:25.115447
1920  2023-10-25 10:10:25.163327
1921  2023-10-25 10:10:25.195271
1922  2023-10-25 10:10:25.227123
1923  2023-10-25 10:10:25.259039
1924  2023-10-25 10:10:25.290953
1925  2023-10-25 10:10:25.322892
1926  2023-10-25 10:10:25.354815
1927  2023-10-25 10:10:25.387729
1928  2023-10-25 10:10:25.419662
1929  2023-10-25 10:10:25.451547
1930  2023-10-25 10:10:25.483473
1931  2023-10-25 10:10:25.515404
1932  2023-10-25 10:10:25.563259
1933  2023-10-25 10:10:25.595220
1934  2023-10-25 10:10:25.627099
1935  2023-10-25 10:10:25.659996
1936  2023-10-25 10:10:25.690883
1937  2023-10-25 10:10:25.722828
1938  2023-10-25 10:10:25.754788
1939  2023-10-25 10:10:25.787696
1940  2023-10-25 10:10:25.819624
1941  2023-10-25 10:10:25.851523
1942  2023-10-25 10:10:25.883414
1943  2023-10-25 10:10:25.915351
1944  2023-10-25 10:10:25.963297
1945  2023-10-25 10:10:25.995208
1946  2023-10-25 10:10:26.027117
1947  2023-10-25 10:10:26.060003
1948  2023-10-25 10:10:26.091917
1949  2023-10-25 10:10:26.122866
1950  2023-10-25 10:10:26.155799
1951  2023-10-25 10:10:26.187719
1952  2023-10-25 10:10:26.219610
1953  2023-10-25 10:10:26.251516
1954  2023-10-25 10:10:26.283458
1955  2023-10-25 10:10:26.315347
1956  2023-10-25 10:10:26.363239
1957  2023-10-25 10:10:26.395152
1958  2023-10-25 10:10:26.427085
1959  2023-10-25 10:10:26.458936
1960  2023-10-25 10:10:26.490880
1961  2023-10-25 10:10:26.522784
1962  2023-10-25 10:10:26.555696
1963  2023-10-25 10:10:26.587610
1964  2023-10-25 10:10:26.619595
1965  2023-10-25 10:10:26.651543
1966  2023-10-25 10:10:26.683440
1967  2023-10-25 10:10:26.715320
1968  2023-10-25 10:10:26.763262
1969  2023-10-25 10:10:26.795215
1970  2023-10-25 10:10:26.827128
1971  2023-10-25 10:10:26.860005
1972  2023-10-25 10:10:26.891918
1973  2023-10-25 10:10:26.922865
1974  2023-10-25 10:10:26.955797
1975  2023-10-25 10:10:26.987722
1976  2023-10-25 10:10:27.019578
1977  2023-10-25 10:10:27.051491
1978  2023-10-25 10:10:27.083520
1979  2023-10-25 10:10:27.115383
1980  2023-10-25 10:10:27.163317
1981  2023-10-25 10:10:27.195281
1982  2023-10-25 10:10:27.227192
1983  2023-10-25 10:10:27.259118
1984  2023-10-25 10:10:27.291009
1985  2023-10-25 10:10:27.322923
1986  2023-10-25 10:10:27.354975
1987  2023-10-25 10:10:27.386903
1988  2023-10-25 10:10:27.418806
1989  2023-10-25 10:10:27.450752
1990  2023-10-25 10:10:27.483698
1991  2023-10-25 10:10:27.515636
1992  2023-10-25 10:10:27.563589
1993  2023-10-25 10:10:27.595522
1994  2023-10-25 10:10:27.627511
1995  2023-10-25 10:10:27.659429
1996  2023-10-25 10:10:27.691335
1997  2023-10-25 10:10:27.723223
1998  2023-10-25 10:10:27.755225
1999  2023-10-25 10:10:27.787111
2000  2023-10-25 10:10:27.819120
2001  2023-10-25 10:10:27.851041
2002  2023-10-25 10:10:27.882917
2003  2023-10-25 10:10:27.914864
2004  2023-10-25 10:10:27.962734
2005  2023-10-25 10:10:27.995644
2006  2023-10-25 10:10:28.027569
2007  2023-10-25 10:10:28.059478
2008  2023-10-25 10:10:28.091361
2009  2023-10-25 10:10:28.123276
2010  2023-10-25 10:10:28.155224
2011  2023-10-25 10:10:28.187161
2012  2023-10-25 10:10:28.219052
2013  2023-10-25 10:10:28.250935
2014  2023-10-25 10:10:28.282876
2015  2023-10-25 10:10:28.315830
2016  2023-10-25 10:10:28.363771
2017  2023-10-25 10:10:28.395738
2018  2023-10-25 10:10:28.427646
2019  2023-10-25 10:10:28.459548
2020  2023-10-25 10:10:28.491430
2021  2023-10-25 10:10:28.523344
2022  2023-10-25 10:10:28.555304
2023  2023-10-25 10:10:28.587216
2024  2023-10-25 10:10:28.619114
2025  2023-10-25 10:10:28.651003
2026  2023-10-25 10:10:28.682918
2027  2023-10-25 10:10:28.731787
2028  2023-10-25 10:10:28.763702
2029  2023-10-25 10:10:28.795616
2030  2023-10-25 10:10:28.827568
2031  2023-10-25 10:10:28.859475
2032  2023-10-25 10:10:28.891362
2033  2023-10-25 10:10:28.923275
2034  2023-10-25 10:10:28.955239
2035  2023-10-25 10:10:28.987151
2036  2023-10-25 10:10:29.020018
2037  2023-10-25 10:10:29.050934
2038  2023-10-25 10:10:29.082848
2039  2023-10-25 10:10:29.131718
2040  2023-10-25 10:10:29.163632
2041  2023-10-25 10:10:29.195606
2042  2023-10-25 10:10:29.227503
2043  2023-10-25 10:10:29.259434
2044  2023-10-25 10:10:29.291291
2045  2023-10-25 10:10:29.323239
2046  2023-10-25 10:10:29.355163
2047  2023-10-25 10:10:29.387067
2048  2023-10-25 10:10:29.418975
2049  2023-10-25 10:10:29.450933
2050  2023-10-25 10:10:29.483880
2051  2023-10-25 10:10:29.530750
2052  2023-10-25 10:10:29.563669
2053  2023-10-25 10:10:29.595678
2054  2023-10-25 10:10:29.627593
2055  2023-10-25 10:10:29.659544
2056  2023-10-25 10:10:29.691422
2057  2023-10-25 10:10:29.723337
2058  2023-10-25 10:10:29.755279
2059  2023-10-25 10:10:29.787196
2060  2023-10-25 10:10:29.819125
2061  2023-10-25 10:10:29.851100
2062  2023-10-25 10:10:29.883015
2063  2023-10-25 10:10:29.930887
2064  2023-10-25 10:10:29.962802
2065  2023-10-25 10:10:29.995715
2066  2023-10-25 10:10:30.027629
2067  2023-10-25 10:10:30.059543
2068  2023-10-25 10:10:30.091458
2069  2023-10-25 10:10:30.123372
2070  2023-10-25 10:10:30.155369
2071  2023-10-25 10:10:30.187323
2072  2023-10-25 10:10:30.219273
2073  2023-10-25 10:10:30.251152
2074  2023-10-25 10:10:30.283066
2075  2023-10-25 10:10:30.330938
2076  2023-10-25 10:10:30.363882
2077  2023-10-25 10:10:30.395793
2078  2023-10-25 10:10:30.427777
2079  2023-10-25 10:10:30.459691
2080  2023-10-25 10:10:30.491606
2081  2023-10-25 10:10:30.523567
2082  2023-10-25 10:10:30.555565
2083  2023-10-25 10:10:30.587465
2084  2023-10-25 10:10:30.619380
2085  2023-10-25 10:10:30.651329
2086  2023-10-25 10:10:30.683218
2087  2023-10-25 10:10:30.731082
2088  2023-10-25 10:10:30.763993
2089  2023-10-25 10:10:30.794910
2090  2023-10-25 10:10:30.826825
2091  2023-10-25 10:10:30.859796
2092  2023-10-25 10:10:30.891652
2093  2023-10-25 10:10:30.923566
2094  2023-10-25 10:10:30.955481
2095  2023-10-25 10:10:30.987555
2096  2023-10-25 10:10:31.019471
2097  2023-10-25 10:10:31.051359
2098  2023-10-25 10:10:31.083274
2099  2023-10-25 10:10:31.131288
2100  2023-10-25 10:10:31.163212
2101  2023-10-25 10:10:31.195163
2102  2023-10-25 10:10:31.227078
2103  2023-10-25 10:10:31.259944
2104  2023-10-25 10:10:31.291858
2105  2023-10-25 10:10:31.322826
2106  2023-10-25 10:10:31.354839
2107  2023-10-25 10:10:31.387718
2108  2023-10-25 10:10:31.419630
2109  2023-10-25 10:10:31.451545
2110  2023-10-25 10:10:31.483486
2111  2023-10-25 10:10:31.531394
2112  2023-10-25 10:10:31.563285
2113  2023-10-25 10:10:31.596160
2114  2023-10-25 10:10:31.627076
2115  2023-10-25 10:10:31.660022
2116  2023-10-25 10:10:31.690937
2117  2023-10-25 10:10:31.722820
2118  2023-10-25 10:10:31.755732
2119  2023-10-25 10:10:31.787646
2120  2023-10-25 10:10:31.819561
2121  2023-10-25 10:10:31.851476
2122  2023-10-25 10:10:31.883493
2123  2023-10-25 10:10:31.931365
2124  2023-10-25 10:10:31.963279
2125  2023-10-25 10:10:31.995194
2126  2023-10-25 10:10:32.027137
2127  2023-10-25 10:10:32.060022
2128  2023-10-25 10:10:32.091047
2129  2023-10-25 10:10:32.123005
2130  2023-10-25 10:10:32.155918
2131  2023-10-25 10:10:32.186882
2132  2023-10-25 10:10:32.219746
2133  2023-10-25 10:10:32.251661
2134  2023-10-25 10:10:32.283614
2135  2023-10-25 10:10:32.331447
2136  2023-10-25 10:10:32.363362
2137  2023-10-25 10:10:32.395277
2138  2023-10-25 10:10:32.427191
2139  2023-10-25 10:10:32.459106
2140  2023-10-25 10:10:32.491021
2141  2023-10-25 10:10:32.522935
2142  2023-10-25 10:10:32.554850
2143  2023-10-25 10:10:32.587762
2144  2023-10-25 10:10:32.619677
2145  2023-10-25 10:10:32.651591
2146  2023-10-25 10:10:32.699463
2147  2023-10-25 10:10:32.731378
2148  2023-10-25 10:10:32.763300
2149  2023-10-25 10:10:32.796210
2150  2023-10-25 10:10:32.827122
2151  2023-10-25 10:10:32.860036
2152  2023-10-25 10:10:32.891950
2153  2023-10-25 10:10:32.922866
2154  2023-10-25 10:10:32.955779
2155  2023-10-25 10:10:32.987705
2156  2023-10-25 10:10:33.019608
2157  2023-10-25 10:10:33.051522
2158  2023-10-25 10:10:33.099431
2159  2023-10-25 10:10:33.131309
2160  2023-10-25 10:10:33.164222
2161  2023-10-25 10:10:33.195138
2162  2023-10-25 10:10:33.227053
2163  2023-10-25 10:10:33.258967
2164  2023-10-25 10:10:33.290882
2165  2023-10-25 10:10:33.322912
2166  2023-10-25 10:10:33.355784
2167  2023-10-25 10:10:33.387698
2168  2023-10-25 10:10:33.419660
2169  2023-10-25 10:10:33.451579
2170  2023-10-25 10:10:33.499552
2171  2023-10-25 10:10:33.531467
2172  2023-10-25 10:10:33.564379
2173  2023-10-25 10:10:33.595362
2174  2023-10-25 10:10:33.627276
2175  2023-10-25 10:10:33.659191
2176  2023-10-25 10:10:33.691107
2177  2023-10-25 10:10:33.723074
2178  2023-10-25 10:10:33.754935
2179  2023-10-25 10:10:33.787043
2180  2023-10-25 10:10:33.819003
2181  2023-10-25 10:10:33.850904
2182  2023-10-25 10:10:33.899805
2183  2023-10-25 10:10:33.931656
2184  2023-10-25 10:10:33.963571
2185  2023-10-25 10:10:33.995485
2186  2023-10-25 10:10:34.027435
2187  2023-10-25 10:10:34.059348
2188  2023-10-25 10:10:34.091229
2189  2023-10-25 10:10:34.123150
2190  2023-10-25 10:10:34.155095
2191  2023-10-25 10:10:34.187009
2192  2023-10-25 10:10:34.218888
2193  2023-10-25 10:10:34.251800
2194  2023-10-25 10:10:34.299672
2195  2023-10-25 10:10:34.331587
2196  2023-10-25 10:10:34.363563
2197  2023-10-25 10:10:34.395497
2198  2023-10-25 10:10:34.427491
2199  2023-10-25 10:10:34.459406
2200  2023-10-25 10:10:34.491350
2201  2023-10-25 10:10:34.523263
2202  2023-10-25 10:10:34.555150
2203  2023-10-25 10:10:34.587065
2204  2023-10-25 10:10:34.619023
2205  2023-10-25 10:10:34.650941
2206  2023-10-25 10:10:34.699763
2207  2023-10-25 10:10:34.731678
2208  2023-10-25 10:10:34.763593
2209  2023-10-25 10:10:34.795610
2210  2023-10-25 10:10:34.826825
2211  2023-10-25 10:10:34.859737
2212  2023-10-25 10:10:34.891651
2213  2023-10-25 10:10:34.923566
2214  2023-10-25 10:10:34.955481
2215  2023-10-25 10:10:34.987395
2216  2023-10-25 10:10:35.019310
2217  2023-10-25 10:10:35.051225
2218  2023-10-25 10:10:35.100103
2219  2023-10-25 10:10:35.131011
2220  2023-10-25 10:10:35.163925
2221  2023-10-25 10:10:35.195841
2222  2023-10-25 10:10:35.227810
2223  2023-10-25 10:10:35.259675
2224  2023-10-25 10:10:35.291582
2225  2023-10-25 10:10:35.323497
2226  2023-10-25 10:10:35.355447
2227  2023-10-25 10:10:35.387326
2228  2023-10-25 10:10:35.419241
2229  2023-10-25 10:10:35.451155
2230  2023-10-25 10:10:35.499027
2231  2023-10-25 10:10:35.531973
2232  2023-10-25 10:10:35.563885
2233  2023-10-25 10:10:35.595770
2234  2023-10-25 10:10:35.627688
2235  2023-10-25 10:10:35.659684
2236  2023-10-25 10:10:35.691687
2237  2023-10-25 10:10:35.723576
2238  2023-10-25 10:10:35.755491
2239  2023-10-25 10:10:35.787406
2240  2023-10-25 10:10:35.819347
2241  2023-10-25 10:10:35.851278
2242  2023-10-25 10:10:35.899149
2243  2023-10-25 10:10:35.931022
2244  2023-10-25 10:10:35.962937
2245  2023-10-25 10:10:35.994851
2246  2023-10-25 10:10:36.027843
2247  2023-10-25 10:10:36.058831
2248  2023-10-25 10:10:36.091743
2249  2023-10-25 10:10:36.123758
2250  2023-10-25 10:10:36.155702
2251  2023-10-25 10:10:36.187589
2252  2023-10-25 10:10:36.219541
2253  2023-10-25 10:10:36.267413
2254  2023-10-25 10:10:36.299435
2255  2023-10-25 10:10:36.331350
2256  2023-10-25 10:10:36.363298
2257  2023-10-25 10:10:36.395236
2258  2023-10-25 10:10:36.427094
2259  2023-10-25 10:10:36.460006
2260  2023-10-25 10:10:36.490965
2261  2023-10-25 10:10:36.522993
2262  2023-10-25 10:10:36.554982
2263  2023-10-25 10:10:36.587012
2264  2023-10-25 10:10:36.618927
2265  2023-10-25 10:10:36.667950
2266  2023-10-25 10:10:36.699912
2267  2023-10-25 10:10:36.730829
2268  2023-10-25 10:10:36.762744
2269  2023-10-25 10:10:36.794813
2270  2023-10-25 10:10:36.826838
2271  2023-10-25 10:10:36.859774
2272  2023-10-25 10:10:36.891689
2273  2023-10-25 10:10:36.923603
2274  2023-10-25 10:10:36.955518
2275  2023-10-25 10:10:36.987433
2276  2023-10-25 10:10:37.019347
2277  2023-10-25 10:10:37.067219
2278  2023-10-25 10:10:37.099134
2279  2023-10-25 10:10:37.131049
2280  2023-10-25 10:10:37.162963
2281  2023-10-25 10:10:37.194878
2282  2023-10-25 10:10:37.226793
2283  2023-10-25 10:10:37.259705
2284  2023-10-25 10:10:37.291619
2285  2023-10-25 10:10:37.323666
2286  2023-10-25 10:10:37.355683
2287  2023-10-25 10:10:37.387612
2288  2023-10-25 10:10:37.419526
2289  2023-10-25 10:10:37.467398
2290  2023-10-25 10:10:37.499313
2291  2023-10-25 10:10:37.531228
2292  2023-10-25 10:10:37.563142
2293  2023-10-25 10:10:37.596055
2294  2023-10-25 10:10:37.626972
2295  2023-10-25 10:10:37.658886
2296  2023-10-25 10:10:37.691852
2297  2023-10-25 10:10:37.723740
2298  2023-10-25 10:10:37.755628
2299  2023-10-25 10:10:37.787542
2300  2023-10-25 10:10:37.819502
2301  2023-10-25 10:10:37.867434
2302  2023-10-25 10:10:37.899386
2303  2023-10-25 10:10:37.931267
2304  2023-10-25 10:10:37.963182
2305  2023-10-25 10:10:37.995096
2306  2023-10-25 10:10:38.028040
2307  2023-10-25 10:10:38.059954
2308  2023-10-25 10:10:38.090840
2309  2023-10-25 10:10:38.122755
2310  2023-10-25 10:10:38.155698
2311  2023-10-25 10:10:38.187613
2312  2023-10-25 10:10:38.219496
2313  2023-10-25 10:10:38.267368
2314  2023-10-25 10:10:38.299283
2315  2023-10-25 10:10:38.331198
2316  2023-10-25 10:10:38.363112
2317  2023-10-25 10:10:38.395027
2318  2023-10-25 10:10:38.426941
2319  2023-10-25 10:10:38.458856
2320  2023-10-25 10:10:38.491768
2321  2023-10-25 10:10:38.523683
2322  2023-10-25 10:10:38.555598
2323  2023-10-25 10:10:38.587512
2324  2023-10-25 10:10:38.619427
2325  2023-10-25 10:10:38.667299
2326  2023-10-25 10:10:38.699214
2327  2023-10-25 10:10:38.731128
2328  2023-10-25 10:10:38.763043
2329  2023-10-25 10:10:38.794958
2330  2023-10-25 10:10:38.826872
2331  2023-10-25 10:10:38.859785
2332  2023-10-25 10:10:38.891699
2333  2023-10-25 10:10:38.923614
2334  2023-10-25 10:10:38.955528
2335  2023-10-25 10:10:38.987443
2336  2023-10-25 10:10:39.019358
2337  2023-10-25 10:10:39.067230
2338  2023-10-25 10:10:39.099159
2339  2023-10-25 10:10:39.131059
2340  2023-10-25 10:10:39.163972
2341  2023-10-25 10:10:39.194897
2342  2023-10-25 10:10:39.226803
2343  2023-10-25 10:10:39.259716
2344  2023-10-25 10:10:39.291631
2345  2023-10-25 10:10:39.323546
2346  2023-10-25 10:10:39.355460
2347  2023-10-25 10:10:39.387375
2348  2023-10-25 10:10:39.419290
2349  2023-10-25 10:10:39.467162
2350  2023-10-25 10:10:39.499076
2351  2023-10-25 10:10:39.531989
2352  2023-10-25 10:10:39.562906
2353  2023-10-25 10:10:39.595818
2354  2023-10-25 10:10:39.627732
2355  2023-10-25 10:10:39.659653
2356  2023-10-25 10:10:39.691562
2357  2023-10-25 10:10:39.723476
2358  2023-10-25 10:10:39.755391
2359  2023-10-25 10:10:39.787306
2360  2023-10-25 10:10:39.819222
2361  2023-10-25 10:10:39.868094
2362  2023-10-25 10:10:39.899036
2363  2023-10-25 10:10:39.930922
2364  2023-10-25 10:10:39.963834
2365  2023-10-25 10:10:39.995752
2366  2023-10-25 10:10:40.027720
2367  2023-10-25 10:10:40.059609
2368  2023-10-25 10:10:40.091493
2369  2023-10-25 10:10:40.123407
2370  2023-10-25 10:10:40.155350
2371  2023-10-25 10:10:40.187261
2372  2023-10-25 10:10:40.235166
2373  2023-10-25 10:10:40.267023
2374  2023-10-25 10:10:40.299935
2375  2023-10-25 10:10:40.331851
2376  2023-10-25 10:10:40.363818
2377  2023-10-25 10:10:40.395679
2378  2023-10-25 10:10:40.427594
2379  2023-10-25 10:10:40.459508
2380  2023-10-25 10:10:40.491423
2381  2023-10-25 10:10:40.523338
2382  2023-10-25 10:10:40.555264
2383  2023-10-25 10:10:40.587168
2384  2023-10-25 10:10:40.635039
2385  2023-10-25 10:10:40.667951
2386  2023-10-25 10:10:40.699866
2387  2023-10-25 10:10:40.731781
2388  2023-10-25 10:10:40.763696
2389  2023-10-25 10:10:40.795610
2390  2023-10-25 10:10:40.827525
2391  2023-10-25 10:10:40.859471
2392  2023-10-25 10:10:40.891354
2393  2023-10-25 10:10:40.923269
2394  2023-10-25 10:10:40.955183
2395  2023-10-25 10:10:40.987098
2396  2023-10-25 10:10:41.034970
2397  2023-10-25 10:10:41.067884
2398  2023-10-25 10:10:41.099799
2399  2023-10-25 10:10:41.131712
2400  2023-10-25 10:10:41.163626
2401  2023-10-25 10:10:41.195541
2402  2023-10-25 10:10:41.227457
2403  2023-10-25 10:10:41.259371
2404  2023-10-25 10:10:41.291285
2405  2023-10-25 10:10:41.323199
2406  2023-10-25 10:10:41.355173
2407  2023-10-25 10:10:41.387028
2408  2023-10-25 10:10:41.434932
2409  2023-10-25 10:10:41.467813
2410  2023-10-25 10:10:41.499731
2411  2023-10-25 10:10:41.531643
2412  2023-10-25 10:10:41.563607
2413  2023-10-25 10:10:41.595472
2414  2023-10-25 10:10:41.627386
2415  2023-10-25 10:10:41.659301
2416  2023-10-25 10:10:41.691257
2417  2023-10-25 10:10:41.723130
2418  2023-10-25 10:10:41.755067
2419  2023-10-25 10:10:41.786959
2420  2023-10-25 10:10:41.835829
2421  2023-10-25 10:10:41.867756
2422  2023-10-25 10:10:41.899690
2423  2023-10-25 10:10:41.931573
2424  2023-10-25 10:10:41.963487
2425  2023-10-25 10:10:41.995402
2426  2023-10-25 10:10:42.027343
2427  2023-10-25 10:10:42.060230
2428  2023-10-25 10:10:42.091150
2429  2023-10-25 10:10:42.123061
2430  2023-10-25 10:10:42.154999
2431  2023-10-25 10:10:42.186935
2432  2023-10-25 10:10:42.234791
2433  2023-10-25 10:10:42.267674
2434  2023-10-25 10:10:42.299589
2435  2023-10-25 10:10:42.331503
2436  2023-10-25 10:10:42.363463
2437  2023-10-25 10:10:42.395367
2438  2023-10-25 10:10:42.427248
2439  2023-10-25 10:10:42.459162
2440  2023-10-25 10:10:42.491082
2441  2023-10-25 10:10:42.523030
2442  2023-10-25 10:10:42.554906
2443  2023-10-25 10:10:42.586821
2444  2023-10-25 10:10:42.635690
2445  2023-10-25 10:10:42.667605
2446  2023-10-25 10:10:42.699519
2447  2023-10-25 10:10:42.731434
2448  2023-10-25 10:10:42.763349
2449  2023-10-25 10:10:42.795271
2450  2023-10-25 10:10:42.828210
2451  2023-10-25 10:10:42.859172
2452  2023-10-25 10:10:42.891145
2453  2023-10-25 10:10:42.923059
2454  2023-10-25 10:10:42.955130
2455  2023-10-25 10:10:42.987045
2456  2023-10-25 10:10:43.034917
2457  2023-10-25 10:10:43.067831
2458  2023-10-25 10:10:43.099744
2459  2023-10-25 10:10:43.131659
2460  2023-10-25 10:10:43.163573
2461  2023-10-25 10:10:43.195521
2462  2023-10-25 10:10:43.227434
2463  2023-10-25 10:10:43.261313
2464  2023-10-25 10:10:43.291408
2465  2023-10-25 10:10:43.323350
2466  2023-10-25 10:10:43.355290
2467  2023-10-25 10:10:43.387155
2468  2023-10-25 10:10:43.435050
2469  2023-10-25 10:10:43.468967
2470  2023-10-25 10:10:43.498853
2471  2023-10-25 10:10:43.532796
2472  2023-10-25 10:10:43.564678
2473  2023-10-25 10:10:43.596627
2474  2023-10-25 10:10:43.628541
2475  2023-10-25 10:10:43.660456
2476  2023-10-25 10:10:43.691381
2477  2023-10-25 10:10:43.723253
2478  2023-10-25 10:10:43.756202
2479  2023-10-25 10:10:43.804192
2480  2023-10-25 10:10:43.836107
2481  2023-10-25 10:10:43.868019
2482  2023-10-25 10:10:43.899901
2483  2023-10-25 10:10:43.932812
2484  2023-10-25 10:10:43.964778
2485  2023-10-25 10:10:43.996666
2486  2023-10-25 10:10:44.028590
2487  2023-10-25 10:10:44.060504
2488  2023-10-25 10:10:44.092419
2489  2023-10-25 10:10:44.124351
2490  2023-10-25 10:10:44.156243
2491  2023-10-25 10:10:44.204114
2492  2023-10-25 10:10:44.237030
2493  2023-10-25 10:10:44.268938
2494  2023-10-25 10:10:44.300864
2495  2023-10-25 10:10:44.332774
2496  2023-10-25 10:10:44.364688
2497  2023-10-25 10:10:44.395615
2498  2023-10-25 10:10:44.428513
2499  2023-10-25 10:10:44.460584
2500  2023-10-25 10:10:44.492498
2501  2023-10-25 10:10:44.523384
2502  2023-10-25 10:10:44.556327
2503  2023-10-25 10:10:44.604202
2504  2023-10-25 10:10:44.636134
2505  2023-10-25 10:10:44.668026
2506  2023-10-25 10:10:44.700909
2507  2023-10-25 10:10:44.732862
2508  2023-10-25 10:10:44.763897
2509  2023-10-25 10:10:44.795800
2510  2023-10-25 10:10:44.828675
2511  2023-10-25 10:10:44.860649
2512  2023-10-25 10:10:44.892539
2513  2023-10-25 10:10:44.924454
2514  2023-10-25 10:10:44.956369
2515  2023-10-25 10:10:45.004237
2516  2023-10-25 10:10:45.036148
2517  2023-10-25 10:10:45.068076
2518  2023-10-25 10:10:45.100070
2519  2023-10-25 10:10:45.131986
2520  2023-10-25 10:10:45.163881
2521  2023-10-25 10:10:45.195794
2522  2023-10-25 10:10:45.227737
2523  2023-10-25 10:10:45.260584
2524  2023-10-25 10:10:45.291531
2525  2023-10-25 10:10:45.323469
2526  2023-10-25 10:10:45.355382
2527  2023-10-25 10:10:45.403202
2528  2023-10-25 10:10:45.436159
2529  2023-10-25 10:10:45.468059
2530  2023-10-25 10:10:45.499944
2531  2023-10-25 10:10:45.531915
2532  2023-10-25 10:10:45.563791
2533  2023-10-25 10:10:45.595725
2534  2023-10-25 10:10:45.627634
2535  2023-10-25 10:10:45.659547
2536  2023-10-25 10:10:45.691465
2537  2023-10-25 10:10:45.723396
2538  2023-10-25 10:10:45.755312
2539  2023-10-25 10:10:45.804155
2540  2023-10-25 10:10:45.835080
2541  2023-10-25 10:10:45.868010
2542  2023-10-25 10:10:45.899907
2543  2023-10-25 10:10:45.931789
2544  2023-10-25 10:10:45.963754
2545  2023-10-25 10:10:45.995655
2546  2023-10-25 10:10:46.027534
2547  2023-10-25 10:10:46.059480
2548  2023-10-25 10:10:46.091398
2549  2023-10-25 10:10:46.123328
2550  2023-10-25 10:10:46.155283
2551  2023-10-25 10:10:46.203097
2552  2023-10-25 10:10:46.235975
2553  2023-10-25 10:10:46.268887
2554  2023-10-25 10:10:46.298807
2555  2023-10-25 10:10:46.331721
2556  2023-10-25 10:10:46.363661
2557  2023-10-25 10:10:46.395590
2558  2023-10-25 10:10:46.427625
2559  2023-10-25 10:10:46.459550
2560  2023-10-25 10:10:46.491510
2561  2023-10-25 10:10:46.523370
2562  2023-10-25 10:10:46.555281
2563  2023-10-25 10:10:46.603160
2564  2023-10-25 10:10:46.636037
2565  2023-10-25 10:10:46.667949
2566  2023-10-25 10:10:46.699865
2567  2023-10-25 10:10:46.731779
2568  2023-10-25 10:10:46.763694
2569  2023-10-25 10:10:46.795608
2570  2023-10-25 10:10:46.827524
2571  2023-10-25 10:10:46.859472
2572  2023-10-25 10:10:46.891396
2573  2023-10-25 10:10:46.924296
2574  2023-10-25 10:10:46.955208
2575  2023-10-25 10:10:47.003082
2576  2023-10-25 10:10:47.034999
2577  2023-10-25 10:10:47.066915
2578  2023-10-25 10:10:47.100822
2579  2023-10-25 10:10:47.132769
2580  2023-10-25 10:10:47.164683
2581  2023-10-25 10:10:47.195539
2582  2023-10-25 10:10:47.228499
2583  2023-10-25 10:10:47.260399
2584  2023-10-25 10:10:47.292307
2585  2023-10-25 10:10:47.324237
2586  2023-10-25 10:10:47.373066
2587  2023-10-25 10:10:47.403028
2588  2023-10-25 10:10:47.435897
2589  2023-10-25 10:10:47.467811
2590  2023-10-25 10:10:47.499726
2591  2023-10-25 10:10:47.532689
2592  2023-10-25 10:10:47.565576
2593  2023-10-25 10:10:47.595496
2594  2023-10-25 10:10:47.627437
2595  2023-10-25 10:10:47.660329
2596  2023-10-25 10:10:47.692212
2597  2023-10-25 10:10:47.723184
2598  2023-10-25 10:10:47.772041
2599  2023-10-25 10:10:47.803991
2600  2023-10-25 10:10:47.835940
2601  2023-10-25 10:10:47.867822
2602  2023-10-25 10:10:47.899792
2603  2023-10-25 10:10:47.932703
2604  2023-10-25 10:10:47.964617
2605  2023-10-25 10:10:47.995537
2606  2023-10-25 10:10:48.027483
2607  2023-10-25 10:10:48.060392
2608  2023-10-25 10:10:48.092286
2609  2023-10-25 10:10:48.124224
2610  2023-10-25 10:10:48.172063
2611  2023-10-25 10:10:48.204041
2612  2023-10-25 10:10:48.235930
2613  2023-10-25 10:10:48.266919
2614  2023-10-25 10:10:48.299759
2615  2023-10-25 10:10:48.332672
2616  2023-10-25 10:10:48.364586
2617  2023-10-25 10:10:48.395502
2618  2023-10-25 10:10:48.427417
2619  2023-10-25 10:10:48.459358
2620  2023-10-25 10:10:48.492287
2621  2023-10-25 10:10:48.524209
2622  2023-10-25 10:10:48.572032
2623  2023-10-25 10:10:48.603980
2624  2023-10-25 10:10:48.635861
2625  2023-10-25 10:10:48.666780
2626  2023-10-25 10:10:48.699743
2627  2023-10-25 10:10:48.732613
2628  2023-10-25 10:10:48.763560
2629  2023-10-25 10:10:48.795473
2630  2023-10-25 10:10:48.827433
2631  2023-10-25 10:10:48.859385
2632  2023-10-25 10:10:48.891288
2633  2023-10-25 10:10:48.924210
2634  2023-10-25 10:10:48.971086
2635  2023-10-25 10:10:49.003962
2636  2023-10-25 10:10:49.034879
2637  2023-10-25 10:10:49.067792
2638  2023-10-25 10:10:49.099739
2639  2023-10-25 10:10:49.131657
2640  2023-10-25 10:10:49.163565
2641  2023-10-25 10:10:49.195475
2642  2023-10-25 10:10:49.227364
2643  2023-10-25 10:10:49.259306
2644  2023-10-25 10:10:49.291228
2645  2023-10-25 10:10:49.323148
2646  2023-10-25 10:10:49.371980
2647  2023-10-25 10:10:49.402925
2648  2023-10-25 10:10:49.435837
2649  2023-10-25 10:10:49.467721
2650  2023-10-25 10:10:49.499643
2651  2023-10-25 10:10:49.531584
2652  2023-10-25 10:10:49.563499
2653  2023-10-25 10:10:49.595432
2654  2023-10-25 10:10:49.627294
2655  2023-10-25 10:10:49.659242
2656  2023-10-25 10:10:49.691182
2657  2023-10-25 10:10:49.723069
2658  2023-10-25 10:10:49.771909
2659  2023-10-25 10:10:49.803823
2660  2023-10-25 10:10:49.835741
2661  2023-10-25 10:10:49.867700
2662  2023-10-25 10:10:49.899568
2663  2023-10-25 10:10:49.931517
2664  2023-10-25 10:10:49.963434
2665  2023-10-25 10:10:49.995347
2666  2023-10-25 10:10:50.027314
2667  2023-10-25 10:10:50.060137
2668  2023-10-25 10:10:50.091081
2669  2023-10-25 10:10:50.122994
2670  2023-10-25 10:10:50.171839
2671  2023-10-25 10:10:50.203875
2672  2023-10-25 10:10:50.234778
2673  2023-10-25 10:10:50.267690
2674  2023-10-25 10:10:50.299614
2675  2023-10-25 10:10:50.331521
2676  2023-10-25 10:10:50.363471
2677  2023-10-25 10:10:50.396347
2678  2023-10-25 10:10:50.427303
2679  2023-10-25 10:10:50.459178
2680  2023-10-25 10:10:50.491125
2681  2023-10-25 10:10:50.524137
2682  2023-10-25 10:10:50.572024
2683  2023-10-25 10:10:50.602910
2684  2023-10-25 10:10:50.635898
2685  2023-10-25 10:10:50.667792
2686  2023-10-25 10:10:50.699649
2687  2023-10-25 10:10:50.732574
2688  2023-10-25 10:10:50.763528
2689  2023-10-25 10:10:50.795445
2690  2023-10-25 10:10:50.827308
2691  2023-10-25 10:10:50.859415
2692  2023-10-25 10:10:50.891326
2693  2023-10-25 10:10:50.923222
2694  2023-10-25 10:10:50.972105
2695  2023-10-25 10:10:51.004041
2696  2023-10-25 10:10:51.035941
2697  2023-10-25 10:10:51.067834
2698  2023-10-25 10:10:51.099722
2699  2023-10-25 10:10:51.131687
2700  2023-10-25 10:10:51.163602
2701  2023-10-25 10:10:51.195600
2702  2023-10-25 10:10:51.227487
2703  2023-10-25 10:10:51.259402
2704  2023-10-25 10:10:51.291359
2705  2023-10-25 10:10:51.339188
2706  2023-10-25 10:10:51.372143
2707  2023-10-25 10:10:51.403060
2708  2023-10-25 10:10:51.435958
2709  2023-10-25 10:10:51.467844
2710  2023-10-25 10:10:51.499759
2711  2023-10-25 10:10:51.531703
2712  2023-10-25 10:10:51.563620
2713  2023-10-25 10:10:51.595555
2714  2023-10-25 10:10:51.627418
2715  2023-10-25 10:10:51.659368
2716  2023-10-25 10:10:51.691329
2717  2023-10-25 10:10:51.739255
2718  2023-10-25 10:10:51.771174
2719  2023-10-25 10:10:51.803084
2720  2023-10-25 10:10:51.835993
2721  2023-10-25 10:10:51.867921
2722  2023-10-25 10:10:51.899791
2723  2023-10-25 10:10:51.931709
2724  2023-10-25 10:10:51.963650
2725  2023-10-25 10:10:51.995562
2726  2023-10-25 10:10:52.027450
2727  2023-10-25 10:10:52.059365
2728  2023-10-25 10:10:52.091320
2729  2023-10-25 10:10:52.139157
2730  2023-10-25 10:10:52.171137
2731  2023-10-25 10:10:52.204011
2732  2023-10-25 10:10:52.235949
2733  2023-10-25 10:10:52.267807
2734  2023-10-25 10:10:52.299773
2735  2023-10-25 10:10:52.331734
2736  2023-10-25 10:10:52.363612
2737  2023-10-25 10:10:52.395523
2738  2023-10-25 10:10:52.427380
2739  2023-10-25 10:10:52.459295
2740  2023-10-25 10:10:52.491272
2741  2023-10-25 10:10:52.540080
2742  2023-10-25 10:10:52.571995
2743  2023-10-25 10:10:52.603959
2744  2023-10-25 10:10:52.635859
2745  2023-10-25 10:10:52.667738
2746  2023-10-25 10:10:52.699699
2747  2023-10-25 10:10:52.731604
2748  2023-10-25 10:10:52.763516
2749  2023-10-25 10:10:52.795430
2750  2023-10-25 10:10:52.827347
2751  2023-10-25 10:10:52.859263
2752  2023-10-25 10:10:52.891143
2753  2023-10-25 10:10:52.939071
2754  2023-10-25 10:10:52.971927
2755  2023-10-25 10:10:53.003842
2756  2023-10-25 10:10:53.035756
2757  2023-10-25 10:10:53.067669
2758  2023-10-25 10:10:53.100581
2759  2023-10-25 10:10:53.131531
2760  2023-10-25 10:10:53.163465
2761  2023-10-25 10:10:53.195356
2762  2023-10-25 10:10:53.227279
2763  2023-10-25 10:10:53.259255
2764  2023-10-25 10:10:53.291224
2765  2023-10-25 10:10:53.340039
2766  2023-10-25 10:10:53.371000
2767  2023-10-25 10:10:53.402904
2768  2023-10-25 10:10:53.434834
2769  2023-10-25 10:10:53.467698
2770  2023-10-25 10:10:53.499612
2771  2023-10-25 10:10:53.531561
2772  2023-10-25 10:10:53.563493
2773  2023-10-25 10:10:53.595387
2774  2023-10-25 10:10:53.627308
2775  2023-10-25 10:10:53.659222
2776  2023-10-25 10:10:53.691167
2777  2023-10-25 10:10:53.739970
2778  2023-10-25 10:10:53.772096
2779  2023-10-25 10:10:53.803955
2780  2023-10-25 10:10:53.835868
2781  2023-10-25 10:10:53.867783
2782  2023-10-25 10:10:53.899697
2783  2023-10-25 10:10:53.931613
2784  2023-10-25 10:10:53.963563
2785  2023-10-25 10:10:53.995491
2786  2023-10-25 10:10:54.027357
2787  2023-10-25 10:10:54.060321
2788  2023-10-25 10:10:54.091185
2789  2023-10-25 10:10:54.139093
2790  2023-10-25 10:10:54.171014
2791  2023-10-25 10:10:54.202933
2792  2023-10-25 10:10:54.235886
2793  2023-10-25 10:10:54.266919
2794  2023-10-25 10:10:54.299790
2795  2023-10-25 10:10:54.331705
2796  2023-10-25 10:10:54.363648
2797  2023-10-25 10:10:54.395585
2798  2023-10-25 10:10:54.427478
2799  2023-10-25 10:10:54.459364
2800  2023-10-25 10:10:54.491306
2801  2023-10-25 10:10:54.540183
2802  2023-10-25 10:10:54.571096
2803  2023-10-25 10:10:54.604004
2804  2023-10-25 10:10:54.634944
2805  2023-10-25 10:10:54.666837
2806  2023-10-25 10:10:54.699755
2807  2023-10-25 10:10:54.731673
2808  2023-10-25 10:10:54.763577
2809  2023-10-25 10:10:54.795504
2810  2023-10-25 10:10:54.827380
2811  2023-10-25 10:10:54.860292
2812  2023-10-25 10:10:54.908164
2813  2023-10-25 10:10:54.940079
2814  2023-10-25 10:10:54.971993
2815  2023-10-25 10:10:55.002911
2816  2023-10-25 10:10:55.035823
2817  2023-10-25 10:10:55.067738
2818  2023-10-25 10:10:55.099656
2819  2023-10-25 10:10:55.131566
2820  2023-10-25 10:10:55.163483
2821  2023-10-25 10:10:55.195397
2822  2023-10-25 10:10:55.227319
2823  2023-10-25 10:10:55.259239
2824  2023-10-25 10:10:55.307097
2825  2023-10-25 10:10:55.340042
2826  2023-10-25 10:10:55.370926
2827  2023-10-25 10:10:55.403899
2828  2023-10-25 10:10:55.435803
2829  2023-10-25 10:10:55.467695
2830  2023-10-25 10:10:55.499582
2831  2023-10-25 10:10:55.531533
2832  2023-10-25 10:10:55.563438
2833  2023-10-25 10:10:55.595460
2834  2023-10-25 10:10:55.627402
2835  2023-10-25 10:10:55.659263
2836  2023-10-25 10:10:55.707135
2837  2023-10-25 10:10:55.739084
2838  2023-10-25 10:10:55.771993
2839  2023-10-25 10:10:55.803876
2840  2023-10-25 10:10:55.835824
2841  2023-10-25 10:10:55.867738
2842  2023-10-25 10:10:55.899659
2843  2023-10-25 10:10:55.931533
2844  2023-10-25 10:10:55.963500
2845  2023-10-25 10:10:55.995416
2846  2023-10-25 10:10:56.027280
2847  2023-10-25 10:10:56.059217
2848  2023-10-25 10:10:56.107123
2849  2023-10-25 10:10:56.139002
2850  2023-10-25 10:10:56.170957
2851  2023-10-25 10:10:56.203830
2852  2023-10-25 10:10:56.235744
2853  2023-10-25 10:10:56.267717
2854  2023-10-25 10:10:56.299573
2855  2023-10-25 10:10:56.331487
2856  2023-10-25 10:10:56.363402
2857  2023-10-25 10:10:56.395317
2858  2023-10-25 10:10:56.427235
2859  2023-10-25 10:10:56.460261
2860  2023-10-25 10:10:56.507202
2861  2023-10-25 10:10:56.540048
2862  2023-10-25 10:10:56.570993
2863  2023-10-25 10:10:56.603892
2864  2023-10-25 10:10:56.635825
2865  2023-10-25 10:10:56.667741
2866  2023-10-25 10:10:56.699654
2867  2023-10-25 10:10:56.731534
2868  2023-10-25 10:10:56.764446
2869  2023-10-25 10:10:56.795397
2870  2023-10-25 10:10:56.827378
2871  2023-10-25 10:10:56.859260
2872  2023-10-25 10:10:56.907201
2873  2023-10-25 10:10:56.940069
2874  2023-10-25 10:10:56.970994
2875  2023-10-25 10:10:57.003928
2876  2023-10-25 10:10:57.035794
2877  2023-10-25 10:10:57.067713
2878  2023-10-25 10:10:57.099644
2879  2023-10-25 10:10:57.131531
2880  2023-10-25 10:10:57.163683
2881  2023-10-25 10:10:57.195571
2882  2023-10-25 10:10:57.227486
2883  2023-10-25 10:10:57.259400
2884  2023-10-25 10:10:57.307358
2885  2023-10-25 10:10:57.339317
2886  2023-10-25 10:10:57.371232
2887  2023-10-25 10:10:57.403216
2888  2023-10-25 10:10:57.435108
2889  2023-10-25 10:10:57.468024
2890  2023-10-25 10:10:57.498922
2891  2023-10-25 10:10:57.531836
2892  2023-10-25 10:10:57.563719
2893  2023-10-25 10:10:57.595683
2894  2023-10-25 10:10:57.627597
2895  2023-10-25 10:10:57.659500
2896  2023-10-25 10:10:57.707361
2897  2023-10-25 10:10:57.739275
2898  2023-10-25 10:10:57.772161
2899  2023-10-25 10:10:57.803114
2900  2023-10-25 10:10:57.835033
2901  2023-10-25 10:10:57.867952
2902  2023-10-25 10:10:57.899821
2903  2023-10-25 10:10:57.931733
2904  2023-10-25 10:10:57.963674
2905  2023-10-25 10:10:57.995601
2906  2023-10-25 10:10:58.027505
2907  2023-10-25 10:10:58.059392
2908  2023-10-25 10:10:58.107264
2909  2023-10-25 10:10:58.139179
2910  2023-10-25 10:10:58.171185
2911  2023-10-25 10:10:58.204005
2912  2023-10-25 10:10:58.235922
2913  2023-10-25 10:10:58.267854
2914  2023-10-25 10:10:58.299800
2915  2023-10-25 10:10:58.331668
2916  2023-10-25 10:10:58.363579
2917  2023-10-25 10:10:58.395495
2918  2023-10-25 10:10:58.428440
2919  2023-10-25 10:10:58.459325
2920  2023-10-25 10:10:58.507227
2921  2023-10-25 10:10:58.540144
2922  2023-10-25 10:10:58.571055
2923  2023-10-25 10:10:58.603937
2924  2023-10-25 10:10:58.634904
2925  2023-10-25 10:10:58.667816
2926  2023-10-25 10:10:58.699718
2927  2023-10-25 10:10:58.731645
2928  2023-10-25 10:10:58.763510
2929  2023-10-25 10:10:58.795452
2930  2023-10-25 10:10:58.827405
2931  2023-10-25 10:10:58.875244
2932  2023-10-25 10:10:58.907156
2933  2023-10-25 10:10:58.940087
2934  2023-10-25 10:10:58.971953
2935  2023-10-25 10:10:59.002920
2936  2023-10-25 10:10:59.035785
2937  2023-10-25 10:10:59.067698
2938  2023-10-25 10:10:59.099637
2939  2023-10-25 10:10:59.131525
2940  2023-10-25 10:10:59.163440
2941  2023-10-25 10:10:59.195389
2942  2023-10-25 10:10:59.227305
2943  2023-10-25 10:10:59.275388
2944  2023-10-25 10:10:59.307283
2945  2023-10-25 10:10:59.339207
2946  2023-10-25 10:10:59.372079
2947  2023-10-25 10:10:59.403995
2948  2023-10-25 10:10:59.434943
2949  2023-10-25 10:10:59.467825
2950  2023-10-25 10:10:59.499753
2951  2023-10-25 10:10:59.531707
2952  2023-10-25 10:10:59.563603
2953  2023-10-25 10:10:59.595516
2954  2023-10-25 10:10:59.627433
2955  2023-10-25 10:10:59.675301
2956  2023-10-25 10:10:59.707217
2957  2023-10-25 10:10:59.739150
2958  2023-10-25 10:10:59.771012
2959  2023-10-25 10:10:59.803924
2960  2023-10-25 10:10:59.835871
2961  2023-10-25 10:10:59.867795
2962  2023-10-25 10:10:59.899718
2963  2023-10-25 10:10:59.931583
2964  2023-10-25 10:10:59.963498
2965  2023-10-25 10:10:59.995445
2966  2023-10-25 10:11:00.027358
2967  2023-10-25 10:11:00.075251
2968  2023-10-25 10:11:00.107145
2969  2023-10-25 10:11:00.139083
2970  2023-10-25 10:11:00.170943
2971  2023-10-25 10:11:00.203855
2972  2023-10-25 10:11:00.235771
2973  2023-10-25 10:11:00.267717
2974  2023-10-25 10:11:00.299626
2975  2023-10-25 10:11:00.331514
2976  2023-10-25 10:11:00.363428
2977  2023-10-25 10:11:00.396374
2978  2023-10-25 10:11:00.427289
2979  2023-10-25 10:11:00.475132
2980  2023-10-25 10:11:00.507094
2981  2023-10-25 10:11:00.539006
2982  2023-10-25 10:11:00.571872
2983  2023-10-25 10:11:00.603788
2984  2023-10-25 10:11:00.635702
2985  2023-10-25 10:11:00.667658
2986  2023-10-25 10:11:00.699568
2987  2023-10-25 10:11:00.731483
2988  2023-10-25 10:11:00.763359
2989  2023-10-25 10:11:00.795309
2990  2023-10-25 10:11:00.827249
2991  2023-10-25 10:11:00.875092
2992  2023-10-25 10:11:00.907974
2993  2023-10-25 10:11:00.938934
2994  2023-10-25 10:11:00.971802
2995  2023-10-25 10:11:01.003716
2996  2023-10-25 10:11:01.035670
2997  2023-10-25 10:11:01.067576
2998  2023-10-25 10:11:01.099493
2999  2023-10-25 10:11:01.131375
3000  2023-10-25 10:11:01.163290
3001  2023-10-25 10:11:01.195263
3002  2023-10-25 10:11:01.227132
3003  2023-10-25 10:11:01.275023
3004  2023-10-25 10:11:01.307936
3005  2023-10-25 10:11:01.339818
3006  2023-10-25 10:11:01.371732
3007  2023-10-25 10:11:01.403647
3008  2023-10-25 10:11:01.435593
3009  2023-10-25 10:11:01.467511
3010  2023-10-25 10:11:01.499451
3011  2023-10-25 10:11:01.531306
3012  2023-10-25 10:11:01.563220
3013  2023-10-25 10:11:01.595281
3014  2023-10-25 10:11:01.627194
3015  2023-10-25 10:11:01.675117
3016  2023-10-25 10:11:01.707025
3017  2023-10-25 10:11:01.738958
3018  2023-10-25 10:11:01.771873
3019  2023-10-25 10:11:01.803786
3020  2023-10-25 10:11:01.835733
3021  2023-10-25 10:11:01.867647
3022  2023-10-25 10:11:01.899532
3023  2023-10-25 10:11:01.931447
3024  2023-10-25 10:11:01.963359
3025  2023-10-25 10:11:01.995307
3026  2023-10-25 10:11:02.027191
3027  2023-10-25 10:11:02.075090
3028  2023-10-25 10:11:02.107035
3029  2023-10-25 10:11:02.139991
3030  2023-10-25 10:11:02.171935
3031  2023-10-25 10:11:02.202852
3032  2023-10-25 10:11:02.235767
3033  2023-10-25 10:11:02.267748
3034  2023-10-25 10:11:02.299625
3035  2023-10-25 10:11:02.331540
3036  2023-10-25 10:11:02.363464
3037  2023-10-25 10:11:02.395372
3038  2023-10-25 10:11:02.443235
3039  2023-10-25 10:11:02.475124
3040  2023-10-25 10:11:02.507091
3041  2023-10-25 10:11:02.539952
3042  2023-10-25 10:11:02.570913
3043  2023-10-25 10:11:02.603783
3044  2023-10-25 10:11:02.635733
3045  2023-10-25 10:11:02.667717
3046  2023-10-25 10:11:02.699664
3047  2023-10-25 10:11:02.731572
3048  2023-10-25 10:11:02.763461
3049  2023-10-25 10:11:02.795376
3050  2023-10-25 10:11:02.843248
3051  2023-10-25 10:11:02.875163
3052  2023-10-25 10:11:02.907123
3053  2023-10-25 10:11:02.939149
3054  2023-10-25 10:11:02.971172
3055  2023-10-25 10:11:03.003041
3056  2023-10-25 10:11:03.035953
3057  2023-10-25 10:11:03.067869
3058  2023-10-25 10:11:03.099790
3059  2023-10-25 10:11:03.131697
3060  2023-10-25 10:11:03.163611
3061  2023-10-25 10:11:03.195526
3062  2023-10-25 10:11:03.243398
3063  2023-10-25 10:11:03.275313
3064  2023-10-25 10:11:03.307228
3065  2023-10-25 10:11:03.339142
3066  2023-10-25 10:11:03.371057
3067  2023-10-25 10:11:03.403970
3068  2023-10-25 10:11:03.434886
3069  2023-10-25 10:11:03.467799
3070  2023-10-25 10:11:03.499713
3071  2023-10-25 10:11:03.531628
3072  2023-10-25 10:11:03.564568
3073  2023-10-25 10:11:03.595457
3074  2023-10-25 10:11:03.643329
3075  2023-10-25 10:11:03.675243
3076  2023-10-25 10:11:03.707158
3077  2023-10-25 10:11:03.739073
3078  2023-10-25 10:11:03.771986
3079  2023-10-25 10:11:03.803900
3080  2023-10-25 10:11:03.835986
3081  2023-10-25 10:11:03.867900
3082  2023-10-25 10:11:03.899817
3083  2023-10-25 10:11:03.931769
3084  2023-10-25 10:11:03.963645
3085  2023-10-25 10:11:03.995787
3086  2023-10-25 10:11:04.043820
3087  2023-10-25 10:11:04.075736
3088  2023-10-25 10:11:04.107650
3089  2023-10-25 10:11:04.139565
3090  2023-10-25 10:11:04.171479
3091  2023-10-25 10:11:04.203394
3092  2023-10-25 10:11:04.235322
3093  2023-10-25 10:11:04.267223
3094  2023-10-25 10:11:04.299138
3095  2023-10-25 10:11:04.331052
3096  2023-10-25 10:11:04.363996
3097  2023-10-25 10:11:04.395879
3098  2023-10-25 10:11:04.442801
3099  2023-10-25 10:11:04.475666
3100  2023-10-25 10:11:04.507580
3101  2023-10-25 10:11:04.539495
3102  2023-10-25 10:11:04.571442
3103  2023-10-25 10:11:04.603324
3104  2023-10-25 10:11:04.635239
3105  2023-10-25 10:11:04.667154
3106  2023-10-25 10:11:04.699133
3107  2023-10-25 10:11:04.731037
3108  2023-10-25 10:11:04.763895
3109  2023-10-25 10:11:04.794812
3110  2023-10-25 10:11:04.843682
3111  2023-10-25 10:11:04.875596
3112  2023-10-25 10:11:04.907511
3113  2023-10-25 10:11:04.939426
3114  2023-10-25 10:11:04.971340
3115  2023-10-25 10:11:05.003255
3116  2023-10-25 10:11:05.035170
3117  2023-10-25 10:11:05.067194
3118  2023-10-25 10:11:05.099113
3119  2023-10-25 10:11:05.131022
3120  2023-10-25 10:11:05.162937
3121  2023-10-25 10:11:05.194852
3122  2023-10-25 10:11:05.243721
3123  2023-10-25 10:11:05.275636
3124  2023-10-25 10:11:05.307550
3125  2023-10-25 10:11:05.339465
3126  2023-10-25 10:11:05.371380
3127  2023-10-25 10:11:05.403329
3128  2023-10-25 10:11:05.435246
3129  2023-10-25 10:11:05.467124
3130  2023-10-25 10:11:05.499038
3131  2023-10-25 10:11:05.531992
3132  2023-10-25 10:11:05.563933
3133  2023-10-25 10:11:05.595905
3134  2023-10-25 10:11:05.642981
3135  2023-10-25 10:11:05.674851
3136  2023-10-25 10:11:05.707764
3137  2023-10-25 10:11:05.739678
3138  2023-10-25 10:11:05.771592
3139  2023-10-25 10:11:05.803508
3140  2023-10-25 10:11:05.835422
3141  2023-10-25 10:11:05.867336
3142  2023-10-25 10:11:05.899251
3143  2023-10-25 10:11:05.932164
3144  2023-10-25 10:11:05.963096
3145  2023-10-25 10:11:06.011950
3146  2023-10-25 10:11:06.042867
3147  2023-10-25 10:11:06.074782
3148  2023-10-25 10:11:06.107694
3149  2023-10-25 10:11:06.139608
3150  2023-10-25 10:11:06.171523
3151  2023-10-25 10:11:06.203438
3152  2023-10-25 10:11:06.235352
3153  2023-10-25 10:11:06.267267
3154  2023-10-25 10:11:06.299182
3155  2023-10-25 10:11:06.331111
3156  2023-10-25 10:11:06.363013
3157  2023-10-25 10:11:06.410883
3158  2023-10-25 10:11:06.443902
3159  2023-10-25 10:11:06.474788
3160  2023-10-25 10:11:06.507185
3161  2023-10-25 10:11:06.539131
3162  2023-10-25 10:11:06.571090
3163  2023-10-25 10:11:06.603993
3164  2023-10-25 10:11:06.634875
3165  2023-10-25 10:11:06.667787
3166  2023-10-25 10:11:06.699733
3167  2023-10-25 10:11:06.731652
3168  2023-10-25 10:11:06.763532
3169  2023-10-25 10:11:06.811428
3170  2023-10-25 10:11:06.843318
3171  2023-10-25 10:11:06.875233
3172  2023-10-25 10:11:06.907183
3173  2023-10-25 10:11:06.939110
3174  2023-10-25 10:11:06.970977
3175  2023-10-25 10:11:07.002891
3176  2023-10-25 10:11:07.035804
3177  2023-10-25 10:11:07.067754
3178  2023-10-25 10:11:07.099633
3179  2023-10-25 10:11:07.131547
3180  2023-10-25 10:11:07.163462
3181  2023-10-25 10:11:07.211334
3182  2023-10-25 10:11:07.243274
3183  2023-10-25 10:11:07.275164
3184  2023-10-25 10:11:07.307078
3185  2023-10-25 10:11:07.338993
3186  2023-10-25 10:11:07.371918
3187  2023-10-25 10:11:07.403868
3188  2023-10-25 10:11:07.435734
3189  2023-10-25 10:11:07.467649
3190  2023-10-25 10:11:07.499563
3191  2023-10-25 10:11:07.531478
3192  2023-10-25 10:11:07.563400
3193  2023-10-25 10:11:07.611265
3194  2023-10-25 10:11:07.643179
3195  2023-10-25 10:11:07.675094
3196  2023-10-25 10:11:07.707009
3197  2023-10-25 10:11:07.740053
3198  2023-10-25 10:11:07.770970
3199  2023-10-25 10:11:07.803883
3200  2023-10-25 10:11:07.835801
3201  2023-10-25 10:11:07.867712
3202  2023-10-25 10:11:07.899627
3203  2023-10-25 10:11:07.931541
3204  2023-10-25 10:11:07.963456
3205  2023-10-25 10:11:08.011411
3206  2023-10-25 10:11:08.043326
3207  2023-10-25 10:11:08.075240
3208  2023-10-25 10:11:08.107155
3209  2023-10-25 10:11:08.139070
3210  2023-10-25 10:11:08.170984
3211  2023-10-25 10:11:08.203897
3212  2023-10-25 10:11:08.235813
3213  2023-10-25 10:11:08.267744
3214  2023-10-25 10:11:08.299778
3215  2023-10-25 10:11:08.331694
3216  2023-10-25 10:11:08.363608
3217  2023-10-25 10:11:08.411480
3218  2023-10-25 10:11:08.443419
3219  2023-10-25 10:11:08.475380
3220  2023-10-25 10:11:08.507273
3221  2023-10-25 10:11:08.539275
3222  2023-10-25 10:11:08.571222
3223  2023-10-25 10:11:08.603207
3224  2023-10-25 10:11:08.635188
3225  2023-10-25 10:11:08.667096
3226  2023-10-25 10:11:08.699074
3227  2023-10-25 10:11:08.730966
3228  2023-10-25 10:11:08.763838
3229  2023-10-25 10:11:08.810822
3230  2023-10-25 10:11:08.843734
3231  2023-10-25 10:11:08.875648
3232  2023-10-25 10:11:08.907563
3233  2023-10-25 10:11:08.939478
3234  2023-10-25 10:11:08.971392
3235  2023-10-25 10:11:09.003307
3236  2023-10-25 10:11:09.035222
3237  2023-10-25 10:11:09.067136
3238  2023-10-25 10:11:09.099051
3239  2023-10-25 10:11:09.130966
3240  2023-10-25 10:11:09.162914
3241  2023-10-25 10:11:09.210786
3242  2023-10-25 10:11:09.243698
3243  2023-10-25 10:11:09.275798
3244  2023-10-25 10:11:09.307769
3245  2023-10-25 10:11:09.339683
3246  2023-10-25 10:11:09.371598
3247  2023-10-25 10:11:09.403549
3248  2023-10-25 10:11:09.435464
3249  2023-10-25 10:11:09.467342
3250  2023-10-25 10:11:09.499257
3251  2023-10-25 10:11:09.531216
3252  2023-10-25 10:11:09.563131
3253  2023-10-25 10:11:09.611006
3254  2023-10-25 10:11:09.642874
3255  2023-10-25 10:11:09.674787
3256  2023-10-25 10:11:09.707699
3257  2023-10-25 10:11:09.739613
3258  2023-10-25 10:11:09.771528
3259  2023-10-25 10:11:09.803443
3260  2023-10-25 10:11:09.835357
3261  2023-10-25 10:11:09.867272
3262  2023-10-25 10:11:09.899198
3263  2023-10-25 10:11:09.931103
3264  2023-10-25 10:11:09.979102
3265  2023-10-25 10:11:10.011017
3266  2023-10-25 10:11:10.042931
3267  2023-10-25 10:11:10.074895
3268  2023-10-25 10:11:10.107758
3269  2023-10-25 10:11:10.139673
3270  2023-10-25 10:11:10.171587
3271  2023-10-25 10:11:10.203503
3272  2023-10-25 10:11:10.235429
3273  2023-10-25 10:11:10.267510
3274  2023-10-25 10:11:10.299424
3275  2023-10-25 10:11:10.331338
3276  2023-10-25 10:11:10.379210
3277  2023-10-25 10:11:10.411160
3278  2023-10-25 10:11:10.443103
3279  2023-10-25 10:11:10.474954
3280  2023-10-25 10:11:10.507867
3281  2023-10-25 10:11:10.539818
3282  2023-10-25 10:11:10.571707
3283  2023-10-25 10:11:10.603610
3284  2023-10-25 10:11:10.635525
3285  2023-10-25 10:11:10.668438
3286  2023-10-25 10:11:10.699355
3287  2023-10-25 10:11:10.731269
3288  2023-10-25 10:11:10.779141
3289  2023-10-25 10:11:10.811100
3290  2023-10-25 10:11:10.842970
3291  2023-10-25 10:11:10.875882
3292  2023-10-25 10:11:10.907797
3293  2023-10-25 10:11:10.939713
3294  2023-10-25 10:11:10.971626
3295  2023-10-25 10:11:11.003541
3296  2023-10-25 10:11:11.035456
3297  2023-10-25 10:11:11.067405
3298  2023-10-25 10:11:11.099318
3299  2023-10-25 10:11:11.131200
3300  2023-10-25 10:11:11.179072
3301  2023-10-25 10:11:11.210986
3302  2023-10-25 10:11:11.243898
3303  2023-10-25 10:11:11.274840
3304  2023-10-25 10:11:11.307729
3305  2023-10-25 10:11:11.339643
3306  2023-10-25 10:11:11.371557
3307  2023-10-25 10:11:11.403501
3308  2023-10-25 10:11:11.435420
3309  2023-10-25 10:11:11.467301
3310  2023-10-25 10:11:11.499222
3311  2023-10-25 10:11:11.531130
3312  2023-10-25 10:11:11.579004
3313  2023-10-25 10:11:11.610964
3314  2023-10-25 10:11:11.643829
3315  2023-10-25 10:11:11.675744
3316  2023-10-25 10:11:11.707658
3317  2023-10-25 10:11:11.739573
3318  2023-10-25 10:11:11.771488
3319  2023-10-25 10:11:11.803403
3320  2023-10-25 10:11:11.835318
3321  2023-10-25 10:11:11.867232
3322  2023-10-25 10:11:11.899146
3323  2023-10-25 10:11:11.932098
3324  2023-10-25 10:11:11.978933
3325  2023-10-25 10:11:12.011845
3326  2023-10-25 10:11:12.043760
3327  2023-10-25 10:11:12.075675
3328  2023-10-25 10:11:12.107591
3329  2023-10-25 10:11:12.139504
3330  2023-10-25 10:11:12.171418
3331  2023-10-25 10:11:12.203333
3332  2023-10-25 10:11:12.235251
3333  2023-10-25 10:11:12.268160
3334  2023-10-25 10:11:12.299077
3335  2023-10-25 10:11:12.331989
3336  2023-10-25 10:11:12.378864
3337  2023-10-25 10:11:12.411782
3338  2023-10-25 10:11:12.443693
3339  2023-10-25 10:11:12.475607
3340  2023-10-25 10:11:12.507525
3341  2023-10-25 10:11:12.539533
3342  2023-10-25 10:11:12.571326
3343  2023-10-25 10:11:12.603251
3344  2023-10-25 10:11:12.635132
3345  2023-10-25 10:11:12.667043
3346  2023-10-25 10:11:12.698958
3347  2023-10-25 10:11:12.731904
3348  2023-10-25 10:11:12.779774
3349  2023-10-25 10:11:12.811708
3350  2023-10-25 10:11:12.843574
3351  2023-10-25 10:11:12.875486
3352  2023-10-25 10:11:12.907434
3353  2023-10-25 10:11:12.939351
3354  2023-10-25 10:11:12.972228
3355  2023-10-25 10:11:13.003145
3356  2023-10-25 10:11:13.035059
3357  2023-10-25 10:11:13.068002
3358  2023-10-25 10:11:13.098889
3359  2023-10-25 10:11:13.131801
3360  2023-10-25 10:11:13.179681
3361  2023-10-25 10:11:13.211587
3362  2023-10-25 10:11:13.243502
3363  2023-10-25 10:11:13.275417
3364  2023-10-25 10:11:13.307332
3365  2023-10-25 10:11:13.339246
3366  2023-10-25 10:11:13.371161
3367  2023-10-25 10:11:13.403075
3368  2023-10-25 10:11:13.436068
3369  2023-10-25 10:11:13.467034
3370  2023-10-25 10:11:13.499946
3371  2023-10-25 10:11:13.547818
3372  2023-10-25 10:11:13.579733
3373  2023-10-25 10:11:13.611647
3374  2023-10-25 10:11:13.643562
3375  2023-10-25 10:11:13.675477
3376  2023-10-25 10:11:13.707391
3377  2023-10-25 10:11:13.739306
3378  2023-10-25 10:11:13.771221
3379  2023-10-25 10:11:13.803249
3380  2023-10-25 10:11:13.835258
3381  2023-10-25 10:11:13.867173
3382  2023-10-25 10:11:13.899087
3383  2023-10-25 10:11:13.946959
3384  2023-10-25 10:11:13.978874
3385  2023-10-25 10:11:14.011786
3386  2023-10-25 10:11:14.043701
3387  2023-10-25 10:11:14.075615
3388  2023-10-25 10:11:14.107530
3389  2023-10-25 10:11:14.139446
3390  2023-10-25 10:11:14.171360
3391  2023-10-25 10:11:14.203274
3392  2023-10-25 10:11:14.236253
3393  2023-10-25 10:11:14.267104
3394  2023-10-25 10:11:14.300016
3395  2023-10-25 10:11:14.347888
3396  2023-10-25 10:11:14.379124
3397  2023-10-25 10:11:14.411027
3398  2023-10-25 10:11:14.442972
3399  2023-10-25 10:11:14.474888
3400  2023-10-25 10:11:14.507768
3401  2023-10-25 10:11:14.539683
3402  2023-10-25 10:11:14.571632
3403  2023-10-25 10:11:14.603548
3404  2023-10-25 10:11:14.637455
3405  2023-10-25 10:11:14.667341
3406  2023-10-25 10:11:14.699285
3407  2023-10-25 10:11:14.749155
3408  2023-10-25 10:11:14.779086
3409  2023-10-25 10:11:14.811014
3410  2023-10-25 10:11:14.843030
3411  2023-10-25 10:11:14.874944
3412  2023-10-25 10:11:14.907857
3413  2023-10-25 10:11:14.939812
3414  2023-10-25 10:11:14.972714
3415  2023-10-25 10:11:15.004629
3416  2023-10-25 10:11:15.037548
3417  2023-10-25 10:11:15.069490
3418  2023-10-25 10:11:15.100378
3419  2023-10-25 10:11:15.149257
3420  2023-10-25 10:11:15.181160
3421  2023-10-25 10:11:15.213072
3422  2023-10-25 10:11:15.244998
3423  2023-10-25 10:11:15.276903
3424  2023-10-25 10:11:15.308832
3425  2023-10-25 10:11:15.340732
3426  2023-10-25 10:11:15.372640
3427  2023-10-25 10:11:15.405549
3428  2023-10-25 10:11:15.436475
3429  2023-10-25 10:11:15.469358
3430  2023-10-25 10:11:15.500366
3431  2023-10-25 10:11:15.548340
3432  2023-10-25 10:11:15.581250
3433  2023-10-25 10:11:15.613165
3434  2023-10-25 10:11:15.645080
3435  2023-10-25 10:11:15.676992
3436  2023-10-25 10:11:15.708909
3437  2023-10-25 10:11:15.740821
3438  2023-10-25 10:11:15.772736
3439  2023-10-25 10:11:15.804849
3440  2023-10-25 10:11:15.836567
3441  2023-10-25 10:11:15.868482
3442  2023-10-25 10:11:15.900400
3443  2023-10-25 10:11:15.948268
3444  2023-10-25 10:11:15.980184
3445  2023-10-25 10:11:16.012118
3446  2023-10-25 10:11:16.045012
3447  2023-10-25 10:11:16.076986
3448  2023-10-25 10:11:16.108935
3449  2023-10-25 10:11:16.140893
3450  2023-10-25 10:11:16.172788
3451  2023-10-25 10:11:16.204725
3452  2023-10-25 10:11:16.236618
3453  2023-10-25 10:11:16.268503
3454  2023-10-25 10:11:16.300470
3455  2023-10-25 10:11:16.348290
3456  2023-10-25 10:11:16.380239
3457  2023-10-25 10:11:16.412149
3458  2023-10-25 10:11:16.445061
3459  2023-10-25 10:11:16.475972
3460  2023-10-25 10:11:16.508870
3461  2023-10-25 10:11:16.539820
3462  2023-10-25 10:11:16.572823
3463  2023-10-25 10:11:16.603776
3464  2023-10-25 10:11:16.635706
3465  2023-10-25 10:11:16.667680
3466  2023-10-25 10:11:16.700569
3467  2023-10-25 10:11:16.748515
3468  2023-10-25 10:11:16.780434
3469  2023-10-25 10:11:16.812347
3470  2023-10-25 10:11:16.844274
3471  2023-10-25 10:11:16.876177
3472  2023-10-25 10:11:16.908089
3473  2023-10-25 10:11:16.941013
3474  2023-10-25 10:11:16.972887
3475  2023-10-25 10:11:17.003803
3476  2023-10-25 10:11:17.035770
3477  2023-10-25 10:11:17.067693
3478  2023-10-25 10:11:17.099579
3479  2023-10-25 10:11:17.147445
3480  2023-10-25 10:11:17.180330
3481  2023-10-25 10:11:17.212277
3482  2023-10-25 10:11:17.244191
3483  2023-10-25 10:11:17.276104
3484  2023-10-25 10:11:17.308022
3485  2023-10-25 10:11:17.339937
3486  2023-10-25 10:11:17.371819
3487  2023-10-25 10:11:17.403781
3488  2023-10-25 10:11:17.435705
3489  2023-10-25 10:11:17.467594
3490  2023-10-25 10:11:17.516489
3491  2023-10-25 10:11:17.548414
3492  2023-10-25 10:11:17.580307
3493  2023-10-25 10:11:17.612293
3494  2023-10-25 10:11:17.644204
3495  2023-10-25 10:11:17.676101
3496  2023-10-25 10:11:17.708019
3497  2023-10-25 10:11:17.739928
3498  2023-10-25 10:11:17.771873
3499  2023-10-25 10:11:17.803728
3500  2023-10-25 10:11:17.835675
3501  2023-10-25 10:11:17.867583
3502  2023-10-25 10:11:17.915456
3503  2023-10-25 10:11:17.947425
3504  2023-10-25 10:11:17.979369
3505  2023-10-25 10:11:18.011300
3506  2023-10-25 10:11:18.043292
3507  2023-10-25 10:11:18.075193
3508  2023-10-25 10:11:18.107117
3509  2023-10-25 10:11:18.140046
3510  2023-10-25 10:11:18.170923
3511  2023-10-25 10:11:18.203811
3512  2023-10-25 10:11:18.235759
3513  2023-10-25 10:11:18.267668
3514  2023-10-25 10:11:18.315563
3515  2023-10-25 10:11:18.347482
3516  2023-10-25 10:11:18.379397
3517  2023-10-25 10:11:18.411294
3518  2023-10-25 10:11:18.443213
3519  2023-10-25 10:11:18.475115
3520  2023-10-25 10:11:18.507999
3521  2023-10-25 10:11:18.538951
3522  2023-10-25 10:11:18.571827
3523  2023-10-25 10:11:18.603742
3524  2023-10-25 10:11:18.635657
3525  2023-10-25 10:11:18.667606
3526  2023-10-25 10:11:18.715478
3527  2023-10-25 10:11:18.747412
3528  2023-10-25 10:11:18.779356
3529  2023-10-25 10:11:18.811221
3530  2023-10-25 10:11:18.843135
3531  2023-10-25 10:11:18.875050
3532  2023-10-25 10:11:18.907930
3533  2023-10-25 10:11:18.939849
3534  2023-10-25 10:11:18.971758
3535  2023-10-25 10:11:19.003680
3536  2023-10-25 10:11:19.035623
3537  2023-10-25 10:11:19.067502
3538  2023-10-25 10:11:19.115594
3539  2023-10-25 10:11:19.147510
3540  2023-10-25 10:11:19.179424
3541  2023-10-25 10:11:19.211341
3542  2023-10-25 10:11:19.243264
3543  2023-10-25 10:11:19.275193
3544  2023-10-25 10:11:19.307099
3545  2023-10-25 10:11:19.340983
3546  2023-10-25 10:11:19.372901
3547  2023-10-25 10:11:19.404815
3548  2023-10-25 10:11:19.435740
3549  2023-10-25 10:11:19.467663
3550  2023-10-25 10:11:19.515486
3551  2023-10-25 10:11:19.547453
3552  2023-10-25 10:11:19.580438
3553  2023-10-25 10:11:19.612419
3554  2023-10-25 10:11:19.644326
3555  2023-10-25 10:11:19.675257
3556  2023-10-25 10:11:19.707175
3557  2023-10-25 10:11:19.739039
3558  2023-10-25 10:11:19.772998
3559  2023-10-25 10:11:19.802902
3560  2023-10-25 10:11:19.835779
3561  2023-10-25 10:11:19.867732
