
1  2023-10-25 09:39:54.811553
2  2023-10-25 09:39:54.844506
3  2023-10-25 09:39:54.892425
4  2023-10-25 09:39:54.924340
5  2023-10-25 09:39:54.956254
6  2023-10-25 09:39:54.988169
7  2023-10-25 09:39:55.020084
8  2023-10-25 09:39:55.051999
9  2023-10-25 09:39:55.083913
10  2023-10-25 09:39:55.115828
11  2023-10-25 09:39:55.147742
12  2023-10-25 09:39:55.179657
13  2023-10-25 09:39:55.212569
14  2023-10-25 09:39:55.244484
15  2023-10-25 09:39:55.292356
16  2023-10-25 09:39:55.324425
17  2023-10-25 09:39:55.356185
18  2023-10-25 09:39:55.388170
19  2023-10-25 09:39:55.420086
20  2023-10-25 09:39:55.451991
21  2023-10-25 09:39:55.483915
22  2023-10-25 09:39:55.515842
23  2023-10-25 09:39:55.547757
24  2023-10-25 09:39:55.580669
25  2023-10-25 09:39:55.612584
26  2023-10-25 09:39:55.644512
27  2023-10-25 09:39:55.692370
28  2023-10-25 09:39:55.724285
29  2023-10-25 09:39:55.756258
30  2023-10-25 09:39:55.788161
31  2023-10-25 09:39:55.820089
32  2023-10-25 09:39:55.851991
33  2023-10-25 09:39:55.883906
34  2023-10-25 09:39:55.915820
35  2023-10-25 09:39:55.947860
36  2023-10-25 09:39:55.979807
37  2023-10-25 09:39:56.011760
38  2023-10-25 09:39:56.043744
39  2023-10-25 09:39:56.092579
40  2023-10-25 09:39:56.123544
41  2023-10-25 09:39:56.156409
42  2023-10-25 09:39:56.188323
43  2023-10-25 09:39:56.220238
44  2023-10-25 09:39:56.252183
45  2023-10-25 09:39:56.284067
46  2023-10-25 09:39:56.315982
47  2023-10-25 09:39:56.347957
48  2023-10-25 09:39:56.379881
49  2023-10-25 09:39:56.411756
50  2023-10-25 09:39:56.443706
51  2023-10-25 09:39:56.492553
52  2023-10-25 09:39:56.524488
53  2023-10-25 09:39:56.556404
54  2023-10-25 09:39:56.588284
55  2023-10-25 09:39:56.620234
56  2023-10-25 09:39:56.652148
57  2023-10-25 09:39:56.684065
58  2023-10-25 09:39:56.715940
59  2023-10-25 09:39:56.747887
60  2023-10-25 09:39:56.779798
61  2023-10-25 09:39:56.811719
62  2023-10-25 09:39:56.843632
63  2023-10-25 09:39:56.892468
64  2023-10-25 09:39:56.924417
65  2023-10-25 09:39:56.956297
66  2023-10-25 09:39:56.988248
67  2023-10-25 09:39:57.020164
68  2023-10-25 09:39:57.052081
69  2023-10-25 09:39:57.083959
70  2023-10-25 09:39:57.115870
71  2023-10-25 09:39:57.147827
72  2023-10-25 09:39:57.179737
73  2023-10-25 09:39:57.211613
74  2023-10-25 09:39:57.244529
75  2023-10-25 09:39:57.292397
76  2023-10-25 09:39:57.324344
77  2023-10-25 09:39:57.356258
78  2023-10-25 09:39:57.388141
79  2023-10-25 09:39:57.420057
80  2023-10-25 09:39:57.452020
81  2023-10-25 09:39:57.483935
82  2023-10-25 09:39:57.516884
83  2023-10-25 09:39:57.547901
84  2023-10-25 09:39:57.579824
85  2023-10-25 09:39:57.611691
86  2023-10-25 09:39:57.643675
87  2023-10-25 09:39:57.692546
88  2023-10-25 09:39:57.724460
89  2023-10-25 09:39:57.756424
90  2023-10-25 09:39:57.788296
91  2023-10-25 09:39:57.820203
92  2023-10-25 09:39:57.852118
93  2023-10-25 09:39:57.884103
94  2023-10-25 09:39:57.916113
95  2023-10-25 09:39:57.947989
96  2023-10-25 09:39:57.979904
97  2023-10-25 09:39:58.011819
98  2023-10-25 09:39:58.044731
99  2023-10-25 09:39:58.092619
100  2023-10-25 09:39:58.124553
101  2023-10-25 09:39:58.156439
102  2023-10-25 09:39:58.188347
103  2023-10-25 09:39:58.220262
104  2023-10-25 09:39:58.252176
105  2023-10-25 09:39:58.285089
106  2023-10-25 09:39:58.316673
107  2023-10-25 09:39:58.348585
108  2023-10-25 09:39:58.380514
109  2023-10-25 09:39:58.412415
110  2023-10-25 09:39:58.444329
111  2023-10-25 09:39:58.492246
112  2023-10-25 09:39:58.524117
113  2023-10-25 09:39:58.556032
114  2023-10-25 09:39:58.587945
115  2023-10-25 09:39:58.619860
116  2023-10-25 09:39:58.651836
117  2023-10-25 09:39:58.684788
118  2023-10-25 09:39:58.716664
119  2023-10-25 09:39:58.748577
120  2023-10-25 09:39:58.780492
121  2023-10-25 09:39:58.812479
122  2023-10-25 09:39:58.844394
123  2023-10-25 09:39:58.892497
124  2023-10-25 09:39:58.924412
125  2023-10-25 09:39:58.956327
126  2023-10-25 09:39:58.988320
127  2023-10-25 09:39:59.020231
128  2023-10-25 09:39:59.052156
129  2023-10-25 09:39:59.084059
130  2023-10-25 09:39:59.115976
131  2023-10-25 09:39:59.147889
132  2023-10-25 09:39:59.180801
133  2023-10-25 09:39:59.212717
134  2023-10-25 09:39:59.244165
135  2023-10-25 09:39:59.292035
136  2023-10-25 09:39:59.323947
137  2023-10-25 09:39:59.355866
138  2023-10-25 09:39:59.387856
139  2023-10-25 09:39:59.420767
140  2023-10-25 09:39:59.452683
141  2023-10-25 09:39:59.484597
142  2023-10-25 09:39:59.516511
143  2023-10-25 09:39:59.548425
144  2023-10-25 09:39:59.580340
145  2023-10-25 09:39:59.612255
146  2023-10-25 09:39:59.644231
147  2023-10-25 09:39:59.692140
148  2023-10-25 09:39:59.724053
149  2023-10-25 09:39:59.756074
150  2023-10-25 09:39:59.787989
151  2023-10-25 09:39:59.819903
152  2023-10-25 09:39:59.851818
153  2023-10-25 09:39:59.884739
154  2023-10-25 09:39:59.916654
155  2023-10-25 09:39:59.948559
156  2023-10-25 09:39:59.980474
157  2023-10-25 09:40:00.012436
158  2023-10-25 09:40:00.044343
159  2023-10-25 09:40:00.092220
160  2023-10-25 09:40:00.124275
161  2023-10-25 09:40:00.156247
162  2023-10-25 09:40:00.188159
163  2023-10-25 09:40:00.220172
164  2023-10-25 09:40:00.252140
165  2023-10-25 09:40:00.284001
166  2023-10-25 09:40:00.315915
167  2023-10-25 09:40:00.347835
168  2023-10-25 09:40:00.380761
169  2023-10-25 09:40:00.411668
170  2023-10-25 09:40:00.443632
171  2023-10-25 09:40:00.492503
172  2023-10-25 09:40:00.524418
173  2023-10-25 09:40:00.556332
174  2023-10-25 09:40:00.588248
175  2023-10-25 09:40:00.620175
176  2023-10-25 09:40:00.652084
177  2023-10-25 09:40:00.684032
178  2023-10-25 09:40:00.715959
179  2023-10-25 09:40:00.747820
180  2023-10-25 09:40:00.779735
181  2023-10-25 09:40:00.811655
182  2023-10-25 09:40:00.843720
183  2023-10-25 09:40:00.892633
184  2023-10-25 09:40:00.924502
185  2023-10-25 09:40:00.956416
186  2023-10-25 09:40:00.988331
187  2023-10-25 09:40:01.020246
188  2023-10-25 09:40:01.052211
189  2023-10-25 09:40:01.084107
190  2023-10-25 09:40:01.116024
191  2023-10-25 09:40:01.147906
192  2023-10-25 09:40:01.179666
193  2023-10-25 09:40:01.212625
194  2023-10-25 09:40:01.244567
195  2023-10-25 09:40:01.292449
196  2023-10-25 09:40:01.324381
197  2023-10-25 09:40:01.356240
198  2023-10-25 09:40:01.388155
199  2023-10-25 09:40:01.420070
200  2023-10-25 09:40:01.451986
201  2023-10-25 09:40:01.483899
202  2023-10-25 09:40:01.515864
203  2023-10-25 09:40:01.547728
204  2023-10-25 09:40:01.580649
205  2023-10-25 09:40:01.612591
206  2023-10-25 09:40:01.644470
207  2023-10-25 09:40:01.692342
208  2023-10-25 09:40:01.724256
209  2023-10-25 09:40:01.756172
210  2023-10-25 09:40:01.788089
211  2023-10-25 09:40:01.820000
212  2023-10-25 09:40:01.851915
213  2023-10-25 09:40:01.883871
214  2023-10-25 09:40:01.915786
215  2023-10-25 09:40:01.947750
216  2023-10-25 09:40:01.980612
217  2023-10-25 09:40:02.012555
218  2023-10-25 09:40:02.044441
219  2023-10-25 09:40:02.092344
220  2023-10-25 09:40:02.124229
221  2023-10-25 09:40:02.156200
222  2023-10-25 09:40:02.188250
223  2023-10-25 09:40:02.220117
224  2023-10-25 09:40:02.252032
225  2023-10-25 09:40:02.283968
226  2023-10-25 09:40:02.315899
227  2023-10-25 09:40:02.347813
228  2023-10-25 09:40:02.379739
229  2023-10-25 09:40:02.411614
230  2023-10-25 09:40:02.444611
231  2023-10-25 09:40:02.492557
232  2023-10-25 09:40:02.524399
233  2023-10-25 09:40:02.556312
234  2023-10-25 09:40:02.588227
235  2023-10-25 09:40:02.620141
236  2023-10-25 09:40:02.651932
237  2023-10-25 09:40:02.683865
238  2023-10-25 09:40:02.715841
239  2023-10-25 09:40:02.747788
240  2023-10-25 09:40:02.779719
241  2023-10-25 09:40:02.812608
242  2023-10-25 09:40:02.844550
243  2023-10-25 09:40:02.892421
244  2023-10-25 09:40:02.924332
245  2023-10-25 09:40:02.956199
246  2023-10-25 09:40:02.988114
247  2023-10-25 09:40:03.020028
248  2023-10-25 09:40:03.052009
249  2023-10-25 09:40:03.083888
250  2023-10-25 09:40:03.116885
251  2023-10-25 09:40:03.147687
252  2023-10-25 09:40:03.180639
253  2023-10-25 09:40:03.212547
254  2023-10-25 09:40:03.244488
255  2023-10-25 09:40:03.292301
256  2023-10-25 09:40:03.324216
257  2023-10-25 09:40:03.356130
258  2023-10-25 09:40:03.388044
259  2023-10-25 09:40:03.419959
260  2023-10-25 09:40:03.451875
261  2023-10-25 09:40:03.483789
262  2023-10-25 09:40:03.515741
263  2023-10-25 09:40:03.547618
264  2023-10-25 09:40:03.580571
265  2023-10-25 09:40:03.611607
266  2023-10-25 09:40:03.644472
267  2023-10-25 09:40:03.691865
268  2023-10-25 09:40:03.723957
269  2023-10-25 09:40:03.756016
270  2023-10-25 09:40:03.787870
271  2023-10-25 09:40:03.819887
272  2023-10-25 09:40:03.851809
273  2023-10-25 09:40:03.883714
274  2023-10-25 09:40:03.915636
275  2023-10-25 09:40:03.948509
276  2023-10-25 09:40:03.980424
277  2023-10-25 09:40:04.012388
278  2023-10-25 09:40:04.044303
279  2023-10-25 09:40:04.092177
280  2023-10-25 09:40:04.124082
281  2023-10-25 09:40:04.156028
282  2023-10-25 09:40:04.187869
283  2023-10-25 09:40:04.219836
284  2023-10-25 09:40:04.251733
285  2023-10-25 09:40:04.283613
286  2023-10-25 09:40:04.316577
287  2023-10-25 09:40:04.348489
288  2023-10-25 09:40:04.380355
289  2023-10-25 09:40:04.412270
290  2023-10-25 09:40:04.444216
291  2023-10-25 09:40:04.492056
292  2023-10-25 09:40:04.524048
293  2023-10-25 09:40:04.555917
294  2023-10-25 09:40:04.588798
295  2023-10-25 09:40:04.619748
296  2023-10-25 09:40:04.651664
297  2023-10-25 09:40:04.684574
298  2023-10-25 09:40:04.716490
299  2023-10-25 09:40:04.748372
300  2023-10-25 09:40:04.780285
301  2023-10-25 09:40:04.812248
302  2023-10-25 09:40:04.844156
303  2023-10-25 09:40:04.892114
304  2023-10-25 09:40:04.924021
305  2023-10-25 09:40:04.955927
306  2023-10-25 09:40:04.987810
307  2023-10-25 09:40:05.020757
308  2023-10-25 09:40:05.052695
309  2023-10-25 09:40:05.083605
310  2023-10-25 09:40:05.116466
311  2023-10-25 09:40:05.148380
312  2023-10-25 09:40:05.180343
313  2023-10-25 09:40:05.212259
314  2023-10-25 09:40:05.244166
315  2023-10-25 09:40:05.292183
316  2023-10-25 09:40:05.324051
317  2023-10-25 09:40:05.355966
318  2023-10-25 09:40:05.387911
319  2023-10-25 09:40:05.419826
320  2023-10-25 09:40:05.452740
321  2023-10-25 09:40:05.483676
322  2023-10-25 09:40:05.516536
323  2023-10-25 09:40:05.548485
324  2023-10-25 09:40:05.580484
325  2023-10-25 09:40:05.612409
326  2023-10-25 09:40:05.644304
327  2023-10-25 09:40:05.692184
328  2023-10-25 09:40:05.724100
329  2023-10-25 09:40:05.756015
330  2023-10-25 09:40:05.787880
331  2023-10-25 09:40:05.819795
332  2023-10-25 09:40:05.851869
333  2023-10-25 09:40:05.883660
334  2023-10-25 09:40:05.916563
335  2023-10-25 09:40:05.948511
336  2023-10-25 09:40:05.980365
337  2023-10-25 09:40:06.012330
338  2023-10-25 09:40:06.044220
339  2023-10-25 09:40:06.092134
340  2023-10-25 09:40:06.124013
341  2023-10-25 09:40:06.156095
342  2023-10-25 09:40:06.188015
343  2023-10-25 09:40:06.219958
344  2023-10-25 09:40:06.251838
345  2023-10-25 09:40:06.283761
346  2023-10-25 09:40:06.315650
347  2023-10-25 09:40:06.348541
348  2023-10-25 09:40:06.380479
349  2023-10-25 09:40:06.412403
350  2023-10-25 09:40:06.444303
351  2023-10-25 09:40:06.492147
352  2023-10-25 09:40:06.524114
353  2023-10-25 09:40:06.556033
354  2023-10-25 09:40:06.587928
355  2023-10-25 09:40:06.619934
356  2023-10-25 09:40:06.652776
357  2023-10-25 09:40:06.683828
358  2023-10-25 09:40:06.715741
359  2023-10-25 09:40:06.747658
360  2023-10-25 09:40:06.780604
361  2023-10-25 09:40:06.812501
362  2023-10-25 09:40:06.844416
363  2023-10-25 09:40:06.892289
364  2023-10-25 09:40:06.924203
365  2023-10-25 09:40:06.956096
366  2023-10-25 09:40:06.988048
367  2023-10-25 09:40:07.019895
368  2023-10-25 09:40:07.051873
369  2023-10-25 09:40:07.083758
370  2023-10-25 09:40:07.115669
371  2023-10-25 09:40:07.148551
372  2023-10-25 09:40:07.180501
373  2023-10-25 09:40:07.212431
374  2023-10-25 09:40:07.244345
375  2023-10-25 09:40:07.292197
376  2023-10-25 09:40:07.324084
377  2023-10-25 09:40:07.356047
378  2023-10-25 09:40:07.387911
379  2023-10-25 09:40:07.419862
380  2023-10-25 09:40:07.451771
381  2023-10-25 09:40:07.483696
382  2023-10-25 09:40:07.516650
383  2023-10-25 09:40:07.548542
384  2023-10-25 09:40:07.580399
385  2023-10-25 09:40:07.612345
386  2023-10-25 09:40:07.644261
387  2023-10-25 09:40:07.692132
388  2023-10-25 09:40:07.724064
389  2023-10-25 09:40:07.755989
390  2023-10-25 09:40:07.787843
391  2023-10-25 09:40:07.819757
392  2023-10-25 09:40:07.851748
393  2023-10-25 09:40:07.883728
394  2023-10-25 09:40:07.915643
395  2023-10-25 09:40:07.947562
396  2023-10-25 09:40:07.980472
397  2023-10-25 09:40:08.012381
398  2023-10-25 09:40:08.044316
399  2023-10-25 09:40:08.092190
400  2023-10-25 09:40:08.124084
401  2023-10-25 09:40:08.156057
402  2023-10-25 09:40:08.187920
403  2023-10-25 09:40:08.219830
404  2023-10-25 09:40:08.251713
405  2023-10-25 09:40:08.283658
406  2023-10-25 09:40:08.316575
407  2023-10-25 09:40:08.348485
408  2023-10-25 09:40:08.380426
409  2023-10-25 09:40:08.412332
410  2023-10-25 09:40:08.444254
411  2023-10-25 09:40:08.492124
412  2023-10-25 09:40:08.524011
413  2023-10-25 09:40:08.555923
414  2023-10-25 09:40:08.587844
415  2023-10-25 09:40:08.619760
416  2023-10-25 09:40:08.651677
417  2023-10-25 09:40:08.684607
418  2023-10-25 09:40:08.716515
419  2023-10-25 09:40:08.748387
420  2023-10-25 09:40:08.780332
421  2023-10-25 09:40:08.812249
422  2023-10-25 09:40:08.844192
423  2023-10-25 09:40:08.892054
424  2023-10-25 09:40:08.923944
425  2023-10-25 09:40:08.955877
426  2023-10-25 09:40:08.987745
427  2023-10-25 09:40:09.020688
428  2023-10-25 09:40:09.052598
429  2023-10-25 09:40:09.083671
430  2023-10-25 09:40:09.116575
431  2023-10-25 09:40:09.148476
432  2023-10-25 09:40:09.180400
433  2023-10-25 09:40:09.212304
434  2023-10-25 09:40:09.244218
435  2023-10-25 09:40:09.292116
436  2023-10-25 09:40:09.324054
437  2023-10-25 09:40:09.355927
438  2023-10-25 09:40:09.387808
439  2023-10-25 09:40:09.419756
440  2023-10-25 09:40:09.451670
441  2023-10-25 09:40:09.483584
442  2023-10-25 09:40:09.516511
443  2023-10-25 09:40:09.548413
444  2023-10-25 09:40:09.580325
445  2023-10-25 09:40:09.612241
446  2023-10-25 09:40:09.644161
447  2023-10-25 09:40:09.692030
448  2023-10-25 09:40:09.723943
449  2023-10-25 09:40:09.755857
450  2023-10-25 09:40:09.787892
451  2023-10-25 09:40:09.819806
452  2023-10-25 09:40:09.851742
453  2023-10-25 09:40:09.883630
454  2023-10-25 09:40:09.915568
455  2023-10-25 09:40:09.948465
456  2023-10-25 09:40:09.980371
457  2023-10-25 09:40:10.012293
458  2023-10-25 09:40:10.044210
459  2023-10-25 09:40:10.092124
460  2023-10-25 09:40:10.124016
461  2023-10-25 09:40:10.155914
462  2023-10-25 09:40:10.187826
463  2023-10-25 09:40:10.219740
464  2023-10-25 09:40:10.252650
465  2023-10-25 09:40:10.284537
466  2023-10-25 09:40:10.316474
467  2023-10-25 09:40:10.348404
468  2023-10-25 09:40:10.380310
469  2023-10-25 09:40:10.412231
470  2023-10-25 09:40:10.444149
471  2023-10-25 09:40:10.492022
472  2023-10-25 09:40:10.523924
473  2023-10-25 09:40:10.555841
474  2023-10-25 09:40:10.587753
475  2023-10-25 09:40:10.619691
476  2023-10-25 09:40:10.651610
477  2023-10-25 09:40:10.684522
478  2023-10-25 09:40:10.716441
479  2023-10-25 09:40:10.748342
480  2023-10-25 09:40:10.780256
481  2023-10-25 09:40:10.812157
482  2023-10-25 09:40:10.844072
483  2023-10-25 09:40:10.891939
484  2023-10-25 09:40:10.923865
485  2023-10-25 09:40:10.955780
486  2023-10-25 09:40:10.988677
487  2023-10-25 09:40:11.020567
488  2023-10-25 09:40:11.052527
489  2023-10-25 09:40:11.084463
490  2023-10-25 09:40:11.116349
491  2023-10-25 09:40:11.148255
492  2023-10-25 09:40:11.180186
493  2023-10-25 09:40:11.212113
494  2023-10-25 09:40:11.244020
495  2023-10-25 09:40:11.291869
496  2023-10-25 09:40:11.323786
497  2023-10-25 09:40:11.355700
498  2023-10-25 09:40:11.387632
499  2023-10-25 09:40:11.420498
500  2023-10-25 09:40:11.452412
501  2023-10-25 09:40:11.484367
502  2023-10-25 09:40:11.516307
503  2023-10-25 09:40:11.548197
504  2023-10-25 09:40:11.580102
505  2023-10-25 09:40:11.612016
506  2023-10-25 09:40:11.643966
507  2023-10-25 09:40:11.691772
508  2023-10-25 09:40:11.723720
509  2023-10-25 09:40:11.755625
510  2023-10-25 09:40:11.788554
511  2023-10-25 09:40:11.820428
512  2023-10-25 09:40:11.852343
513  2023-10-25 09:40:11.884290
514  2023-10-25 09:40:11.916204
515  2023-10-25 09:40:11.948134
516  2023-10-25 09:40:11.980002
517  2023-10-25 09:40:12.011916
518  2023-10-25 09:40:12.043879
519  2023-10-25 09:40:12.091703
520  2023-10-25 09:40:12.123652
521  2023-10-25 09:40:12.156570
522  2023-10-25 09:40:12.188495
523  2023-10-25 09:40:12.220359
524  2023-10-25 09:40:12.252304
525  2023-10-25 09:40:12.284219
526  2023-10-25 09:40:12.316150
527  2023-10-25 09:40:12.348049
528  2023-10-25 09:40:12.379959
529  2023-10-25 09:40:12.411877
530  2023-10-25 09:40:12.443820
531  2023-10-25 09:40:12.491634
532  2023-10-25 09:40:12.524546
533  2023-10-25 09:40:12.556460
534  2023-10-25 09:40:12.588406
535  2023-10-25 09:40:12.620290
536  2023-10-25 09:40:12.652206
537  2023-10-25 09:40:12.684149
538  2023-10-25 09:40:12.716063
539  2023-10-25 09:40:12.748000
540  2023-10-25 09:40:12.779863
541  2023-10-25 09:40:12.811778
542  2023-10-25 09:40:12.843739
543  2023-10-25 09:40:12.891564
544  2023-10-25 09:40:12.923532
545  2023-10-25 09:40:12.956391
546  2023-10-25 09:40:12.988306
547  2023-10-25 09:40:13.020220
548  2023-10-25 09:40:13.052135
549  2023-10-25 09:40:13.084081
550  2023-10-25 09:40:13.116008
551  2023-10-25 09:40:13.147916
552  2023-10-25 09:40:13.179794
553  2023-10-25 09:40:13.211708
554  2023-10-25 09:40:13.243655
555  2023-10-25 09:40:13.292492
556  2023-10-25 09:40:13.324407
557  2023-10-25 09:40:13.356323
558  2023-10-25 09:40:13.388236
559  2023-10-25 09:40:13.420151
560  2023-10-25 09:40:13.452066
561  2023-10-25 09:40:13.483983
562  2023-10-25 09:40:13.515926
563  2023-10-25 09:40:13.547840
564  2023-10-25 09:40:13.580776
565  2023-10-25 09:40:13.611639
566  2023-10-25 09:40:13.644551
567  2023-10-25 09:40:13.692423
568  2023-10-25 09:40:13.724346
569  2023-10-25 09:40:13.756322
570  2023-10-25 09:40:13.788331
571  2023-10-25 09:40:13.820246
572  2023-10-25 09:40:13.852160
573  2023-10-25 09:40:13.884101
574  2023-10-25 09:40:13.916022
575  2023-10-25 09:40:13.947904
576  2023-10-25 09:40:13.979845
577  2023-10-25 09:40:14.012731
578  2023-10-25 09:40:14.043679
579  2023-10-25 09:40:14.092575
580  2023-10-25 09:40:14.124506
581  2023-10-25 09:40:14.156347
582  2023-10-25 09:40:14.188262
583  2023-10-25 09:40:14.220209
584  2023-10-25 09:40:14.252098
585  2023-10-25 09:40:14.284006
586  2023-10-25 09:40:14.315920
587  2023-10-25 09:40:14.347835
588  2023-10-25 09:40:14.379784
589  2023-10-25 09:40:14.411664
590  2023-10-25 09:40:14.444576
591  2023-10-25 09:40:14.492448
592  2023-10-25 09:40:14.524363
593  2023-10-25 09:40:14.556278
594  2023-10-25 09:40:14.588243
595  2023-10-25 09:40:14.620107
596  2023-10-25 09:40:14.652022
597  2023-10-25 09:40:14.683936
598  2023-10-25 09:40:14.715851
599  2023-10-25 09:40:14.747766
600  2023-10-25 09:40:14.780678
601  2023-10-25 09:40:14.812593
602  2023-10-25 09:40:14.844507
603  2023-10-25 09:40:14.892379
604  2023-10-25 09:40:14.924294
605  2023-10-25 09:40:14.956208
606  2023-10-25 09:40:14.988123
607  2023-10-25 09:40:15.020038
608  2023-10-25 09:40:15.051952
609  2023-10-25 09:40:15.083902
610  2023-10-25 09:40:15.115782
611  2023-10-25 09:40:15.147696
612  2023-10-25 09:40:15.179611
613  2023-10-25 09:40:15.212553
614  2023-10-25 09:40:15.244438
615  2023-10-25 09:40:15.292310
616  2023-10-25 09:40:15.324225
617  2023-10-25 09:40:15.356139
618  2023-10-25 09:40:15.388054
619  2023-10-25 09:40:15.420028
620  2023-10-25 09:40:15.451883
621  2023-10-25 09:40:15.483798
622  2023-10-25 09:40:15.515712
623  2023-10-25 09:40:15.547659
624  2023-10-25 09:40:15.580539
625  2023-10-25 09:40:15.612454
626  2023-10-25 09:40:15.644368
627  2023-10-25 09:40:15.692241
628  2023-10-25 09:40:15.724155
629  2023-10-25 09:40:15.756102
630  2023-10-25 09:40:15.787994
631  2023-10-25 09:40:15.819899
632  2023-10-25 09:40:15.851957
633  2023-10-25 09:40:15.884007
634  2023-10-25 09:40:15.915863
635  2023-10-25 09:40:15.947775
636  2023-10-25 09:40:15.979690
637  2023-10-25 09:40:16.012602
638  2023-10-25 09:40:16.044517
639  2023-10-25 09:40:16.092389
640  2023-10-25 09:40:16.124303
641  2023-10-25 09:40:16.156218
642  2023-10-25 09:40:16.188133
643  2023-10-25 09:40:16.220047
644  2023-10-25 09:40:16.251962
645  2023-10-25 09:40:16.283877
646  2023-10-25 09:40:16.316789
647  2023-10-25 09:40:16.347706
648  2023-10-25 09:40:16.379621
649  2023-10-25 09:40:16.412535
650  2023-10-25 09:40:16.444449
651  2023-10-25 09:40:16.492320
652  2023-10-25 09:40:16.524234
653  2023-10-25 09:40:16.556149
654  2023-10-25 09:40:16.588066
655  2023-10-25 09:40:16.620026
656  2023-10-25 09:40:16.651999
657  2023-10-25 09:40:16.684004
658  2023-10-25 09:40:16.715956
659  2023-10-25 09:40:16.747883
660  2023-10-25 09:40:16.779748
661  2023-10-25 09:40:16.812660
662  2023-10-25 09:40:16.844574
663  2023-10-25 09:40:16.892446
664  2023-10-25 09:40:16.924397
665  2023-10-25 09:40:16.956353
666  2023-10-25 09:40:16.988251
667  2023-10-25 09:40:17.020181
668  2023-10-25 09:40:17.052065
669  2023-10-25 09:40:17.083979
670  2023-10-25 09:40:17.116008
671  2023-10-25 09:40:17.147918
672  2023-10-25 09:40:17.179830
673  2023-10-25 09:40:17.211828
674  2023-10-25 09:40:17.243718
675  2023-10-25 09:40:17.291640
676  2023-10-25 09:40:17.324502
677  2023-10-25 09:40:17.356416
678  2023-10-25 09:40:17.388331
679  2023-10-25 09:40:17.420278
680  2023-10-25 09:40:17.452160
681  2023-10-25 09:40:17.484075
682  2023-10-25 09:40:17.516004
683  2023-10-25 09:40:17.547904
684  2023-10-25 09:40:17.579819
685  2023-10-25 09:40:17.611734
686  2023-10-25 09:40:17.643648
687  2023-10-25 09:40:17.692518
688  2023-10-25 09:40:17.724432
689  2023-10-25 09:40:17.756347
690  2023-10-25 09:40:17.788262
691  2023-10-25 09:40:17.820176
692  2023-10-25 09:40:17.852091
693  2023-10-25 09:40:17.884010
694  2023-10-25 09:40:17.915920
695  2023-10-25 09:40:17.947835
696  2023-10-25 09:40:17.979762
697  2023-10-25 09:40:18.011664
698  2023-10-25 09:40:18.043579
699  2023-10-25 09:40:18.092448
700  2023-10-25 09:40:18.124479
701  2023-10-25 09:40:18.156278
702  2023-10-25 09:40:18.188192
703  2023-10-25 09:40:18.220229
704  2023-10-25 09:40:18.252129
705  2023-10-25 09:40:18.283998
706  2023-10-25 09:40:18.315945
707  2023-10-25 09:40:18.347850
708  2023-10-25 09:40:18.380738
709  2023-10-25 09:40:18.412648
710  2023-10-25 09:40:18.444575
711  2023-10-25 09:40:18.492550
712  2023-10-25 09:40:18.524538
713  2023-10-25 09:40:18.556453
714  2023-10-25 09:40:18.588404
715  2023-10-25 09:40:18.620282
716  2023-10-25 09:40:18.652149
717  2023-10-25 09:40:18.684064
718  2023-10-25 09:40:18.715988
719  2023-10-25 09:40:18.747976
720  2023-10-25 09:40:18.779853
721  2023-10-25 09:40:18.811768
722  2023-10-25 09:40:18.843729
723  2023-10-25 09:40:18.892552
724  2023-10-25 09:40:18.924492
725  2023-10-25 09:40:18.956537
726  2023-10-25 09:40:18.988451
727  2023-10-25 09:40:19.020366
728  2023-10-25 09:40:19.052281
729  2023-10-25 09:40:19.084195
730  2023-10-25 09:40:19.116110
731  2023-10-25 09:40:19.148030
732  2023-10-25 09:40:19.180051
733  2023-10-25 09:40:19.211997
734  2023-10-25 09:40:19.243911
735  2023-10-25 09:40:19.292780
736  2023-10-25 09:40:19.323698
737  2023-10-25 09:40:19.356612
738  2023-10-25 09:40:19.388524
739  2023-10-25 09:40:19.420492
740  2023-10-25 09:40:19.452404
741  2023-10-25 09:40:19.484268
742  2023-10-25 09:40:19.516183
743  2023-10-25 09:40:19.548210
744  2023-10-25 09:40:19.580117
745  2023-10-25 09:40:19.612049
746  2023-10-25 09:40:19.643965
747  2023-10-25 09:40:19.691835
748  2023-10-25 09:40:19.723808
749  2023-10-25 09:40:19.755784
750  2023-10-25 09:40:19.787737
751  2023-10-25 09:40:19.820576
752  2023-10-25 09:40:19.852491
753  2023-10-25 09:40:19.884405
754  2023-10-25 09:40:19.916375
755  2023-10-25 09:40:19.948235
756  2023-10-25 09:40:19.980149
757  2023-10-25 09:40:20.012064
758  2023-10-25 09:40:20.044013
759  2023-10-25 09:40:20.091979
760  2023-10-25 09:40:20.124005
761  2023-10-25 09:40:20.155884
762  2023-10-25 09:40:20.187800
763  2023-10-25 09:40:20.219713
764  2023-10-25 09:40:20.251790
765  2023-10-25 09:40:20.283710
766  2023-10-25 09:40:20.315625
767  2023-10-25 09:40:20.348537
768  2023-10-25 09:40:20.380451
769  2023-10-25 09:40:20.412366
770  2023-10-25 09:40:20.444281
771  2023-10-25 09:40:20.492153
772  2023-10-25 09:40:20.524067
773  2023-10-25 09:40:20.555983
774  2023-10-25 09:40:20.587897
775  2023-10-25 09:40:20.619811
776  2023-10-25 09:40:20.651726
777  2023-10-25 09:40:20.683641
778  2023-10-25 09:40:20.716553
779  2023-10-25 09:40:20.748467
780  2023-10-25 09:40:20.780382
781  2023-10-25 09:40:20.812297
782  2023-10-25 09:40:20.844211
783  2023-10-25 09:40:20.892083
784  2023-10-25 09:40:20.923998
785  2023-10-25 09:40:20.955913
786  2023-10-25 09:40:20.987827
787  2023-10-25 09:40:21.020741
788  2023-10-25 09:40:21.051657
789  2023-10-25 09:40:21.084572
790  2023-10-25 09:40:21.116485
791  2023-10-25 09:40:21.148520
792  2023-10-25 09:40:21.180434
793  2023-10-25 09:40:21.212390
794  2023-10-25 09:40:21.244263
795  2023-10-25 09:40:21.292174
796  2023-10-25 09:40:21.324050
797  2023-10-25 09:40:21.355965
798  2023-10-25 09:40:21.387971
799  2023-10-25 09:40:21.420273
800  2023-10-25 09:40:21.452287
801  2023-10-25 09:40:21.484201
802  2023-10-25 09:40:21.516116
803  2023-10-25 09:40:21.548075
804  2023-10-25 09:40:21.580071
805  2023-10-25 09:40:21.611986
806  2023-10-25 09:40:21.643901
807  2023-10-25 09:40:21.691772
808  2023-10-25 09:40:21.723687
809  2023-10-25 09:40:21.756599
810  2023-10-25 09:40:21.788514
811  2023-10-25 09:40:21.820429
812  2023-10-25 09:40:21.852343
813  2023-10-25 09:40:21.884258
814  2023-10-25 09:40:21.916172
815  2023-10-25 09:40:21.948087
816  2023-10-25 09:40:21.980007
817  2023-10-25 09:40:22.011916
818  2023-10-25 09:40:22.043831
819  2023-10-25 09:40:22.092703
820  2023-10-25 09:40:22.124616
821  2023-10-25 09:40:22.156533
822  2023-10-25 09:40:22.188445
823  2023-10-25 09:40:22.220359
824  2023-10-25 09:40:22.252275
825  2023-10-25 09:40:22.284190
826  2023-10-25 09:40:22.316103
827  2023-10-25 09:40:22.348024
828  2023-10-25 09:40:22.380456
829  2023-10-25 09:40:22.412371
830  2023-10-25 09:40:22.444318
831  2023-10-25 09:40:22.492287
832  2023-10-25 09:40:22.524202
833  2023-10-25 09:40:22.556191
834  2023-10-25 09:40:22.588075
835  2023-10-25 09:40:22.620069
836  2023-10-25 09:40:22.651983
837  2023-10-25 09:40:22.683898
838  2023-10-25 09:40:22.715875
839  2023-10-25 09:40:22.747732
840  2023-10-25 09:40:22.779642
841  2023-10-25 09:40:22.812554
842  2023-10-25 09:40:22.860426
843  2023-10-25 09:40:22.892341
844  2023-10-25 09:40:22.924255
845  2023-10-25 09:40:22.956170
846  2023-10-25 09:40:22.988085
847  2023-10-25 09:40:23.019999
848  2023-10-25 09:40:23.051914
849  2023-10-25 09:40:23.083829
850  2023-10-25 09:40:23.115743
851  2023-10-25 09:40:23.148659
852  2023-10-25 09:40:23.180570
853  2023-10-25 09:40:23.212490
854  2023-10-25 09:40:23.260357
855  2023-10-25 09:40:23.292271
856  2023-10-25 09:40:23.324186
857  2023-10-25 09:40:23.356101
858  2023-10-25 09:40:23.388016
859  2023-10-25 09:40:23.419932
860  2023-10-25 09:40:23.451845
861  2023-10-25 09:40:23.483759
862  2023-10-25 09:40:23.515674
863  2023-10-25 09:40:23.548586
864  2023-10-25 09:40:23.580504
865  2023-10-25 09:40:23.612415
866  2023-10-25 09:40:23.660288
867  2023-10-25 09:40:23.692202
868  2023-10-25 09:40:23.724195
869  2023-10-25 09:40:23.756170
870  2023-10-25 09:40:23.788085
871  2023-10-25 09:40:23.820000
872  2023-10-25 09:40:23.851914
873  2023-10-25 09:40:23.883829
874  2023-10-25 09:40:23.915778
875  2023-10-25 09:40:23.947658
876  2023-10-25 09:40:23.980573
877  2023-10-25 09:40:24.012485
878  2023-10-25 09:40:24.060357
879  2023-10-25 09:40:24.092322
880  2023-10-25 09:40:24.124254
881  2023-10-25 09:40:24.156194
882  2023-10-25 09:40:24.188163
883  2023-10-25 09:40:24.220074
884  2023-10-25 09:40:24.251988
885  2023-10-25 09:40:24.283996
886  2023-10-25 09:40:24.315977
887  2023-10-25 09:40:24.347961
888  2023-10-25 09:40:24.379912
889  2023-10-25 09:40:24.411790
890  2023-10-25 09:40:24.459695
891  2023-10-25 09:40:24.491577
892  2023-10-25 09:40:24.524489
893  2023-10-25 09:40:24.556404
894  2023-10-25 09:40:24.588318
895  2023-10-25 09:40:24.620233
896  2023-10-25 09:40:24.652148
897  2023-10-25 09:40:24.684062
898  2023-10-25 09:40:24.716483
899  2023-10-25 09:40:24.748464
900  2023-10-25 09:40:24.780411
901  2023-10-25 09:40:24.812430
902  2023-10-25 09:40:24.860302
903  2023-10-25 09:40:24.892216
904  2023-10-25 09:40:24.924173
905  2023-10-25 09:40:24.956046
906  2023-10-25 09:40:24.988063
907  2023-10-25 09:40:25.019978
908  2023-10-25 09:40:25.051893
909  2023-10-25 09:40:25.083848
910  2023-10-25 09:40:25.115722
911  2023-10-25 09:40:25.147637
912  2023-10-25 09:40:25.180549
913  2023-10-25 09:40:25.212398
914  2023-10-25 09:40:25.260356
915  2023-10-25 09:40:25.292270
916  2023-10-25 09:40:25.324185
917  2023-10-25 09:40:25.356100
918  2023-10-25 09:40:25.388014
919  2023-10-25 09:40:25.419929
920  2023-10-25 09:40:25.451844
921  2023-10-25 09:40:25.483768
922  2023-10-25 09:40:25.515673
923  2023-10-25 09:40:25.548585
924  2023-10-25 09:40:25.580500
925  2023-10-25 09:40:25.612414
926  2023-10-25 09:40:25.660286
927  2023-10-25 09:40:25.692201
928  2023-10-25 09:40:25.724116
929  2023-10-25 09:40:25.756030
930  2023-10-25 09:40:25.787945
931  2023-10-25 09:40:25.819860
932  2023-10-25 09:40:25.852772
933  2023-10-25 09:40:25.883689
934  2023-10-25 09:40:25.915604
935  2023-10-25 09:40:25.948516
936  2023-10-25 09:40:25.980430
937  2023-10-25 09:40:26.012345
938  2023-10-25 09:40:26.060217
939  2023-10-25 09:40:26.092132
940  2023-10-25 09:40:26.124046
941  2023-10-25 09:40:26.155961
942  2023-10-25 09:40:26.187876
943  2023-10-25 09:40:26.219790
944  2023-10-25 09:40:26.252703
945  2023-10-25 09:40:26.284617
946  2023-10-25 09:40:26.316532
947  2023-10-25 09:40:26.348446
948  2023-10-25 09:40:26.380522
949  2023-10-25 09:40:26.412389
950  2023-10-25 09:40:26.460260
951  2023-10-25 09:40:26.492174
952  2023-10-25 09:40:26.524089
953  2023-10-25 09:40:26.556004
954  2023-10-25 09:40:26.587970
955  2023-10-25 09:40:26.619833
956  2023-10-25 09:40:26.651748
957  2023-10-25 09:40:26.683663
958  2023-10-25 09:40:26.715617
959  2023-10-25 09:40:26.748521
960  2023-10-25 09:40:26.780404
961  2023-10-25 09:40:26.812318
962  2023-10-25 09:40:26.860190
963  2023-10-25 09:40:26.892105
964  2023-10-25 09:40:26.924067
965  2023-10-25 09:40:26.955969
966  2023-10-25 09:40:26.987849
967  2023-10-25 09:40:27.019944
968  2023-10-25 09:40:27.051859
969  2023-10-25 09:40:27.083773
970  2023-10-25 09:40:27.115688
971  2023-10-25 09:40:27.148600
972  2023-10-25 09:40:27.180515
973  2023-10-25 09:40:27.212429
974  2023-10-25 09:40:27.260301
975  2023-10-25 09:40:27.292216
976  2023-10-25 09:40:27.324131
977  2023-10-25 09:40:27.356045
978  2023-10-25 09:40:27.387960
979  2023-10-25 09:40:27.419875
980  2023-10-25 09:40:27.451789
981  2023-10-25 09:40:27.483835
982  2023-10-25 09:40:27.515848
983  2023-10-25 09:40:27.547763
984  2023-10-25 09:40:27.579678
985  2023-10-25 09:40:27.612590
986  2023-10-25 09:40:27.660462
987  2023-10-25 09:40:27.692376
988  2023-10-25 09:40:27.724291
989  2023-10-25 09:40:27.756206
990  2023-10-25 09:40:27.788120
991  2023-10-25 09:40:27.820042
992  2023-10-25 09:40:27.852034
993  2023-10-25 09:40:27.883948
994  2023-10-25 09:40:27.915863
995  2023-10-25 09:40:27.947777
996  2023-10-25 09:40:27.979692
997  2023-10-25 09:40:28.011607
998  2023-10-25 09:40:28.060532
999  2023-10-25 09:40:28.092447
1000  2023-10-25 09:40:28.124362
1001  2023-10-25 09:40:28.156276
1002  2023-10-25 09:40:28.188191
1003  2023-10-25 09:40:28.220106
1004  2023-10-25 09:40:28.252020
1005  2023-10-25 09:40:28.283935
1006  2023-10-25 09:40:28.315850
1007  2023-10-25 09:40:28.347764
1008  2023-10-25 09:40:28.379679
1009  2023-10-25 09:40:28.412591
1010  2023-10-25 09:40:28.460463
1011  2023-10-25 09:40:28.492378
1012  2023-10-25 09:40:28.524303
1013  2023-10-25 09:40:28.556207
1014  2023-10-25 09:40:28.588156
1015  2023-10-25 09:40:28.620037
1016  2023-10-25 09:40:28.651951
1017  2023-10-25 09:40:28.683866
1018  2023-10-25 09:40:28.715780
1019  2023-10-25 09:40:28.747695
1020  2023-10-25 09:40:28.779610
1021  2023-10-25 09:40:28.812522
1022  2023-10-25 09:40:28.860394
1023  2023-10-25 09:40:28.892308
1024  2023-10-25 09:40:28.924223
1025  2023-10-25 09:40:28.956289
1026  2023-10-25 09:40:28.987929
1027  2023-10-25 09:40:29.019891
1028  2023-10-25 09:40:29.051805
1029  2023-10-25 09:40:29.083720
1030  2023-10-25 09:40:29.115635
1031  2023-10-25 09:40:29.148547
1032  2023-10-25 09:40:29.180461
1033  2023-10-25 09:40:29.212382
1034  2023-10-25 09:40:29.260296
1035  2023-10-25 09:40:29.292195
1036  2023-10-25 09:40:29.324077
1037  2023-10-25 09:40:29.355992
1038  2023-10-25 09:40:29.387907
1039  2023-10-25 09:40:29.419995
1040  2023-10-25 09:40:29.452932
1041  2023-10-25 09:40:29.483816
1042  2023-10-25 09:40:29.516728
1043  2023-10-25 09:40:29.547816
1044  2023-10-25 09:40:29.580728
1045  2023-10-25 09:40:29.612644
1046  2023-10-25 09:40:29.660515
1047  2023-10-25 09:40:29.692429
1048  2023-10-25 09:40:29.724400
1049  2023-10-25 09:40:29.756259
1050  2023-10-25 09:40:29.788174
1051  2023-10-25 09:40:29.821086
1052  2023-10-25 09:40:29.852003
1053  2023-10-25 09:40:29.883917
1054  2023-10-25 09:40:29.916831
1055  2023-10-25 09:40:29.948785
1056  2023-10-25 09:40:29.980688
1057  2023-10-25 09:40:30.012574
1058  2023-10-25 09:40:30.060446
1059  2023-10-25 09:40:30.092360
1060  2023-10-25 09:40:30.125309
1061  2023-10-25 09:40:30.157235
1062  2023-10-25 09:40:30.189138
1063  2023-10-25 09:40:30.220019
1064  2023-10-25 09:40:30.252992
1065  2023-10-25 09:40:30.284848
1066  2023-10-25 09:40:30.316808
1067  2023-10-25 09:40:30.348678
1068  2023-10-25 09:40:30.380644
1069  2023-10-25 09:40:30.412523
1070  2023-10-25 09:40:30.460402
1071  2023-10-25 09:40:30.492663
1072  2023-10-25 09:40:30.524664
1073  2023-10-25 09:40:30.556579
1074  2023-10-25 09:40:30.588538
1075  2023-10-25 09:40:30.620458
1076  2023-10-25 09:40:30.651757
1077  2023-10-25 09:40:30.684700
1078  2023-10-25 09:40:30.716622
1079  2023-10-25 09:40:30.748548
1080  2023-10-25 09:40:30.780415
1081  2023-10-25 09:40:30.812329
1082  2023-10-25 09:40:30.860207
1083  2023-10-25 09:40:30.892114
1084  2023-10-25 09:40:30.924061
1085  2023-10-25 09:40:30.955944
1086  2023-10-25 09:40:30.987858
1087  2023-10-25 09:40:31.019773
1088  2023-10-25 09:40:31.052778
1089  2023-10-25 09:40:31.083603
1090  2023-10-25 09:40:31.116553
1091  2023-10-25 09:40:31.148429
1092  2023-10-25 09:40:31.180384
1093  2023-10-25 09:40:31.212300
1094  2023-10-25 09:40:31.260179
1095  2023-10-25 09:40:31.292097
1096  2023-10-25 09:40:31.323961
1097  2023-10-25 09:40:31.355874
1098  2023-10-25 09:40:31.387789
1099  2023-10-25 09:40:31.419704
1100  2023-10-25 09:40:31.451619
1101  2023-10-25 09:40:31.484562
1102  2023-10-25 09:40:31.516497
1103  2023-10-25 09:40:31.548411
1104  2023-10-25 09:40:31.580322
1105  2023-10-25 09:40:31.612229
1106  2023-10-25 09:40:31.660062
1107  2023-10-25 09:40:31.693047
1108  2023-10-25 09:40:31.723892
1109  2023-10-25 09:40:31.755838
1110  2023-10-25 09:40:31.788718
1111  2023-10-25 09:40:31.820692
1112  2023-10-25 09:40:31.852589
1113  2023-10-25 09:40:31.884493
1114  2023-10-25 09:40:31.916414
1115  2023-10-25 09:40:31.948293
1116  2023-10-25 09:40:31.981249
1117  2023-10-25 09:40:32.012122
1118  2023-10-25 09:40:32.061083
1119  2023-10-25 09:40:32.092151
1120  2023-10-25 09:40:32.124035
1121  2023-10-25 09:40:32.156014
1122  2023-10-25 09:40:32.188930
1123  2023-10-25 09:40:32.220822
1124  2023-10-25 09:40:32.251699
1125  2023-10-25 09:40:32.284617
1126  2023-10-25 09:40:32.316519
1127  2023-10-25 09:40:32.348434
1128  2023-10-25 09:40:32.380349
1129  2023-10-25 09:40:32.412263
1130  2023-10-25 09:40:32.461172
1131  2023-10-25 09:40:32.492050
1132  2023-10-25 09:40:32.523979
1133  2023-10-25 09:40:32.555879
1134  2023-10-25 09:40:32.588792
1135  2023-10-25 09:40:32.620718
1136  2023-10-25 09:40:32.652652
1137  2023-10-25 09:40:32.684540
1138  2023-10-25 09:40:32.716481
1139  2023-10-25 09:40:32.748394
1140  2023-10-25 09:40:32.780413
1141  2023-10-25 09:40:32.812336
1142  2023-10-25 09:40:32.860221
1143  2023-10-25 09:40:32.892070
1144  2023-10-25 09:40:32.924042
1145  2023-10-25 09:40:32.955955
1146  2023-10-25 09:40:32.987815
1147  2023-10-25 09:40:33.019729
1148  2023-10-25 09:40:33.051689
1149  2023-10-25 09:40:33.084618
1150  2023-10-25 09:40:33.116505
1151  2023-10-25 09:40:33.148418
1152  2023-10-25 09:40:33.180352
1153  2023-10-25 09:40:33.212265
1154  2023-10-25 09:40:33.260130
1155  2023-10-25 09:40:33.292002
1156  2023-10-25 09:40:33.323916
1157  2023-10-25 09:40:33.355830
1158  2023-10-25 09:40:33.387787
1159  2023-10-25 09:40:33.419699
1160  2023-10-25 09:40:33.452621
1161  2023-10-25 09:40:33.484573
1162  2023-10-25 09:40:33.516585
1163  2023-10-25 09:40:33.548498
1164  2023-10-25 09:40:33.580405
1165  2023-10-25 09:40:33.612343
1166  2023-10-25 09:40:33.660195
1167  2023-10-25 09:40:33.692117
1168  2023-10-25 09:40:33.724076
1169  2023-10-25 09:40:33.755941
1170  2023-10-25 09:40:33.787821
1171  2023-10-25 09:40:33.819783
1172  2023-10-25 09:40:33.851699
1173  2023-10-25 09:40:33.883681
1174  2023-10-25 09:40:33.916528
1175  2023-10-25 09:40:33.948443
1176  2023-10-25 09:40:33.980308
1177  2023-10-25 09:40:34.012268
1178  2023-10-25 09:40:34.060130
1179  2023-10-25 09:40:34.092062
1180  2023-10-25 09:40:34.123977
1181  2023-10-25 09:40:34.155873
1182  2023-10-25 09:40:34.187752
1183  2023-10-25 09:40:34.219695
1184  2023-10-25 09:40:34.251613
1185  2023-10-25 09:40:34.284529
1186  2023-10-25 09:40:34.316466
1187  2023-10-25 09:40:34.348323
1188  2023-10-25 09:40:34.380239
1189  2023-10-25 09:40:34.412163
1190  2023-10-25 09:40:34.460034
1191  2023-10-25 09:40:34.491947
1192  2023-10-25 09:40:34.523983
1193  2023-10-25 09:40:34.555884
1194  2023-10-25 09:40:34.587813
1195  2023-10-25 09:40:34.619950
1196  2023-10-25 09:40:34.651840
1197  2023-10-25 09:40:34.683720
1198  2023-10-25 09:40:34.715667
1199  2023-10-25 09:40:34.747547
1200  2023-10-25 09:40:34.780510
1201  2023-10-25 09:40:34.812426
1202  2023-10-25 09:40:34.860272
1203  2023-10-25 09:40:34.892211
1204  2023-10-25 09:40:34.924120
1205  2023-10-25 09:40:34.956018
1206  2023-10-25 09:40:34.987936
1207  2023-10-25 09:40:35.019821
1208  2023-10-25 09:40:35.051816
1209  2023-10-25 09:40:35.084691
1210  2023-10-25 09:40:35.116605
1211  2023-10-25 09:40:35.148523
1212  2023-10-25 09:40:35.180430
1213  2023-10-25 09:40:35.212340
1214  2023-10-25 09:40:35.260227
1215  2023-10-25 09:40:35.292132
1216  2023-10-25 09:40:35.324007
1217  2023-10-25 09:40:35.355957
1218  2023-10-25 09:40:35.388051
1219  2023-10-25 09:40:35.419923
1220  2023-10-25 09:40:35.451922
1221  2023-10-25 09:40:35.483835
1222  2023-10-25 09:40:35.515784
1223  2023-10-25 09:40:35.547694
1224  2023-10-25 09:40:35.580627
1225  2023-10-25 09:40:35.612553
1226  2023-10-25 09:40:35.660411
1227  2023-10-25 09:40:35.692324
1228  2023-10-25 09:40:35.724240
1229  2023-10-25 09:40:35.756140
1230  2023-10-25 09:40:35.788125
1231  2023-10-25 09:40:35.820041
1232  2023-10-25 09:40:35.852041
1233  2023-10-25 09:40:35.883961
1234  2023-10-25 09:40:35.915859
1235  2023-10-25 09:40:35.947773
1236  2023-10-25 09:40:35.979695
1237  2023-10-25 09:40:36.012625
1238  2023-10-25 09:40:36.060485
1239  2023-10-25 09:40:36.092400
1240  2023-10-25 09:40:36.124427
1241  2023-10-25 09:40:36.156315
1242  2023-10-25 09:40:36.188230
1243  2023-10-25 09:40:36.220169
1244  2023-10-25 09:40:36.252084
1245  2023-10-25 09:40:36.283971
1246  2023-10-25 09:40:36.315896
1247  2023-10-25 09:40:36.347802
1248  2023-10-25 09:40:36.379716
1249  2023-10-25 09:40:36.412633
1250  2023-10-25 09:40:36.460520
1251  2023-10-25 09:40:36.492435
1252  2023-10-25 09:40:36.524329
1253  2023-10-25 09:40:36.556266
1254  2023-10-25 09:40:36.588158
1255  2023-10-25 09:40:36.620095
1256  2023-10-25 09:40:36.652025
1257  2023-10-25 09:40:36.683903
1258  2023-10-25 09:40:36.715823
1259  2023-10-25 09:40:36.748729
1260  2023-10-25 09:40:36.779652
1261  2023-10-25 09:40:36.812621
1262  2023-10-25 09:40:36.860472
1263  2023-10-25 09:40:36.892370
1264  2023-10-25 09:40:36.924258
1265  2023-10-25 09:40:36.957146
1266  2023-10-25 09:40:36.988114
1267  2023-10-25 09:40:37.020103
1268  2023-10-25 09:40:37.052053
1269  2023-10-25 09:40:37.083912
1270  2023-10-25 09:40:37.115832
1271  2023-10-25 09:40:37.147745
1272  2023-10-25 09:40:37.179683
1273  2023-10-25 09:40:37.212593
1274  2023-10-25 09:40:37.260443
1275  2023-10-25 09:40:37.292376
1276  2023-10-25 09:40:37.324294
1277  2023-10-25 09:40:37.356212
1278  2023-10-25 09:40:37.388121
1279  2023-10-25 09:40:37.420040
1280  2023-10-25 09:40:37.451939
1281  2023-10-25 09:40:37.483858
1282  2023-10-25 09:40:37.515778
1283  2023-10-25 09:40:37.547676
1284  2023-10-25 09:40:37.580596
1285  2023-10-25 09:40:37.612530
1286  2023-10-25 09:40:37.660394
1287  2023-10-25 09:40:37.692308
1288  2023-10-25 09:40:37.724206
1289  2023-10-25 09:40:37.756144
1290  2023-10-25 09:40:37.788035
1291  2023-10-25 09:40:37.819959
1292  2023-10-25 09:40:37.851877
1293  2023-10-25 09:40:37.883786
1294  2023-10-25 09:40:37.915707
1295  2023-10-25 09:40:37.947608
1296  2023-10-25 09:40:37.980488
1297  2023-10-25 09:40:38.012432
1298  2023-10-25 09:40:38.060299
1299  2023-10-25 09:40:38.092213
1300  2023-10-25 09:40:38.124150
1301  2023-10-25 09:40:38.156069
1302  2023-10-25 09:40:38.187972
1303  2023-10-25 09:40:38.219888
1304  2023-10-25 09:40:38.251811
1305  2023-10-25 09:40:38.283717
1306  2023-10-25 09:40:38.316631
1307  2023-10-25 09:40:38.347539
1308  2023-10-25 09:40:38.380468
1309  2023-10-25 09:40:38.412384
1310  2023-10-25 09:40:38.460237
1311  2023-10-25 09:40:38.492157
1312  2023-10-25 09:40:38.524065
1313  2023-10-25 09:40:38.556012
1314  2023-10-25 09:40:38.587890
1315  2023-10-25 09:40:38.619811
1316  2023-10-25 09:40:38.651726
1317  2023-10-25 09:40:38.684646
1318  2023-10-25 09:40:38.716565
1319  2023-10-25 09:40:38.748483
1320  2023-10-25 09:40:38.780348
1321  2023-10-25 09:40:38.812313
1322  2023-10-25 09:40:38.860213
1323  2023-10-25 09:40:38.892084
1324  2023-10-25 09:40:38.924002
1325  2023-10-25 09:40:38.955915
1326  2023-10-25 09:40:38.988824
1327  2023-10-25 09:40:39.019742
1328  2023-10-25 09:40:39.051657
1329  2023-10-25 09:40:39.084537
1330  2023-10-25 09:40:39.116502
1331  2023-10-25 09:40:39.148414
1332  2023-10-25 09:40:39.180309
1333  2023-10-25 09:40:39.212247
1334  2023-10-25 09:40:39.260118
1335  2023-10-25 09:40:39.292079
1336  2023-10-25 09:40:39.324925
1337  2023-10-25 09:40:39.355847
1338  2023-10-25 09:40:39.387755
1339  2023-10-25 09:40:39.420678
1340  2023-10-25 09:40:39.452553
1341  2023-10-25 09:40:39.484513
1342  2023-10-25 09:40:39.516419
1343  2023-10-25 09:40:39.548295
1344  2023-10-25 09:40:39.580268
1345  2023-10-25 09:40:39.612125
1346  2023-10-25 09:40:39.660041
1347  2023-10-25 09:40:39.691945
1348  2023-10-25 09:40:39.723911
1349  2023-10-25 09:40:39.755774
1350  2023-10-25 09:40:39.787690
1351  2023-10-25 09:40:39.820601
1352  2023-10-25 09:40:39.852516
1353  2023-10-25 09:40:39.884422
1354  2023-10-25 09:40:39.916338
1355  2023-10-25 09:40:39.948225
1356  2023-10-25 09:40:39.980145
1357  2023-10-25 09:40:40.012102
1358  2023-10-25 09:40:40.059975
1359  2023-10-25 09:40:40.091874
1360  2023-10-25 09:40:40.123789
1361  2023-10-25 09:40:40.155736
1362  2023-10-25 09:40:40.187684
1363  2023-10-25 09:40:40.219613
1364  2023-10-25 09:40:40.252511
1365  2023-10-25 09:40:40.284444
1366  2023-10-25 09:40:40.316343
1367  2023-10-25 09:40:40.348255
1368  2023-10-25 09:40:40.380184
1369  2023-10-25 09:40:40.412114
1370  2023-10-25 09:40:40.459947
1371  2023-10-25 09:40:40.491913
1372  2023-10-25 09:40:40.523789
1373  2023-10-25 09:40:40.556733
1374  2023-10-25 09:40:40.588592
1375  2023-10-25 09:40:40.620526
1376  2023-10-25 09:40:40.652462
1377  2023-10-25 09:40:40.684323
1378  2023-10-25 09:40:40.716272
1379  2023-10-25 09:40:40.748195
1380  2023-10-25 09:40:40.780068
1381  2023-10-25 09:40:40.812065
1382  2023-10-25 09:40:40.859889
1383  2023-10-25 09:40:40.891858
1384  2023-10-25 09:40:40.924853
1385  2023-10-25 09:40:40.955778
1386  2023-10-25 09:40:40.987718
1387  2023-10-25 09:40:41.020599
1388  2023-10-25 09:40:41.052510
1389  2023-10-25 09:40:41.084440
1390  2023-10-25 09:40:41.116356
1391  2023-10-25 09:40:41.148277
1392  2023-10-25 09:40:41.180173
1393  2023-10-25 09:40:41.212100
1394  2023-10-25 09:40:41.259959
1395  2023-10-25 09:40:41.291882
1396  2023-10-25 09:40:41.323788
1397  2023-10-25 09:40:41.355701
1398  2023-10-25 09:40:41.387617
1399  2023-10-25 09:40:41.420534
1400  2023-10-25 09:40:41.452441
1401  2023-10-25 09:40:41.484355
1402  2023-10-25 09:40:41.516291
1403  2023-10-25 09:40:41.548184
1404  2023-10-25 09:40:41.580068
1405  2023-10-25 09:40:41.611983
1406  2023-10-25 09:40:41.659861
1407  2023-10-25 09:40:41.691816
1408  2023-10-25 09:40:41.723777
1409  2023-10-25 09:40:41.756680
1410  2023-10-25 09:40:41.788596
1411  2023-10-25 09:40:41.820552
1412  2023-10-25 09:40:41.852469
1413  2023-10-25 09:40:41.883737
1414  2023-10-25 09:40:41.915647
1415  2023-10-25 09:40:41.948575
1416  2023-10-25 09:40:41.980568
1417  2023-10-25 09:40:42.012566
1418  2023-10-25 09:40:42.060477
1419  2023-10-25 09:40:42.092386
1420  2023-10-25 09:40:42.124338
1421  2023-10-25 09:40:42.156230
1422  2023-10-25 09:40:42.188128
1423  2023-10-25 09:40:42.220037
1424  2023-10-25 09:40:42.251959
1425  2023-10-25 09:40:42.283874
1426  2023-10-25 09:40:42.315757
1427  2023-10-25 09:40:42.347719
1428  2023-10-25 09:40:42.379619
1429  2023-10-25 09:40:42.412564
1430  2023-10-25 09:40:42.460400
1431  2023-10-25 09:40:42.492336
1432  2023-10-25 09:40:42.524236
1433  2023-10-25 09:40:42.556169
1434  2023-10-25 09:40:42.588058
1435  2023-10-25 09:40:42.619984
1436  2023-10-25 09:40:42.652025
1437  2023-10-25 09:40:42.683913
1438  2023-10-25 09:40:42.715829
1439  2023-10-25 09:40:42.747760
1440  2023-10-25 09:40:42.780624
1441  2023-10-25 09:40:42.811612
1442  2023-10-25 09:40:42.860481
1443  2023-10-25 09:40:42.892396
1444  2023-10-25 09:40:42.924474
1445  2023-10-25 09:40:42.956383
1446  2023-10-25 09:40:42.988291
1447  2023-10-25 09:40:43.020205
1448  2023-10-25 09:40:43.052119
1449  2023-10-25 09:40:43.084043
1450  2023-10-25 09:40:43.116959
1451  2023-10-25 09:40:43.147889
1452  2023-10-25 09:40:43.179787
1453  2023-10-25 09:40:43.212665
1454  2023-10-25 09:40:43.260570
1455  2023-10-25 09:40:43.292451
1456  2023-10-25 09:40:43.324400
1457  2023-10-25 09:40:43.356313
1458  2023-10-25 09:40:43.388195
1459  2023-10-25 09:40:43.420136
1460  2023-10-25 09:40:43.452055
1461  2023-10-25 09:40:43.483977
1462  2023-10-25 09:40:43.515888
1463  2023-10-25 09:40:43.547816
1464  2023-10-25 09:40:43.579731
1465  2023-10-25 09:40:43.612595
1466  2023-10-25 09:40:43.660503
1467  2023-10-25 09:40:43.692381
1468  2023-10-25 09:40:43.724349
1469  2023-10-25 09:40:43.756245
1470  2023-10-25 09:40:43.788159
1471  2023-10-25 09:40:43.820074
1472  2023-10-25 09:40:43.852001
1473  2023-10-25 09:40:43.883903
1474  2023-10-25 09:40:43.915784
1475  2023-10-25 09:40:43.947749
1476  2023-10-25 09:40:43.980611
1477  2023-10-25 09:40:44.012559
1478  2023-10-25 09:40:44.060397
1479  2023-10-25 09:40:44.092349
1480  2023-10-25 09:40:44.124275
1481  2023-10-25 09:40:44.156172
1482  2023-10-25 09:40:44.188172
1483  2023-10-25 09:40:44.220093
1484  2023-10-25 09:40:44.252029
1485  2023-10-25 09:40:44.283915
1486  2023-10-25 09:40:44.315869
1487  2023-10-25 09:40:44.347754
1488  2023-10-25 09:40:44.379668
1489  2023-10-25 09:40:44.412546
1490  2023-10-25 09:40:44.460418
1491  2023-10-25 09:40:44.492332
1492  2023-10-25 09:40:44.524281
1493  2023-10-25 09:40:44.556194
1494  2023-10-25 09:40:44.588103
1495  2023-10-25 09:40:44.620017
1496  2023-10-25 09:40:44.651939
1497  2023-10-25 09:40:44.683867
1498  2023-10-25 09:40:44.715766
1499  2023-10-25 09:40:44.747683
1500  2023-10-25 09:40:44.779564
1501  2023-10-25 09:40:44.812476
1502  2023-10-25 09:40:44.860348
1503  2023-10-25 09:40:44.892263
1504  2023-10-25 09:40:44.924203
1505  2023-10-25 09:40:44.956125
1506  2023-10-25 09:40:44.988007
1507  2023-10-25 09:40:45.019922
1508  2023-10-25 09:40:45.051873
1509  2023-10-25 09:40:45.084763
1510  2023-10-25 09:40:45.116665
1511  2023-10-25 09:40:45.147617
1512  2023-10-25 09:40:45.180550
1513  2023-10-25 09:40:45.212412
1514  2023-10-25 09:40:45.260310
1515  2023-10-25 09:40:45.292229
1516  2023-10-25 09:40:45.324170
1517  2023-10-25 09:40:45.356054
1518  2023-10-25 09:40:45.387983
1519  2023-10-25 09:40:45.419853
1520  2023-10-25 09:40:45.451767
1521  2023-10-25 09:40:45.483682
1522  2023-10-25 09:40:45.515596
1523  2023-10-25 09:40:45.548548
1524  2023-10-25 09:40:45.580452
1525  2023-10-25 09:40:45.612338
1526  2023-10-25 09:40:45.660243
1527  2023-10-25 09:40:45.692124
1528  2023-10-25 09:40:45.724039
1529  2023-10-25 09:40:45.755997
1530  2023-10-25 09:40:45.787898
1531  2023-10-25 09:40:45.819818
1532  2023-10-25 09:40:45.851703
1533  2023-10-25 09:40:45.883661
1534  2023-10-25 09:40:45.916583
1535  2023-10-25 09:40:45.948439
1536  2023-10-25 09:40:45.980385
1537  2023-10-25 09:40:46.012303
1538  2023-10-25 09:40:46.060172
1539  2023-10-25 09:40:46.092090
1540  2023-10-25 09:40:46.124051
1541  2023-10-25 09:40:46.156101
1542  2023-10-25 09:40:46.188029
1543  2023-10-25 09:40:46.219935
1544  2023-10-25 09:40:46.251851
1545  2023-10-25 09:40:46.283724
1546  2023-10-25 09:40:46.315672
1547  2023-10-25 09:40:46.348551
1548  2023-10-25 09:40:46.380498
1549  2023-10-25 09:40:46.412380
1550  2023-10-25 09:40:46.460252
1551  2023-10-25 09:40:46.492167
1552  2023-10-25 09:40:46.524082
1553  2023-10-25 09:40:46.556029
1554  2023-10-25 09:40:46.587911
1555  2023-10-25 09:40:46.619860
1556  2023-10-25 09:40:46.651740
1557  2023-10-25 09:40:46.683655
1558  2023-10-25 09:40:46.716567
1559  2023-10-25 09:40:46.748482
1560  2023-10-25 09:40:46.780396
1561  2023-10-25 09:40:46.812311
1562  2023-10-25 09:40:46.860183
1563  2023-10-25 09:40:46.892098
1564  2023-10-25 09:40:46.924014
1565  2023-10-25 09:40:46.955929
1566  2023-10-25 09:40:46.987872
1567  2023-10-25 09:40:47.019781
1568  2023-10-25 09:40:47.051671
1569  2023-10-25 09:40:47.083615
1570  2023-10-25 09:40:47.116498
1571  2023-10-25 09:40:47.148412
1572  2023-10-25 09:40:47.180327
1573  2023-10-25 09:40:47.212287
1574  2023-10-25 09:40:47.260114
1575  2023-10-25 09:40:47.292061
1576  2023-10-25 09:40:47.323943
1577  2023-10-25 09:40:47.355858
1578  2023-10-25 09:40:47.387772
1579  2023-10-25 09:40:47.419723
1580  2023-10-25 09:40:47.451602
1581  2023-10-25 09:40:47.484514
1582  2023-10-25 09:40:47.516428
1583  2023-10-25 09:40:47.548393
1584  2023-10-25 09:40:47.580305
1585  2023-10-25 09:40:47.612173
1586  2023-10-25 09:40:47.660106
1587  2023-10-25 09:40:47.692021
1588  2023-10-25 09:40:47.723936
1589  2023-10-25 09:40:47.755887
1590  2023-10-25 09:40:47.787817
1591  2023-10-25 09:40:47.819742
1592  2023-10-25 09:40:47.851658
1593  2023-10-25 09:40:47.883606
1594  2023-10-25 09:40:47.916532
1595  2023-10-25 09:40:47.948400
1596  2023-10-25 09:40:47.980314
1597  2023-10-25 09:40:48.012261
1598  2023-10-25 09:40:48.060101
1599  2023-10-25 09:40:48.092194
1600  2023-10-25 09:40:48.124108
1601  2023-10-25 09:40:48.155985
1602  2023-10-25 09:40:48.187900
1603  2023-10-25 09:40:48.219815
1604  2023-10-25 09:40:48.251783
1605  2023-10-25 09:40:48.283644
1606  2023-10-25 09:40:48.316558
1607  2023-10-25 09:40:48.348471
1608  2023-10-25 09:40:48.380423
1609  2023-10-25 09:40:48.412300
1610  2023-10-25 09:40:48.460172
1611  2023-10-25 09:40:48.492087
1612  2023-10-25 09:40:48.524001
1613  2023-10-25 09:40:48.555916
1614  2023-10-25 09:40:48.587875
1615  2023-10-25 09:40:48.619745
1616  2023-10-25 09:40:48.651660
1617  2023-10-25 09:40:48.684572
1618  2023-10-25 09:40:48.716487
1619  2023-10-25 09:40:48.748401
1620  2023-10-25 09:40:48.780316
1621  2023-10-25 09:40:48.812231
1622  2023-10-25 09:40:48.860103
1623  2023-10-25 09:40:48.892017
1624  2023-10-25 09:40:48.923932
1625  2023-10-25 09:40:48.955847
1626  2023-10-25 09:40:48.987761
1627  2023-10-25 09:40:49.019676
1628  2023-10-25 09:40:49.052588
1629  2023-10-25 09:40:49.084535
1630  2023-10-25 09:40:49.116417
1631  2023-10-25 09:40:49.148332
1632  2023-10-25 09:40:49.180247
1633  2023-10-25 09:40:49.212205
1634  2023-10-25 09:40:49.260033
1635  2023-10-25 09:40:49.292009
1636  2023-10-25 09:40:49.323863
1637  2023-10-25 09:40:49.355777
1638  2023-10-25 09:40:49.387692
1639  2023-10-25 09:40:49.419608
1640  2023-10-25 09:40:49.452557
1641  2023-10-25 09:40:49.484433
1642  2023-10-25 09:40:49.516348
1643  2023-10-25 09:40:49.548309
1644  2023-10-25 09:40:49.580214
1645  2023-10-25 09:40:49.612092
1646  2023-10-25 09:40:49.659964
1647  2023-10-25 09:40:49.691879
1648  2023-10-25 09:40:49.723793
1649  2023-10-25 09:40:49.755735
1650  2023-10-25 09:40:49.788620
1651  2023-10-25 09:40:49.820535
1652  2023-10-25 09:40:49.852449
1653  2023-10-25 09:40:49.884370
1654  2023-10-25 09:40:49.916310
1655  2023-10-25 09:40:49.948193
1656  2023-10-25 09:40:49.980108
1657  2023-10-25 09:40:50.012146
1658  2023-10-25 09:40:50.060028
1659  2023-10-25 09:40:50.091989
1660  2023-10-25 09:40:50.124039
1661  2023-10-25 09:40:50.155953
1662  2023-10-25 09:40:50.187868
1663  2023-10-25 09:40:50.219783
1664  2023-10-25 09:40:50.251697
1665  2023-10-25 09:40:50.284609
1666  2023-10-25 09:40:50.316569
1667  2023-10-25 09:40:50.348606
1668  2023-10-25 09:40:50.380521
1669  2023-10-25 09:40:50.412435
1670  2023-10-25 09:40:50.460238
1671  2023-10-25 09:40:50.492870
1672  2023-10-25 09:40:50.523939
1673  2023-10-25 09:40:50.555849
1674  2023-10-25 09:40:50.587703
1675  2023-10-25 09:40:50.620615
1676  2023-10-25 09:40:50.651582
1677  2023-10-25 09:40:50.684494
1678  2023-10-25 09:40:50.716462
1679  2023-10-25 09:40:50.748354
1680  2023-10-25 09:40:50.780238
1681  2023-10-25 09:40:50.812153
1682  2023-10-25 09:40:50.860028
1683  2023-10-25 09:40:50.891939
1684  2023-10-25 09:40:50.923885
1685  2023-10-25 09:40:50.955771
1686  2023-10-25 09:40:50.987683
1687  2023-10-25 09:40:51.020601
1688  2023-10-25 09:40:51.052556
1689  2023-10-25 09:40:51.084459
1690  2023-10-25 09:40:51.116339
1691  2023-10-25 09:40:51.148254
1692  2023-10-25 09:40:51.180169
1693  2023-10-25 09:40:51.212117
1694  2023-10-25 09:40:51.260024
1695  2023-10-25 09:40:51.292037
1696  2023-10-25 09:40:51.323985
1697  2023-10-25 09:40:51.355900
1698  2023-10-25 09:40:51.387882
1699  2023-10-25 09:40:51.419764
1700  2023-10-25 09:40:51.451644
1701  2023-10-25 09:40:51.484556
1702  2023-10-25 09:40:51.516470
1703  2023-10-25 09:40:51.548418
1704  2023-10-25 09:40:51.580300
1705  2023-10-25 09:40:51.612214
1706  2023-10-25 09:40:51.660086
1707  2023-10-25 09:40:51.692059
1708  2023-10-25 09:40:51.724136
1709  2023-10-25 09:40:51.756288
1710  2023-10-25 09:40:51.788219
1711  2023-10-25 09:40:51.820191
1712  2023-10-25 09:40:51.852106
1713  2023-10-25 09:40:51.884020
1714  2023-10-25 09:40:51.915935
1715  2023-10-25 09:40:51.948848
1716  2023-10-25 09:40:51.979764
1717  2023-10-25 09:40:52.011679
1718  2023-10-25 09:40:52.060548
1719  2023-10-25 09:40:52.092499
1720  2023-10-25 09:40:52.124409
1721  2023-10-25 09:40:52.156293
1722  2023-10-25 09:40:52.188429
1723  2023-10-25 09:40:52.220344
1724  2023-10-25 09:40:52.252290
1725  2023-10-25 09:40:52.284287
1726  2023-10-25 09:40:52.316201
1727  2023-10-25 09:40:52.348116
1728  2023-10-25 09:40:52.380089
1729  2023-10-25 09:40:52.411945
1730  2023-10-25 09:40:52.459876
1731  2023-10-25 09:40:52.491732
1732  2023-10-25 09:40:52.523848
1733  2023-10-25 09:40:52.555762
1734  2023-10-25 09:40:52.587710
1735  2023-10-25 09:40:52.619744
1736  2023-10-25 09:40:52.651688
1737  2023-10-25 09:40:52.683603
1738  2023-10-25 09:40:52.716551
1739  2023-10-25 09:40:52.748462
1740  2023-10-25 09:40:52.780344
1741  2023-10-25 09:40:52.812259
1742  2023-10-25 09:40:52.860139
1743  2023-10-25 09:40:52.892045
1744  2023-10-25 09:40:52.923985
1745  2023-10-25 09:40:52.955875
1746  2023-10-25 09:40:52.987789
1747  2023-10-25 09:40:53.019704
1748  2023-10-25 09:40:53.051670
1749  2023-10-25 09:40:53.084531
1750  2023-10-25 09:40:53.116445
1751  2023-10-25 09:40:53.148542
1752  2023-10-25 09:40:53.180549
1753  2023-10-25 09:40:53.212464
1754  2023-10-25 09:40:53.260378
1755  2023-10-25 09:40:53.292354
1756  2023-10-25 09:40:53.324295
1757  2023-10-25 09:40:53.356210
1758  2023-10-25 09:40:53.388125
1759  2023-10-25 09:40:53.420088
1760  2023-10-25 09:40:53.451954
1761  2023-10-25 09:40:53.483868
1762  2023-10-25 09:40:53.515783
1763  2023-10-25 09:40:53.547698
1764  2023-10-25 09:40:53.580610
1765  2023-10-25 09:40:53.612524
1766  2023-10-25 09:40:53.660396
1767  2023-10-25 09:40:53.692311
1768  2023-10-25 09:40:53.724257
1769  2023-10-25 09:40:53.756140
1770  2023-10-25 09:40:53.788055
1771  2023-10-25 09:40:53.819970
1772  2023-10-25 09:40:53.851884
1773  2023-10-25 09:40:53.883799
1774  2023-10-25 09:40:53.915714
1775  2023-10-25 09:40:53.947628
1776  2023-10-25 09:40:53.980540
1777  2023-10-25 09:40:54.012455
1778  2023-10-25 09:40:54.060327
1779  2023-10-25 09:40:54.092242
1780  2023-10-25 09:40:54.124156
1781  2023-10-25 09:40:54.156071
1782  2023-10-25 09:40:54.187986
1783  2023-10-25 09:40:54.219900
1784  2023-10-25 09:40:54.252817
1785  2023-10-25 09:40:54.284727
1786  2023-10-25 09:40:54.316650
1787  2023-10-25 09:40:54.348557
1788  2023-10-25 09:40:54.380478
1789  2023-10-25 09:40:54.412424
1790  2023-10-25 09:40:54.460330
1791  2023-10-25 09:40:54.492172
1792  2023-10-25 09:40:54.524087
1793  2023-10-25 09:40:54.556002
1794  2023-10-25 09:40:54.587957
1795  2023-10-25 09:40:54.619865
1796  2023-10-25 09:40:54.651746
1797  2023-10-25 09:40:54.683660
1798  2023-10-25 09:40:54.715604
1799  2023-10-25 09:40:54.748563
1800  2023-10-25 09:40:54.780402
1801  2023-10-25 09:40:54.812316
1802  2023-10-25 09:40:54.860188
1803  2023-10-25 09:40:54.892103
1804  2023-10-25 09:40:54.924049
1805  2023-10-25 09:40:54.955979
1806  2023-10-25 09:40:54.987847
1807  2023-10-25 09:40:55.019762
1808  2023-10-25 09:40:55.051823
1809  2023-10-25 09:40:55.083770
1810  2023-10-25 09:40:55.115653
1811  2023-10-25 09:40:55.148565
1812  2023-10-25 09:40:55.180584
1813  2023-10-25 09:40:55.212498
1814  2023-10-25 09:40:55.260371
1815  2023-10-25 09:40:55.292285
1816  2023-10-25 09:40:55.324200
1817  2023-10-25 09:40:55.356115
1818  2023-10-25 09:40:55.388029
1819  2023-10-25 09:40:55.420946
1820  2023-10-25 09:40:55.452864
1821  2023-10-25 09:40:55.483773
1822  2023-10-25 09:40:55.515688
1823  2023-10-25 09:40:55.548633
1824  2023-10-25 09:40:55.580528
1825  2023-10-25 09:40:55.612429
1826  2023-10-25 09:40:55.660332
1827  2023-10-25 09:40:55.692216
1828  2023-10-25 09:40:55.724131
1829  2023-10-25 09:40:55.756101
1830  2023-10-25 09:40:55.787999
1831  2023-10-25 09:40:55.820872
1832  2023-10-25 09:40:55.851789
1833  2023-10-25 09:40:55.883704
1834  2023-10-25 09:40:55.916648
1835  2023-10-25 09:40:55.948539
1836  2023-10-25 09:40:55.980445
1837  2023-10-25 09:40:56.012365
1838  2023-10-25 09:40:56.060232
1839  2023-10-25 09:40:56.092184
1840  2023-10-25 09:40:56.124092
1841  2023-10-25 09:40:56.155976
1842  2023-10-25 09:40:56.187891
1843  2023-10-25 09:40:56.219805
1844  2023-10-25 09:40:56.252768
1845  2023-10-25 09:40:56.283635
1846  2023-10-25 09:40:56.316673
1847  2023-10-25 09:40:56.348564
1848  2023-10-25 09:40:56.380479
1849  2023-10-25 09:40:56.412448
1850  2023-10-25 09:40:56.460399
1851  2023-10-25 09:40:56.492272
1852  2023-10-25 09:40:56.524190
1853  2023-10-25 09:40:56.556101
1854  2023-10-25 09:40:56.588047
1855  2023-10-25 09:40:56.619930
1856  2023-10-25 09:40:56.651845
1857  2023-10-25 09:40:56.683760
1858  2023-10-25 09:40:56.715724
1859  2023-10-25 09:40:56.747620
1860  2023-10-25 09:40:56.780501
1861  2023-10-25 09:40:56.812416
1862  2023-10-25 09:40:56.860288
1863  2023-10-25 09:40:56.892203
1864  2023-10-25 09:40:56.924117
1865  2023-10-25 09:40:56.956032
1866  2023-10-25 09:40:56.987947
1867  2023-10-25 09:40:57.019874
1868  2023-10-25 09:40:57.052773
1869  2023-10-25 09:40:57.083829
1870  2023-10-25 09:40:57.115743
1871  2023-10-25 09:40:57.147658
1872  2023-10-25 09:40:57.180662
1873  2023-10-25 09:40:57.212486
1874  2023-10-25 09:40:57.260357
1875  2023-10-25 09:40:57.292323
1876  2023-10-25 09:40:57.324189
1877  2023-10-25 09:40:57.356101
1878  2023-10-25 09:40:57.388015
1879  2023-10-25 09:40:57.419931
1880  2023-10-25 09:40:57.451845
1881  2023-10-25 09:40:57.483759
1882  2023-10-25 09:40:57.515814
1883  2023-10-25 09:40:57.547729
1884  2023-10-25 09:40:57.580682
1885  2023-10-25 09:40:57.612556
1886  2023-10-25 09:40:57.660427
1887  2023-10-25 09:40:57.692342
1888  2023-10-25 09:40:57.724256
1889  2023-10-25 09:40:57.756197
1890  2023-10-25 09:40:57.788249
1891  2023-10-25 09:40:57.820130
1892  2023-10-25 09:40:57.852083
1893  2023-10-25 09:40:57.883960
1894  2023-10-25 09:40:57.915874
1895  2023-10-25 09:40:57.947865
1896  2023-10-25 09:40:57.979748
1897  2023-10-25 09:40:58.012660
1898  2023-10-25 09:40:58.060621
1899  2023-10-25 09:40:58.091670
1900  2023-10-25 09:40:58.123579
1901  2023-10-25 09:40:58.156549
1902  2023-10-25 09:40:58.188463
1903  2023-10-25 09:40:58.220378
1904  2023-10-25 09:40:58.252292
1905  2023-10-25 09:40:58.284207
1906  2023-10-25 09:40:58.316122
1907  2023-10-25 09:40:58.348037
1908  2023-10-25 09:40:58.379951
1909  2023-10-25 09:40:58.411999
1910  2023-10-25 09:40:58.459916
1911  2023-10-25 09:40:58.492015
1912  2023-10-25 09:40:58.523920
1913  2023-10-25 09:40:58.555877
1914  2023-10-25 09:40:58.587792
1915  2023-10-25 09:40:58.620705
1916  2023-10-25 09:40:58.651621
1917  2023-10-25 09:40:58.684533
1918  2023-10-25 09:40:58.716448
1919  2023-10-25 09:40:58.748363
1920  2023-10-25 09:40:58.780277
1921  2023-10-25 09:40:58.812192
1922  2023-10-25 09:40:58.860064
1923  2023-10-25 09:40:58.891979
1924  2023-10-25 09:40:58.923950
1925  2023-10-25 09:40:58.955938
1926  2023-10-25 09:40:58.987852
1927  2023-10-25 09:40:59.020765
1928  2023-10-25 09:40:59.051682
1929  2023-10-25 09:40:59.084595
1930  2023-10-25 09:40:59.116509
1931  2023-10-25 09:40:59.148424
1932  2023-10-25 09:40:59.180338
1933  2023-10-25 09:40:59.212290
1934  2023-10-25 09:40:59.260125
1935  2023-10-25 09:40:59.292075
1936  2023-10-25 09:40:59.323954
1937  2023-10-25 09:40:59.355869
1938  2023-10-25 09:40:59.387794
1939  2023-10-25 09:40:59.419750
1940  2023-10-25 09:40:59.451613
1941  2023-10-25 09:40:59.484525
1942  2023-10-25 09:40:59.516439
1943  2023-10-25 09:40:59.548385
1944  2023-10-25 09:40:59.580301
1945  2023-10-25 09:40:59.612185
1946  2023-10-25 09:40:59.659745
1947  2023-10-25 09:40:59.691660
1948  2023-10-25 09:40:59.723574
1949  2023-10-25 09:40:59.756523
1950  2023-10-25 09:40:59.788433
1951  2023-10-25 09:40:59.820316
1952  2023-10-25 09:40:59.852231
1953  2023-10-25 09:40:59.884145
1954  2023-10-25 09:40:59.916060
1955  2023-10-25 09:40:59.947975
1956  2023-10-25 09:40:59.979889
1957  2023-10-25 09:41:00.011804
1958  2023-10-25 09:41:00.059782
1959  2023-10-25 09:41:00.091697
1960  2023-10-25 09:41:00.123612
1961  2023-10-25 09:41:00.156526
1962  2023-10-25 09:41:00.188439
1963  2023-10-25 09:41:00.220353
1964  2023-10-25 09:41:00.252268
1965  2023-10-25 09:41:00.284182
1966  2023-10-25 09:41:00.316097
1967  2023-10-25 09:41:00.348012
1968  2023-10-25 09:41:00.379926
1969  2023-10-25 09:41:00.411841
1970  2023-10-25 09:41:00.459713
1971  2023-10-25 09:41:00.491628
1972  2023-10-25 09:41:00.524540
1973  2023-10-25 09:41:00.556455
1974  2023-10-25 09:41:00.588452
1975  2023-10-25 09:41:00.620371
1976  2023-10-25 09:41:00.652303
1977  2023-10-25 09:41:00.684218
1978  2023-10-25 09:41:00.716134
1979  2023-10-25 09:41:00.748047
1980  2023-10-25 09:41:00.779962
1981  2023-10-25 09:41:00.811876
1982  2023-10-25 09:41:00.859748
1983  2023-10-25 09:41:00.891663
1984  2023-10-25 09:41:00.923579
1985  2023-10-25 09:41:00.956529
1986  2023-10-25 09:41:00.988404
1987  2023-10-25 09:41:01.020239
1988  2023-10-25 09:41:01.052153
1989  2023-10-25 09:41:01.084098
1990  2023-10-25 09:41:01.115983
1991  2023-10-25 09:41:01.147904
1992  2023-10-25 09:41:01.179812
1993  2023-10-25 09:41:01.211769
1994  2023-10-25 09:41:01.259636
1995  2023-10-25 09:41:01.292579
1996  2023-10-25 09:41:01.324425
1997  2023-10-25 09:41:01.356340
1998  2023-10-25 09:41:01.388255
1999  2023-10-25 09:41:01.420204
2000  2023-10-25 09:41:01.453107
2001  2023-10-25 09:41:01.483999
2002  2023-10-25 09:41:01.516912
2003  2023-10-25 09:41:01.548827
2004  2023-10-25 09:41:01.579777
2005  2023-10-25 09:41:01.612656
2006  2023-10-25 09:41:01.661553
2007  2023-10-25 09:41:01.693471
2008  2023-10-25 09:41:01.725385
2009  2023-10-25 09:41:01.757438
2010  2023-10-25 09:41:01.789340
2011  2023-10-25 09:41:01.821259
2012  2023-10-25 09:41:01.853180
2013  2023-10-25 09:41:01.885085
2014  2023-10-25 09:41:01.917001
2015  2023-10-25 09:41:01.948913
2016  2023-10-25 09:41:01.980824
2017  2023-10-25 09:41:02.012713
2018  2023-10-25 09:41:02.060584
2019  2023-10-25 09:41:02.093556
2020  2023-10-25 09:41:02.125444
2021  2023-10-25 09:41:02.157333
2022  2023-10-25 09:41:02.189283
2023  2023-10-25 09:41:02.221310
2024  2023-10-25 09:41:02.253209
2025  2023-10-25 09:41:02.285123
2026  2023-10-25 09:41:02.317049
2027  2023-10-25 09:41:02.348962
2028  2023-10-25 09:41:02.380877
2029  2023-10-25 09:41:02.412979
2030  2023-10-25 09:41:02.460839
2031  2023-10-25 09:41:02.492787
2032  2023-10-25 09:41:02.524698
2033  2023-10-25 09:41:02.556615
2034  2023-10-25 09:41:02.588508
2035  2023-10-25 09:41:02.620432
2036  2023-10-25 09:41:02.652300
2037  2023-10-25 09:41:02.684216
2038  2023-10-25 09:41:02.716131
2039  2023-10-25 09:41:02.748079
2040  2023-10-25 09:41:02.780956
2041  2023-10-25 09:41:02.812905
2042  2023-10-25 09:41:02.860773
2043  2023-10-25 09:41:02.892659
2044  2023-10-25 09:41:02.924609
2045  2023-10-25 09:41:02.956518
2046  2023-10-25 09:41:02.988438
2047  2023-10-25 09:41:03.020447
2048  2023-10-25 09:41:03.052380
2049  2023-10-25 09:41:03.084299
2050  2023-10-25 09:41:03.116158
2051  2023-10-25 09:41:03.148122
2052  2023-10-25 09:41:03.180036
2053  2023-10-25 09:41:03.211953
2054  2023-10-25 09:41:03.259831
2055  2023-10-25 09:41:03.291745
2056  2023-10-25 09:41:03.324715
2057  2023-10-25 09:41:03.356603
2058  2023-10-25 09:41:03.388515
2059  2023-10-25 09:41:03.420403
2060  2023-10-25 09:41:03.452343
2061  2023-10-25 09:41:03.484267
2062  2023-10-25 09:41:03.516193
2063  2023-10-25 09:41:03.548061
2064  2023-10-25 09:41:03.579976
2065  2023-10-25 09:41:03.611929
2066  2023-10-25 09:41:03.659761
2067  2023-10-25 09:41:03.691902
2068  2023-10-25 09:41:03.723775
2069  2023-10-25 09:41:03.755690
2070  2023-10-25 09:41:03.788602
2071  2023-10-25 09:41:03.820516
2072  2023-10-25 09:41:03.852430
2073  2023-10-25 09:41:03.884394
2074  2023-10-25 09:41:03.916314
2075  2023-10-25 09:41:03.948205
2076  2023-10-25 09:41:03.980125
2077  2023-10-25 09:41:04.012037
2078  2023-10-25 09:41:04.059910
2079  2023-10-25 09:41:04.091826
2080  2023-10-25 09:41:04.123803
2081  2023-10-25 09:41:04.156721
2082  2023-10-25 09:41:04.189690
2083  2023-10-25 09:41:04.221581
2084  2023-10-25 09:41:04.253496
2085  2023-10-25 09:41:04.284373
2086  2023-10-25 09:41:04.316288
2087  2023-10-25 09:41:04.349243
2088  2023-10-25 09:41:04.381156
2089  2023-10-25 09:41:04.413074
2090  2023-10-25 09:41:04.460944
2091  2023-10-25 09:41:04.492816
2092  2023-10-25 09:41:04.523765
2093  2023-10-25 09:41:04.556645
2094  2023-10-25 09:41:04.589592
2095  2023-10-25 09:41:04.620508
2096  2023-10-25 09:41:04.653416
2097  2023-10-25 09:41:04.684305
2098  2023-10-25 09:41:04.716220
2099  2023-10-25 09:41:04.749171
2100  2023-10-25 09:41:04.781088
2101  2023-10-25 09:41:04.812992
2102  2023-10-25 09:41:04.860863
2103  2023-10-25 09:41:04.892782
2104  2023-10-25 09:41:04.924662
2105  2023-10-25 09:41:04.956633
2106  2023-10-25 09:41:04.988580
2107  2023-10-25 09:41:05.020528
2108  2023-10-25 09:41:05.052410
2109  2023-10-25 09:41:05.084375
2110  2023-10-25 09:41:05.116239
2111  2023-10-25 09:41:05.148185
2112  2023-10-25 09:41:05.180107
2113  2023-10-25 09:41:05.213016
2114  2023-10-25 09:41:05.260898
2115  2023-10-25 09:41:05.292806
2116  2023-10-25 09:41:05.324738
2117  2023-10-25 09:41:05.356596
2118  2023-10-25 09:41:05.388511
2119  2023-10-25 09:41:05.420475
2120  2023-10-25 09:41:05.452388
2121  2023-10-25 09:41:05.484303
2122  2023-10-25 09:41:05.516225
2123  2023-10-25 09:41:05.548085
2124  2023-10-25 09:41:05.580000
2125  2023-10-25 09:41:05.612968
2126  2023-10-25 09:41:05.660833
2127  2023-10-25 09:41:05.692785
2128  2023-10-25 09:41:05.724863
2129  2023-10-25 09:41:05.755734
2130  2023-10-25 09:41:05.787647
2131  2023-10-25 09:41:05.820608
2132  2023-10-25 09:41:05.852502
2133  2023-10-25 09:41:05.884437
2134  2023-10-25 09:41:05.916304
2135  2023-10-25 09:41:05.948275
2136  2023-10-25 09:41:05.980183
2137  2023-10-25 09:41:06.012090
2138  2023-10-25 09:41:06.059925
2139  2023-10-25 09:41:06.091836
2140  2023-10-25 09:41:06.124779
2141  2023-10-25 09:41:06.156661
2142  2023-10-25 09:41:06.187578
2143  2023-10-25 09:41:06.220545
2144  2023-10-25 09:41:06.252449
2145  2023-10-25 09:41:06.284368
2146  2023-10-25 09:41:06.316234
2147  2023-10-25 09:41:06.348198
2148  2023-10-25 09:41:06.380241
2149  2023-10-25 09:41:06.412152
2150  2023-10-25 09:41:06.460100
2151  2023-10-25 09:41:06.492050
2152  2023-10-25 09:41:06.523917
2153  2023-10-25 09:41:06.555847
2154  2023-10-25 09:41:06.587745
2155  2023-10-25 09:41:06.620623
2156  2023-10-25 09:41:06.652584
2157  2023-10-25 09:41:06.684478
2158  2023-10-25 09:41:06.716366
2159  2023-10-25 09:41:06.748312
2160  2023-10-25 09:41:06.780222
2161  2023-10-25 09:41:06.812163
2162  2023-10-25 09:41:06.860067
2163  2023-10-25 09:41:06.891931
2164  2023-10-25 09:41:06.923851
2165  2023-10-25 09:41:06.955726
2166  2023-10-25 09:41:06.987689
2167  2023-10-25 09:41:07.020608
2168  2023-10-25 09:41:07.052469
2169  2023-10-25 09:41:07.084383
2170  2023-10-25 09:41:07.116296
2171  2023-10-25 09:41:07.148211
2172  2023-10-25 09:41:07.180169
2173  2023-10-25 09:41:07.212084
2174  2023-10-25 09:41:07.259913
2175  2023-10-25 09:41:07.291827
2176  2023-10-25 09:41:07.323794
2177  2023-10-25 09:41:07.356654
2178  2023-10-25 09:41:07.387605
2179  2023-10-25 09:41:07.420484
2180  2023-10-25 09:41:07.452440
2181  2023-10-25 09:41:07.484363
2182  2023-10-25 09:41:07.516279
2183  2023-10-25 09:41:07.548172
2184  2023-10-25 09:41:07.580097
2185  2023-10-25 09:41:07.612027
2186  2023-10-25 09:41:07.659878
2187  2023-10-25 09:41:07.691789
2188  2023-10-25 09:41:07.723705
2189  2023-10-25 09:41:07.756640
2190  2023-10-25 09:41:07.788499
2191  2023-10-25 09:41:07.820446
2192  2023-10-25 09:41:07.852329
2193  2023-10-25 09:41:07.884274
2194  2023-10-25 09:41:07.916223
2195  2023-10-25 09:41:07.948073
2196  2023-10-25 09:41:07.980041
2197  2023-10-25 09:41:08.011942
2198  2023-10-25 09:41:08.059825
2199  2023-10-25 09:41:08.091690
2200  2023-10-25 09:41:08.124634
2201  2023-10-25 09:41:08.156546
2202  2023-10-25 09:41:08.188430
2203  2023-10-25 09:41:08.220392
2204  2023-10-25 09:41:08.252312
2205  2023-10-25 09:41:08.284236
2206  2023-10-25 09:41:08.316088
2207  2023-10-25 09:41:08.348051
2208  2023-10-25 09:41:08.380954
2209  2023-10-25 09:41:08.412863
2210  2023-10-25 09:41:08.460703
2211  2023-10-25 09:41:08.492683
2212  2023-10-25 09:41:08.523594
2213  2023-10-25 09:41:08.556491
2214  2023-10-25 09:41:08.588361
2215  2023-10-25 09:41:08.620316
2216  2023-10-25 09:41:08.652281
2217  2023-10-25 09:41:08.684319
2218  2023-10-25 09:41:08.716175
2219  2023-10-25 09:41:08.748090
2220  2023-10-25 09:41:08.780004
2221  2023-10-25 09:41:08.811953
2222  2023-10-25 09:41:08.859823
2223  2023-10-25 09:41:08.891705
2224  2023-10-25 09:41:08.923620
2225  2023-10-25 09:41:08.955586
2226  2023-10-25 09:41:08.988497
2227  2023-10-25 09:41:09.020361
2228  2023-10-25 09:41:09.052313
2229  2023-10-25 09:41:09.084224
2230  2023-10-25 09:41:09.116144
2231  2023-10-25 09:41:09.148049
2232  2023-10-25 09:41:09.179978
2233  2023-10-25 09:41:09.211897
2234  2023-10-25 09:41:09.259752
2235  2023-10-25 09:41:09.291683
2236  2023-10-25 09:41:09.324598
2237  2023-10-25 09:41:09.356493
2238  2023-10-25 09:41:09.388428
2239  2023-10-25 09:41:09.420322
2240  2023-10-25 09:41:09.452207
2241  2023-10-25 09:41:09.484152
2242  2023-10-25 09:41:09.516083
2243  2023-10-25 09:41:09.548008
2244  2023-10-25 09:41:09.579902
2245  2023-10-25 09:41:09.611806
2246  2023-10-25 09:41:09.659685
2247  2023-10-25 09:41:09.692618
2248  2023-10-25 09:41:09.724538
2249  2023-10-25 09:41:09.756428
2250  2023-10-25 09:41:09.788308
2251  2023-10-25 09:41:09.820223
2252  2023-10-25 09:41:09.852139
2253  2023-10-25 09:41:09.884091
2254  2023-10-25 09:41:09.916999
2255  2023-10-25 09:41:09.947881
2256  2023-10-25 09:41:09.979796
2257  2023-10-25 09:41:10.012745
2258  2023-10-25 09:41:10.060629
2259  2023-10-25 09:41:10.092495
2260  2023-10-25 09:41:10.124440
2261  2023-10-25 09:41:10.156361
2262  2023-10-25 09:41:10.188291
2263  2023-10-25 09:41:10.220153
2264  2023-10-25 09:41:10.252107
2265  2023-10-25 09:41:10.284058
2266  2023-10-25 09:41:10.316034
2267  2023-10-25 09:41:10.347988
2268  2023-10-25 09:41:10.379878
2269  2023-10-25 09:41:10.411790
2270  2023-10-25 09:41:10.459675
2271  2023-10-25 09:41:10.492581
2272  2023-10-25 09:41:10.524530
2273  2023-10-25 09:41:10.556423
2274  2023-10-25 09:41:10.588317
2275  2023-10-25 09:41:10.620252
2276  2023-10-25 09:41:10.652148
2277  2023-10-25 09:41:10.684081
2278  2023-10-25 09:41:10.716014
2279  2023-10-25 09:41:10.747898
2280  2023-10-25 09:41:10.779774
2281  2023-10-25 09:41:10.811731
2282  2023-10-25 09:41:10.860609
2283  2023-10-25 09:41:10.892503
2284  2023-10-25 09:41:10.924484
2285  2023-10-25 09:41:10.956486
2286  2023-10-25 09:41:10.988349
2287  2023-10-25 09:41:11.020292
2288  2023-10-25 09:41:11.052221
2289  2023-10-25 09:41:11.084119
2290  2023-10-25 09:41:11.116018
2291  2023-10-25 09:41:11.147923
2292  2023-10-25 09:41:11.179879
2293  2023-10-25 09:41:11.211783
2294  2023-10-25 09:41:11.259652
2295  2023-10-25 09:41:11.292592
2296  2023-10-25 09:41:11.324504
2297  2023-10-25 09:41:11.356418
2298  2023-10-25 09:41:11.388282
2299  2023-10-25 09:41:11.420195
2300  2023-10-25 09:41:11.452165
2301  2023-10-25 09:41:11.484062
2302  2023-10-25 09:41:11.516028
2303  2023-10-25 09:41:11.547946
2304  2023-10-25 09:41:11.579861
2305  2023-10-25 09:41:11.611812
2306  2023-10-25 09:41:11.660645
2307  2023-10-25 09:41:11.691637
2308  2023-10-25 09:41:11.724558
2309  2023-10-25 09:41:11.756468
2310  2023-10-25 09:41:11.788369
2311  2023-10-25 09:41:11.820300
2312  2023-10-25 09:41:11.852210
2313  2023-10-25 09:41:11.884135
2314  2023-10-25 09:41:11.916059
2315  2023-10-25 09:41:11.947938
2316  2023-10-25 09:41:11.979820
2317  2023-10-25 09:41:12.011770
2318  2023-10-25 09:41:12.059663
2319  2023-10-25 09:41:12.091757
2320  2023-10-25 09:41:12.123674
2321  2023-10-25 09:41:12.156594
2322  2023-10-25 09:41:12.188456
2323  2023-10-25 09:41:12.220409
2324  2023-10-25 09:41:12.252357
2325  2023-10-25 09:41:12.284249
2326  2023-10-25 09:41:12.316156
2327  2023-10-25 09:41:12.348059
2328  2023-10-25 09:41:12.380001
2329  2023-10-25 09:41:12.411889
2330  2023-10-25 09:41:12.459763
2331  2023-10-25 09:41:12.491675
2332  2023-10-25 09:41:12.524617
2333  2023-10-25 09:41:12.556514
2334  2023-10-25 09:41:12.588437
2335  2023-10-25 09:41:12.620301
2336  2023-10-25 09:41:12.652216
2337  2023-10-25 09:41:12.684180
2338  2023-10-25 09:41:12.716070
2339  2023-10-25 09:41:12.747994
2340  2023-10-25 09:41:12.779874
2341  2023-10-25 09:41:12.811789
2342  2023-10-25 09:41:12.859661
2343  2023-10-25 09:41:12.892639
2344  2023-10-25 09:41:12.924520
2345  2023-10-25 09:41:12.956453
2346  2023-10-25 09:41:12.988332
2347  2023-10-25 09:41:13.020362
2348  2023-10-25 09:41:13.052365
2349  2023-10-25 09:41:13.084259
2350  2023-10-25 09:41:13.116180
2351  2023-10-25 09:41:13.148109
2352  2023-10-25 09:41:13.180056
2353  2023-10-25 09:41:13.211921
2354  2023-10-25 09:41:13.259763
2355  2023-10-25 09:41:13.291709
2356  2023-10-25 09:41:13.323803
2357  2023-10-25 09:41:13.355720
2358  2023-10-25 09:41:13.387635
2359  2023-10-25 09:41:13.420531
2360  2023-10-25 09:41:13.452446
2361  2023-10-25 09:41:13.484381
2362  2023-10-25 09:41:13.516287
2363  2023-10-25 09:41:13.548189
2364  2023-10-25 09:41:13.580194
2365  2023-10-25 09:41:13.612131
2366  2023-10-25 09:41:13.660093
2367  2023-10-25 09:41:13.691949
2368  2023-10-25 09:41:13.723900
2369  2023-10-25 09:41:13.755820
2370  2023-10-25 09:41:13.787728
2371  2023-10-25 09:41:13.820606
2372  2023-10-25 09:41:13.852520
2373  2023-10-25 09:41:13.884501
2374  2023-10-25 09:41:13.916389
2375  2023-10-25 09:41:13.948300
2376  2023-10-25 09:41:13.980179
2377  2023-10-25 09:41:14.012093
2378  2023-10-25 09:41:14.059971
2379  2023-10-25 09:41:14.091936
2380  2023-10-25 09:41:14.123842
2381  2023-10-25 09:41:14.155757
2382  2023-10-25 09:41:14.188622
2383  2023-10-25 09:41:14.219570
2384  2023-10-25 09:41:14.252482
2385  2023-10-25 09:41:14.284399
2386  2023-10-25 09:41:14.316352
2387  2023-10-25 09:41:14.348246
2388  2023-10-25 09:41:14.380155
2389  2023-10-25 09:41:14.412057
2390  2023-10-25 09:41:14.459930
2391  2023-10-25 09:41:14.491842
2392  2023-10-25 09:41:14.523773
2393  2023-10-25 09:41:14.555687
2394  2023-10-25 09:41:14.588594
2395  2023-10-25 09:41:14.620515
2396  2023-10-25 09:41:14.652381
2397  2023-10-25 09:41:14.684330
2398  2023-10-25 09:41:14.716244
2399  2023-10-25 09:41:14.748174
2400  2023-10-25 09:41:14.780040
2401  2023-10-25 09:41:14.811955
2402  2023-10-25 09:41:14.859827
2403  2023-10-25 09:41:14.891775
2404  2023-10-25 09:41:14.923688
2405  2023-10-25 09:41:14.955618
2406  2023-10-25 09:41:14.988539
2407  2023-10-25 09:41:15.020397
2408  2023-10-25 09:41:15.052377
2409  2023-10-25 09:41:15.084277
2410  2023-10-25 09:41:15.116175
2411  2023-10-25 09:41:15.148106
2412  2023-10-25 09:41:15.180023
2413  2023-10-25 09:41:15.211885
2414  2023-10-25 09:41:15.260755
2415  2023-10-25 09:41:15.292670
2416  2023-10-25 09:41:15.324619
2417  2023-10-25 09:41:15.356549
2418  2023-10-25 09:41:15.388463
2419  2023-10-25 09:41:15.420328
2420  2023-10-25 09:41:15.452243
2421  2023-10-25 09:41:15.484191
2422  2023-10-25 09:41:15.516105
2423  2023-10-25 09:41:15.548026
2424  2023-10-25 09:41:15.580899
2425  2023-10-25 09:41:15.611847
2426  2023-10-25 09:41:15.660692
2427  2023-10-25 09:41:15.692600
2428  2023-10-25 09:41:15.724591
2429  2023-10-25 09:41:15.756464
2430  2023-10-25 09:41:15.788346
2431  2023-10-25 09:41:15.820259
2432  2023-10-25 09:41:15.852174
2433  2023-10-25 09:41:15.884093
2434  2023-10-25 09:41:15.916090
2435  2023-10-25 09:41:15.947969
2436  2023-10-25 09:41:15.979832
2437  2023-10-25 09:41:16.011747
2438  2023-10-25 09:41:16.060618
2439  2023-10-25 09:41:16.092533
2440  2023-10-25 09:41:16.124448
2441  2023-10-25 09:41:16.156390
2442  2023-10-25 09:41:16.188308
2443  2023-10-25 09:41:16.220191
2444  2023-10-25 09:41:16.252137
2445  2023-10-25 09:41:16.284052
2446  2023-10-25 09:41:16.315965
2447  2023-10-25 09:41:16.347883
2448  2023-10-25 09:41:16.379795
2449  2023-10-25 09:41:16.412676
2450  2023-10-25 09:41:16.460615
2451  2023-10-25 09:41:16.492463
2452  2023-10-25 09:41:16.524378
2453  2023-10-25 09:41:16.556323
2454  2023-10-25 09:41:16.588258
2455  2023-10-25 09:41:16.620173
2456  2023-10-25 09:41:16.652241
2457  2023-10-25 09:41:16.684155
2458  2023-10-25 09:41:16.716101
2459  2023-10-25 09:41:16.748020
2460  2023-10-25 09:41:16.779976
2461  2023-10-25 09:41:16.811814
2462  2023-10-25 09:41:16.859717
2463  2023-10-25 09:41:16.892603
2464  2023-10-25 09:41:16.924521
2465  2023-10-25 09:41:16.956468
2466  2023-10-25 09:41:16.988373
2467  2023-10-25 09:41:17.020317
2468  2023-10-25 09:41:17.052171
2469  2023-10-25 09:41:17.084086
2470  2023-10-25 09:41:17.116031
2471  2023-10-25 09:41:17.147948
2472  2023-10-25 09:41:17.179868
2473  2023-10-25 09:41:17.211782
2474  2023-10-25 09:41:17.259679
2475  2023-10-25 09:41:17.292558
2476  2023-10-25 09:41:17.324444
2477  2023-10-25 09:41:17.356408
2478  2023-10-25 09:41:17.388305
2479  2023-10-25 09:41:17.420261
2480  2023-10-25 09:41:17.452053
2481  2023-10-25 09:41:17.484019
2482  2023-10-25 09:41:17.515961
2483  2023-10-25 09:41:17.547898
2484  2023-10-25 09:41:17.579795
2485  2023-10-25 09:41:17.611677
2486  2023-10-25 09:41:17.659625
2487  2023-10-25 09:41:17.692461
2488  2023-10-25 09:41:17.724376
2489  2023-10-25 09:41:17.756326
2490  2023-10-25 09:41:17.788239
2491  2023-10-25 09:41:17.820161
2492  2023-10-25 09:41:17.852040
2493  2023-10-25 09:41:17.883994
2494  2023-10-25 09:41:17.916012
2495  2023-10-25 09:41:17.947901
2496  2023-10-25 09:41:17.979799
2497  2023-10-25 09:41:18.011833
2498  2023-10-25 09:41:18.059705
2499  2023-10-25 09:41:18.092571
2500  2023-10-25 09:41:18.124485
2501  2023-10-25 09:41:18.156431
2502  2023-10-25 09:41:18.188345
2503  2023-10-25 09:41:18.220260
2504  2023-10-25 09:41:18.252144
2505  2023-10-25 09:41:18.284196
2506  2023-10-25 09:41:18.316072
2507  2023-10-25 09:41:18.348068
2508  2023-10-25 09:41:18.380130
2509  2023-10-25 09:41:18.411990
2510  2023-10-25 09:41:18.459893
2511  2023-10-25 09:41:18.491777
2512  2023-10-25 09:41:18.523691
2513  2023-10-25 09:41:18.555659
2514  2023-10-25 09:41:18.588552
2515  2023-10-25 09:41:18.620483
2516  2023-10-25 09:41:18.652348
2517  2023-10-25 09:41:18.684262
2518  2023-10-25 09:41:18.716206
2519  2023-10-25 09:41:18.748126
2520  2023-10-25 09:41:18.780059
2521  2023-10-25 09:41:18.811921
2522  2023-10-25 09:41:18.859840
2523  2023-10-25 09:41:18.892705
2524  2023-10-25 09:41:18.924620
2525  2023-10-25 09:41:18.956587
2526  2023-10-25 09:41:18.988483
2527  2023-10-25 09:41:19.020399
2528  2023-10-25 09:41:19.052274
2529  2023-10-25 09:41:19.084323
2530  2023-10-25 09:41:19.116195
2531  2023-10-25 09:41:19.148111
2532  2023-10-25 09:41:19.180024
2533  2023-10-25 09:41:19.212969
2534  2023-10-25 09:41:19.259834
2535  2023-10-25 09:41:19.292748
2536  2023-10-25 09:41:19.324605
2537  2023-10-25 09:41:19.356520
2538  2023-10-25 09:41:19.388466
2539  2023-10-25 09:41:19.420380
2540  2023-10-25 09:41:19.452264
2541  2023-10-25 09:41:19.484178
2542  2023-10-25 09:41:19.516301
2543  2023-10-25 09:41:19.548214
2544  2023-10-25 09:41:19.580128
2545  2023-10-25 09:41:19.611996
2546  2023-10-25 09:41:19.659900
2547  2023-10-25 09:41:19.691783
2548  2023-10-25 09:41:19.724695
2549  2023-10-25 09:41:19.755637
2550  2023-10-25 09:41:19.788534
2551  2023-10-25 09:41:19.820487
2552  2023-10-25 09:41:19.852353
2553  2023-10-25 09:41:19.884268
2554  2023-10-25 09:41:19.916218
2555  2023-10-25 09:41:19.948130
2556  2023-10-25 09:41:19.980053
2557  2023-10-25 09:41:20.011927
2558  2023-10-25 09:41:20.059825
2559  2023-10-25 09:41:20.092711
2560  2023-10-25 09:41:20.124626
2561  2023-10-25 09:41:20.156540
2562  2023-10-25 09:41:20.188455
2563  2023-10-25 09:41:20.220370
2564  2023-10-25 09:41:20.253283
2565  2023-10-25 09:41:20.284199
2566  2023-10-25 09:41:20.316114
2567  2023-10-25 09:41:20.348028
2568  2023-10-25 09:41:20.380015
2569  2023-10-25 09:41:20.412857
2570  2023-10-25 09:41:20.459855
2571  2023-10-25 09:41:20.491794
2572  2023-10-25 09:41:20.523710
2573  2023-10-25 09:41:20.556622
2574  2023-10-25 09:41:20.588568
2575  2023-10-25 09:41:20.620482
2576  2023-10-25 09:41:20.652366
2577  2023-10-25 09:41:20.684281
2578  2023-10-25 09:41:20.716224
2579  2023-10-25 09:41:20.748144
2580  2023-10-25 09:41:20.780060
2581  2023-10-25 09:41:20.811968
2582  2023-10-25 09:41:20.859845
2583  2023-10-25 09:41:20.891726
2584  2023-10-25 09:41:20.924699
2585  2023-10-25 09:41:20.956590
2586  2023-10-25 09:41:20.988468
2587  2023-10-25 09:41:21.020484
2588  2023-10-25 09:41:21.052375
2589  2023-10-25 09:41:21.084295
2590  2023-10-25 09:41:21.116308
2591  2023-10-25 09:41:21.148223
2592  2023-10-25 09:41:21.180370
2593  2023-10-25 09:41:21.212319
2594  2023-10-25 09:41:21.260157
2595  2023-10-25 09:41:21.292072
2596  2023-10-25 09:41:21.324027
2597  2023-10-25 09:41:21.355942
2598  2023-10-25 09:41:21.387857
2599  2023-10-25 09:41:21.420770
2600  2023-10-25 09:41:21.452686
2601  2023-10-25 09:41:21.484598
2602  2023-10-25 09:41:21.516513
2603  2023-10-25 09:41:21.548428
2604  2023-10-25 09:41:21.580355
2605  2023-10-25 09:41:21.612257
2606  2023-10-25 09:41:21.660155
2607  2023-10-25 09:41:21.692044
2608  2023-10-25 09:41:21.723958
2609  2023-10-25 09:41:21.755906
2610  2023-10-25 09:41:21.788786
2611  2023-10-25 09:41:21.820699
2612  2023-10-25 09:41:21.851617
2613  2023-10-25 09:41:21.884567
2614  2023-10-25 09:41:21.916476
2615  2023-10-25 09:41:21.948457
2616  2023-10-25 09:41:21.980373
2617  2023-10-25 09:41:22.012318
2618  2023-10-25 09:41:22.060159
2619  2023-10-25 09:41:22.092106
2620  2023-10-25 09:41:22.123988
2621  2023-10-25 09:41:22.155903
2622  2023-10-25 09:41:22.187901
2623  2023-10-25 09:41:22.219848
2624  2023-10-25 09:41:22.252812
2625  2023-10-25 09:41:22.284727
2626  2023-10-25 09:41:22.316641
2627  2023-10-25 09:41:22.347647
2628  2023-10-25 09:41:22.380557
2629  2023-10-25 09:41:22.412534
2630  2023-10-25 09:41:22.460443
2631  2023-10-25 09:41:22.492414
2632  2023-10-25 09:41:22.524330
2633  2023-10-25 09:41:22.556302
2634  2023-10-25 09:41:22.588157
2635  2023-10-25 09:41:22.620072
2636  2023-10-25 09:41:22.651986
2637  2023-10-25 09:41:22.683901
2638  2023-10-25 09:41:22.715817
2639  2023-10-25 09:41:22.747843
2640  2023-10-25 09:41:22.779727
2641  2023-10-25 09:41:22.811641
2642  2023-10-25 09:41:22.860511
2643  2023-10-25 09:41:22.892425
2644  2023-10-25 09:41:22.924374
2645  2023-10-25 09:41:22.956290
2646  2023-10-25 09:41:22.988170
2647  2023-10-25 09:41:23.020084
2648  2023-10-25 09:41:23.052033
2649  2023-10-25 09:41:23.083915
2650  2023-10-25 09:41:23.115828
2651  2023-10-25 09:41:23.147814
2652  2023-10-25 09:41:23.180768
2653  2023-10-25 09:41:23.211693
2654  2023-10-25 09:41:23.260512
2655  2023-10-25 09:41:23.292427
2656  2023-10-25 09:41:23.324342
2657  2023-10-25 09:41:23.356439
2658  2023-10-25 09:41:23.388354
2659  2023-10-25 09:41:23.420268
2660  2023-10-25 09:41:23.452183
2661  2023-10-25 09:41:23.484098
2662  2023-10-25 09:41:23.516012
2663  2023-10-25 09:41:23.547927
2664  2023-10-25 09:41:23.580840
2665  2023-10-25 09:41:23.611758
2666  2023-10-25 09:41:23.660673
2667  2023-10-25 09:41:23.692540
2668  2023-10-25 09:41:23.724520
2669  2023-10-25 09:41:23.756370
2670  2023-10-25 09:41:23.788319
2671  2023-10-25 09:41:23.820199
2672  2023-10-25 09:41:23.852114
2673  2023-10-25 09:41:23.884062
2674  2023-10-25 09:41:23.915976
2675  2023-10-25 09:41:23.947858
2676  2023-10-25 09:41:23.979772
2677  2023-10-25 09:41:24.011687
2678  2023-10-25 09:41:24.060556
2679  2023-10-25 09:41:24.092504
2680  2023-10-25 09:41:24.124423
2681  2023-10-25 09:41:24.156301
2682  2023-10-25 09:41:24.188215
2683  2023-10-25 09:41:24.220164
2684  2023-10-25 09:41:24.252077
2685  2023-10-25 09:41:24.283966
2686  2023-10-25 09:41:24.315874
2687  2023-10-25 09:41:24.347788
2688  2023-10-25 09:41:24.379750
2689  2023-10-25 09:41:24.412615
2690  2023-10-25 09:41:24.460529
2691  2023-10-25 09:41:24.492402
2692  2023-10-25 09:41:24.524316
2693  2023-10-25 09:41:24.556231
2694  2023-10-25 09:41:24.588146
2695  2023-10-25 09:41:24.620060
2696  2023-10-25 09:41:24.651982
2697  2023-10-25 09:41:24.683890
2698  2023-10-25 09:41:24.715804
2699  2023-10-25 09:41:24.747719
2700  2023-10-25 09:41:24.779634
2701  2023-10-25 09:41:24.812546
2702  2023-10-25 09:41:24.860418
2703  2023-10-25 09:41:24.892476
2704  2023-10-25 09:41:24.924391
2705  2023-10-25 09:41:24.956306
2706  2023-10-25 09:41:24.988220
2707  2023-10-25 09:41:25.020135
2708  2023-10-25 09:41:25.052199
2709  2023-10-25 09:41:25.084060
2710  2023-10-25 09:41:25.116087
2711  2023-10-25 09:41:25.148001
2712  2023-10-25 09:41:25.180036
2713  2023-10-25 09:41:25.211961
2714  2023-10-25 09:41:25.259837
2715  2023-10-25 09:41:25.291746
2716  2023-10-25 09:41:25.323739
2717  2023-10-25 09:41:25.355654
2718  2023-10-25 09:41:25.388569
2719  2023-10-25 09:41:25.420548
2720  2023-10-25 09:41:25.452400
2721  2023-10-25 09:41:25.484310
2722  2023-10-25 09:41:25.516225
2723  2023-10-25 09:41:25.548170
2724  2023-10-25 09:41:25.580099
2725  2023-10-25 09:41:25.611969
2726  2023-10-25 09:41:25.659841
2727  2023-10-25 09:41:25.691755
2728  2023-10-25 09:41:25.724668
2729  2023-10-25 09:41:25.756633
2730  2023-10-25 09:41:25.788497
2731  2023-10-25 09:41:25.820411
2732  2023-10-25 09:41:25.852326
2733  2023-10-25 09:41:25.884266
2734  2023-10-25 09:41:25.916188
2735  2023-10-25 09:41:25.948070
2736  2023-10-25 09:41:25.979985
2737  2023-10-25 09:41:26.011932
2738  2023-10-25 09:41:26.059771
2739  2023-10-25 09:41:26.092684
2740  2023-10-25 09:41:26.124598
2741  2023-10-25 09:41:26.156513
2742  2023-10-25 09:41:26.188428
2743  2023-10-25 09:41:26.220342
2744  2023-10-25 09:41:26.252257
2745  2023-10-25 09:41:26.284199
2746  2023-10-25 09:41:26.316088
2747  2023-10-25 09:41:26.348002
2748  2023-10-25 09:41:26.379962
2749  2023-10-25 09:41:26.412830
2750  2023-10-25 09:41:26.459702
2751  2023-10-25 09:41:26.492653
2752  2023-10-25 09:41:26.524529
2753  2023-10-25 09:41:26.556444
2754  2023-10-25 09:41:26.588391
2755  2023-10-25 09:41:26.620273
2756  2023-10-25 09:41:26.652188
2757  2023-10-25 09:41:26.684102
2758  2023-10-25 09:41:26.716049
2759  2023-10-25 09:41:26.747932
2760  2023-10-25 09:41:26.779846
2761  2023-10-25 09:41:26.811761
2762  2023-10-25 09:41:26.859634
2763  2023-10-25 09:41:26.892545
2764  2023-10-25 09:41:26.924460
2765  2023-10-25 09:41:26.956374
2766  2023-10-25 09:41:26.988289
2767  2023-10-25 09:41:27.020204
2768  2023-10-25 09:41:27.052118
2769  2023-10-25 09:41:27.084033
2770  2023-10-25 09:41:27.115948
2771  2023-10-25 09:41:27.147862
2772  2023-10-25 09:41:27.180774
2773  2023-10-25 09:41:27.212691
2774  2023-10-25 09:41:27.260564
2775  2023-10-25 09:41:27.292516
2776  2023-10-25 09:41:27.324399
2777  2023-10-25 09:41:27.356305
2778  2023-10-25 09:41:27.388220
2779  2023-10-25 09:41:27.420137
2780  2023-10-25 09:41:27.452119
2781  2023-10-25 09:41:27.484121
2782  2023-10-25 09:41:27.516084
2783  2023-10-25 09:41:27.548027
2784  2023-10-25 09:41:27.579947
2785  2023-10-25 09:41:27.611828
2786  2023-10-25 09:41:27.659734
2787  2023-10-25 09:41:27.692613
2788  2023-10-25 09:41:27.724589
2789  2023-10-25 09:41:27.755627
2790  2023-10-25 09:41:27.788540
2791  2023-10-25 09:41:27.820407
2792  2023-10-25 09:41:27.852321
2793  2023-10-25 09:41:27.884271
2794  2023-10-25 09:41:27.916186
2795  2023-10-25 09:41:27.948067
2796  2023-10-25 09:41:27.981034
2797  2023-10-25 09:41:28.011927
2798  2023-10-25 09:41:28.059768
2799  2023-10-25 09:41:28.092710
2800  2023-10-25 09:41:28.123627
2801  2023-10-25 09:41:28.156509
2802  2023-10-25 09:41:28.188424
2803  2023-10-25 09:41:28.220369
2804  2023-10-25 09:41:28.252294
2805  2023-10-25 09:41:28.284168
2806  2023-10-25 09:41:28.316083
2807  2023-10-25 09:41:28.347998
2808  2023-10-25 09:41:28.379948
2809  2023-10-25 09:41:28.411827
2810  2023-10-25 09:41:28.459838
2811  2023-10-25 09:41:28.491753
2812  2023-10-25 09:41:28.524665
2813  2023-10-25 09:41:28.556177
2814  2023-10-25 09:41:28.588092
2815  2023-10-25 09:41:28.620007
2816  2023-10-25 09:41:28.651921
2817  2023-10-25 09:41:28.683839
2818  2023-10-25 09:41:28.715750
2819  2023-10-25 09:41:28.748663
2820  2023-10-25 09:41:28.779691
2821  2023-10-25 09:41:28.812604
2822  2023-10-25 09:41:28.860475
2823  2023-10-25 09:41:28.892390
2824  2023-10-25 09:41:28.924305
2825  2023-10-25 09:41:28.956220
2826  2023-10-25 09:41:28.988134
2827  2023-10-25 09:41:29.020049
2828  2023-10-25 09:41:29.051963
2829  2023-10-25 09:41:29.083878
2830  2023-10-25 09:41:29.115793
2831  2023-10-25 09:41:29.147708
2832  2023-10-25 09:41:29.179622
2833  2023-10-25 09:41:29.211600
2834  2023-10-25 09:41:29.260523
2835  2023-10-25 09:41:29.292527
2836  2023-10-25 09:41:29.324491
2837  2023-10-25 09:41:29.356406
2838  2023-10-25 09:41:29.388321
2839  2023-10-25 09:41:29.420268
2840  2023-10-25 09:41:29.452150
2841  2023-10-25 09:41:29.484065
2842  2023-10-25 09:41:29.515979
2843  2023-10-25 09:41:29.547925
2844  2023-10-25 09:41:29.579873
2845  2023-10-25 09:41:29.611723
2846  2023-10-25 09:41:29.660593
2847  2023-10-25 09:41:29.692507
2848  2023-10-25 09:41:29.724422
2849  2023-10-25 09:41:29.756337
2850  2023-10-25 09:41:29.788251
2851  2023-10-25 09:41:29.820166
2852  2023-10-25 09:41:29.852081
2853  2023-10-25 09:41:29.883995
2854  2023-10-25 09:41:29.915910
2855  2023-10-25 09:41:29.947825
2856  2023-10-25 09:41:29.980737
2857  2023-10-25 09:41:30.011686
2858  2023-10-25 09:41:30.060523
2859  2023-10-25 09:41:30.092438
2860  2023-10-25 09:41:30.124353
2861  2023-10-25 09:41:30.156267
2862  2023-10-25 09:41:30.188182
2863  2023-10-25 09:41:30.220097
2864  2023-10-25 09:41:30.252011
2865  2023-10-25 09:41:30.283926
2866  2023-10-25 09:41:30.315894
2867  2023-10-25 09:41:30.347809
2868  2023-10-25 09:41:30.380752
2869  2023-10-25 09:41:30.412636
2870  2023-10-25 09:41:30.460507
2871  2023-10-25 09:41:30.492422
2872  2023-10-25 09:41:30.524337
2873  2023-10-25 09:41:30.556375
2874  2023-10-25 09:41:30.588289
2875  2023-10-25 09:41:30.620238
2876  2023-10-25 09:41:30.652118
2877  2023-10-25 09:41:30.684033
2878  2023-10-25 09:41:30.715997
2879  2023-10-25 09:41:30.747928
2880  2023-10-25 09:41:30.779777
2881  2023-10-25 09:41:30.811692
2882  2023-10-25 09:41:30.860561
2883  2023-10-25 09:41:30.892476
2884  2023-10-25 09:41:30.924395
2885  2023-10-25 09:41:30.956339
2886  2023-10-25 09:41:30.988222
2887  2023-10-25 09:41:31.020134
2888  2023-10-25 09:41:31.052084
2889  2023-10-25 09:41:31.084011
2890  2023-10-25 09:41:31.115878
2891  2023-10-25 09:41:31.147793
2892  2023-10-25 09:41:31.179708
2893  2023-10-25 09:41:31.211623
2894  2023-10-25 09:41:31.260534
2895  2023-10-25 09:41:31.292406
2896  2023-10-25 09:41:31.324321
2897  2023-10-25 09:41:31.356236
2898  2023-10-25 09:41:31.388153
2899  2023-10-25 09:41:31.420065
2900  2023-10-25 09:41:31.451980
2901  2023-10-25 09:41:31.484892
2902  2023-10-25 09:41:31.515809
2903  2023-10-25 09:41:31.547724
2904  2023-10-25 09:41:31.579764
2905  2023-10-25 09:41:31.611803
2906  2023-10-25 09:41:31.660672
2907  2023-10-25 09:41:31.692587
2908  2023-10-25 09:41:31.724502
2909  2023-10-25 09:41:31.756416
2910  2023-10-25 09:41:31.788331
2911  2023-10-25 09:41:31.820246
2912  2023-10-25 09:41:31.852160
2913  2023-10-25 09:41:31.884075
2914  2023-10-25 09:41:31.916028
2915  2023-10-25 09:41:31.947965
2916  2023-10-25 09:41:31.979879
2917  2023-10-25 09:41:32.011794
2918  2023-10-25 09:41:32.060664
2919  2023-10-25 09:41:32.092578
2920  2023-10-25 09:41:32.124493
2921  2023-10-25 09:41:32.156407
2922  2023-10-25 09:41:32.189363
2923  2023-10-25 09:41:32.222262
2924  2023-10-25 09:41:32.252151
2925  2023-10-25 09:41:32.284066
2926  2023-10-25 09:41:32.318019
2927  2023-10-25 09:41:32.347895
2928  2023-10-25 09:41:32.379810
2929  2023-10-25 09:41:32.413751
2930  2023-10-25 09:41:32.459830
2931  2023-10-25 09:41:32.491746
2932  2023-10-25 09:41:32.523660
2933  2023-10-25 09:41:32.557603
2934  2023-10-25 09:41:32.589532
2935  2023-10-25 09:41:32.621431
2936  2023-10-25 09:41:32.653347
2937  2023-10-25 09:41:32.685262
2938  2023-10-25 09:41:32.717175
2939  2023-10-25 09:41:32.750106
2940  2023-10-25 09:41:32.781016
2941  2023-10-25 09:41:32.813885
2942  2023-10-25 09:41:32.861798
2943  2023-10-25 09:41:32.893713
2944  2023-10-25 09:41:32.925620
2945  2023-10-25 09:41:32.957543
2946  2023-10-25 09:41:32.989456
2947  2023-10-25 09:41:33.021369
2948  2023-10-25 09:41:33.053277
2949  2023-10-25 09:41:33.085202
2950  2023-10-25 09:41:33.117108
2951  2023-10-25 09:41:33.149029
2952  2023-10-25 09:41:33.180937
2953  2023-10-25 09:41:33.212860
2954  2023-10-25 09:41:33.260734
2955  2023-10-25 09:41:33.293639
2956  2023-10-25 09:41:33.325553
2957  2023-10-25 09:41:33.357467
2958  2023-10-25 09:41:33.389391
2959  2023-10-25 09:41:33.421306
2960  2023-10-25 09:41:33.453175
2961  2023-10-25 09:41:33.486130
2962  2023-10-25 09:41:33.517036
2963  2023-10-25 09:41:33.548970
2964  2023-10-25 09:41:33.580864
2965  2023-10-25 09:41:33.612710
2966  2023-10-25 09:41:33.661670
2967  2023-10-25 09:41:33.692605
2968  2023-10-25 09:41:33.724504
2969  2023-10-25 09:41:33.756416
2970  2023-10-25 09:41:33.788337
2971  2023-10-25 09:41:33.821261
2972  2023-10-25 09:41:33.853159
2973  2023-10-25 09:41:33.885073
2974  2023-10-25 09:41:33.916989
2975  2023-10-25 09:41:33.948980
2976  2023-10-25 09:41:33.980899
2977  2023-10-25 09:41:34.012810
2978  2023-10-25 09:41:34.060687
2979  2023-10-25 09:41:34.092597
2980  2023-10-25 09:41:34.124510
2981  2023-10-25 09:41:34.156425
2982  2023-10-25 09:41:34.188360
2983  2023-10-25 09:41:34.220254
2984  2023-10-25 09:41:34.252173
2985  2023-10-25 09:41:34.284108
2986  2023-10-25 09:41:34.315968
2987  2023-10-25 09:41:34.348912
2988  2023-10-25 09:41:34.380824
2989  2023-10-25 09:41:34.412739
2990  2023-10-25 09:41:34.460612
2991  2023-10-25 09:41:34.492527
2992  2023-10-25 09:41:34.524444
2993  2023-10-25 09:41:34.556360
2994  2023-10-25 09:41:34.588273
2995  2023-10-25 09:41:34.620185
2996  2023-10-25 09:41:34.652099
2997  2023-10-25 09:41:34.684016
2998  2023-10-25 09:41:34.715943
2999  2023-10-25 09:41:34.747876
3000  2023-10-25 09:41:34.780873
3001  2023-10-25 09:41:34.812776
3002  2023-10-25 09:41:34.860662
3003  2023-10-25 09:41:34.892591
3004  2023-10-25 09:41:34.924524
3005  2023-10-25 09:41:34.956425
3006  2023-10-25 09:41:34.988355
3007  2023-10-25 09:41:35.020253
3008  2023-10-25 09:41:35.052164
3009  2023-10-25 09:41:35.084097
3010  2023-10-25 09:41:35.116012
3011  2023-10-25 09:41:35.148077
3012  2023-10-25 09:41:35.179978
3013  2023-10-25 09:41:35.211894
3014  2023-10-25 09:41:35.259760
3015  2023-10-25 09:41:35.291677
3016  2023-10-25 09:41:35.324555
3017  2023-10-25 09:41:35.356470
3018  2023-10-25 09:41:35.388385
3019  2023-10-25 09:41:35.420340
3020  2023-10-25 09:41:35.454240
3021  2023-10-25 09:41:35.484165
3022  2023-10-25 09:41:35.516078
3023  2023-10-25 09:41:35.548007
3024  2023-10-25 09:41:35.579908
3025  2023-10-25 09:41:35.611825
3026  2023-10-25 09:41:35.661687
3027  2023-10-25 09:41:35.692573
3028  2023-10-25 09:41:35.724486
3029  2023-10-25 09:41:35.756426
3030  2023-10-25 09:41:35.788356
3031  2023-10-25 09:41:35.820230
3032  2023-10-25 09:41:35.854172
3033  2023-10-25 09:41:35.884091
3034  2023-10-25 09:41:35.916133
3035  2023-10-25 09:41:35.948072
3036  2023-10-25 09:41:35.979948
3037  2023-10-25 09:41:36.011859
3038  2023-10-25 09:41:36.061731
3039  2023-10-25 09:41:36.093639
3040  2023-10-25 09:41:36.125550
3041  2023-10-25 09:41:36.156441
3042  2023-10-25 09:41:36.188356
3043  2023-10-25 09:41:36.221300
3044  2023-10-25 09:41:36.253215
3045  2023-10-25 09:41:36.285097
3046  2023-10-25 09:41:36.316113
3047  2023-10-25 09:41:36.348046
3048  2023-10-25 09:41:36.381944
3049  2023-10-25 09:41:36.413827
3050  2023-10-25 09:41:36.461724
3051  2023-10-25 09:41:36.493644
3052  2023-10-25 09:41:36.525577
3053  2023-10-25 09:41:36.556444
3054  2023-10-25 09:41:36.588361
3055  2023-10-25 09:41:36.620276
3056  2023-10-25 09:41:36.653219
3057  2023-10-25 09:41:36.685135
3058  2023-10-25 09:41:36.716035
3059  2023-10-25 09:41:36.747978
3060  2023-10-25 09:41:36.780875
3061  2023-10-25 09:41:36.812814
3062  2023-10-25 09:41:36.861662
3063  2023-10-25 09:41:36.893599
3064  2023-10-25 09:41:36.925458
3065  2023-10-25 09:41:36.956375
3066  2023-10-25 09:41:36.988290
3067  2023-10-25 09:41:37.021202
3068  2023-10-25 09:41:37.053116
3069  2023-10-25 09:41:37.085041
3070  2023-10-25 09:41:37.115948
3071  2023-10-25 09:41:37.147863
3072  2023-10-25 09:41:37.180846
3073  2023-10-25 09:41:37.212764
3074  2023-10-25 09:41:37.260634
3075  2023-10-25 09:41:37.292705
3076  2023-10-25 09:41:37.324621
3077  2023-10-25 09:41:37.356501
3078  2023-10-25 09:41:37.388446
3079  2023-10-25 09:41:37.421375
3080  2023-10-25 09:41:37.453293
3081  2023-10-25 09:41:37.485201
3082  2023-10-25 09:41:37.516125
3083  2023-10-25 09:41:37.548037
3084  2023-10-25 09:41:37.580945
3085  2023-10-25 09:41:37.612816
3086  2023-10-25 09:41:37.660689
3087  2023-10-25 09:41:37.692632
3088  2023-10-25 09:41:37.724519
3089  2023-10-25 09:41:37.756462
3090  2023-10-25 09:41:37.788349
3091  2023-10-25 09:41:37.821260
3092  2023-10-25 09:41:37.853205
3093  2023-10-25 09:41:37.885134
3094  2023-10-25 09:41:37.916038
3095  2023-10-25 09:41:37.947970
3096  2023-10-25 09:41:37.980866
3097  2023-10-25 09:41:38.012778
3098  2023-10-25 09:41:38.060649
3099  2023-10-25 09:41:38.092541
3100  2023-10-25 09:41:38.124509
3101  2023-10-25 09:41:38.156363
3102  2023-10-25 09:41:38.188309
3103  2023-10-25 09:41:38.220226
3104  2023-10-25 09:41:38.252134
3105  2023-10-25 09:41:38.284084
3106  2023-10-25 09:41:38.315976
3107  2023-10-25 09:41:38.347885
3108  2023-10-25 09:41:38.380813
3109  2023-10-25 09:41:38.412708
3110  2023-10-25 09:41:38.460604
3111  2023-10-25 09:41:38.492526
3112  2023-10-25 09:41:38.524430
3113  2023-10-25 09:41:38.556293
3114  2023-10-25 09:41:38.588238
3115  2023-10-25 09:41:38.620158
3116  2023-10-25 09:41:38.652083
3117  2023-10-25 09:41:38.684023
3118  2023-10-25 09:41:38.715896
3119  2023-10-25 09:41:38.747820
3120  2023-10-25 09:41:38.780724
3121  2023-10-25 09:41:38.812636
3122  2023-10-25 09:41:38.860518
3123  2023-10-25 09:41:38.892429
3124  2023-10-25 09:41:38.924354
3125  2023-10-25 09:41:38.956224
3126  2023-10-25 09:41:38.988139
3127  2023-10-25 09:41:39.020097
3128  2023-10-25 09:41:39.052017
3129  2023-10-25 09:41:39.083914
3130  2023-10-25 09:41:39.115831
3131  2023-10-25 09:41:39.147743
3132  2023-10-25 09:41:39.179652
3133  2023-10-25 09:41:39.212569
3134  2023-10-25 09:41:39.260443
3135  2023-10-25 09:41:39.292365
3136  2023-10-25 09:41:39.324292
3137  2023-10-25 09:41:39.356207
3138  2023-10-25 09:41:39.388122
3139  2023-10-25 09:41:39.420018
3140  2023-10-25 09:41:39.451933
3141  2023-10-25 09:41:39.483851
3142  2023-10-25 09:41:39.515760
3143  2023-10-25 09:41:39.548679
3144  2023-10-25 09:41:39.580590
3145  2023-10-25 09:41:39.612471
3146  2023-10-25 09:41:39.660371
3147  2023-10-25 09:41:39.692307
3148  2023-10-25 09:41:39.724215
3149  2023-10-25 09:41:39.756118
3150  2023-10-25 09:41:39.788038
3151  2023-10-25 09:41:39.819915
3152  2023-10-25 09:41:39.851832
3153  2023-10-25 09:41:39.884784
3154  2023-10-25 09:41:39.916687
3155  2023-10-25 09:41:39.947608
3156  2023-10-25 09:41:39.980572
3157  2023-10-25 09:41:40.012432
3158  2023-10-25 09:41:40.060273
3159  2023-10-25 09:41:40.092241
3160  2023-10-25 09:41:40.124145
3161  2023-10-25 09:41:40.156017
3162  2023-10-25 09:41:40.187932
3163  2023-10-25 09:41:40.219882
3164  2023-10-25 09:41:40.251790
3165  2023-10-25 09:41:40.283712
3166  2023-10-25 09:41:40.315620
3167  2023-10-25 09:41:40.348551
3168  2023-10-25 09:41:40.380451
3169  2023-10-25 09:41:40.412365
3170  2023-10-25 09:41:40.460204
3171  2023-10-25 09:41:40.492181
3172  2023-10-25 09:41:40.524033
3173  2023-10-25 09:41:40.555979
3174  2023-10-25 09:41:40.587900
3175  2023-10-25 09:41:40.619777
3176  2023-10-25 09:41:40.652724
3177  2023-10-25 09:41:40.683632
3178  2023-10-25 09:41:40.716557
3179  2023-10-25 09:41:40.748467
3180  2023-10-25 09:41:40.780381
3181  2023-10-25 09:41:40.812263
3182  2023-10-25 09:41:40.860135
3183  2023-10-25 09:41:40.892103
3184  2023-10-25 09:41:40.923964
3185  2023-10-25 09:41:40.956914
3186  2023-10-25 09:41:40.987793
3187  2023-10-25 09:41:41.019708
3188  2023-10-25 09:41:41.051671
3189  2023-10-25 09:41:41.084579
3190  2023-10-25 09:41:41.116608
3191  2023-10-25 09:41:41.148516
3192  2023-10-25 09:41:41.180432
3193  2023-10-25 09:41:41.212337
3194  2023-10-25 09:41:41.260169
3195  2023-10-25 09:41:41.292084
3196  2023-10-25 09:41:41.324034
3197  2023-10-25 09:41:41.355967
3198  2023-10-25 09:41:41.387956
3199  2023-10-25 09:41:41.419959
3200  2023-10-25 09:41:41.451852
3201  2023-10-25 09:41:41.483768
3202  2023-10-25 09:41:41.515651
3203  2023-10-25 09:41:41.548631
3204  2023-10-25 09:41:41.580512
3205  2023-10-25 09:41:41.612424
3206  2023-10-25 09:41:41.660263
3207  2023-10-25 09:41:41.692214
3208  2023-10-25 09:41:41.724123
3209  2023-10-25 09:41:41.756089
3210  2023-10-25 09:41:41.787922
3211  2023-10-25 09:41:41.819919
3212  2023-10-25 09:41:41.851786
3213  2023-10-25 09:41:41.883696
3214  2023-10-25 09:41:41.916611
3215  2023-10-25 09:41:41.948541
3216  2023-10-25 09:41:41.980461
3217  2023-10-25 09:41:42.012395
3218  2023-10-25 09:41:42.060194
3219  2023-10-25 09:41:42.092163
3220  2023-10-25 09:41:42.124052
3221  2023-10-25 09:41:42.155967
3222  2023-10-25 09:41:42.188041
3223  2023-10-25 09:41:42.219908
3224  2023-10-25 09:41:42.251795
3225  2023-10-25 09:41:42.283806
3226  2023-10-25 09:41:42.316723
3227  2023-10-25 09:41:42.347637
3228  2023-10-25 09:41:42.380553
3229  2023-10-25 09:41:42.412465
3230  2023-10-25 09:41:42.460304
3231  2023-10-25 09:41:42.493218
3232  2023-10-25 09:41:42.524135
3233  2023-10-25 09:41:42.556134
3234  2023-10-25 09:41:42.587964
3235  2023-10-25 09:41:42.620900
3236  2023-10-25 09:41:42.651842
3237  2023-10-25 09:41:42.683744
3238  2023-10-25 09:41:42.716619
3239  2023-10-25 09:41:42.748533
3240  2023-10-25 09:41:42.780473
3241  2023-10-25 09:41:42.812363
3242  2023-10-25 09:41:42.860271
3243  2023-10-25 09:41:42.892243
3244  2023-10-25 09:41:42.924126
3245  2023-10-25 09:41:42.956041
3246  2023-10-25 09:41:42.988010
3247  2023-10-25 09:41:43.019976
3248  2023-10-25 09:41:43.051880
3249  2023-10-25 09:41:43.084768
3250  2023-10-25 09:41:43.115715
3251  2023-10-25 09:41:43.147630
3252  2023-10-25 09:41:43.180536
3253  2023-10-25 09:41:43.212454
3254  2023-10-25 09:41:43.260297
3255  2023-10-25 09:41:43.292212
3256  2023-10-25 09:41:43.324158
3257  2023-10-25 09:41:43.356092
3258  2023-10-25 09:41:43.387992
3259  2023-10-25 09:41:43.419927
3260  2023-10-25 09:41:43.451810
3261  2023-10-25 09:41:43.483735
3262  2023-10-25 09:41:43.516641
3263  2023-10-25 09:41:43.548532
3264  2023-10-25 09:41:43.580491
3265  2023-10-25 09:41:43.612387
3266  2023-10-25 09:41:43.660296
3267  2023-10-25 09:41:43.692142
3268  2023-10-25 09:41:43.724173
3269  2023-10-25 09:41:43.756048
3270  2023-10-25 09:41:43.787978
3271  2023-10-25 09:41:43.819908
3272  2023-10-25 09:41:43.851785
3273  2023-10-25 09:41:43.884696
3274  2023-10-25 09:41:43.916613
3275  2023-10-25 09:41:43.948590
3276  2023-10-25 09:41:43.980480
3277  2023-10-25 09:41:44.012383
3278  2023-10-25 09:41:44.060274
3279  2023-10-25 09:41:44.092186
3280  2023-10-25 09:41:44.124103
3281  2023-10-25 09:41:44.156019
3282  2023-10-25 09:41:44.187962
3283  2023-10-25 09:41:44.219843
3284  2023-10-25 09:41:44.251744
3285  2023-10-25 09:41:44.284655
3286  2023-10-25 09:41:44.316589
3287  2023-10-25 09:41:44.348500
3288  2023-10-25 09:41:44.380399
3289  2023-10-25 09:41:44.412314
3290  2023-10-25 09:41:44.460187
3291  2023-10-25 09:41:44.492069
3292  2023-10-25 09:41:44.524018
3293  2023-10-25 09:41:44.555968
3294  2023-10-25 09:41:44.587844
3295  2023-10-25 09:41:44.619752
3296  2023-10-25 09:41:44.651677
3297  2023-10-25 09:41:44.684625
3298  2023-10-25 09:41:44.716524
3299  2023-10-25 09:41:44.748431
3300  2023-10-25 09:41:44.780346
3301  2023-10-25 09:41:44.812251
3302  2023-10-25 09:41:44.860120
3303  2023-10-25 09:41:44.892008
3304  2023-10-25 09:41:44.924914
3305  2023-10-25 09:41:44.956828
3306  2023-10-25 09:41:44.987745
3307  2023-10-25 09:41:45.020658
3308  2023-10-25 09:41:45.052572
3309  2023-10-25 09:41:45.084491
3310  2023-10-25 09:41:45.116448
3311  2023-10-25 09:41:45.148347
3312  2023-10-25 09:41:45.180255
3313  2023-10-25 09:41:45.212146
3314  2023-10-25 09:41:45.260016
3315  2023-10-25 09:41:45.291980
3316  2023-10-25 09:41:45.323882
3317  2023-10-25 09:41:45.355791
3318  2023-10-25 09:41:45.387706
3319  2023-10-25 09:41:45.420631
3320  2023-10-25 09:41:45.452534
3321  2023-10-25 09:41:45.484428
3322  2023-10-25 09:41:45.516357
3323  2023-10-25 09:41:45.548279
3324  2023-10-25 09:41:45.580192
3325  2023-10-25 09:41:45.612207
3326  2023-10-25 09:41:45.660046
3327  2023-10-25 09:41:45.691961
3328  2023-10-25 09:41:45.723904
3329  2023-10-25 09:41:45.755823
3330  2023-10-25 09:41:45.787739
3331  2023-10-25 09:41:45.819653
3332  2023-10-25 09:41:45.852602
3333  2023-10-25 09:41:45.884480
3334  2023-10-25 09:41:45.916412
3335  2023-10-25 09:41:45.948300
3336  2023-10-25 09:41:45.980252
3337  2023-10-25 09:41:46.012138
3338  2023-10-25 09:41:46.060038
3339  2023-10-25 09:41:46.092005
3340  2023-10-25 09:41:46.123904
3341  2023-10-25 09:41:46.155813
3342  2023-10-25 09:41:46.187748
3343  2023-10-25 09:41:46.219717
3344  2023-10-25 09:41:46.252571
3345  2023-10-25 09:41:46.284488
3346  2023-10-25 09:41:46.316588
3347  2023-10-25 09:41:46.348469
3348  2023-10-25 09:41:46.380393
3349  2023-10-25 09:41:46.412291
3350  2023-10-25 09:41:46.460124
3351  2023-10-25 09:41:46.492037
3352  2023-10-25 09:41:46.524020
3353  2023-10-25 09:41:46.555891
3354  2023-10-25 09:41:46.587827
3355  2023-10-25 09:41:46.619744
3356  2023-10-25 09:41:46.652649
3357  2023-10-25 09:41:46.684569
3358  2023-10-25 09:41:46.716443
3359  2023-10-25 09:41:46.748403
3360  2023-10-25 09:41:46.780301
3361  2023-10-25 09:41:46.812224
3362  2023-10-25 09:41:46.860053
3363  2023-10-25 09:41:46.892011
3364  2023-10-25 09:41:46.923907
3365  2023-10-25 09:41:46.955833
3366  2023-10-25 09:41:46.987743
3367  2023-10-25 09:41:47.020626
3368  2023-10-25 09:41:47.051588
3369  2023-10-25 09:41:47.084455
3370  2023-10-25 09:41:47.116392
3371  2023-10-25 09:41:47.148335
3372  2023-10-25 09:41:47.180236
3373  2023-10-25 09:41:47.212149
3374  2023-10-25 09:41:47.260023
3375  2023-10-25 09:41:47.291931
3376  2023-10-25 09:41:47.323813
3377  2023-10-25 09:41:47.355783
3378  2023-10-25 09:41:47.387672
3379  2023-10-25 09:41:47.419588
3380  2023-10-25 09:41:47.452541
3381  2023-10-25 09:41:47.484427
3382  2023-10-25 09:41:47.516343
3383  2023-10-25 09:41:47.548245
3384  2023-10-25 09:41:47.580164
3385  2023-10-25 09:41:47.612077
3386  2023-10-25 09:41:47.659954
3387  2023-10-25 09:41:47.691896
3388  2023-10-25 09:41:47.723779
3389  2023-10-25 09:41:47.755693
3390  2023-10-25 09:41:47.788604
3391  2023-10-25 09:41:47.820519
3392  2023-10-25 09:41:47.852435
3393  2023-10-25 09:41:47.884314
3394  2023-10-25 09:41:47.916256
3395  2023-10-25 09:41:47.948178
3396  2023-10-25 09:41:47.980092
3397  2023-10-25 09:41:48.012016
3398  2023-10-25 09:41:48.059876
3399  2023-10-25 09:41:48.091787
3400  2023-10-25 09:41:48.123711
3401  2023-10-25 09:41:48.156620
3402  2023-10-25 09:41:48.188532
3403  2023-10-25 09:41:48.220451
3404  2023-10-25 09:41:48.252356
3405  2023-10-25 09:41:48.284272
3406  2023-10-25 09:41:48.316201
3407  2023-10-25 09:41:48.348121
3408  2023-10-25 09:41:48.380042
3409  2023-10-25 09:41:48.411957
3410  2023-10-25 09:41:48.459822
3411  2023-10-25 09:41:48.491690
3412  2023-10-25 09:41:48.524603
3413  2023-10-25 09:41:48.556561
3414  2023-10-25 09:41:48.588478
3415  2023-10-25 09:41:48.620348
3416  2023-10-25 09:41:48.652263
3417  2023-10-25 09:41:48.684176
3418  2023-10-25 09:41:48.716131
3419  2023-10-25 09:41:48.748034
3420  2023-10-25 09:41:48.779971
3421  2023-10-25 09:41:48.811880
3422  2023-10-25 09:41:48.859740
3423  2023-10-25 09:41:48.891655
3424  2023-10-25 09:41:48.924533
3425  2023-10-25 09:41:48.956480
3426  2023-10-25 09:41:48.988393
3427  2023-10-25 09:41:49.020309
3428  2023-10-25 09:41:49.052192
3429  2023-10-25 09:41:49.084107
3430  2023-10-25 09:41:49.116055
3431  2023-10-25 09:41:49.147963
3432  2023-10-25 09:41:49.180850
3433  2023-10-25 09:41:49.212763
3434  2023-10-25 09:41:49.259667
3435  2023-10-25 09:41:49.292549
3436  2023-10-25 09:41:49.324464
3437  2023-10-25 09:41:49.356419
3438  2023-10-25 09:41:49.388328
3439  2023-10-25 09:41:49.420210
3440  2023-10-25 09:41:49.452127
3441  2023-10-25 09:41:49.484037
3442  2023-10-25 09:41:49.515998
3443  2023-10-25 09:41:49.547902
3444  2023-10-25 09:41:49.579815
3445  2023-10-25 09:41:49.611696
3446  2023-10-25 09:41:49.659606
3447  2023-10-25 09:41:49.692480
3448  2023-10-25 09:41:49.724396
3449  2023-10-25 09:41:49.756311
3450  2023-10-25 09:41:49.788256
3451  2023-10-25 09:41:49.820176
3452  2023-10-25 09:41:49.852053
3453  2023-10-25 09:41:49.884018
3454  2023-10-25 09:41:49.915936
3455  2023-10-25 09:41:49.947835
3456  2023-10-25 09:41:49.979780
3457  2023-10-25 09:41:50.011673
3458  2023-10-25 09:41:50.060531
3459  2023-10-25 09:41:50.092411
3460  2023-10-25 09:41:50.124325
3461  2023-10-25 09:41:50.156282
3462  2023-10-25 09:41:50.188187
3463  2023-10-25 09:41:50.220127
3464  2023-10-25 09:41:50.252018
3465  2023-10-25 09:41:50.283899
3466  2023-10-25 09:41:50.315857
3467  2023-10-25 09:41:50.347781
3468  2023-10-25 09:41:50.379684
3469  2023-10-25 09:41:50.412555
3470  2023-10-25 09:41:50.460471
3471  2023-10-25 09:41:50.492341
3472  2023-10-25 09:41:50.524256
3473  2023-10-25 09:41:50.556218
3474  2023-10-25 09:41:50.588121
3475  2023-10-25 09:41:50.620042
3476  2023-10-25 09:41:50.651915
3477  2023-10-25 09:41:50.683829
3478  2023-10-25 09:41:50.715790
3479  2023-10-25 09:41:50.747699
3480  2023-10-25 09:41:50.780614
3481  2023-10-25 09:41:50.812597
3482  2023-10-25 09:41:50.860392
3483  2023-10-25 09:41:50.892272
3484  2023-10-25 09:41:50.924187
3485  2023-10-25 09:41:50.957099
3486  2023-10-25 09:41:50.988044
3487  2023-10-25 09:41:51.019958
3488  2023-10-25 09:41:51.051845
3489  2023-10-25 09:41:51.083796
3490  2023-10-25 09:41:51.115718
3491  2023-10-25 09:41:51.147636
3492  2023-10-25 09:41:51.180562
3493  2023-10-25 09:41:51.212442
3494  2023-10-25 09:41:51.260317
3495  2023-10-25 09:41:51.292254
3496  2023-10-25 09:41:51.324131
3497  2023-10-25 09:41:51.356032
3498  2023-10-25 09:41:51.387992
3499  2023-10-25 09:41:51.419863
3500  2023-10-25 09:41:51.451808
3501  2023-10-25 09:41:51.483691
3502  2023-10-25 09:41:51.515605
3503  2023-10-25 09:41:51.548560
3504  2023-10-25 09:41:51.580466
3505  2023-10-25 09:41:51.612399
3506  2023-10-25 09:41:51.661218
3507  2023-10-25 09:41:51.692169
3508  2023-10-25 09:41:51.724048
3509  2023-10-25 09:41:51.755963
3510  2023-10-25 09:41:51.788896
3511  2023-10-25 09:41:51.819960
3512  2023-10-25 09:41:51.851747
3513  2023-10-25 09:41:51.884619
3514  2023-10-25 09:41:51.916534
3515  2023-10-25 09:41:51.948449
3516  2023-10-25 09:41:51.980408
3517  2023-10-25 09:41:52.012328
3518  2023-10-25 09:41:52.060300
3519  2023-10-25 09:41:52.092206
3520  2023-10-25 09:41:52.124155
3521  2023-10-25 09:41:52.156070
3522  2023-10-25 09:41:52.188011
3523  2023-10-25 09:41:52.219935
3524  2023-10-25 09:41:52.251848
3525  2023-10-25 09:41:52.284726
3526  2023-10-25 09:41:52.316640
3527  2023-10-25 09:41:52.348555
3528  2023-10-25 09:41:52.380535
3529  2023-10-25 09:41:52.412413
3530  2023-10-25 09:41:52.460288
3531  2023-10-25 09:41:52.492171
3532  2023-10-25 09:41:52.524086
3533  2023-10-25 09:41:52.556000
3534  2023-10-25 09:41:52.587951
3535  2023-10-25 09:41:52.619864
3536  2023-10-25 09:41:52.651780
3537  2023-10-25 09:41:52.683659
3538  2023-10-25 09:41:52.715609
3539  2023-10-25 09:41:52.748523
3540  2023-10-25 09:41:52.780400
3541  2023-10-25 09:41:52.812344
3542  2023-10-25 09:41:52.860187
3543  2023-10-25 09:41:52.892102
3544  2023-10-25 09:41:52.924048
3545  2023-10-25 09:41:52.955965
3546  2023-10-25 09:41:52.987891
3547  2023-10-25 09:41:53.019760
3548  2023-10-25 09:41:53.051721
3549  2023-10-25 09:41:53.083629
3550  2023-10-25 09:41:53.116506
3551  2023-10-25 09:41:53.147625
3552  2023-10-25 09:41:53.180595
3553  2023-10-25 09:41:53.212488
3554  2023-10-25 09:41:53.260384
3555  2023-10-25 09:41:53.292286
3556  2023-10-25 09:41:53.324155
3557  2023-10-25 09:41:53.356071
3558  2023-10-25 09:41:53.387985
3559  2023-10-25 09:41:53.419900
3560  2023-10-25 09:41:53.452815
3561  2023-10-25 09:41:53.483728
