
1  2023-10-30 11:29:24.788048
2  2023-10-30 11:29:24.835949
3  2023-10-30 11:29:24.867864
4  2023-10-30 11:29:24.913746
5  2023-10-30 11:29:24.961617
6  2023-10-30 11:29:24.992534
7  2023-10-30 11:29:25.038901
8  2023-10-30 11:29:25.086804
9  2023-10-30 11:29:25.118740
10  2023-10-30 11:29:25.166636
11  2023-10-30 11:29:25.198595
12  2023-10-30 11:29:25.244528
13  2023-10-30 11:29:25.292349
14  2023-10-30 11:29:25.324303
15  2023-10-30 11:29:25.372179
16  2023-10-30 11:29:25.420009
17  2023-10-30 11:29:25.451923
18  2023-10-30 11:29:25.499842
19  2023-10-30 11:29:25.531757
20  2023-10-30 11:29:25.579629
21  2023-10-30 11:29:25.627501
22  2023-10-30 11:29:25.658722
23  2023-10-30 11:29:25.705608
24  2023-10-30 11:29:25.752944
25  2023-10-30 11:29:25.784907
26  2023-10-30 11:29:25.831777
27  2023-10-30 11:29:25.878652
28  2023-10-30 11:29:25.911609
29  2023-10-30 11:29:25.958438
30  2023-10-30 11:29:26.004315
31  2023-10-30 11:29:26.036230
32  2023-10-30 11:29:26.083874
33  2023-10-30 11:29:26.129881
34  2023-10-30 11:29:26.161720
35  2023-10-30 11:29:26.209593
36  2023-10-30 11:29:26.241515
37  2023-10-30 11:29:26.288381
38  2023-10-30 11:29:26.335300
39  2023-10-30 11:29:26.367231
40  2023-10-30 11:29:26.414057
41  2023-10-30 11:29:26.461960
42  2023-10-30 11:29:26.493880
43  2023-10-30 11:29:26.541830
44  2023-10-30 11:29:26.573757
45  2023-10-30 11:29:26.621576
46  2023-10-30 11:29:26.669448
47  2023-10-30 11:29:26.701363
48  2023-10-30 11:29:26.749235
49  2023-10-30 11:29:26.797107
50  2023-10-30 11:29:26.829021
51  2023-10-30 11:29:26.876894
52  2023-10-30 11:29:26.908809
53  2023-10-30 11:29:26.956715
54  2023-10-30 11:29:27.004606
55  2023-10-30 11:29:27.036518
56  2023-10-30 11:29:27.084387
57  2023-10-30 11:29:27.116301
58  2023-10-30 11:29:27.164305
59  2023-10-30 11:29:27.212046
60  2023-10-30 11:29:27.243912
61  2023-10-30 11:29:27.291844
62  2023-10-30 11:29:27.323744
63  2023-10-30 11:29:27.369577
64  2023-10-30 11:29:27.417576
65  2023-10-30 11:29:27.449476
66  2023-10-30 11:29:27.497314
67  2023-10-30 11:29:27.545186
68  2023-10-30 11:29:27.577102
69  2023-10-30 11:29:27.624449
70  2023-10-30 11:29:27.671329
71  2023-10-30 11:29:27.701277
72  2023-10-30 11:29:27.748122
73  2023-10-30 11:29:27.796022
74  2023-10-30 11:29:27.827946
75  2023-10-30 11:29:27.875807
76  2023-10-30 11:29:27.921653
77  2023-10-30 11:29:27.952604
78  2023-10-30 11:29:27.998693
79  2023-10-30 11:29:28.046608
80  2023-10-30 11:29:28.078528
81  2023-10-30 11:29:28.126388
82  2023-10-30 11:29:28.158355
83  2023-10-30 11:29:28.206227
84  2023-10-30 11:29:28.254194
85  2023-10-30 11:29:28.286111
86  2023-10-30 11:29:28.333937
87  2023-10-30 11:29:28.365852
88  2023-10-30 11:29:28.413810
89  2023-10-30 11:29:28.461678
90  2023-10-30 11:29:28.492566
91  2023-10-30 11:29:28.538480
92  2023-10-30 11:29:28.585318
93  2023-10-30 11:29:28.617266
94  2023-10-30 11:29:28.664834
95  2023-10-30 11:29:28.712799
96  2023-10-30 11:29:28.744679
97  2023-10-30 11:29:28.792583
98  2023-10-30 11:29:28.824503
99  2023-10-30 11:29:28.871341
100  2023-10-30 11:29:28.919213
101  2023-10-30 11:29:28.951127
102  2023-10-30 11:29:28.998998
103  2023-10-30 11:29:29.046871
104  2023-10-30 11:29:29.078784
105  2023-10-30 11:29:29.126689
106  2023-10-30 11:29:29.158604
107  2023-10-30 11:29:29.206476
108  2023-10-30 11:29:29.255314
109  2023-10-30 11:29:29.285968
110  2023-10-30 11:29:29.333813
111  2023-10-30 11:29:29.379722
112  2023-10-30 11:29:29.411647
113  2023-10-30 11:29:29.459520
114  2023-10-30 11:29:29.491437
115  2023-10-30 11:29:29.539277
116  2023-10-30 11:29:29.587182
117  2023-10-30 11:29:29.619075
118  2023-10-30 11:29:29.666965
119  2023-10-30 11:29:29.698879
120  2023-10-30 11:29:29.746762
121  2023-10-30 11:29:29.794624
122  2023-10-30 11:29:29.826545
123  2023-10-30 11:29:29.874412
124  2023-10-30 11:29:29.921263
125  2023-10-30 11:29:29.952205
126  2023-10-30 11:29:30.000074
127  2023-10-30 11:29:30.045920
128  2023-10-30 11:29:30.077870
129  2023-10-30 11:29:30.125716
130  2023-10-30 11:29:30.157600
131  2023-10-30 11:29:30.205503
132  2023-10-30 11:29:30.252493
133  2023-10-30 11:29:30.284372
134  2023-10-30 11:29:30.331296
135  2023-10-30 11:29:30.378220
136  2023-10-30 11:29:30.410124
137  2023-10-30 11:29:30.458010
138  2023-10-30 11:29:30.489872
139  2023-10-30 11:29:30.537745
140  2023-10-30 11:29:30.585617
141  2023-10-30 11:29:30.617532
142  2023-10-30 11:29:30.663489
143  2023-10-30 11:29:30.711319
144  2023-10-30 11:29:30.743232
145  2023-10-30 11:29:30.790310
146  2023-10-30 11:29:30.837171
147  2023-10-30 11:29:30.869063
148  2023-10-30 11:29:30.915012
149  2023-10-30 11:29:30.962992
150  2023-10-30 11:29:30.994907
151  2023-10-30 11:29:31.042779
152  2023-10-30 11:29:31.073989
153  2023-10-30 11:29:31.120862
154  2023-10-30 11:29:31.166741
155  2023-10-30 11:29:31.198666
156  2023-10-30 11:29:31.245440
157  2023-10-30 11:29:31.292313
158  2023-10-30 11:29:31.323877
159  2023-10-30 11:29:31.371687
160  2023-10-30 11:29:31.419525
161  2023-10-30 11:29:31.450480
162  2023-10-30 11:29:31.497408
163  2023-10-30 11:29:31.545315
164  2023-10-30 11:29:31.577229
165  2023-10-30 11:29:31.625144
166  2023-10-30 11:29:31.657016
167  2023-10-30 11:29:31.704612
168  2023-10-30 11:29:31.752562
169  2023-10-30 11:29:31.784668
170  2023-10-30 11:29:31.832315
171  2023-10-30 11:29:31.880187
172  2023-10-30 11:29:31.912102
173  2023-10-30 11:29:31.960082
174  2023-10-30 11:29:31.991986
175  2023-10-30 11:29:32.039888
176  2023-10-30 11:29:32.087760
177  2023-10-30 11:29:32.119705
178  2023-10-30 11:29:32.167578
179  2023-10-30 11:29:32.199504
180  2023-10-30 11:29:32.246349
181  2023-10-30 11:29:32.293245
182  2023-10-30 11:29:32.472732
183  2023-10-30 11:29:32.496666
184  2023-10-30 11:29:32.544625
185  2023-10-30 11:29:32.576510
186  2023-10-30 11:29:32.624412
187  2023-10-30 11:29:32.670288
188  2023-10-30 11:29:32.702203
189  2023-10-30 11:29:32.750146
190  2023-10-30 11:29:32.782067
191  2023-10-30 11:29:32.829931
192  2023-10-30 11:29:32.877898
193  2023-10-30 11:29:32.909771
194  2023-10-30 11:29:32.955682
195  2023-10-30 11:29:33.003638
196  2023-10-30 11:29:33.035553
197  2023-10-30 11:29:33.083486
198  2023-10-30 11:29:33.115400
199  2023-10-30 11:29:33.163301
200  2023-10-30 11:29:33.211144
201  2023-10-30 11:29:33.243059
202  2023-10-30 11:29:33.291007
203  2023-10-30 11:29:33.336939
204  2023-10-30 11:29:33.368861
205  2023-10-30 11:29:33.416841
206  2023-10-30 11:29:33.462758
207  2023-10-30 11:29:33.494762
208  2023-10-30 11:29:33.542589
209  2023-10-30 11:29:33.574511
210  2023-10-30 11:29:33.622421
211  2023-10-30 11:29:33.670245
212  2023-10-30 11:29:33.702190
213  2023-10-30 11:29:33.750044
214  2023-10-30 11:29:33.781982
215  2023-10-30 11:29:33.829867
216  2023-10-30 11:29:33.877735
217  2023-10-30 11:29:33.908608
218  2023-10-30 11:29:33.954490
219  2023-10-30 11:29:34.002357
220  2023-10-30 11:29:34.034314
221  2023-10-30 11:29:34.082144
222  2023-10-30 11:29:34.130016
223  2023-10-30 11:29:34.162085
224  2023-10-30 11:29:34.209957
225  2023-10-30 11:29:34.241872
226  2023-10-30 11:29:34.289759
227  2023-10-30 11:29:34.337616
228  2023-10-30 11:29:34.369531
229  2023-10-30 11:29:34.417403
230  2023-10-30 11:29:34.463290
231  2023-10-30 11:29:34.495251
232  2023-10-30 11:29:34.543123
233  2023-10-30 11:29:34.575037
234  2023-10-30 11:29:34.620967
235  2023-10-30 11:29:34.668787
236  2023-10-30 11:29:34.700701
237  2023-10-30 11:29:34.748615
238  2023-10-30 11:29:34.796445
239  2023-10-30 11:29:34.828360
240  2023-10-30 11:29:34.876374
241  2023-10-30 11:29:34.908291
242  2023-10-30 11:29:34.956125
243  2023-10-30 11:29:35.004100
244  2023-10-30 11:29:35.036072
245  2023-10-30 11:29:35.082006
246  2023-10-30 11:29:35.129821
247  2023-10-30 11:29:35.160738
248  2023-10-30 11:29:35.208649
249  2023-10-30 11:29:35.240555
250  2023-10-30 11:29:35.288440
251  2023-10-30 11:29:35.336331
252  2023-10-30 11:29:35.367187
253  2023-10-30 11:29:35.415212
254  2023-10-30 11:29:35.462984
255  2023-10-30 11:29:35.493890
256  2023-10-30 11:29:35.541720
257  2023-10-30 11:29:35.587643
258  2023-10-30 11:29:35.618515
259  2023-10-30 11:29:35.666434
260  2023-10-30 11:29:35.698360
261  2023-10-30 11:29:35.746204
262  2023-10-30 11:29:35.794046
263  2023-10-30 11:29:35.825991
264  2023-10-30 11:29:35.873969
265  2023-10-30 11:29:35.921796
266  2023-10-30 11:29:35.952713
267  2023-10-30 11:29:35.999640
268  2023-10-30 11:29:36.031555
269  2023-10-30 11:29:36.079427
270  2023-10-30 11:29:36.127055
271  2023-10-30 11:29:36.158969
272  2023-10-30 11:29:36.206841
273  2023-10-30 11:29:36.254756
274  2023-10-30 11:29:36.285543
275  2023-10-30 11:29:36.333523
276  2023-10-30 11:29:36.365539
277  2023-10-30 11:29:36.412458
278  2023-10-30 11:29:36.459323
279  2023-10-30 11:29:36.490231
280  2023-10-30 11:29:36.538109
281  2023-10-30 11:29:36.585954
282  2023-10-30 11:29:36.617897
283  2023-10-30 11:29:36.665737
284  2023-10-30 11:29:36.713640
285  2023-10-30 11:29:36.745675
286  2023-10-30 11:29:36.793499
287  2023-10-30 11:29:36.825508
288  2023-10-30 11:29:36.873414
289  2023-10-30 11:29:36.921252
290  2023-10-30 11:29:36.953202
291  2023-10-30 11:29:37.001039
292  2023-10-30 11:29:37.032954
293  2023-10-30 11:29:37.080862
294  2023-10-30 11:29:37.127701
295  2023-10-30 11:29:37.158620
296  2023-10-30 11:29:37.206490
297  2023-10-30 11:29:37.254364
298  2023-10-30 11:29:37.286279
299  2023-10-30 11:29:37.334252
300  2023-10-30 11:29:37.366171
301  2023-10-30 11:29:37.414018
302  2023-10-30 11:29:37.461910
303  2023-10-30 11:29:37.493791
304  2023-10-30 11:29:37.618461
305  2023-10-30 11:29:37.622451
306  2023-10-30 11:29:37.667328
307  2023-10-30 11:29:37.699243
308  2023-10-30 11:29:37.746117
309  2023-10-30 11:29:37.793041
310  2023-10-30 11:29:37.825035
311  2023-10-30 11:29:37.872815
312  2023-10-30 11:29:37.920666
313  2023-10-30 11:29:37.952597
314  2023-10-30 11:29:37.998525
315  2023-10-30 11:29:38.046445
316  2023-10-30 11:29:38.077348
317  2023-10-30 11:29:38.125198
318  2023-10-30 11:29:38.157133
319  2023-10-30 11:29:38.204974
320  2023-10-30 11:29:38.252885
321  2023-10-30 11:29:38.284810
322  2023-10-30 11:29:38.331635
323  2023-10-30 11:29:38.379567
324  2023-10-30 11:29:38.411506
325  2023-10-30 11:29:38.457428
326  2023-10-30 11:29:38.505267
327  2023-10-30 11:29:38.536184
328  2023-10-30 11:29:38.583062
329  2023-10-30 11:29:38.615115
330  2023-10-30 11:29:38.662845
331  2023-10-30 11:29:38.710720
332  2023-10-30 11:29:38.742684
333  2023-10-30 11:29:38.790557
334  2023-10-30 11:29:38.837863
335  2023-10-30 11:29:38.869792
336  2023-10-30 11:29:38.917643
337  2023-10-30 11:29:38.949566
338  2023-10-30 11:29:38.997455
339  2023-10-30 11:29:39.045315
340  2023-10-30 11:29:39.077229
341  2023-10-30 11:29:39.125170
342  2023-10-30 11:29:39.157083
343  2023-10-30 11:29:39.204959
344  2023-10-30 11:29:39.253074
345  2023-10-30 11:29:39.283095
346  2023-10-30 11:29:39.330936
347  2023-10-30 11:29:39.378839
348  2023-10-30 11:29:39.410758
349  2023-10-30 11:29:39.458629
350  2023-10-30 11:29:39.490542
351  2023-10-30 11:29:39.538626
352  2023-10-30 11:29:39.586407
353  2023-10-30 11:29:39.617323
354  2023-10-30 11:29:39.664196
355  2023-10-30 11:29:39.710042
356  2023-10-30 11:29:39.741956
357  2023-10-30 11:29:39.790827
358  2023-10-30 11:29:39.837700
359  2023-10-30 11:29:39.868998
360  2023-10-30 11:29:39.916831
361  2023-10-30 11:29:39.948816
362  2023-10-30 11:29:39.996656
363  2023-10-30 11:29:40.044570
364  2023-10-30 11:29:40.076473
365  2023-10-30 11:29:40.124349
366  2023-10-30 11:29:40.171190
367  2023-10-30 11:29:40.203105
368  2023-10-30 11:29:40.251017
369  2023-10-30 11:29:40.281939
370  2023-10-30 11:29:40.328777
371  2023-10-30 11:29:40.376672
372  2023-10-30 11:29:40.408594
373  2023-10-30 11:29:40.456474
374  2023-10-30 11:29:40.503228
375  2023-10-30 11:29:40.535143
376  2023-10-30 11:29:40.581053
377  2023-10-30 11:29:40.628892
378  2023-10-30 11:29:40.658847
379  2023-10-30 11:29:40.706716
380  2023-10-30 11:29:40.754620
381  2023-10-30 11:29:40.786507
382  2023-10-30 11:29:40.834373
383  2023-10-30 11:29:40.866288
384  2023-10-30 11:29:40.914161
385  2023-10-30 11:29:40.962058
386  2023-10-30 11:29:40.993943
387  2023-10-30 11:29:41.041833
388  2023-10-30 11:29:41.073748
389  2023-10-30 11:29:41.121692
390  2023-10-30 11:29:41.169523
391  2023-10-30 11:29:41.201438
392  2023-10-30 11:29:41.249356
393  2023-10-30 11:29:41.296217
394  2023-10-30 11:29:41.328264
395  2023-10-30 11:29:41.376003
396  2023-10-30 11:29:41.407925
397  2023-10-30 11:29:41.455798
398  2023-10-30 11:29:41.502674
399  2023-10-30 11:29:41.533550
400  2023-10-30 11:29:41.579470
401  2023-10-30 11:29:41.626302
402  2023-10-30 11:29:41.657262
403  2023-10-30 11:29:41.705202
404  2023-10-30 11:29:41.753083
405  2023-10-30 11:29:41.785133
406  2023-10-30 11:29:41.832955
407  2023-10-30 11:29:41.864870
408  2023-10-30 11:29:41.912786
409  2023-10-30 11:29:41.960614
410  2023-10-30 11:29:41.992529
411  2023-10-30 11:29:42.039404
412  2023-10-30 11:29:42.087276
413  2023-10-30 11:29:42.119234
414  2023-10-30 11:29:42.167062
415  2023-10-30 11:29:42.199067
416  2023-10-30 11:29:42.246941
417  2023-10-30 11:29:42.294811
418  2023-10-30 11:29:42.324732
419  2023-10-30 11:29:42.372604
420  2023-10-30 11:29:42.420476
421  2023-10-30 11:29:42.452390
422  2023-10-30 11:29:42.500262
423  2023-10-30 11:29:42.532178
424  2023-10-30 11:29:42.579052
425  2023-10-30 11:29:42.626003
426  2023-10-30 11:29:42.729702
427  2023-10-30 11:29:42.752635
428  2023-10-30 11:29:42.783677
429  2023-10-30 11:29:42.831551
430  2023-10-30 11:29:42.879426
431  2023-10-30 11:29:42.911341
432  2023-10-30 11:29:42.959204
433  2023-10-30 11:29:42.991250
434  2023-10-30 11:29:43.038129
435  2023-10-30 11:29:43.084994
436  2023-10-30 11:29:43.116905
437  2023-10-30 11:29:43.164783
438  2023-10-30 11:29:43.212659
439  2023-10-30 11:29:43.244734
440  2023-10-30 11:29:43.292632
441  2023-10-30 11:29:43.324587
442  2023-10-30 11:29:43.372624
443  2023-10-30 11:29:43.420580
444  2023-10-30 11:29:43.452624
445  2023-10-30 11:29:43.500586
446  2023-10-30 11:29:43.546540
447  2023-10-30 11:29:43.578454
448  2023-10-30 11:29:43.626285
449  2023-10-30 11:29:43.658200
450  2023-10-30 11:29:43.706070
451  2023-10-30 11:29:43.752396
452  2023-10-30 11:29:43.784309
453  2023-10-30 11:29:43.832229
454  2023-10-30 11:29:43.880191
455  2023-10-30 11:29:43.912061
456  2023-10-30 11:29:43.959933
457  2023-10-30 11:29:43.991959
458  2023-10-30 11:29:44.039832
459  2023-10-30 11:29:44.087750
460  2023-10-30 11:29:44.118622
461  2023-10-30 11:29:44.165495
462  2023-10-30 11:29:44.212370
463  2023-10-30 11:29:44.244285
464  2023-10-30 11:29:44.292240
465  2023-10-30 11:29:44.338117
466  2023-10-30 11:29:44.370076
467  2023-10-30 11:29:44.416948
468  2023-10-30 11:29:44.462910
469  2023-10-30 11:29:44.493830
470  2023-10-30 11:29:44.541764
471  2023-10-30 11:29:44.573686
472  2023-10-30 11:29:44.619563
473  2023-10-30 11:29:44.667494
474  2023-10-30 11:29:44.699405
475  2023-10-30 11:29:44.747278
476  2023-10-30 11:29:44.794151
477  2023-10-30 11:29:44.825212
478  2023-10-30 11:29:44.873084
479  2023-10-30 11:29:44.920987
480  2023-10-30 11:29:44.953038
481  2023-10-30 11:29:45.000875
482  2023-10-30 11:29:45.032790
483  2023-10-30 11:29:45.080710
484  2023-10-30 11:29:45.128534
485  2023-10-30 11:29:45.160322
486  2023-10-30 11:29:45.208195
487  2023-10-30 11:29:45.240109
488  2023-10-30 11:29:45.288044
489  2023-10-30 11:29:45.335973
490  2023-10-30 11:29:45.368020
491  2023-10-30 11:29:45.415044
492  2023-10-30 11:29:45.461769
493  2023-10-30 11:29:45.493684
494  2023-10-30 11:29:45.541556
495  2023-10-30 11:29:45.573504
496  2023-10-30 11:29:45.619447
497  2023-10-30 11:29:45.667319
498  2023-10-30 11:29:45.699233
499  2023-10-30 11:29:45.747206
500  2023-10-30 11:29:45.794977
501  2023-10-30 11:29:45.825896
502  2023-10-30 11:29:45.871861
503  2023-10-30 11:29:45.918782
504  2023-10-30 11:29:45.949689
505  2023-10-30 11:29:45.997707
506  2023-10-30 11:29:46.045577
507  2023-10-30 11:29:46.077558
508  2023-10-30 11:29:46.123436
509  2023-10-30 11:29:46.170804
510  2023-10-30 11:29:46.201721
511  2023-10-30 11:29:46.248688
512  2023-10-30 11:29:46.296526
513  2023-10-30 11:29:46.328441
514  2023-10-30 11:29:46.376348
515  2023-10-30 11:29:46.408228
516  2023-10-30 11:29:46.454105
517  2023-10-30 11:29:46.501977
518  2023-10-30 11:29:46.533891
519  2023-10-30 11:29:46.581764
520  2023-10-30 11:29:46.629635
521  2023-10-30 11:29:46.659673
522  2023-10-30 11:29:46.707595
523  2023-10-30 11:29:46.754470
524  2023-10-30 11:29:46.785644
525  2023-10-30 11:29:46.833413
526  2023-10-30 11:29:46.879301
527  2023-10-30 11:29:46.911216
528  2023-10-30 11:29:46.959133
529  2023-10-30 11:29:47.005095
530  2023-10-30 11:29:47.037153
531  2023-10-30 11:29:47.085024
532  2023-10-30 11:29:47.116938
533  2023-10-30 11:29:47.164808
534  2023-10-30 11:29:47.212671
535  2023-10-30 11:29:47.244595
536  2023-10-30 11:29:47.292468
537  2023-10-30 11:29:47.324379
538  2023-10-30 11:29:47.372245
539  2023-10-30 11:29:47.420109
540  2023-10-30 11:29:47.452037
541  2023-10-30 11:29:47.499864
542  2023-10-30 11:29:47.531820
543  2023-10-30 11:29:47.579711
544  2023-10-30 11:29:47.627680
545  2023-10-30 11:29:47.659706
546  2023-10-30 11:29:47.707629
547  2023-10-30 11:29:47.754503
548  2023-10-30 11:29:47.899123
549  2023-10-30 11:29:47.914113
550  2023-10-30 11:29:47.961978
551  2023-10-30 11:29:47.993905
552  2023-10-30 11:29:48.041736
553  2023-10-30 11:29:48.087660
554  2023-10-30 11:29:48.119583
555  2023-10-30 11:29:48.167399
556  2023-10-30 11:29:48.198317
557  2023-10-30 11:29:48.245192
558  2023-10-30 11:29:48.293063
559  2023-10-30 11:29:48.323981
560  2023-10-30 11:29:48.370856
561  2023-10-30 11:29:48.418728
562  2023-10-30 11:29:48.450642
563  2023-10-30 11:29:48.496520
564  2023-10-30 11:29:48.544403
565  2023-10-30 11:29:48.575309
566  2023-10-30 11:29:48.622233
567  2023-10-30 11:29:48.670096
568  2023-10-30 11:29:48.701977
569  2023-10-30 11:29:48.749893
570  2023-10-30 11:29:48.781795
571  2023-10-30 11:29:48.829678
572  2023-10-30 11:29:48.877541
573  2023-10-30 11:29:48.907817
574  2023-10-30 11:29:48.955689
575  2023-10-30 11:29:49.003561
576  2023-10-30 11:29:49.035477
577  2023-10-30 11:29:49.083353
578  2023-10-30 11:29:49.115267
579  2023-10-30 11:29:49.163231
580  2023-10-30 11:29:49.210093
581  2023-10-30 11:29:49.242024
582  2023-10-30 11:29:49.289896
583  2023-10-30 11:29:49.337725
584  2023-10-30 11:29:49.369681
585  2023-10-30 11:29:49.416555
586  2023-10-30 11:29:49.448486
587  2023-10-30 11:29:49.495303
588  2023-10-30 11:29:49.541326
589  2023-10-30 11:29:49.573240
590  2023-10-30 11:29:49.619117
591  2023-10-30 11:29:49.666989
592  2023-10-30 11:29:49.698904
593  2023-10-30 11:29:49.746776
594  2023-10-30 11:29:49.794287
595  2023-10-30 11:29:49.826203
596  2023-10-30 11:29:49.873241
597  2023-10-30 11:29:49.920027
598  2023-10-30 11:29:49.951934
599  2023-10-30 11:29:49.999921
600  2023-10-30 11:29:50.031835
601  2023-10-30 11:29:50.079707
602  2023-10-30 11:29:50.127692
603  2023-10-30 11:29:50.159651
604  2023-10-30 11:29:50.207489
605  2023-10-30 11:29:50.254401
606  2023-10-30 11:29:50.285324
607  2023-10-30 11:29:50.331207
608  2023-10-30 11:29:50.379093
609  2023-10-30 11:29:50.410986
610  2023-10-30 11:29:50.459007
611  2023-10-30 11:29:50.490075
612  2023-10-30 11:29:50.537030
613  2023-10-30 11:29:50.584903
614  2023-10-30 11:29:50.616849
615  2023-10-30 11:29:50.664735
616  2023-10-30 11:29:50.712604
617  2023-10-30 11:29:50.744524
618  2023-10-30 11:29:50.792383
619  2023-10-30 11:29:50.824314
620  2023-10-30 11:29:50.872175
621  2023-10-30 11:29:50.920010
622  2023-10-30 11:29:50.951922
623  2023-10-30 11:29:50.999830
624  2023-10-30 11:29:51.031746
625  2023-10-30 11:29:51.079595
626  2023-10-30 11:29:51.126455
627  2023-10-30 11:29:51.158412
628  2023-10-30 11:29:51.206373
629  2023-10-30 11:29:51.254289
630  2023-10-30 11:29:51.285161
631  2023-10-30 11:29:51.333033
632  2023-10-30 11:29:51.364947
633  2023-10-30 11:29:51.412821
634  2023-10-30 11:29:51.460693
635  2023-10-30 11:29:51.492607
636  2023-10-30 11:29:51.540578
637  2023-10-30 11:29:51.587483
638  2023-10-30 11:29:51.618432
639  2023-10-30 11:29:51.665307
640  2023-10-30 11:29:51.712181
641  2023-10-30 11:29:51.744096
642  2023-10-30 11:29:51.790005
643  2023-10-30 11:29:51.837846
644  2023-10-30 11:29:51.868794
645  2023-10-30 11:29:51.915691
646  2023-10-30 11:29:51.963509
647  2023-10-30 11:29:51.995470
648  2023-10-30 11:29:52.043350
649  2023-10-30 11:29:52.075251
650  2023-10-30 11:29:52.123125
651  2023-10-30 11:29:52.170955
652  2023-10-30 11:29:52.202869
653  2023-10-30 11:29:52.250774
654  2023-10-30 11:29:52.282695
655  2023-10-30 11:29:52.330680
656  2023-10-30 11:29:52.377589
657  2023-10-30 11:29:52.408968
658  2023-10-30 11:29:52.456795
659  2023-10-30 11:29:52.504666
660  2023-10-30 11:29:52.536580
661  2023-10-30 11:29:52.584453
662  2023-10-30 11:29:52.616399
663  2023-10-30 11:29:52.664284
664  2023-10-30 11:29:52.712148
665  2023-10-30 11:29:52.742032
666  2023-10-30 11:29:52.789934
667  2023-10-30 11:29:52.836917
668  2023-10-30 11:29:52.868800
669  2023-10-30 11:29:52.916671
670  2023-10-30 11:29:53.012416
671  2023-10-30 11:29:53.043332
672  2023-10-30 11:29:53.074249
673  2023-10-30 11:29:53.122121
674  2023-10-30 11:29:53.167999
675  2023-10-30 11:29:53.212929
676  2023-10-30 11:29:53.243836
677  2023-10-30 11:29:53.291347
678  2023-10-30 11:29:53.337955
679  2023-10-30 11:29:53.368872
680  2023-10-30 11:29:53.416742
681  2023-10-30 11:29:53.448650
682  2023-10-30 11:29:53.496534
683  2023-10-30 11:29:53.544395
684  2023-10-30 11:29:53.576323
685  2023-10-30 11:29:53.624184
686  2023-10-30 11:29:53.672061
687  2023-10-30 11:29:53.703975
688  2023-10-30 11:29:53.751810
689  2023-10-30 11:29:53.783723
690  2023-10-30 11:29:53.831735
691  2023-10-30 11:29:53.879566
692  2023-10-30 11:29:53.911482
693  2023-10-30 11:29:53.959351
694  2023-10-30 11:29:53.991301
695  2023-10-30 11:29:54.039169
696  2023-10-30 11:29:54.087016
697  2023-10-30 11:29:54.117930
698  2023-10-30 11:29:54.164847
699  2023-10-30 11:29:54.212682
700  2023-10-30 11:29:54.244590
701  2023-10-30 11:29:54.292462
702  2023-10-30 11:29:54.324376
703  2023-10-30 11:29:54.372248
704  2023-10-30 11:29:54.419122
705  2023-10-30 11:29:54.450039
706  2023-10-30 11:29:54.497911
707  2023-10-30 11:29:54.544794
708  2023-10-30 11:29:54.575703
709  2023-10-30 11:29:54.623575
710  2023-10-30 11:29:54.670450
711  2023-10-30 11:29:54.701367
712  2023-10-30 11:29:54.749279
713  2023-10-30 11:29:54.796114
714  2023-10-30 11:29:54.828074
715  2023-10-30 11:29:54.876026
716  2023-10-30 11:29:54.907941
717  2023-10-30 11:29:54.955863
718  2023-10-30 11:29:55.003685
719  2023-10-30 11:29:55.035738
720  2023-10-30 11:29:55.083508
721  2023-10-30 11:29:55.115436
722  2023-10-30 11:29:55.163258
723  2023-10-30 11:29:55.211320
724  2023-10-30 11:29:55.243220
725  2023-10-30 11:29:55.291101
726  2023-10-30 11:29:55.337809
727  2023-10-30 11:29:55.369713
728  2023-10-30 11:29:55.417515
729  2023-10-30 11:29:55.449436
730  2023-10-30 11:29:55.497305
731  2023-10-30 11:29:55.543246
732  2023-10-30 11:29:55.575164
733  2023-10-30 11:29:55.622993
734  2023-10-30 11:29:55.669864
735  2023-10-30 11:29:55.700828
736  2023-10-30 11:29:55.748680
737  2023-10-30 11:29:55.796569
738  2023-10-30 11:29:55.828483
739  2023-10-30 11:29:55.876320
740  2023-10-30 11:29:55.908227
741  2023-10-30 11:29:55.956099
742  2023-10-30 11:29:56.002131
743  2023-10-30 11:29:56.035080
744  2023-10-30 11:29:56.081918
745  2023-10-30 11:29:56.129790
746  2023-10-30 11:29:56.160713
747  2023-10-30 11:29:56.207582
748  2023-10-30 11:29:56.254504
749  2023-10-30 11:29:56.285416
750  2023-10-30 11:29:56.333246
751  2023-10-30 11:29:56.365161
752  2023-10-30 11:29:56.412092
753  2023-10-30 11:29:56.460021
754  2023-10-30 11:29:56.491262
755  2023-10-30 11:29:56.537306
756  2023-10-30 11:29:56.583204
757  2023-10-30 11:29:56.630054
758  2023-10-30 11:29:56.662065
759  2023-10-30 11:29:56.709892
760  2023-10-30 11:29:56.741838
761  2023-10-30 11:29:56.789829
762  2023-10-30 11:29:56.838674
763  2023-10-30 11:29:56.869581
764  2023-10-30 11:29:56.917532
765  2023-10-30 11:29:56.949459
766  2023-10-30 11:29:56.997342
767  2023-10-30 11:29:57.045200
768  2023-10-30 11:29:57.077258
769  2023-10-30 11:29:57.125150
770  2023-10-30 11:29:57.157064
771  2023-10-30 11:29:57.204985
772  2023-10-30 11:29:57.252824
773  2023-10-30 11:29:57.284776
774  2023-10-30 11:29:57.332655
775  2023-10-30 11:29:57.379486
776  2023-10-30 11:29:57.411435
777  2023-10-30 11:29:57.459319
778  2023-10-30 11:29:57.491224
779  2023-10-30 11:29:57.539059
780  2023-10-30 11:29:57.586931
781  2023-10-30 11:29:57.616973
782  2023-10-30 11:29:57.662881
783  2023-10-30 11:29:57.710722
784  2023-10-30 11:29:57.742637
785  2023-10-30 11:29:57.790562
786  2023-10-30 11:29:57.837384
787  2023-10-30 11:29:57.868301
788  2023-10-30 11:29:57.915208
789  2023-10-30 11:29:57.963168
790  2023-10-30 11:29:57.995127
791  2023-10-30 11:29:58.042997
792  2023-10-30 11:29:58.074632
793  2023-10-30 11:29:58.122687
794  2023-10-30 11:29:58.170376
795  2023-10-30 11:29:58.201294
796  2023-10-30 11:29:58.248200
797  2023-10-30 11:29:58.296041
798  2023-10-30 11:29:58.327985
799  2023-10-30 11:29:58.374833
800  2023-10-30 11:29:58.420707
801  2023-10-30 11:29:58.451666
802  2023-10-30 11:29:58.498665
803  2023-10-30 11:29:58.544509
804  2023-10-30 11:29:58.575426
805  2023-10-30 11:29:58.623334
806  2023-10-30 11:29:58.671174
807  2023-10-30 11:29:58.702091
808  2023-10-30 11:29:58.749009
809  2023-10-30 11:29:58.796871
810  2023-10-30 11:29:58.827755
811  2023-10-30 11:29:58.874630
812  2023-10-30 11:29:58.906631
813  2023-10-30 11:29:58.954540
814  2023-10-30 11:29:59.000731
815  2023-10-30 11:29:59.032647
816  2023-10-30 11:29:59.080551
817  2023-10-30 11:29:59.127560
818  2023-10-30 11:29:59.158479
819  2023-10-30 11:29:59.206474
820  2023-10-30 11:29:59.254455
821  2023-10-30 11:29:59.286365
822  2023-10-30 11:29:59.334241
823  2023-10-30 11:29:59.366126
824  2023-10-30 11:29:59.414996
825  2023-10-30 11:29:59.461901
826  2023-10-30 11:29:59.493814
827  2023-10-30 11:29:59.541798
828  2023-10-30 11:29:59.573715
829  2023-10-30 11:29:59.621585
830  2023-10-30 11:29:59.669471
831  2023-10-30 11:29:59.701374
832  2023-10-30 11:29:59.748215
833  2023-10-30 11:29:59.796127
834  2023-10-30 11:29:59.828035
835  2023-10-30 11:29:59.875907
836  2023-10-30 11:29:59.907816
837  2023-10-30 11:29:59.953667
838  2023-10-30 11:30:00.001569
839  2023-10-30 11:30:00.032489
840  2023-10-30 11:30:00.079464
841  2023-10-30 11:30:00.127385
842  2023-10-30 11:30:00.157285
843  2023-10-30 11:30:00.205126
844  2023-10-30 11:30:00.253026
845  2023-10-30 11:30:00.284960
846  2023-10-30 11:30:00.331788
847  2023-10-30 11:30:00.379832
848  2023-10-30 11:30:00.411894
849  2023-10-30 11:30:00.459636
850  2023-10-30 11:30:00.491550
851  2023-10-30 11:30:00.539571
852  2023-10-30 11:30:00.587486
853  2023-10-30 11:30:00.619518
854  2023-10-30 11:30:00.667347
855  2023-10-30 11:30:00.699342
856  2023-10-30 11:30:00.746261
857  2023-10-30 11:30:00.793187
858  2023-10-30 11:30:00.825131
859  2023-10-30 11:30:00.872973
860  2023-10-30 11:30:00.920877
861  2023-10-30 11:30:00.952807
862  2023-10-30 11:30:00.999635
863  2023-10-30 11:30:01.031549
864  2023-10-30 11:30:01.079455
865  2023-10-30 11:30:01.127294
866  2023-10-30 11:30:01.159239
867  2023-10-30 11:30:01.207230
868  2023-10-30 11:30:01.254952
869  2023-10-30 11:30:01.286868
870  2023-10-30 11:30:01.334739
871  2023-10-30 11:30:01.366654
872  2023-10-30 11:30:01.414527
873  2023-10-30 11:30:01.462397
874  2023-10-30 11:30:01.494312
875  2023-10-30 11:30:01.542220
876  2023-10-30 11:30:01.574101
877  2023-10-30 11:30:01.622132
878  2023-10-30 11:30:01.670038
879  2023-10-30 11:30:01.701919
880  2023-10-30 11:30:01.749791
881  2023-10-30 11:30:01.782750
882  2023-10-30 11:30:01.829615
883  2023-10-30 11:30:01.877485
884  2023-10-30 11:30:01.909397
885  2023-10-30 11:30:01.957375
886  2023-10-30 11:30:02.005248
887  2023-10-30 11:30:02.037163
888  2023-10-30 11:30:02.085034
889  2023-10-30 11:30:02.116948
890  2023-10-30 11:30:02.164820
891  2023-10-30 11:30:02.211694
892  2023-10-30 11:30:02.243736
893  2023-10-30 11:30:02.291495
894  2023-10-30 11:30:02.323493
895  2023-10-30 11:30:02.371348
896  2023-10-30 11:30:02.419221
897  2023-10-30 11:30:02.451136
898  2023-10-30 11:30:02.499005
899  2023-10-30 11:30:02.546880
900  2023-10-30 11:30:02.578797
901  2023-10-30 11:30:02.626667
902  2023-10-30 11:30:02.658550
903  2023-10-30 11:30:02.706463
904  2023-10-30 11:30:02.752340
905  2023-10-30 11:30:02.784245
906  2023-10-30 11:30:02.832239
907  2023-10-30 11:30:02.880134
908  2023-10-30 11:30:02.912153
909  2023-10-30 11:30:02.960025
910  2023-10-30 11:30:02.991939
911  2023-10-30 11:30:03.039776
912  2023-10-30 11:30:03.085681
913  2023-10-30 11:30:03.117603
914  2023-10-30 11:30:03.165441
915  2023-10-30 11:30:03.213354
916  2023-10-30 11:30:03.245227
917  2023-10-30 11:30:03.292136
918  2023-10-30 11:30:03.337979
919  2023-10-30 11:30:03.369894
920  2023-10-30 11:30:03.417815
921  2023-10-30 11:30:03.449683
922  2023-10-30 11:30:03.497552
923  2023-10-30 11:30:03.545424
924  2023-10-30 11:30:03.602274
925  2023-10-30 11:30:03.622219
926  2023-10-30 11:30:03.669094
927  2023-10-30 11:30:03.701009
928  2023-10-30 11:30:03.748882
929  2023-10-30 11:30:03.795791
930  2023-10-30 11:30:03.827553
931  2023-10-30 11:30:03.875510
932  2023-10-30 11:30:03.907428
933  2023-10-30 11:30:03.954299
934  2023-10-30 11:30:04.001267
935  2023-10-30 11:30:04.033158
936  2023-10-30 11:30:04.080999
937  2023-10-30 11:30:04.128902
938  2023-10-30 11:30:04.160824
939  2023-10-30 11:30:04.208810
940  2023-10-30 11:30:04.240725
941  2023-10-30 11:30:04.288627
942  2023-10-30 11:30:04.335513
943  2023-10-30 11:30:04.367422
944  2023-10-30 11:30:04.415296
945  2023-10-30 11:30:04.463161
946  2023-10-30 11:30:04.495080
947  2023-10-30 11:30:04.542958
948  2023-10-30 11:30:04.574873
949  2023-10-30 11:30:04.620770
950  2023-10-30 11:30:04.668626
951  2023-10-30 11:30:04.699576
952  2023-10-30 11:30:04.746497
953  2023-10-30 11:30:04.794369
954  2023-10-30 11:30:04.826283
955  2023-10-30 11:30:04.874122
956  2023-10-30 11:30:04.922031
957  2023-10-30 11:30:04.953947
958  2023-10-30 11:30:05.001781
959  2023-10-30 11:30:05.033695
960  2023-10-30 11:30:05.081603
961  2023-10-30 11:30:05.129471
962  2023-10-30 11:30:05.161394
963  2023-10-30 11:30:05.209258
964  2023-10-30 11:30:05.241182
965  2023-10-30 11:30:05.288016
966  2023-10-30 11:30:05.336020
967  2023-10-30 11:30:05.367803
968  2023-10-30 11:30:05.415730
969  2023-10-30 11:30:05.463546
970  2023-10-30 11:30:05.495461
971  2023-10-30 11:30:05.543366
972  2023-10-30 11:30:05.575306
973  2023-10-30 11:30:05.623207
974  2023-10-30 11:30:05.671078
975  2023-10-30 11:30:05.702993
976  2023-10-30 11:30:05.749868
977  2023-10-30 11:30:05.782821
978  2023-10-30 11:30:05.827799
979  2023-10-30 11:30:05.873677
980  2023-10-30 11:30:05.921495
981  2023-10-30 11:30:05.952411
982  2023-10-30 11:30:05.999284
983  2023-10-30 11:30:06.046263
984  2023-10-30 11:30:06.077288
985  2023-10-30 11:30:06.125155
986  2023-10-30 11:30:06.157072
987  2023-10-30 11:30:06.204937
988  2023-10-30 11:30:06.252830
989  2023-10-30 11:30:06.284732
990  2023-10-30 11:30:06.332610
991  2023-10-30 11:30:06.378599
992  2023-10-30 11:30:06.410508
993  2023-10-30 11:30:06.458376
994  2023-10-30 11:30:06.490287
995  2023-10-30 11:30:06.538129
996  2023-10-30 11:30:06.586059
997  2023-10-30 11:30:06.617956
998  2023-10-30 11:30:06.665787
999  2023-10-30 11:30:06.713703
1000  2023-10-30 11:30:06.745604
1001  2023-10-30 11:30:06.793481
1002  2023-10-30 11:30:06.825403
1003  2023-10-30 11:30:06.873233
1004  2023-10-30 11:30:06.921133
1005  2023-10-30 11:30:06.953022
1006  2023-10-30 11:30:06.998898
1007  2023-10-30 11:30:07.044777
1008  2023-10-30 11:30:07.076689
1009  2023-10-30 11:30:07.124561
1010  2023-10-30 11:30:07.156476
1011  2023-10-30 11:30:07.204473
1012  2023-10-30 11:30:07.252434
1013  2023-10-30 11:30:07.282354
1014  2023-10-30 11:30:07.330226
1015  2023-10-30 11:30:07.378190
1016  2023-10-30 11:30:07.410131
1017  2023-10-30 11:30:07.457040
1018  2023-10-30 11:30:07.503929
1019  2023-10-30 11:30:07.535860
1020  2023-10-30 11:30:07.583694
1021  2023-10-30 11:30:07.615638
1022  2023-10-30 11:30:07.663495
1023  2023-10-30 11:30:07.711327
1024  2023-10-30 11:30:07.743281
1025  2023-10-30 11:30:07.791153
1026  2023-10-30 11:30:07.837989
1027  2023-10-30 11:30:07.868906
1028  2023-10-30 11:30:07.916821
1029  2023-10-30 11:30:07.948723
1030  2023-10-30 11:30:07.995603
1031  2023-10-30 11:30:08.043474
1032  2023-10-30 11:30:08.074393
1033  2023-10-30 11:30:08.122296
1034  2023-10-30 11:30:08.170147
1035  2023-10-30 11:30:08.202060
1036  2023-10-30 11:30:08.249888
1037  2023-10-30 11:30:08.281830
1038  2023-10-30 11:30:08.329723
1039  2023-10-30 11:30:08.377590
1040  2023-10-30 11:30:08.409569
1041  2023-10-30 11:30:08.458533
1042  2023-10-30 11:30:08.505368
1043  2023-10-30 11:30:08.538323
1044  2023-10-30 11:30:08.585290
1045  2023-10-30 11:30:08.617205
1046  2023-10-30 11:30:08.665076
1047  2023-10-30 11:30:08.711007
1048  2023-10-30 11:30:08.742869
1049  2023-10-30 11:30:08.790741
1050  2023-10-30 11:30:08.836802
1051  2023-10-30 11:30:08.868611
1052  2023-10-30 11:30:08.914488
1053  2023-10-30 11:30:08.961413
1054  2023-10-30 11:30:08.992342
1055  2023-10-30 11:30:09.039801
1056  2023-10-30 11:30:09.087756
1057  2023-10-30 11:30:09.119662
1058  2023-10-30 11:30:09.167501
1059  2023-10-30 11:30:09.199450
1060  2023-10-30 11:30:09.247327
1061  2023-10-30 11:30:09.295206
1062  2023-10-30 11:30:09.327122
1063  2023-10-30 11:30:09.374986
1064  2023-10-30 11:30:09.406900
1065  2023-10-30 11:30:09.454929
1066  2023-10-30 11:30:09.502653
1067  2023-10-30 11:30:09.534678
1068  2023-10-30 11:30:09.582533
1069  2023-10-30 11:30:09.629429
1070  2023-10-30 11:30:09.661331
1071  2023-10-30 11:30:09.709158
1072  2023-10-30 11:30:09.741073
1073  2023-10-30 11:30:09.786101
1074  2023-10-30 11:30:09.833934
1075  2023-10-30 11:30:09.865840
1076  2023-10-30 11:30:09.913797
1077  2023-10-30 11:30:09.961719
1078  2023-10-30 11:30:09.993501
1079  2023-10-30 11:30:10.041371
1080  2023-10-30 11:30:10.074307
1081  2023-10-30 11:30:10.122221
1082  2023-10-30 11:30:10.170181
1083  2023-10-30 11:30:10.202101
1084  2023-10-30 11:30:10.248961
1085  2023-10-30 11:30:10.297826
1086  2023-10-30 11:30:10.327748
1087  2023-10-30 11:30:10.375629
1088  2023-10-30 11:30:10.407542
1089  2023-10-30 11:30:10.455373
1090  2023-10-30 11:30:10.503245
1091  2023-10-30 11:30:10.535160
1092  2023-10-30 11:30:10.582034
1093  2023-10-30 11:30:10.628909
1094  2023-10-30 11:30:10.660915
1095  2023-10-30 11:30:10.707842
1096  2023-10-30 11:30:10.754716
1097  2023-10-30 11:30:10.786631
1098  2023-10-30 11:30:10.832509
1099  2023-10-30 11:30:10.879599
1100  2023-10-30 11:30:10.910419
1101  2023-10-30 11:30:10.958299
1102  2023-10-30 11:30:10.990324
1103  2023-10-30 11:30:11.038212
1104  2023-10-30 11:30:11.086087
1105  2023-10-30 11:30:11.118002
1106  2023-10-30 11:30:11.165873
1107  2023-10-30 11:30:11.212743
1108  2023-10-30 11:30:11.243717
1109  2023-10-30 11:30:11.291709
1110  2023-10-30 11:30:11.323625
1111  2023-10-30 11:30:11.371513
1112  2023-10-30 11:30:11.418338
1113  2023-10-30 11:30:11.449295
1114  2023-10-30 11:30:11.496160
1115  2023-10-30 11:30:11.543168
1116  2023-10-30 11:30:11.574051
1117  2023-10-30 11:30:11.622098
1118  2023-10-30 11:30:11.669970
1119  2023-10-30 11:30:11.701885
1120  2023-10-30 11:30:11.749888
1121  2023-10-30 11:30:11.796785
1122  2023-10-30 11:30:11.827708
1123  2023-10-30 11:30:11.872666
1124  2023-10-30 11:30:11.919588
1125  2023-10-30 11:30:11.951512
1126  2023-10-30 11:30:11.998299
1127  2023-10-30 11:30:12.045271
1128  2023-10-30 11:30:12.076298
1129  2023-10-30 11:30:12.123296
1130  2023-10-30 11:30:12.171119
1131  2023-10-30 11:30:12.202755
1132  2023-10-30 11:30:12.248828
1133  2023-10-30 11:30:12.295818
1134  2023-10-30 11:30:12.327691
1135  2023-10-30 11:30:12.374668
1136  2023-10-30 11:30:12.407626
1137  2023-10-30 11:30:12.455487
1138  2023-10-30 11:30:12.502327
1139  2023-10-30 11:30:12.534242
1140  2023-10-30 11:30:12.581154
1141  2023-10-30 11:30:12.627991
1142  2023-10-30 11:30:12.659907
1143  2023-10-30 11:30:12.707779
1144  2023-10-30 11:30:12.754653
1145  2023-10-30 11:30:12.785571
1146  2023-10-30 11:30:12.831494
1147  2023-10-30 11:30:12.879320
1148  2023-10-30 11:30:12.911235
1149  2023-10-30 11:30:12.959138
1150  2023-10-30 11:30:12.991065
1151  2023-10-30 11:30:13.038894
1152  2023-10-30 11:30:13.086765
1153  2023-10-30 11:30:13.118729
1154  2023-10-30 11:30:13.164644
1155  2023-10-30 11:30:13.210643
1156  2023-10-30 11:30:13.242602
1157  2023-10-30 11:30:13.290436
1158  2023-10-30 11:30:13.338305
1159  2023-10-30 11:30:13.370220
1160  2023-10-30 11:30:13.418192
1161  2023-10-30 11:30:13.464093
1162  2023-10-30 11:30:13.494985
1163  2023-10-30 11:30:13.541859
1164  2023-10-30 11:30:13.573801
1165  2023-10-30 11:30:13.622687
1166  2023-10-30 11:30:13.669526
1167  2023-10-30 11:30:13.701432
1168  2023-10-30 11:30:13.747309
1169  2023-10-30 11:30:13.795181
1170  2023-10-30 11:30:13.827096
1171  2023-10-30 11:30:13.874968
1172  2023-10-30 11:30:13.906882
1173  2023-10-30 11:30:13.954754
1174  2023-10-30 11:30:14.001730
1175  2023-10-30 11:30:14.032612
1176  2023-10-30 11:30:14.080530
1177  2023-10-30 11:30:14.128402
1178  2023-10-30 11:30:14.160359
1179  2023-10-30 11:30:14.208188
1180  2023-10-30 11:30:14.241146
1181  2023-10-30 11:30:14.287975
1182  2023-10-30 11:30:14.335847
1183  2023-10-30 11:30:14.367762
1184  2023-10-30 11:30:14.415634
1185  2023-10-30 11:30:14.463545
1186  2023-10-30 11:30:14.495461
1187  2023-10-30 11:30:14.543292
1188  2023-10-30 11:30:14.575207
1189  2023-10-30 11:30:14.622082
1190  2023-10-30 11:30:14.668813
1191  2023-10-30 11:30:14.698807
1192  2023-10-30 11:30:14.746813
1193  2023-10-30 11:30:14.794802
1194  2023-10-30 11:30:14.826849
1195  2023-10-30 11:30:14.874799
1196  2023-10-30 11:30:14.906718
1197  2023-10-30 11:30:14.954542
1198  2023-10-30 11:30:15.002412
1199  2023-10-30 11:30:15.034375
1200  2023-10-30 11:30:15.080664
1201  2023-10-30 11:30:15.127548
1202  2023-10-30 11:30:15.159449
1203  2023-10-30 11:30:15.207320
1204  2023-10-30 11:30:15.253331
1205  2023-10-30 11:30:15.285235
1206  2023-10-30 11:30:15.332085
1207  2023-10-30 11:30:15.379096
1208  2023-10-30 11:30:15.411132
1209  2023-10-30 11:30:15.458999
1210  2023-10-30 11:30:15.490908
1211  2023-10-30 11:30:15.538779
1212  2023-10-30 11:30:15.586797
1213  2023-10-30 11:30:15.618975
1214  2023-10-30 11:30:15.666703
1215  2023-10-30 11:30:15.698617
1216  2023-10-30 11:30:15.744615
1217  2023-10-30 11:30:15.791522
1218  2023-10-30 11:30:15.838405
1219  2023-10-30 11:30:15.870391
1220  2023-10-30 11:30:15.916412
1221  2023-10-30 11:30:15.962279
1222  2023-10-30 11:30:15.993937
1223  2023-10-30 11:30:16.041869
1224  2023-10-30 11:30:16.073933
1225  2023-10-30 11:30:16.121762
1226  2023-10-30 11:30:16.168686
1227  2023-10-30 11:30:16.200550
1228  2023-10-30 11:30:16.247459
1229  2023-10-30 11:30:16.294335
1230  2023-10-30 11:30:16.326247
1231  2023-10-30 11:30:16.374087
1232  2023-10-30 11:30:16.418966
1233  2023-10-30 11:30:16.450881
1234  2023-10-30 11:30:16.497081
1235  2023-10-30 11:30:16.544994
1236  2023-10-30 11:30:16.576909
1237  2023-10-30 11:30:16.624781
1238  2023-10-30 11:30:16.656695
1239  2023-10-30 11:30:16.704567
1240  2023-10-30 11:30:16.752440
1241  2023-10-30 11:30:16.784354
1242  2023-10-30 11:30:16.832226
1243  2023-10-30 11:30:16.878104
1244  2023-10-30 11:30:16.910018
1245  2023-10-30 11:30:16.957938
1246  2023-10-30 11:30:16.989847
1247  2023-10-30 11:30:17.037763
1248  2023-10-30 11:30:17.084965
1249  2023-10-30 11:30:17.115938
1250  2023-10-30 11:30:17.163943
1251  2023-10-30 11:30:17.211868
1252  2023-10-30 11:30:17.243858
1253  2023-10-30 11:30:17.291728
1254  2023-10-30 11:30:17.323649
1255  2023-10-30 11:30:17.369531
1256  2023-10-30 11:30:17.416481
1257  2023-10-30 11:30:17.463343
1258  2023-10-30 11:30:17.494261
1259  2023-10-30 11:30:17.541150
1260  2023-10-30 11:30:17.588094
1261  2023-10-30 11:30:17.620009
1262  2023-10-30 11:30:17.667924
1263  2023-10-30 11:30:17.712761
1264  2023-10-30 11:30:17.744675
1265  2023-10-30 11:30:17.792547
1266  2023-10-30 11:30:17.824462
1267  2023-10-30 11:30:17.872334
1268  2023-10-30 11:30:17.920206
1269  2023-10-30 11:30:17.952121
1270  2023-10-30 11:30:17.998049
1271  2023-10-30 11:30:18.045870
1272  2023-10-30 11:30:18.077785
1273  2023-10-30 11:30:18.125792
1274  2023-10-30 11:30:18.157720
1275  2023-10-30 11:30:18.205548
1276  2023-10-30 11:30:18.253420
1277  2023-10-30 11:30:18.285335
1278  2023-10-30 11:30:18.332241
1279  2023-10-30 11:30:18.379123
1280  2023-10-30 11:30:18.411031
1281  2023-10-30 11:30:18.458968
1282  2023-10-30 11:30:18.490851
1283  2023-10-30 11:30:18.535846
1284  2023-10-30 11:30:18.582727
1285  2023-10-30 11:30:18.629599
1286  2023-10-30 11:30:18.659485
1287  2023-10-30 11:30:18.707454
1288  2023-10-30 11:30:18.754232
1289  2023-10-30 11:30:18.785148
1290  2023-10-30 11:30:18.832023
1291  2023-10-30 11:30:18.879895
1292  2023-10-30 11:30:18.911844
1293  2023-10-30 11:30:18.959713
1294  2023-10-30 11:30:18.991596
1295  2023-10-30 11:30:19.038505
1296  2023-10-30 11:30:19.085464
1297  2023-10-30 11:30:19.117386
1298  2023-10-30 11:30:19.165291
1299  2023-10-30 11:30:19.213159
1300  2023-10-30 11:30:19.245044
1301  2023-10-30 11:30:19.292961
1302  2023-10-30 11:30:19.324864
1303  2023-10-30 11:30:19.372703
1304  2023-10-30 11:30:19.419603
1305  2023-10-30 11:30:19.450528
1306  2023-10-30 11:30:19.498405
1307  2023-10-30 11:30:19.546272
1308  2023-10-30 11:30:19.578189
1309  2023-10-30 11:30:19.626060
1310  2023-10-30 11:30:19.657972
1311  2023-10-30 11:30:19.705812
1312  2023-10-30 11:30:19.753728
1313  2023-10-30 11:30:19.785646
1314  2023-10-30 11:30:19.833507
1315  2023-10-30 11:30:19.865427
1316  2023-10-30 11:30:19.913294
1317  2023-10-30 11:30:19.961130
1318  2023-10-30 11:30:19.993046
1319  2023-10-30 11:30:20.040957
1320  2023-10-30 11:30:20.087793
1321  2023-10-30 11:30:20.119752
1322  2023-10-30 11:30:20.167614
1323  2023-10-30 11:30:20.199524
1324  2023-10-30 11:30:20.247395
1325  2023-10-30 11:30:20.295276
1326  2023-10-30 11:30:20.327182
1327  2023-10-30 11:30:20.373065
1328  2023-10-30 11:30:20.419903
1329  2023-10-30 11:30:20.450858
1330  2023-10-30 11:30:20.497726
1331  2023-10-30 11:30:20.545568
1332  2023-10-30 11:30:20.577525
1333  2023-10-30 11:30:20.623359
1334  2023-10-30 11:30:20.670268
1335  2023-10-30 11:30:20.701183
1336  2023-10-30 11:30:20.749053
1337  2023-10-30 11:30:20.796926
1338  2023-10-30 11:30:20.828842
1339  2023-10-30 11:30:20.876682
1340  2023-10-30 11:30:20.908597
1341  2023-10-30 11:30:20.955508
1342  2023-10-30 11:30:21.002388
1343  2023-10-30 11:30:21.034261
1344  2023-10-30 11:30:21.082172
1345  2023-10-30 11:30:21.130035
1346  2023-10-30 11:30:21.161949
1347  2023-10-30 11:30:21.209824
1348  2023-10-30 11:30:21.241746
1349  2023-10-30 11:30:21.289613
1350  2023-10-30 11:30:21.337450
1351  2023-10-30 11:30:21.368399
1352  2023-10-30 11:30:21.415278
1353  2023-10-30 11:30:21.463145
1354  2023-10-30 11:30:21.494063
1355  2023-10-30 11:30:21.541920
1356  2023-10-30 11:30:21.587781
1357  2023-10-30 11:30:21.618698
1358  2023-10-30 11:30:21.666600
1359  2023-10-30 11:30:21.698518
1360  2023-10-30 11:30:21.746357
1361  2023-10-30 11:30:21.794343
1362  2023-10-30 11:30:21.826144
1363  2023-10-30 11:30:21.872022
1364  2023-10-30 11:30:21.917898
1365  2023-10-30 11:30:21.949813
1366  2023-10-30 11:30:21.997720
1367  2023-10-30 11:30:22.045557
1368  2023-10-30 11:30:22.076474
1369  2023-10-30 11:30:22.122352
1370  2023-10-30 11:30:22.169266
1371  2023-10-30 11:30:22.201174
1372  2023-10-30 11:30:22.249044
1373  2023-10-30 11:30:22.296915
1374  2023-10-30 11:30:22.328848
1375  2023-10-30 11:30:22.376703
1376  2023-10-30 11:30:22.408618
1377  2023-10-30 11:30:22.456497
1378  2023-10-30 11:30:22.502369
1379  2023-10-30 11:30:22.534281
1380  2023-10-30 11:30:22.582124
1381  2023-10-30 11:30:22.630040
1382  2023-10-30 11:30:22.661910
1383  2023-10-30 11:30:22.710816
1384  2023-10-30 11:30:22.741741
1385  2023-10-30 11:30:22.789601
1386  2023-10-30 11:30:22.837474
1387  2023-10-30 11:30:22.869388
1388  2023-10-30 11:30:22.917257
1389  2023-10-30 11:30:22.948177
1390  2023-10-30 11:30:22.995050
1391  2023-10-30 11:30:23.042926
1392  2023-10-30 11:30:23.075804
1393  2023-10-30 11:30:23.122716
1394  2023-10-30 11:30:23.168610
1395  2023-10-30 11:30:23.200506
1396  2023-10-30 11:30:23.248342
1397  2023-10-30 11:30:23.296249
1398  2023-10-30 11:30:23.327533
1399  2023-10-30 11:30:23.374501
1400  2023-10-30 11:30:23.421422
1401  2023-10-30 11:30:23.453396
1402  2023-10-30 11:30:23.499306
1403  2023-10-30 11:30:23.546180
1404  2023-10-30 11:30:23.577178
1405  2023-10-30 11:30:23.623970
1406  2023-10-30 11:30:23.670868
1407  2023-10-30 11:30:23.701767
1408  2023-10-30 11:30:23.748606
1409  2023-10-30 11:30:23.794517
1410  2023-10-30 11:30:23.825456
1411  2023-10-30 11:30:23.873304
1412  2023-10-30 11:30:23.920182
1413  2023-10-30 11:30:23.951099
1414  2023-10-30 11:30:23.996975
1415  2023-10-30 11:30:24.044816
1416  2023-10-30 11:30:24.076730
1417  2023-10-30 11:30:24.124643
1418  2023-10-30 11:30:24.171516
1419  2023-10-30 11:30:24.203423
1420  2023-10-30 11:30:24.251296
1421  2023-10-30 11:30:24.283177
1422  2023-10-30 11:30:24.331091
1423  2023-10-30 11:30:24.378959
1424  2023-10-30 11:30:24.410869
1425  2023-10-30 11:30:24.458741
1426  2023-10-30 11:30:24.490661
1427  2023-10-30 11:30:24.538496
1428  2023-10-30 11:30:24.586400
1429  2023-10-30 11:30:24.618314
1430  2023-10-30 11:30:24.665187
1431  2023-10-30 11:30:24.713060
1432  2023-10-30 11:30:24.744973
1433  2023-10-30 11:30:24.792845
1434  2023-10-30 11:30:24.824745
1435  2023-10-30 11:30:24.872603
1436  2023-10-30 11:30:24.920499
1437  2023-10-30 11:30:24.951681
1438  2023-10-30 11:30:24.997371
1439  2023-10-30 11:30:25.044243
1440  2023-10-30 11:30:25.076153
1441  2023-10-30 11:30:25.124023
1442  2023-10-30 11:30:25.171891
1443  2023-10-30 11:30:25.203811
1444  2023-10-30 11:30:25.251683
1445  2023-10-30 11:30:25.282605
1446  2023-10-30 11:30:25.329481
1447  2023-10-30 11:30:25.376427
1448  2023-10-30 11:30:25.408341
1449  2023-10-30 11:30:25.456232
1450  2023-10-30 11:30:25.504083
1451  2023-10-30 11:30:25.535998
1452  2023-10-30 11:30:25.584059
1453  2023-10-30 11:30:25.615789
1454  2023-10-30 11:30:25.663663
1455  2023-10-30 11:30:25.711541
1456  2023-10-30 11:30:25.743472
1457  2023-10-30 11:30:25.791328
1458  2023-10-30 11:30:25.823231
1459  2023-10-30 11:30:25.871103
1460  2023-10-30 11:30:25.919097
1461  2023-10-30 11:30:25.950892
1462  2023-10-30 11:30:25.997765
1463  2023-10-30 11:30:26.044659
1464  2023-10-30 11:30:26.077557
1465  2023-10-30 11:30:26.124426
1466  2023-10-30 11:30:26.170304
1467  2023-10-30 11:30:26.202217
1468  2023-10-30 11:30:26.248096
1469  2023-10-30 11:30:26.295968
1470  2023-10-30 11:30:26.327851
1471  2023-10-30 11:30:26.375760
1472  2023-10-30 11:30:26.407670
1473  2023-10-30 11:30:26.454514
1474  2023-10-30 11:30:26.502384
1475  2023-10-30 11:30:26.534298
1476  2023-10-30 11:30:26.582204
1477  2023-10-30 11:30:26.630043
1478  2023-10-30 11:30:26.661960
1479  2023-10-30 11:30:26.710871
1480  2023-10-30 11:30:26.741778
1481  2023-10-30 11:30:26.789618
1482  2023-10-30 11:30:26.838522
1483  2023-10-30 11:30:26.869403
1484  2023-10-30 11:30:26.917310
1485  2023-10-30 11:30:26.948311
1486  2023-10-30 11:30:26.995100
1487  2023-10-30 11:30:27.042940
1488  2023-10-30 11:30:27.074897
1489  2023-10-30 11:30:27.121759
1490  2023-10-30 11:30:27.169641
1491  2023-10-30 11:30:27.201553
1492  2023-10-30 11:30:27.247425
1493  2023-10-30 11:30:27.295295
1494  2023-10-30 11:30:27.327210
1495  2023-10-30 11:30:27.375082
1496  2023-10-30 11:30:27.406998
1497  2023-10-30 11:30:27.454878
1498  2023-10-30 11:30:27.502739
1499  2023-10-30 11:30:27.534659
1500  2023-10-30 11:30:27.582587
1501  2023-10-30 11:30:27.629593
1502  2023-10-30 11:30:27.660507
1503  2023-10-30 11:30:27.708376
1504  2023-10-30 11:30:27.740286
1505  2023-10-30 11:30:27.786163
1506  2023-10-30 11:30:27.834039
1507  2023-10-30 11:30:27.865949
1508  2023-10-30 11:30:27.912829
1509  2023-10-30 11:30:27.960667
1510  2023-10-30 11:30:27.992582
1511  2023-10-30 11:30:28.038493
1512  2023-10-30 11:30:28.086332
1513  2023-10-30 11:30:28.118245
1514  2023-10-30 11:30:28.166117
1515  2023-10-30 11:30:28.213046
1516  2023-10-30 11:30:28.243909
1517  2023-10-30 11:30:28.291781
1518  2023-10-30 11:30:28.323696
1519  2023-10-30 11:30:28.371568
1520  2023-10-30 11:30:28.419483
1521  2023-10-30 11:30:28.451388
1522  2023-10-30 11:30:28.499261
1523  2023-10-30 11:30:28.546132
1524  2023-10-30 11:30:28.577048
1525  2023-10-30 11:30:28.623894
1526  2023-10-30 11:30:28.670807
1527  2023-10-30 11:30:28.701727
1528  2023-10-30 11:30:28.749600
1529  2023-10-30 11:30:28.781524
1530  2023-10-30 11:30:28.829377
1531  2023-10-30 11:30:28.877216
1532  2023-10-30 11:30:28.909130
1533  2023-10-30 11:30:28.957034
1534  2023-10-30 11:30:29.004909
1535  2023-10-30 11:30:29.036901
1536  2023-10-30 11:30:29.084764
1537  2023-10-30 11:30:29.116682
1538  2023-10-30 11:30:29.164553
1539  2023-10-30 11:30:29.212432
1540  2023-10-30 11:30:29.243342
1541  2023-10-30 11:30:29.290228
1542  2023-10-30 11:30:29.338089
1543  2023-10-30 11:30:29.368974
1544  2023-10-30 11:30:29.414887
1545  2023-10-30 11:30:29.461725
1546  2023-10-30 11:30:29.492643
1547  2023-10-30 11:30:29.539517
1548  2023-10-30 11:30:29.587389
1549  2023-10-30 11:30:29.619304
1550  2023-10-30 11:30:29.667176
1551  2023-10-30 11:30:29.699091
1552  2023-10-30 11:30:29.746000
1553  2023-10-30 11:30:29.792873
1554  2023-10-30 11:30:29.824756
1555  2023-10-30 11:30:29.872662
1556  2023-10-30 11:30:29.920532
1557  2023-10-30 11:30:29.952448
1558  2023-10-30 11:30:30.000324
1559  2023-10-30 11:30:30.032238
1560  2023-10-30 11:30:30.080105
1561  2023-10-30 11:30:30.127975
1562  2023-10-30 11:30:30.159893
1563  2023-10-30 11:30:30.207772
1564  2023-10-30 11:30:30.254664
1565  2023-10-30 11:30:30.286551
1566  2023-10-30 11:30:30.333434
1567  2023-10-30 11:30:30.380327
1568  2023-10-30 11:30:30.412209
1569  2023-10-30 11:30:30.460096
1570  2023-10-30 11:30:30.490015
1571  2023-10-30 11:30:30.536852
1572  2023-10-30 11:30:30.584777
1573  2023-10-30 11:30:30.616670
1574  2023-10-30 11:30:30.663654
1575  2023-10-30 11:30:30.711415
1576  2023-10-30 11:30:30.743329
1577  2023-10-30 11:30:30.791175
1578  2023-10-30 11:30:30.824084
1579  2023-10-30 11:30:30.868963
1580  2023-10-30 11:30:30.916836
1581  2023-10-30 11:30:30.948811
1582  2023-10-30 11:30:30.996622
1583  2023-10-30 11:30:31.044498
1584  2023-10-30 11:30:31.076408
1585  2023-10-30 11:30:31.124280
1586  2023-10-30 11:30:31.171155
1587  2023-10-30 11:30:31.202073
1588  2023-10-30 11:30:31.249058
1589  2023-10-30 11:30:31.296065
1590  2023-10-30 11:30:31.328007
1591  2023-10-30 11:30:31.373889
1592  2023-10-30 11:30:31.421762
1593  2023-10-30 11:30:31.451677
1594  2023-10-30 11:30:31.497646
1595  2023-10-30 11:30:31.545670
1596  2023-10-30 11:30:31.577429
1597  2023-10-30 11:30:31.626297
1598  2023-10-30 11:30:31.658237
1599  2023-10-30 11:30:31.706105
1600  2023-10-30 11:30:31.753953
1601  2023-10-30 11:30:31.785870
1602  2023-10-30 11:30:31.832713
1603  2023-10-30 11:30:31.879619
1604  2023-10-30 11:30:31.910506
1605  2023-10-30 11:30:31.959393
1606  2023-10-30 11:30:31.990291
1607  2023-10-30 11:30:32.038163
1608  2023-10-30 11:30:32.087034
1609  2023-10-30 11:30:32.118976
1610  2023-10-30 11:30:32.165225
1611  2023-10-30 11:30:32.213099
1612  2023-10-30 11:30:32.245041
1613  2023-10-30 11:30:32.292884
1614  2023-10-30 11:30:32.324898
1615  2023-10-30 11:30:32.372851
1616  2023-10-30 11:30:32.419693
1617  2023-10-30 11:30:32.450611
1618  2023-10-30 11:30:32.498483
1619  2023-10-30 11:30:32.546355
1620  2023-10-30 11:30:32.578269
1621  2023-10-30 11:30:32.626141
1622  2023-10-30 11:30:32.658056
1623  2023-10-30 11:30:32.703974
1624  2023-10-30 11:30:32.751996
1625  2023-10-30 11:30:32.783945
1626  2023-10-30 11:30:32.831850
1627  2023-10-30 11:30:32.879737
1628  2023-10-30 11:30:32.911650
1629  2023-10-30 11:30:32.959519
1630  2023-10-30 11:30:32.991391
1631  2023-10-30 11:30:33.039307
1632  2023-10-30 11:30:33.086177
1633  2023-10-30 11:30:33.117091
1634  2023-10-30 11:30:33.163086
1635  2023-10-30 11:30:33.211050
1636  2023-10-30 11:30:33.242965
1637  2023-10-30 11:30:33.290838
1638  2023-10-30 11:30:33.337714
1639  2023-10-30 11:30:33.368659
1640  2023-10-30 11:30:33.416644
1641  2023-10-30 11:30:33.448640
1642  2023-10-30 11:30:33.496611
1643  2023-10-30 11:30:33.544479
1644  2023-10-30 11:30:33.576398
1645  2023-10-30 11:30:33.625218
1646  2023-10-30 11:30:33.670098
1647  2023-10-30 11:30:33.702086
1648  2023-10-30 11:30:33.751043
1649  2023-10-30 11:30:33.782956
1650  2023-10-30 11:30:33.829795
1651  2023-10-30 11:30:33.875733
1652  2023-10-30 11:30:33.907745
1653  2023-10-30 11:30:33.955617
1654  2023-10-30 11:30:34.003345
1655  2023-10-30 11:30:34.035260
1656  2023-10-30 11:30:34.083132
1657  2023-10-30 11:30:34.115046
1658  2023-10-30 11:30:34.162918
1659  2023-10-30 11:30:34.210791
1660  2023-10-30 11:30:34.242834
1661  2023-10-30 11:30:34.290784
1662  2023-10-30 11:30:34.336662
1663  2023-10-30 11:30:34.368533
1664  2023-10-30 11:30:34.416579
1665  2023-10-30 11:30:34.448508
1666  2023-10-30 11:30:34.496585
1667  2023-10-30 11:30:34.542375
1668  2023-10-30 11:30:34.574057
1669  2023-10-30 11:30:34.621895
1670  2023-10-30 11:30:34.669842
1671  2023-10-30 11:30:34.700835
1672  2023-10-30 11:30:34.747716
1673  2023-10-30 11:30:34.795102
1674  2023-10-30 11:30:34.827047
1675  2023-10-30 11:30:34.874951
1676  2023-10-30 11:30:34.906857
1677  2023-10-30 11:30:34.954754
1678  2023-10-30 11:30:35.001629
1679  2023-10-30 11:30:35.033536
1680  2023-10-30 11:30:35.081426
1681  2023-10-30 11:30:35.129247
1682  2023-10-30 11:30:35.161163
1683  2023-10-30 11:30:35.209085
1684  2023-10-30 11:30:35.240982
1685  2023-10-30 11:30:35.288864
1686  2023-10-30 11:30:35.336718
1687  2023-10-30 11:30:35.367612
1688  2023-10-30 11:30:35.414526
1689  2023-10-30 11:30:35.463395
1690  2023-10-30 11:30:35.495333
1691  2023-10-30 11:30:35.543207
1692  2023-10-30 11:30:35.575102
1693  2023-10-30 11:30:35.622971
1694  2023-10-30 11:30:35.667807
1695  2023-10-30 11:30:35.699722
1696  2023-10-30 11:30:35.747594
1697  2023-10-30 11:30:35.793471
1698  2023-10-30 11:30:35.825486
1699  2023-10-30 11:30:35.873358
1700  2023-10-30 11:30:35.921230
1701  2023-10-30 11:30:35.953145
1702  2023-10-30 11:30:36.000372
1703  2023-10-30 11:30:36.032287
1704  2023-10-30 11:30:36.080252
1705  2023-10-30 11:30:36.128079
1706  2023-10-30 11:30:36.158058
1707  2023-10-30 11:30:36.204036
1708  2023-10-30 11:30:36.249755
1709  2023-10-30 11:30:36.295684
1710  2023-10-30 11:30:36.327546
1711  2023-10-30 11:30:36.375419
1712  2023-10-30 11:30:36.407333
1713  2023-10-30 11:30:36.455287
1714  2023-10-30 11:30:36.504163
1715  2023-10-30 11:30:36.536061
1716  2023-10-30 11:30:36.581942
1717  2023-10-30 11:30:36.628781
1718  2023-10-30 11:30:36.661839
1719  2023-10-30 11:30:36.708724
1720  2023-10-30 11:30:36.740627
1721  2023-10-30 11:30:36.788500
1722  2023-10-30 11:30:36.837408
1723  2023-10-30 11:30:36.868286
1724  2023-10-30 11:30:36.917319
1725  2023-10-30 11:30:36.948330
1726  2023-10-30 11:30:36.996201
1727  2023-10-30 11:30:37.044073
1728  2023-10-30 11:30:37.075988
1729  2023-10-30 11:30:37.123860
1730  2023-10-30 11:30:37.170735
1731  2023-10-30 11:30:37.200655
1732  2023-10-30 11:30:37.247530
1733  2023-10-30 11:30:37.295402
1734  2023-10-30 11:30:37.327316
1735  2023-10-30 11:30:37.373241
1736  2023-10-30 11:30:37.420473
1737  2023-10-30 11:30:37.452499
1738  2023-10-30 11:30:37.500376
1739  2023-10-30 11:30:37.532291
1740  2023-10-30 11:30:37.580301
1741  2023-10-30 11:30:37.628166
1742  2023-10-30 11:30:37.660075
1743  2023-10-30 11:30:37.707342
1744  2023-10-30 11:30:37.755207
1745  2023-10-30 11:30:37.787136
1746  2023-10-30 11:30:37.833960
1747  2023-10-30 11:30:37.865912
1748  2023-10-30 11:30:37.913777
1749  2023-10-30 11:30:37.961651
1750  2023-10-30 11:30:37.993563
1751  2023-10-30 11:30:38.041402
1752  2023-10-30 11:30:38.073359
1753  2023-10-30 11:30:38.121219
1754  2023-10-30 11:30:38.169090
1755  2023-10-30 11:30:38.200977
1756  2023-10-30 11:30:38.247883
1757  2023-10-30 11:30:38.294775
1758  2023-10-30 11:30:38.324681
1759  2023-10-30 11:30:38.373515
1760  2023-10-30 11:30:38.419390
1761  2023-10-30 11:30:38.451305
1762  2023-10-30 11:30:38.499177
1763  2023-10-30 11:30:38.546052
1764  2023-10-30 11:30:38.577202
1765  2023-10-30 11:30:38.622983
1766  2023-10-30 11:30:38.670841
1767  2023-10-30 11:30:38.702762
1768  2023-10-30 11:30:38.750696
1769  2023-10-30 11:30:38.782669
1770  2023-10-30 11:30:38.830576
1771  2023-10-30 11:30:38.878607
1772  2023-10-30 11:30:38.910527
1773  2023-10-30 11:30:38.958424
1774  2023-10-30 11:30:38.990339
1775  2023-10-30 11:30:39.038219
1776  2023-10-30 11:30:39.086143
1777  2023-10-30 11:30:39.118057
1778  2023-10-30 11:30:39.166024
1779  2023-10-30 11:30:39.212897
1780  2023-10-30 11:30:39.243812
1781  2023-10-30 11:30:39.289690
1782  2023-10-30 11:30:39.335585
1783  2023-10-30 11:30:39.366502
1784  2023-10-30 11:30:39.414408
1785  2023-10-30 11:30:39.461316
1786  2023-10-30 11:30:39.494227
1787  2023-10-30 11:30:39.542100
1788  2023-10-30 11:30:39.587995
1789  2023-10-30 11:30:39.620074
1790  2023-10-30 11:30:39.667768
1791  2023-10-30 11:30:39.699662
1792  2023-10-30 11:30:39.747834
1793  2023-10-30 11:30:39.795708
1794  2023-10-30 11:30:39.827623
1795  2023-10-30 11:30:39.876509
1796  2023-10-30 11:30:39.921340
1797  2023-10-30 11:30:39.953410
1798  2023-10-30 11:30:40.001319
1799  2023-10-30 11:30:40.033233
1800  2023-10-30 11:30:40.081105
1801  2023-10-30 11:30:40.127731
1802  2023-10-30 11:30:40.158636
1803  2023-10-30 11:30:40.206478
1804  2023-10-30 11:30:40.254377
1805  2023-10-30 11:30:40.285268
1806  2023-10-30 11:30:40.331266
1807  2023-10-30 11:30:40.378132
1808  2023-10-30 11:30:40.410049
1809  2023-10-30 11:30:40.458074
1810  2023-10-30 11:30:40.489835
1811  2023-10-30 11:30:40.537701
1812  2023-10-30 11:30:40.585580
1813  2023-10-30 11:30:40.617488
1814  2023-10-30 11:30:40.665362
1815  2023-10-30 11:30:40.713231
1816  2023-10-30 11:30:40.745144
1817  2023-10-30 11:30:40.793022
1818  2023-10-30 11:30:40.824933
1819  2023-10-30 11:30:40.872774
1820  2023-10-30 11:30:40.918701
1821  2023-10-30 11:30:40.950603
1822  2023-10-30 11:30:40.998473
1823  2023-10-30 11:30:41.046344
1824  2023-10-30 11:30:41.078228
1825  2023-10-30 11:30:41.126127
1826  2023-10-30 11:30:41.158047
1827  2023-10-30 11:30:41.205862
1828  2023-10-30 11:30:41.253864
1829  2023-10-30 11:30:41.285475
1830  2023-10-30 11:30:41.333352
1831  2023-10-30 11:30:41.365264
1832  2023-10-30 11:30:41.413102
1833  2023-10-30 11:30:41.461012
1834  2023-10-30 11:30:41.491935
1835  2023-10-30 11:30:41.539796
1836  2023-10-30 11:30:41.587636
1837  2023-10-30 11:30:41.619551
1838  2023-10-30 11:30:41.667421
1839  2023-10-30 11:30:41.699337
1840  2023-10-30 11:30:41.747263
1841  2023-10-30 11:30:41.794120
1842  2023-10-30 11:30:41.826028
1843  2023-10-30 11:30:41.873903
1844  2023-10-30 11:30:41.922740
1845  2023-10-30 11:30:41.954688
1846  2023-10-30 11:30:42.002564
1847  2023-10-30 11:30:42.033445
1848  2023-10-30 11:30:42.082346
1849  2023-10-30 11:30:42.130216
1850  2023-10-30 11:30:42.162137
1851  2023-10-30 11:30:42.208973
1852  2023-10-30 11:30:42.242012
1853  2023-10-30 11:30:42.288955
1854  2023-10-30 11:30:42.336826
1855  2023-10-30 11:30:42.368741
1856  2023-10-30 11:30:42.416772
1857  2023-10-30 11:30:42.448601
1858  2023-10-30 11:30:42.496484
1859  2023-10-30 11:30:42.544489
1860  2023-10-30 11:30:42.575406
1861  2023-10-30 11:30:42.622281
1862  2023-10-30 11:30:42.668804
1863  2023-10-30 11:30:42.699615
1864  2023-10-30 11:30:42.747483
1865  2023-10-30 11:30:42.794329
1866  2023-10-30 11:30:42.826244
1867  2023-10-30 11:30:42.874155
1868  2023-10-30 11:30:42.921033
1869  2023-10-30 11:30:42.951936
1870  2023-10-30 11:30:42.999811
1871  2023-10-30 11:30:43.031725
1872  2023-10-30 11:30:43.079599
1873  2023-10-30 11:30:43.127473
1874  2023-10-30 11:30:43.159400
1875  2023-10-30 11:30:43.208223
1876  2023-10-30 11:30:43.255096
1877  2023-10-30 11:30:43.287012
1878  2023-10-30 11:30:43.334925
1879  2023-10-30 11:30:43.367836
1880  2023-10-30 11:30:43.414701
1881  2023-10-30 11:30:43.463583
1882  2023-10-30 11:30:43.494490
1883  2023-10-30 11:30:43.543358
1884  2023-10-30 11:30:43.574287
1885  2023-10-30 11:30:43.621152
1886  2023-10-30 11:30:43.668991
1887  2023-10-30 11:30:43.699908
1888  2023-10-30 11:30:43.746781
1889  2023-10-30 11:30:43.794700
1890  2023-10-30 11:30:43.825604
1891  2023-10-30 11:30:43.872446
1892  2023-10-30 11:30:43.918324
1893  2023-10-30 11:30:43.950239
1894  2023-10-30 11:30:43.998150
1895  2023-10-30 11:30:44.046057
1896  2023-10-30 11:30:44.077974
1897  2023-10-30 11:30:44.125809
1898  2023-10-30 11:30:44.156838
1899  2023-10-30 11:30:44.202748
1900  2023-10-30 11:30:44.249622
1901  2023-10-30 11:30:44.281506
1902  2023-10-30 11:30:44.329420
1903  2023-10-30 11:30:44.377279
1904  2023-10-30 11:30:44.409198
1905  2023-10-30 11:30:44.457037
1906  2023-10-30 11:30:44.504948
1907  2023-10-30 11:30:44.536822
1908  2023-10-30 11:30:44.584726
1909  2023-10-30 11:30:44.616644
1910  2023-10-30 11:30:44.664519
1911  2023-10-30 11:30:44.712383
1912  2023-10-30 11:30:44.744297
1913  2023-10-30 11:30:44.792139
1914  2023-10-30 11:30:44.824173
1915  2023-10-30 11:30:44.871974
1916  2023-10-30 11:30:44.919828
1917  2023-10-30 11:30:44.950731
1918  2023-10-30 11:30:44.997626
1919  2023-10-30 11:30:45.045498
1920  2023-10-30 11:30:45.077414
1921  2023-10-30 11:30:45.125281
1922  2023-10-30 11:30:45.157197
1923  2023-10-30 11:30:45.203072
1924  2023-10-30 11:30:45.247958
1925  2023-10-30 11:30:45.295830
1926  2023-10-30 11:30:45.327739
1927  2023-10-30 11:30:45.374164
1928  2023-10-30 11:30:45.421030
1929  2023-10-30 11:30:45.452916
1930  2023-10-30 11:30:45.500962
1931  2023-10-30 11:30:45.532736
1932  2023-10-30 11:30:45.577696
1933  2023-10-30 11:30:45.624532
1934  2023-10-30 11:30:45.656447
1935  2023-10-30 11:30:45.704319
1936  2023-10-30 11:30:45.752225
1937  2023-10-30 11:30:45.784139
1938  2023-10-30 11:30:45.832016
1939  2023-10-30 11:30:45.879886
1940  2023-10-30 11:30:45.910768
1941  2023-10-30 11:30:45.958681
1942  2023-10-30 11:30:45.990616
1943  2023-10-30 11:30:46.037461
1944  2023-10-30 11:30:46.084418
1945  2023-10-30 11:30:46.117438
1946  2023-10-30 11:30:46.164310
1947  2023-10-30 11:30:46.211187
1948  2023-10-30 11:30:46.243101
1949  2023-10-30 11:30:46.290975
1950  2023-10-30 11:30:46.336853
1951  2023-10-30 11:30:46.368768
1952  2023-10-30 11:30:46.416641
1953  2023-10-30 11:30:46.448554
1954  2023-10-30 11:30:46.496427
1955  2023-10-30 11:30:46.544294
1956  2023-10-30 11:30:46.576209
1957  2023-10-30 11:30:46.624086
1958  2023-10-30 11:30:46.670957
1959  2023-10-30 11:30:46.702870
1960  2023-10-30 11:30:46.750746
1961  2023-10-30 11:30:46.796310
1962  2023-10-30 11:30:46.828281
1963  2023-10-30 11:30:46.876186
1964  2023-10-30 11:30:46.908099
1965  2023-10-30 11:30:46.953980
1966  2023-10-30 11:30:47.001818
1967  2023-10-30 11:30:47.031772
1968  2023-10-30 11:30:47.079642
1969  2023-10-30 11:30:47.127483
1970  2023-10-30 11:30:47.159396
1971  2023-10-30 11:30:47.208301
1972  2023-10-30 11:30:47.254143
1973  2023-10-30 11:30:47.285093
1974  2023-10-30 11:30:47.331967
1975  2023-10-30 11:30:47.378842
1976  2023-10-30 11:30:47.410781
1977  2023-10-30 11:30:47.458599
1978  2023-10-30 11:30:47.490545
1979  2023-10-30 11:30:47.536388
1980  2023-10-30 11:30:47.584261
1981  2023-10-30 11:30:47.616209
1982  2023-10-30 11:30:47.664145
1983  2023-10-30 11:30:47.712023
1984  2023-10-30 11:30:47.741938
1985  2023-10-30 11:30:47.789806
1986  2023-10-30 11:30:47.837689
1987  2023-10-30 11:30:47.870605
1988  2023-10-30 11:30:47.918482
1989  2023-10-30 11:30:47.950381
1990  2023-10-30 11:30:47.998254
1991  2023-10-30 11:30:48.046119
1992  2023-10-30 11:30:48.078039
1993  2023-10-30 11:30:48.124879
1994  2023-10-30 11:30:48.157791
1995  2023-10-30 11:30:48.204698
1996  2023-10-30 11:30:48.252577
1997  2023-10-30 11:30:48.284492
1998  2023-10-30 11:30:48.332355
1999  2023-10-30 11:30:48.380239
2000  2023-10-30 11:30:48.412153
2001  2023-10-30 11:30:48.457988
2002  2023-10-30 11:30:48.504507
2003  2023-10-30 11:30:48.536423
2004  2023-10-30 11:30:48.584291
2005  2023-10-30 11:30:48.616314
2006  2023-10-30 11:30:48.664082
2007  2023-10-30 11:30:48.711957
2008  2023-10-30 11:30:48.743865
2009  2023-10-30 11:30:48.791706
2010  2023-10-30 11:30:48.823621
2011  2023-10-30 11:30:48.870495
2012  2023-10-30 11:30:48.918369
2013  2023-10-30 11:30:48.950286
2014  2023-10-30 11:30:48.997194
2015  2023-10-30 11:30:49.044032
2016  2023-10-30 11:30:49.075031
2017  2023-10-30 11:30:49.122902
2018  2023-10-30 11:30:49.169778
2019  2023-10-30 11:30:49.199669
2020  2023-10-30 11:30:49.246778
2021  2023-10-30 11:30:49.294492
2022  2023-10-30 11:30:49.325417
2023  2023-10-30 11:30:49.373283
2024  2023-10-30 11:30:49.421155
2025  2023-10-30 11:30:49.453071
2026  2023-10-30 11:30:49.500944
2027  2023-10-30 11:30:49.532860
2028  2023-10-30 11:30:49.580728
2029  2023-10-30 11:30:49.628603
2030  2023-10-30 11:30:49.659484
2031  2023-10-30 11:30:49.707356
2032  2023-10-30 11:30:49.755259
2033  2023-10-30 11:30:49.787194
2034  2023-10-30 11:30:49.834050
2035  2023-10-30 11:30:49.865966
2036  2023-10-30 11:30:49.913836
2037  2023-10-30 11:30:49.960679
2038  2023-10-30 11:30:49.991596
2039  2023-10-30 11:30:50.038472
2040  2023-10-30 11:30:50.086343
2041  2023-10-30 11:30:50.117293
2042  2023-10-30 11:30:50.163246
2043  2023-10-30 11:30:50.211118
2044  2023-10-30 11:30:50.242035
2045  2023-10-30 11:30:50.289937
2046  2023-10-30 11:30:50.337812
2047  2023-10-30 11:30:50.369694
2048  2023-10-30 11:30:50.417602
2049  2023-10-30 11:30:50.449514
2050  2023-10-30 11:30:50.497386
2051  2023-10-30 11:30:50.545258
2052  2023-10-30 11:30:50.577174
2053  2023-10-30 11:30:50.625044
2054  2023-10-30 11:30:50.670919
2055  2023-10-30 11:30:50.701838
2056  2023-10-30 11:30:50.748682
2057  2023-10-30 11:30:50.796553
2058  2023-10-30 11:30:50.828495
2059  2023-10-30 11:30:50.876376
2060  2023-10-30 11:30:50.908312
2061  2023-10-30 11:30:50.956164
2062  2023-10-30 11:30:51.005126
2063  2023-10-30 11:30:51.036055
2064  2023-10-30 11:30:51.083917
2065  2023-10-30 11:30:51.129757
2066  2023-10-30 11:30:51.161671
2067  2023-10-30 11:30:51.209592
2068  2023-10-30 11:30:51.240493
2069  2023-10-30 11:30:51.288480
2070  2023-10-30 11:30:51.336242
2071  2023-10-30 11:30:51.368120
2072  2023-10-30 11:30:51.416032
2073  2023-10-30 11:30:51.462866
2074  2023-10-30 11:30:51.494781
2075  2023-10-30 11:30:51.541698
2076  2023-10-30 11:30:51.588533
2077  2023-10-30 11:30:51.620445
2078  2023-10-30 11:30:51.668490
2079  2023-10-30 11:30:51.700232
2080  2023-10-30 11:30:51.749156
2081  2023-10-30 11:30:51.796105
2082  2023-10-30 11:30:51.828020
2083  2023-10-30 11:30:51.875892
2084  2023-10-30 11:30:51.921770
2085  2023-10-30 11:30:51.953735
2086  2023-10-30 11:30:52.001556
2087  2023-10-30 11:30:52.032507
2088  2023-10-30 11:30:52.079381
2089  2023-10-30 11:30:52.126269
2090  2023-10-30 11:30:52.157170
2091  2023-10-30 11:30:52.205040
2092  2023-10-30 11:30:52.252920
2093  2023-10-30 11:30:52.284563
2094  2023-10-30 11:30:52.332421
2095  2023-10-30 11:30:52.381285
2096  2023-10-30 11:30:52.413201
2097  2023-10-30 11:30:52.460082
2098  2023-10-30 11:30:52.491995
2099  2023-10-30 11:30:52.539868
2100  2023-10-30 11:30:52.587736
2101  2023-10-30 11:30:52.620786
2102  2023-10-30 11:30:52.667191
2103  2023-10-30 11:30:52.700203
2104  2023-10-30 11:30:52.747090
2105  2023-10-30 11:30:52.792919
2106  2023-10-30 11:30:52.824833
2107  2023-10-30 11:30:52.872747
2108  2023-10-30 11:30:52.919613
2109  2023-10-30 11:30:52.950533
2110  2023-10-30 11:30:52.998369
2111  2023-10-30 11:30:53.046276
2112  2023-10-30 11:30:53.078205
2113  2023-10-30 11:30:53.126136
2114  2023-10-30 11:30:53.158181
2115  2023-10-30 11:30:53.206096
2116  2023-10-30 11:30:53.253934
2117  2023-10-30 11:30:53.286848
2118  2023-10-30 11:30:53.333721
2119  2023-10-30 11:30:53.365635
2120  2023-10-30 11:30:53.413543
2121  2023-10-30 11:30:53.461379
2122  2023-10-30 11:30:53.493294
2123  2023-10-30 11:30:53.541199
2124  2023-10-30 11:30:53.573234
2125  2023-10-30 11:30:53.621105
2126  2023-10-30 11:30:53.668977
2127  2023-10-30 11:30:53.701017
2128  2023-10-30 11:30:53.748922
2129  2023-10-30 11:30:53.794767
2130  2023-10-30 11:30:53.826681
2131  2023-10-30 11:30:53.874553
2132  2023-10-30 11:30:53.906468
2133  2023-10-30 11:30:53.954340
2134  2023-10-30 11:30:54.002212
2135  2023-10-30 11:30:54.034127
2136  2023-10-30 11:30:54.081048
2137  2023-10-30 11:30:54.127909
2138  2023-10-30 11:30:54.159821
2139  2023-10-30 11:30:54.207725
2140  2023-10-30 11:30:54.254579
2141  2023-10-30 11:30:54.285620
2142  2023-10-30 11:30:54.333121
2143  2023-10-30 11:30:54.365037
2144  2023-10-30 11:30:54.412926
2145  2023-10-30 11:30:54.460948
2146  2023-10-30 11:30:54.492982
2147  2023-10-30 11:30:54.539838
2148  2023-10-30 11:30:54.586724
2149  2023-10-30 11:30:54.618769
2150  2023-10-30 11:30:54.666630
2151  2023-10-30 11:30:54.698584
2152  2023-10-30 11:30:54.746514
2153  2023-10-30 11:30:54.793395
2154  2023-10-30 11:30:54.825288
2155  2023-10-30 11:30:54.873130
2156  2023-10-30 11:30:54.921037
2157  2023-10-30 11:30:54.952947
2158  2023-10-30 11:30:55.000833
2159  2023-10-30 11:30:55.045709
2160  2023-10-30 11:30:55.076960
2161  2023-10-30 11:30:55.123833
2162  2023-10-30 11:30:55.171077
2163  2023-10-30 11:30:55.202139
2164  2023-10-30 11:30:55.247914
2165  2023-10-30 11:30:55.295780
2166  2023-10-30 11:30:55.326707
2167  2023-10-30 11:30:55.373592
2168  2023-10-30 11:30:55.421438
2169  2023-10-30 11:30:55.453359
2170  2023-10-30 11:30:55.501195
2171  2023-10-30 11:30:55.533156
2172  2023-10-30 11:30:55.580994
2173  2023-10-30 11:30:55.626853
2174  2023-10-30 11:30:55.658735
2175  2023-10-30 11:30:55.706641
2176  2023-10-30 11:30:55.754517
2177  2023-10-30 11:30:55.786441
2178  2023-10-30 11:30:55.835303
2179  2023-10-30 11:30:55.866214
2180  2023-10-30 11:30:55.915050
2181  2023-10-30 11:30:55.961988
2182  2023-10-30 11:30:55.993870
2183  2023-10-30 11:30:56.042743
2184  2023-10-30 11:30:56.074669
2185  2023-10-30 11:30:56.121066
2186  2023-10-30 11:30:56.169102
2187  2023-10-30 11:30:56.200977
2188  2023-10-30 11:30:56.246889
2189  2023-10-30 11:30:56.293728
2190  2023-10-30 11:30:56.324645
2191  2023-10-30 11:30:56.372517
2192  2023-10-30 11:30:56.420389
2193  2023-10-30 11:30:56.452304
2194  2023-10-30 11:30:56.498181
2195  2023-10-30 11:30:56.546053
2196  2023-10-30 11:30:56.577968
2197  2023-10-30 11:30:56.625840
2198  2023-10-30 11:30:56.657755
2199  2023-10-30 11:30:56.704629
2200  2023-10-30 11:30:56.751541
2201  2023-10-30 11:30:56.782464
2202  2023-10-30 11:30:56.829330
2203  2023-10-30 11:30:56.877281
2204  2023-10-30 11:30:56.909207
2205  2023-10-30 11:30:56.956088
2206  2023-10-30 11:30:57.003950
2207  2023-10-30 11:30:57.035865
2208  2023-10-30 11:30:57.083735
2209  2023-10-30 11:30:57.115649
2210  2023-10-30 11:30:57.163520
2211  2023-10-30 11:30:57.209392
2212  2023-10-30 11:30:57.242310
2213  2023-10-30 11:30:57.289181
2214  2023-10-30 11:30:57.337049
2215  2023-10-30 11:30:57.368942
2216  2023-10-30 11:30:57.416936
2217  2023-10-30 11:30:57.448806
2218  2023-10-30 11:30:57.496713
2219  2023-10-30 11:30:57.543570
2220  2023-10-30 11:30:57.575514
2221  2023-10-30 11:30:57.623379
2222  2023-10-30 11:30:57.671260
2223  2023-10-30 11:30:57.701133
2224  2023-10-30 11:30:57.749006
2225  2023-10-30 11:30:57.793885
2226  2023-10-30 11:30:57.825800
2227  2023-10-30 11:30:57.871688
2228  2023-10-30 11:30:57.919602
2229  2023-10-30 11:30:57.951521
2230  2023-10-30 11:30:57.998400
2231  2023-10-30 11:30:58.045276
2232  2023-10-30 11:30:58.077197
2233  2023-10-30 11:30:58.124071
2234  2023-10-30 11:30:58.170947
2235  2023-10-30 11:30:58.202825
2236  2023-10-30 11:30:58.250834
2237  2023-10-30 11:30:58.282751
2238  2023-10-30 11:30:58.330693
2239  2023-10-30 11:30:58.378537
2240  2023-10-30 11:30:58.410449
2241  2023-10-30 11:30:58.458360
2242  2023-10-30 11:30:58.490266
2243  2023-10-30 11:30:58.538271
2244  2023-10-30 11:30:58.585851
2245  2023-10-30 11:30:58.617869
2246  2023-10-30 11:30:58.665743
2247  2023-10-30 11:30:58.713651
2248  2023-10-30 11:30:58.744673
2249  2023-10-30 11:30:58.792543
2250  2023-10-30 11:30:58.824454
2251  2023-10-30 11:30:58.870300
2252  2023-10-30 11:30:58.917207
2253  2023-10-30 11:30:58.963051
2254  2023-10-30 11:30:58.994966
2255  2023-10-30 11:30:59.042838
2256  2023-10-30 11:30:59.074752
2257  2023-10-30 11:30:59.122694
2258  2023-10-30 11:30:59.169569
2259  2023-10-30 11:30:59.200486
2260  2023-10-30 11:30:59.248384
2261  2023-10-30 11:30:59.295233
2262  2023-10-30 11:30:59.326182
2263  2023-10-30 11:30:59.374057
2264  2023-10-30 11:30:59.421931
2265  2023-10-30 11:30:59.453846
2266  2023-10-30 11:30:59.501715
2267  2023-10-30 11:30:59.533749
2268  2023-10-30 11:30:59.581509
2269  2023-10-30 11:30:59.629291
2270  2023-10-30 11:30:59.661279
2271  2023-10-30 11:30:59.709159
2272  2023-10-30 11:30:59.741068
2273  2023-10-30 11:30:59.788941
2274  2023-10-30 11:30:59.834828
2275  2023-10-30 11:30:59.866732
2276  2023-10-30 11:30:59.914572
2277  2023-10-30 11:30:59.962483
2278  2023-10-30 11:30:59.994390
2279  2023-10-30 11:31:00.042270
2280  2023-10-30 11:31:00.074146
2281  2023-10-30 11:31:00.122054
2282  2023-10-30 11:31:00.167937
2283  2023-10-30 11:31:00.199844
2284  2023-10-30 11:31:00.247715
2285  2023-10-30 11:31:00.295601
2286  2023-10-30 11:31:00.327502
2287  2023-10-30 11:31:00.374343
2288  2023-10-30 11:31:00.421252
2289  2023-10-30 11:31:00.453163
2290  2023-10-30 11:31:00.501035
2291  2023-10-30 11:31:00.532961
2292  2023-10-30 11:31:00.581848
2293  2023-10-30 11:31:00.625784
2294  2023-10-30 11:31:00.657687
2295  2023-10-30 11:31:00.704614
2296  2023-10-30 11:31:00.751676
2297  2023-10-30 11:31:00.783581
2298  2023-10-30 11:31:00.831494
2299  2023-10-30 11:31:00.879409
2300  2023-10-30 11:31:00.909320
2301  2023-10-30 11:31:00.955198
2302  2023-10-30 11:31:01.003070
2303  2023-10-30 11:31:01.034993
2304  2023-10-30 11:31:01.082866
2305  2023-10-30 11:31:01.128944
2306  2023-10-30 11:31:01.160737
2307  2023-10-30 11:31:01.208612
2308  2023-10-30 11:31:01.240519
2309  2023-10-30 11:31:01.288389
2310  2023-10-30 11:31:01.336277
2311  2023-10-30 11:31:01.368180
2312  2023-10-30 11:31:01.415021
2313  2023-10-30 11:31:01.462057
2314  2023-10-30 11:31:01.493970
2315  2023-10-30 11:31:01.537816
2316  2023-10-30 11:31:01.584728
2317  2023-10-30 11:31:01.629571
2318  2023-10-30 11:31:01.660522
2319  2023-10-30 11:31:01.708403
2320  2023-10-30 11:31:01.740308
2321  2023-10-30 11:31:01.788326
2322  2023-10-30 11:31:01.836222
2323  2023-10-30 11:31:01.868166
2324  2023-10-30 11:31:01.916039
2325  2023-10-30 11:31:01.962884
2326  2023-10-30 11:31:01.993835
2327  2023-10-30 11:31:02.039720
2328  2023-10-30 11:31:02.087587
2329  2023-10-30 11:31:02.119524
2330  2023-10-30 11:31:02.167490
2331  2023-10-30 11:31:02.199456
2332  2023-10-30 11:31:02.246299
2333  2023-10-30 11:31:02.294171
2334  2023-10-30 11:31:02.326117
2335  2023-10-30 11:31:02.373998
2336  2023-10-30 11:31:02.419834
2337  2023-10-30 11:31:02.451791
2338  2023-10-30 11:31:02.496628
2339  2023-10-30 11:31:02.544590
2340  2023-10-30 11:31:02.576505
2341  2023-10-30 11:31:02.623080
2342  2023-10-30 11:31:02.670713
2343  2023-10-30 11:31:02.702628
2344  2023-10-30 11:31:02.750531
2345  2023-10-30 11:31:02.782457
2346  2023-10-30 11:31:02.830287
2347  2023-10-30 11:31:02.878189
2348  2023-10-30 11:31:02.908112
2349  2023-10-30 11:31:02.956000
2350  2023-10-30 11:31:03.003944
2351  2023-10-30 11:31:03.035825
2352  2023-10-30 11:31:03.083766
2353  2023-10-30 11:31:03.115864
2354  2023-10-30 11:31:03.163638
2355  2023-10-30 11:31:03.209573
2356  2023-10-30 11:31:03.240435
2357  2023-10-30 11:31:03.287327
2358  2023-10-30 11:31:03.335222
2359  2023-10-30 11:31:03.366138
2360  2023-10-30 11:31:03.413971
2361  2023-10-30 11:31:03.461877
2362  2023-10-30 11:31:03.493757
2363  2023-10-30 11:31:03.541676
2364  2023-10-30 11:31:03.573717
2365  2023-10-30 11:31:03.621787
2366  2023-10-30 11:31:03.669639
2367  2023-10-30 11:31:03.700579
2368  2023-10-30 11:31:03.747445
2369  2023-10-30 11:31:03.795318
2370  2023-10-30 11:31:03.827202
2371  2023-10-30 11:31:03.875074
2372  2023-10-30 11:31:03.906989
2373  2023-10-30 11:31:03.954891
2374  2023-10-30 11:31:04.000738
2375  2023-10-30 11:31:04.032778
2376  2023-10-30 11:31:04.078563
2377  2023-10-30 11:31:04.126402
2378  2023-10-30 11:31:04.158316
2379  2023-10-30 11:31:04.206188
2380  2023-10-30 11:31:04.254096
2381  2023-10-30 11:31:04.286010
2382  2023-10-30 11:31:04.332898
2383  2023-10-30 11:31:04.379778
2384  2023-10-30 11:31:04.411679
2385  2023-10-30 11:31:04.459511
2386  2023-10-30 11:31:04.491457
2387  2023-10-30 11:31:04.538342
2388  2023-10-30 11:31:04.585207
2389  2023-10-30 11:31:04.616131
2390  2023-10-30 11:31:04.662998
2391  2023-10-30 11:31:04.710840
2392  2023-10-30 11:31:04.742790
2393  2023-10-30 11:31:04.790656
2394  2023-10-30 11:31:04.838500
2395  2023-10-30 11:31:04.870414
2396  2023-10-30 11:31:04.918353
2397  2023-10-30 11:31:04.948328
2398  2023-10-30 11:31:04.996198
2399  2023-10-30 11:31:05.044072
2400  2023-10-30 11:31:05.075984
2401  2023-10-30 11:31:05.123875
2402  2023-10-30 11:31:05.171740
2403  2023-10-30 11:31:05.203667
2404  2023-10-30 11:31:05.251532
2405  2023-10-30 11:31:05.283431
2406  2023-10-30 11:31:05.329310
2407  2023-10-30 11:31:05.377148
2408  2023-10-30 11:31:05.410060
2409  2023-10-30 11:31:05.455978
2410  2023-10-30 11:31:05.502812
2411  2023-10-30 11:31:05.534727
2412  2023-10-30 11:31:05.582642
2413  2023-10-30 11:31:05.629473
2414  2023-10-30 11:31:05.660390
2415  2023-10-30 11:31:05.708298
2416  2023-10-30 11:31:05.754173
2417  2023-10-30 11:31:05.786085
2418  2023-10-30 11:31:05.833927
2419  2023-10-30 11:31:05.865841
2420  2023-10-30 11:31:05.913714
2421  2023-10-30 11:31:05.961585
2422  2023-10-30 11:31:05.993500
2423  2023-10-30 11:31:06.041413
2424  2023-10-30 11:31:06.073319
2425  2023-10-30 11:31:06.121192
2426  2023-10-30 11:31:06.169032
2427  2023-10-30 11:31:06.200976
2428  2023-10-30 11:31:06.248819
2429  2023-10-30 11:31:06.296691
2430  2023-10-30 11:31:06.327608
2431  2023-10-30 11:31:06.374524
2432  2023-10-30 11:31:06.407449
2433  2023-10-30 11:31:06.452331
2434  2023-10-30 11:31:06.499692
2435  2023-10-30 11:31:06.531710
2436  2023-10-30 11:31:06.579621
2437  2023-10-30 11:31:06.625731
2438  2023-10-30 11:31:06.656648
2439  2023-10-30 11:31:06.704526
2440  2023-10-30 11:31:06.752392
2441  2023-10-30 11:31:06.784305
2442  2023-10-30 11:31:06.832183
2443  2023-10-30 11:31:06.880058
2444  2023-10-30 11:31:06.910973
2445  2023-10-30 11:31:06.958809
2446  2023-10-30 11:31:06.990758
2447  2023-10-30 11:31:07.040590
2448  2023-10-30 11:31:07.085500
2449  2023-10-30 11:31:07.116433
2450  2023-10-30 11:31:07.162265
2451  2023-10-30 11:31:07.209177
2452  2023-10-30 11:31:07.240094
2453  2023-10-30 11:31:07.287964
2454  2023-10-30 11:31:07.335886
2455  2023-10-30 11:31:07.367750
2456  2023-10-30 11:31:07.413626
2457  2023-10-30 11:31:07.461499
2458  2023-10-30 11:31:07.493411
2459  2023-10-30 11:31:07.541252
2460  2023-10-30 11:31:07.573288
2461  2023-10-30 11:31:07.621061
2462  2023-10-30 11:31:07.669061
2463  2023-10-30 11:31:07.700976
2464  2023-10-30 11:31:07.748845
2465  2023-10-30 11:31:07.795725
2466  2023-10-30 11:31:07.826643
2467  2023-10-30 11:31:07.873520
2468  2023-10-30 11:31:07.921385
2469  2023-10-30 11:31:07.951322
2470  2023-10-30 11:31:07.999183
2471  2023-10-30 11:31:08.044395
2472  2023-10-30 11:31:08.075286
2473  2023-10-30 11:31:08.123156
2474  2023-10-30 11:31:08.171078
2475  2023-10-30 11:31:08.202993
2476  2023-10-30 11:31:08.250902
2477  2023-10-30 11:31:08.282816
2478  2023-10-30 11:31:08.330652
2479  2023-10-30 11:31:08.378576
2480  2023-10-30 11:31:08.410469
2481  2023-10-30 11:31:08.457313
2482  2023-10-30 11:31:08.504355
2483  2023-10-30 11:31:08.535242
2484  2023-10-30 11:31:08.581149
2485  2023-10-30 11:31:08.629040
2486  2023-10-30 11:31:08.660906
2487  2023-10-30 11:31:08.708846
2488  2023-10-30 11:31:08.739757
2489  2023-10-30 11:31:08.787625
2490  2023-10-30 11:31:08.835622
2491  2023-10-30 11:31:08.867549
2492  2023-10-30 11:31:08.915410
2493  2023-10-30 11:31:08.963278
2494  2023-10-30 11:31:08.995211
2495  2023-10-30 11:31:09.043158
2496  2023-10-30 11:31:09.075074
2497  2023-10-30 11:31:09.121917
2498  2023-10-30 11:31:09.169788
2499  2023-10-30 11:31:09.201703
2500  2023-10-30 11:31:09.249604
2501  2023-10-30 11:31:09.281519
2502  2023-10-30 11:31:09.329392
2503  2023-10-30 11:31:09.377360
2504  2023-10-30 11:31:09.409363
2505  2023-10-30 11:31:09.455186
2506  2023-10-30 11:31:09.502060
2507  2023-10-30 11:31:09.533976
2508  2023-10-30 11:31:09.581858
2509  2023-10-30 11:31:09.628690
2510  2023-10-30 11:31:09.659607
2511  2023-10-30 11:31:09.705476
2512  2023-10-30 11:31:09.753427
2513  2023-10-30 11:31:09.784314
2514  2023-10-30 11:31:09.832183
2515  2023-10-30 11:31:09.879090
2516  2023-10-30 11:31:09.908017
2517  2023-10-30 11:31:09.955886
2518  2023-10-30 11:31:10.002727
2519  2023-10-30 11:31:10.033681
2520  2023-10-30 11:31:10.081551
2521  2023-10-30 11:31:10.128422
2522  2023-10-30 11:31:10.158345
2523  2023-10-30 11:31:10.206184
2524  2023-10-30 11:31:10.254094
2525  2023-10-30 11:31:10.286004
2526  2023-10-30 11:31:10.333879
2527  2023-10-30 11:31:10.365794
2528  2023-10-30 11:31:10.413683
2529  2023-10-30 11:31:10.461537
2530  2023-10-30 11:31:10.493454
2531  2023-10-30 11:31:10.539361
2532  2023-10-30 11:31:10.587315
2533  2023-10-30 11:31:10.619234
2534  2023-10-30 11:31:10.666068
2535  2023-10-30 11:31:10.712986
2536  2023-10-30 11:31:10.743862
2537  2023-10-30 11:31:10.791732
2538  2023-10-30 11:31:10.823647
2539  2023-10-30 11:31:10.871557
2540  2023-10-30 11:31:10.919449
2541  2023-10-30 11:31:10.950341
2542  2023-10-30 11:31:10.996222
2543  2023-10-30 11:31:11.043061
2544  2023-10-30 11:31:11.075006
2545  2023-10-30 11:31:11.121883
2546  2023-10-30 11:31:11.168758
2547  2023-10-30 11:31:11.200639
2548  2023-10-30 11:31:11.248553
2549  2023-10-30 11:31:11.296416
2550  2023-10-30 11:31:11.328328
2551  2023-10-30 11:31:11.376330
2552  2023-10-30 11:31:11.408118
2553  2023-10-30 11:31:11.455990
2554  2023-10-30 11:31:11.503753
2555  2023-10-30 11:31:11.535654
2556  2023-10-30 11:31:11.582703
2557  2023-10-30 11:31:11.630722
2558  2023-10-30 11:31:11.662637
2559  2023-10-30 11:31:11.710625
2560  2023-10-30 11:31:11.742541
2561  2023-10-30 11:31:11.790413
2562  2023-10-30 11:31:11.837253
2563  2023-10-30 11:31:11.870197
2564  2023-10-30 11:31:11.917040
2565  2023-10-30 11:31:11.962917
2566  2023-10-30 11:31:11.993834
2567  2023-10-30 11:31:12.041795
2568  2023-10-30 11:31:12.073707
2569  2023-10-30 11:31:12.121577
2570  2023-10-30 11:31:12.169416
2571  2023-10-30 11:31:12.201330
2572  2023-10-30 11:31:12.249235
2573  2023-10-30 11:31:12.295080
2574  2023-10-30 11:31:12.325997
2575  2023-10-30 11:31:12.373901
2576  2023-10-30 11:31:12.421741
2577  2023-10-30 11:31:12.453656
2578  2023-10-30 11:31:12.501528
2579  2023-10-30 11:31:12.531450
2580  2023-10-30 11:31:12.579356
2581  2023-10-30 11:31:12.627223
2582  2023-10-30 11:31:12.659140
2583  2023-10-30 11:31:12.707011
2584  2023-10-30 11:31:12.754851
2585  2023-10-30 11:31:12.786798
2586  2023-10-30 11:31:12.834637
2587  2023-10-30 11:31:12.865590
2588  2023-10-30 11:31:12.913460
2589  2023-10-30 11:31:12.959334
2590  2023-10-30 11:31:12.991252
2591  2023-10-30 11:31:13.038133
2592  2023-10-30 11:31:13.085998
2593  2023-10-30 11:31:13.117917
2594  2023-10-30 11:31:13.165753
2595  2023-10-30 11:31:13.212656
2596  2023-10-30 11:31:13.245580
2597  2023-10-30 11:31:13.294409
2598  2023-10-30 11:31:13.325359
2599  2023-10-30 11:31:13.373242
2600  2023-10-30 11:31:13.420114
2601  2023-10-30 11:31:13.452018
2602  2023-10-30 11:31:13.500893
2603  2023-10-30 11:31:13.533902
2604  2023-10-30 11:31:13.580186
2605  2023-10-30 11:31:13.627151
2606  2023-10-30 11:31:13.657114
2607  2023-10-30 11:31:13.704988
2608  2023-10-30 11:31:13.752896
2609  2023-10-30 11:31:13.784806
2610  2023-10-30 11:31:13.832645
2611  2023-10-30 11:31:13.879521
2612  2023-10-30 11:31:13.912468
2613  2023-10-30 11:31:13.958309
2614  2023-10-30 11:31:14.005218
2615  2023-10-30 11:31:14.037124
2616  2023-10-30 11:31:14.085001
2617  2023-10-30 11:31:14.116926
2618  2023-10-30 11:31:14.164757
2619  2023-10-30 11:31:14.210732
2620  2023-10-30 11:31:14.242600
2621  2023-10-30 11:31:14.290509
2622  2023-10-30 11:31:14.337461
2623  2023-10-30 11:31:14.368591
2624  2023-10-30 11:31:14.416347
2625  2023-10-30 11:31:14.448264
2626  2023-10-30 11:31:14.496134
2627  2023-10-30 11:31:14.542010
2628  2023-10-30 11:31:14.573919
2629  2023-10-30 11:31:14.621793
2630  2023-10-30 11:31:14.669633
2631  2023-10-30 11:31:14.701578
2632  2023-10-30 11:31:14.749452
2633  2023-10-30 11:31:14.781375
2634  2023-10-30 11:31:14.829206
2635  2023-10-30 11:31:14.877124
2636  2023-10-30 11:31:14.909027
2637  2023-10-30 11:31:14.954899
2638  2023-10-30 11:31:15.002780
2639  2023-10-30 11:31:15.032662
2640  2023-10-30 11:31:15.080576
2641  2023-10-30 11:31:15.128406
2642  2023-10-30 11:31:15.160321
2643  2023-10-30 11:31:15.208248
2644  2023-10-30 11:31:15.240158
2645  2023-10-30 11:31:15.288024
2646  2023-10-30 11:31:15.335933
2647  2023-10-30 11:31:15.367848
2648  2023-10-30 11:31:15.414765
2649  2023-10-30 11:31:15.461687
2650  2023-10-30 11:31:15.493602
2651  2023-10-30 11:31:15.541475
2652  2023-10-30 11:31:15.587351
2653  2023-10-30 11:31:15.619266
2654  2023-10-30 11:31:15.666496
2655  2023-10-30 11:31:15.713579
2656  2023-10-30 11:31:15.745285
2657  2023-10-30 11:31:15.793201
2658  2023-10-30 11:31:15.825112
2659  2023-10-30 11:31:15.872024
2660  2023-10-30 11:31:15.918953
2661  2023-10-30 11:31:15.950851
2662  2023-10-30 11:31:15.998725
2663  2023-10-30 11:31:16.046598
2664  2023-10-30 11:31:16.078526
2665  2023-10-30 11:31:16.126394
2666  2023-10-30 11:31:16.158298
2667  2023-10-30 11:31:16.206180
2668  2023-10-30 11:31:16.254037
2669  2023-10-30 11:31:16.284963
2670  2023-10-30 11:31:16.331826
2671  2023-10-30 11:31:16.379701
2672  2023-10-30 11:31:16.412623
2673  2023-10-30 11:31:16.459491
2674  2023-10-30 11:31:16.491407
2675  2023-10-30 11:31:16.539277
2676  2023-10-30 11:31:16.586491
2677  2023-10-30 11:31:16.618493
2678  2023-10-30 11:31:16.665405
2679  2023-10-30 11:31:16.712277
2680  2023-10-30 11:31:16.745184
2681  2023-10-30 11:31:16.793064
2682  2023-10-30 11:31:16.824973
2683  2023-10-30 11:31:16.873810
2684  2023-10-30 11:31:16.919721
2685  2023-10-30 11:31:16.952647
2686  2023-10-30 11:31:17.001514
2687  2023-10-30 11:31:17.046348
2688  2023-10-30 11:31:17.079304
2689  2023-10-30 11:31:17.126135
2690  2023-10-30 11:31:17.157274
2691  2023-10-30 11:31:17.204148
2692  2023-10-30 11:31:17.252021
2693  2023-10-30 11:31:17.282938
2694  2023-10-30 11:31:17.329858
2695  2023-10-30 11:31:17.375821
2696  2023-10-30 11:31:17.407734
2697  2023-10-30 11:31:17.455610
2698  2023-10-30 11:31:17.503437
2699  2023-10-30 11:31:17.535385
2700  2023-10-30 11:31:17.583255
2701  2023-10-30 11:31:17.615173
2702  2023-10-30 11:31:17.662013
2703  2023-10-30 11:31:17.709886
2704  2023-10-30 11:31:17.741800
2705  2023-10-30 11:31:17.789710
2706  2023-10-30 11:31:17.837593
2707  2023-10-30 11:31:17.869501
2708  2023-10-30 11:31:17.917503
2709  2023-10-30 11:31:17.949385
2710  2023-10-30 11:31:17.997296
2711  2023-10-30 11:31:18.045166
2712  2023-10-30 11:31:18.077071
2713  2023-10-30 11:31:18.124300
2714  2023-10-30 11:31:18.171175
2715  2023-10-30 11:31:18.202129
2716  2023-10-30 11:31:18.249964
2717  2023-10-30 11:31:18.283914
2718  2023-10-30 11:31:18.329803
2719  2023-10-30 11:31:18.377685
2720  2023-10-30 11:31:18.409578
2721  2023-10-30 11:31:18.457609
2722  2023-10-30 11:31:18.504353
2723  2023-10-30 11:31:18.536257
2724  2023-10-30 11:31:18.584105
2725  2023-10-30 11:31:18.616005
2726  2023-10-30 11:31:18.663858
2727  2023-10-30 11:31:18.711730
2728  2023-10-30 11:31:18.744789
2729  2023-10-30 11:31:18.791616
2730  2023-10-30 11:31:18.823621
2731  2023-10-30 11:31:18.871287
2732  2023-10-30 11:31:18.919173
2733  2023-10-30 11:31:18.952066
2734  2023-10-30 11:31:18.997981
2735  2023-10-30 11:31:19.045863
2736  2023-10-30 11:31:19.079838
2737  2023-10-30 11:31:19.123684
2738  2023-10-30 11:31:19.170558
2739  2023-10-30 11:31:19.201475
2740  2023-10-30 11:31:19.248382
2741  2023-10-30 11:31:19.295269
2742  2023-10-30 11:31:19.327169
2743  2023-10-30 11:31:19.374014
2744  2023-10-30 11:31:19.420889
2745  2023-10-30 11:31:19.451807
2746  2023-10-30 11:31:19.497717
2747  2023-10-30 11:31:19.546557
2748  2023-10-30 11:31:19.575540
2749  2023-10-30 11:31:19.623378
2750  2023-10-30 11:31:19.669225
2751  2023-10-30 11:31:19.701140
2752  2023-10-30 11:31:19.747017
2753  2023-10-30 11:31:19.792929
2754  2023-10-30 11:31:19.824847
2755  2023-10-30 11:31:19.871684
2756  2023-10-30 11:31:19.918593
2757  2023-10-30 11:31:19.950508
2758  2023-10-30 11:31:19.998378
2759  2023-10-30 11:31:20.046257
2760  2023-10-30 11:31:20.078268
2761  2023-10-30 11:31:20.126053
2762  2023-10-30 11:31:20.157952
2763  2023-10-30 11:31:20.205823
2764  2023-10-30 11:31:20.253704
2765  2023-10-30 11:31:20.284581
2766  2023-10-30 11:31:20.332484
2767  2023-10-30 11:31:20.379328
2768  2023-10-30 11:31:20.410244
2769  2023-10-30 11:31:20.456158
2770  2023-10-30 11:31:20.504036
2771  2023-10-30 11:31:20.535940
2772  2023-10-30 11:31:20.585926
2773  2023-10-30 11:31:20.615833
2774  2023-10-30 11:31:20.664701
2775  2023-10-30 11:31:20.711547
2776  2023-10-30 11:31:20.742499
2777  2023-10-30 11:31:20.788340
2778  2023-10-30 11:31:20.837210
2779  2023-10-30 11:31:20.868126
2780  2023-10-30 11:31:20.914123
2781  2023-10-30 11:31:20.962028
2782  2023-10-30 11:31:20.993944
2783  2023-10-30 11:31:21.041762
2784  2023-10-30 11:31:21.073824
2785  2023-10-30 11:31:21.121584
2786  2023-10-30 11:31:21.168424
2787  2023-10-30 11:31:21.199341
2788  2023-10-30 11:31:21.247248
2789  2023-10-30 11:31:21.295124
2790  2023-10-30 11:31:21.327035
2791  2023-10-30 11:31:21.374872
2792  2023-10-30 11:31:21.406786
2793  2023-10-30 11:31:21.454692
2794  2023-10-30 11:31:21.502531
2795  2023-10-30 11:31:21.534548
2796  2023-10-30 11:31:21.582451
2797  2023-10-30 11:31:21.629334
2798  2023-10-30 11:31:21.660255
2799  2023-10-30 11:31:21.708118
2800  2023-10-30 11:31:21.740039
2801  2023-10-30 11:31:21.787930
2802  2023-10-30 11:31:21.835787
2803  2023-10-30 11:31:21.867692
2804  2023-10-30 11:31:21.915532
2805  2023-10-30 11:31:21.963439
2806  2023-10-30 11:31:21.995356
2807  2023-10-30 11:31:22.043228
2808  2023-10-30 11:31:22.075142
2809  2023-10-30 11:31:22.123011
2810  2023-10-30 11:31:22.170879
2811  2023-10-30 11:31:22.202920
2812  2023-10-30 11:31:22.250677
2813  2023-10-30 11:31:22.282585
2814  2023-10-30 11:31:22.330468
2815  2023-10-30 11:31:22.378340
2816  2023-10-30 11:31:22.410242
2817  2023-10-30 11:31:22.458112
2818  2023-10-30 11:31:22.504996
2819  2023-10-30 11:31:22.536902
2820  2023-10-30 11:31:22.583786
2821  2023-10-30 11:31:22.615690
2822  2023-10-30 11:31:22.663578
2823  2023-10-30 11:31:22.708445
2824  2023-10-30 11:31:22.741370
2825  2023-10-30 11:31:22.787199
2826  2023-10-30 11:31:22.835130
2827  2023-10-30 11:31:22.866987
2828  2023-10-30 11:31:22.913977
2829  2023-10-30 11:31:22.960885
2830  2023-10-30 11:31:22.992810
2831  2023-10-30 11:31:23.040767
2832  2023-10-30 11:31:23.087678
2833  2023-10-30 11:31:23.119594
2834  2023-10-30 11:31:23.166656
2835  2023-10-30 11:31:23.213567
2836  2023-10-30 11:31:23.245488
2837  2023-10-30 11:31:23.293354
2838  2023-10-30 11:31:23.325304
2839  2023-10-30 11:31:23.373105
2840  2023-10-30 11:31:23.421087
2841  2023-10-30 11:31:23.453035
2842  2023-10-30 11:31:23.500953
2843  2023-10-30 11:31:23.532876
2844  2023-10-30 11:31:23.580836
2845  2023-10-30 11:31:23.628822
2846  2023-10-30 11:31:23.660629
2847  2023-10-30 11:31:23.706504
2848  2023-10-30 11:31:23.754336
2849  2023-10-30 11:31:23.786292
2850  2023-10-30 11:31:23.834160
2851  2023-10-30 11:31:23.865072
2852  2023-10-30 11:31:23.912951
2853  2023-10-30 11:31:23.960820
2854  2023-10-30 11:31:23.992734
2855  2023-10-30 11:31:24.039574
2856  2023-10-30 11:31:24.086577
2857  2023-10-30 11:31:24.116497
2858  2023-10-30 11:31:24.165419
2859  2023-10-30 11:31:24.213270
2860  2023-10-30 11:31:24.244164
2861  2023-10-30 11:31:24.294058
2862  2023-10-30 11:31:24.324123
2863  2023-10-30 11:31:24.371857
2864  2023-10-30 11:31:24.419720
2865  2023-10-30 11:31:24.451630
2866  2023-10-30 11:31:24.500502
2867  2023-10-30 11:31:24.531421
2868  2023-10-30 11:31:24.579294
2869  2023-10-30 11:31:24.627164
2870  2023-10-30 11:31:24.660061
2871  2023-10-30 11:31:24.706951
2872  2023-10-30 11:31:24.753792
2873  2023-10-30 11:31:24.785707
2874  2023-10-30 11:31:24.833683
2875  2023-10-30 11:31:24.865597
2876  2023-10-30 11:31:24.913583
2877  2023-10-30 11:31:24.961455
2878  2023-10-30 11:31:24.993372
2879  2023-10-30 11:31:25.041242
2880  2023-10-30 11:31:25.073157
2881  2023-10-30 11:31:25.121029
2882  2023-10-30 11:31:25.166906
2883  2023-10-30 11:31:25.198821
2884  2023-10-30 11:31:25.246674
2885  2023-10-30 11:31:25.294579
2886  2023-10-30 11:31:25.326515
2887  2023-10-30 11:31:25.374333
2888  2023-10-30 11:31:25.421247
2889  2023-10-30 11:31:25.452160
2890  2023-10-30 11:31:25.499997
2891  2023-10-30 11:31:25.531913
2892  2023-10-30 11:31:25.579814
2893  2023-10-30 11:31:25.627687
2894  2023-10-30 11:31:25.659612
2895  2023-10-30 11:31:25.707442
2896  2023-10-30 11:31:25.754318
2897  2023-10-30 11:31:25.785235
2898  2023-10-30 11:31:25.833138
2899  2023-10-30 11:31:25.865053
2900  2023-10-30 11:31:25.911896
2901  2023-10-30 11:31:25.959805
2902  2023-10-30 11:31:25.990730
2903  2023-10-30 11:31:26.038590
2904  2023-10-30 11:31:26.086462
2905  2023-10-30 11:31:26.118385
2906  2023-10-30 11:31:26.165254
2907  2023-10-30 11:31:26.213129
2908  2023-10-30 11:31:26.245051
2909  2023-10-30 11:31:26.292916
2910  2023-10-30 11:31:26.324842
2911  2023-10-30 11:31:26.372703
2912  2023-10-30 11:31:26.418580
2913  2023-10-30 11:31:26.450494
2914  2023-10-30 11:31:26.498361
2915  2023-10-30 11:31:26.544205
2916  2023-10-30 11:31:26.575123
2917  2023-10-30 11:31:26.623029
2918  2023-10-30 11:31:26.670868
2919  2023-10-30 11:31:26.701784
2920  2023-10-30 11:31:26.748688
2921  2023-10-30 11:31:26.796531
2922  2023-10-30 11:31:26.828476
2923  2023-10-30 11:31:26.876317
2924  2023-10-30 11:31:26.907351
2925  2023-10-30 11:31:26.955108
2926  2023-10-30 11:31:27.002979
2927  2023-10-30 11:31:27.034893
2928  2023-10-30 11:31:27.081821
2929  2023-10-30 11:31:27.128677
2930  2023-10-30 11:31:27.160607
2931  2023-10-30 11:31:27.208484
2932  2023-10-30 11:31:27.240352
2933  2023-10-30 11:31:27.288224
2934  2023-10-30 11:31:27.336125
2935  2023-10-30 11:31:27.367053
2936  2023-10-30 11:31:27.414966
2937  2023-10-30 11:31:27.460881
2938  2023-10-30 11:31:27.491800
2939  2023-10-30 11:31:27.538636
2940  2023-10-30 11:31:27.585544
2941  2023-10-30 11:31:27.617458
2942  2023-10-30 11:31:27.665337
2943  2023-10-30 11:31:27.713170
2944  2023-10-30 11:31:27.745086
2945  2023-10-30 11:31:27.792959
2946  2023-10-30 11:31:27.824872
2947  2023-10-30 11:31:27.871745
2948  2023-10-30 11:31:27.917622
2949  2023-10-30 11:31:27.949537
2950  2023-10-30 11:31:27.997409
2951  2023-10-30 11:31:28.045321
2952  2023-10-30 11:31:28.076198
2953  2023-10-30 11:31:28.122107
2954  2023-10-30 11:31:28.168952
2955  2023-10-30 11:31:28.200867
2956  2023-10-30 11:31:28.246746
2957  2023-10-30 11:31:28.294648
2958  2023-10-30 11:31:28.326581
2959  2023-10-30 11:31:28.374444
2960  2023-10-30 11:31:28.406353
2961  2023-10-30 11:31:28.454225
2962  2023-10-30 11:31:28.502061
2963  2023-10-30 11:31:28.534025
2964  2023-10-30 11:31:28.581956
2965  2023-10-30 11:31:28.629836
2966  2023-10-30 11:31:28.661748
2967  2023-10-30 11:31:28.708587
2968  2023-10-30 11:31:28.741498
2969  2023-10-30 11:31:28.788412
2970  2023-10-30 11:31:28.836280
2971  2023-10-30 11:31:28.868192
2972  2023-10-30 11:31:28.916032
2973  2023-10-30 11:31:28.962940
2974  2023-10-30 11:31:28.994862
2975  2023-10-30 11:31:29.042723
2976  2023-10-30 11:31:29.074608
2977  2023-10-30 11:31:29.122512
2978  2023-10-30 11:31:29.168392
2979  2023-10-30 11:31:29.201305
2980  2023-10-30 11:31:29.245152
2981  2023-10-30 11:31:29.293059
2982  2023-10-30 11:31:29.324980
2983  2023-10-30 11:31:29.372810
2984  2023-10-30 11:31:29.420716
2985  2023-10-30 11:31:29.450636
2986  2023-10-30 11:31:29.496580
2987  2023-10-30 11:31:29.544454
2988  2023-10-30 11:31:29.574403
2989  2023-10-30 11:31:29.621252
2990  2023-10-30 11:31:29.667164
2991  2023-10-30 11:31:29.699068
2992  2023-10-30 11:31:29.745949
2993  2023-10-30 11:31:29.791841
2994  2023-10-30 11:31:29.837668
2995  2023-10-30 11:31:29.869582
2996  2023-10-30 11:31:29.917492
2997  2023-10-30 11:31:29.949403
2998  2023-10-30 11:31:29.994249
2999  2023-10-30 11:31:30.041160
3000  2023-10-30 11:31:30.087999
3001  2023-10-30 11:31:30.119964
3002  2023-10-30 11:31:30.167826
3003  2023-10-30 11:31:30.199731
3004  2023-10-30 11:31:30.247574
3005  2023-10-30 11:31:30.295444
3006  2023-10-30 11:31:30.326402
3007  2023-10-30 11:31:30.372362
3008  2023-10-30 11:31:30.419309
3009  2023-10-30 11:31:30.451223
3010  2023-10-30 11:31:30.497102
3011  2023-10-30 11:31:30.544974
3012  2023-10-30 11:31:30.575892
3013  2023-10-30 11:31:30.620772
3014  2023-10-30 11:31:30.667613
3015  2023-10-30 11:31:30.699528
3016  2023-10-30 11:31:30.747441
3017  2023-10-30 11:31:30.794308
3018  2023-10-30 11:31:30.825311
3019  2023-10-30 11:31:30.873064
3020  2023-10-30 11:31:30.918943
3021  2023-10-30 11:31:30.950959
3022  2023-10-30 11:31:30.998816
3023  2023-10-30 11:31:31.045691
3024  2023-10-30 11:31:31.075611
3025  2023-10-30 11:31:31.122485
3026  2023-10-30 11:31:31.169378
3027  2023-10-30 11:31:31.201241
3028  2023-10-30 11:31:31.248124
3029  2023-10-30 11:31:31.296030
3030  2023-10-30 11:31:31.326951
3031  2023-10-30 11:31:31.374890
3032  2023-10-30 11:31:31.422835
3033  2023-10-30 11:31:31.454750
3034  2023-10-30 11:31:31.502615
3035  2023-10-30 11:31:31.534532
3036  2023-10-30 11:31:31.582405
3037  2023-10-30 11:31:31.628280
3038  2023-10-30 11:31:31.659196
3039  2023-10-30 11:31:31.707036
3040  2023-10-30 11:31:31.754966
3041  2023-10-30 11:31:31.785857
3042  2023-10-30 11:31:31.833698
3043  2023-10-30 11:31:31.880612
3044  2023-10-30 11:31:31.911524
3045  2023-10-30 11:31:31.959362
3046  2023-10-30 11:31:31.991310
3047  2023-10-30 11:31:32.039183
3048  2023-10-30 11:31:32.088019
3049  2023-10-30 11:31:32.117969
3050  2023-10-30 11:31:32.165841
3051  2023-10-30 11:31:32.212718
3052  2023-10-30 11:31:32.243641
3053  2023-10-30 11:31:32.291478
3054  2023-10-30 11:31:32.337398
3055  2023-10-30 11:31:32.369266
3056  2023-10-30 11:31:32.417173
3057  2023-10-30 11:31:32.449087
3058  2023-10-30 11:31:32.496959
3059  2023-10-30 11:31:32.544831
3060  2023-10-30 11:31:32.576745
3061  2023-10-30 11:31:32.624697
3062  2023-10-30 11:31:32.656529
3063  2023-10-30 11:31:32.703406
3064  2023-10-30 11:31:32.750285
3065  2023-10-30 11:31:32.782195
3066  2023-10-30 11:31:32.829756
3067  2023-10-30 11:31:32.877583
3068  2023-10-30 11:31:32.910574
3069  2023-10-30 11:31:32.954442
3070  2023-10-30 11:31:33.002281
3071  2023-10-30 11:31:33.034196
3072  2023-10-30 11:31:33.082101
3073  2023-10-30 11:31:33.130070
3074  2023-10-30 11:31:33.160857
3075  2023-10-30 11:31:33.208795
3076  2023-10-30 11:31:33.240680
3077  2023-10-30 11:31:33.286555
3078  2023-10-30 11:31:33.333396
3079  2023-10-30 11:31:33.365310
3080  2023-10-30 11:31:33.413183
3081  2023-10-30 11:31:33.461089
3082  2023-10-30 11:31:33.492969
3083  2023-10-30 11:31:33.540879
3084  2023-10-30 11:31:33.586759
3085  2023-10-30 11:31:33.618668
3086  2023-10-30 11:31:33.664541
3087  2023-10-30 11:31:33.712416
3088  2023-10-30 11:31:33.744332
3089  2023-10-30 11:31:33.792203
3090  2023-10-30 11:31:33.824086
3091  2023-10-30 11:31:33.871988
3092  2023-10-30 11:31:33.919861
3093  2023-10-30 11:31:33.951787
3094  2023-10-30 11:31:33.997667
3095  2023-10-30 11:31:34.045546
3096  2023-10-30 11:31:34.076445
3097  2023-10-30 11:31:34.122317
3098  2023-10-30 11:31:34.169161
3099  2023-10-30 11:31:34.201076
3100  2023-10-30 11:31:34.248981
3101  2023-10-30 11:31:34.296820
3102  2023-10-30 11:31:34.327739
3103  2023-10-30 11:31:34.372618
3104  2023-10-30 11:31:34.419525
3105  2023-10-30 11:31:34.451437
3106  2023-10-30 11:31:34.498329
3107  2023-10-30 11:31:34.545204
3108  2023-10-30 11:31:34.576111
3109  2023-10-30 11:31:34.623980
3110  2023-10-30 11:31:34.671855
3111  2023-10-30 11:31:34.703781
3112  2023-10-30 11:31:34.751742
3113  2023-10-30 11:31:34.783662
3114  2023-10-30 11:31:34.831534
3115  2023-10-30 11:31:34.879371
3116  2023-10-30 11:31:34.911319
3117  2023-10-30 11:31:34.959197
3118  2023-10-30 11:31:34.991108
3119  2023-10-30 11:31:35.038944
3120  2023-10-30 11:31:35.086852
3121  2023-10-30 11:31:35.118761
3122  2023-10-30 11:31:35.164640
3123  2023-10-30 11:31:35.212511
3124  2023-10-30 11:31:35.244426
3125  2023-10-30 11:31:35.292305
3126  2023-10-30 11:31:35.324228
3127  2023-10-30 11:31:35.370059
3128  2023-10-30 11:31:35.416964
3129  2023-10-30 11:31:35.462811
3130  2023-10-30 11:31:35.494726
3131  2023-10-30 11:31:35.542631
3132  2023-10-30 11:31:35.574546
3133  2023-10-30 11:31:35.622384
3134  2023-10-30 11:31:35.670256
3135  2023-10-30 11:31:35.702171
3136  2023-10-30 11:31:35.749079
3137  2023-10-30 11:31:35.795920
3138  2023-10-30 11:31:35.827867
3139  2023-10-30 11:31:35.875707
3140  2023-10-30 11:31:35.907623
3141  2023-10-30 11:31:35.955494
3142  2023-10-30 11:31:36.003366
3143  2023-10-30 11:31:36.035281
3144  2023-10-30 11:31:36.081440
3145  2023-10-30 11:31:36.129390
3146  2023-10-30 11:31:36.161311
3147  2023-10-30 11:31:36.209180
3148  2023-10-30 11:31:36.240060
3149  2023-10-30 11:31:36.287967
3150  2023-10-30 11:31:36.335839
3151  2023-10-30 11:31:36.367873
3152  2023-10-30 11:31:36.414619
3153  2023-10-30 11:31:36.461571
3154  2023-10-30 11:31:36.494523
3155  2023-10-30 11:31:36.541479
3156  2023-10-30 11:31:36.588357
3157  2023-10-30 11:31:36.619344
3158  2023-10-30 11:31:36.667214
3159  2023-10-30 11:31:36.699129
3160  2023-10-30 11:31:36.744057
3161  2023-10-30 11:31:36.791852
3162  2023-10-30 11:31:36.823803
3163  2023-10-30 11:31:36.871637
3164  2023-10-30 11:31:36.918511
3165  2023-10-30 11:31:36.950463
3166  2023-10-30 11:31:36.998298
3167  2023-10-30 11:31:37.046203
3168  2023-10-30 11:31:37.079085
3169  2023-10-30 11:31:37.125957
3170  2023-10-30 11:31:37.157876
3171  2023-10-30 11:31:37.205907
3172  2023-10-30 11:31:37.253615
3173  2023-10-30 11:31:37.286528
3174  2023-10-30 11:31:37.333402
3175  2023-10-30 11:31:37.365317
3176  2023-10-30 11:31:37.413194
3177  2023-10-30 11:31:37.461061
3178  2023-10-30 11:31:37.493073
3179  2023-10-30 11:31:37.539945
3180  2023-10-30 11:31:37.586852
3181  2023-10-30 11:31:37.618769
3182  2023-10-30 11:31:37.666777
3183  2023-10-30 11:31:37.698700
3184  2023-10-30 11:31:37.746586
3185  2023-10-30 11:31:37.794404
3186  2023-10-30 11:31:37.826353
3187  2023-10-30 11:31:37.874190
3188  2023-10-30 11:31:37.921108
3189  2023-10-30 11:31:37.952980
3190  2023-10-30 11:31:38.000886
3191  2023-10-30 11:31:38.032800
3192  2023-10-30 11:31:38.080857
3193  2023-10-30 11:31:38.128743
3194  2023-10-30 11:31:38.159612
3195  2023-10-30 11:31:38.206517
3196  2023-10-30 11:31:38.254390
3197  2023-10-30 11:31:38.286298
3198  2023-10-30 11:31:38.334182
3199  2023-10-30 11:31:38.365099
3200  2023-10-30 11:31:38.412964
3201  2023-10-30 11:31:38.460806
3202  2023-10-30 11:31:38.492773
3203  2023-10-30 11:31:38.538597
3204  2023-10-30 11:31:38.586502
3205  2023-10-30 11:31:38.616390
3206  2023-10-30 11:31:38.666296
3207  2023-10-30 11:31:38.714193
3208  2023-10-30 11:31:38.746140
3209  2023-10-30 11:31:38.794092
3210  2023-10-30 11:31:38.824010
3211  2023-10-30 11:31:38.871845
3212  2023-10-30 11:31:38.918720
3213  2023-10-30 11:31:38.949740
3214  2023-10-30 11:31:38.997757
3215  2023-10-30 11:31:39.044632
3216  2023-10-30 11:31:39.076546
3217  2023-10-30 11:31:39.124418
3218  2023-10-30 11:31:39.156333
3219  2023-10-30 11:31:39.202255
3220  2023-10-30 11:31:39.250158
3221  2023-10-30 11:31:39.282119
3222  2023-10-30 11:31:39.330025
3223  2023-10-30 11:31:39.377896
3224  2023-10-30 11:31:39.409814
3225  2023-10-30 11:31:39.457691
3226  2023-10-30 11:31:39.504525
3227  2023-10-30 11:31:39.535495
3228  2023-10-30 11:31:39.583318
3229  2023-10-30 11:31:39.615380
3230  2023-10-30 11:31:39.660335
3231  2023-10-30 11:31:39.707198
3232  2023-10-30 11:31:39.757067
3233  2023-10-30 11:31:39.786953
3234  2023-10-30 11:31:39.834859
3235  2023-10-30 11:31:39.866772
3236  2023-10-30 11:31:39.914557
3237  2023-10-30 11:31:39.962435
3238  2023-10-30 11:31:39.996389
3239  2023-10-30 11:31:40.041275
3240  2023-10-30 11:31:40.073287
3241  2023-10-30 11:31:40.122049
3242  2023-10-30 11:31:40.168922
3243  2023-10-30 11:31:40.200829
3244  2023-10-30 11:31:40.250703
3245  2023-10-30 11:31:40.294548
3246  2023-10-30 11:31:40.326462
3247  2023-10-30 11:31:40.373338
3248  2023-10-30 11:31:40.418217
3249  2023-10-30 11:31:40.450132
3250  2023-10-30 11:31:40.498003
3251  2023-10-30 11:31:40.543880
3252  2023-10-30 11:31:40.575825
3253  2023-10-30 11:31:40.623699
3254  2023-10-30 11:31:40.670576
3255  2023-10-30 11:31:40.702487
3256  2023-10-30 11:31:40.750370
3257  2023-10-30 11:31:40.782272
3258  2023-10-30 11:31:40.830235
3259  2023-10-30 11:31:40.878101
3260  2023-10-30 11:31:40.910107
3261  2023-10-30 11:31:40.957981
3262  2023-10-30 11:31:40.989859
3263  2023-10-30 11:31:41.037760
3264  2023-10-30 11:31:41.085632
3265  2023-10-30 11:31:41.117546
3266  2023-10-30 11:31:41.165424
3267  2023-10-30 11:31:41.213286
3268  2023-10-30 11:31:41.243217
3269  2023-10-30 11:31:41.290529
3270  2023-10-30 11:31:41.338403
3271  2023-10-30 11:31:41.370322
3272  2023-10-30 11:31:41.418196
3273  2023-10-30 11:31:41.450104
3274  2023-10-30 11:31:41.495948
3275  2023-10-30 11:31:41.543851
3276  2023-10-30 11:31:41.575765
3277  2023-10-30 11:31:41.624459
3278  2023-10-30 11:31:41.672288
3279  2023-10-30 11:31:41.703240
3280  2023-10-30 11:31:41.749082
3281  2023-10-30 11:31:41.796102
3282  2023-10-30 11:31:41.827981
3283  2023-10-30 11:31:41.874856
3284  2023-10-30 11:31:41.921731
3285  2023-10-30 11:31:41.952679
3286  2023-10-30 11:31:41.999557
3287  2023-10-30 11:31:42.031472
3288  2023-10-30 11:31:42.079347
3289  2023-10-30 11:31:42.127418
3290  2023-10-30 11:31:42.159129
3291  2023-10-30 11:31:42.206998
3292  2023-10-30 11:31:42.253879
3293  2023-10-30 11:31:42.284796
3294  2023-10-30 11:31:42.332796
3295  2023-10-30 11:31:42.364677
3296  2023-10-30 11:31:42.410588
3297  2023-10-30 11:31:42.457463
3298  2023-10-30 11:31:42.506338
3299  2023-10-30 11:31:42.535254
3300  2023-10-30 11:31:42.583129
3301  2023-10-30 11:31:42.628969
3302  2023-10-30 11:31:42.659017
3303  2023-10-30 11:31:42.706889
3304  2023-10-30 11:31:42.754761
3305  2023-10-30 11:31:42.786676
3306  2023-10-30 11:31:42.834584
3307  2023-10-30 11:31:42.879468
3308  2023-10-30 11:31:42.911368
3309  2023-10-30 11:31:42.959269
3310  2023-10-30 11:31:42.991163
3311  2023-10-30 11:31:43.039031
3312  2023-10-30 11:31:43.086928
3313  2023-10-30 11:31:43.118835
3314  2023-10-30 11:31:43.166706
3315  2023-10-30 11:31:43.198608
3316  2023-10-30 11:31:43.244496
3317  2023-10-30 11:31:43.292377
3318  2023-10-30 11:31:43.323283
3319  2023-10-30 11:31:43.370151
3320  2023-10-30 11:31:43.417015
3321  2023-10-30 11:31:43.464919
3322  2023-10-30 11:31:43.494814
3323  2023-10-30 11:31:43.542800
3324  2023-10-30 11:31:43.574711
3325  2023-10-30 11:31:43.622552
3326  2023-10-30 11:31:43.670453
3327  2023-10-30 11:31:43.700343
3328  2023-10-30 11:31:43.747223
3329  2023-10-30 11:31:43.795090
3330  2023-10-30 11:31:43.827005
3331  2023-10-30 11:31:43.872882
3332  2023-10-30 11:31:43.918779
3333  2023-10-30 11:31:43.950775
3334  2023-10-30 11:31:43.998641
3335  2023-10-30 11:31:44.046573
3336  2023-10-30 11:31:44.078519
3337  2023-10-30 11:31:44.126534
3338  2023-10-30 11:31:44.157351
3339  2023-10-30 11:31:44.204228
3340  2023-10-30 11:31:44.252067
3341  2023-10-30 11:31:44.284024
3342  2023-10-30 11:31:44.331924
3343  2023-10-30 11:31:44.379806
3344  2023-10-30 11:31:44.411712
3345  2023-10-30 11:31:44.459608
3346  2023-10-30 11:31:44.491469
3347  2023-10-30 11:31:44.539372
3348  2023-10-30 11:31:44.587250
3349  2023-10-30 11:31:44.618156
3350  2023-10-30 11:31:44.665035
3351  2023-10-30 11:31:44.712930
3352  2023-10-30 11:31:44.744821
3353  2023-10-30 11:31:44.791706
3354  2023-10-30 11:31:44.838541
3355  2023-10-30 11:31:44.871485
3356  2023-10-30 11:31:44.918377
3357  2023-10-30 11:31:44.951281
3358  2023-10-30 11:31:44.998143
3359  2023-10-30 11:31:45.047013
3360  2023-10-30 11:31:45.076938
3361  2023-10-30 11:31:45.123071
3362  2023-10-30 11:31:45.168949
3363  2023-10-30 11:31:45.198899
3364  2023-10-30 11:31:45.245774
3365  2023-10-30 11:31:45.293650
3366  2023-10-30 11:31:45.325564
3367  2023-10-30 11:31:45.373402
3368  2023-10-30 11:31:45.421323
3369  2023-10-30 11:31:45.453228
3370  2023-10-30 11:31:45.499210
3371  2023-10-30 11:31:45.546087
3372  2023-10-30 11:31:45.577998
3373  2023-10-30 11:31:45.625872
3374  2023-10-30 11:31:45.657752
3375  2023-10-30 11:31:45.705656
3376  2023-10-30 11:31:45.753496
3377  2023-10-30 11:31:45.785451
3378  2023-10-30 11:31:45.833282
3379  2023-10-30 11:31:45.865231
3380  2023-10-30 11:31:45.913105
3381  2023-10-30 11:31:45.960956
3382  2023-10-30 11:31:45.992887
3383  2023-10-30 11:31:46.040813
3384  2023-10-30 11:31:46.087766
3385  2023-10-30 11:31:46.117645
3386  2023-10-30 11:31:46.164549
3387  2023-10-30 11:31:46.212422
3388  2023-10-30 11:31:46.245304
3389  2023-10-30 11:31:46.293219
3390  2023-10-30 11:31:46.325131
3391  2023-10-30 11:31:46.373132
3392  2023-10-30 11:31:46.418001
3393  2023-10-30 11:31:46.448919
3394  2023-10-30 11:31:46.496823
3395  2023-10-30 11:31:46.544662
3396  2023-10-30 11:31:46.576662
3397  2023-10-30 11:31:46.622498
3398  2023-10-30 11:31:46.669372
3399  2023-10-30 11:31:46.700409
3400  2023-10-30 11:31:46.748288
3401  2023-10-30 11:31:46.796265
3402  2023-10-30 11:31:46.828369
3403  2023-10-30 11:31:46.876103
3404  2023-10-30 11:31:46.908051
3405  2023-10-30 11:31:46.954893
3406  2023-10-30 11:31:47.001802
3407  2023-10-30 11:31:47.033718
3408  2023-10-30 11:31:47.081586
3409  2023-10-30 11:31:47.128465
3410  2023-10-30 11:31:47.159377
3411  2023-10-30 11:31:47.206426
3412  2023-10-30 11:31:47.254295
3413  2023-10-30 11:31:47.286220
3414  2023-10-30 11:31:47.334080
3415  2023-10-30 11:31:47.365997
3416  2023-10-30 11:31:47.413997
3417  2023-10-30 11:31:47.461947
3418  2023-10-30 11:31:47.492823
3419  2023-10-30 11:31:47.542690
3420  2023-10-30 11:31:47.587593
3421  2023-10-30 11:31:47.619518
3422  2023-10-30 11:31:47.668355
3423  2023-10-30 11:31:47.700303
3424  2023-10-30 11:31:47.747172
3425  2023-10-30 11:31:47.796045
3426  2023-10-30 11:31:47.827961
3427  2023-10-30 11:31:47.875829
3428  2023-10-30 11:31:47.923705
3429  2023-10-30 11:31:47.955617
3430  2023-10-30 11:31:48.003458
3431  2023-10-30 11:31:48.033391
3432  2023-10-30 11:31:48.084243
3433  2023-10-30 11:31:48.127161
3434  2023-10-30 11:31:48.159080
3435  2023-10-30 11:31:48.206913
3436  2023-10-30 11:31:48.254855
3437  2023-10-30 11:31:48.286905
3438  2023-10-30 11:31:48.334777
3439  2023-10-30 11:31:48.364730
3440  2023-10-30 11:31:48.412654
3441  2023-10-30 11:31:48.460601
3442  2023-10-30 11:31:48.492510
3443  2023-10-30 11:31:48.540348
3444  2023-10-30 11:31:48.588256
3445  2023-10-30 11:31:48.620263
3446  2023-10-30 11:31:48.666048
3447  2023-10-30 11:31:48.697984
3448  2023-10-30 11:31:48.745833
3449  2023-10-30 11:31:48.793705
3450  2023-10-30 11:31:48.824622
3451  2023-10-30 11:31:48.872491
3452  2023-10-30 11:31:48.920376
3453  2023-10-30 11:31:48.952408
3454  2023-10-30 11:31:48.999155
3455  2023-10-30 11:31:49.047029
3456  2023-10-30 11:31:49.076947
3457  2023-10-30 11:31:49.125786
3458  2023-10-30 11:31:49.156733
3459  2023-10-30 11:31:49.205604
3460  2023-10-30 11:31:49.252475
3461  2023-10-30 11:31:49.282402
3462  2023-10-30 11:31:49.330269
3463  2023-10-30 11:31:49.378144
3464  2023-10-30 11:31:49.410057
3465  2023-10-30 11:31:49.457929
3466  2023-10-30 11:31:49.505802
3467  2023-10-30 11:31:49.538727
3468  2023-10-30 11:31:49.585691
3469  2023-10-30 11:31:49.618601
3470  2023-10-30 11:31:49.666471
3471  2023-10-30 11:31:49.710325
3472  2023-10-30 11:31:49.742240
3473  2023-10-30 11:31:49.790181
3474  2023-10-30 11:31:49.838122
3475  2023-10-30 11:31:49.869035
3476  2023-10-30 11:31:49.916061
3477  2023-10-30 11:31:49.962980
3478  2023-10-30 11:31:49.993898
3479  2023-10-30 11:31:50.041773
3480  2023-10-30 11:31:50.073653
3481  2023-10-30 11:31:50.121526
3482  2023-10-30 11:31:50.169399
3483  2023-10-30 11:31:50.201314
3484  2023-10-30 11:31:50.247226
3485  2023-10-30 11:31:50.295095
3486  2023-10-30 11:31:50.327012
3487  2023-10-30 11:31:50.375013
3488  2023-10-30 11:31:50.406797
3489  2023-10-30 11:31:50.455668
3490  2023-10-30 11:31:50.502543
3491  2023-10-30 11:31:50.532458
3492  2023-10-30 11:31:50.580333
3493  2023-10-30 11:31:50.627223
3494  2023-10-30 11:31:50.659123
3495  2023-10-30 11:31:50.707001
3496  2023-10-30 11:31:50.755868
3497  2023-10-30 11:31:50.785783
3498  2023-10-30 11:31:50.833652
3499  2023-10-30 11:31:50.881531
3500  2023-10-30 11:31:50.913444
3501  2023-10-30 11:31:50.958339
3502  2023-10-30 11:31:51.005163
3503  2023-10-30 11:31:51.037113
3504  2023-10-30 11:31:51.084986
3505  2023-10-30 11:31:51.115899
3506  2023-10-30 11:31:51.163770
3507  2023-10-30 11:31:51.211650
3508  2023-10-30 11:31:51.242990
3509  2023-10-30 11:31:51.290861
3510  2023-10-30 11:31:51.337819
3511  2023-10-30 11:31:51.368768
3512  2023-10-30 11:31:51.416638
3513  2023-10-30 11:31:51.448568
3514  2023-10-30 11:31:51.496434
3515  2023-10-30 11:31:51.544301
3516  2023-10-30 11:31:51.575185
3517  2023-10-30 11:31:51.622100
3518  2023-10-30 11:31:51.667938
3519  2023-10-30 11:31:51.699881
3520  2023-10-30 11:31:51.746726
3521  2023-10-30 11:31:51.795597
3522  2023-10-30 11:31:51.826545
3523  2023-10-30 11:31:51.872467
3524  2023-10-30 11:31:51.920374
3525  2023-10-30 11:31:51.950373
3526  2023-10-30 11:31:51.998212
3527  2023-10-30 11:31:52.046190
3528  2023-10-30 11:31:52.078144
3529  2023-10-30 11:31:52.126053
3530  2023-10-30 11:31:52.157963
3531  2023-10-30 11:31:52.204805
3532  2023-10-30 11:31:52.251715
3533  2023-10-30 11:31:52.283630
3534  2023-10-30 11:31:52.330504
3535  2023-10-30 11:31:52.378382
3536  2023-10-30 11:31:52.410291
3537  2023-10-30 11:31:52.457132
3538  2023-10-30 11:31:52.505002
3539  2023-10-30 11:31:52.536917
3540  2023-10-30 11:31:52.582795
3541  2023-10-30 11:31:52.614711
3542  2023-10-30 11:31:52.663582
3543  2023-10-30 11:31:52.711502
3544  2023-10-30 11:31:52.742411
3545  2023-10-30 11:31:52.790279
3546  2023-10-30 11:31:52.838146
3547  2023-10-30 11:31:52.870085
3548  2023-10-30 11:31:52.917942
3549  2023-10-30 11:31:52.949847
3550  2023-10-30 11:31:52.996719
3551  2023-10-30 11:31:53.043605
3552  2023-10-30 11:31:53.075510
3553  2023-10-30 11:31:53.123391
3554  2023-10-30 11:31:53.171255
3555  2023-10-30 11:31:53.203176
3556  2023-10-30 11:31:53.251044
3557  2023-10-30 11:31:53.282956
3558  2023-10-30 11:31:53.329833
3559  2023-10-30 11:31:53.376667
3560  2023-10-30 11:31:53.407592
3561  2023-10-30 11:31:53.455462
