
1  2023-11-29 10:35:39.035509
2  2023-11-29 10:35:39.067504
3  2023-11-29 10:35:39.115369
4  2023-11-29 10:35:39.147251
5  2023-11-29 10:35:39.195123
6  2023-11-29 10:35:39.241998
7  2023-11-29 10:35:39.272915
8  2023-11-29 10:35:39.320819
9  2023-11-29 10:35:39.368659
10  2023-11-29 10:35:39.400613
11  2023-11-29 10:35:39.448446
12  2023-11-29 10:35:39.480399
13  2023-11-29 10:35:39.528310
14  2023-11-29 10:35:39.576143
15  2023-11-29 10:35:39.608098
16  2023-11-29 10:35:39.655930
17  2023-11-29 10:35:39.702929
18  2023-11-29 10:35:39.733729
19  2023-11-29 10:35:39.781595
20  2023-11-29 10:35:39.813571
21  2023-11-29 10:35:39.859484
22  2023-11-29 10:35:39.907352
23  2023-11-29 10:35:39.939234
24  2023-11-29 10:35:39.987107
25  2023-11-29 10:35:40.032984
26  2023-11-29 10:35:40.064898
27  2023-11-29 10:35:40.111773
28  2023-11-29 10:35:40.158706
29  2023-11-29 10:35:40.190621
30  2023-11-29 10:35:40.236507
31  2023-11-29 10:35:40.284370
32  2023-11-29 10:35:40.316284
33  2023-11-29 10:35:40.364157
34  2023-11-29 10:35:40.410147
35  2023-11-29 10:35:40.441949
36  2023-11-29 10:35:40.489861
37  2023-11-29 10:35:40.521777
38  2023-11-29 10:35:40.569607
39  2023-11-29 10:35:40.617479
40  2023-11-29 10:35:40.649562
41  2023-11-29 10:35:40.697361
42  2023-11-29 10:35:40.745255
43  2023-11-29 10:35:40.777245
44  2023-11-29 10:35:40.825116
45  2023-11-29 10:35:40.857068
46  2023-11-29 10:35:40.904995
47  2023-11-29 10:35:40.952867
48  2023-11-29 10:35:40.984782
49  2023-11-29 10:35:41.030956
50  2023-11-29 10:35:41.078565
51  2023-11-29 10:35:41.110479
52  2023-11-29 10:35:41.157349
53  2023-11-29 10:35:41.189330
54  2023-11-29 10:35:41.237196
55  2023-11-29 10:35:41.285107
56  2023-11-29 10:35:41.316956
57  2023-11-29 10:35:41.364876
58  2023-11-29 10:35:41.396742
59  2023-11-29 10:35:41.444693
60  2023-11-29 10:35:41.492605
61  2023-11-29 10:35:41.524500
62  2023-11-29 10:35:41.572335
63  2023-11-29 10:35:41.619254
64  2023-11-29 10:35:41.651168
65  2023-11-29 10:35:41.699132
66  2023-11-29 10:35:41.730960
67  2023-11-29 10:35:41.778783
68  2023-11-29 10:35:41.826655
69  2023-11-29 10:35:41.857572
70  2023-11-29 10:35:41.904062
71  2023-11-29 10:35:41.951894
72  2023-11-29 10:35:41.983808
73  2023-11-29 10:35:42.031709
74  2023-11-29 10:35:42.078585
75  2023-11-29 10:35:42.110578
76  2023-11-29 10:35:42.158374
77  2023-11-29 10:35:42.190292
78  2023-11-29 10:35:42.238202
79  2023-11-29 10:35:42.284158
80  2023-11-29 10:35:42.316072
81  2023-11-29 10:35:42.362947
82  2023-11-29 10:35:42.410819
83  2023-11-29 10:35:42.442734
84  2023-11-29 10:35:42.490606
85  2023-11-29 10:35:42.522597
86  2023-11-29 10:35:42.570439
87  2023-11-29 10:35:42.616315
88  2023-11-29 10:35:42.648230
89  2023-11-29 10:35:42.695105
90  2023-11-29 10:35:42.742049
91  2023-11-29 10:35:42.774009
92  2023-11-29 10:35:42.821763
93  2023-11-29 10:35:42.869685
94  2023-11-29 10:35:42.900634
95  2023-11-29 10:35:42.947511
96  2023-11-29 10:35:42.994506
97  2023-11-29 10:35:43.025367
98  2023-11-29 10:35:43.073240
99  2023-11-29 10:35:43.105194
100  2023-11-29 10:35:43.153101
101  2023-11-29 10:35:43.201087
102  2023-11-29 10:35:43.233142
103  2023-11-29 10:35:43.280914
104  2023-11-29 10:35:43.327748
105  2023-11-29 10:35:43.358665
106  2023-11-29 10:35:43.406584
107  2023-11-29 10:35:43.438604
108  2023-11-29 10:35:43.486324
109  2023-11-29 10:35:43.532201
110  2023-11-29 10:35:43.564116
111  2023-11-29 10:35:43.611988
112  2023-11-29 10:35:43.659860
113  2023-11-29 10:35:43.691775
114  2023-11-29 10:35:43.739647
115  2023-11-29 10:35:43.771720
116  2023-11-29 10:35:43.819433
117  2023-11-29 10:35:43.867306
118  2023-11-29 10:35:43.899289
119  2023-11-29 10:35:43.947126
120  2023-11-29 10:35:43.995024
121  2023-11-29 10:35:44.026944
122  2023-11-29 10:35:44.074821
123  2023-11-29 10:35:44.106736
124  2023-11-29 10:35:44.154607
125  2023-11-29 10:35:44.202482
126  2023-11-29 10:35:44.234395
127  2023-11-29 10:35:44.282414
128  2023-11-29 10:35:44.314181
129  2023-11-29 10:35:44.362053
130  2023-11-29 10:35:44.409926
131  2023-11-29 10:35:44.440842
132  2023-11-29 10:35:44.487764
133  2023-11-29 10:35:44.535637
134  2023-11-29 10:35:44.567652
135  2023-11-29 10:35:44.615376
136  2023-11-29 10:35:44.647327
137  2023-11-29 10:35:44.695209
138  2023-11-29 10:35:44.743034
139  2023-11-29 10:35:44.775117
140  2023-11-29 10:35:44.822989
141  2023-11-29 10:35:44.854857
142  2023-11-29 10:35:44.902729
143  2023-11-29 10:35:44.950646
144  2023-11-29 10:35:44.982549
145  2023-11-29 10:35:45.030429
146  2023-11-29 10:35:45.078305
147  2023-11-29 10:35:45.110222
148  2023-11-29 10:35:45.158191
149  2023-11-29 10:35:45.190104
150  2023-11-29 10:35:45.238075
151  2023-11-29 10:35:45.285947
152  2023-11-29 10:35:45.317894
153  2023-11-29 10:35:45.363794
154  2023-11-29 10:35:45.411611
155  2023-11-29 10:35:45.443526
156  2023-11-29 10:35:45.491440
157  2023-11-29 10:35:45.522315
158  2023-11-29 10:35:45.570187
159  2023-11-29 10:35:45.617062
160  2023-11-29 10:35:45.648980
161  2023-11-29 10:35:45.696849
162  2023-11-29 10:35:45.744738
163  2023-11-29 10:35:45.776668
164  2023-11-29 10:35:45.824553
165  2023-11-29 10:35:45.856422
166  2023-11-29 10:35:45.904441
167  2023-11-29 10:35:45.952313
168  2023-11-29 10:35:45.983465
169  2023-11-29 10:35:46.030279
170  2023-11-29 10:35:46.076158
171  2023-11-29 10:35:46.108072
172  2023-11-29 10:35:46.153949
173  2023-11-29 10:35:46.201821
174  2023-11-29 10:35:46.233736
175  2023-11-29 10:35:46.281608
176  2023-11-29 10:35:46.313522
177  2023-11-29 10:35:46.361394
178  2023-11-29 10:35:46.409267
179  2023-11-29 10:35:46.440354
180  2023-11-29 10:35:46.487240
181  2023-11-29 10:35:46.535072
182  2023-11-29 10:35:46.566919
183  2023-11-29 10:35:46.614836
184  2023-11-29 10:35:46.646947
185  2023-11-29 10:35:46.694669
186  2023-11-29 10:35:46.742495
187  2023-11-29 10:35:46.774410
188  2023-11-29 10:35:46.822315
189  2023-11-29 10:35:46.870402
190  2023-11-29 10:35:46.902068
191  2023-11-29 10:35:46.949981
192  2023-11-29 10:35:46.981855
193  2023-11-29 10:35:47.027733
194  2023-11-29 10:35:47.075683
195  2023-11-29 10:35:47.107605
196  2023-11-29 10:35:47.155437
197  2023-11-29 10:35:47.203354
198  2023-11-29 10:35:47.235258
199  2023-11-29 10:35:47.283212
200  2023-11-29 10:35:47.315116
201  2023-11-29 10:35:47.363003
202  2023-11-29 10:35:47.410880
203  2023-11-29 10:35:47.442778
204  2023-11-29 10:35:47.490608
205  2023-11-29 10:35:47.522620
206  2023-11-29 10:35:47.569886
207  2023-11-29 10:35:47.617796
208  2023-11-29 10:35:47.649672
209  2023-11-29 10:35:47.697580
210  2023-11-29 10:35:47.744442
211  2023-11-29 10:35:47.776351
212  2023-11-29 10:35:47.824375
213  2023-11-29 10:35:47.856339
214  2023-11-29 10:35:47.904368
215  2023-11-29 10:35:47.952036
216  2023-11-29 10:35:47.983988
217  2023-11-29 10:35:48.030824
218  2023-11-29 10:35:48.077700
219  2023-11-29 10:35:48.109661
220  2023-11-29 10:35:48.157485
221  2023-11-29 10:35:48.189400
222  2023-11-29 10:35:48.237273
223  2023-11-29 10:35:48.284309
224  2023-11-29 10:35:48.315227
225  2023-11-29 10:35:48.363099
226  2023-11-29 10:35:48.409974
227  2023-11-29 10:35:48.440891
228  2023-11-29 10:35:48.488763
229  2023-11-29 10:35:48.536635
230  2023-11-29 10:35:48.567595
231  2023-11-29 10:35:48.614427
232  2023-11-29 10:35:48.661349
233  2023-11-29 10:35:48.692219
234  2023-11-29 10:35:48.740091
235  2023-11-29 10:35:48.772047
236  2023-11-29 10:35:48.819878
237  2023-11-29 10:35:48.867791
238  2023-11-29 10:35:48.899715
239  2023-11-29 10:35:48.947571
240  2023-11-29 10:35:48.994443
241  2023-11-29 10:35:49.025384
242  2023-11-29 10:35:49.073239
243  2023-11-29 10:35:49.105147
244  2023-11-29 10:35:49.152323
245  2023-11-29 10:35:49.199165
246  2023-11-29 10:35:49.231080
247  2023-11-29 10:35:49.278990
248  2023-11-29 10:35:49.326833
249  2023-11-29 10:35:49.358873
250  2023-11-29 10:35:49.406770
251  2023-11-29 10:35:49.452773
252  2023-11-29 10:35:49.484688
253  2023-11-29 10:35:49.532560
254  2023-11-29 10:35:49.564475
255  2023-11-29 10:35:49.612380
256  2023-11-29 10:35:49.660219
257  2023-11-29 10:35:49.692133
258  2023-11-29 10:35:49.741005
259  2023-11-29 10:35:49.771921
260  2023-11-29 10:35:49.819792
261  2023-11-29 10:35:49.867665
262  2023-11-29 10:35:49.897584
263  2023-11-29 10:35:49.945457
264  2023-11-29 10:35:49.993329
265  2023-11-29 10:35:50.025243
266  2023-11-29 10:35:50.073115
267  2023-11-29 10:35:50.119990
268  2023-11-29 10:35:50.150907
269  2023-11-29 10:35:50.198815
270  2023-11-29 10:35:50.230730
271  2023-11-29 10:35:50.278566
272  2023-11-29 10:35:50.326473
273  2023-11-29 10:35:50.358378
274  2023-11-29 10:35:50.405227
275  2023-11-29 10:35:50.453099
276  2023-11-29 10:35:50.485014
277  2023-11-29 10:35:50.532920
278  2023-11-29 10:35:50.564800
279  2023-11-29 10:35:50.612673
280  2023-11-29 10:35:50.660511
281  2023-11-29 10:35:50.692432
282  2023-11-29 10:35:50.740380
283  2023-11-29 10:35:50.772358
284  2023-11-29 10:35:50.820076
285  2023-11-29 10:35:50.866967
286  2023-11-29 10:35:50.898827
287  2023-11-29 10:35:50.946734
288  2023-11-29 10:35:50.994682
289  2023-11-29 10:35:51.026531
290  2023-11-29 10:35:51.074391
291  2023-11-29 10:35:51.106313
292  2023-11-29 10:35:51.154145
293  2023-11-29 10:35:51.202016
294  2023-11-29 10:35:51.234037
295  2023-11-29 10:35:51.281480
296  2023-11-29 10:35:51.313387
297  2023-11-29 10:35:51.360227
298  2023-11-29 10:35:51.408145
299  2023-11-29 10:35:51.440061
300  2023-11-29 10:35:51.487881
301  2023-11-29 10:35:51.533778
302  2023-11-29 10:35:51.565643
303  2023-11-29 10:35:51.614560
304  2023-11-29 10:35:51.661427
305  2023-11-29 10:35:51.693523
306  2023-11-29 10:35:51.741384
307  2023-11-29 10:35:51.786222
308  2023-11-29 10:35:51.817139
309  2023-11-29 10:35:51.865011
310  2023-11-29 10:35:51.909891
311  2023-11-29 10:35:51.940808
312  2023-11-29 10:35:51.988911
313  2023-11-29 10:35:52.036775
314  2023-11-29 10:35:52.068642
315  2023-11-29 10:35:52.116619
316  2023-11-29 10:35:52.148570
317  2023-11-29 10:35:52.195610
318  2023-11-29 10:35:52.242488
319  2023-11-29 10:35:52.274383
320  2023-11-29 10:35:52.322251
321  2023-11-29 10:35:52.370136
322  2023-11-29 10:35:52.402011
323  2023-11-29 10:35:52.448932
324  2023-11-29 10:35:52.479844
325  2023-11-29 10:35:52.527735
326  2023-11-29 10:35:52.575601
327  2023-11-29 10:35:52.607508
328  2023-11-29 10:35:52.655378
329  2023-11-29 10:35:52.703400
330  2023-11-29 10:35:52.735317
331  2023-11-29 10:35:52.783188
332  2023-11-29 10:35:52.814092
333  2023-11-29 10:35:52.859966
334  2023-11-29 10:35:52.906811
335  2023-11-29 10:35:52.953685
336  2023-11-29 10:35:52.985600
337  2023-11-29 10:35:53.033472
338  2023-11-29 10:35:53.065469
339  2023-11-29 10:35:53.113359
340  2023-11-29 10:35:53.159279
341  2023-11-29 10:35:53.191151
342  2023-11-29 10:35:53.239058
343  2023-11-29 10:35:53.286895
344  2023-11-29 10:35:53.318810
345  2023-11-29 10:35:53.366723
346  2023-11-29 10:35:53.398597
347  2023-11-29 10:35:53.444474
348  2023-11-29 10:35:53.492380
349  2023-11-29 10:35:53.524286
350  2023-11-29 10:35:53.572133
351  2023-11-29 10:35:53.620005
352  2023-11-29 10:35:53.651920
353  2023-11-29 10:35:53.699835
354  2023-11-29 10:35:53.731885
355  2023-11-29 10:35:53.779578
356  2023-11-29 10:35:53.827487
357  2023-11-29 10:35:53.859410
358  2023-11-29 10:35:53.907237
359  2023-11-29 10:35:53.939152
360  2023-11-29 10:35:53.987024
361  2023-11-29 10:35:54.034937
362  2023-11-29 10:35:54.066853
363  2023-11-29 10:35:54.114883
364  2023-11-29 10:35:54.146634
365  2023-11-29 10:35:54.194469
366  2023-11-29 10:35:54.242387
367  2023-11-29 10:35:54.274294
368  2023-11-29 10:35:54.322128
369  2023-11-29 10:35:54.370044
370  2023-11-29 10:35:54.401915
371  2023-11-29 10:35:54.448830
372  2023-11-29 10:35:54.494668
373  2023-11-29 10:35:54.525637
374  2023-11-29 10:35:54.573461
375  2023-11-29 10:35:54.605371
376  2023-11-29 10:35:54.653278
377  2023-11-29 10:35:54.701115
378  2023-11-29 10:35:54.733146
379  2023-11-29 10:35:54.780936
380  2023-11-29 10:35:54.827776
381  2023-11-29 10:35:54.858694
382  2023-11-29 10:35:54.906566
383  2023-11-29 10:35:54.952443
384  2023-11-29 10:35:54.984357
385  2023-11-29 10:35:55.031918
386  2023-11-29 10:35:55.063831
387  2023-11-29 10:35:55.111895
388  2023-11-29 10:35:55.159674
389  2023-11-29 10:35:55.190548
390  2023-11-29 10:35:55.235469
391  2023-11-29 10:35:55.283301
392  2023-11-29 10:35:55.315245
393  2023-11-29 10:35:55.363118
394  2023-11-29 10:35:55.410993
395  2023-11-29 10:35:55.442904
396  2023-11-29 10:35:55.490787
397  2023-11-29 10:35:55.522697
398  2023-11-29 10:35:55.570533
399  2023-11-29 10:35:55.618437
400  2023-11-29 10:35:55.650350
401  2023-11-29 10:35:55.696228
402  2023-11-29 10:35:55.744100
403  2023-11-29 10:35:55.776014
404  2023-11-29 10:35:55.823885
405  2023-11-29 10:35:55.855770
406  2023-11-29 10:35:55.903691
407  2023-11-29 10:35:55.951555
408  2023-11-29 10:35:55.981474
409  2023-11-29 10:35:56.027353
410  2023-11-29 10:35:56.075185
411  2023-11-29 10:35:56.107135
412  2023-11-29 10:35:56.154025
413  2023-11-29 10:35:56.202844
414  2023-11-29 10:35:56.232762
415  2023-11-29 10:35:56.280634
416  2023-11-29 10:35:56.328506
417  2023-11-29 10:35:56.360421
418  2023-11-29 10:35:56.408293
419  2023-11-29 10:35:56.440208
420  2023-11-29 10:35:56.488080
421  2023-11-29 10:35:56.535982
422  2023-11-29 10:35:56.567897
423  2023-11-29 10:35:56.615740
424  2023-11-29 10:35:56.647653
425  2023-11-29 10:35:56.695559
426  2023-11-29 10:35:56.743397
427  2023-11-29 10:35:56.773363
428  2023-11-29 10:35:56.821189
429  2023-11-29 10:35:56.869100
430  2023-11-29 10:35:56.901067
431  2023-11-29 10:35:56.948968
432  2023-11-29 10:35:56.980883
433  2023-11-29 10:35:57.028792
434  2023-11-29 10:35:57.076627
435  2023-11-29 10:35:57.108620
436  2023-11-29 10:35:57.156301
437  2023-11-29 10:35:57.188212
438  2023-11-29 10:35:57.236119
439  2023-11-29 10:35:57.280998
440  2023-11-29 10:35:57.327987
441  2023-11-29 10:35:57.358911
442  2023-11-29 10:35:57.405792
443  2023-11-29 10:35:57.453620
444  2023-11-29 10:35:57.485571
445  2023-11-29 10:35:57.533450
446  2023-11-29 10:35:57.565352
447  2023-11-29 10:35:57.613196
448  2023-11-29 10:35:57.661110
449  2023-11-29 10:35:57.693010
450  2023-11-29 10:35:57.740887
451  2023-11-29 10:35:57.772806
452  2023-11-29 10:35:57.820673
453  2023-11-29 10:35:57.868511
454  2023-11-29 10:35:57.900426
455  2023-11-29 10:35:57.948298
456  2023-11-29 10:35:57.980222
457  2023-11-29 10:35:58.028116
458  2023-11-29 10:35:58.075988
459  2023-11-29 10:35:58.107908
460  2023-11-29 10:35:58.155785
461  2023-11-29 10:35:58.201710
462  2023-11-29 10:35:58.233602
463  2023-11-29 10:35:58.279509
464  2023-11-29 10:35:58.326367
465  2023-11-29 10:35:58.357246
466  2023-11-29 10:35:58.405150
467  2023-11-29 10:35:58.452990
468  2023-11-29 10:35:58.484904
469  2023-11-29 10:35:58.532818
470  2023-11-29 10:35:58.564725
471  2023-11-29 10:35:58.610603
472  2023-11-29 10:35:58.658442
473  2023-11-29 10:35:58.690389
474  2023-11-29 10:35:58.738227
475  2023-11-29 10:35:58.786123
476  2023-11-29 10:35:58.818045
477  2023-11-29 10:35:58.865885
478  2023-11-29 10:35:58.897899
479  2023-11-29 10:35:58.944722
480  2023-11-29 10:35:58.992547
481  2023-11-29 10:35:59.023465
482  2023-11-29 10:35:59.070376
483  2023-11-29 10:35:59.118244
484  2023-11-29 10:35:59.148160
485  2023-11-29 10:35:59.196043
486  2023-11-29 10:35:59.243906
487  2023-11-29 10:35:59.275825
488  2023-11-29 10:35:59.323694
489  2023-11-29 10:35:59.355607
490  2023-11-29 10:35:59.401506
491  2023-11-29 10:35:59.449363
492  2023-11-29 10:35:59.481241
493  2023-11-29 10:35:59.529148
494  2023-11-29 10:35:59.577025
495  2023-11-29 10:35:59.608928
496  2023-11-29 10:35:59.655807
497  2023-11-29 10:35:59.703648
498  2023-11-29 10:35:59.735605
499  2023-11-29 10:35:59.783434
500  2023-11-29 10:35:59.815348
501  2023-11-29 10:35:59.863438
502  2023-11-29 10:35:59.911203
503  2023-11-29 10:35:59.943147
504  2023-11-29 10:35:59.990990
505  2023-11-29 10:36:00.022905
506  2023-11-29 10:36:00.070823
507  2023-11-29 10:36:00.118648
508  2023-11-29 10:36:00.150562
509  2023-11-29 10:36:00.198474
510  2023-11-29 10:36:00.230349
511  2023-11-29 10:36:00.276226
512  2023-11-29 10:36:00.324098
513  2023-11-29 10:36:00.356013
514  2023-11-29 10:36:00.403923
515  2023-11-29 10:36:00.451757
516  2023-11-29 10:36:00.483672
517  2023-11-29 10:36:00.531544
518  2023-11-29 10:36:00.563494
519  2023-11-29 10:36:00.611362
520  2023-11-29 10:36:00.658208
521  2023-11-29 10:36:00.690153
522  2023-11-29 10:36:00.736995
523  2023-11-29 10:36:00.783913
524  2023-11-29 10:36:00.815864
525  2023-11-29 10:36:00.863756
526  2023-11-29 10:36:00.911671
527  2023-11-29 10:36:00.942594
528  2023-11-29 10:36:00.990418
529  2023-11-29 10:36:01.022332
530  2023-11-29 10:36:01.068212
531  2023-11-29 10:36:01.116112
532  2023-11-29 10:36:01.148030
533  2023-11-29 10:36:01.195868
534  2023-11-29 10:36:01.243768
535  2023-11-29 10:36:01.274702
536  2023-11-29 10:36:01.322572
537  2023-11-29 10:36:01.369429
538  2023-11-29 10:36:01.401353
539  2023-11-29 10:36:01.449222
540  2023-11-29 10:36:01.481106
541  2023-11-29 10:36:01.529010
542  2023-11-29 10:36:01.576892
543  2023-11-29 10:36:01.608800
544  2023-11-29 10:36:01.656669
545  2023-11-29 10:36:01.688592
546  2023-11-29 10:36:01.736463
547  2023-11-29 10:36:01.784337
548  2023-11-29 10:36:01.816242
549  2023-11-29 10:36:01.864113
550  2023-11-29 10:36:01.910016
551  2023-11-29 10:36:01.941913
552  2023-11-29 10:36:01.989746
553  2023-11-29 10:36:02.035624
554  2023-11-29 10:36:02.067580
555  2023-11-29 10:36:02.115459
556  2023-11-29 10:36:02.147367
557  2023-11-29 10:36:02.195282
558  2023-11-29 10:36:02.241147
559  2023-11-29 10:36:02.273061
560  2023-11-29 10:36:02.321053
561  2023-11-29 10:36:02.368809
562  2023-11-29 10:36:02.400690
563  2023-11-29 10:36:02.447458
564  2023-11-29 10:36:02.494468
565  2023-11-29 10:36:02.525385
566  2023-11-29 10:36:02.572260
567  2023-11-29 10:36:02.620163
568  2023-11-29 10:36:02.651228
569  2023-11-29 10:36:02.698149
570  2023-11-29 10:36:02.730077
571  2023-11-29 10:36:02.777942
572  2023-11-29 10:36:02.825821
573  2023-11-29 10:36:02.857753
574  2023-11-29 10:36:02.905594
575  2023-11-29 10:36:02.953470
576  2023-11-29 10:36:02.985387
577  2023-11-29 10:36:03.033266
578  2023-11-29 10:36:03.064184
579  2023-11-29 10:36:03.111017
580  2023-11-29 10:36:03.158455
581  2023-11-29 10:36:03.190367
582  2023-11-29 10:36:03.238239
583  2023-11-29 10:36:03.286115
584  2023-11-29 10:36:03.317139
585  2023-11-29 10:36:03.363958
586  2023-11-29 10:36:03.411830
587  2023-11-29 10:36:03.443745
588  2023-11-29 10:36:03.491617
589  2023-11-29 10:36:03.523531
590  2023-11-29 10:36:03.571403
591  2023-11-29 10:36:03.619275
592  2023-11-29 10:36:03.651321
593  2023-11-29 10:36:03.699094
594  2023-11-29 10:36:03.731017
595  2023-11-29 10:36:03.778849
596  2023-11-29 10:36:03.823729
597  2023-11-29 10:36:03.869640
598  2023-11-29 10:36:03.901553
599  2023-11-29 10:36:03.948432
600  2023-11-29 10:36:03.994273
601  2023-11-29 10:36:04.026221
602  2023-11-29 10:36:04.074086
603  2023-11-29 10:36:04.106005
604  2023-11-29 10:36:04.153878
605  2023-11-29 10:36:04.201445
606  2023-11-29 10:36:04.233440
607  2023-11-29 10:36:04.280313
608  2023-11-29 10:36:04.327191
609  2023-11-29 10:36:04.359105
610  2023-11-29 10:36:04.405991
611  2023-11-29 10:36:04.452872
612  2023-11-29 10:36:04.484772
613  2023-11-29 10:36:04.532608
614  2023-11-29 10:36:04.564557
615  2023-11-29 10:36:04.612434
616  2023-11-29 10:36:04.660304
617  2023-11-29 10:36:04.692182
618  2023-11-29 10:36:04.740067
619  2023-11-29 10:36:04.772014
620  2023-11-29 10:36:04.819841
621  2023-11-29 10:36:04.867767
622  2023-11-29 10:36:04.899662
623  2023-11-29 10:36:04.947533
624  2023-11-29 10:36:04.994411
625  2023-11-29 10:36:05.025291
626  2023-11-29 10:36:05.072166
627  2023-11-29 10:36:05.120038
628  2023-11-29 10:36:05.151999
629  2023-11-29 10:36:05.199825
630  2023-11-29 10:36:05.231720
631  2023-11-29 10:36:05.279618
632  2023-11-29 10:36:05.327463
633  2023-11-29 10:36:05.358381
634  2023-11-29 10:36:05.406367
635  2023-11-29 10:36:05.438201
636  2023-11-29 10:36:05.486039
637  2023-11-29 10:36:05.532913
638  2023-11-29 10:36:05.563831
639  2023-11-29 10:36:05.609736
640  2023-11-29 10:36:05.657615
641  2023-11-29 10:36:05.689532
642  2023-11-29 10:36:05.737404
643  2023-11-29 10:36:05.785325
644  2023-11-29 10:36:05.817238
645  2023-11-29 10:36:05.865167
646  2023-11-29 10:36:05.911049
647  2023-11-29 10:36:05.943048
648  2023-11-29 10:36:05.990918
649  2023-11-29 10:36:06.022831
650  2023-11-29 10:36:06.070720
651  2023-11-29 10:36:06.118587
652  2023-11-29 10:36:06.150459
653  2023-11-29 10:36:06.197369
654  2023-11-29 10:36:06.245240
655  2023-11-29 10:36:06.277162
656  2023-11-29 10:36:06.324739
657  2023-11-29 10:36:06.356718
658  2023-11-29 10:36:06.404598
659  2023-11-29 10:36:06.452461
660  2023-11-29 10:36:06.484373
661  2023-11-29 10:36:06.532266
662  2023-11-29 10:36:06.564173
663  2023-11-29 10:36:06.610057
664  2023-11-29 10:36:06.658912
665  2023-11-29 10:36:06.689794
666  2023-11-29 10:36:06.737667
667  2023-11-29 10:36:06.785572
668  2023-11-29 10:36:06.817501
669  2023-11-29 10:36:06.866375
670  2023-11-29 10:36:06.897239
671  2023-11-29 10:36:06.943157
672  2023-11-29 10:36:06.990988
673  2023-11-29 10:36:07.022903
674  2023-11-29 10:36:07.069810
675  2023-11-29 10:36:07.115655
676  2023-11-29 10:36:07.147605
677  2023-11-29 10:36:07.192481
678  2023-11-29 10:36:07.239371
679  2023-11-29 10:36:07.286236
680  2023-11-29 10:36:07.316383
681  2023-11-29 10:36:07.364382
682  2023-11-29 10:36:07.410211
683  2023-11-29 10:36:07.440767
684  2023-11-29 10:36:07.488682
685  2023-11-29 10:36:07.536639
686  2023-11-29 10:36:07.568553
687  2023-11-29 10:36:07.615470
688  2023-11-29 10:36:07.646536
689  2023-11-29 10:36:07.693364
690  2023-11-29 10:36:07.741238
691  2023-11-29 10:36:07.772154
692  2023-11-29 10:36:07.820025
693  2023-11-29 10:36:07.868922
694  2023-11-29 10:36:07.899849
695  2023-11-29 10:36:07.947716
696  2023-11-29 10:36:07.994559
697  2023-11-29 10:36:08.026473
698  2023-11-29 10:36:08.074345
699  2023-11-29 10:36:08.107266
700  2023-11-29 10:36:08.154132
701  2023-11-29 10:36:08.202004
702  2023-11-29 10:36:08.233919
703  2023-11-29 10:36:08.281791
704  2023-11-29 10:36:08.313706
705  2023-11-29 10:36:08.361577
706  2023-11-29 10:36:08.408493
707  2023-11-29 10:36:08.439416
708  2023-11-29 10:36:08.487267
709  2023-11-29 10:36:08.534224
710  2023-11-29 10:36:08.565083
711  2023-11-29 10:36:08.612943
712  2023-11-29 10:36:08.660824
713  2023-11-29 10:36:08.692694
714  2023-11-29 10:36:08.740482
715  2023-11-29 10:36:08.771517
716  2023-11-29 10:36:08.818399
717  2023-11-29 10:36:08.864238
718  2023-11-29 10:36:08.911158
719  2023-11-29 10:36:08.943059
720  2023-11-29 10:36:08.990901
721  2023-11-29 10:36:09.022814
722  2023-11-29 10:36:09.070721
723  2023-11-29 10:36:09.118711
724  2023-11-29 10:36:09.150289
725  2023-11-29 10:36:09.198122
726  2023-11-29 10:36:09.230037
727  2023-11-29 10:36:09.277952
728  2023-11-29 10:36:09.325781
729  2023-11-29 10:36:09.357696
730  2023-11-29 10:36:09.405568
731  2023-11-29 10:36:09.453440
732  2023-11-29 10:36:09.484357
733  2023-11-29 10:36:09.532229
734  2023-11-29 10:36:09.564144
735  2023-11-29 10:36:09.613015
736  2023-11-29 10:36:09.659888
737  2023-11-29 10:36:09.691925
738  2023-11-29 10:36:09.739831
739  2023-11-29 10:36:09.771727
740  2023-11-29 10:36:09.819588
741  2023-11-29 10:36:09.867491
742  2023-11-29 10:36:09.899406
743  2023-11-29 10:36:09.947288
744  2023-11-29 10:36:09.995193
745  2023-11-29 10:36:10.027107
746  2023-11-29 10:36:10.073982
747  2023-11-29 10:36:10.104900
748  2023-11-29 10:36:10.152772
749  2023-11-29 10:36:10.200682
750  2023-11-29 10:36:10.231608
751  2023-11-29 10:36:10.279479
752  2023-11-29 10:36:10.327305
753  2023-11-29 10:36:10.359220
754  2023-11-29 10:36:10.406844
755  2023-11-29 10:36:10.438759
756  2023-11-29 10:36:10.486582
757  2023-11-29 10:36:10.534487
758  2023-11-29 10:36:10.566044
759  2023-11-29 10:36:10.612106
760  2023-11-29 10:36:10.660090
761  2023-11-29 10:36:10.692075
762  2023-11-29 10:36:10.740003
763  2023-11-29 10:36:10.785886
764  2023-11-29 10:36:10.816787
765  2023-11-29 10:36:10.864662
766  2023-11-29 10:36:10.896597
767  2023-11-29 10:36:10.944448
768  2023-11-29 10:36:10.992328
769  2023-11-29 10:36:11.024205
770  2023-11-29 10:36:11.072121
771  2023-11-29 10:36:11.119947
772  2023-11-29 10:36:11.150892
773  2023-11-29 10:36:11.196741
774  2023-11-29 10:36:11.242629
775  2023-11-29 10:36:11.272614
776  2023-11-29 10:36:11.319486
777  2023-11-29 10:36:11.367468
778  2023-11-29 10:36:11.399497
779  2023-11-29 10:36:11.447451
780  2023-11-29 10:36:11.495282
781  2023-11-29 10:36:11.527197
782  2023-11-29 10:36:11.575104
783  2023-11-29 10:36:11.607098
784  2023-11-29 10:36:11.654856
785  2023-11-29 10:36:11.702774
786  2023-11-29 10:36:11.734694
787  2023-11-29 10:36:11.782514
788  2023-11-29 10:36:11.814429
789  2023-11-29 10:36:11.860347
790  2023-11-29 10:36:11.908224
791  2023-11-29 10:36:11.940133
792  2023-11-29 10:36:11.988187
793  2023-11-29 10:36:12.035874
794  2023-11-29 10:36:12.067801
795  2023-11-29 10:36:12.115659
796  2023-11-29 10:36:12.147568
797  2023-11-29 10:36:12.193448
798  2023-11-29 10:36:12.241326
799  2023-11-29 10:36:12.273239
800  2023-11-29 10:36:12.321109
801  2023-11-29 10:36:12.368982
802  2023-11-29 10:36:12.400861
803  2023-11-29 10:36:12.448786
804  2023-11-29 10:36:12.480684
805  2023-11-29 10:36:12.528521
806  2023-11-29 10:36:12.576424
807  2023-11-29 10:36:12.608339
808  2023-11-29 10:36:12.655833
809  2023-11-29 10:36:12.704661
810  2023-11-29 10:36:12.734579
811  2023-11-29 10:36:12.780459
812  2023-11-29 10:36:12.827331
813  2023-11-29 10:36:12.858248
814  2023-11-29 10:36:12.906120
815  2023-11-29 10:36:12.952995
816  2023-11-29 10:36:12.984062
817  2023-11-29 10:36:13.029905
818  2023-11-29 10:36:13.077874
819  2023-11-29 10:36:13.109777
820  2023-11-29 10:36:13.157612
821  2023-11-29 10:36:13.189648
822  2023-11-29 10:36:13.237433
823  2023-11-29 10:36:13.285271
824  2023-11-29 10:36:13.317186
825  2023-11-29 10:36:13.365091
826  2023-11-29 10:36:13.397003
827  2023-11-29 10:36:13.444876
828  2023-11-29 10:36:13.492716
829  2023-11-29 10:36:13.524631
830  2023-11-29 10:36:13.570551
831  2023-11-29 10:36:13.616517
832  2023-11-29 10:36:13.647425
833  2023-11-29 10:36:13.695299
834  2023-11-29 10:36:13.743282
835  2023-11-29 10:36:13.773140
836  2023-11-29 10:36:13.821012
837  2023-11-29 10:36:13.868884
838  2023-11-29 10:36:13.901841
839  2023-11-29 10:36:13.948671
840  2023-11-29 10:36:13.981612
841  2023-11-29 10:36:14.028456
842  2023-11-29 10:36:14.076328
843  2023-11-29 10:36:14.106305
844  2023-11-29 10:36:14.154120
845  2023-11-29 10:36:14.201992
846  2023-11-29 10:36:14.233907
847  2023-11-29 10:36:14.281779
848  2023-11-29 10:36:14.313693
849  2023-11-29 10:36:14.359571
850  2023-11-29 10:36:14.407494
851  2023-11-29 10:36:14.439398
852  2023-11-29 10:36:14.486232
853  2023-11-29 10:36:14.533147
854  2023-11-29 10:36:14.564059
855  2023-11-29 10:36:14.611934
856  2023-11-29 10:36:14.659768
857  2023-11-29 10:36:14.691864
858  2023-11-29 10:36:14.739696
859  2023-11-29 10:36:14.771613
860  2023-11-29 10:36:14.817489
861  2023-11-29 10:36:14.865356
862  2023-11-29 10:36:14.897273
863  2023-11-29 10:36:14.945114
864  2023-11-29 10:36:14.993019
865  2023-11-29 10:36:15.023935
866  2023-11-29 10:36:15.071825
867  2023-11-29 10:36:15.119698
868  2023-11-29 10:36:15.151637
869  2023-11-29 10:36:15.197528
870  2023-11-29 10:36:15.244393
871  2023-11-29 10:36:15.277310
872  2023-11-29 10:36:15.324190
873  2023-11-29 10:36:15.356058
874  2023-11-29 10:36:15.403931
875  2023-11-29 10:36:15.451802
876  2023-11-29 10:36:15.483749
877  2023-11-29 10:36:15.531588
878  2023-11-29 10:36:15.563502
879  2023-11-29 10:36:15.612389
880  2023-11-29 10:36:15.657503
881  2023-11-29 10:36:15.689418
882  2023-11-29 10:36:15.737290
883  2023-11-29 10:36:15.785162
884  2023-11-29 10:36:15.817077
885  2023-11-29 10:36:15.864949
886  2023-11-29 10:36:15.910103
887  2023-11-29 10:36:15.940909
888  2023-11-29 10:36:15.988923
889  2023-11-29 10:36:16.036834
890  2023-11-29 10:36:16.068741
891  2023-11-29 10:36:16.116580
892  2023-11-29 10:36:16.148495
893  2023-11-29 10:36:16.196367
894  2023-11-29 10:36:16.242245
895  2023-11-29 10:36:16.273195
896  2023-11-29 10:36:16.320359
897  2023-11-29 10:36:16.368226
898  2023-11-29 10:36:16.400145
899  2023-11-29 10:36:16.448036
900  2023-11-29 10:36:16.479953
901  2023-11-29 10:36:16.527825
902  2023-11-29 10:36:16.575699
903  2023-11-29 10:36:16.607613
904  2023-11-29 10:36:16.655484
905  2023-11-29 10:36:16.703360
906  2023-11-29 10:36:16.735274
907  2023-11-29 10:36:16.780162
908  2023-11-29 10:36:16.827990
909  2023-11-29 10:36:16.858908
910  2023-11-29 10:36:16.905782
911  2023-11-29 10:36:16.953654
912  2023-11-29 10:36:16.985569
913  2023-11-29 10:36:17.033441
914  2023-11-29 10:36:17.064498
915  2023-11-29 10:36:17.111414
916  2023-11-29 10:36:17.159312
917  2023-11-29 10:36:17.191227
918  2023-11-29 10:36:17.239131
919  2023-11-29 10:36:17.287100
920  2023-11-29 10:36:17.318885
921  2023-11-29 10:36:17.364805
922  2023-11-29 10:36:17.411677
923  2023-11-29 10:36:17.443599
924  2023-11-29 10:36:17.491424
925  2023-11-29 10:36:17.523339
926  2023-11-29 10:36:17.571245
927  2023-11-29 10:36:17.619107
928  2023-11-29 10:36:17.651054
929  2023-11-29 10:36:17.698902
930  2023-11-29 10:36:17.730818
931  2023-11-29 10:36:17.778814
932  2023-11-29 10:36:17.826528
933  2023-11-29 10:36:17.856482
934  2023-11-29 10:36:17.904361
935  2023-11-29 10:36:17.952224
936  2023-11-29 10:36:17.984142
937  2023-11-29 10:36:18.032012
938  2023-11-29 10:36:18.063919
939  2023-11-29 10:36:18.111687
940  2023-11-29 10:36:18.159527
941  2023-11-29 10:36:18.191482
942  2023-11-29 10:36:18.240343
943  2023-11-29 10:36:18.286220
944  2023-11-29 10:36:18.318131
945  2023-11-29 10:36:18.364020
946  2023-11-29 10:36:18.410886
947  2023-11-29 10:36:18.442770
948  2023-11-29 10:36:18.488645
949  2023-11-29 10:36:18.536518
950  2023-11-29 10:36:18.568432
951  2023-11-29 10:36:18.616350
952  2023-11-29 10:36:18.648219
953  2023-11-29 10:36:18.694096
954  2023-11-29 10:36:18.739976
955  2023-11-29 10:36:18.771761
956  2023-11-29 10:36:18.819675
957  2023-11-29 10:36:18.867582
958  2023-11-29 10:36:18.899500
959  2023-11-29 10:36:18.947334
960  2023-11-29 10:36:18.995206
961  2023-11-29 10:36:19.027120
962  2023-11-29 10:36:19.075030
963  2023-11-29 10:36:19.106941
964  2023-11-29 10:36:19.154781
965  2023-11-29 10:36:19.202675
966  2023-11-29 10:36:19.234611
967  2023-11-29 10:36:19.282439
968  2023-11-29 10:36:19.314354
969  2023-11-29 10:36:19.360264
970  2023-11-29 10:36:19.408341
971  2023-11-29 10:36:19.440292
972  2023-11-29 10:36:19.488280
973  2023-11-29 10:36:19.536019
974  2023-11-29 10:36:19.567976
975  2023-11-29 10:36:19.615838
976  2023-11-29 10:36:19.647752
977  2023-11-29 10:36:19.694595
978  2023-11-29 10:36:19.742497
979  2023-11-29 10:36:19.773416
980  2023-11-29 10:36:19.820288
981  2023-11-29 10:36:19.868173
982  2023-11-29 10:36:19.900087
983  2023-11-29 10:36:19.946951
984  2023-11-29 10:36:19.993829
985  2023-11-29 10:36:20.025740
986  2023-11-29 10:36:20.073595
987  2023-11-29 10:36:20.105542
988  2023-11-29 10:36:20.154366
989  2023-11-29 10:36:20.202238
990  2023-11-29 10:36:20.232158
991  2023-11-29 10:36:20.279034
992  2023-11-29 10:36:20.327038
993  2023-11-29 10:36:20.358819
994  2023-11-29 10:36:20.406724
995  2023-11-29 10:36:20.438638
996  2023-11-29 10:36:20.486478
997  2023-11-29 10:36:20.534380
998  2023-11-29 10:36:20.566264
999  2023-11-29 10:36:20.612175
1000  2023-11-29 10:36:20.660014
1001  2023-11-29 10:36:20.691928
1002  2023-11-29 10:36:20.739833
1003  2023-11-29 10:36:20.771753
1004  2023-11-29 10:36:20.819587
1005  2023-11-29 10:36:20.866456
1006  2023-11-29 10:36:20.898269
1007  2023-11-29 10:36:20.946239
1008  2023-11-29 10:36:20.993130
1009  2023-11-29 10:36:21.023502
1010  2023-11-29 10:36:21.070448
1011  2023-11-29 10:36:21.116424
1012  2023-11-29 10:36:21.161302
1013  2023-11-29 10:36:21.193217
1014  2023-11-29 10:36:21.241089
1015  2023-11-29 10:36:21.273002
1016  2023-11-29 10:36:21.320876
1017  2023-11-29 10:36:21.367891
1018  2023-11-29 10:36:21.398635
1019  2023-11-29 10:36:21.446540
1020  2023-11-29 10:36:21.491387
1021  2023-11-29 10:36:21.523301
1022  2023-11-29 10:36:21.571205
1023  2023-11-29 10:36:21.617084
1024  2023-11-29 10:36:21.649000
1025  2023-11-29 10:36:21.696838
1026  2023-11-29 10:36:21.744742
1027  2023-11-29 10:36:21.774639
1028  2023-11-29 10:36:21.822542
1029  2023-11-29 10:36:21.869420
1030  2023-11-29 10:36:21.900304
1031  2023-11-29 10:36:21.948205
1032  2023-11-29 10:36:21.980210
1033  2023-11-29 10:36:22.028086
1034  2023-11-29 10:36:22.075956
1035  2023-11-29 10:36:22.107870
1036  2023-11-29 10:36:22.155757
1037  2023-11-29 10:36:22.203582
1038  2023-11-29 10:36:22.235527
1039  2023-11-29 10:36:22.283401
1040  2023-11-29 10:36:22.315314
1041  2023-11-29 10:36:22.363155
1042  2023-11-29 10:36:22.411027
1043  2023-11-29 10:36:22.442942
1044  2023-11-29 10:36:22.490850
1045  2023-11-29 10:36:22.522759
1046  2023-11-29 10:36:22.570600
1047  2023-11-29 10:36:22.618507
1048  2023-11-29 10:36:22.650420
1049  2023-11-29 10:36:22.698289
1050  2023-11-29 10:36:22.730174
1051  2023-11-29 10:36:22.778081
1052  2023-11-29 10:36:22.825950
1053  2023-11-29 10:36:22.855868
1054  2023-11-29 10:36:22.903758
1055  2023-11-29 10:36:22.951616
1056  2023-11-29 10:36:22.982535
1057  2023-11-29 10:36:23.030371
1058  2023-11-29 10:36:23.076285
1059  2023-11-29 10:36:23.108198
1060  2023-11-29 10:36:23.156164
1061  2023-11-29 10:36:23.188079
1062  2023-11-29 10:36:23.234988
1063  2023-11-29 10:36:23.281859
1064  2023-11-29 10:36:23.313774
1065  2023-11-29 10:36:23.360617
1066  2023-11-29 10:36:23.408657
1067  2023-11-29 10:36:23.440578
1068  2023-11-29 10:36:23.487733
1069  2023-11-29 10:36:23.534578
1070  2023-11-29 10:36:23.566492
1071  2023-11-29 10:36:23.614477
1072  2023-11-29 10:36:23.661429
1073  2023-11-29 10:36:23.692342
1074  2023-11-29 10:36:23.740196
1075  2023-11-29 10:36:23.772099
1076  2023-11-29 10:36:23.819298
1077  2023-11-29 10:36:23.867241
1078  2023-11-29 10:36:23.898156
1079  2023-11-29 10:36:23.945025
1080  2023-11-29 10:36:23.992865
1081  2023-11-29 10:36:24.024820
1082  2023-11-29 10:36:24.072685
1083  2023-11-29 10:36:24.119559
1084  2023-11-29 10:36:24.151474
1085  2023-11-29 10:36:24.196321
1086  2023-11-29 10:36:24.244234
1087  2023-11-29 10:36:24.274234
1088  2023-11-29 10:36:24.322105
1089  2023-11-29 10:36:24.370044
1090  2023-11-29 10:36:24.401978
1091  2023-11-29 10:36:24.449994
1092  2023-11-29 10:36:24.481893
1093  2023-11-29 10:36:24.529729
1094  2023-11-29 10:36:24.577635
1095  2023-11-29 10:36:24.609548
1096  2023-11-29 10:36:24.657388
1097  2023-11-29 10:36:24.689303
1098  2023-11-29 10:36:24.735223
1099  2023-11-29 10:36:24.783094
1100  2023-11-29 10:36:24.827965
1101  2023-11-29 10:36:24.859878
1102  2023-11-29 10:36:24.907754
1103  2023-11-29 10:36:24.939669
1104  2023-11-29 10:36:24.986542
1105  2023-11-29 10:36:25.033417
1106  2023-11-29 10:36:25.065347
1107  2023-11-29 10:36:25.113212
1108  2023-11-29 10:36:25.161042
1109  2023-11-29 10:36:25.192989
1110  2023-11-29 10:36:25.238897
1111  2023-11-29 10:36:25.285831
1112  2023-11-29 10:36:25.316791
1113  2023-11-29 10:36:25.364620
1114  2023-11-29 10:36:25.396537
1115  2023-11-29 10:36:25.444440
1116  2023-11-29 10:36:25.492414
1117  2023-11-29 10:36:25.524329
1118  2023-11-29 10:36:25.573246
1119  2023-11-29 10:36:25.619921
1120  2023-11-29 10:36:25.651804
1121  2023-11-29 10:36:25.699790
1122  2023-11-29 10:36:25.731659
1123  2023-11-29 10:36:25.779563
1124  2023-11-29 10:36:25.827403
1125  2023-11-29 10:36:25.859318
1126  2023-11-29 10:36:25.907223
1127  2023-11-29 10:36:25.939143
1128  2023-11-29 10:36:25.986016
1129  2023-11-29 10:36:26.032892
1130  2023-11-29 10:36:26.063785
1131  2023-11-29 10:36:26.110678
1132  2023-11-29 10:36:26.158518
1133  2023-11-29 10:36:26.190433
1134  2023-11-29 10:36:26.238338
1135  2023-11-29 10:36:26.286177
1136  2023-11-29 10:36:26.318092
1137  2023-11-29 10:36:26.365964
1138  2023-11-29 10:36:26.397878
1139  2023-11-29 10:36:26.445786
1140  2023-11-29 10:36:26.490685
1141  2023-11-29 10:36:26.521579
1142  2023-11-29 10:36:26.567461
1143  2023-11-29 10:36:26.613337
1144  2023-11-29 10:36:26.660208
1145  2023-11-29 10:36:26.692125
1146  2023-11-29 10:36:26.739668
1147  2023-11-29 10:36:26.771582
1148  2023-11-29 10:36:26.819644
1149  2023-11-29 10:36:26.867403
1150  2023-11-29 10:36:26.898284
1151  2023-11-29 10:36:26.945207
1152  2023-11-29 10:36:26.993030
1153  2023-11-29 10:36:27.024945
1154  2023-11-29 10:36:27.070953
1155  2023-11-29 10:36:27.118916
1156  2023-11-29 10:36:27.150830
1157  2023-11-29 10:36:27.198702
1158  2023-11-29 10:36:27.230688
1159  2023-11-29 10:36:27.278711
1160  2023-11-29 10:36:27.326616
1161  2023-11-29 10:36:27.358530
1162  2023-11-29 10:36:27.405444
1163  2023-11-29 10:36:27.452280
1164  2023-11-29 10:36:27.483197
1165  2023-11-29 10:36:27.530103
1166  2023-11-29 10:36:27.577975
1167  2023-11-29 10:36:27.609891
1168  2023-11-29 10:36:27.657767
1169  2023-11-29 10:36:27.689675
1170  2023-11-29 10:36:27.737551
1171  2023-11-29 10:36:27.785424
1172  2023-11-29 10:36:27.817344
1173  2023-11-29 10:36:27.865176
1174  2023-11-29 10:36:27.897124
1175  2023-11-29 10:36:27.945000
1176  2023-11-29 10:36:27.992952
1177  2023-11-29 10:36:28.024836
1178  2023-11-29 10:36:28.072740
1179  2023-11-29 10:36:28.119684
1180  2023-11-29 10:36:28.149896
1181  2023-11-29 10:36:28.197880
1182  2023-11-29 10:36:28.229749
1183  2023-11-29 10:36:28.277658
1184  2023-11-29 10:36:28.325526
1185  2023-11-29 10:36:28.357447
1186  2023-11-29 10:36:28.404315
1187  2023-11-29 10:36:28.452198
1188  2023-11-29 10:36:28.484103
1189  2023-11-29 10:36:28.531977
1190  2023-11-29 10:36:28.563887
1191  2023-11-29 10:36:28.611796
1192  2023-11-29 10:36:28.659600
1193  2023-11-29 10:36:28.691515
1194  2023-11-29 10:36:28.737431
1195  2023-11-29 10:36:28.785316
1196  2023-11-29 10:36:28.816019
1197  2023-11-29 10:36:28.863892
1198  2023-11-29 10:36:28.911879
1199  2023-11-29 10:36:28.943799
1200  2023-11-29 10:36:28.991631
1201  2023-11-29 10:36:29.022548
1202  2023-11-29 10:36:29.070453
1203  2023-11-29 10:36:29.118292
1204  2023-11-29 10:36:29.149210
1205  2023-11-29 10:36:29.196084
1206  2023-11-29 10:36:29.244001
1207  2023-11-29 10:36:29.275910
1208  2023-11-29 10:36:29.323743
1209  2023-11-29 10:36:29.355658
1210  2023-11-29 10:36:29.403555
1211  2023-11-29 10:36:29.450405
1212  2023-11-29 10:36:29.481358
1213  2023-11-29 10:36:29.529231
1214  2023-11-29 10:36:29.577066
1215  2023-11-29 10:36:29.609016
1216  2023-11-29 10:36:29.656853
1217  2023-11-29 10:36:29.688798
1218  2023-11-29 10:36:29.736641
1219  2023-11-29 10:36:29.784548
1220  2023-11-29 10:36:29.816457
1221  2023-11-29 10:36:29.864300
1222  2023-11-29 10:36:29.910208
1223  2023-11-29 10:36:29.942121
1224  2023-11-29 10:36:29.989999
1225  2023-11-29 10:36:30.021910
1226  2023-11-29 10:36:30.069780
1227  2023-11-29 10:36:30.117655
1228  2023-11-29 10:36:30.149573
1229  2023-11-29 10:36:30.197441
1230  2023-11-29 10:36:30.245310
1231  2023-11-29 10:36:30.277229
1232  2023-11-29 10:36:30.325114
1233  2023-11-29 10:36:30.357018
1234  2023-11-29 10:36:30.404896
1235  2023-11-29 10:36:30.452147
1236  2023-11-29 10:36:30.484142
1237  2023-11-29 10:36:30.530973
1238  2023-11-29 10:36:30.577897
1239  2023-11-29 10:36:30.609798
1240  2023-11-29 10:36:30.657635
1241  2023-11-29 10:36:30.689550
1242  2023-11-29 10:36:30.735970
1243  2023-11-29 10:36:30.783927
1244  2023-11-29 10:36:30.815847
1245  2023-11-29 10:36:30.863833
1246  2023-11-29 10:36:30.910822
1247  2023-11-29 10:36:30.941680
1248  2023-11-29 10:36:30.988500
1249  2023-11-29 10:36:31.035409
1250  2023-11-29 10:36:31.066292
1251  2023-11-29 10:36:31.112219
1252  2023-11-29 10:36:31.158549
1253  2023-11-29 10:36:31.188699
1254  2023-11-29 10:36:31.236666
1255  2023-11-29 10:36:31.284525
1256  2023-11-29 10:36:31.316448
1257  2023-11-29 10:36:31.364307
1258  2023-11-29 10:36:31.411191
1259  2023-11-29 10:36:31.442097
1260  2023-11-29 10:36:31.489935
1261  2023-11-29 10:36:31.521883
1262  2023-11-29 10:36:31.569756
1263  2023-11-29 10:36:31.617628
1264  2023-11-29 10:36:31.647547
1265  2023-11-29 10:36:31.695386
1266  2023-11-29 10:36:31.744272
1267  2023-11-29 10:36:31.775207
1268  2023-11-29 10:36:31.823044
1269  2023-11-29 10:36:31.854990
1270  2023-11-29 10:36:31.901897
1271  2023-11-29 10:36:31.949737
1272  2023-11-29 10:36:31.980897
1273  2023-11-29 10:36:32.027731
1274  2023-11-29 10:36:32.075606
1275  2023-11-29 10:36:32.107563
1276  2023-11-29 10:36:32.155390
1277  2023-11-29 10:36:32.203062
1278  2023-11-29 10:36:32.234988
1279  2023-11-29 10:36:32.282983
1280  2023-11-29 10:36:32.314762
1281  2023-11-29 10:36:32.362634
1282  2023-11-29 10:36:32.409501
1283  2023-11-29 10:36:32.440419
1284  2023-11-29 10:36:32.488378
1285  2023-11-29 10:36:32.536213
1286  2023-11-29 10:36:32.568127
1287  2023-11-29 10:36:32.616048
1288  2023-11-29 10:36:32.647921
1289  2023-11-29 10:36:32.695803
1290  2023-11-29 10:36:32.743721
1291  2023-11-29 10:36:32.775629
1292  2023-11-29 10:36:32.823462
1293  2023-11-29 10:36:32.855376
1294  2023-11-29 10:36:32.903248
1295  2023-11-29 10:36:32.951152
1296  2023-11-29 10:36:32.983077
1297  2023-11-29 10:36:33.030947
1298  2023-11-29 10:36:33.078224
1299  2023-11-29 10:36:33.110143
1300  2023-11-29 10:36:33.158015
1301  2023-11-29 10:36:33.189930
1302  2023-11-29 10:36:33.238153
1303  2023-11-29 10:36:33.285824
1304  2023-11-29 10:36:33.317743
1305  2023-11-29 10:36:33.365576
1306  2023-11-29 10:36:33.397525
1307  2023-11-29 10:36:33.444401
1308  2023-11-29 10:36:33.492273
1309  2023-11-29 10:36:33.524185
1310  2023-11-29 10:36:33.572059
1311  2023-11-29 10:36:33.619929
1312  2023-11-29 10:36:33.651848
1313  2023-11-29 10:36:33.699722
1314  2023-11-29 10:36:33.730600
1315  2023-11-29 10:36:33.778507
1316  2023-11-29 10:36:33.826377
1317  2023-11-29 10:36:33.858299
1318  2023-11-29 10:36:33.906250
1319  2023-11-29 10:36:33.938272
1320  2023-11-29 10:36:33.985812
1321  2023-11-29 10:36:34.033769
1322  2023-11-29 10:36:34.065690
1323  2023-11-29 10:36:34.113552
1324  2023-11-29 10:36:34.160980
1325  2023-11-29 10:36:34.192851
1326  2023-11-29 10:36:34.240838
1327  2023-11-29 10:36:34.272968
1328  2023-11-29 10:36:34.320690
1329  2023-11-29 10:36:34.368607
1330  2023-11-29 10:36:34.398520
1331  2023-11-29 10:36:34.447411
1332  2023-11-29 10:36:34.495224
1333  2023-11-29 10:36:34.524146
1334  2023-11-29 10:36:34.570024
1335  2023-11-29 10:36:34.618015
1336  2023-11-29 10:36:34.649929
1337  2023-11-29 10:36:34.697801
1338  2023-11-29 10:36:34.729716
1339  2023-11-29 10:36:34.777588
1340  2023-11-29 10:36:34.825620
1341  2023-11-29 10:36:34.857646
1342  2023-11-29 10:36:34.905642
1343  2023-11-29 10:36:34.953514
1344  2023-11-29 10:36:34.985502
1345  2023-11-29 10:36:35.033420
1346  2023-11-29 10:36:35.065334
1347  2023-11-29 10:36:35.113267
1348  2023-11-29 10:36:35.160595
1349  2023-11-29 10:36:35.191513
1350  2023-11-29 10:36:35.238800
1351  2023-11-29 10:36:35.286706
1352  2023-11-29 10:36:35.318618
1353  2023-11-29 10:36:35.366457
1354  2023-11-29 10:36:35.398372
1355  2023-11-29 10:36:35.444210
1356  2023-11-29 10:36:35.491165
1357  2023-11-29 10:36:35.523081
1358  2023-11-29 10:36:35.569966
1359  2023-11-29 10:36:35.616830
1360  2023-11-29 10:36:35.648743
1361  2023-11-29 10:36:35.696617
1362  2023-11-29 10:36:35.743540
1363  2023-11-29 10:36:35.775554
1364  2023-11-29 10:36:35.823446
1365  2023-11-29 10:36:35.855368
1366  2023-11-29 10:36:35.903227
1367  2023-11-29 10:36:35.951215
1368  2023-11-29 10:36:35.983171
1369  2023-11-29 10:36:36.028010
1370  2023-11-29 10:36:36.074891
1371  2023-11-29 10:36:36.106801
1372  2023-11-29 10:36:36.154671
1373  2023-11-29 10:36:36.202675
1374  2023-11-29 10:36:36.234590
1375  2023-11-29 10:36:36.282586
1376  2023-11-29 10:36:36.314500
1377  2023-11-29 10:36:36.361573
1378  2023-11-29 10:36:36.407485
1379  2023-11-29 10:36:36.438404
1380  2023-11-29 10:36:36.486578
1381  2023-11-29 10:36:36.534567
1382  2023-11-29 10:36:36.566481
1383  2023-11-29 10:36:36.614439
1384  2023-11-29 10:36:36.661144
1385  2023-11-29 10:36:36.692232
1386  2023-11-29 10:36:36.740113
1387  2023-11-29 10:36:36.772028
1388  2023-11-29 10:36:36.819891
1389  2023-11-29 10:36:36.867763
1390  2023-11-29 10:36:36.899678
1391  2023-11-29 10:36:36.947557
1392  2023-11-29 10:36:36.994427
1393  2023-11-29 10:36:37.025340
1394  2023-11-29 10:36:37.073227
1395  2023-11-29 10:36:37.119675
1396  2023-11-29 10:36:37.151552
1397  2023-11-29 10:36:37.198427
1398  2023-11-29 10:36:37.230344
1399  2023-11-29 10:36:37.278244
1400  2023-11-29 10:36:37.326119
1401  2023-11-29 10:36:37.357148
1402  2023-11-29 10:36:37.404724
1403  2023-11-29 10:36:37.452642
1404  2023-11-29 10:36:37.483511
1405  2023-11-29 10:36:37.532576
1406  2023-11-29 10:36:37.564488
1407  2023-11-29 10:36:37.612344
1408  2023-11-29 10:36:37.657285
1409  2023-11-29 10:36:37.703162
1410  2023-11-29 10:36:37.735076
1411  2023-11-29 10:36:37.782984
1412  2023-11-29 10:36:37.813903
1413  2023-11-29 10:36:37.861472
1414  2023-11-29 10:36:37.909498
1415  2023-11-29 10:36:37.941423
1416  2023-11-29 10:36:37.988256
1417  2023-11-29 10:36:38.034171
1418  2023-11-29 10:36:38.065943
1419  2023-11-29 10:36:38.113908
1420  2023-11-29 10:36:38.161779
1421  2023-11-29 10:36:38.193678
1422  2023-11-29 10:36:38.241550
1423  2023-11-29 10:36:38.272468
1424  2023-11-29 10:36:38.319404
1425  2023-11-29 10:36:38.368301
1426  2023-11-29 10:36:38.399197
1427  2023-11-29 10:36:38.446069
1428  2023-11-29 10:36:38.492905
1429  2023-11-29 10:36:38.524866
1430  2023-11-29 10:36:38.572182
1431  2023-11-29 10:36:38.620051
1432  2023-11-29 10:36:38.652976
1433  2023-11-29 10:36:38.699689
1434  2023-11-29 10:36:38.731602
1435  2023-11-29 10:36:38.780491
1436  2023-11-29 10:36:38.827489
1437  2023-11-29 10:36:38.859403
1438  2023-11-29 10:36:38.908261
1439  2023-11-29 10:36:38.940141
1440  2023-11-29 10:36:38.987015
1441  2023-11-29 10:36:39.034888
1442  2023-11-29 10:36:39.067799
1443  2023-11-29 10:36:39.112856
1444  2023-11-29 10:36:39.160704
1445  2023-11-29 10:36:39.192741
1446  2023-11-29 10:36:39.240613
1447  2023-11-29 10:36:39.271537
1448  2023-11-29 10:36:39.318565
1449  2023-11-29 10:36:39.365405
1450  2023-11-29 10:36:39.397461
1451  2023-11-29 10:36:39.445367
1452  2023-11-29 10:36:39.493205
1453  2023-11-29 10:36:39.525120
1454  2023-11-29 10:36:39.571943
1455  2023-11-29 10:36:39.618786
1456  2023-11-29 10:36:39.650799
1457  2023-11-29 10:36:39.698670
1458  2023-11-29 10:36:39.730584
1459  2023-11-29 10:36:39.776505
1460  2023-11-29 10:36:39.824374
1461  2023-11-29 10:36:39.856282
1462  2023-11-29 10:36:39.904159
1463  2023-11-29 10:36:39.952032
1464  2023-11-29 10:36:39.983942
1465  2023-11-29 10:36:40.029819
1466  2023-11-29 10:36:40.077689
1467  2023-11-29 10:36:40.109573
1468  2023-11-29 10:36:40.157479
1469  2023-11-29 10:36:40.189391
1470  2023-11-29 10:36:40.237365
1471  2023-11-29 10:36:40.284233
1472  2023-11-29 10:36:40.315152
1473  2023-11-29 10:36:40.364023
1474  2023-11-29 10:36:40.410918
1475  2023-11-29 10:36:40.443823
1476  2023-11-29 10:36:40.490685
1477  2023-11-29 10:36:40.522575
1478  2023-11-29 10:36:40.570605
1479  2023-11-29 10:36:40.618478
1480  2023-11-29 10:36:40.650426
1481  2023-11-29 10:36:40.694275
1482  2023-11-29 10:36:40.742384
1483  2023-11-29 10:36:40.773704
1484  2023-11-29 10:36:40.821665
1485  2023-11-29 10:36:40.869505
1486  2023-11-29 10:36:40.901419
1487  2023-11-29 10:36:40.949467
1488  2023-11-29 10:36:40.981386
1489  2023-11-29 10:36:41.029222
1490  2023-11-29 10:36:41.075100
1491  2023-11-29 10:36:41.107054
1492  2023-11-29 10:36:41.154886
1493  2023-11-29 10:36:41.202758
1494  2023-11-29 10:36:41.234673
1495  2023-11-29 10:36:41.282265
1496  2023-11-29 10:36:41.314181
1497  2023-11-29 10:36:41.361886
1498  2023-11-29 10:36:41.409435
1499  2023-11-29 10:36:41.441322
1500  2023-11-29 10:36:41.489108
1501  2023-11-29 10:36:41.536020
1502  2023-11-29 10:36:41.566943
1503  2023-11-29 10:36:41.614809
1504  2023-11-29 10:36:41.660690
1505  2023-11-29 10:36:41.692611
1506  2023-11-29 10:36:41.740491
1507  2023-11-29 10:36:41.772407
1508  2023-11-29 10:36:41.818403
1509  2023-11-29 10:36:41.865144
1510  2023-11-29 10:36:41.897044
1511  2023-11-29 10:36:41.942934
1512  2023-11-29 10:36:41.988812
1513  2023-11-29 10:36:42.036651
1514  2023-11-29 10:36:42.068565
1515  2023-11-29 10:36:42.116298
1516  2023-11-29 10:36:42.148457
1517  2023-11-29 10:36:42.194136
1518  2023-11-29 10:36:42.240022
1519  2023-11-29 10:36:42.271930
1520  2023-11-29 10:36:42.319833
1521  2023-11-29 10:36:42.367710
1522  2023-11-29 10:36:42.399624
1523  2023-11-29 10:36:42.446493
1524  2023-11-29 10:36:42.493457
1525  2023-11-29 10:36:42.525292
1526  2023-11-29 10:36:42.573159
1527  2023-11-29 10:36:42.606066
1528  2023-11-29 10:36:42.652944
1529  2023-11-29 10:36:42.700782
1530  2023-11-29 10:36:42.732698
1531  2023-11-29 10:36:42.780570
1532  2023-11-29 10:36:42.828475
1533  2023-11-29 10:36:42.858406
1534  2023-11-29 10:36:42.906371
1535  2023-11-29 10:36:42.939273
1536  2023-11-29 10:36:42.986150
1537  2023-11-29 10:36:43.034017
1538  2023-11-29 10:36:43.065932
1539  2023-11-29 10:36:43.113802
1540  2023-11-29 10:36:43.161676
1541  2023-11-29 10:36:43.192592
1542  2023-11-29 10:36:43.240473
1543  2023-11-29 10:36:43.286339
1544  2023-11-29 10:36:43.318260
1545  2023-11-29 10:36:43.366097
1546  2023-11-29 10:36:43.397014
1547  2023-11-29 10:36:43.443921
1548  2023-11-29 10:36:43.491869
1549  2023-11-29 10:36:43.523899
1550  2023-11-29 10:36:43.571656
1551  2023-11-29 10:36:43.617579
1552  2023-11-29 10:36:43.649479
1553  2023-11-29 10:36:43.697320
1554  2023-11-29 10:36:43.745226
1555  2023-11-29 10:36:43.777138
1556  2023-11-29 10:36:43.824978
1557  2023-11-29 10:36:43.856893
1558  2023-11-29 10:36:43.904796
1559  2023-11-29 10:36:43.952637
1560  2023-11-29 10:36:43.984583
1561  2023-11-29 10:36:44.032424
1562  2023-11-29 10:36:44.064339
1563  2023-11-29 10:36:44.110270
1564  2023-11-29 10:36:44.158121
1565  2023-11-29 10:36:44.190034
1566  2023-11-29 10:36:44.237907
1567  2023-11-29 10:36:44.285777
1568  2023-11-29 10:36:44.315699
1569  2023-11-29 10:36:44.363539
1570  2023-11-29 10:36:44.410447
1571  2023-11-29 10:36:44.441331
1572  2023-11-29 10:36:44.488241
1573  2023-11-29 10:36:44.533085
1574  2023-11-29 10:36:44.564003
1575  2023-11-29 10:36:44.611905
1576  2023-11-29 10:36:44.658797
1577  2023-11-29 10:36:44.689818
1578  2023-11-29 10:36:44.736621
1579  2023-11-29 10:36:44.784495
1580  2023-11-29 10:36:44.816408
1581  2023-11-29 10:36:44.862775
1582  2023-11-29 10:36:44.910731
1583  2023-11-29 10:36:44.942640
1584  2023-11-29 10:36:44.990540
1585  2023-11-29 10:36:45.022429
1586  2023-11-29 10:36:45.070328
1587  2023-11-29 10:36:45.118198
1588  2023-11-29 10:36:45.150123
1589  2023-11-29 10:36:45.197994
1590  2023-11-29 10:36:45.229899
1591  2023-11-29 10:36:45.277748
1592  2023-11-29 10:36:45.325645
1593  2023-11-29 10:36:45.357602
1594  2023-11-29 10:36:45.403473
1595  2023-11-29 10:36:45.451396
1596  2023-11-29 10:36:45.483315
1597  2023-11-29 10:36:45.531200
1598  2023-11-29 10:36:45.563102
1599  2023-11-29 10:36:45.610943
1600  2023-11-29 10:36:45.658874
1601  2023-11-29 10:36:45.690766
1602  2023-11-29 10:36:45.738722
1603  2023-11-29 10:36:45.786586
1604  2023-11-29 10:36:45.818500
1605  2023-11-29 10:36:45.866375
1606  2023-11-29 10:36:45.898292
1607  2023-11-29 10:36:45.946163
1608  2023-11-29 10:36:45.994035
1609  2023-11-29 10:36:46.024951
1610  2023-11-29 10:36:46.072790
1611  2023-11-29 10:36:46.118699
1612  2023-11-29 10:36:46.150615
1613  2023-11-29 10:36:46.198157
1614  2023-11-29 10:36:46.230068
1615  2023-11-29 10:36:46.276939
1616  2023-11-29 10:36:46.323781
1617  2023-11-29 10:36:46.354736
1618  2023-11-29 10:36:46.402571
1619  2023-11-29 10:36:46.449856
1620  2023-11-29 10:36:46.481824
1621  2023-11-29 10:36:46.528668
1622  2023-11-29 10:36:46.575590
1623  2023-11-29 10:36:46.607496
1624  2023-11-29 10:36:46.655429
1625  2023-11-29 10:36:46.702344
1626  2023-11-29 10:36:46.733263
1627  2023-11-29 10:36:46.780131
1628  2023-11-29 10:36:46.828000
1629  2023-11-29 10:36:46.859917
1630  2023-11-29 10:36:46.905791
1631  2023-11-29 10:36:46.952669
1632  2023-11-29 10:36:46.983749
1633  2023-11-29 10:36:47.031424
1634  2023-11-29 10:36:47.063372
1635  2023-11-29 10:36:47.111244
1636  2023-11-29 10:36:47.158120
1637  2023-11-29 10:36:47.190043
1638  2023-11-29 10:36:47.237906
1639  2023-11-29 10:36:47.284779
1640  2023-11-29 10:36:47.317703
1641  2023-11-29 10:36:47.365564
1642  2023-11-29 10:36:47.396448
1643  2023-11-29 10:36:47.443362
1644  2023-11-29 10:36:47.491194
1645  2023-11-29 10:36:47.523109
1646  2023-11-29 10:36:47.569984
1647  2023-11-29 10:36:47.616892
1648  2023-11-29 10:36:47.648806
1649  2023-11-29 10:36:47.696645
1650  2023-11-29 10:36:47.744051
1651  2023-11-29 10:36:47.775953
1652  2023-11-29 10:36:47.821917
1653  2023-11-29 10:36:47.869846
1654  2023-11-29 10:36:47.901736
1655  2023-11-29 10:36:47.947614
1656  2023-11-29 10:36:47.993493
1657  2023-11-29 10:36:48.025411
1658  2023-11-29 10:36:48.073245
1659  2023-11-29 10:36:48.105159
1660  2023-11-29 10:36:48.153094
1661  2023-11-29 10:36:48.200905
1662  2023-11-29 10:36:48.232860
1663  2023-11-29 10:36:48.280725
1664  2023-11-29 10:36:48.328604
1665  2023-11-29 10:36:48.360537
1666  2023-11-29 10:36:48.408409
1667  2023-11-29 10:36:48.440403
1668  2023-11-29 10:36:48.488354
1669  2023-11-29 10:36:48.536228
1670  2023-11-29 10:36:48.568142
1671  2023-11-29 10:36:48.614015
1672  2023-11-29 10:36:48.661889
1673  2023-11-29 10:36:48.692807
1674  2023-11-29 10:36:48.740680
1675  2023-11-29 10:36:48.772294
1676  2023-11-29 10:36:48.821163
1677  2023-11-29 10:36:48.868200
1678  2023-11-29 10:36:48.900084
1679  2023-11-29 10:36:48.948984
1680  2023-11-29 10:36:48.980898
1681  2023-11-29 10:36:49.028772
1682  2023-11-29 10:36:49.076664
1683  2023-11-29 10:36:49.108556
1684  2023-11-29 10:36:49.156428
1685  2023-11-29 10:36:49.203272
1686  2023-11-29 10:36:49.236233
1687  2023-11-29 10:36:49.283093
1688  2023-11-29 10:36:49.315009
1689  2023-11-29 10:36:49.362952
1690  2023-11-29 10:36:49.410287
1691  2023-11-29 10:36:49.442218
1692  2023-11-29 10:36:49.490166
1693  2023-11-29 10:36:49.522081
1694  2023-11-29 10:36:49.569953
1695  2023-11-29 10:36:49.616868
1696  2023-11-29 10:36:49.648774
1697  2023-11-29 10:36:49.696651
1698  2023-11-29 10:36:49.742527
1699  2023-11-29 10:36:49.774559
1700  2023-11-29 10:36:49.821400
1701  2023-11-29 10:36:49.869306
1702  2023-11-29 10:36:49.901248
1703  2023-11-29 10:36:49.949059
1704  2023-11-29 10:36:49.980975
1705  2023-11-29 10:36:50.026851
1706  2023-11-29 10:36:50.074762
1707  2023-11-29 10:36:50.119636
1708  2023-11-29 10:36:50.150555
1709  2023-11-29 10:36:50.198428
1710  2023-11-29 10:36:50.230348
1711  2023-11-29 10:36:50.278180
1712  2023-11-29 10:36:50.326093
1713  2023-11-29 10:36:50.358000
1714  2023-11-29 10:36:50.405870
1715  2023-11-29 10:36:50.452751
1716  2023-11-29 10:36:50.484661
1717  2023-11-29 10:36:50.532531
1718  2023-11-29 10:36:50.564415
1719  2023-11-29 10:36:50.613497
1720  2023-11-29 10:36:50.659380
1721  2023-11-29 10:36:50.691293
1722  2023-11-29 10:36:50.739502
1723  2023-11-29 10:36:50.787424
1724  2023-11-29 10:36:50.819371
1725  2023-11-29 10:36:50.867241
1726  2023-11-29 10:36:50.899159
1727  2023-11-29 10:36:50.947031
1728  2023-11-29 10:36:50.991877
1729  2023-11-29 10:36:51.023791
1730  2023-11-29 10:36:51.071695
1731  2023-11-29 10:36:51.119537
1732  2023-11-29 10:36:51.151450
1733  2023-11-29 10:36:51.197327
1734  2023-11-29 10:36:51.245244
1735  2023-11-29 10:36:51.277151
1736  2023-11-29 10:36:51.323989
1737  2023-11-29 10:36:51.355907
1738  2023-11-29 10:36:51.403805
1739  2023-11-29 10:36:51.451648
1740  2023-11-29 10:36:51.483562
1741  2023-11-29 10:36:51.531568
1742  2023-11-29 10:36:51.563349
1743  2023-11-29 10:36:51.611252
1744  2023-11-29 10:36:51.658881
1745  2023-11-29 10:36:51.690792
1746  2023-11-29 10:36:51.738724
1747  2023-11-29 10:36:51.786591
1748  2023-11-29 10:36:51.818505
1749  2023-11-29 10:36:51.866370
1750  2023-11-29 10:36:51.898298
1751  2023-11-29 10:36:51.946223
1752  2023-11-29 10:36:51.994134
1753  2023-11-29 10:36:52.026010
1754  2023-11-29 10:36:52.072924
1755  2023-11-29 10:36:52.104799
1756  2023-11-29 10:36:52.152724
1757  2023-11-29 10:36:52.200578
1758  2023-11-29 10:36:52.232493
1759  2023-11-29 10:36:52.279363
1760  2023-11-29 10:36:52.326251
1761  2023-11-29 10:36:52.357161
1762  2023-11-29 10:36:52.405008
1763  2023-11-29 10:36:52.452906
1764  2023-11-29 10:36:52.484821
1765  2023-11-29 10:36:52.532696
1766  2023-11-29 10:36:52.564601
1767  2023-11-29 10:36:52.612482
1768  2023-11-29 10:36:52.660314
1769  2023-11-29 10:36:52.692270
1770  2023-11-29 10:36:52.740143
1771  2023-11-29 10:36:52.772015
1772  2023-11-29 10:36:52.819922
1773  2023-11-29 10:36:52.867794
1774  2023-11-29 10:36:52.899674
1775  2023-11-29 10:36:52.946549
1776  2023-11-29 10:36:52.993473
1777  2023-11-29 10:36:53.025385
1778  2023-11-29 10:36:53.073622
1779  2023-11-29 10:36:53.105661
1780  2023-11-29 10:36:53.153651
1781  2023-11-29 10:36:53.201521
1782  2023-11-29 10:36:53.232405
1783  2023-11-29 10:36:53.279659
1784  2023-11-29 10:36:53.327604
1785  2023-11-29 10:36:53.359519
1786  2023-11-29 10:36:53.407444
1787  2023-11-29 10:36:53.440333
1788  2023-11-29 10:36:53.486180
1789  2023-11-29 10:36:53.534097
1790  2023-11-29 10:36:53.565967
1791  2023-11-29 10:36:53.612882
1792  2023-11-29 10:36:53.660713
1793  2023-11-29 10:36:53.692721
1794  2023-11-29 10:36:53.739627
1795  2023-11-29 10:36:53.785684
1796  2023-11-29 10:36:53.816639
1797  2023-11-29 10:36:53.863475
1798  2023-11-29 10:36:53.910385
1799  2023-11-29 10:36:53.942420
1800  2023-11-29 10:36:53.990410
1801  2023-11-29 10:36:54.022321
1802  2023-11-29 10:36:54.069205
1803  2023-11-29 10:36:54.116079
1804  2023-11-29 10:36:54.147992
1805  2023-11-29 10:36:54.195867
1806  2023-11-29 10:36:54.243735
1807  2023-11-29 10:36:54.275654
1808  2023-11-29 10:36:54.323519
1809  2023-11-29 10:36:54.355400
1810  2023-11-29 10:36:54.403312
1811  2023-11-29 10:36:54.451193
1812  2023-11-29 10:36:54.483095
1813  2023-11-29 10:36:54.528936
1814  2023-11-29 10:36:54.576841
1815  2023-11-29 10:36:54.608726
1816  2023-11-29 10:36:54.656631
1817  2023-11-29 10:36:54.701516
1818  2023-11-29 10:36:54.732424
1819  2023-11-29 10:36:54.779266
1820  2023-11-29 10:36:54.826140
1821  2023-11-29 10:36:54.858163
1822  2023-11-29 10:36:54.905932
1823  2023-11-29 10:36:54.952842
1824  2023-11-29 10:36:54.983753
1825  2023-11-29 10:36:55.031347
1826  2023-11-29 10:36:55.063263
1827  2023-11-29 10:36:55.111135
1828  2023-11-29 10:36:55.157064
1829  2023-11-29 10:36:55.202903
1830  2023-11-29 10:36:55.234019
1831  2023-11-29 10:36:55.281179
1832  2023-11-29 10:36:55.328130
1833  2023-11-29 10:36:55.360059
1834  2023-11-29 10:36:55.407931
1835  2023-11-29 10:36:55.438866
1836  2023-11-29 10:36:55.486685
1837  2023-11-29 10:36:55.533603
1838  2023-11-29 10:36:55.564624
1839  2023-11-29 10:36:55.612496
1840  2023-11-29 10:36:55.659850
1841  2023-11-29 10:36:55.691755
1842  2023-11-29 10:36:55.739627
1843  2023-11-29 10:36:55.771682
1844  2023-11-29 10:36:55.819521
1845  2023-11-29 10:36:55.865602
1846  2023-11-29 10:36:55.898516
1847  2023-11-29 10:36:55.945376
1848  2023-11-29 10:36:55.993346
1849  2023-11-29 10:36:56.025260
1850  2023-11-29 10:36:56.073097
1851  2023-11-29 10:36:56.105012
1852  2023-11-29 10:36:56.152914
1853  2023-11-29 10:36:56.200695
1854  2023-11-29 10:36:56.232612
1855  2023-11-29 10:36:56.280513
1856  2023-11-29 10:36:56.328446
1857  2023-11-29 10:36:56.359364
1858  2023-11-29 10:36:56.405308
1859  2023-11-29 10:36:56.453206
1860  2023-11-29 10:36:56.484133
1861  2023-11-29 10:36:56.531083
1862  2023-11-29 10:36:56.563140
1863  2023-11-29 10:36:56.611223
1864  2023-11-29 10:36:56.657866
1865  2023-11-29 10:36:56.703212
1866  2023-11-29 10:36:56.735241
1867  2023-11-29 10:36:56.784076
1868  2023-11-29 10:36:56.815041
1869  2023-11-29 10:36:56.862913
1870  2023-11-29 10:36:56.911736
1871  2023-11-29 10:36:56.942809
1872  2023-11-29 10:36:56.990785
1873  2023-11-29 10:36:57.022704
1874  2023-11-29 10:36:57.070579
1875  2023-11-29 10:36:57.118572
1876  2023-11-29 10:36:57.148461
1877  2023-11-29 10:36:57.195335
1878  2023-11-29 10:36:57.242210
1879  2023-11-29 10:36:57.274126
1880  2023-11-29 10:36:57.322037
1881  2023-11-29 10:36:57.369869
1882  2023-11-29 10:36:57.401783
1883  2023-11-29 10:36:57.449655
1884  2023-11-29 10:36:57.481616
1885  2023-11-29 10:36:57.529485
1886  2023-11-29 10:36:57.577381
1887  2023-11-29 10:36:57.609295
1888  2023-11-29 10:36:57.656120
1889  2023-11-29 10:36:57.703064
1890  2023-11-29 10:36:57.734979
1891  2023-11-29 10:36:57.782962
1892  2023-11-29 10:36:57.814877
1893  2023-11-29 10:36:57.861757
1894  2023-11-29 10:36:57.909738
1895  2023-11-29 10:36:57.941240
1896  2023-11-29 10:36:57.988705
1897  2023-11-29 10:36:58.036622
1898  2023-11-29 10:36:58.068554
1899  2023-11-29 10:36:58.116475
1900  2023-11-29 10:36:58.148459
1901  2023-11-29 10:36:58.196293
1902  2023-11-29 10:36:58.242203
1903  2023-11-29 10:36:58.273144
1904  2023-11-29 10:36:58.318965
1905  2023-11-29 10:36:58.367875
1906  2023-11-29 10:36:58.398752
1907  2023-11-29 10:36:58.447651
1908  2023-11-29 10:36:58.495597
1909  2023-11-29 10:36:58.527506
1910  2023-11-29 10:36:58.574399
1911  2023-11-29 10:36:58.606295
1912  2023-11-29 10:36:58.655339
1913  2023-11-29 10:36:58.701721
1914  2023-11-29 10:36:58.734748
1915  2023-11-29 10:36:58.781598
1916  2023-11-29 10:36:58.814530
1917  2023-11-29 10:36:58.861377
1918  2023-11-29 10:36:58.910261
1919  2023-11-29 10:36:58.942168
1920  2023-11-29 10:36:58.989006
1921  2023-11-29 10:36:59.034008
1922  2023-11-29 10:36:59.064960
1923  2023-11-29 10:36:59.112797
1924  2023-11-29 10:36:59.160703
1925  2023-11-29 10:36:59.192618
1926  2023-11-29 10:36:59.240595
1927  2023-11-29 10:36:59.272510
1928  2023-11-29 10:36:59.319415
1929  2023-11-29 10:36:59.366259
1930  2023-11-29 10:36:59.397324
1931  2023-11-29 10:36:59.445197
1932  2023-11-29 10:36:59.493104
1933  2023-11-29 10:36:59.524755
1934  2023-11-29 10:36:59.572624
1935  2023-11-29 10:36:59.619463
1936  2023-11-29 10:36:59.650382
1937  2023-11-29 10:36:59.698377
1938  2023-11-29 10:36:59.730041
1939  2023-11-29 10:36:59.777991
1940  2023-11-29 10:36:59.825962
1941  2023-11-29 10:36:59.857843
1942  2023-11-29 10:36:59.905043
1943  2023-11-29 10:36:59.952006
1944  2023-11-29 10:36:59.983917
1945  2023-11-29 10:37:00.030790
1946  2023-11-29 10:37:00.077703
1947  2023-11-29 10:37:00.109561
1948  2023-11-29 10:37:00.156456
1949  2023-11-29 10:37:00.188359
1950  2023-11-29 10:37:00.237197
1951  2023-11-29 10:37:00.284072
1952  2023-11-29 10:37:00.317030
1953  2023-11-29 10:37:00.362008
1954  2023-11-29 10:37:00.409850
1955  2023-11-29 10:37:00.441763
1956  2023-11-29 10:37:00.489636
1957  2023-11-29 10:37:00.521552
1958  2023-11-29 10:37:00.569430
1959  2023-11-29 10:37:00.617294
1960  2023-11-29 10:37:00.649395
1961  2023-11-29 10:37:00.697307
1962  2023-11-29 10:37:00.744765
1963  2023-11-29 10:37:00.776679
1964  2023-11-29 10:37:00.824613
1965  2023-11-29 10:37:00.856510
1966  2023-11-29 10:37:00.904338
1967  2023-11-29 10:37:00.952247
1968  2023-11-29 10:37:00.984156
1969  2023-11-29 10:37:01.031965
1970  2023-11-29 10:37:01.063734
1971  2023-11-29 10:37:01.111605
1972  2023-11-29 10:37:01.158594
1973  2023-11-29 10:37:01.190078
1974  2023-11-29 10:37:01.237917
1975  2023-11-29 10:37:01.285841
1976  2023-11-29 10:37:01.316759
1977  2023-11-29 10:37:01.363633
1978  2023-11-29 10:37:01.409537
1979  2023-11-29 10:37:01.441427
1980  2023-11-29 10:37:01.488297
1981  2023-11-29 10:37:01.535203
1982  2023-11-29 10:37:01.566089
1983  2023-11-29 10:37:01.614975
1984  2023-11-29 10:37:01.660913
1985  2023-11-29 10:37:01.691839
1986  2023-11-29 10:37:01.740691
1987  2023-11-29 10:37:01.785545
1988  2023-11-29 10:37:01.817466
1989  2023-11-29 10:37:01.863370
1990  2023-11-29 10:37:01.910212
1991  2023-11-29 10:37:01.942126
1992  2023-11-29 10:37:01.990035
1993  2023-11-29 10:37:02.021947
1994  2023-11-29 10:37:02.066793
1995  2023-11-29 10:37:02.113699
1996  2023-11-29 10:37:02.158592
1997  2023-11-29 10:37:02.189497
1998  2023-11-29 10:37:02.237370
1999  2023-11-29 10:37:02.285247
2000  2023-11-29 10:37:02.317322
2001  2023-11-29 10:37:02.365045
2002  2023-11-29 10:37:02.396946
2003  2023-11-29 10:37:02.441791
2004  2023-11-29 10:37:02.486706
2005  2023-11-29 10:37:02.532548
2006  2023-11-29 10:37:02.564463
2007  2023-11-29 10:37:02.612335
2008  2023-11-29 10:37:02.659812
2009  2023-11-29 10:37:02.691693
2010  2023-11-29 10:37:02.739922
2011  2023-11-29 10:37:02.785684
2012  2023-11-29 10:37:02.817598
2013  2023-11-29 10:37:02.864491
2014  2023-11-29 10:37:02.911346
2015  2023-11-29 10:37:02.943348
2016  2023-11-29 10:37:02.991252
2017  2023-11-29 10:37:03.023231
2018  2023-11-29 10:37:03.070259
2019  2023-11-29 10:37:03.117131
2020  2023-11-29 10:37:03.148060
2021  2023-11-29 10:37:03.196039
2022  2023-11-29 10:37:03.242857
2023  2023-11-29 10:37:03.274784
2024  2023-11-29 10:37:03.324758
2025  2023-11-29 10:37:03.354695
2026  2023-11-29 10:37:03.402541
2027  2023-11-29 10:37:03.450420
2028  2023-11-29 10:37:03.482334
2029  2023-11-29 10:37:03.530209
2030  2023-11-29 10:37:03.578218
2031  2023-11-29 10:37:03.610138
2032  2023-11-29 10:37:03.658004
2033  2023-11-29 10:37:03.689919
2034  2023-11-29 10:37:03.738755
2035  2023-11-29 10:37:03.785663
2036  2023-11-29 10:37:03.818581
2037  2023-11-29 10:37:03.864479
2038  2023-11-29 10:37:03.910296
2039  2023-11-29 10:37:03.941226
2040  2023-11-29 10:37:03.988124
2041  2023-11-29 10:37:04.035097
2042  2023-11-29 10:37:04.067012
2043  2023-11-29 10:37:04.114885
2044  2023-11-29 10:37:04.146832
2045  2023-11-29 10:37:04.194672
2046  2023-11-29 10:37:04.242575
2047  2023-11-29 10:37:04.272515
2048  2023-11-29 10:37:04.320335
2049  2023-11-29 10:37:04.368396
2050  2023-11-29 10:37:04.400154
2051  2023-11-29 10:37:04.448076
2052  2023-11-29 10:37:04.495108
2053  2023-11-29 10:37:04.526026
2054  2023-11-29 10:37:04.571905
2055  2023-11-29 10:37:04.619783
2056  2023-11-29 10:37:04.650660
2057  2023-11-29 10:37:04.697568
2058  2023-11-29 10:37:04.745411
2059  2023-11-29 10:37:04.777350
2060  2023-11-29 10:37:04.826236
2061  2023-11-29 10:37:04.858148
2062  2023-11-29 10:37:04.903986
2063  2023-11-29 10:37:04.951889
2064  2023-11-29 10:37:04.983902
2065  2023-11-29 10:37:05.029803
2066  2023-11-29 10:37:05.077645
2067  2023-11-29 10:37:05.108562
2068  2023-11-29 10:37:05.155466
2069  2023-11-29 10:37:05.203309
2070  2023-11-29 10:37:05.235223
2071  2023-11-29 10:37:05.283319
2072  2023-11-29 10:37:05.315044
2073  2023-11-29 10:37:05.362882
2074  2023-11-29 10:37:05.410789
2075  2023-11-29 10:37:05.441702
2076  2023-11-29 10:37:05.488578
2077  2023-11-29 10:37:05.536453
2078  2023-11-29 10:37:05.568368
2079  2023-11-29 10:37:05.616254
2080  2023-11-29 10:37:05.647153
2081  2023-11-29 10:37:05.694042
2082  2023-11-29 10:37:05.740915
2083  2023-11-29 10:37:05.771820
2084  2023-11-29 10:37:05.818759
2085  2023-11-29 10:37:05.866628
2086  2023-11-29 10:37:05.896512
2087  2023-11-29 10:37:05.944504
2088  2023-11-29 10:37:05.992477
2089  2023-11-29 10:37:06.024347
2090  2023-11-29 10:37:06.072288
2091  2023-11-29 10:37:06.120237
2092  2023-11-29 10:37:06.152282
2093  2023-11-29 10:37:06.198334
2094  2023-11-29 10:37:06.244267
2095  2023-11-29 10:37:06.276182
2096  2023-11-29 10:37:06.322238
2097  2023-11-29 10:37:06.369283
2098  2023-11-29 10:37:06.400157
2099  2023-11-29 10:37:06.447032
2100  2023-11-29 10:37:06.493903
2101  2023-11-29 10:37:06.525824
2102  2023-11-29 10:37:06.573660
2103  2023-11-29 10:37:06.605575
2104  2023-11-29 10:37:06.653478
2105  2023-11-29 10:37:06.701358
2106  2023-11-29 10:37:06.733233
2107  2023-11-29 10:37:06.781133
2108  2023-11-29 10:37:06.813048
2109  2023-11-29 10:37:06.860925
2110  2023-11-29 10:37:06.908763
2111  2023-11-29 10:37:06.940711
2112  2023-11-29 10:37:06.988583
2113  2023-11-29 10:37:07.034478
2114  2023-11-29 10:37:07.065380
2115  2023-11-29 10:37:07.113247
2116  2023-11-29 10:37:07.158130
2117  2023-11-29 10:37:07.189046
2118  2023-11-29 10:37:07.235888
2119  2023-11-29 10:37:07.283797
2120  2023-11-29 10:37:07.315175
2121  2023-11-29 10:37:07.363074
2122  2023-11-29 10:37:07.410946
2123  2023-11-29 10:37:07.442861
2124  2023-11-29 10:37:07.490733
2125  2023-11-29 10:37:07.536612
2126  2023-11-29 10:37:07.568527
2127  2023-11-29 10:37:07.614453
2128  2023-11-29 10:37:07.661312
2129  2023-11-29 10:37:07.693227
2130  2023-11-29 10:37:07.741099
2131  2023-11-29 10:37:07.773018
2132  2023-11-29 10:37:07.820955
2133  2023-11-29 10:37:07.868796
2134  2023-11-29 10:37:07.900710
2135  2023-11-29 10:37:07.948616
2136  2023-11-29 10:37:07.980498
2137  2023-11-29 10:37:08.028402
2138  2023-11-29 10:37:08.076277
2139  2023-11-29 10:37:08.108188
2140  2023-11-29 10:37:08.156062
2141  2023-11-29 10:37:08.202933
2142  2023-11-29 10:37:08.233996
2143  2023-11-29 10:37:08.281725
2144  2023-11-29 10:37:08.313640
2145  2023-11-29 10:37:08.361510
2146  2023-11-29 10:37:08.409350
2147  2023-11-29 10:37:08.441274
2148  2023-11-29 10:37:08.489169
2149  2023-11-29 10:37:08.537011
2150  2023-11-29 10:37:08.566962
2151  2023-11-29 10:37:08.614831
2152  2023-11-29 10:37:08.646747
2153  2023-11-29 10:37:08.694620
2154  2023-11-29 10:37:08.742491
2155  2023-11-29 10:37:08.772380
2156  2023-11-29 10:37:08.820253
2157  2023-11-29 10:37:08.868124
2158  2023-11-29 10:37:08.899041
2159  2023-11-29 10:37:08.945951
2160  2023-11-29 10:37:08.993820
2161  2023-11-29 10:37:09.025841
2162  2023-11-29 10:37:09.073697
2163  2023-11-29 10:37:09.105615
2164  2023-11-29 10:37:09.152485
2165  2023-11-29 10:37:09.200334
2166  2023-11-29 10:37:09.232240
2167  2023-11-29 10:37:09.280167
2168  2023-11-29 10:37:09.326986
2169  2023-11-29 10:37:09.357904
2170  2023-11-29 10:37:09.405978
2171  2023-11-29 10:37:09.452685
2172  2023-11-29 10:37:09.484565
2173  2023-11-29 10:37:09.532482
2174  2023-11-29 10:37:09.563388
2175  2023-11-29 10:37:09.610264
2176  2023-11-29 10:37:09.658145
2177  2023-11-29 10:37:09.689056
2178  2023-11-29 10:37:09.735915
2179  2023-11-29 10:37:09.783797
2180  2023-11-29 10:37:09.815718
2181  2023-11-29 10:37:09.863589
2182  2023-11-29 10:37:09.909461
2183  2023-11-29 10:37:09.940347
2184  2023-11-29 10:37:09.987267
2185  2023-11-29 10:37:10.035093
2186  2023-11-29 10:37:10.067008
2187  2023-11-29 10:37:10.114912
2188  2023-11-29 10:37:10.161755
2189  2023-11-29 10:37:10.192705
2190  2023-11-29 10:37:10.239699
2191  2023-11-29 10:37:10.271614
2192  2023-11-29 10:37:10.319449
2193  2023-11-29 10:37:10.366269
2194  2023-11-29 10:37:10.397186
2195  2023-11-29 10:37:10.443203
2196  2023-11-29 10:37:10.490002
2197  2023-11-29 10:37:10.521914
2198  2023-11-29 10:37:10.569779
2199  2023-11-29 10:37:10.617653
2200  2023-11-29 10:37:10.649564
2201  2023-11-29 10:37:10.695615
2202  2023-11-29 10:37:10.743585
2203  2023-11-29 10:37:10.774615
2204  2023-11-29 10:37:10.821380
2205  2023-11-29 10:37:10.867218
2206  2023-11-29 10:37:10.899133
2207  2023-11-29 10:37:10.947035
2208  2023-11-29 10:37:10.994909
2209  2023-11-29 10:37:11.026992
2210  2023-11-29 10:37:11.074704
2211  2023-11-29 10:37:11.106610
2212  2023-11-29 10:37:11.154482
2213  2023-11-29 10:37:11.202322
2214  2023-11-29 10:37:11.234237
2215  2023-11-29 10:37:11.282131
2216  2023-11-29 10:37:11.314264
2217  2023-11-29 10:37:11.362122
2218  2023-11-29 10:37:11.409401
2219  2023-11-29 10:37:11.441425
2220  2023-11-29 10:37:11.489264
2221  2023-11-29 10:37:11.536173
2222  2023-11-29 10:37:11.567057
2223  2023-11-29 10:37:11.614967
2224  2023-11-29 10:37:11.646897
2225  2023-11-29 10:37:11.694715
2226  2023-11-29 10:37:11.741590
2227  2023-11-29 10:37:11.773540
2228  2023-11-29 10:37:11.821377
2229  2023-11-29 10:37:11.869281
2230  2023-11-29 10:37:11.901199
2231  2023-11-29 10:37:11.949157
2232  2023-11-29 10:37:11.980985
2233  2023-11-29 10:37:12.028822
2234  2023-11-29 10:37:12.076728
2235  2023-11-29 10:37:12.108610
2236  2023-11-29 10:37:12.156481
2237  2023-11-29 10:37:12.188395
2238  2023-11-29 10:37:12.235273
2239  2023-11-29 10:37:12.282145
2240  2023-11-29 10:37:12.314095
2241  2023-11-29 10:37:12.361971
2242  2023-11-29 10:37:12.409836
2243  2023-11-29 10:37:12.441759
2244  2023-11-29 10:37:12.488593
2245  2023-11-29 10:37:12.536513
2246  2023-11-29 10:37:12.568426
2247  2023-11-29 10:37:12.616304
2248  2023-11-29 10:37:12.648201
2249  2023-11-29 10:37:12.696074
2250  2023-11-29 10:37:12.743953
2251  2023-11-29 10:37:12.775859
2252  2023-11-29 10:37:12.823737
2253  2023-11-29 10:37:12.869574
2254  2023-11-29 10:37:12.901530
2255  2023-11-29 10:37:12.949403
2256  2023-11-29 10:37:12.981313
2257  2023-11-29 10:37:13.027188
2258  2023-11-29 10:37:13.075063
2259  2023-11-29 10:37:13.106978
2260  2023-11-29 10:37:13.155843
2261  2023-11-29 10:37:13.203715
2262  2023-11-29 10:37:13.235632
2263  2023-11-29 10:37:13.281508
2264  2023-11-29 10:37:13.328380
2265  2023-11-29 10:37:13.360263
2266  2023-11-29 10:37:13.406175
2267  2023-11-29 10:37:13.438057
2268  2023-11-29 10:37:13.485928
2269  2023-11-29 10:37:13.533834
2270  2023-11-29 10:37:13.564716
2271  2023-11-29 10:37:13.611592
2272  2023-11-29 10:37:13.657502
2273  2023-11-29 10:37:13.689420
2274  2023-11-29 10:37:13.737308
2275  2023-11-29 10:37:13.785162
2276  2023-11-29 10:37:13.817076
2277  2023-11-29 10:37:13.862950
2278  2023-11-29 10:37:13.910791
2279  2023-11-29 10:37:13.942741
2280  2023-11-29 10:37:13.990608
2281  2023-11-29 10:37:14.022697
2282  2023-11-29 10:37:14.068407
2283  2023-11-29 10:37:14.116278
2284  2023-11-29 10:37:14.148195
2285  2023-11-29 10:37:14.197071
2286  2023-11-29 10:37:14.242938
2287  2023-11-29 10:37:14.274853
2288  2023-11-29 10:37:14.322727
2289  2023-11-29 10:37:14.370595
2290  2023-11-29 10:37:14.402517
2291  2023-11-29 10:37:14.450424
2292  2023-11-29 10:37:14.483313
2293  2023-11-29 10:37:14.530250
2294  2023-11-29 10:37:14.575253
2295  2023-11-29 10:37:14.607169
2296  2023-11-29 10:37:14.653011
2297  2023-11-29 10:37:14.700919
2298  2023-11-29 10:37:14.732800
2299  2023-11-29 10:37:14.779860
2300  2023-11-29 10:37:14.826928
2301  2023-11-29 10:37:14.858746
2302  2023-11-29 10:37:14.906624
2303  2023-11-29 10:37:14.938569
2304  2023-11-29 10:37:14.986404
2305  2023-11-29 10:37:15.035326
2306  2023-11-29 10:37:15.065225
2307  2023-11-29 10:37:15.112105
2308  2023-11-29 10:37:15.160132
2309  2023-11-29 10:37:15.192018
2310  2023-11-29 10:37:15.240013
2311  2023-11-29 10:37:15.271933
2312  2023-11-29 10:37:15.319805
2313  2023-11-29 10:37:15.367678
2314  2023-11-29 10:37:15.399587
2315  2023-11-29 10:37:15.447455
2316  2023-11-29 10:37:15.494299
2317  2023-11-29 10:37:15.526244
2318  2023-11-29 10:37:15.574118
2319  2023-11-29 10:37:15.606031
2320  2023-11-29 10:37:15.653925
2321  2023-11-29 10:37:15.701779
2322  2023-11-29 10:37:15.733693
2323  2023-11-29 10:37:15.779567
2324  2023-11-29 10:37:15.825445
2325  2023-11-29 10:37:15.858366
2326  2023-11-29 10:37:15.905234
2327  2023-11-29 10:37:15.953072
2328  2023-11-29 10:37:15.986176
2329  2023-11-29 10:37:16.032878
2330  2023-11-29 10:37:16.063792
2331  2023-11-29 10:37:16.110847
2332  2023-11-29 10:37:16.158567
2333  2023-11-29 10:37:16.189485
2334  2023-11-29 10:37:16.235364
2335  2023-11-29 10:37:16.282237
2336  2023-11-29 10:37:16.314152
2337  2023-11-29 10:37:16.360071
2338  2023-11-29 10:37:16.407935
2339  2023-11-29 10:37:16.439862
2340  2023-11-29 10:37:16.487102
2341  2023-11-29 10:37:16.535024
2342  2023-11-29 10:37:16.566898
2343  2023-11-29 10:37:16.612810
2344  2023-11-29 10:37:16.659688
2345  2023-11-29 10:37:16.690599
2346  2023-11-29 10:37:16.738470
2347  2023-11-29 10:37:16.785351
2348  2023-11-29 10:37:16.817264
2349  2023-11-29 10:37:16.863105
2350  2023-11-29 10:37:16.911012
2351  2023-11-29 10:37:16.940899
2352  2023-11-29 10:37:16.988914
2353  2023-11-29 10:37:17.036695
2354  2023-11-29 10:37:17.069586
2355  2023-11-29 10:37:17.116041
2356  2023-11-29 10:37:17.148001
2357  2023-11-29 10:37:17.193913
2358  2023-11-29 10:37:17.241751
2359  2023-11-29 10:37:17.273665
2360  2023-11-29 10:37:17.321538
2361  2023-11-29 10:37:17.369447
2362  2023-11-29 10:37:17.401356
2363  2023-11-29 10:37:17.449196
2364  2023-11-29 10:37:17.481239
2365  2023-11-29 10:37:17.529023
2366  2023-11-29 10:37:17.576855
2367  2023-11-29 10:37:17.608877
2368  2023-11-29 10:37:17.656784
2369  2023-11-29 10:37:17.702661
2370  2023-11-29 10:37:17.734762
2371  2023-11-29 10:37:17.782450
2372  2023-11-29 10:37:17.814359
2373  2023-11-29 10:37:17.862234
2374  2023-11-29 10:37:17.910105
2375  2023-11-29 10:37:17.942024
2376  2023-11-29 10:37:17.988893
2377  2023-11-29 10:37:18.036767
2378  2023-11-29 10:37:18.067739
2379  2023-11-29 10:37:18.114613
2380  2023-11-29 10:37:18.146597
2381  2023-11-29 10:37:18.194431
2382  2023-11-29 10:37:18.242302
2383  2023-11-29 10:37:18.274217
2384  2023-11-29 10:37:18.322090
2385  2023-11-29 10:37:18.370013
2386  2023-11-29 10:37:18.401910
2387  2023-11-29 10:37:18.450833
2388  2023-11-29 10:37:18.481782
2389  2023-11-29 10:37:18.529657
2390  2023-11-29 10:37:18.575540
2391  2023-11-29 10:37:18.607489
2392  2023-11-29 10:37:18.655435
2393  2023-11-29 10:37:18.703307
2394  2023-11-29 10:37:18.735222
2395  2023-11-29 10:37:18.783112
2396  2023-11-29 10:37:18.815984
2397  2023-11-29 10:37:18.863894
2398  2023-11-29 10:37:18.911757
2399  2023-11-29 10:37:18.943665
2400  2023-11-29 10:37:18.991539
2401  2023-11-29 10:37:19.023450
2402  2023-11-29 10:37:19.068328
2403  2023-11-29 10:37:19.116170
2404  2023-11-29 10:37:19.147087
2405  2023-11-29 10:37:19.192005
2406  2023-11-29 10:37:19.239839
2407  2023-11-29 10:37:19.271756
2408  2023-11-29 10:37:19.319626
2409  2023-11-29 10:37:19.367540
2410  2023-11-29 10:37:19.399456
2411  2023-11-29 10:37:19.445325
2412  2023-11-29 10:37:19.493200
2413  2023-11-29 10:37:19.525019
2414  2023-11-29 10:37:19.572948
2415  2023-11-29 10:37:19.604863
2416  2023-11-29 10:37:19.652783
2417  2023-11-29 10:37:19.700657
2418  2023-11-29 10:37:19.732711
2419  2023-11-29 10:37:19.780704
2420  2023-11-29 10:37:19.828583
2421  2023-11-29 10:37:19.860502
2422  2023-11-29 10:37:19.907361
2423  2023-11-29 10:37:19.939284
2424  2023-11-29 10:37:19.987301
2425  2023-11-29 10:37:20.035024
2426  2023-11-29 10:37:20.066935
2427  2023-11-29 10:37:20.113855
2428  2023-11-29 10:37:20.160855
2429  2023-11-29 10:37:20.192776
2430  2023-11-29 10:37:20.240692
2431  2023-11-29 10:37:20.272566
2432  2023-11-29 10:37:20.320478
2433  2023-11-29 10:37:20.368311
2434  2023-11-29 10:37:20.400254
2435  2023-11-29 10:37:20.448202
2436  2023-11-29 10:37:20.494200
2437  2023-11-29 10:37:20.526109
2438  2023-11-29 10:37:20.574946
2439  2023-11-29 10:37:20.606895
2440  2023-11-29 10:37:20.653882
2441  2023-11-29 10:37:20.702636
2442  2023-11-29 10:37:20.734667
2443  2023-11-29 10:37:20.782618
2444  2023-11-29 10:37:20.814535
2445  2023-11-29 10:37:20.862405
2446  2023-11-29 10:37:20.909290
2447  2023-11-29 10:37:20.942195
2448  2023-11-29 10:37:20.990064
2449  2023-11-29 10:37:21.035938
2450  2023-11-29 10:37:21.067851
2451  2023-11-29 10:37:21.115692
2452  2023-11-29 10:37:21.147607
2453  2023-11-29 10:37:21.194483
2454  2023-11-29 10:37:21.241357
2455  2023-11-29 10:37:21.271307
2456  2023-11-29 10:37:21.319148
2457  2023-11-29 10:37:21.366033
2458  2023-11-29 10:37:21.396991
2459  2023-11-29 10:37:21.444694
2460  2023-11-29 10:37:21.492692
2461  2023-11-29 10:37:21.524666
2462  2023-11-29 10:37:21.572602
2463  2023-11-29 10:37:21.619511
2464  2023-11-29 10:37:21.650461
2465  2023-11-29 10:37:21.697373
2466  2023-11-29 10:37:21.744249
2467  2023-11-29 10:37:21.776162
2468  2023-11-29 10:37:21.822951
2469  2023-11-29 10:37:21.854857
2470  2023-11-29 10:37:21.903733
2471  2023-11-29 10:37:21.950569
2472  2023-11-29 10:37:21.983519
2473  2023-11-29 10:37:22.030393
2474  2023-11-29 10:37:22.078267
2475  2023-11-29 10:37:22.110174
2476  2023-11-29 10:37:22.158015
2477  2023-11-29 10:37:22.189930
2478  2023-11-29 10:37:22.236806
2479  2023-11-29 10:37:22.283679
2480  2023-11-29 10:37:22.316624
2481  2023-11-29 10:37:22.362531
2482  2023-11-29 10:37:22.409400
2483  2023-11-29 10:37:22.441315
2484  2023-11-29 10:37:22.488843
2485  2023-11-29 10:37:22.535757
2486  2023-11-29 10:37:22.566668
2487  2023-11-29 10:37:22.613630
2488  2023-11-29 10:37:22.659746
2489  2023-11-29 10:37:22.691659
2490  2023-11-29 10:37:22.739541
2491  2023-11-29 10:37:22.771446
2492  2023-11-29 10:37:22.819286
2493  2023-11-29 10:37:22.867193
2494  2023-11-29 10:37:22.899045
2495  2023-11-29 10:37:22.946992
2496  2023-11-29 10:37:22.994833
2497  2023-11-29 10:37:23.026782
2498  2023-11-29 10:37:23.074650
2499  2023-11-29 10:37:23.106568
2500  2023-11-29 10:37:23.154406
2501  2023-11-29 10:37:23.202307
2502  2023-11-29 10:37:23.234192
2503  2023-11-29 10:37:23.281101
2504  2023-11-29 10:37:23.326982
2505  2023-11-29 10:37:23.357909
2506  2023-11-29 10:37:23.407762
2507  2023-11-29 10:37:23.452758
2508  2023-11-29 10:37:23.484712
2509  2023-11-29 10:37:23.532577
2510  2023-11-29 10:37:23.564637
2511  2023-11-29 10:37:23.612526
2512  2023-11-29 10:37:23.660356
2513  2023-11-29 10:37:23.692316
2514  2023-11-29 10:37:23.739139
2515  2023-11-29 10:37:23.786013
2516  2023-11-29 10:37:23.817928
2517  2023-11-29 10:37:23.865931
2518  2023-11-29 10:37:23.897953
2519  2023-11-29 10:37:23.945870
2520  2023-11-29 10:37:23.993742
2521  2023-11-29 10:37:24.025657
2522  2023-11-29 10:37:24.074527
2523  2023-11-29 10:37:24.105444
2524  2023-11-29 10:37:24.153315
2525  2023-11-29 10:37:24.200226
2526  2023-11-29 10:37:24.231150
2527  2023-11-29 10:37:24.277982
2528  2023-11-29 10:37:24.323892
2529  2023-11-29 10:37:24.354791
2530  2023-11-29 10:37:24.400685
2531  2023-11-29 10:37:24.448620
2532  2023-11-29 10:37:24.494602
2533  2023-11-29 10:37:24.526519
2534  2023-11-29 10:37:24.572364
2535  2023-11-29 10:37:24.619301
2536  2023-11-29 10:37:24.651188
2537  2023-11-29 10:37:24.696039
2538  2023-11-29 10:37:24.744050
2539  2023-11-29 10:37:24.775966
2540  2023-11-29 10:37:24.823870
2541  2023-11-29 10:37:24.855785
2542  2023-11-29 10:37:24.903688
2543  2023-11-29 10:37:24.951529
2544  2023-11-29 10:37:24.983443
2545  2023-11-29 10:37:25.031490
2546  2023-11-29 10:37:25.063399
2547  2023-11-29 10:37:25.111240
2548  2023-11-29 10:37:25.159153
2549  2023-11-29 10:37:25.191060
2550  2023-11-29 10:37:25.237904
2551  2023-11-29 10:37:25.284872
2552  2023-11-29 10:37:25.316798
2553  2023-11-29 10:37:25.364699
2554  2023-11-29 10:37:25.411577
2555  2023-11-29 10:37:25.443604
2556  2023-11-29 10:37:25.490447
2557  2023-11-29 10:37:25.536363
2558  2023-11-29 10:37:25.567275
2559  2023-11-29 10:37:25.615149
2560  2023-11-29 10:37:25.647067
2561  2023-11-29 10:37:25.694926
2562  2023-11-29 10:37:25.741811
2563  2023-11-29 10:37:25.772721
2564  2023-11-29 10:37:25.820593
2565  2023-11-29 10:37:25.868467
2566  2023-11-29 10:37:25.900381
2567  2023-11-29 10:37:25.948378
2568  2023-11-29 10:37:25.980307
2569  2023-11-29 10:37:26.028165
2570  2023-11-29 10:37:26.075009
2571  2023-11-29 10:37:26.105956
2572  2023-11-29 10:37:26.154833
2573  2023-11-29 10:37:26.202696
2574  2023-11-29 10:37:26.234619
2575  2023-11-29 10:37:26.280457
2576  2023-11-29 10:37:26.326377
2577  2023-11-29 10:37:26.358286
2578  2023-11-29 10:37:26.403130
2579  2023-11-29 10:37:26.451002
2580  2023-11-29 10:37:26.482917
2581  2023-11-29 10:37:26.528824
2582  2023-11-29 10:37:26.576697
2583  2023-11-29 10:37:26.607614
2584  2023-11-29 10:37:26.655488
2585  2023-11-29 10:37:26.703371
2586  2023-11-29 10:37:26.735273
2587  2023-11-29 10:37:26.783148
2588  2023-11-29 10:37:26.815062
2589  2023-11-29 10:37:26.861904
2590  2023-11-29 10:37:26.909808
2591  2023-11-29 10:37:26.941724
2592  2023-11-29 10:37:26.989595
2593  2023-11-29 10:37:27.021477
2594  2023-11-29 10:37:27.069399
2595  2023-11-29 10:37:27.117382
2596  2023-11-29 10:37:27.149299
2597  2023-11-29 10:37:27.196169
2598  2023-11-29 10:37:27.244214
2599  2023-11-29 10:37:27.276001
2600  2023-11-29 10:37:27.321989
2601  2023-11-29 10:37:27.366830
2602  2023-11-29 10:37:27.398738
2603  2023-11-29 10:37:27.445721
2604  2023-11-29 10:37:27.491675
2605  2023-11-29 10:37:27.522601
2606  2023-11-29 10:37:27.570433
2607  2023-11-29 10:37:27.616342
2608  2023-11-29 10:37:27.648263
2609  2023-11-29 10:37:27.696157
2610  2023-11-29 10:37:27.744066
2611  2023-11-29 10:37:27.776120
2612  2023-11-29 10:37:27.823845
2613  2023-11-29 10:37:27.855730
2614  2023-11-29 10:37:27.903635
2615  2023-11-29 10:37:27.951492
2616  2023-11-29 10:37:27.983389
2617  2023-11-29 10:37:28.032291
2618  2023-11-29 10:37:28.063207
2619  2023-11-29 10:37:28.111047
2620  2023-11-29 10:37:28.158953
2621  2023-11-29 10:37:28.190886
2622  2023-11-29 10:37:28.238752
2623  2023-11-29 10:37:28.286608
2624  2023-11-29 10:37:28.318527
2625  2023-11-29 10:37:28.364403
2626  2023-11-29 10:37:28.411292
2627  2023-11-29 10:37:28.443276
2628  2023-11-29 10:37:28.490155
2629  2023-11-29 10:37:28.522069
2630  2023-11-29 10:37:28.570058
2631  2023-11-29 10:37:28.617812
2632  2023-11-29 10:37:28.649695
2633  2023-11-29 10:37:28.696600
2634  2023-11-29 10:37:28.741449
2635  2023-11-29 10:37:28.773364
2636  2023-11-29 10:37:28.821244
2637  2023-11-29 10:37:28.869141
2638  2023-11-29 10:37:28.901054
2639  2023-11-29 10:37:28.948894
2640  2023-11-29 10:37:28.980809
2641  2023-11-29 10:37:29.028714
2642  2023-11-29 10:37:29.076553
2643  2023-11-29 10:37:29.108468
2644  2023-11-29 10:37:29.156377
2645  2023-11-29 10:37:29.188255
2646  2023-11-29 10:37:29.236160
2647  2023-11-29 10:37:29.283999
2648  2023-11-29 10:37:29.315913
2649  2023-11-29 10:37:29.361822
2650  2023-11-29 10:37:29.408699
2651  2023-11-29 10:37:29.439615
2652  2023-11-29 10:37:29.487455
2653  2023-11-29 10:37:29.535388
2654  2023-11-29 10:37:29.567242
2655  2023-11-29 10:37:29.614146
2656  2023-11-29 10:37:29.661024
2657  2023-11-29 10:37:29.692937
2658  2023-11-29 10:37:29.740779
2659  2023-11-29 10:37:29.772742
2660  2023-11-29 10:37:29.820621
2661  2023-11-29 10:37:29.868470
2662  2023-11-29 10:37:29.901351
2663  2023-11-29 10:37:29.948253
2664  2023-11-29 10:37:29.995131
2665  2023-11-29 10:37:30.026046
2666  2023-11-29 10:37:30.073926
2667  2023-11-29 10:37:30.105841
2668  2023-11-29 10:37:30.153706
2669  2023-11-29 10:37:30.201587
2670  2023-11-29 10:37:30.233498
2671  2023-11-29 10:37:30.280335
2672  2023-11-29 10:37:30.327243
2673  2023-11-29 10:37:30.359167
2674  2023-11-29 10:37:30.407030
2675  2023-11-29 10:37:30.452874
2676  2023-11-29 10:37:30.483791
2677  2023-11-29 10:37:30.529668
2678  2023-11-29 10:37:30.577574
2679  2023-11-29 10:37:30.609494
2680  2023-11-29 10:37:30.658325
2681  2023-11-29 10:37:30.689247
2682  2023-11-29 10:37:30.735034
2683  2023-11-29 10:37:30.782006
2684  2023-11-29 10:37:30.827870
2685  2023-11-29 10:37:30.858785
2686  2023-11-29 10:37:30.906627
2687  2023-11-29 10:37:30.939573
2688  2023-11-29 10:37:30.986444
2689  2023-11-29 10:37:31.034316
2690  2023-11-29 10:37:31.067250
2691  2023-11-29 10:37:31.114107
2692  2023-11-29 10:37:31.160934
2693  2023-11-29 10:37:31.191907
2694  2023-11-29 10:37:31.239786
2695  2023-11-29 10:37:31.271695
2696  2023-11-29 10:37:31.319574
2697  2023-11-29 10:37:31.368434
2698  2023-11-29 10:37:31.398354
2699  2023-11-29 10:37:31.446225
2700  2023-11-29 10:37:31.494097
2701  2023-11-29 10:37:31.524019
2702  2023-11-29 10:37:31.569897
2703  2023-11-29 10:37:31.616769
2704  2023-11-29 10:37:31.648741
2705  2023-11-29 10:37:31.696683
2706  2023-11-29 10:37:31.744667
2707  2023-11-29 10:37:31.776577
2708  2023-11-29 10:37:31.824464
2709  2023-11-29 10:37:31.856375
2710  2023-11-29 10:37:31.903363
2711  2023-11-29 10:37:31.950118
2712  2023-11-29 10:37:31.981051
2713  2023-11-29 10:37:32.027908
2714  2023-11-29 10:37:32.075799
2715  2023-11-29 10:37:32.107702
2716  2023-11-29 10:37:32.155565
2717  2023-11-29 10:37:32.203454
2718  2023-11-29 10:37:32.235370
2719  2023-11-29 10:37:32.282229
2720  2023-11-29 10:37:32.314145
2721  2023-11-29 10:37:32.362125
2722  2023-11-29 10:37:32.410029
2723  2023-11-29 10:37:32.442028
2724  2023-11-29 10:37:32.489816
2725  2023-11-29 10:37:32.521730
2726  2023-11-29 10:37:32.569603
2727  2023-11-29 10:37:32.617473
2728  2023-11-29 10:37:32.649390
2729  2023-11-29 10:37:32.697225
2730  2023-11-29 10:37:32.745099
2731  2023-11-29 10:37:32.777015
2732  2023-11-29 10:37:32.824883
2733  2023-11-29 10:37:32.856878
2734  2023-11-29 10:37:32.903750
2735  2023-11-29 10:37:32.950626
2736  2023-11-29 10:37:32.983547
2737  2023-11-29 10:37:33.029415
2738  2023-11-29 10:37:33.077302
2739  2023-11-29 10:37:33.109202
2740  2023-11-29 10:37:33.158074
2741  2023-11-29 10:37:33.188990
2742  2023-11-29 10:37:33.234833
2743  2023-11-29 10:37:33.281695
2744  2023-11-29 10:37:33.313582
2745  2023-11-29 10:37:33.361502
2746  2023-11-29 10:37:33.407414
2747  2023-11-29 10:37:33.439299
2748  2023-11-29 10:37:33.487167
2749  2023-11-29 10:37:33.535078
2750  2023-11-29 10:37:33.566954
2751  2023-11-29 10:37:33.614859
2752  2023-11-29 10:37:33.646776
2753  2023-11-29 10:37:33.694612
2754  2023-11-29 10:37:33.742514
2755  2023-11-29 10:37:33.774433
2756  2023-11-29 10:37:33.819309
2757  2023-11-29 10:37:33.865194
2758  2023-11-29 10:37:33.911069
2759  2023-11-29 10:37:33.941985
2760  2023-11-29 10:37:33.990016
2761  2023-11-29 10:37:34.036733
2762  2023-11-29 10:37:34.068648
2763  2023-11-29 10:37:34.116519
2764  2023-11-29 10:37:34.148430
2765  2023-11-29 10:37:34.196306
2766  2023-11-29 10:37:34.244325
2767  2023-11-29 10:37:34.274251
2768  2023-11-29 10:37:34.321087
2769  2023-11-29 10:37:34.368992
2770  2023-11-29 10:37:34.400874
2771  2023-11-29 10:37:34.446785
2772  2023-11-29 10:37:34.493626
2773  2023-11-29 10:37:34.525541
2774  2023-11-29 10:37:34.571595
2775  2023-11-29 10:37:34.619324
2776  2023-11-29 10:37:34.651237
2777  2023-11-29 10:37:34.699121
2778  2023-11-29 10:37:34.731030
2779  2023-11-29 10:37:34.778865
2780  2023-11-29 10:37:34.826736
2781  2023-11-29 10:37:34.858682
2782  2023-11-29 10:37:34.907553
2783  2023-11-29 10:37:34.939479
2784  2023-11-29 10:37:34.986342
2785  2023-11-29 10:37:35.033216
2786  2023-11-29 10:37:35.064135
2787  2023-11-29 10:37:35.112011
2788  2023-11-29 10:37:35.159879
2789  2023-11-29 10:37:35.191798
2790  2023-11-29 10:37:35.239667
2791  2023-11-29 10:37:35.271582
2792  2023-11-29 10:37:35.319460
2793  2023-11-29 10:37:35.367327
2794  2023-11-29 10:37:35.398576
2795  2023-11-29 10:37:35.445470
2796  2023-11-29 10:37:35.493379
2797  2023-11-29 10:37:35.525292
2798  2023-11-29 10:37:35.574162
2799  2023-11-29 10:37:35.606074
2800  2023-11-29 10:37:35.652947
2801  2023-11-29 10:37:35.699895
2802  2023-11-29 10:37:35.731812
2803  2023-11-29 10:37:35.777708
2804  2023-11-29 10:37:35.824597
2805  2023-11-29 10:37:35.855545
2806  2023-11-29 10:37:35.903416
2807  2023-11-29 10:37:35.951258
2808  2023-11-29 10:37:35.982971
2809  2023-11-29 10:37:36.031012
2810  2023-11-29 10:37:36.078398
2811  2023-11-29 10:37:36.110308
2812  2023-11-29 10:37:36.158144
2813  2023-11-29 10:37:36.190058
2814  2023-11-29 10:37:36.237961
2815  2023-11-29 10:37:36.285803
2816  2023-11-29 10:37:36.317717
2817  2023-11-29 10:37:36.365589
2818  2023-11-29 10:37:36.396507
2819  2023-11-29 10:37:36.443383
2820  2023-11-29 10:37:36.491285
2821  2023-11-29 10:37:36.523212
2822  2023-11-29 10:37:36.571075
2823  2023-11-29 10:37:36.618912
2824  2023-11-29 10:37:36.650871
2825  2023-11-29 10:37:36.698701
2826  2023-11-29 10:37:36.730658
2827  2023-11-29 10:37:36.779527
2828  2023-11-29 10:37:36.825729
2829  2023-11-29 10:37:36.856648
2830  2023-11-29 10:37:36.904617
2831  2023-11-29 10:37:36.952261
2832  2023-11-29 10:37:36.984176
2833  2023-11-29 10:37:37.030703
2834  2023-11-29 10:37:37.077628
2835  2023-11-29 10:37:37.108586
2836  2023-11-29 10:37:37.156447
2837  2023-11-29 10:37:37.188431
2838  2023-11-29 10:37:37.236385
2839  2023-11-29 10:37:37.284254
2840  2023-11-29 10:37:37.316179
2841  2023-11-29 10:37:37.365043
2842  2023-11-29 10:37:37.410926
2843  2023-11-29 10:37:37.442835
2844  2023-11-29 10:37:37.487680
2845  2023-11-29 10:37:37.534591
2846  2023-11-29 10:37:37.566469
2847  2023-11-29 10:37:37.614424
2848  2023-11-29 10:37:37.661798
2849  2023-11-29 10:37:37.693713
2850  2023-11-29 10:37:37.741585
2851  2023-11-29 10:37:37.772503
2852  2023-11-29 10:37:37.818451
2853  2023-11-29 10:37:37.865357
2854  2023-11-29 10:37:37.897240
2855  2023-11-29 10:37:37.944325
2856  2023-11-29 10:37:37.991315
2857  2023-11-29 10:37:38.036196
2858  2023-11-29 10:37:38.068113
2859  2023-11-29 10:37:38.113993
2860  2023-11-29 10:37:38.161829
2861  2023-11-29 10:37:38.193779
2862  2023-11-29 10:37:38.239655
2863  2023-11-29 10:37:38.271570
2864  2023-11-29 10:37:38.319407
2865  2023-11-29 10:37:38.368269
2866  2023-11-29 10:37:38.399270
2867  2023-11-29 10:37:38.445147
2868  2023-11-29 10:37:38.491396
2869  2023-11-29 10:37:38.523315
2870  2023-11-29 10:37:38.572232
2871  2023-11-29 10:37:38.617060
2872  2023-11-29 10:37:38.649010
2873  2023-11-29 10:37:38.696370
2874  2023-11-29 10:37:38.743247
2875  2023-11-29 10:37:38.774198
2876  2023-11-29 10:37:38.822072
2877  2023-11-29 10:37:38.868942
2878  2023-11-29 10:37:38.900825
2879  2023-11-29 10:37:38.948730
2880  2023-11-29 10:37:38.980643
2881  2023-11-29 10:37:39.028555
2882  2023-11-29 10:37:39.075394
2883  2023-11-29 10:37:39.108309
2884  2023-11-29 10:37:39.155183
2885  2023-11-29 10:37:39.203056
2886  2023-11-29 10:37:39.235971
2887  2023-11-29 10:37:39.281807
2888  2023-11-29 10:37:39.329722
2889  2023-11-29 10:37:39.361630
2890  2023-11-29 10:37:39.408500
2891  2023-11-29 10:37:39.440414
2892  2023-11-29 10:37:39.486260
2893  2023-11-29 10:37:39.533134
2894  2023-11-29 10:37:39.565049
2895  2023-11-29 10:37:39.610926
2896  2023-11-29 10:37:39.658799
2897  2023-11-29 10:37:39.690232
2898  2023-11-29 10:37:39.738139
2899  2023-11-29 10:37:39.784979
2900  2023-11-29 10:37:39.816894
2901  2023-11-29 10:37:39.862814
2902  2023-11-29 10:37:39.910691
2903  2023-11-29 10:37:39.941559
2904  2023-11-29 10:37:39.987540
2905  2023-11-29 10:37:40.035414
2906  2023-11-29 10:37:40.067342
2907  2023-11-29 10:37:40.114201
2908  2023-11-29 10:37:40.162086
2909  2023-11-29 10:37:40.192325
2910  2023-11-29 10:37:40.238221
2911  2023-11-29 10:37:40.285711
2912  2023-11-29 10:37:40.317626
2913  2023-11-29 10:37:40.365498
2914  2023-11-29 10:37:40.396415
2915  2023-11-29 10:37:40.443203
2916  2023-11-29 10:37:40.489151
2917  2023-11-29 10:37:40.536078
2918  2023-11-29 10:37:40.566995
2919  2023-11-29 10:37:40.614952
2920  2023-11-29 10:37:40.660824
2921  2023-11-29 10:37:40.692826
2922  2023-11-29 10:37:40.740700
2923  2023-11-29 10:37:40.772615
2924  2023-11-29 10:37:40.820069
2925  2023-11-29 10:37:40.867931
2926  2023-11-29 10:37:40.899919
2927  2023-11-29 10:37:40.947791
2928  2023-11-29 10:37:40.979702
2929  2023-11-29 10:37:41.027581
2930  2023-11-29 10:37:41.075449
2931  2023-11-29 10:37:41.107364
2932  2023-11-29 10:37:41.155239
2933  2023-11-29 10:37:41.203077
2934  2023-11-29 10:37:41.233027
2935  2023-11-29 10:37:41.280900
2936  2023-11-29 10:37:41.327742
2937  2023-11-29 10:37:41.358690
2938  2023-11-29 10:37:41.407528
2939  2023-11-29 10:37:41.439477
2940  2023-11-29 10:37:41.485320
2941  2023-11-29 10:37:41.531301
2942  2023-11-29 10:37:41.578176
2943  2023-11-29 10:37:41.610169
2944  2023-11-29 10:37:41.657059
2945  2023-11-29 10:37:41.688015
2946  2023-11-29 10:37:41.736106
2947  2023-11-29 10:37:41.784271
2948  2023-11-29 10:37:41.816192
2949  2023-11-29 10:37:41.864093
2950  2023-11-29 10:37:41.911003
2951  2023-11-29 10:37:41.941885
2952  2023-11-29 10:37:41.989272
2953  2023-11-29 10:37:42.036116
2954  2023-11-29 10:37:42.067063
2955  2023-11-29 10:37:42.114938
2956  2023-11-29 10:37:42.146853
2957  2023-11-29 10:37:42.193594
2958  2023-11-29 10:37:42.241563
2959  2023-11-29 10:37:42.273560
2960  2023-11-29 10:37:42.321092
2961  2023-11-29 10:37:42.369945
2962  2023-11-29 10:37:42.400849
2963  2023-11-29 10:37:42.446750
2964  2023-11-29 10:37:42.494569
2965  2023-11-29 10:37:42.524492
2966  2023-11-29 10:37:42.570364
2967  2023-11-29 10:37:42.618495
2968  2023-11-29 10:37:42.650409
2969  2023-11-29 10:37:42.697290
2970  2023-11-29 10:37:42.743200
2971  2023-11-29 10:37:42.775116
2972  2023-11-29 10:37:42.822986
2973  2023-11-29 10:37:42.854901
2974  2023-11-29 10:37:42.902769
2975  2023-11-29 10:37:42.949644
2976  2023-11-29 10:37:42.980577
2977  2023-11-29 10:37:43.028490
2978  2023-11-29 10:37:43.076400
2979  2023-11-29 10:37:43.108280
2980  2023-11-29 10:37:43.156202
2981  2023-11-29 10:37:43.202188
2982  2023-11-29 10:37:43.233980
2983  2023-11-29 10:37:43.281792
2984  2023-11-29 10:37:43.313744
2985  2023-11-29 10:37:43.360484
2986  2023-11-29 10:37:43.408303
2987  2023-11-29 10:37:43.440358
2988  2023-11-29 10:37:43.488233
2989  2023-11-29 10:37:43.537100
2990  2023-11-29 10:37:43.568020
2991  2023-11-29 10:37:43.615891
2992  2023-11-29 10:37:43.648803
2993  2023-11-29 10:37:43.696326
2994  2023-11-29 10:37:43.743209
2995  2023-11-29 10:37:43.774113
2996  2023-11-29 10:37:43.823973
2997  2023-11-29 10:37:43.869970
2998  2023-11-29 10:37:43.898877
2999  2023-11-29 10:37:43.946717
3000  2023-11-29 10:37:43.992717
3001  2023-11-29 10:37:44.024739
3002  2023-11-29 10:37:44.072705
3003  2023-11-29 10:37:44.104627
3004  2023-11-29 10:37:44.152513
3005  2023-11-29 10:37:44.200419
3006  2023-11-29 10:37:44.232558
3007  2023-11-29 10:37:44.280290
3008  2023-11-29 10:37:44.328129
3009  2023-11-29 10:37:44.360202
3010  2023-11-29 10:37:44.408096
3011  2023-11-29 10:37:44.440011
3012  2023-11-29 10:37:44.486998
3013  2023-11-29 10:37:44.534544
3014  2023-11-29 10:37:44.565684
3015  2023-11-29 10:37:44.611640
3016  2023-11-29 10:37:44.657480
3017  2023-11-29 10:37:44.688429
3018  2023-11-29 10:37:44.737297
3019  2023-11-29 10:37:44.784174
3020  2023-11-29 10:37:44.816098
3021  2023-11-29 10:37:44.860990
3022  2023-11-29 10:37:44.907810
3023  2023-11-29 10:37:44.938853
3024  2023-11-29 10:37:44.986725
3025  2023-11-29 10:37:45.035732
3026  2023-11-29 10:37:45.065638
3027  2023-11-29 10:37:45.112547
3028  2023-11-29 10:37:45.160385
3029  2023-11-29 10:37:45.191302
3030  2023-11-29 10:37:45.238211
3031  2023-11-29 10:37:45.284096
3032  2023-11-29 10:37:45.315010
3033  2023-11-29 10:37:45.361960
3034  2023-11-29 10:37:45.408835
3035  2023-11-29 10:37:45.439734
3036  2023-11-29 10:37:45.487613
3037  2023-11-29 10:37:45.535501
3038  2023-11-29 10:37:45.566395
3039  2023-11-29 10:37:45.613281
3040  2023-11-29 10:37:45.660155
3041  2023-11-29 10:37:45.692057
3042  2023-11-29 10:37:45.740928
3043  2023-11-29 10:37:45.785775
3044  2023-11-29 10:37:45.816693
3045  2023-11-29 10:37:45.863567
3046  2023-11-29 10:37:45.909478
3047  2023-11-29 10:37:45.941389
3048  2023-11-29 10:37:45.989334
3049  2023-11-29 10:37:46.021511
3050  2023-11-29 10:37:46.069238
3051  2023-11-29 10:37:46.117105
3052  2023-11-29 10:37:46.149029
3053  2023-11-29 10:37:46.196146
3054  2023-11-29 10:37:46.241950
3055  2023-11-29 10:37:46.272867
3056  2023-11-29 10:37:46.319825
3057  2023-11-29 10:37:46.367706
3058  2023-11-29 10:37:46.400642
3059  2023-11-29 10:37:46.446609
3060  2023-11-29 10:37:46.493502
3061  2023-11-29 10:37:46.525417
3062  2023-11-29 10:37:46.574268
3063  2023-11-29 10:37:46.606154
3064  2023-11-29 10:37:46.654058
3065  2023-11-29 10:37:46.699945
3066  2023-11-29 10:37:46.731847
3067  2023-11-29 10:37:46.779728
3068  2023-11-29 10:37:46.825566
3069  2023-11-29 10:37:46.859506
3070  2023-11-29 10:37:46.903391
3071  2023-11-29 10:37:46.951355
3072  2023-11-29 10:37:46.983273
3073  2023-11-29 10:37:47.031145
3074  2023-11-29 10:37:47.077055
3075  2023-11-29 10:37:47.108973
3076  2023-11-29 10:37:47.156809
3077  2023-11-29 10:37:47.188770
3078  2023-11-29 10:37:47.236625
3079  2023-11-29 10:37:47.284500
3080  2023-11-29 10:37:47.316382
3081  2023-11-29 10:37:47.363291
3082  2023-11-29 10:37:47.410391
3083  2023-11-29 10:37:47.441265
3084  2023-11-29 10:37:47.489336
3085  2023-11-29 10:37:47.536292
3086  2023-11-29 10:37:47.568204
3087  2023-11-29 10:37:47.615076
3088  2023-11-29 10:37:47.646979
3089  2023-11-29 10:37:47.693820
3090  2023-11-29 10:37:47.740730
3091  2023-11-29 10:37:47.772676
3092  2023-11-29 10:37:47.820591
3093  2023-11-29 10:37:47.868506
3094  2023-11-29 10:37:47.899381
3095  2023-11-29 10:37:47.948284
3096  2023-11-29 10:37:47.994239
3097  2023-11-29 10:37:48.026149
3098  2023-11-29 10:37:48.075017
3099  2023-11-29 10:37:48.106933
3100  2023-11-29 10:37:48.154772
3101  2023-11-29 10:37:48.202694
3102  2023-11-29 10:37:48.234589
3103  2023-11-29 10:37:48.282454
3104  2023-11-29 10:37:48.314377
3105  2023-11-29 10:37:48.362271
3106  2023-11-29 10:37:48.410089
3107  2023-11-29 10:37:48.440038
3108  2023-11-29 10:37:48.487155
3109  2023-11-29 10:37:48.534094
3110  2023-11-29 10:37:48.566076
3111  2023-11-29 10:37:48.614071
3112  2023-11-29 10:37:48.659793
3113  2023-11-29 10:37:48.691708
3114  2023-11-29 10:37:48.739610
3115  2023-11-29 10:37:48.771525
3116  2023-11-29 10:37:48.819398
3117  2023-11-29 10:37:48.867269
3118  2023-11-29 10:37:48.898190
3119  2023-11-29 10:37:48.946060
3120  2023-11-29 10:37:48.993933
3121  2023-11-29 10:37:49.025815
3122  2023-11-29 10:37:49.073721
3123  2023-11-29 10:37:49.104638
3124  2023-11-29 10:37:49.151511
3125  2023-11-29 10:37:49.197389
3126  2023-11-29 10:37:49.245270
3127  2023-11-29 10:37:49.276178
3128  2023-11-29 10:37:49.324050
3129  2023-11-29 10:37:49.355964
3130  2023-11-29 10:37:49.401843
3131  2023-11-29 10:37:49.449683
3132  2023-11-29 10:37:49.479635
3133  2023-11-29 10:37:49.529555
3134  2023-11-29 10:37:49.575429
3135  2023-11-29 10:37:49.607468
3136  2023-11-29 10:37:49.655185
3137  2023-11-29 10:37:49.703090
3138  2023-11-29 10:37:49.735005
3139  2023-11-29 10:37:49.781846
3140  2023-11-29 10:37:49.827723
3141  2023-11-29 10:37:49.858641
3142  2023-11-29 10:37:49.906545
3143  2023-11-29 10:37:49.938462
3144  2023-11-29 10:37:49.985336
3145  2023-11-29 10:37:50.033208
3146  2023-11-29 10:37:50.065122
3147  2023-11-29 10:37:50.111998
3148  2023-11-29 10:37:50.158872
3149  2023-11-29 10:37:50.188792
3150  2023-11-29 10:37:50.236662
3151  2023-11-29 10:37:50.284502
3152  2023-11-29 10:37:50.316452
3153  2023-11-29 10:37:50.364333
3154  2023-11-29 10:37:50.411196
3155  2023-11-29 10:37:50.442116
3156  2023-11-29 10:37:50.488957
3157  2023-11-29 10:37:50.536859
3158  2023-11-29 10:37:50.568774
3159  2023-11-29 10:37:50.616647
3160  2023-11-29 10:37:50.648561
3161  2023-11-29 10:37:50.696441
3162  2023-11-29 10:37:50.742311
3163  2023-11-29 10:37:50.773333
3164  2023-11-29 10:37:50.821173
3165  2023-11-29 10:37:50.869077
3166  2023-11-29 10:37:50.899996
3167  2023-11-29 10:37:50.946869
3168  2023-11-29 10:37:50.994709
3169  2023-11-29 10:37:51.026624
3170  2023-11-29 10:37:51.074497
3171  2023-11-29 10:37:51.106426
3172  2023-11-29 10:37:51.154283
3173  2023-11-29 10:37:51.202184
3174  2023-11-29 10:37:51.234104
3175  2023-11-29 10:37:51.281974
3176  2023-11-29 10:37:51.327820
3177  2023-11-29 10:37:51.358770
3178  2023-11-29 10:37:51.405649
3179  2023-11-29 10:37:51.453515
3180  2023-11-29 10:37:51.485438
3181  2023-11-29 10:37:51.533271
3182  2023-11-29 10:37:51.565184
3183  2023-11-29 10:37:51.613084
3184  2023-11-29 10:37:51.661092
3185  2023-11-29 10:37:51.693156
3186  2023-11-29 10:37:51.740879
3187  2023-11-29 10:37:51.772795
3188  2023-11-29 10:37:51.820664
3189  2023-11-29 10:37:51.868537
3190  2023-11-29 10:37:51.900452
3191  2023-11-29 10:37:51.948320
3192  2023-11-29 10:37:51.980238
3193  2023-11-29 10:37:52.026117
3194  2023-11-29 10:37:52.074008
3195  2023-11-29 10:37:52.105908
3196  2023-11-29 10:37:52.151793
3197  2023-11-29 10:37:52.199619
3198  2023-11-29 10:37:52.231564
3199  2023-11-29 10:37:52.277445
3200  2023-11-29 10:37:52.325394
3201  2023-11-29 10:37:52.356952
3202  2023-11-29 10:37:52.403788
3203  2023-11-29 10:37:52.450573
3204  2023-11-29 10:37:52.482488
3205  2023-11-29 10:37:52.530469
3206  2023-11-29 10:37:52.578370
3207  2023-11-29 10:37:52.610291
3208  2023-11-29 10:37:52.658232
3209  2023-11-29 10:37:52.690146
3210  2023-11-29 10:37:52.738054
3211  2023-11-29 10:37:52.785937
3212  2023-11-29 10:37:52.817844
3213  2023-11-29 10:37:52.865803
3214  2023-11-29 10:37:52.897688
3215  2023-11-29 10:37:52.945727
3216  2023-11-29 10:37:52.993477
3217  2023-11-29 10:37:53.025392
3218  2023-11-29 10:37:53.073308
3219  2023-11-29 10:37:53.120139
3220  2023-11-29 10:37:53.151088
3221  2023-11-29 10:37:53.198889
3222  2023-11-29 10:37:53.230867
3223  2023-11-29 10:37:53.278864
3224  2023-11-29 10:37:53.326704
3225  2023-11-29 10:37:53.358619
3226  2023-11-29 10:37:53.406523
3227  2023-11-29 10:37:53.453406
3228  2023-11-29 10:37:53.484317
3229  2023-11-29 10:37:53.533197
3230  2023-11-29 10:37:53.563072
3231  2023-11-29 10:37:53.610977
3232  2023-11-29 10:37:53.658848
3233  2023-11-29 10:37:53.690921
3234  2023-11-29 10:37:53.736800
3235  2023-11-29 10:37:53.784677
3236  2023-11-29 10:37:53.816580
3237  2023-11-29 10:37:53.864471
3238  2023-11-29 10:37:53.911325
3239  2023-11-29 10:37:53.942260
3240  2023-11-29 10:37:53.989810
3241  2023-11-29 10:37:54.021833
3242  2023-11-29 10:37:54.069882
3243  2023-11-29 10:37:54.117584
3244  2023-11-29 10:37:54.149492
3245  2023-11-29 10:37:54.197362
3246  2023-11-29 10:37:54.244249
3247  2023-11-29 10:37:54.278144
3248  2023-11-29 10:37:54.323485
3249  2023-11-29 10:37:54.355400
3250  2023-11-29 10:37:54.403302
3251  2023-11-29 10:37:54.451178
3252  2023-11-29 10:37:54.482097
3253  2023-11-29 10:37:54.528968
3254  2023-11-29 10:37:54.574845
3255  2023-11-29 10:37:54.605784
3256  2023-11-29 10:37:54.652636
3257  2023-11-29 10:37:54.700512
3258  2023-11-29 10:37:54.732426
3259  2023-11-29 10:37:54.779301
3260  2023-11-29 10:37:54.826143
3261  2023-11-29 10:37:54.858087
3262  2023-11-29 10:37:54.906085
3263  2023-11-29 10:37:54.951965
3264  2023-11-29 10:37:54.983887
3265  2023-11-29 10:37:55.031842
3266  2023-11-29 10:37:55.063853
3267  2023-11-29 10:37:55.111739
3268  2023-11-29 10:37:55.159558
3269  2023-11-29 10:37:55.191504
3270  2023-11-29 10:37:55.239383
3271  2023-11-29 10:37:55.287253
3272  2023-11-29 10:37:55.317171
3273  2023-11-29 10:37:55.365043
3274  2023-11-29 10:37:55.409922
3275  2023-11-29 10:37:55.441835
3276  2023-11-29 10:37:55.488678
3277  2023-11-29 10:37:55.534590
3278  2023-11-29 10:37:55.566471
3279  2023-11-29 10:37:55.614374
3280  2023-11-29 10:37:55.646302
3281  2023-11-29 10:37:55.694129
3282  2023-11-29 10:37:55.742038
3283  2023-11-29 10:37:55.773129
3284  2023-11-29 10:37:55.819642
3285  2023-11-29 10:37:55.866490
3286  2023-11-29 10:37:55.899452
3287  2023-11-29 10:37:55.946359
3288  2023-11-29 10:37:55.994226
3289  2023-11-29 10:37:56.026144
3290  2023-11-29 10:37:56.074986
3291  2023-11-29 10:37:56.105946
3292  2023-11-29 10:37:56.153799
3293  2023-11-29 10:37:56.201676
3294  2023-11-29 10:37:56.233589
3295  2023-11-29 10:37:56.281458
3296  2023-11-29 10:37:56.313375
3297  2023-11-29 10:37:56.360252
3298  2023-11-29 10:37:56.407146
3299  2023-11-29 10:37:56.439043
3300  2023-11-29 10:37:56.486939
3301  2023-11-29 10:37:56.534907
3302  2023-11-29 10:37:56.566801
3303  2023-11-29 10:37:56.615640
3304  2023-11-29 10:37:56.660544
3305  2023-11-29 10:37:56.694521
3306  2023-11-29 10:37:56.740397
3307  2023-11-29 10:37:56.773300
3308  2023-11-29 10:37:56.820326
3309  2023-11-29 10:37:56.868200
3310  2023-11-29 10:37:56.900115
3311  2023-11-29 10:37:56.948042
3312  2023-11-29 10:37:56.993921
3313  2023-11-29 10:37:57.025800
3314  2023-11-29 10:37:57.072675
3315  2023-11-29 10:37:57.119553
3316  2023-11-29 10:37:57.151464
3317  2023-11-29 10:37:57.197388
3318  2023-11-29 10:37:57.244295
3319  2023-11-29 10:37:57.277204
3320  2023-11-29 10:37:57.324077
3321  2023-11-29 10:37:57.355962
3322  2023-11-29 10:37:57.401893
3323  2023-11-29 10:37:57.449748
3324  2023-11-29 10:37:57.481660
3325  2023-11-29 10:37:57.529530
3326  2023-11-29 10:37:57.577407
3327  2023-11-29 10:37:57.609470
3328  2023-11-29 10:37:57.656192
3329  2023-11-29 10:37:57.703078
3330  2023-11-29 10:37:57.734982
3331  2023-11-29 10:37:57.782579
3332  2023-11-29 10:37:57.814617
3333  2023-11-29 10:37:57.862451
3334  2023-11-29 10:37:57.910358
3335  2023-11-29 10:37:57.942242
3336  2023-11-29 10:37:57.989754
3337  2023-11-29 10:37:58.021696
3338  2023-11-29 10:37:58.069215
3339  2023-11-29 10:37:58.117206
3340  2023-11-29 10:37:58.149204
3341  2023-11-29 10:37:58.197009
3342  2023-11-29 10:37:58.243858
3343  2023-11-29 10:37:58.275768
3344  2023-11-29 10:37:58.322641
3345  2023-11-29 10:37:58.371551
3346  2023-11-29 10:37:58.400467
3347  2023-11-29 10:37:58.447341
3348  2023-11-29 10:37:58.494182
3349  2023-11-29 10:37:58.525100
3350  2023-11-29 10:37:58.572012
3351  2023-11-29 10:37:58.617890
3352  2023-11-29 10:37:58.649805
3353  2023-11-29 10:37:58.696055
3354  2023-11-29 10:37:58.743974
3355  2023-11-29 10:37:58.775964
3356  2023-11-29 10:37:58.823266
3357  2023-11-29 10:37:58.855181
3358  2023-11-29 10:37:58.903127
3359  2023-11-29 10:37:58.951009
3360  2023-11-29 10:37:58.982920
3361  2023-11-29 10:37:59.030792
3362  2023-11-29 10:37:59.078742
3363  2023-11-29 10:37:59.109790
3364  2023-11-29 10:37:59.156671
3365  2023-11-29 10:37:59.188672
3366  2023-11-29 10:37:59.237436
3367  2023-11-29 10:37:59.284313
3368  2023-11-29 10:37:59.316196
3369  2023-11-29 10:37:59.364103
3370  2023-11-29 10:37:59.410540
3371  2023-11-29 10:37:59.442476
3372  2023-11-29 10:37:59.490406
3373  2023-11-29 10:37:59.522355
3374  2023-11-29 10:37:59.570236
3375  2023-11-29 10:37:59.618070
3376  2023-11-29 10:37:59.650072
3377  2023-11-29 10:37:59.694955
3378  2023-11-29 10:37:59.740834
3379  2023-11-29 10:37:59.771761
3380  2023-11-29 10:37:59.819663
3381  2023-11-29 10:37:59.866497
3382  2023-11-29 10:37:59.899454
3383  2023-11-29 10:37:59.946283
3384  2023-11-29 10:37:59.994057
3385  2023-11-29 10:38:00.026005
3386  2023-11-29 10:38:00.075035
3387  2023-11-29 10:38:00.105952
3388  2023-11-29 10:38:00.153866
3389  2023-11-29 10:38:00.201785
3390  2023-11-29 10:38:00.233695
3391  2023-11-29 10:38:00.280571
3392  2023-11-29 10:38:00.326455
3393  2023-11-29 10:38:00.357373
3394  2023-11-29 10:38:00.405236
3395  2023-11-29 10:38:00.451217
3396  2023-11-29 10:38:00.484138
3397  2023-11-29 10:38:00.531110
3398  2023-11-29 10:38:00.563022
3399  2023-11-29 10:38:00.610956
3400  2023-11-29 10:38:00.658366
3401  2023-11-29 10:38:00.690359
3402  2023-11-29 10:38:00.738392
3403  2023-11-29 10:38:00.787371
3404  2023-11-29 10:38:00.818291
3405  2023-11-29 10:38:00.866111
3406  2023-11-29 10:38:00.898013
3407  2023-11-29 10:38:00.948087
3408  2023-11-29 10:38:00.994964
3409  2023-11-29 10:38:01.026885
3410  2023-11-29 10:38:01.073185
3411  2023-11-29 10:38:01.118075
3412  2023-11-29 10:38:01.149106
3413  2023-11-29 10:38:01.196067
3414  2023-11-29 10:38:01.243669
3415  2023-11-29 10:38:01.275675
3416  2023-11-29 10:38:01.321556
3417  2023-11-29 10:38:01.369523
3418  2023-11-29 10:38:01.401437
3419  2023-11-29 10:38:01.449391
3420  2023-11-29 10:38:01.481319
3421  2023-11-29 10:38:01.529196
3422  2023-11-29 10:38:01.575104
3423  2023-11-29 10:38:01.607020
3424  2023-11-29 10:38:01.653897
3425  2023-11-29 10:38:01.700775
3426  2023-11-29 10:38:01.731688
3427  2023-11-29 10:38:01.778562
3428  2023-11-29 10:38:01.826434
3429  2023-11-29 10:38:01.858367
3430  2023-11-29 10:38:01.908217
3431  2023-11-29 10:38:01.939135
3432  2023-11-29 10:38:01.986019
3433  2023-11-29 10:38:02.034877
3434  2023-11-29 10:38:02.066797
3435  2023-11-29 10:38:02.112375
3436  2023-11-29 10:38:02.160295
3437  2023-11-29 10:38:02.192207
3438  2023-11-29 10:38:02.240088
3439  2023-11-29 10:38:02.285924
3440  2023-11-29 10:38:02.316842
3441  2023-11-29 10:38:02.364713
3442  2023-11-29 10:38:02.396629
3443  2023-11-29 10:38:02.445498
3444  2023-11-29 10:38:02.492372
3445  2023-11-29 10:38:02.524181
3446  2023-11-29 10:38:02.570232
3447  2023-11-29 10:38:02.616145
3448  2023-11-29 10:38:02.648111
3449  2023-11-29 10:38:02.694300
3450  2023-11-29 10:38:02.742372
3451  2023-11-29 10:38:02.773799
3452  2023-11-29 10:38:02.821677
3453  2023-11-29 10:38:02.869548
3454  2023-11-29 10:38:02.901535
3455  2023-11-29 10:38:02.949452
3456  2023-11-29 10:38:02.980816
3457  2023-11-29 10:38:03.028759
3458  2023-11-29 10:38:03.076632
3459  2023-11-29 10:38:03.107514
3460  2023-11-29 10:38:03.154422
3461  2023-11-29 10:38:03.201461
3462  2023-11-29 10:38:03.233399
3463  2023-11-29 10:38:03.280448
3464  2023-11-29 10:38:03.327512
3465  2023-11-29 10:38:03.359396
3466  2023-11-29 10:38:03.404317
3467  2023-11-29 10:38:03.452179
3468  2023-11-29 10:38:03.484092
3469  2023-11-29 10:38:03.532010
3470  2023-11-29 10:38:03.562912
3471  2023-11-29 10:38:03.609787
3472  2023-11-29 10:38:03.657659
3473  2023-11-29 10:38:03.689738
3474  2023-11-29 10:38:03.737108
3475  2023-11-29 10:38:03.785022
3476  2023-11-29 10:38:03.816932
3477  2023-11-29 10:38:03.864840
3478  2023-11-29 10:38:03.911685
3479  2023-11-29 10:38:03.942628
3480  2023-11-29 10:38:03.990233
3481  2023-11-29 10:38:04.022245
3482  2023-11-29 10:38:04.070197
3483  2023-11-29 10:38:04.118078
3484  2023-11-29 10:38:04.149953
3485  2023-11-29 10:38:04.195873
3486  2023-11-29 10:38:04.242740
3487  2023-11-29 10:38:04.274619
3488  2023-11-29 10:38:04.320497
3489  2023-11-29 10:38:04.369410
3490  2023-11-29 10:38:04.399331
3491  2023-11-29 10:38:04.447236
3492  2023-11-29 10:38:04.494261
3493  2023-11-29 10:38:04.524033
3494  2023-11-29 10:38:04.571945
3495  2023-11-29 10:38:04.617860
3496  2023-11-29 10:38:04.648774
3497  2023-11-29 10:38:04.695724
3498  2023-11-29 10:38:04.743401
3499  2023-11-29 10:38:04.775323
3500  2023-11-29 10:38:04.823194
3501  2023-11-29 10:38:04.855180
3502  2023-11-29 10:38:04.903020
3503  2023-11-29 10:38:04.950927
3504  2023-11-29 10:38:04.982872
3505  2023-11-29 10:38:05.030728
3506  2023-11-29 10:38:05.077588
3507  2023-11-29 10:38:05.108505
3508  2023-11-29 10:38:05.155457
3509  2023-11-29 10:38:05.202420
3510  2023-11-29 10:38:05.234336
3511  2023-11-29 10:38:05.282235
3512  2023-11-29 10:38:05.314242
3513  2023-11-29 10:38:05.362119
3514  2023-11-29 10:38:05.409985
3515  2023-11-29 10:38:05.441869
3516  2023-11-29 10:38:05.489775
3517  2023-11-29 10:38:05.521689
3518  2023-11-29 10:38:05.569565
3519  2023-11-29 10:38:05.617457
3520  2023-11-29 10:38:05.648348
3521  2023-11-29 10:38:05.696225
3522  2023-11-29 10:38:05.743068
3523  2023-11-29 10:38:05.776016
3524  2023-11-29 10:38:05.823880
3525  2023-11-29 10:38:05.869771
3526  2023-11-29 10:38:05.901678
3527  2023-11-29 10:38:05.949561
3528  2023-11-29 10:38:05.981427
3529  2023-11-29 10:38:06.029331
3530  2023-11-29 10:38:06.079170
3531  2023-11-29 10:38:06.107123
3532  2023-11-29 10:38:06.154003
3533  2023-11-29 10:38:06.201837
3534  2023-11-29 10:38:06.233752
3535  2023-11-29 10:38:06.280710
3536  2023-11-29 10:38:06.327585
3537  2023-11-29 10:38:06.359499
3538  2023-11-29 10:38:06.407272
3539  2023-11-29 10:38:06.439184
3540  2023-11-29 10:38:06.487194
3541  2023-11-29 10:38:06.535027
3542  2023-11-29 10:38:06.566942
3543  2023-11-29 10:38:06.613818
3544  2023-11-29 10:38:06.660725
3545  2023-11-29 10:38:06.692641
3546  2023-11-29 10:38:06.740023
3547  2023-11-29 10:38:06.771937
3548  2023-11-29 10:38:06.819925
3549  2023-11-29 10:38:06.865801
3550  2023-11-29 10:38:06.897714
3551  2023-11-29 10:38:06.945585
3552  2023-11-29 10:38:06.992462
3553  2023-11-29 10:38:07.022379
3554  2023-11-29 10:38:07.070218
3555  2023-11-29 10:38:07.119122
3556  2023-11-29 10:38:07.149040
3557  2023-11-29 10:38:07.192890
3558  2023-11-29 10:38:07.238803
3559  2023-11-29 10:38:07.285880
3560  2023-11-29 10:38:07.317793
3561  2023-11-29 10:38:07.365629
