
1  2023-11-09 11:14:15.109742
2  2023-11-09 11:14:15.155615
3  2023-11-09 11:14:15.187610
4  2023-11-09 11:14:15.235483
5  2023-11-09 11:14:15.281790
6  2023-11-09 11:14:15.312915
7  2023-11-09 11:14:15.360832
8  2023-11-09 11:14:15.392781
9  2023-11-09 11:14:15.440695
10  2023-11-09 11:14:15.488543
11  2023-11-09 11:14:15.520492
12  2023-11-09 11:14:15.568330
13  2023-11-09 11:14:15.615236
14  2023-11-09 11:14:15.646260
15  2023-11-09 11:14:15.694131
16  2023-11-09 11:14:15.740009
17  2023-11-09 11:14:15.771924
18  2023-11-09 11:14:15.819796
19  2023-11-09 11:14:15.851710
20  2023-11-09 11:14:15.897679
21  2023-11-09 11:14:15.944597
22  2023-11-09 11:14:15.975530
23  2023-11-09 11:14:16.023387
24  2023-11-09 11:14:16.071260
25  2023-11-09 11:14:16.103174
26  2023-11-09 11:14:16.149138
27  2023-11-09 11:14:16.196178
28  2023-11-09 11:14:16.226069
29  2023-11-09 11:14:16.272948
30  2023-11-09 11:14:16.320904
31  2023-11-09 11:14:16.352819
32  2023-11-09 11:14:16.400716
33  2023-11-09 11:14:16.448598
34  2023-11-09 11:14:16.480477
35  2023-11-09 11:14:16.528470
36  2023-11-09 11:14:16.560384
37  2023-11-09 11:14:16.608262
38  2023-11-09 11:14:16.656299
39  2023-11-09 11:14:16.688182
40  2023-11-09 11:14:16.736054
41  2023-11-09 11:14:16.768055
42  2023-11-09 11:14:16.815979
43  2023-11-09 11:14:16.863894
44  2023-11-09 11:14:16.895800
45  2023-11-09 11:14:16.943672
46  2023-11-09 11:14:16.990554
47  2023-11-09 11:14:17.021472
48  2023-11-09 11:14:17.069302
49  2023-11-09 11:14:17.115179
50  2023-11-09 11:14:17.146097
51  2023-11-09 11:14:17.192971
52  2023-11-09 11:14:17.240886
53  2023-11-09 11:14:17.272758
54  2023-11-09 11:14:17.320630
55  2023-11-09 11:14:17.352544
56  2023-11-09 11:14:17.400459
57  2023-11-09 11:14:17.447291
58  2023-11-09 11:14:17.477211
59  2023-11-09 11:14:17.524086
60  2023-11-09 11:14:17.571999
61  2023-11-09 11:14:17.603910
62  2023-11-09 11:14:17.651745
63  2023-11-09 11:14:17.698621
64  2023-11-09 11:14:17.729308
65  2023-11-09 11:14:17.776182
66  2023-11-09 11:14:17.824114
67  2023-11-09 11:14:17.855002
68  2023-11-09 11:14:17.901847
69  2023-11-09 11:14:17.933762
70  2023-11-09 11:14:17.980681
71  2023-11-09 11:14:18.027624
72  2023-11-09 11:14:18.073388
73  2023-11-09 11:14:18.105303
74  2023-11-09 11:14:18.153174
75  2023-11-09 11:14:18.198054
76  2023-11-09 11:14:18.229012
77  2023-11-09 11:14:18.276627
78  2023-11-09 11:14:18.323501
79  2023-11-09 11:14:18.353555
80  2023-11-09 11:14:18.400348
81  2023-11-09 11:14:18.447261
82  2023-11-09 11:14:18.478263
83  2023-11-09 11:14:18.526130
84  2023-11-09 11:14:18.573957
85  2023-11-09 11:14:18.605902
86  2023-11-09 11:14:18.653824
87  2023-11-09 11:14:18.685688
88  2023-11-09 11:14:18.733560
89  2023-11-09 11:14:18.780115
90  2023-11-09 11:14:18.812159
91  2023-11-09 11:14:18.859915
92  2023-11-09 11:14:18.906791
93  2023-11-09 11:14:18.938142
94  2023-11-09 11:14:18.986049
95  2023-11-09 11:14:19.017928
96  2023-11-09 11:14:19.065800
97  2023-11-09 11:14:19.113813
98  2023-11-09 11:14:19.145587
99  2023-11-09 11:14:19.193459
100  2023-11-09 11:14:19.225374
101  2023-11-09 11:14:19.272815
102  2023-11-09 11:14:19.320753
103  2023-11-09 11:14:19.352763
104  2023-11-09 11:14:19.399638
105  2023-11-09 11:14:19.445515
106  2023-11-09 11:14:19.476465
107  2023-11-09 11:14:19.524304
108  2023-11-09 11:14:19.571038
109  2023-11-09 11:14:19.601749
110  2023-11-09 11:14:19.649583
111  2023-11-09 11:14:19.697456
112  2023-11-09 11:14:19.728301
113  2023-11-09 11:14:19.775284
114  2023-11-09 11:14:19.823156
115  2023-11-09 11:14:19.855071
116  2023-11-09 11:14:19.902990
117  2023-11-09 11:14:19.934891
118  2023-11-09 11:14:19.982766
119  2023-11-09 11:14:20.030650
120  2023-11-09 11:14:20.062549
121  2023-11-09 11:14:20.110425
122  2023-11-09 11:14:20.142391
123  2023-11-09 11:14:20.190308
124  2023-11-09 11:14:20.238214
125  2023-11-09 11:14:20.270121
126  2023-11-09 11:14:20.316963
127  2023-11-09 11:14:20.364408
128  2023-11-09 11:14:20.394504
129  2023-11-09 11:14:20.442200
130  2023-11-09 11:14:20.490115
131  2023-11-09 11:14:20.522021
132  2023-11-09 11:14:20.568055
133  2023-11-09 11:14:20.615877
134  2023-11-09 11:14:20.645923
135  2023-11-09 11:14:20.692846
136  2023-11-09 11:14:20.740718
137  2023-11-09 11:14:20.772626
138  2023-11-09 11:14:20.820456
139  2023-11-09 11:14:20.852484
140  2023-11-09 11:14:20.900389
141  2023-11-09 11:14:20.948229
142  2023-11-09 11:14:20.979176
143  2023-11-09 11:14:21.025865
144  2023-11-09 11:14:21.073788
145  2023-11-09 11:14:21.105669
146  2023-11-09 11:14:21.152951
147  2023-11-09 11:14:21.184866
148  2023-11-09 11:14:21.231740
149  2023-11-09 11:14:21.278651
150  2023-11-09 11:14:21.310631
151  2023-11-09 11:14:21.358008
152  2023-11-09 11:14:21.405881
153  2023-11-09 11:14:21.437795
154  2023-11-09 11:14:21.484699
155  2023-11-09 11:14:21.532542
156  2023-11-09 11:14:21.564456
157  2023-11-09 11:14:21.612383
158  2023-11-09 11:14:21.644279
159  2023-11-09 11:14:21.690120
160  2023-11-09 11:14:21.738034
161  2023-11-09 11:14:21.769955
162  2023-11-09 11:14:21.817813
163  2023-11-09 11:14:21.864679
164  2023-11-09 11:14:21.896690
165  2023-11-09 11:14:21.944480
166  2023-11-09 11:14:21.976357
167  2023-11-09 11:14:22.022543
168  2023-11-09 11:14:22.070564
169  2023-11-09 11:14:22.102477
170  2023-11-09 11:14:22.150304
171  2023-11-09 11:14:22.196213
172  2023-11-09 11:14:22.228143
173  2023-11-09 11:14:22.275968
174  2023-11-09 11:14:22.323980
175  2023-11-09 11:14:22.363286
176  2023-11-09 11:14:22.403390
177  2023-11-09 11:14:22.435274
178  2023-11-09 11:14:22.483146
179  2023-11-09 11:14:22.531024
180  2023-11-09 11:14:22.562933
181  2023-11-09 11:14:22.610870
182  2023-11-09 11:14:22.642855
183  2023-11-09 11:14:22.688628
184  2023-11-09 11:14:22.736502
185  2023-11-09 11:14:22.768422
186  2023-11-09 11:14:22.816287
187  2023-11-09 11:14:22.864196
188  2023-11-09 11:14:22.896131
189  2023-11-09 11:14:22.943986
190  2023-11-09 11:14:22.990105
191  2023-11-09 11:14:23.022019
192  2023-11-09 11:14:23.069892
193  2023-11-09 11:14:23.114771
194  2023-11-09 11:14:23.145768
195  2023-11-09 11:14:23.191698
196  2023-11-09 11:14:23.239746
197  2023-11-09 11:14:23.271657
198  2023-11-09 11:14:23.319525
199  2023-11-09 11:14:23.351407
200  2023-11-09 11:14:23.399311
201  2023-11-09 11:14:23.446188
202  2023-11-09 11:14:23.477110
203  2023-11-09 11:14:23.524943
204  2023-11-09 11:14:23.572846
205  2023-11-09 11:14:23.604777
206  2023-11-09 11:14:23.652758
207  2023-11-09 11:14:23.684800
208  2023-11-09 11:14:23.732731
209  2023-11-09 11:14:23.780227
210  2023-11-09 11:14:23.812143
211  2023-11-09 11:14:23.858020
212  2023-11-09 11:14:23.903942
213  2023-11-09 11:14:23.935865
214  2023-11-09 11:14:23.981811
215  2023-11-09 11:14:24.029620
216  2023-11-09 11:14:24.061535
217  2023-11-09 11:14:24.109024
218  2023-11-09 11:14:24.156952
219  2023-11-09 11:14:24.188899
220  2023-11-09 11:14:24.233789
221  2023-11-09 11:14:24.280657
222  2023-11-09 11:14:24.312569
223  2023-11-09 11:14:24.360408
224  2023-11-09 11:14:24.392353
225  2023-11-09 11:14:24.440230
226  2023-11-09 11:14:24.488067
227  2023-11-09 11:14:24.520023
228  2023-11-09 11:14:24.567889
229  2023-11-09 11:14:24.614764
230  2023-11-09 11:14:24.646679
231  2023-11-09 11:14:24.694534
232  2023-11-09 11:14:24.725432
233  2023-11-09 11:14:24.772307
234  2023-11-09 11:14:24.820179
235  2023-11-09 11:14:24.852077
236  2023-11-09 11:14:24.899988
237  2023-11-09 11:14:24.947853
238  2023-11-09 11:14:24.979776
239  2023-11-09 11:14:25.027608
240  2023-11-09 11:14:25.059523
241  2023-11-09 11:14:25.107428
242  2023-11-09 11:14:25.155267
243  2023-11-09 11:14:25.187182
244  2023-11-09 11:14:25.234104
245  2023-11-09 11:14:25.281012
246  2023-11-09 11:14:25.312927
247  2023-11-09 11:14:25.360913
248  2023-11-09 11:14:25.392852
249  2023-11-09 11:14:25.438769
250  2023-11-09 11:14:25.486671
251  2023-11-09 11:14:25.532549
252  2023-11-09 11:14:25.564504
253  2023-11-09 11:14:25.612336
254  2023-11-09 11:14:25.644297
255  2023-11-09 11:14:25.692242
256  2023-11-09 11:14:25.740083
257  2023-11-09 11:14:25.772031
258  2023-11-09 11:14:25.820026
259  2023-11-09 11:14:25.851784
260  2023-11-09 11:14:25.899699
261  2023-11-09 11:14:25.947583
262  2023-11-09 11:14:25.979530
263  2023-11-09 11:14:26.027488
264  2023-11-09 11:14:26.059319
265  2023-11-09 11:14:26.106193
266  2023-11-09 11:14:26.153073
267  2023-11-09 11:14:26.184983
268  2023-11-09 11:14:26.232821
269  2023-11-09 11:14:26.278739
270  2023-11-09 11:14:26.310654
271  2023-11-09 11:14:26.358516
272  2023-11-09 11:14:26.405394
273  2023-11-09 11:14:26.437327
274  2023-11-09 11:14:26.484585
275  2023-11-09 11:14:26.532450
276  2023-11-09 11:14:26.564522
277  2023-11-09 11:14:26.612375
278  2023-11-09 11:14:26.644293
279  2023-11-09 11:14:26.690467
280  2023-11-09 11:14:26.738399
281  2023-11-09 11:14:26.770347
282  2023-11-09 11:14:26.818222
283  2023-11-09 11:14:26.864256
284  2023-11-09 11:14:26.896100
285  2023-11-09 11:14:26.943926
286  2023-11-09 11:14:26.990810
287  2023-11-09 11:14:27.021811
288  2023-11-09 11:14:27.069636
289  2023-11-09 11:14:27.101603
290  2023-11-09 11:14:27.149472
291  2023-11-09 11:14:27.196347
292  2023-11-09 11:14:27.227264
293  2023-11-09 11:14:27.275136
294  2023-11-09 11:14:27.321055
295  2023-11-09 11:14:27.352958
296  2023-11-09 11:14:27.400800
297  2023-11-09 11:14:27.448705
298  2023-11-09 11:14:27.480623
299  2023-11-09 11:14:27.528494
300  2023-11-09 11:14:27.560421
301  2023-11-09 11:14:27.608278
302  2023-11-09 11:14:27.656150
303  2023-11-09 11:14:27.688064
304  2023-11-09 11:14:27.735947
305  2023-11-09 11:14:27.781815
306  2023-11-09 11:14:27.813731
307  2023-11-09 11:14:27.861568
308  2023-11-09 11:14:27.893483
309  2023-11-09 11:14:27.941392
310  2023-11-09 11:14:27.989266
311  2023-11-09 11:14:28.021141
312  2023-11-09 11:14:28.069050
313  2023-11-09 11:14:28.100962
314  2023-11-09 11:14:28.147804
315  2023-11-09 11:14:28.195675
316  2023-11-09 11:14:28.227590
317  2023-11-09 11:14:28.274475
318  2023-11-09 11:14:28.322336
319  2023-11-09 11:14:28.354251
320  2023-11-09 11:14:28.402151
321  2023-11-09 11:14:28.434151
322  2023-11-09 11:14:28.481962
323  2023-11-09 11:14:28.529834
324  2023-11-09 11:14:28.561749
325  2023-11-09 11:14:28.609654
326  2023-11-09 11:14:28.657493
327  2023-11-09 11:14:28.687729
328  2023-11-09 11:14:28.735636
329  2023-11-09 11:14:28.768648
330  2023-11-09 11:14:28.815522
331  2023-11-09 11:14:28.862398
332  2023-11-09 11:14:28.893354
333  2023-11-09 11:14:28.941187
334  2023-11-09 11:14:28.989146
335  2023-11-09 11:14:29.021072
336  2023-11-09 11:14:29.068994
337  2023-11-09 11:14:29.100909
338  2023-11-09 11:14:29.146786
339  2023-11-09 11:14:29.193800
340  2023-11-09 11:14:29.240679
341  2023-11-09 11:14:29.270589
342  2023-11-09 11:14:29.318316
343  2023-11-09 11:14:29.350355
344  2023-11-09 11:14:29.398613
345  2023-11-09 11:14:29.446167
346  2023-11-09 11:14:29.478118
347  2023-11-09 11:14:29.525541
348  2023-11-09 11:14:29.573643
349  2023-11-09 11:14:29.605551
350  2023-11-09 11:14:29.653514
351  2023-11-09 11:14:29.685464
352  2023-11-09 11:14:29.733435
353  2023-11-09 11:14:29.781300
354  2023-11-09 11:14:29.813208
355  2023-11-09 11:14:29.861175
356  2023-11-09 11:14:29.893120
357  2023-11-09 11:14:29.941084
358  2023-11-09 11:14:29.988948
359  2023-11-09 11:14:30.020872
360  2023-11-09 11:14:30.068744
361  2023-11-09 11:14:30.100652
362  2023-11-09 11:14:30.147624
363  2023-11-09 11:14:30.194556
364  2023-11-09 11:14:30.225997
365  2023-11-09 11:14:30.273964
366  2023-11-09 11:14:30.320805
367  2023-11-09 11:14:30.351821
368  2023-11-09 11:14:30.399841
369  2023-11-09 11:14:30.447677
370  2023-11-09 11:14:30.479714
371  2023-11-09 11:14:30.527586
372  2023-11-09 11:14:30.559500
373  2023-11-09 11:14:30.607568
374  2023-11-09 11:14:30.655244
375  2023-11-09 11:14:30.686298
376  2023-11-09 11:14:30.733173
377  2023-11-09 11:14:30.780983
378  2023-11-09 11:14:30.812898
379  2023-11-09 11:14:30.860770
380  2023-11-09 11:14:30.892730
381  2023-11-09 11:14:30.940630
382  2023-11-09 11:14:30.988554
383  2023-11-09 11:14:31.020469
384  2023-11-09 11:14:31.067344
385  2023-11-09 11:14:31.114219
386  2023-11-09 11:14:31.146133
387  2023-11-09 11:14:31.194005
388  2023-11-09 11:14:31.225920
389  2023-11-09 11:14:31.273892
390  2023-11-09 11:14:31.319791
391  2023-11-09 11:14:31.351670
392  2023-11-09 11:14:31.398581
393  2023-11-09 11:14:31.444456
394  2023-11-09 11:14:31.475456
395  2023-11-09 11:14:31.522367
396  2023-11-09 11:14:31.568248
397  2023-11-09 11:14:31.615082
398  2023-11-09 11:14:31.646060
399  2023-11-09 11:14:31.693932
400  2023-11-09 11:14:31.725846
401  2023-11-09 11:14:31.774836
402  2023-11-09 11:14:31.819789
403  2023-11-09 11:14:31.851809
404  2023-11-09 11:14:31.899682
405  2023-11-09 11:14:31.947728
406  2023-11-09 11:14:31.979643
407  2023-11-09 11:14:32.027617
408  2023-11-09 11:14:32.059643
409  2023-11-09 11:14:32.107515
410  2023-11-09 11:14:32.155387
411  2023-11-09 11:14:32.187432
412  2023-11-09 11:14:32.235290
413  2023-11-09 11:14:32.267205
414  2023-11-09 11:14:32.314080
415  2023-11-09 11:14:32.360955
416  2023-11-09 11:14:32.392869
417  2023-11-09 11:14:32.440770
418  2023-11-09 11:14:32.487616
419  2023-11-09 11:14:32.518568
420  2023-11-09 11:14:32.564411
421  2023-11-09 11:14:32.612324
422  2023-11-09 11:14:32.644200
423  2023-11-09 11:14:32.692111
424  2023-11-09 11:14:32.739944
425  2023-11-09 11:14:32.771912
426  2023-11-09 11:14:32.817862
427  2023-11-09 11:14:32.865566
428  2023-11-09 11:14:32.897489
429  2023-11-09 11:14:32.945353
430  2023-11-09 11:14:32.976278
431  2023-11-09 11:14:33.024103
432  2023-11-09 11:14:33.072974
433  2023-11-09 11:14:33.103896
434  2023-11-09 11:14:33.151762
435  2023-11-09 11:14:33.183677
436  2023-11-09 11:14:33.229555
437  2023-11-09 11:14:33.275432
438  2023-11-09 11:14:33.323303
439  2023-11-09 11:14:33.354621
440  2023-11-09 11:14:33.399501
441  2023-11-09 11:14:33.446591
442  2023-11-09 11:14:33.478332
443  2023-11-09 11:14:33.526303
444  2023-11-09 11:14:33.574208
445  2023-11-09 11:14:33.606145
446  2023-11-09 11:14:33.653994
447  2023-11-09 11:14:33.684879
448  2023-11-09 11:14:33.730758
449  2023-11-09 11:14:33.777675
450  2023-11-09 11:14:33.809576
451  2023-11-09 11:14:33.857457
452  2023-11-09 11:14:33.905396
453  2023-11-09 11:14:33.937274
454  2023-11-09 11:14:33.985175
455  2023-11-09 11:14:34.017090
456  2023-11-09 11:14:34.064973
457  2023-11-09 11:14:34.112807
458  2023-11-09 11:14:34.144753
459  2023-11-09 11:14:34.192638
460  2023-11-09 11:14:34.241461
461  2023-11-09 11:14:34.272586
462  2023-11-09 11:14:34.319063
463  2023-11-09 11:14:34.350986
464  2023-11-09 11:14:34.398644
465  2023-11-09 11:14:34.445598
466  2023-11-09 11:14:34.477513
467  2023-11-09 11:14:34.525385
468  2023-11-09 11:14:34.573282
469  2023-11-09 11:14:34.605172
470  2023-11-09 11:14:34.652047
471  2023-11-09 11:14:34.698921
472  2023-11-09 11:14:34.730836
473  2023-11-09 11:14:34.776749
474  2023-11-09 11:14:34.823588
475  2023-11-09 11:14:34.854505
476  2023-11-09 11:14:34.902452
477  2023-11-09 11:14:34.934377
478  2023-11-09 11:14:34.982293
479  2023-11-09 11:14:35.030120
480  2023-11-09 11:14:35.062076
481  2023-11-09 11:14:35.109942
482  2023-11-09 11:14:35.156815
483  2023-11-09 11:14:35.187979
484  2023-11-09 11:14:35.235851
485  2023-11-09 11:14:35.267766
486  2023-11-09 11:14:35.315762
487  2023-11-09 11:14:35.363476
488  2023-11-09 11:14:35.394739
489  2023-11-09 11:14:35.442648
490  2023-11-09 11:14:35.490515
491  2023-11-09 11:14:35.522397
492  2023-11-09 11:14:35.569421
493  2023-11-09 11:14:35.600347
494  2023-11-09 11:14:35.648218
495  2023-11-09 11:14:35.696058
496  2023-11-09 11:14:35.726990
497  2023-11-09 11:14:35.775025
498  2023-11-09 11:14:35.822847
499  2023-11-09 11:14:35.854761
500  2023-11-09 11:14:35.902634
501  2023-11-09 11:14:35.934549
502  2023-11-09 11:14:35.980666
503  2023-11-09 11:14:36.028538
504  2023-11-09 11:14:36.073418
505  2023-11-09 11:14:36.104388
506  2023-11-09 11:14:36.152337
507  2023-11-09 11:14:36.198392
508  2023-11-09 11:14:36.230306
509  2023-11-09 11:14:36.277415
510  2023-11-09 11:14:36.323340
511  2023-11-09 11:14:36.354217
512  2023-11-09 11:14:36.402090
513  2023-11-09 11:14:36.434088
514  2023-11-09 11:14:36.481956
515  2023-11-09 11:14:36.529796
516  2023-11-09 11:14:36.559750
517  2023-11-09 11:14:36.607850
518  2023-11-09 11:14:36.654992
519  2023-11-09 11:14:36.687052
520  2023-11-09 11:14:36.735914
521  2023-11-09 11:14:36.781818
522  2023-11-09 11:14:36.813106
523  2023-11-09 11:14:36.861975
524  2023-11-09 11:14:36.893926
525  2023-11-09 11:14:36.940764
526  2023-11-09 11:14:36.988638
527  2023-11-09 11:14:37.020549
528  2023-11-09 11:14:37.068432
529  2023-11-09 11:14:37.100343
530  2023-11-09 11:14:37.148283
531  2023-11-09 11:14:37.196165
532  2023-11-09 11:14:37.228070
533  2023-11-09 11:14:37.275942
534  2023-11-09 11:14:37.323814
535  2023-11-09 11:14:37.355728
536  2023-11-09 11:14:37.401606
537  2023-11-09 11:14:37.448515
538  2023-11-09 11:14:37.479433
539  2023-11-09 11:14:37.526272
540  2023-11-09 11:14:37.574185
541  2023-11-09 11:14:37.606110
542  2023-11-09 11:14:37.653931
543  2023-11-09 11:14:37.685846
544  2023-11-09 11:14:37.733718
545  2023-11-09 11:14:37.779639
546  2023-11-09 11:14:37.811546
547  2023-11-09 11:14:37.859417
548  2023-11-09 11:14:37.907290
549  2023-11-09 11:14:37.938543
550  2023-11-09 11:14:37.986420
551  2023-11-09 11:14:38.018480
552  2023-11-09 11:14:38.066321
553  2023-11-09 11:14:38.114239
554  2023-11-09 11:14:38.145143
555  2023-11-09 11:14:38.192980
556  2023-11-09 11:14:38.240914
557  2023-11-09 11:14:38.272768
558  2023-11-09 11:14:38.320675
559  2023-11-09 11:14:38.352595
560  2023-11-09 11:14:38.400439
561  2023-11-09 11:14:38.447333
562  2023-11-09 11:14:38.478249
563  2023-11-09 11:14:38.526121
564  2023-11-09 11:14:38.575006
565  2023-11-09 11:14:38.615852
566  2023-11-09 11:14:38.653790
567  2023-11-09 11:14:38.685665
568  2023-11-09 11:14:38.733570
569  2023-11-09 11:14:38.781408
570  2023-11-09 11:14:38.812325
571  2023-11-09 11:14:38.859199
572  2023-11-09 11:14:38.905077
573  2023-11-09 11:14:38.935994
574  2023-11-09 11:14:38.982906
575  2023-11-09 11:14:39.030741
576  2023-11-09 11:14:39.062668
577  2023-11-09 11:14:39.110571
578  2023-11-09 11:14:39.142475
579  2023-11-09 11:14:39.190314
580  2023-11-09 11:14:39.238225
581  2023-11-09 11:14:39.270136
582  2023-11-09 11:14:39.318199
583  2023-11-09 11:14:39.365038
584  2023-11-09 11:14:39.396094
585  2023-11-09 11:14:39.442860
586  2023-11-09 11:14:39.488747
587  2023-11-09 11:14:39.519656
588  2023-11-09 11:14:39.567525
589  2023-11-09 11:14:39.615413
590  2023-11-09 11:14:39.647319
591  2023-11-09 11:14:39.694158
592  2023-11-09 11:14:39.726109
593  2023-11-09 11:14:39.773992
594  2023-11-09 11:14:39.821852
595  2023-11-09 11:14:39.853873
596  2023-11-09 11:14:39.901640
597  2023-11-09 11:14:39.948527
598  2023-11-09 11:14:39.980393
599  2023-11-09 11:14:40.028299
600  2023-11-09 11:14:40.074142
601  2023-11-09 11:14:40.106067
602  2023-11-09 11:14:40.153929
603  2023-11-09 11:14:40.185844
604  2023-11-09 11:14:40.233715
605  2023-11-09 11:14:40.281588
606  2023-11-09 11:14:40.313502
607  2023-11-09 11:14:40.359379
608  2023-11-09 11:14:40.405288
609  2023-11-09 11:14:40.436206
610  2023-11-09 11:14:40.484046
611  2023-11-09 11:14:40.531918
612  2023-11-09 11:14:40.563833
613  2023-11-09 11:14:40.611741
614  2023-11-09 11:14:40.643668
615  2023-11-09 11:14:40.691492
616  2023-11-09 11:14:40.739403
617  2023-11-09 11:14:40.770319
618  2023-11-09 11:14:40.816192
619  2023-11-09 11:14:40.864067
620  2023-11-09 11:14:40.894983
621  2023-11-09 11:14:40.941824
622  2023-11-09 11:14:40.989724
623  2023-11-09 11:14:41.021643
624  2023-11-09 11:14:41.069514
625  2023-11-09 11:14:41.101396
626  2023-11-09 11:14:41.149302
627  2023-11-09 11:14:41.196190
628  2023-11-09 11:14:41.228059
629  2023-11-09 11:14:41.274934
630  2023-11-09 11:14:41.322845
631  2023-11-09 11:14:41.354763
632  2023-11-09 11:14:41.403590
633  2023-11-09 11:14:41.448508
634  2023-11-09 11:14:41.480412
635  2023-11-09 11:14:41.527257
636  2023-11-09 11:14:41.574171
637  2023-11-09 11:14:41.606085
638  2023-11-09 11:14:41.651924
639  2023-11-09 11:14:41.683878
640  2023-11-09 11:14:41.731711
641  2023-11-09 11:14:41.779611
642  2023-11-09 11:14:41.811530
643  2023-11-09 11:14:41.859369
644  2023-11-09 11:14:41.907283
645  2023-11-09 11:14:41.937212
646  2023-11-09 11:14:41.983069
647  2023-11-09 11:14:42.030944
648  2023-11-09 11:14:42.061856
649  2023-11-09 11:14:42.108735
650  2023-11-09 11:14:42.156611
651  2023-11-09 11:14:42.188524
652  2023-11-09 11:14:42.236429
653  2023-11-09 11:14:42.268329
654  2023-11-09 11:14:42.316150
655  2023-11-09 11:14:42.362070
656  2023-11-09 11:14:42.394939
657  2023-11-09 11:14:42.441838
658  2023-11-09 11:14:42.489685
659  2023-11-09 11:14:42.521600
660  2023-11-09 11:14:42.569472
661  2023-11-09 11:14:42.601387
662  2023-11-09 11:14:42.649259
663  2023-11-09 11:14:42.697131
664  2023-11-09 11:14:42.729046
665  2023-11-09 11:14:42.776918
666  2023-11-09 11:14:42.808869
667  2023-11-09 11:14:42.856704
668  2023-11-09 11:14:42.903579
669  2023-11-09 11:14:42.934496
670  2023-11-09 11:14:42.982407
671  2023-11-09 11:14:43.030240
672  2023-11-09 11:14:43.062155
673  2023-11-09 11:14:43.110067
674  2023-11-09 11:14:43.141971
675  2023-11-09 11:14:43.189814
676  2023-11-09 11:14:43.237716
677  2023-11-09 11:14:43.269746
678  2023-11-09 11:14:43.317508
679  2023-11-09 11:14:43.365376
680  2023-11-09 11:14:43.397259
681  2023-11-09 11:14:43.445235
682  2023-11-09 11:14:43.477156
683  2023-11-09 11:14:43.524981
684  2023-11-09 11:14:43.572885
685  2023-11-09 11:14:43.602808
686  2023-11-09 11:14:43.650679
687  2023-11-09 11:14:43.698620
688  2023-11-09 11:14:43.730544
689  2023-11-09 11:14:43.778426
690  2023-11-09 11:14:43.810373
691  2023-11-09 11:14:43.858202
692  2023-11-09 11:14:43.906111
693  2023-11-09 11:14:43.938026
694  2023-11-09 11:14:43.985861
695  2023-11-09 11:14:44.017002
696  2023-11-09 11:14:44.063914
697  2023-11-09 11:14:44.111784
698  2023-11-09 11:14:44.144662
699  2023-11-09 11:14:44.191572
700  2023-11-09 11:14:44.239441
701  2023-11-09 11:14:44.271378
702  2023-11-09 11:14:44.319229
703  2023-11-09 11:14:44.351143
704  2023-11-09 11:14:44.397036
705  2023-11-09 11:14:44.443901
706  2023-11-09 11:14:44.490736
707  2023-11-09 11:14:44.522688
708  2023-11-09 11:14:44.570522
709  2023-11-09 11:14:44.602437
710  2023-11-09 11:14:44.648345
711  2023-11-09 11:14:44.695189
712  2023-11-09 11:14:44.727104
713  2023-11-09 11:14:44.773014
714  2023-11-09 11:14:44.820853
715  2023-11-09 11:14:44.852768
716  2023-11-09 11:14:44.900640
717  2023-11-09 11:14:44.948545
718  2023-11-09 11:14:44.980459
719  2023-11-09 11:14:45.026455
720  2023-11-09 11:14:45.074238
721  2023-11-09 11:14:45.106092
722  2023-11-09 11:14:45.153963
723  2023-11-09 11:14:45.185877
724  2023-11-09 11:14:45.233786
725  2023-11-09 11:14:45.280625
726  2023-11-09 11:14:45.312539
727  2023-11-09 11:14:45.360411
728  2023-11-09 11:14:45.392326
729  2023-11-09 11:14:45.440248
730  2023-11-09 11:14:45.488091
731  2023-11-09 11:14:45.519971
732  2023-11-09 11:14:45.568078
733  2023-11-09 11:14:45.615775
734  2023-11-09 11:14:45.647690
735  2023-11-09 11:14:45.695598
736  2023-11-09 11:14:45.727476
737  2023-11-09 11:14:45.775383
738  2023-11-09 11:14:45.823221
739  2023-11-09 11:14:45.855135
740  2023-11-09 11:14:45.903008
741  2023-11-09 11:14:45.934972
742  2023-11-09 11:14:45.982807
743  2023-11-09 11:14:46.029706
744  2023-11-09 11:14:46.061584
745  2023-11-09 11:14:46.106496
746  2023-11-09 11:14:46.154370
747  2023-11-09 11:14:46.186284
748  2023-11-09 11:14:46.234122
749  2023-11-09 11:14:46.282028
750  2023-11-09 11:14:46.313939
751  2023-11-09 11:14:46.361817
752  2023-11-09 11:14:46.393695
753  2023-11-09 11:14:46.441600
754  2023-11-09 11:14:46.489477
755  2023-11-09 11:14:46.521384
756  2023-11-09 11:14:46.569258
757  2023-11-09 11:14:46.601141
758  2023-11-09 11:14:46.649046
759  2023-11-09 11:14:46.696920
760  2023-11-09 11:14:46.728834
761  2023-11-09 11:14:46.776712
762  2023-11-09 11:14:46.823579
763  2023-11-09 11:14:46.854522
764  2023-11-09 11:14:46.902335
765  2023-11-09 11:14:46.934250
766  2023-11-09 11:14:46.981162
767  2023-11-09 11:14:47.028997
768  2023-11-09 11:14:47.060911
769  2023-11-09 11:14:47.108819
770  2023-11-09 11:14:47.156655
771  2023-11-09 11:14:47.188705
772  2023-11-09 11:14:47.236442
773  2023-11-09 11:14:47.268357
774  2023-11-09 11:14:47.315269
775  2023-11-09 11:14:47.362106
776  2023-11-09 11:14:47.394021
777  2023-11-09 11:14:47.441926
778  2023-11-09 11:14:47.489765
779  2023-11-09 11:14:47.521680
780  2023-11-09 11:14:47.569593
781  2023-11-09 11:14:47.601547
782  2023-11-09 11:14:47.649453
783  2023-11-09 11:14:47.697321
784  2023-11-09 11:14:47.729206
785  2023-11-09 11:14:47.777113
786  2023-11-09 11:14:47.809026
787  2023-11-09 11:14:47.856864
788  2023-11-09 11:14:47.904770
789  2023-11-09 11:14:47.936686
790  2023-11-09 11:14:47.984523
791  2023-11-09 11:14:48.032395
792  2023-11-09 11:14:48.064340
793  2023-11-09 11:14:48.112194
794  2023-11-09 11:14:48.143100
795  2023-11-09 11:14:48.189974
796  2023-11-09 11:14:48.237846
797  2023-11-09 11:14:48.269761
798  2023-11-09 11:14:48.315673
799  2023-11-09 11:14:48.363543
800  2023-11-09 11:14:48.395425
801  2023-11-09 11:14:48.443330
802  2023-11-09 11:14:48.490206
803  2023-11-09 11:14:48.521123
804  2023-11-09 11:14:48.568994
805  2023-11-09 11:14:48.600919
806  2023-11-09 11:14:48.648781
807  2023-11-09 11:14:48.696621
808  2023-11-09 11:14:48.726619
809  2023-11-09 11:14:48.774011
810  2023-11-09 11:14:48.821868
811  2023-11-09 11:14:48.853795
812  2023-11-09 11:14:48.901678
813  2023-11-09 11:14:48.949532
814  2023-11-09 11:14:48.980444
815  2023-11-09 11:14:49.028430
816  2023-11-09 11:14:49.060344
817  2023-11-09 11:14:49.108248
818  2023-11-09 11:14:49.156088
819  2023-11-09 11:14:49.188003
820  2023-11-09 11:14:49.235877
821  2023-11-09 11:14:49.267826
822  2023-11-09 11:14:49.314666
823  2023-11-09 11:14:49.362536
824  2023-11-09 11:14:49.394451
825  2023-11-09 11:14:49.441360
826  2023-11-09 11:14:49.488200
827  2023-11-09 11:14:49.520115
828  2023-11-09 11:14:49.568020
829  2023-11-09 11:14:49.615859
830  2023-11-09 11:14:49.647774
831  2023-11-09 11:14:49.694657
832  2023-11-09 11:14:49.726615
833  2023-11-09 11:14:49.774498
834  2023-11-09 11:14:49.822364
835  2023-11-09 11:14:49.854372
836  2023-11-09 11:14:49.902245
837  2023-11-09 11:14:49.948121
838  2023-11-09 11:14:49.980036
839  2023-11-09 11:14:50.025943
840  2023-11-09 11:14:50.073721
841  2023-11-09 11:14:50.105671
842  2023-11-09 11:14:50.153610
843  2023-11-09 11:14:50.185526
844  2023-11-09 11:14:50.233473
845  2023-11-09 11:14:50.280382
846  2023-11-09 11:14:50.311726
847  2023-11-09 11:14:50.359601
848  2023-11-09 11:14:50.406609
849  2023-11-09 11:14:50.437528
850  2023-11-09 11:14:50.485399
851  2023-11-09 11:14:50.517361
852  2023-11-09 11:14:50.565187
853  2023-11-09 11:14:50.613058
854  2023-11-09 11:14:50.644972
855  2023-11-09 11:14:50.692811
856  2023-11-09 11:14:50.740743
857  2023-11-09 11:14:50.772549
858  2023-11-09 11:14:50.820300
859  2023-11-09 11:14:50.852248
860  2023-11-09 11:14:50.900116
861  2023-11-09 11:14:50.948084
862  2023-11-09 11:14:50.980007
863  2023-11-09 11:14:51.027829
864  2023-11-09 11:14:51.059751
865  2023-11-09 11:14:51.107159
866  2023-11-09 11:14:51.156097
867  2023-11-09 11:14:51.187757
868  2023-11-09 11:14:51.234625
869  2023-11-09 11:14:51.282536
870  2023-11-09 11:14:51.314465
871  2023-11-09 11:14:51.362355
872  2023-11-09 11:14:51.393240
873  2023-11-09 11:14:51.440180
874  2023-11-09 11:14:51.486990
875  2023-11-09 11:14:51.517907
876  2023-11-09 11:14:51.565779
877  2023-11-09 11:14:51.613651
878  2023-11-09 11:14:51.645566
879  2023-11-09 11:14:51.693475
880  2023-11-09 11:14:51.725352
881  2023-11-09 11:14:51.773256
882  2023-11-09 11:14:51.821097
883  2023-11-09 11:14:51.853011
884  2023-11-09 11:14:51.900917
885  2023-11-09 11:14:51.948755
886  2023-11-09 11:14:51.980670
887  2023-11-09 11:14:52.028582
888  2023-11-09 11:14:52.060509
889  2023-11-09 11:14:52.107331
890  2023-11-09 11:14:52.155204
891  2023-11-09 11:14:52.187118
892  2023-11-09 11:14:52.235149
893  2023-11-09 11:14:52.267064
894  2023-11-09 11:14:52.314936
895  2023-11-09 11:14:52.362808
896  2023-11-09 11:14:52.394723
897  2023-11-09 11:14:52.442595
898  2023-11-09 11:14:52.490467
899  2023-11-09 11:14:52.522416
900  2023-11-09 11:14:52.570382
901  2023-11-09 11:14:52.601205
902  2023-11-09 11:14:52.648088
903  2023-11-09 11:14:52.694920
904  2023-11-09 11:14:52.725873
905  2023-11-09 11:14:52.773749
906  2023-11-09 11:14:52.821617
907  2023-11-09 11:14:52.853529
908  2023-11-09 11:14:52.901396
909  2023-11-09 11:14:52.948286
910  2023-11-09 11:14:52.979202
911  2023-11-09 11:14:53.027088
912  2023-11-09 11:14:53.072942
913  2023-11-09 11:14:53.104533
914  2023-11-09 11:14:53.152176
915  2023-11-09 11:14:53.184102
916  2023-11-09 11:14:53.232081
917  2023-11-09 11:14:53.279923
918  2023-11-09 11:14:53.311838
919  2023-11-09 11:14:53.359677
920  2023-11-09 11:14:53.406585
921  2023-11-09 11:14:53.438468
922  2023-11-09 11:14:53.486339
923  2023-11-09 11:14:53.518254
924  2023-11-09 11:14:53.567127
925  2023-11-09 11:14:53.613997
926  2023-11-09 11:14:53.645912
927  2023-11-09 11:14:53.693832
928  2023-11-09 11:14:53.725791
929  2023-11-09 11:14:53.773666
930  2023-11-09 11:14:53.821535
931  2023-11-09 11:14:53.853450
932  2023-11-09 11:14:53.901322
933  2023-11-09 11:14:53.947199
934  2023-11-09 11:14:53.977119
935  2023-11-09 11:14:54.025011
936  2023-11-09 11:14:54.070889
937  2023-11-09 11:14:54.102928
938  2023-11-09 11:14:54.150876
939  2023-11-09 11:14:54.197882
940  2023-11-09 11:14:54.227661
941  2023-11-09 11:14:54.274684
942  2023-11-09 11:14:54.321540
943  2023-11-09 11:14:54.352344
944  2023-11-09 11:14:54.399263
945  2023-11-09 11:14:54.446103
946  2023-11-09 11:14:54.477021
947  2023-11-09 11:14:54.524893
948  2023-11-09 11:14:54.572765
949  2023-11-09 11:14:54.604778
950  2023-11-09 11:14:54.652552
951  2023-11-09 11:14:54.684466
952  2023-11-09 11:14:54.732386
953  2023-11-09 11:14:54.780210
954  2023-11-09 11:14:54.812125
955  2023-11-09 11:14:54.860097
956  2023-11-09 11:14:54.906872
957  2023-11-09 11:14:54.937789
958  2023-11-09 11:14:54.985661
959  2023-11-09 11:14:55.017576
960  2023-11-09 11:14:55.065448
961  2023-11-09 11:14:55.113352
962  2023-11-09 11:14:55.145270
963  2023-11-09 11:14:55.193142
964  2023-11-09 11:14:55.240013
965  2023-11-09 11:14:55.269933
966  2023-11-09 11:14:55.316808
967  2023-11-09 11:14:55.364648
968  2023-11-09 11:14:55.396598
969  2023-11-09 11:14:55.444435
970  2023-11-09 11:14:55.476389
971  2023-11-09 11:14:55.524342
972  2023-11-09 11:14:55.572248
973  2023-11-09 11:14:55.604159
974  2023-11-09 11:14:55.651884
975  2023-11-09 11:14:55.697764
976  2023-11-09 11:14:55.729760
977  2023-11-09 11:14:55.778683
978  2023-11-09 11:14:55.809673
979  2023-11-09 11:14:55.857544
980  2023-11-09 11:14:55.906511
981  2023-11-09 11:14:55.937457
982  2023-11-09 11:14:55.984342
983  2023-11-09 11:14:56.031214
984  2023-11-09 11:14:56.063128
985  2023-11-09 11:14:56.110959
986  2023-11-09 11:14:56.142909
987  2023-11-09 11:14:56.190746
988  2023-11-09 11:14:56.236739
989  2023-11-09 11:14:56.268691
990  2023-11-09 11:14:56.316526
991  2023-11-09 11:14:56.364449
992  2023-11-09 11:14:56.395315
993  2023-11-09 11:14:56.443187
994  2023-11-09 11:14:56.490195
995  2023-11-09 11:14:56.521198
996  2023-11-09 11:14:56.569119
997  2023-11-09 11:14:56.615502
998  2023-11-09 11:14:56.647020
999  2023-11-09 11:14:56.694310
1000  2023-11-09 11:14:56.726196
1001  2023-11-09 11:14:56.772192
1002  2023-11-09 11:14:56.819465
1003  2023-11-09 11:14:56.851384
1004  2023-11-09 11:14:56.898396
1005  2023-11-09 11:14:56.945135
1006  2023-11-09 11:14:56.977161
1007  2023-11-09 11:14:57.025167
1008  2023-11-09 11:14:57.071103
1009  2023-11-09 11:14:57.104029
1010  2023-11-09 11:14:57.151852
1011  2023-11-09 11:14:57.198747
1012  2023-11-09 11:14:57.230648
1013  2023-11-09 11:14:57.278513
1014  2023-11-09 11:14:57.310428
1015  2023-11-09 11:14:57.358449
1016  2023-11-09 11:14:57.405324
1017  2023-11-09 11:14:57.436241
1018  2023-11-09 11:14:57.484113
1019  2023-11-09 11:14:57.531985
1020  2023-11-09 11:14:57.563900
1021  2023-11-09 11:14:57.611949
1022  2023-11-09 11:14:57.643864
1023  2023-11-09 11:14:57.691823
1024  2023-11-09 11:14:57.739670
1025  2023-11-09 11:14:57.772584
1026  2023-11-09 11:14:57.819457
1027  2023-11-09 11:14:57.851371
1028  2023-11-09 11:14:57.899243
1029  2023-11-09 11:14:57.947115
1030  2023-11-09 11:14:57.979030
1031  2023-11-09 11:14:58.026409
1032  2023-11-09 11:14:58.073360
1033  2023-11-09 11:14:58.104277
1034  2023-11-09 11:14:58.152183
1035  2023-11-09 11:14:58.184098
1036  2023-11-09 11:14:58.232134
1037  2023-11-09 11:14:58.280050
1038  2023-11-09 11:14:58.311956
1039  2023-11-09 11:14:58.359832
1040  2023-11-09 11:14:58.406668
1041  2023-11-09 11:14:58.438645
1042  2023-11-09 11:14:58.484983
1043  2023-11-09 11:14:58.517018
1044  2023-11-09 11:14:58.563855
1045  2023-11-09 11:14:58.611728
1046  2023-11-09 11:14:58.656647
1047  2023-11-09 11:14:58.688225
1048  2023-11-09 11:14:58.736118
1049  2023-11-09 11:14:58.767994
1050  2023-11-09 11:14:58.814887
1051  2023-11-09 11:14:58.862770
1052  2023-11-09 11:14:58.894703
1053  2023-11-09 11:14:58.941517
1054  2023-11-09 11:14:58.988391
1055  2023-11-09 11:14:59.020306
1056  2023-11-09 11:14:59.065186
1057  2023-11-09 11:14:59.112224
1058  2023-11-09 11:14:59.144196
1059  2023-11-09 11:14:59.192106
1060  2023-11-09 11:14:59.240076
1061  2023-11-09 11:14:59.271988
1062  2023-11-09 11:14:59.319900
1063  2023-11-09 11:14:59.351765
1064  2023-11-09 11:14:59.399638
1065  2023-11-09 11:14:59.447552
1066  2023-11-09 11:14:59.479553
1067  2023-11-09 11:14:59.526390
1068  2023-11-09 11:14:59.573299
1069  2023-11-09 11:14:59.605212
1070  2023-11-09 11:14:59.652251
1071  2023-11-09 11:14:59.697964
1072  2023-11-09 11:14:59.728889
1073  2023-11-09 11:14:59.776770
1074  2023-11-09 11:14:59.808682
1075  2023-11-09 11:14:59.856546
1076  2023-11-09 11:14:59.904542
1077  2023-11-09 11:14:59.936486
1078  2023-11-09 11:14:59.984528
1079  2023-11-09 11:15:00.032285
1080  2023-11-09 11:15:00.064196
1081  2023-11-09 11:15:00.110045
1082  2023-11-09 11:15:00.142955
1083  2023-11-09 11:15:00.189864
1084  2023-11-09 11:15:00.238738
1085  2023-11-09 11:15:00.269752
1086  2023-11-09 11:15:00.318638
1087  2023-11-09 11:15:00.363492
1088  2023-11-09 11:15:00.394409
1089  2023-11-09 11:15:00.442287
1090  2023-11-09 11:15:00.488191
1091  2023-11-09 11:15:00.520106
1092  2023-11-09 11:15:00.568018
1093  2023-11-09 11:15:00.614933
1094  2023-11-09 11:15:00.646843
1095  2023-11-09 11:15:00.694679
1096  2023-11-09 11:15:00.726694
1097  2023-11-09 11:15:00.774331
1098  2023-11-09 11:15:00.822276
1099  2023-11-09 11:15:00.853386
1100  2023-11-09 11:15:00.900396
1101  2023-11-09 11:15:00.947710
1102  2023-11-09 11:15:00.979656
1103  2023-11-09 11:15:01.027496
1104  2023-11-09 11:15:01.059414
1105  2023-11-09 11:15:01.107402
1106  2023-11-09 11:15:01.153280
1107  2023-11-09 11:15:01.184166
1108  2023-11-09 11:15:01.231041
1109  2023-11-09 11:15:01.277958
1110  2023-11-09 11:15:01.308876
1111  2023-11-09 11:15:01.356751
1112  2023-11-09 11:15:01.404578
1113  2023-11-09 11:15:01.437559
1114  2023-11-09 11:15:01.483366
1115  2023-11-09 11:15:01.530326
1116  2023-11-09 11:15:01.562241
1117  2023-11-09 11:15:01.610113
1118  2023-11-09 11:15:01.642027
1119  2023-11-09 11:15:01.688942
1120  2023-11-09 11:15:01.735777
1121  2023-11-09 11:15:01.767822
1122  2023-11-09 11:15:01.815750
1123  2023-11-09 11:15:01.863566
1124  2023-11-09 11:15:01.895480
1125  2023-11-09 11:15:01.943352
1126  2023-11-09 11:15:01.990265
1127  2023-11-09 11:15:02.021187
1128  2023-11-09 11:15:02.068840
1129  2023-11-09 11:15:02.100722
1130  2023-11-09 11:15:02.146696
1131  2023-11-09 11:15:02.194529
1132  2023-11-09 11:15:02.226475
1133  2023-11-09 11:15:02.272363
1134  2023-11-09 11:15:02.320235
1135  2023-11-09 11:15:02.352109
1136  2023-11-09 11:15:02.400013
1137  2023-11-09 11:15:02.447927
1138  2023-11-09 11:15:02.479920
1139  2023-11-09 11:15:02.527795
1140  2023-11-09 11:15:02.559706
1141  2023-11-09 11:15:02.607545
1142  2023-11-09 11:15:02.655448
1143  2023-11-09 11:15:02.687528
1144  2023-11-09 11:15:02.735233
1145  2023-11-09 11:15:02.767168
1146  2023-11-09 11:15:02.814988
1147  2023-11-09 11:15:02.862909
1148  2023-11-09 11:15:02.893817
1149  2023-11-09 11:15:02.941689
1150  2023-11-09 11:15:02.989556
1151  2023-11-09 11:15:03.021472
1152  2023-11-09 11:15:03.069454
1153  2023-11-09 11:15:03.101263
1154  2023-11-09 11:15:03.149153
1155  2023-11-09 11:15:03.197105
1156  2023-11-09 11:15:03.229009
1157  2023-11-09 11:15:03.276875
1158  2023-11-09 11:15:03.323060
1159  2023-11-09 11:15:03.354975
1160  2023-11-09 11:15:03.403846
1161  2023-11-09 11:15:03.434761
1162  2023-11-09 11:15:03.479671
1163  2023-11-09 11:15:03.525625
1164  2023-11-09 11:15:03.571612
1165  2023-11-09 11:15:03.602523
1166  2023-11-09 11:15:03.649509
1167  2023-11-09 11:15:03.697376
1168  2023-11-09 11:15:03.729276
1169  2023-11-09 11:15:03.777176
1170  2023-11-09 11:15:03.809129
1171  2023-11-09 11:15:03.855004
1172  2023-11-09 11:15:03.902873
1173  2023-11-09 11:15:03.934798
1174  2023-11-09 11:15:03.982625
1175  2023-11-09 11:15:04.030531
1176  2023-11-09 11:15:04.062443
1177  2023-11-09 11:15:04.110320
1178  2023-11-09 11:15:04.142200
1179  2023-11-09 11:15:04.190109
1180  2023-11-09 11:15:04.237978
1181  2023-11-09 11:15:04.269891
1182  2023-11-09 11:15:04.317767
1183  2023-11-09 11:15:04.365639
1184  2023-11-09 11:15:04.397517
1185  2023-11-09 11:15:04.445425
1186  2023-11-09 11:15:04.477342
1187  2023-11-09 11:15:04.525212
1188  2023-11-09 11:15:04.573083
1189  2023-11-09 11:15:04.604961
1190  2023-11-09 11:15:04.651867
1191  2023-11-09 11:15:04.683807
1192  2023-11-09 11:15:04.731695
1193  2023-11-09 11:15:04.779517
1194  2023-11-09 11:15:04.811462
1195  2023-11-09 11:15:04.859353
1196  2023-11-09 11:15:04.906179
1197  2023-11-09 11:15:04.938127
1198  2023-11-09 11:15:04.985966
1199  2023-11-09 11:15:05.017880
1200  2023-11-09 11:15:05.065751
1201  2023-11-09 11:15:05.113623
1202  2023-11-09 11:15:05.145538
1203  2023-11-09 11:15:05.194441
1204  2023-11-09 11:15:05.226354
1205  2023-11-09 11:15:05.274227
1206  2023-11-09 11:15:05.321069
1207  2023-11-09 11:15:05.353016
1208  2023-11-09 11:15:05.400855
1209  2023-11-09 11:15:05.447770
1210  2023-11-09 11:15:05.479645
1211  2023-11-09 11:15:05.527547
1212  2023-11-09 11:15:05.559495
1213  2023-11-09 11:15:05.607303
1214  2023-11-09 11:15:05.655210
1215  2023-11-09 11:15:05.687123
1216  2023-11-09 11:15:05.734962
1217  2023-11-09 11:15:05.781870
1218  2023-11-09 11:15:05.813790
1219  2023-11-09 11:15:05.861623
1220  2023-11-09 11:15:05.892610
1221  2023-11-09 11:15:05.939447
1222  2023-11-09 11:15:05.987321
1223  2023-11-09 11:15:06.019234
1224  2023-11-09 11:15:06.064113
1225  2023-11-09 11:15:06.110988
1226  2023-11-09 11:15:06.142873
1227  2023-11-09 11:15:06.190776
1228  2023-11-09 11:15:06.238679
1229  2023-11-09 11:15:06.270562
1230  2023-11-09 11:15:06.318432
1231  2023-11-09 11:15:06.350356
1232  2023-11-09 11:15:06.398189
1233  2023-11-09 11:15:06.446091
1234  2023-11-09 11:15:06.478009
1235  2023-11-09 11:15:06.525880
1236  2023-11-09 11:15:06.573722
1237  2023-11-09 11:15:06.605666
1238  2023-11-09 11:15:06.653541
1239  2023-11-09 11:15:06.685421
1240  2023-11-09 11:15:06.733327
1241  2023-11-09 11:15:06.781195
1242  2023-11-09 11:15:06.813080
1243  2023-11-09 11:15:06.860984
1244  2023-11-09 11:15:06.892899
1245  2023-11-09 11:15:06.940770
1246  2023-11-09 11:15:06.987644
1247  2023-11-09 11:15:07.018532
1248  2023-11-09 11:15:07.066434
1249  2023-11-09 11:15:07.114342
1250  2023-11-09 11:15:07.146226
1251  2023-11-09 11:15:07.194232
1252  2023-11-09 11:15:07.240974
1253  2023-11-09 11:15:07.271854
1254  2023-11-09 11:15:07.319783
1255  2023-11-09 11:15:07.351676
1256  2023-11-09 11:15:07.399526
1257  2023-11-09 11:15:07.445454
1258  2023-11-09 11:15:07.477314
1259  2023-11-09 11:15:07.523224
1260  2023-11-09 11:15:07.571096
1261  2023-11-09 11:15:07.603011
1262  2023-11-09 11:15:07.648890
1263  2023-11-09 11:15:07.695765
1264  2023-11-09 11:15:07.726683
1265  2023-11-09 11:15:07.774521
1266  2023-11-09 11:15:07.820432
1267  2023-11-09 11:15:07.852356
1268  2023-11-09 11:15:07.899217
1269  2023-11-09 11:15:07.945064
1270  2023-11-09 11:15:07.976013
1271  2023-11-09 11:15:08.023892
1272  2023-11-09 11:15:08.071725
1273  2023-11-09 11:15:08.103641
1274  2023-11-09 11:15:08.151539
1275  2023-11-09 11:15:08.197389
1276  2023-11-09 11:15:08.229304
1277  2023-11-09 11:15:08.276210
1278  2023-11-09 11:15:08.324087
1279  2023-11-09 11:15:08.355997
1280  2023-11-09 11:15:08.403874
1281  2023-11-09 11:15:08.435787
1282  2023-11-09 11:15:08.483744
1283  2023-11-09 11:15:08.531496
1284  2023-11-09 11:15:08.563410
1285  2023-11-09 11:15:08.610342
1286  2023-11-09 11:15:08.642236
1287  2023-11-09 11:15:08.690108
1288  2023-11-09 11:15:08.737978
1289  2023-11-09 11:15:08.769896
1290  2023-11-09 11:15:08.817765
1291  2023-11-09 11:15:08.865636
1292  2023-11-09 11:15:08.896556
1293  2023-11-09 11:15:08.944433
1294  2023-11-09 11:15:08.976337
1295  2023-11-09 11:15:09.024246
1296  2023-11-09 11:15:09.072151
1297  2023-11-09 11:15:09.104065
1298  2023-11-09 11:15:09.151906
1299  2023-11-09 11:15:09.183820
1300  2023-11-09 11:15:09.231724
1301  2023-11-09 11:15:09.278566
1302  2023-11-09 11:15:09.309516
1303  2023-11-09 11:15:09.357389
1304  2023-11-09 11:15:09.405261
1305  2023-11-09 11:15:09.437174
1306  2023-11-09 11:15:09.485047
1307  2023-11-09 11:15:09.516962
1308  2023-11-09 11:15:09.564833
1309  2023-11-09 11:15:09.612708
1310  2023-11-09 11:15:09.644628
1311  2023-11-09 11:15:09.692496
1312  2023-11-09 11:15:09.740334
1313  2023-11-09 11:15:09.772248
1314  2023-11-09 11:15:09.820154
1315  2023-11-09 11:15:09.852064
1316  2023-11-09 11:15:09.898939
1317  2023-11-09 11:15:09.946810
1318  2023-11-09 11:15:09.978731
1319  2023-11-09 11:15:10.026600
1320  2023-11-09 11:15:10.073474
1321  2023-11-09 11:15:10.104403
1322  2023-11-09 11:15:10.152232
1323  2023-11-09 11:15:10.198108
1324  2023-11-09 11:15:10.229025
1325  2023-11-09 11:15:10.276073
1326  2023-11-09 11:15:10.321831
1327  2023-11-09 11:15:10.353692
1328  2023-11-09 11:15:10.401595
1329  2023-11-09 11:15:10.448439
1330  2023-11-09 11:15:10.479356
1331  2023-11-09 11:15:10.527228
1332  2023-11-09 11:15:10.559143
1333  2023-11-09 11:15:10.607049
1334  2023-11-09 11:15:10.654887
1335  2023-11-09 11:15:10.686801
1336  2023-11-09 11:15:10.734676
1337  2023-11-09 11:15:10.781579
1338  2023-11-09 11:15:10.811503
1339  2023-11-09 11:15:10.858377
1340  2023-11-09 11:15:10.905252
1341  2023-11-09 11:15:10.937168
1342  2023-11-09 11:15:10.985037
1343  2023-11-09 11:15:11.016951
1344  2023-11-09 11:15:11.062827
1345  2023-11-09 11:15:11.110148
1346  2023-11-09 11:15:11.142064
1347  2023-11-09 11:15:11.189937
1348  2023-11-09 11:15:11.237807
1349  2023-11-09 11:15:11.269723
1350  2023-11-09 11:15:11.317781
1351  2023-11-09 11:15:11.365435
1352  2023-11-09 11:15:11.396351
1353  2023-11-09 11:15:11.442274
1354  2023-11-09 11:15:11.490131
1355  2023-11-09 11:15:11.522027
1356  2023-11-09 11:15:11.569922
1357  2023-11-09 11:15:11.601837
1358  2023-11-09 11:15:11.649707
1359  2023-11-09 11:15:11.697579
1360  2023-11-09 11:15:11.729461
1361  2023-11-09 11:15:11.777403
1362  2023-11-09 11:15:11.809350
1363  2023-11-09 11:15:11.858231
1364  2023-11-09 11:15:11.905136
1365  2023-11-09 11:15:11.937049
1366  2023-11-09 11:15:11.984921
1367  2023-11-09 11:15:12.031797
1368  2023-11-09 11:15:12.063041
1369  2023-11-09 11:15:12.111036
1370  2023-11-09 11:15:12.142992
1371  2023-11-09 11:15:12.190823
1372  2023-11-09 11:15:12.237702
1373  2023-11-09 11:15:12.268640
1374  2023-11-09 11:15:12.314841
1375  2023-11-09 11:15:12.362676
1376  2023-11-09 11:15:12.394727
1377  2023-11-09 11:15:12.440587
1378  2023-11-09 11:15:12.486472
1379  2023-11-09 11:15:12.518381
1380  2023-11-09 11:15:12.566256
1381  2023-11-09 11:15:12.612136
1382  2023-11-09 11:15:12.644064
1383  2023-11-09 11:15:12.691917
1384  2023-11-09 11:15:12.739787
1385  2023-11-09 11:15:12.771701
1386  2023-11-09 11:15:12.819576
1387  2023-11-09 11:15:12.851491
1388  2023-11-09 11:15:12.899363
1389  2023-11-09 11:15:12.947205
1390  2023-11-09 11:15:12.979144
1391  2023-11-09 11:15:13.027021
1392  2023-11-09 11:15:13.072919
1393  2023-11-09 11:15:13.104813
1394  2023-11-09 11:15:13.152653
1395  2023-11-09 11:15:13.184604
1396  2023-11-09 11:15:13.232469
1397  2023-11-09 11:15:13.280312
1398  2023-11-09 11:15:13.312227
1399  2023-11-09 11:15:13.360094
1400  2023-11-09 11:15:13.392009
1401  2023-11-09 11:15:13.439919
1402  2023-11-09 11:15:13.488766
1403  2023-11-09 11:15:13.518670
1404  2023-11-09 11:15:13.565013
1405  2023-11-09 11:15:13.612916
1406  2023-11-09 11:15:13.644831
1407  2023-11-09 11:15:13.691860
1408  2023-11-09 11:15:13.738620
1409  2023-11-09 11:15:13.769534
1410  2023-11-09 11:15:13.816408
1411  2023-11-09 11:15:13.863278
1412  2023-11-09 11:15:13.894202
1413  2023-11-09 11:15:13.942219
1414  2023-11-09 11:15:13.989962
1415  2023-11-09 11:15:14.021858
1416  2023-11-09 11:15:14.069728
1417  2023-11-09 11:15:14.101642
1418  2023-11-09 11:15:14.149515
1419  2023-11-09 11:15:14.197387
1420  2023-11-09 11:15:14.229301
1421  2023-11-09 11:15:14.277172
1422  2023-11-09 11:15:14.309092
1423  2023-11-09 11:15:14.356958
1424  2023-11-09 11:15:14.404826
1425  2023-11-09 11:15:14.436739
1426  2023-11-09 11:15:14.484629
1427  2023-11-09 11:15:14.531612
1428  2023-11-09 11:15:14.562379
1429  2023-11-09 11:15:14.610280
1430  2023-11-09 11:15:14.642196
1431  2023-11-09 11:15:14.690038
1432  2023-11-09 11:15:14.738037
1433  2023-11-09 11:15:14.770001
1434  2023-11-09 11:15:14.817875
1435  2023-11-09 11:15:14.865750
1436  2023-11-09 11:15:14.897680
1437  2023-11-09 11:15:14.945537
1438  2023-11-09 11:15:14.977537
1439  2023-11-09 11:15:15.025463
1440  2023-11-09 11:15:15.073368
1441  2023-11-09 11:15:15.105000
1442  2023-11-09 11:15:15.152938
1443  2023-11-09 11:15:15.184853
1444  2023-11-09 11:15:15.230762
1445  2023-11-09 11:15:15.278602
1446  2023-11-09 11:15:15.310516
1447  2023-11-09 11:15:15.358388
1448  2023-11-09 11:15:15.406378
1449  2023-11-09 11:15:15.438421
1450  2023-11-09 11:15:15.486157
1451  2023-11-09 11:15:15.518072
1452  2023-11-09 11:15:15.565975
1453  2023-11-09 11:15:15.613816
1454  2023-11-09 11:15:15.645731
1455  2023-11-09 11:15:15.693636
1456  2023-11-09 11:15:15.725518
1457  2023-11-09 11:15:15.773390
1458  2023-11-09 11:15:15.821262
1459  2023-11-09 11:15:15.853176
1460  2023-11-09 11:15:15.901082
1461  2023-11-09 11:15:15.947923
1462  2023-11-09 11:15:15.979838
1463  2023-11-09 11:15:16.027710
1464  2023-11-09 11:15:16.059656
1465  2023-11-09 11:15:16.107496
1466  2023-11-09 11:15:16.155407
1467  2023-11-09 11:15:16.187283
1468  2023-11-09 11:15:16.235239
1469  2023-11-09 11:15:16.267153
1470  2023-11-09 11:15:16.315025
1471  2023-11-09 11:15:16.362897
1472  2023-11-09 11:15:16.394812
1473  2023-11-09 11:15:16.442684
1474  2023-11-09 11:15:16.489593
1475  2023-11-09 11:15:16.520510
1476  2023-11-09 11:15:16.567384
1477  2023-11-09 11:15:16.613258
1478  2023-11-09 11:15:16.644199
1479  2023-11-09 11:15:16.692056
1480  2023-11-09 11:15:16.739920
1481  2023-11-09 11:15:16.771838
1482  2023-11-09 11:15:16.819713
1483  2023-11-09 11:15:16.851624
1484  2023-11-09 11:15:16.899496
1485  2023-11-09 11:15:16.948289
1486  2023-11-09 11:15:16.978986
1487  2023-11-09 11:15:17.027838
1488  2023-11-09 11:15:17.058769
1489  2023-11-09 11:15:17.107645
1490  2023-11-09 11:15:17.155513
1491  2023-11-09 11:15:17.187594
1492  2023-11-09 11:15:17.235467
1493  2023-11-09 11:15:17.282384
1494  2023-11-09 11:15:17.315400
1495  2023-11-09 11:15:17.362294
1496  2023-11-09 11:15:17.395189
1497  2023-11-09 11:15:17.442137
1498  2023-11-09 11:15:17.490008
1499  2023-11-09 11:15:17.521922
1500  2023-11-09 11:15:17.569794
1501  2023-11-09 11:15:17.601712
1502  2023-11-09 11:15:17.649591
1503  2023-11-09 11:15:17.695459
1504  2023-11-09 11:15:17.727340
1505  2023-11-09 11:15:17.775248
1506  2023-11-09 11:15:17.823084
1507  2023-11-09 11:15:17.854999
1508  2023-11-09 11:15:17.901928
1509  2023-11-09 11:15:17.948748
1510  2023-11-09 11:15:17.980663
1511  2023-11-09 11:15:18.027331
1512  2023-11-09 11:15:18.059200
1513  2023-11-09 11:15:18.106180
1514  2023-11-09 11:15:18.152012
1515  2023-11-09 11:15:18.198402
1516  2023-11-09 11:15:18.229344
1517  2023-11-09 11:15:18.276448
1518  2023-11-09 11:15:18.323298
1519  2023-11-09 11:15:18.355316
1520  2023-11-09 11:15:18.403203
1521  2023-11-09 11:15:18.435196
1522  2023-11-09 11:15:18.483073
1523  2023-11-09 11:15:18.531122
1524  2023-11-09 11:15:18.563034
1525  2023-11-09 11:15:18.610910
1526  2023-11-09 11:15:18.642821
1527  2023-11-09 11:15:18.690669
1528  2023-11-09 11:15:18.738588
1529  2023-11-09 11:15:18.770480
1530  2023-11-09 11:15:18.818319
1531  2023-11-09 11:15:18.850273
1532  2023-11-09 11:15:18.898131
1533  2023-11-09 11:15:18.946122
1534  2023-11-09 11:15:18.978052
1535  2023-11-09 11:15:19.026515
1536  2023-11-09 11:15:19.072399
1537  2023-11-09 11:15:19.104298
1538  2023-11-09 11:15:19.152139
1539  2023-11-09 11:15:19.199047
1540  2023-11-09 11:15:19.230965
1541  2023-11-09 11:15:19.278800
1542  2023-11-09 11:15:19.310716
1543  2023-11-09 11:15:19.358586
1544  2023-11-09 11:15:19.404537
1545  2023-11-09 11:15:19.435842
1546  2023-11-09 11:15:19.483783
1547  2023-11-09 11:15:19.531655
1548  2023-11-09 11:15:19.564569
1549  2023-11-09 11:15:19.611442
1550  2023-11-09 11:15:19.643357
1551  2023-11-09 11:15:19.691229
1552  2023-11-09 11:15:19.739101
1553  2023-11-09 11:15:19.770127
1554  2023-11-09 11:15:19.816913
1555  2023-11-09 11:15:19.864821
1556  2023-11-09 11:15:19.896736
1557  2023-11-09 11:15:19.944572
1558  2023-11-09 11:15:19.976578
1559  2023-11-09 11:15:20.024485
1560  2023-11-09 11:15:20.072322
1561  2023-11-09 11:15:20.104236
1562  2023-11-09 11:15:20.151147
1563  2023-11-09 11:15:20.198019
1564  2023-11-09 11:15:20.229939
1565  2023-11-09 11:15:20.277809
1566  2023-11-09 11:15:20.309722
1567  2023-11-09 11:15:20.357598
1568  2023-11-09 11:15:20.405464
1569  2023-11-09 11:15:20.437484
1570  2023-11-09 11:15:20.485391
1571  2023-11-09 11:15:20.517310
1572  2023-11-09 11:15:20.564291
1573  2023-11-09 11:15:20.611173
1574  2023-11-09 11:15:20.643079
1575  2023-11-09 11:15:20.689752
1576  2023-11-09 11:15:20.737730
1577  2023-11-09 11:15:20.769683
1578  2023-11-09 11:15:20.817607
1579  2023-11-09 11:15:20.865179
1580  2023-11-09 11:15:20.897235
1581  2023-11-09 11:15:20.944116
1582  2023-11-09 11:15:20.990132
1583  2023-11-09 11:15:21.023078
1584  2023-11-09 11:15:21.070957
1585  2023-11-09 11:15:21.101866
1586  2023-11-09 11:15:21.149705
1587  2023-11-09 11:15:21.195583
1588  2023-11-09 11:15:21.227498
1589  2023-11-09 11:15:21.275369
1590  2023-11-09 11:15:21.323272
1591  2023-11-09 11:15:21.355187
1592  2023-11-09 11:15:21.403059
1593  2023-11-09 11:15:21.433976
1594  2023-11-09 11:15:21.480462
1595  2023-11-09 11:15:21.527905
1596  2023-11-09 11:15:21.559826
1597  2023-11-09 11:15:21.607741
1598  2023-11-09 11:15:21.655063
1599  2023-11-09 11:15:21.686245
1600  2023-11-09 11:15:21.734238
1601  2023-11-09 11:15:21.782106
1602  2023-11-09 11:15:21.814018
1603  2023-11-09 11:15:21.861913
1604  2023-11-09 11:15:21.893828
1605  2023-11-09 11:15:21.941849
1606  2023-11-09 11:15:21.989421
1607  2023-11-09 11:15:22.021347
1608  2023-11-09 11:15:22.069200
1609  2023-11-09 11:15:22.101115
1610  2023-11-09 11:15:22.146997
1611  2023-11-09 11:15:22.194832
1612  2023-11-09 11:15:22.226864
1613  2023-11-09 11:15:22.274849
1614  2023-11-09 11:15:22.322788
1615  2023-11-09 11:15:22.354704
1616  2023-11-09 11:15:22.402582
1617  2023-11-09 11:15:22.434488
1618  2023-11-09 11:15:22.481369
1619  2023-11-09 11:15:22.529240
1620  2023-11-09 11:15:22.560118
1621  2023-11-09 11:15:22.608030
1622  2023-11-09 11:15:22.656025
1623  2023-11-09 11:15:22.687817
1624  2023-11-09 11:15:22.736148
1625  2023-11-09 11:15:22.779981
1626  2023-11-09 11:15:22.811896
1627  2023-11-09 11:15:22.857773
1628  2023-11-09 11:15:22.905628
1629  2023-11-09 11:15:22.937542
1630  2023-11-09 11:15:22.985414
1631  2023-11-09 11:15:23.017329
1632  2023-11-09 11:15:23.065236
1633  2023-11-09 11:15:23.113073
1634  2023-11-09 11:15:23.144988
1635  2023-11-09 11:15:23.192894
1636  2023-11-09 11:15:23.240732
1637  2023-11-09 11:15:23.272646
1638  2023-11-09 11:15:23.318524
1639  2023-11-09 11:15:23.350438
1640  2023-11-09 11:15:23.397352
1641  2023-11-09 11:15:23.444220
1642  2023-11-09 11:15:23.476247
1643  2023-11-09 11:15:23.524054
1644  2023-11-09 11:15:23.571720
1645  2023-11-09 11:15:23.603635
1646  2023-11-09 11:15:23.651474
1647  2023-11-09 11:15:23.698380
1648  2023-11-09 11:15:23.729303
1649  2023-11-09 11:15:23.777172
1650  2023-11-09 11:15:23.809098
1651  2023-11-09 11:15:23.854974
1652  2023-11-09 11:15:23.902059
1653  2023-11-09 11:15:23.948899
1654  2023-11-09 11:15:23.980849
1655  2023-11-09 11:15:24.029715
1656  2023-11-09 11:15:24.061627
1657  2023-11-09 11:15:24.109516
1658  2023-11-09 11:15:24.157510
1659  2023-11-09 11:15:24.189593
1660  2023-11-09 11:15:24.236427
1661  2023-11-09 11:15:24.268342
1662  2023-11-09 11:15:24.317255
1663  2023-11-09 11:15:24.365083
1664  2023-11-09 11:15:24.396999
1665  2023-11-09 11:15:24.443871
1666  2023-11-09 11:15:24.489749
1667  2023-11-09 11:15:24.521663
1668  2023-11-09 11:15:24.569536
1669  2023-11-09 11:15:24.601450
1670  2023-11-09 11:15:24.649322
1671  2023-11-09 11:15:24.697312
1672  2023-11-09 11:15:24.727721
1673  2023-11-09 11:15:24.775388
1674  2023-11-09 11:15:24.822873
1675  2023-11-09 11:15:24.854823
1676  2023-11-09 11:15:24.902898
1677  2023-11-09 11:15:24.934847
1678  2023-11-09 11:15:24.982684
1679  2023-11-09 11:15:25.029707
1680  2023-11-09 11:15:25.060615
1681  2023-11-09 11:15:25.108239
1682  2023-11-09 11:15:25.156075
1683  2023-11-09 11:15:25.187994
1684  2023-11-09 11:15:25.235876
1685  2023-11-09 11:15:25.267781
1686  2023-11-09 11:15:25.314113
1687  2023-11-09 11:15:25.362022
1688  2023-11-09 11:15:25.393940
1689  2023-11-09 11:15:25.441811
1690  2023-11-09 11:15:25.489808
1691  2023-11-09 11:15:25.521589
1692  2023-11-09 11:15:25.568474
1693  2023-11-09 11:15:25.615380
1694  2023-11-09 11:15:25.647279
1695  2023-11-09 11:15:25.695131
1696  2023-11-09 11:15:25.727045
1697  2023-11-09 11:15:25.774902
1698  2023-11-09 11:15:25.822754
1699  2023-11-09 11:15:25.854696
1700  2023-11-09 11:15:25.901573
1701  2023-11-09 11:15:25.949447
1702  2023-11-09 11:15:25.978514
1703  2023-11-09 11:15:26.026501
1704  2023-11-09 11:15:26.073375
1705  2023-11-09 11:15:26.104293
1706  2023-11-09 11:15:26.152092
1707  2023-11-09 11:15:26.198971
1708  2023-11-09 11:15:26.230708
1709  2023-11-09 11:15:26.278538
1710  2023-11-09 11:15:26.310453
1711  2023-11-09 11:15:26.357058
1712  2023-11-09 11:15:26.404897
1713  2023-11-09 11:15:26.436922
1714  2023-11-09 11:15:26.484795
1715  2023-11-09 11:15:26.530990
1716  2023-11-09 11:15:26.562933
1717  2023-11-09 11:15:26.610805
1718  2023-11-09 11:15:26.642722
1719  2023-11-09 11:15:26.690615
1720  2023-11-09 11:15:26.738466
1721  2023-11-09 11:15:26.770383
1722  2023-11-09 11:15:26.818249
1723  2023-11-09 11:15:26.865272
1724  2023-11-09 11:15:26.897038
1725  2023-11-09 11:15:26.943914
1726  2023-11-09 11:15:26.975829
1727  2023-11-09 11:15:27.023702
1728  2023-11-09 11:15:27.071576
1729  2023-11-09 11:15:27.103502
1730  2023-11-09 11:15:27.151360
1731  2023-11-09 11:15:27.198204
1732  2023-11-09 11:15:27.230119
1733  2023-11-09 11:15:27.275996
1734  2023-11-09 11:15:27.322908
1735  2023-11-09 11:15:27.353787
1736  2023-11-09 11:15:27.401154
1737  2023-11-09 11:15:27.448096
1738  2023-11-09 11:15:27.479013
1739  2023-11-09 11:15:27.526921
1740  2023-11-09 11:15:27.558808
1741  2023-11-09 11:15:27.606768
1742  2023-11-09 11:15:27.654672
1743  2023-11-09 11:15:27.685558
1744  2023-11-09 11:15:27.732468
1745  2023-11-09 11:15:27.778347
1746  2023-11-09 11:15:27.810262
1747  2023-11-09 11:15:27.856149
1748  2023-11-09 11:15:27.904169
1749  2023-11-09 11:15:27.936083
1750  2023-11-09 11:15:27.983975
1751  2023-11-09 11:15:28.031838
1752  2023-11-09 11:15:28.063745
1753  2023-11-09 11:15:28.111617
1754  2023-11-09 11:15:28.143534
1755  2023-11-09 11:15:28.190244
1756  2023-11-09 11:15:28.237137
1757  2023-11-09 11:15:28.269044
1758  2023-11-09 11:15:28.316917
1759  2023-11-09 11:15:28.365742
1760  2023-11-09 11:15:28.396698
1761  2023-11-09 11:15:28.444563
1762  2023-11-09 11:15:28.476446
1763  2023-11-09 11:15:28.524349
1764  2023-11-09 11:15:28.572392
1765  2023-11-09 11:15:28.604308
1766  2023-11-09 11:15:28.652147
1767  2023-11-09 11:15:28.699054
1768  2023-11-09 11:15:28.730972
1769  2023-11-09 11:15:28.777845
1770  2023-11-09 11:15:28.808729
1771  2023-11-09 11:15:28.856635
1772  2023-11-09 11:15:28.904508
1773  2023-11-09 11:15:28.936564
1774  2023-11-09 11:15:28.983262
1775  2023-11-09 11:15:29.029487
1776  2023-11-09 11:15:29.060378
1777  2023-11-09 11:15:29.108349
1778  2023-11-09 11:15:29.156240
1779  2023-11-09 11:15:29.188135
1780  2023-11-09 11:15:29.236028
1781  2023-11-09 11:15:29.267927
1782  2023-11-09 11:15:29.315761
1783  2023-11-09 11:15:29.363670
1784  2023-11-09 11:15:29.395582
1785  2023-11-09 11:15:29.443450
1786  2023-11-09 11:15:29.475382
1787  2023-11-09 11:15:29.523244
1788  2023-11-09 11:15:29.571119
1789  2023-11-09 11:15:29.603028
1790  2023-11-09 11:15:29.650866
1791  2023-11-09 11:15:29.698791
1792  2023-11-09 11:15:29.729685
1793  2023-11-09 11:15:29.776568
1794  2023-11-09 11:15:29.822438
1795  2023-11-09 11:15:29.854322
1796  2023-11-09 11:15:29.901232
1797  2023-11-09 11:15:29.948104
1798  2023-11-09 11:15:29.980021
1799  2023-11-09 11:15:30.027077
1800  2023-11-09 11:15:30.075038
1801  2023-11-09 11:15:30.106958
1802  2023-11-09 11:15:30.154814
1803  2023-11-09 11:15:30.186732
1804  2023-11-09 11:15:30.233022
1805  2023-11-09 11:15:30.280892
1806  2023-11-09 11:15:30.310780
1807  2023-11-09 11:15:30.357689
1808  2023-11-09 11:15:30.404565
1809  2023-11-09 11:15:30.435481
1810  2023-11-09 11:15:30.482321
1811  2023-11-09 11:15:30.530193
1812  2023-11-09 11:15:30.562140
1813  2023-11-09 11:15:30.610014
1814  2023-11-09 11:15:30.641929
1815  2023-11-09 11:15:30.689799
1816  2023-11-09 11:15:30.737685
1817  2023-11-09 11:15:30.769610
1818  2023-11-09 11:15:30.817457
1819  2023-11-09 11:15:30.865521
1820  2023-11-09 11:15:30.897601
1821  2023-11-09 11:15:30.945309
1822  2023-11-09 11:15:30.977223
1823  2023-11-09 11:15:31.024877
1824  2023-11-09 11:15:31.072772
1825  2023-11-09 11:15:31.104661
1826  2023-11-09 11:15:31.152558
1827  2023-11-09 11:15:31.184417
1828  2023-11-09 11:15:31.231326
1829  2023-11-09 11:15:31.278200
1830  2023-11-09 11:15:31.310215
1831  2023-11-09 11:15:31.358151
1832  2023-11-09 11:15:31.405997
1833  2023-11-09 11:15:31.438907
1834  2023-11-09 11:15:31.485812
1835  2023-11-09 11:15:31.517725
1836  2023-11-09 11:15:31.563603
1837  2023-11-09 11:15:31.609478
1838  2023-11-09 11:15:31.657920
1839  2023-11-09 11:15:31.688837
1840  2023-11-09 11:15:31.737742
1841  2023-11-09 11:15:31.768663
1842  2023-11-09 11:15:31.816525
1843  2023-11-09 11:15:31.864404
1844  2023-11-09 11:15:31.894762
1845  2023-11-09 11:15:31.942607
1846  2023-11-09 11:15:31.990587
1847  2023-11-09 11:15:32.022331
1848  2023-11-09 11:15:32.070288
1849  2023-11-09 11:15:32.102197
1850  2023-11-09 11:15:32.150039
1851  2023-11-09 11:15:32.197945
1852  2023-11-09 11:15:32.229861
1853  2023-11-09 11:15:32.277461
1854  2023-11-09 11:15:32.309416
1855  2023-11-09 11:15:32.356322
1856  2023-11-09 11:15:32.401201
1857  2023-11-09 11:15:32.449042
1858  2023-11-09 11:15:32.479960
1859  2023-11-09 11:15:32.526834
1860  2023-11-09 11:15:32.558749
1861  2023-11-09 11:15:32.606656
1862  2023-11-09 11:15:32.654523
1863  2023-11-09 11:15:32.686408
1864  2023-11-09 11:15:32.734311
1865  2023-11-09 11:15:32.782202
1866  2023-11-09 11:15:32.814100
1867  2023-11-09 11:15:32.861991
1868  2023-11-09 11:15:32.893895
1869  2023-11-09 11:15:32.941859
1870  2023-11-09 11:15:32.989709
1871  2023-11-09 11:15:33.021749
1872  2023-11-09 11:15:33.068501
1873  2023-11-09 11:15:33.115378
1874  2023-11-09 11:15:33.147288
1875  2023-11-09 11:15:33.195166
1876  2023-11-09 11:15:33.227084
1877  2023-11-09 11:15:33.274917
1878  2023-11-09 11:15:33.322788
1879  2023-11-09 11:15:33.353738
1880  2023-11-09 11:15:33.401610
1881  2023-11-09 11:15:33.449066
1882  2023-11-09 11:15:33.480981
1883  2023-11-09 11:15:33.528870
1884  2023-11-09 11:15:33.560767
1885  2023-11-09 11:15:33.608643
1886  2023-11-09 11:15:33.656521
1887  2023-11-09 11:15:33.688430
1888  2023-11-09 11:15:33.736300
1889  2023-11-09 11:15:33.768213
1890  2023-11-09 11:15:33.815091
1891  2023-11-09 11:15:33.862979
1892  2023-11-09 11:15:33.892882
1893  2023-11-09 11:15:33.939754
1894  2023-11-09 11:15:33.985601
1895  2023-11-09 11:15:34.031513
1896  2023-11-09 11:15:34.063395
1897  2023-11-09 11:15:34.111265
1898  2023-11-09 11:15:34.143213
1899  2023-11-09 11:15:34.191052
1900  2023-11-09 11:15:34.238964
1901  2023-11-09 11:15:34.270448
1902  2023-11-09 11:15:34.318353
1903  2023-11-09 11:15:34.350297
1904  2023-11-09 11:15:34.398152
1905  2023-11-09 11:15:34.446012
1906  2023-11-09 11:15:34.477926
1907  2023-11-09 11:15:34.525798
1908  2023-11-09 11:15:34.574744
1909  2023-11-09 11:15:34.605618
1910  2023-11-09 11:15:34.653490
1911  2023-11-09 11:15:34.684408
1912  2023-11-09 11:15:34.731282
1913  2023-11-09 11:15:34.778155
1914  2023-11-09 11:15:34.809075
1915  2023-11-09 11:15:34.856952
1916  2023-11-09 11:15:34.904787
1917  2023-11-09 11:15:34.936756
1918  2023-11-09 11:15:34.984628
1919  2023-11-09 11:15:35.032480
1920  2023-11-09 11:15:35.064388
1921  2023-11-09 11:15:35.110273
1922  2023-11-09 11:15:35.142310
1923  2023-11-09 11:15:35.190056
1924  2023-11-09 11:15:35.237928
1925  2023-11-09 11:15:35.269845
1926  2023-11-09 11:15:35.317766
1927  2023-11-09 11:15:35.363749
1928  2023-11-09 11:15:35.395661
1929  2023-11-09 11:15:35.443534
1930  2023-11-09 11:15:35.475461
1931  2023-11-09 11:15:35.523318
1932  2023-11-09 11:15:35.569164
1933  2023-11-09 11:15:35.601079
1934  2023-11-09 11:15:35.646956
1935  2023-11-09 11:15:35.694842
1936  2023-11-09 11:15:35.726743
1937  2023-11-09 11:15:35.774663
1938  2023-11-09 11:15:35.822487
1939  2023-11-09 11:15:35.854402
1940  2023-11-09 11:15:35.902276
1941  2023-11-09 11:15:35.934191
1942  2023-11-09 11:15:35.981096
1943  2023-11-09 11:15:36.027942
1944  2023-11-09 11:15:36.058889
1945  2023-11-09 11:15:36.105762
1946  2023-11-09 11:15:36.153642
1947  2023-11-09 11:15:36.185549
1948  2023-11-09 11:15:36.232423
1949  2023-11-09 11:15:36.278299
1950  2023-11-09 11:15:36.309218
1951  2023-11-09 11:15:36.357089
1952  2023-11-09 11:15:36.404962
1953  2023-11-09 11:15:36.435884
1954  2023-11-09 11:15:36.483719
1955  2023-11-09 11:15:36.531194
1956  2023-11-09 11:15:36.563110
1957  2023-11-09 11:15:36.610023
1958  2023-11-09 11:15:36.641959
1959  2023-11-09 11:15:36.688772
1960  2023-11-09 11:15:36.734652
1961  2023-11-09 11:15:36.781524
1962  2023-11-09 11:15:36.812473
1963  2023-11-09 11:15:36.860345
1964  2023-11-09 11:15:36.893265
1965  2023-11-09 11:15:36.940133
1966  2023-11-09 11:15:36.987974
1967  2023-11-09 11:15:37.019919
1968  2023-11-09 11:15:37.066792
1969  2023-11-09 11:15:37.113728
1970  2023-11-09 11:15:37.145597
1971  2023-11-09 11:15:37.193454
1972  2023-11-09 11:15:37.225339
1973  2023-11-09 11:15:37.273242
1974  2023-11-09 11:15:37.319445
1975  2023-11-09 11:15:37.351353
1976  2023-11-09 11:15:37.399306
1977  2023-11-09 11:15:37.447160
1978  2023-11-09 11:15:37.479077
1979  2023-11-09 11:15:37.525954
1980  2023-11-09 11:15:37.573822
1981  2023-11-09 11:15:37.605704
1982  2023-11-09 11:15:37.653608
1983  2023-11-09 11:15:37.685534
1984  2023-11-09 11:15:37.730443
1985  2023-11-09 11:15:37.777946
1986  2023-11-09 11:15:37.809934
1987  2023-11-09 11:15:37.857773
1988  2023-11-09 11:15:37.905678
1989  2023-11-09 11:15:37.937114
1990  2023-11-09 11:15:37.983958
1991  2023-11-09 11:15:38.031866
1992  2023-11-09 11:15:38.063779
1993  2023-11-09 11:15:38.111617
1994  2023-11-09 11:15:38.143565
1995  2023-11-09 11:15:38.191404
1996  2023-11-09 11:15:38.239277
1997  2023-11-09 11:15:38.271225
1998  2023-11-09 11:15:38.320069
1999  2023-11-09 11:15:38.364974
2000  2023-11-09 11:15:38.396855
2001  2023-11-09 11:15:38.443769
2002  2023-11-09 11:15:38.475684
2003  2023-11-09 11:15:38.523564
2004  2023-11-09 11:15:38.569518
2005  2023-11-09 11:15:38.601430
2006  2023-11-09 11:15:38.649306
2007  2023-11-09 11:15:38.697144
2008  2023-11-09 11:15:38.729115
2009  2023-11-09 11:15:38.776964
2010  2023-11-09 11:15:38.808879
2011  2023-11-09 11:15:38.856717
2012  2023-11-09 11:15:38.904622
2013  2023-11-09 11:15:38.936534
2014  2023-11-09 11:15:38.984409
2015  2023-11-09 11:15:39.030289
2016  2023-11-09 11:15:39.062199
2017  2023-11-09 11:15:39.110075
2018  2023-11-09 11:15:39.156803
2019  2023-11-09 11:15:39.188798
2020  2023-11-09 11:15:39.233681
2021  2023-11-09 11:15:39.281519
2022  2023-11-09 11:15:39.312299
2023  2023-11-09 11:15:39.358177
2024  2023-11-09 11:15:39.406050
2025  2023-11-09 11:15:39.436976
2026  2023-11-09 11:15:39.481848
2027  2023-11-09 11:15:39.529748
2028  2023-11-09 11:15:39.561665
2029  2023-11-09 11:15:39.609549
2030  2023-11-09 11:15:39.655444
2031  2023-11-09 11:15:39.686395
2032  2023-11-09 11:15:39.733268
2033  2023-11-09 11:15:39.781138
2034  2023-11-09 11:15:39.813023
2035  2023-11-09 11:15:39.860930
2036  2023-11-09 11:15:39.892846
2037  2023-11-09 11:15:39.940714
2038  2023-11-09 11:15:39.988592
2039  2023-11-09 11:15:40.020295
2040  2023-11-09 11:15:40.068173
2041  2023-11-09 11:15:40.116045
2042  2023-11-09 11:15:40.146986
2043  2023-11-09 11:15:40.194945
2044  2023-11-09 11:15:40.226857
2045  2023-11-09 11:15:40.271742
2046  2023-11-09 11:15:40.319575
2047  2023-11-09 11:15:40.351490
2048  2023-11-09 11:15:40.399363
2049  2023-11-09 11:15:40.447233
2050  2023-11-09 11:15:40.479148
2051  2023-11-09 11:15:40.527020
2052  2023-11-09 11:15:40.558935
2053  2023-11-09 11:15:40.606852
2054  2023-11-09 11:15:40.654679
2055  2023-11-09 11:15:40.686593
2056  2023-11-09 11:15:40.732517
2057  2023-11-09 11:15:40.779345
2058  2023-11-09 11:15:40.810362
2059  2023-11-09 11:15:40.858296
2060  2023-11-09 11:15:40.906134
2061  2023-11-09 11:15:40.938020
2062  2023-11-09 11:15:40.985612
2063  2023-11-09 11:15:41.017009
2064  2023-11-09 11:15:41.064917
2065  2023-11-09 11:15:41.110794
2066  2023-11-09 11:15:41.142714
2067  2023-11-09 11:15:41.190701
2068  2023-11-09 11:15:41.236579
2069  2023-11-09 11:15:41.268697
2070  2023-11-09 11:15:41.316540
2071  2023-11-09 11:15:41.363450
2072  2023-11-09 11:15:41.395408
2073  2023-11-09 11:15:41.442437
2074  2023-11-09 11:15:41.490298
2075  2023-11-09 11:15:41.522216
2076  2023-11-09 11:15:41.568096
2077  2023-11-09 11:15:41.615077
2078  2023-11-09 11:15:41.646849
2079  2023-11-09 11:15:41.694900
2080  2023-11-09 11:15:41.726756
2081  2023-11-09 11:15:41.774657
2082  2023-11-09 11:15:41.822500
2083  2023-11-09 11:15:41.854479
2084  2023-11-09 11:15:41.900357
2085  2023-11-09 11:15:41.948229
2086  2023-11-09 11:15:41.980143
2087  2023-11-09 11:15:42.026021
2088  2023-11-09 11:15:42.072128
2089  2023-11-09 11:15:42.104041
2090  2023-11-09 11:15:42.151914
2091  2023-11-09 11:15:42.183796
2092  2023-11-09 11:15:42.231703
2093  2023-11-09 11:15:42.279575
2094  2023-11-09 11:15:42.311541
2095  2023-11-09 11:15:42.359362
2096  2023-11-09 11:15:42.407289
2097  2023-11-09 11:15:42.439148
2098  2023-11-09 11:15:42.487056
2099  2023-11-09 11:15:42.519025
2100  2023-11-09 11:15:42.567061
2101  2023-11-09 11:15:42.614572
2102  2023-11-09 11:15:42.646667
2103  2023-11-09 11:15:42.694585
2104  2023-11-09 11:15:42.726496
2105  2023-11-09 11:15:42.774456
2106  2023-11-09 11:15:42.822335
2107  2023-11-09 11:15:42.854211
2108  2023-11-09 11:15:42.902125
2109  2023-11-09 11:15:42.934033
2110  2023-11-09 11:15:42.981870
2111  2023-11-09 11:15:43.029779
2112  2023-11-09 11:15:43.061691
2113  2023-11-09 11:15:43.109558
2114  2023-11-09 11:15:43.157434
2115  2023-11-09 11:15:43.188351
2116  2023-11-09 11:15:43.234196
2117  2023-11-09 11:15:43.281071
2118  2023-11-09 11:15:43.313984
2119  2023-11-09 11:15:43.360856
2120  2023-11-09 11:15:43.406783
2121  2023-11-09 11:15:43.437682
2122  2023-11-09 11:15:43.485523
2123  2023-11-09 11:15:43.532398
2124  2023-11-09 11:15:43.564346
2125  2023-11-09 11:15:43.612184
2126  2023-11-09 11:15:43.643690
2127  2023-11-09 11:15:43.691433
2128  2023-11-09 11:15:43.739368
2129  2023-11-09 11:15:43.771283
2130  2023-11-09 11:15:43.818157
2131  2023-11-09 11:15:43.865084
2132  2023-11-09 11:15:43.896996
2133  2023-11-09 11:15:43.944819
2134  2023-11-09 11:15:43.976768
2135  2023-11-09 11:15:44.024605
2136  2023-11-09 11:15:44.072510
2137  2023-11-09 11:15:44.104427
2138  2023-11-09 11:15:44.152264
2139  2023-11-09 11:15:44.198176
2140  2023-11-09 11:15:44.229091
2141  2023-11-09 11:15:44.276962
2142  2023-11-09 11:15:44.322809
2143  2023-11-09 11:15:44.354757
2144  2023-11-09 11:15:44.401639
2145  2023-11-09 11:15:44.433639
2146  2023-11-09 11:15:44.481505
2147  2023-11-09 11:15:44.529376
2148  2023-11-09 11:15:44.561377
2149  2023-11-09 11:15:44.609753
2150  2023-11-09 11:15:44.656016
2151  2023-11-09 11:15:44.687977
2152  2023-11-09 11:15:44.733947
2153  2023-11-09 11:15:44.779829
2154  2023-11-09 11:15:44.810888
2155  2023-11-09 11:15:44.857874
2156  2023-11-09 11:15:44.905787
2157  2023-11-09 11:15:44.936706
2158  2023-11-09 11:15:44.982573
2159  2023-11-09 11:15:45.029466
2160  2023-11-09 11:15:45.061370
2161  2023-11-09 11:15:45.107238
2162  2023-11-09 11:15:45.154082
2163  2023-11-09 11:15:45.185035
2164  2023-11-09 11:15:45.231918
2165  2023-11-09 11:15:45.278782
2166  2023-11-09 11:15:45.309666
2167  2023-11-09 11:15:45.356715
2168  2023-11-09 11:15:45.404631
2169  2023-11-09 11:15:45.434507
2170  2023-11-09 11:15:45.481219
2171  2023-11-09 11:15:45.529020
2172  2023-11-09 11:15:45.559900
2173  2023-11-09 11:15:45.607808
2174  2023-11-09 11:15:45.653685
2175  2023-11-09 11:15:45.685564
2176  2023-11-09 11:15:45.732471
2177  2023-11-09 11:15:45.778359
2178  2023-11-09 11:15:45.809278
2179  2023-11-09 11:15:45.858152
2180  2023-11-09 11:15:45.904012
2181  2023-11-09 11:15:45.936924
2182  2023-11-09 11:15:45.982803
2183  2023-11-09 11:15:46.030691
2184  2023-11-09 11:15:46.062589
2185  2023-11-09 11:15:46.110462
2186  2023-11-09 11:15:46.142387
2187  2023-11-09 11:15:46.190261
2188  2023-11-09 11:15:46.239085
2189  2023-11-09 11:15:46.270999
2190  2023-11-09 11:15:46.315045
2191  2023-11-09 11:15:46.361756
2192  2023-11-09 11:15:46.392890
2193  2023-11-09 11:15:46.439801
2194  2023-11-09 11:15:46.487636
2195  2023-11-09 11:15:46.519551
2196  2023-11-09 11:15:46.565472
2197  2023-11-09 11:15:46.611346
2198  2023-11-09 11:15:46.643255
2199  2023-11-09 11:15:46.689132
2200  2023-11-09 11:15:46.736970
2201  2023-11-09 11:15:46.769031
2202  2023-11-09 11:15:46.816790
2203  2023-11-09 11:15:46.864674
2204  2023-11-09 11:15:46.897577
2205  2023-11-09 11:15:46.943456
2206  2023-11-09 11:15:46.990384
2207  2023-11-09 11:15:47.022297
2208  2023-11-09 11:15:47.070200
2209  2023-11-09 11:15:47.102117
2210  2023-11-09 11:15:47.150005
2211  2023-11-09 11:15:47.196833
2212  2023-11-09 11:15:47.227747
2213  2023-11-09 11:15:47.275619
2214  2023-11-09 11:15:47.323710
2215  2023-11-09 11:15:47.355624
2216  2023-11-09 11:15:47.401502
2217  2023-11-09 11:15:47.448377
2218  2023-11-09 11:15:47.480276
2219  2023-11-09 11:15:47.528217
2220  2023-11-09 11:15:47.560132
2221  2023-11-09 11:15:47.608038
2222  2023-11-09 11:15:47.656032
2223  2023-11-09 11:15:47.687946
2224  2023-11-09 11:15:47.735854
2225  2023-11-09 11:15:47.767773
2226  2023-11-09 11:15:47.815605
2227  2023-11-09 11:15:47.863517
2228  2023-11-09 11:15:47.894438
2229  2023-11-09 11:15:47.940321
2230  2023-11-09 11:15:47.986179
2231  2023-11-09 11:15:48.017100
2232  2023-11-09 11:15:48.064975
2233  2023-11-09 11:15:48.112844
2234  2023-11-09 11:15:48.144762
2235  2023-11-09 11:15:48.192635
2236  2023-11-09 11:15:48.240471
2237  2023-11-09 11:15:48.272427
2238  2023-11-09 11:15:48.320291
2239  2023-11-09 11:15:48.352209
2240  2023-11-09 11:15:48.401087
2241  2023-11-09 11:15:48.447950
2242  2023-11-09 11:15:48.477870
2243  2023-11-09 11:15:48.525755
2244  2023-11-09 11:15:48.572571
2245  2023-11-09 11:15:48.605491
2246  2023-11-09 11:15:48.652521
2247  2023-11-09 11:15:48.698384
2248  2023-11-09 11:15:48.729709
2249  2023-11-09 11:15:48.775639
2250  2023-11-09 11:15:48.823458
2251  2023-11-09 11:15:48.855373
2252  2023-11-09 11:15:48.902282
2253  2023-11-09 11:15:48.948161
2254  2023-11-09 11:15:48.979083
2255  2023-11-09 11:15:49.026956
2256  2023-11-09 11:15:49.058830
2257  2023-11-09 11:15:49.106734
2258  2023-11-09 11:15:49.154604
2259  2023-11-09 11:15:49.186518
2260  2023-11-09 11:15:49.234395
2261  2023-11-09 11:15:49.282267
2262  2023-11-09 11:15:49.312771
2263  2023-11-09 11:15:49.360657
2264  2023-11-09 11:15:49.392553
2265  2023-11-09 11:15:49.440433
2266  2023-11-09 11:15:49.488432
2267  2023-11-09 11:15:49.520211
2268  2023-11-09 11:15:49.568103
2269  2023-11-09 11:15:49.614959
2270  2023-11-09 11:15:49.645881
2271  2023-11-09 11:15:49.693749
2272  2023-11-09 11:15:49.725684
2273  2023-11-09 11:15:49.773502
2274  2023-11-09 11:15:49.821373
2275  2023-11-09 11:15:49.852356
2276  2023-11-09 11:15:49.899199
2277  2023-11-09 11:15:49.947069
2278  2023-11-09 11:15:49.977954
2279  2023-11-09 11:15:50.025918
2280  2023-11-09 11:15:50.072941
2281  2023-11-09 11:15:50.103837
2282  2023-11-09 11:15:50.151758
2283  2023-11-09 11:15:50.183585
2284  2023-11-09 11:15:50.230515
2285  2023-11-09 11:15:50.277368
2286  2023-11-09 11:15:50.309289
2287  2023-11-09 11:15:50.356124
2288  2023-11-09 11:15:50.404038
2289  2023-11-09 11:15:50.435912
2290  2023-11-09 11:15:50.483783
2291  2023-11-09 11:15:50.531688
2292  2023-11-09 11:15:50.563622
2293  2023-11-09 11:15:50.611475
2294  2023-11-09 11:15:50.643386
2295  2023-11-09 11:15:50.691258
2296  2023-11-09 11:15:50.738646
2297  2023-11-09 11:15:50.770672
2298  2023-11-09 11:15:50.818608
2299  2023-11-09 11:15:50.850558
2300  2023-11-09 11:15:50.898430
2301  2023-11-09 11:15:50.946304
2302  2023-11-09 11:15:50.976568
2303  2023-11-09 11:15:51.024471
2304  2023-11-09 11:15:51.072319
2305  2023-11-09 11:15:51.105226
2306  2023-11-09 11:15:51.150135
2307  2023-11-09 11:15:51.196981
2308  2023-11-09 11:15:51.228938
2309  2023-11-09 11:15:51.276867
2310  2023-11-09 11:15:51.322927
2311  2023-11-09 11:15:51.352684
2312  2023-11-09 11:15:51.400587
2313  2023-11-09 11:15:51.447034
2314  2023-11-09 11:15:51.478951
2315  2023-11-09 11:15:51.526823
2316  2023-11-09 11:15:51.558737
2317  2023-11-09 11:15:51.606648
2318  2023-11-09 11:15:51.654481
2319  2023-11-09 11:15:51.686396
2320  2023-11-09 11:15:51.734306
2321  2023-11-09 11:15:51.782285
2322  2023-11-09 11:15:51.814305
2323  2023-11-09 11:15:51.862180
2324  2023-11-09 11:15:51.894073
2325  2023-11-09 11:15:51.941005
2326  2023-11-09 11:15:51.988820
2327  2023-11-09 11:15:52.020734
2328  2023-11-09 11:15:52.066645
2329  2023-11-09 11:15:52.114525
2330  2023-11-09 11:15:52.145439
2331  2023-11-09 11:15:52.192307
2332  2023-11-09 11:15:52.240180
2333  2023-11-09 11:15:52.272100
2334  2023-11-09 11:15:52.317977
2335  2023-11-09 11:15:52.364842
2336  2023-11-09 11:15:52.395765
2337  2023-11-09 11:15:52.443646
2338  2023-11-09 11:15:52.475565
2339  2023-11-09 11:15:52.523391
2340  2023-11-09 11:15:52.571294
2341  2023-11-09 11:15:52.604177
2342  2023-11-09 11:15:52.650056
2343  2023-11-09 11:15:52.697954
2344  2023-11-09 11:15:52.729872
2345  2023-11-09 11:15:52.777751
2346  2023-11-09 11:15:52.809658
2347  2023-11-09 11:15:52.857530
2348  2023-11-09 11:15:52.905410
2349  2023-11-09 11:15:52.937339
2350  2023-11-09 11:15:52.985190
2351  2023-11-09 11:15:53.018068
2352  2023-11-09 11:15:53.066002
2353  2023-11-09 11:15:53.111850
2354  2023-11-09 11:15:53.142771
2355  2023-11-09 11:15:53.189609
2356  2023-11-09 11:15:53.236535
2357  2023-11-09 11:15:53.268436
2358  2023-11-09 11:15:53.316271
2359  2023-11-09 11:15:53.364178
2360  2023-11-09 11:15:53.396143
2361  2023-11-09 11:15:53.444024
2362  2023-11-09 11:15:53.489934
2363  2023-11-09 11:15:53.521849
2364  2023-11-09 11:15:53.569757
2365  2023-11-09 11:15:53.601465
2366  2023-11-09 11:15:53.649389
2367  2023-11-09 11:15:53.698259
2368  2023-11-09 11:15:53.729210
2369  2023-11-09 11:15:53.777084
2370  2023-11-09 11:15:53.809002
2371  2023-11-09 11:15:53.855837
2372  2023-11-09 11:15:53.903762
2373  2023-11-09 11:15:53.935668
2374  2023-11-09 11:15:53.980538
2375  2023-11-09 11:15:54.027191
2376  2023-11-09 11:15:54.059075
2377  2023-11-09 11:15:54.106994
2378  2023-11-09 11:15:54.152856
2379  2023-11-09 11:15:54.198702
2380  2023-11-09 11:15:54.230648
2381  2023-11-09 11:15:54.278518
2382  2023-11-09 11:15:54.310439
2383  2023-11-09 11:15:54.358274
2384  2023-11-09 11:15:54.405186
2385  2023-11-09 11:15:54.436935
2386  2023-11-09 11:15:54.484655
2387  2023-11-09 11:15:54.531564
2388  2023-11-09 11:15:54.561482
2389  2023-11-09 11:15:54.608365
2390  2023-11-09 11:15:54.655667
2391  2023-11-09 11:15:54.687582
2392  2023-11-09 11:15:54.733493
2393  2023-11-09 11:15:54.781360
2394  2023-11-09 11:15:54.813341
2395  2023-11-09 11:15:54.861073
2396  2023-11-09 11:15:54.892985
2397  2023-11-09 11:15:54.940840
2398  2023-11-09 11:15:54.988736
2399  2023-11-09 11:15:55.020646
2400  2023-11-09 11:15:55.069268
2401  2023-11-09 11:15:55.100226
2402  2023-11-09 11:15:55.148097
2403  2023-11-09 11:15:55.193968
2404  2023-11-09 11:15:55.225880
2405  2023-11-09 11:15:55.273761
2406  2023-11-09 11:15:55.321592
2407  2023-11-09 11:15:55.353538
2408  2023-11-09 11:15:55.401409
2409  2023-11-09 11:15:55.449280
2410  2023-11-09 11:15:55.480212
2411  2023-11-09 11:15:55.528039
2412  2023-11-09 11:15:55.559954
2413  2023-11-09 11:15:55.607859
2414  2023-11-09 11:15:55.655735
2415  2023-11-09 11:15:55.687643
2416  2023-11-09 11:15:55.735518
2417  2023-11-09 11:15:55.783387
2418  2023-11-09 11:15:55.816271
2419  2023-11-09 11:15:55.863176
2420  2023-11-09 11:15:55.895157
2421  2023-11-09 11:15:55.942109
2422  2023-11-09 11:15:55.991255
2423  2023-11-09 11:15:56.023168
2424  2023-11-09 11:15:56.069442
2425  2023-11-09 11:15:56.101357
2426  2023-11-09 11:15:56.149230
2427  2023-11-09 11:15:56.197035
2428  2023-11-09 11:15:56.226959
2429  2023-11-09 11:15:56.274903
2430  2023-11-09 11:15:56.322740
2431  2023-11-09 11:15:56.354655
2432  2023-11-09 11:15:56.401561
2433  2023-11-09 11:15:56.447407
2434  2023-11-09 11:15:56.479321
2435  2023-11-09 11:15:56.527193
2436  2023-11-09 11:15:56.559108
2437  2023-11-09 11:15:56.606982
2438  2023-11-09 11:15:56.654885
2439  2023-11-09 11:15:56.686767
2440  2023-11-09 11:15:56.733690
2441  2023-11-09 11:15:56.780548
2442  2023-11-09 11:15:56.812539
2443  2023-11-09 11:15:56.861430
2444  2023-11-09 11:15:56.892345
2445  2023-11-09 11:15:56.940294
2446  2023-11-09 11:15:56.988165
2447  2023-11-09 11:15:57.020083
2448  2023-11-09 11:15:57.067960
2449  2023-11-09 11:15:57.114829
2450  2023-11-09 11:15:57.145744
2451  2023-11-09 11:15:57.193621
2452  2023-11-09 11:15:57.225533
2453  2023-11-09 11:15:57.273373
2454  2023-11-09 11:15:57.321244
2455  2023-11-09 11:15:57.353203
2456  2023-11-09 11:15:57.401062
2457  2023-11-09 11:15:57.448948
2458  2023-11-09 11:15:57.480421
2459  2023-11-09 11:15:57.528370
2460  2023-11-09 11:15:57.560252
2461  2023-11-09 11:15:57.608155
2462  2023-11-09 11:15:57.656030
2463  2023-11-09 11:15:57.687943
2464  2023-11-09 11:15:57.735811
2465  2023-11-09 11:15:57.768740
2466  2023-11-09 11:15:57.814613
2467  2023-11-09 11:15:57.860449
2468  2023-11-09 11:15:57.907324
2469  2023-11-09 11:15:57.938276
2470  2023-11-09 11:15:57.985116
2471  2023-11-09 11:15:58.032042
2472  2023-11-09 11:15:58.063940
2473  2023-11-09 11:15:58.111777
2474  2023-11-09 11:15:58.143723
2475  2023-11-09 11:15:58.191564
2476  2023-11-09 11:15:58.238440
2477  2023-11-09 11:15:58.269356
2478  2023-11-09 11:15:58.315267
2479  2023-11-09 11:15:58.363137
2480  2023-11-09 11:15:58.396019
2481  2023-11-09 11:15:58.442929
2482  2023-11-09 11:15:58.489800
2483  2023-11-09 11:15:58.520719
2484  2023-11-09 11:15:58.567593
2485  2023-11-09 11:15:58.613471
2486  2023-11-09 11:15:58.646383
2487  2023-11-09 11:15:58.691228
2488  2023-11-09 11:15:58.737135
2489  2023-11-09 11:15:58.769068
2490  2023-11-09 11:15:58.815895
2491  2023-11-09 11:15:58.864796
2492  2023-11-09 11:15:58.895825
2493  2023-11-09 11:15:58.943686
2494  2023-11-09 11:15:58.975562
2495  2023-11-09 11:15:59.022441
2496  2023-11-09 11:15:59.069342
2497  2023-11-09 11:15:59.101259
2498  2023-11-09 11:15:59.149149
2499  2023-11-09 11:15:59.197060
2500  2023-11-09 11:15:59.228937
2501  2023-11-09 11:15:59.276808
2502  2023-11-09 11:15:59.308723
2503  2023-11-09 11:15:59.356595
2504  2023-11-09 11:15:59.404498
2505  2023-11-09 11:15:59.436417
2506  2023-11-09 11:15:59.483297
2507  2023-11-09 11:15:59.530167
2508  2023-11-09 11:15:59.562080
2509  2023-11-09 11:15:59.609970
2510  2023-11-09 11:15:59.656832
2511  2023-11-09 11:15:59.688747
2512  2023-11-09 11:15:59.735324
2513  2023-11-09 11:15:59.767256
2514  2023-11-09 11:15:59.815259
2515  2023-11-09 11:15:59.863083
2516  2023-11-09 11:15:59.895148
2517  2023-11-09 11:15:59.942902
2518  2023-11-09 11:15:59.989745
2519  2023-11-09 11:16:00.020705
2520  2023-11-09 11:16:00.068570
2521  2023-11-09 11:16:00.101480
2522  2023-11-09 11:16:00.148353
2523  2023-11-09 11:16:00.197193
2524  2023-11-09 11:16:00.229135
2525  2023-11-09 11:16:00.274704
2526  2023-11-09 11:16:00.322610
2527  2023-11-09 11:16:00.354525
2528  2023-11-09 11:16:00.402583
2529  2023-11-09 11:16:00.434360
2530  2023-11-09 11:16:00.481186
2531  2023-11-09 11:16:00.528063
2532  2023-11-09 11:16:00.559061
2533  2023-11-09 11:16:00.604970
2534  2023-11-09 11:16:00.652845
2535  2023-11-09 11:16:00.684760
2536  2023-11-09 11:16:00.730638
2537  2023-11-09 11:16:00.776513
2538  2023-11-09 11:16:00.823391
2539  2023-11-09 11:16:00.854303
2540  2023-11-09 11:16:00.902177
2541  2023-11-09 11:16:00.948756
2542  2023-11-09 11:16:00.980743
2543  2023-11-09 11:16:01.029612
2544  2023-11-09 11:16:01.060595
2545  2023-11-09 11:16:01.108412
2546  2023-11-09 11:16:01.156274
2547  2023-11-09 11:16:01.188157
2548  2023-11-09 11:16:01.233068
2549  2023-11-09 11:16:01.280906
2550  2023-11-09 11:16:01.312303
2551  2023-11-09 11:16:01.360217
2552  2023-11-09 11:16:01.392129
2553  2023-11-09 11:16:01.439006
2554  2023-11-09 11:16:01.485878
2555  2023-11-09 11:16:01.531795
2556  2023-11-09 11:16:01.562710
2557  2023-11-09 11:16:01.610584
2558  2023-11-09 11:16:01.642521
2559  2023-11-09 11:16:01.690365
2560  2023-11-09 11:16:01.739201
2561  2023-11-09 11:16:01.769158
2562  2023-11-09 11:16:01.817028
2563  2023-11-09 11:16:01.864865
2564  2023-11-09 11:16:01.896780
2565  2023-11-09 11:16:01.944684
2566  2023-11-09 11:16:01.976598
2567  2023-11-09 11:16:02.022444
2568  2023-11-09 11:16:02.070364
2569  2023-11-09 11:16:02.102267
2570  2023-11-09 11:16:02.150149
2571  2023-11-09 11:16:02.196017
2572  2023-11-09 11:16:02.227722
2573  2023-11-09 11:16:02.275683
2574  2023-11-09 11:16:02.323552
2575  2023-11-09 11:16:02.355588
2576  2023-11-09 11:16:02.403395
2577  2023-11-09 11:16:02.435356
2578  2023-11-09 11:16:02.483348
2579  2023-11-09 11:16:02.531375
2580  2023-11-09 11:16:02.563271
2581  2023-11-09 11:16:02.611129
2582  2023-11-09 11:16:02.643122
2583  2023-11-09 11:16:02.689010
2584  2023-11-09 11:16:02.736918
2585  2023-11-09 11:16:02.767800
2586  2023-11-09 11:16:02.813677
2587  2023-11-09 11:16:02.861586
2588  2023-11-09 11:16:02.893494
2589  2023-11-09 11:16:02.941367
2590  2023-11-09 11:16:02.989269
2591  2023-11-09 11:16:03.021315
2592  2023-11-09 11:16:03.069089
2593  2023-11-09 11:16:03.114987
2594  2023-11-09 11:16:03.146848
2595  2023-11-09 11:16:03.192759
2596  2023-11-09 11:16:03.240629
2597  2023-11-09 11:16:03.272542
2598  2023-11-09 11:16:03.320417
2599  2023-11-09 11:16:03.352348
2600  2023-11-09 11:16:03.400208
2601  2023-11-09 11:16:03.448079
2602  2023-11-09 11:16:03.479995
2603  2023-11-09 11:16:03.527873
2604  2023-11-09 11:16:03.558784
2605  2023-11-09 11:16:03.605715
2606  2023-11-09 11:16:03.651638
2607  2023-11-09 11:16:03.683550
2608  2023-11-09 11:16:03.731424
2609  2023-11-09 11:16:03.779293
2610  2023-11-09 11:16:03.811345
2611  2023-11-09 11:16:03.858528
2612  2023-11-09 11:16:03.906404
2613  2023-11-09 11:16:03.938349
2614  2023-11-09 11:16:03.986419
2615  2023-11-09 11:16:04.018264
2616  2023-11-09 11:16:04.066273
2617  2023-11-09 11:16:04.114281
2618  2023-11-09 11:16:04.146239
2619  2023-11-09 11:16:04.192217
2620  2023-11-09 11:16:04.238140
2621  2023-11-09 11:16:04.271051
2622  2023-11-09 11:16:04.317892
2623  2023-11-09 11:16:04.364800
2624  2023-11-09 11:16:04.395684
2625  2023-11-09 11:16:04.443556
2626  2023-11-09 11:16:04.489433
2627  2023-11-09 11:16:04.521382
2628  2023-11-09 11:16:04.569220
2629  2023-11-09 11:16:04.601314
2630  2023-11-09 11:16:04.649043
2631  2023-11-09 11:16:04.696878
2632  2023-11-09 11:16:04.728793
2633  2023-11-09 11:16:04.776719
2634  2023-11-09 11:16:04.823580
2635  2023-11-09 11:16:04.854493
2636  2023-11-09 11:16:04.901361
2637  2023-11-09 11:16:04.947953
2638  2023-11-09 11:16:04.979830
2639  2023-11-09 11:16:05.027834
2640  2023-11-09 11:16:05.058781
2641  2023-11-09 11:16:05.107653
2642  2023-11-09 11:16:05.155610
2643  2023-11-09 11:16:05.185544
2644  2023-11-09 11:16:05.233102
2645  2023-11-09 11:16:05.278934
2646  2023-11-09 11:16:05.310849
2647  2023-11-09 11:16:05.356726
2648  2023-11-09 11:16:05.404599
2649  2023-11-09 11:16:05.436548
2650  2023-11-09 11:16:05.484537
2651  2023-11-09 11:16:05.531373
2652  2023-11-09 11:16:05.562290
2653  2023-11-09 11:16:05.610200
2654  2023-11-09 11:16:05.656550
2655  2023-11-09 11:16:05.687468
2656  2023-11-09 11:16:05.735372
2657  2023-11-09 11:16:05.767254
2658  2023-11-09 11:16:05.815127
2659  2023-11-09 11:16:05.862034
2660  2023-11-09 11:16:05.892950
2661  2023-11-09 11:16:05.939828
2662  2023-11-09 11:16:05.986717
2663  2023-11-09 11:16:06.032580
2664  2023-11-09 11:16:06.065491
2665  2023-11-09 11:16:06.111074
2666  2023-11-09 11:16:06.143150
2667  2023-11-09 11:16:06.191054
2668  2023-11-09 11:16:06.239860
2669  2023-11-09 11:16:06.270768
2670  2023-11-09 11:16:06.318630
2671  2023-11-09 11:16:06.365505
2672  2023-11-09 11:16:06.397420
2673  2023-11-09 11:16:06.445292
2674  2023-11-09 11:16:06.477207
2675  2023-11-09 11:16:06.525078
2676  2023-11-09 11:16:06.572953
2677  2023-11-09 11:16:06.604900
2678  2023-11-09 11:16:06.650777
2679  2023-11-09 11:16:06.696660
2680  2023-11-09 11:16:06.727568
2681  2023-11-09 11:16:06.774524
2682  2023-11-09 11:16:06.822391
2683  2023-11-09 11:16:06.854311
2684  2023-11-09 11:16:06.900185
2685  2023-11-09 11:16:06.948055
2686  2023-11-09 11:16:06.979937
2687  2023-11-09 11:16:07.027682
2688  2023-11-09 11:16:07.059603
2689  2023-11-09 11:16:07.107608
2690  2023-11-09 11:16:07.155351
2691  2023-11-09 11:16:07.187257
2692  2023-11-09 11:16:07.234347
2693  2023-11-09 11:16:07.281227
2694  2023-11-09 11:16:07.312917
2695  2023-11-09 11:16:07.360753
2696  2023-11-09 11:16:07.392699
2697  2023-11-09 11:16:07.440570
2698  2023-11-09 11:16:07.489580
2699  2023-11-09 11:16:07.520449
2700  2023-11-09 11:16:07.568388
2701  2023-11-09 11:16:07.600282
2702  2023-11-09 11:16:07.648114
2703  2023-11-09 11:16:07.696036
2704  2023-11-09 11:16:07.727941
2705  2023-11-09 11:16:07.775897
2706  2023-11-09 11:16:07.821741
2707  2023-11-09 11:16:07.852658
2708  2023-11-09 11:16:07.900566
2709  2023-11-09 11:16:07.948402
2710  2023-11-09 11:16:07.980346
2711  2023-11-09 11:16:08.028189
2712  2023-11-09 11:16:08.073104
2713  2023-11-09 11:16:08.104023
2714  2023-11-09 11:16:08.151892
2715  2023-11-09 11:16:08.183895
2716  2023-11-09 11:16:08.231758
2717  2023-11-09 11:16:08.279599
2718  2023-11-09 11:16:08.311513
2719  2023-11-09 11:16:08.359081
2720  2023-11-09 11:16:08.406986
2721  2023-11-09 11:16:08.438899
2722  2023-11-09 11:16:08.486740
2723  2023-11-09 11:16:08.518385
2724  2023-11-09 11:16:08.566078
2725  2023-11-09 11:16:08.613992
2726  2023-11-09 11:16:08.645906
2727  2023-11-09 11:16:08.693769
2728  2023-11-09 11:16:08.739616
2729  2023-11-09 11:16:08.771567
2730  2023-11-09 11:16:08.819435
2731  2023-11-09 11:16:08.851374
2732  2023-11-09 11:16:08.897921
2733  2023-11-09 11:16:08.943868
2734  2023-11-09 11:16:08.977824
2735  2023-11-09 11:16:09.022816
2736  2023-11-09 11:16:09.068660
2737  2023-11-09 11:16:09.115712
2738  2023-11-09 11:16:09.147483
2739  2023-11-09 11:16:09.195418
2740  2023-11-09 11:16:09.227333
2741  2023-11-09 11:16:09.275238
2742  2023-11-09 11:16:09.323077
2743  2023-11-09 11:16:09.355027
2744  2023-11-09 11:16:09.402942
2745  2023-11-09 11:16:09.447864
2746  2023-11-09 11:16:09.478783
2747  2023-11-09 11:16:09.526641
2748  2023-11-09 11:16:09.558526
2749  2023-11-09 11:16:09.606439
2750  2023-11-09 11:16:09.654302
2751  2023-11-09 11:16:09.685953
2752  2023-11-09 11:16:09.733823
2753  2023-11-09 11:16:09.779702
2754  2023-11-09 11:16:09.811632
2755  2023-11-09 11:16:09.858500
2756  2023-11-09 11:16:09.905381
2757  2023-11-09 11:16:09.937120
2758  2023-11-09 11:16:09.984018
2759  2023-11-09 11:16:10.031967
2760  2023-11-09 11:16:10.063851
2761  2023-11-09 11:16:10.111925
2762  2023-11-09 11:16:10.143459
2763  2023-11-09 11:16:10.191330
2764  2023-11-09 11:16:10.240169
2765  2023-11-09 11:16:10.271085
2766  2023-11-09 11:16:10.319984
2767  2023-11-09 11:16:10.350390
2768  2023-11-09 11:16:10.398269
2769  2023-11-09 11:16:10.448147
2770  2023-11-09 11:16:10.478056
2771  2023-11-09 11:16:10.527140
2772  2023-11-09 11:16:10.574114
2773  2023-11-09 11:16:10.606036
2774  2023-11-09 11:16:10.653987
2775  2023-11-09 11:16:10.697837
2776  2023-11-09 11:16:10.729752
2777  2023-11-09 11:16:10.775666
2778  2023-11-09 11:16:10.823501
2779  2023-11-09 11:16:10.855416
2780  2023-11-09 11:16:10.903405
2781  2023-11-09 11:16:10.935285
2782  2023-11-09 11:16:10.981198
2783  2023-11-09 11:16:11.028037
2784  2023-11-09 11:16:11.058990
2785  2023-11-09 11:16:11.105831
2786  2023-11-09 11:16:11.152739
2787  2023-11-09 11:16:11.184654
2788  2023-11-09 11:16:11.232491
2789  2023-11-09 11:16:11.280403
2790  2023-11-09 11:16:11.312315
2791  2023-11-09 11:16:11.360184
2792  2023-11-09 11:16:11.392071
2793  2023-11-09 11:16:11.440906
2794  2023-11-09 11:16:11.486815
2795  2023-11-09 11:16:11.518782
2796  2023-11-09 11:16:11.564673
2797  2023-11-09 11:16:11.612529
2798  2023-11-09 11:16:11.644443
2799  2023-11-09 11:16:11.692456
2800  2023-11-09 11:16:11.740947
2801  2023-11-09 11:16:11.772863
2802  2023-11-09 11:16:11.820740
2803  2023-11-09 11:16:11.850608
2804  2023-11-09 11:16:11.897482
2805  2023-11-09 11:16:11.945389
2806  2023-11-09 11:16:11.977302
2807  2023-11-09 11:16:12.024268
2808  2023-11-09 11:16:12.072051
2809  2023-11-09 11:16:12.102193
2810  2023-11-09 11:16:12.150065
2811  2023-11-09 11:16:12.195989
2812  2023-11-09 11:16:12.226948
2813  2023-11-09 11:16:12.273781
2814  2023-11-09 11:16:12.319693
2815  2023-11-09 11:16:12.350606
2816  2023-11-09 11:16:12.398502
2817  2023-11-09 11:16:12.444355
2818  2023-11-09 11:16:12.476270
2819  2023-11-09 11:16:12.524112
2820  2023-11-09 11:16:12.572031
2821  2023-11-09 11:16:12.604897
2822  2023-11-09 11:16:12.652787
2823  2023-11-09 11:16:12.699739
2824  2023-11-09 11:16:12.732653
2825  2023-11-09 11:16:12.780520
2826  2023-11-09 11:16:12.810412
2827  2023-11-09 11:16:12.858282
2828  2023-11-09 11:16:12.908179
2829  2023-11-09 11:16:12.938070
2830  2023-11-09 11:16:12.984975
2831  2023-11-09 11:16:13.031819
2832  2023-11-09 11:16:13.063733
2833  2023-11-09 11:16:13.109656
2834  2023-11-09 11:16:13.156582
2835  2023-11-09 11:16:13.187032
2836  2023-11-09 11:16:13.234778
2837  2023-11-09 11:16:13.281647
2838  2023-11-09 11:16:13.311568
2839  2023-11-09 11:16:13.359440
2840  2023-11-09 11:16:13.407310
2841  2023-11-09 11:16:13.439243
2842  2023-11-09 11:16:13.487097
2843  2023-11-09 11:16:13.519013
2844  2023-11-09 11:16:13.566856
2845  2023-11-09 11:16:13.612784
2846  2023-11-09 11:16:13.643690
2847  2023-11-09 11:16:13.691564
2848  2023-11-09 11:16:13.737394
2849  2023-11-09 11:16:13.768311
2850  2023-11-09 11:16:13.815217
2851  2023-11-09 11:16:13.863058
2852  2023-11-09 11:16:13.894973
2853  2023-11-09 11:16:13.942881
2854  2023-11-09 11:16:13.990717
2855  2023-11-09 11:16:14.022631
2856  2023-11-09 11:16:14.070688
2857  2023-11-09 11:16:14.102418
2858  2023-11-09 11:16:14.150323
2859  2023-11-09 11:16:14.197165
2860  2023-11-09 11:16:14.228082
2861  2023-11-09 11:16:14.275990
2862  2023-11-09 11:16:14.323826
2863  2023-11-09 11:16:14.355774
2864  2023-11-09 11:16:14.403615
2865  2023-11-09 11:16:14.435529
2866  2023-11-09 11:16:14.482436
2867  2023-11-09 11:16:14.528315
2868  2023-11-09 11:16:14.559237
2869  2023-11-09 11:16:14.606116
2870  2023-11-09 11:16:14.652948
2871  2023-11-09 11:16:14.684895
2872  2023-11-09 11:16:14.732770
2873  2023-11-09 11:16:14.778650
2874  2023-11-09 11:16:14.810556
2875  2023-11-09 11:16:14.858533
2876  2023-11-09 11:16:14.906422
2877  2023-11-09 11:16:14.938339
2878  2023-11-09 11:16:14.987215
2879  2023-11-09 11:16:15.032017
2880  2023-11-09 11:16:15.062934
2881  2023-11-09 11:16:15.108769
2882  2023-11-09 11:16:15.156760
2883  2023-11-09 11:16:15.188674
2884  2023-11-09 11:16:15.236592
2885  2023-11-09 11:16:15.268496
2886  2023-11-09 11:16:15.315534
2887  2023-11-09 11:16:15.362405
2888  2023-11-09 11:16:15.394315
2889  2023-11-09 11:16:15.441210
2890  2023-11-09 11:16:15.488070
2891  2023-11-09 11:16:15.519896
2892  2023-11-09 11:16:15.568946
2893  2023-11-09 11:16:15.614834
2894  2023-11-09 11:16:15.645752
2895  2023-11-09 11:16:15.692712
2896  2023-11-09 11:16:15.739575
2897  2023-11-09 11:16:15.770491
2898  2023-11-09 11:16:15.818364
2899  2023-11-09 11:16:15.865237
2900  2023-11-09 11:16:15.896257
2901  2023-11-09 11:16:15.943032
2902  2023-11-09 11:16:15.989873
2903  2023-11-09 11:16:16.020790
2904  2023-11-09 11:16:16.066669
2905  2023-11-09 11:16:16.112573
2906  2023-11-09 11:16:16.143463
2907  2023-11-09 11:16:16.190372
2908  2023-11-09 11:16:16.239212
2909  2023-11-09 11:16:16.270158
2910  2023-11-09 11:16:16.317031
2911  2023-11-09 11:16:16.362877
2912  2023-11-09 11:16:16.395833
2913  2023-11-09 11:16:16.441698
2914  2023-11-09 11:16:16.489569
2915  2023-11-09 11:16:16.521494
2916  2023-11-09 11:16:16.569356
2917  2023-11-09 11:16:16.615233
2918  2023-11-09 11:16:16.647270
2919  2023-11-09 11:16:16.694988
2920  2023-11-09 11:16:16.726903
2921  2023-11-09 11:16:16.774810
2922  2023-11-09 11:16:16.820652
2923  2023-11-09 11:16:16.850961
2924  2023-11-09 11:16:16.898013
2925  2023-11-09 11:16:16.944983
2926  2023-11-09 11:16:16.976900
2927  2023-11-09 11:16:17.023773
2928  2023-11-09 11:16:17.071643
2929  2023-11-09 11:16:17.103527
2930  2023-11-09 11:16:17.151399
2931  2023-11-09 11:16:17.198275
2932  2023-11-09 11:16:17.229192
2933  2023-11-09 11:16:17.276066
2934  2023-11-09 11:16:17.323969
2935  2023-11-09 11:16:17.355887
2936  2023-11-09 11:16:17.404723
2937  2023-11-09 11:16:17.434609
2938  2023-11-09 11:16:17.482483
2939  2023-11-09 11:16:17.530321
2940  2023-11-09 11:16:17.562372
2941  2023-11-09 11:16:17.610142
2942  2023-11-09 11:16:17.642069
2943  2023-11-09 11:16:17.689936
2944  2023-11-09 11:16:17.738797
2945  2023-11-09 11:16:17.769789
2946  2023-11-09 11:16:17.818722
2947  2023-11-09 11:16:17.866610
2948  2023-11-09 11:16:17.898603
2949  2023-11-09 11:16:17.946444
2950  2023-11-09 11:16:17.978384
2951  2023-11-09 11:16:18.026268
2952  2023-11-09 11:16:18.072137
2953  2023-11-09 11:16:18.104049
2954  2023-11-09 11:16:18.152913
2955  2023-11-09 11:16:18.200808
2956  2023-11-09 11:16:18.228683
2957  2023-11-09 11:16:18.276587
2958  2023-11-09 11:16:18.308502
2959  2023-11-09 11:16:18.355345
2960  2023-11-09 11:16:18.402254
2961  2023-11-09 11:16:18.434167
2962  2023-11-09 11:16:18.482042
2963  2023-11-09 11:16:18.529878
2964  2023-11-09 11:16:18.561793
2965  2023-11-09 11:16:18.609704
2966  2023-11-09 11:16:18.656927
2967  2023-11-09 11:16:18.687895
2968  2023-11-09 11:16:18.736815
2969  2023-11-09 11:16:18.781679
2970  2023-11-09 11:16:18.812598
2971  2023-11-09 11:16:18.859468
2972  2023-11-09 11:16:18.905347
2973  2023-11-09 11:16:18.938260
2974  2023-11-09 11:16:18.986100
2975  2023-11-09 11:16:19.019057
2976  2023-11-09 11:16:19.065918
2977  2023-11-09 11:16:19.109815
2978  2023-11-09 11:16:19.156644
2979  2023-11-09 11:16:19.186607
2980  2023-11-09 11:16:19.234477
2981  2023-11-09 11:16:19.283399
2982  2023-11-09 11:16:19.314290
2983  2023-11-09 11:16:19.362131
2984  2023-11-09 11:16:19.394129
2985  2023-11-09 11:16:19.441008
2986  2023-11-09 11:16:19.488875
2987  2023-11-09 11:16:19.520790
2988  2023-11-09 11:16:19.568697
2989  2023-11-09 11:16:19.600610
2990  2023-11-09 11:16:19.648449
2991  2023-11-09 11:16:19.696433
2992  2023-11-09 11:16:19.728360
2993  2023-11-09 11:16:19.777277
2994  2023-11-09 11:16:19.823135
2995  2023-11-09 11:16:19.855052
2996  2023-11-09 11:16:19.902925
2997  2023-11-09 11:16:19.934852
2998  2023-11-09 11:16:19.979723
2999  2023-11-09 11:16:20.026597
3000  2023-11-09 11:16:20.058509
3001  2023-11-09 11:16:20.106378
3002  2023-11-09 11:16:20.154248
3003  2023-11-09 11:16:20.186167
3004  2023-11-09 11:16:20.233009
3005  2023-11-09 11:16:20.279921
3006  2023-11-09 11:16:20.311829
3007  2023-11-09 11:16:20.359671
3008  2023-11-09 11:16:20.406579
3009  2023-11-09 11:16:20.438491
3010  2023-11-09 11:16:20.486368
3011  2023-11-09 11:16:20.518280
3012  2023-11-09 11:16:20.564124
3013  2023-11-09 11:16:20.610033
3014  2023-11-09 11:16:20.641968
3015  2023-11-09 11:16:20.689788
3016  2023-11-09 11:16:20.737854
3017  2023-11-09 11:16:20.767404
3018  2023-11-09 11:16:20.813318
3019  2023-11-09 11:16:20.861281
3020  2023-11-09 11:16:20.893170
3021  2023-11-09 11:16:20.941043
3022  2023-11-09 11:16:20.989096
3023  2023-11-09 11:16:21.020829
3024  2023-11-09 11:16:21.068704
3025  2023-11-09 11:16:21.114605
3026  2023-11-09 11:16:21.145497
3027  2023-11-09 11:16:21.192375
3028  2023-11-09 11:16:21.241237
3029  2023-11-09 11:16:21.270162
3030  2023-11-09 11:16:21.318035
3031  2023-11-09 11:16:21.365911
3032  2023-11-09 11:16:21.397838
3033  2023-11-09 11:16:21.445696
3034  2023-11-09 11:16:21.477608
3035  2023-11-09 11:16:21.525481
3036  2023-11-09 11:16:21.571373
3037  2023-11-09 11:16:21.603271
3038  2023-11-09 11:16:21.650146
3039  2023-11-09 11:16:21.697039
3040  2023-11-09 11:16:21.728903
3041  2023-11-09 11:16:21.776811
3042  2023-11-09 11:16:21.823650
3043  2023-11-09 11:16:21.853624
3044  2023-11-09 11:16:21.899483
3045  2023-11-09 11:16:21.946354
3046  2023-11-09 11:16:21.978274
3047  2023-11-09 11:16:22.026109
3048  2023-11-09 11:16:22.074016
3049  2023-11-09 11:16:22.105929
3050  2023-11-09 11:16:22.152803
3051  2023-11-09 11:16:22.183721
3052  2023-11-09 11:16:22.231560
3053  2023-11-09 11:16:22.279481
3054  2023-11-09 11:16:22.310684
3055  2023-11-09 11:16:22.359706
3056  2023-11-09 11:16:22.407580
3057  2023-11-09 11:16:22.440475
3058  2023-11-09 11:16:22.487348
3059  2023-11-09 11:16:22.519264
3060  2023-11-09 11:16:22.567156
3061  2023-11-09 11:16:22.613505
3062  2023-11-09 11:16:22.645479
3063  2023-11-09 11:16:22.693531
3064  2023-11-09 11:16:22.738380
3065  2023-11-09 11:16:22.770335
3066  2023-11-09 11:16:22.816172
3067  2023-11-09 11:16:22.864044
3068  2023-11-09 11:16:22.895985
3069  2023-11-09 11:16:22.943863
3070  2023-11-09 11:16:22.975779
3071  2023-11-09 11:16:23.023617
3072  2023-11-09 11:16:23.070492
3073  2023-11-09 11:16:23.100446
3074  2023-11-09 11:16:23.146963
3075  2023-11-09 11:16:23.193839
3076  2023-11-09 11:16:23.225274
3077  2023-11-09 11:16:23.273182
3078  2023-11-09 11:16:23.321233
3079  2023-11-09 11:16:23.353148
3080  2023-11-09 11:16:23.401021
3081  2023-11-09 11:16:23.447896
3082  2023-11-09 11:16:23.479821
3083  2023-11-09 11:16:23.526683
3084  2023-11-09 11:16:23.558597
3085  2023-11-09 11:16:23.606470
3086  2023-11-09 11:16:23.654342
3087  2023-11-09 11:16:23.686257
3088  2023-11-09 11:16:23.734130
3089  2023-11-09 11:16:23.781626
3090  2023-11-09 11:16:23.813025
3091  2023-11-09 11:16:23.860899
3092  2023-11-09 11:16:23.904781
3093  2023-11-09 11:16:23.935698
3094  2023-11-09 11:16:23.983612
3095  2023-11-09 11:16:24.031520
3096  2023-11-09 11:16:24.062433
3097  2023-11-09 11:16:24.110273
3098  2023-11-09 11:16:24.142325
3099  2023-11-09 11:16:24.190060
3100  2023-11-09 11:16:24.238931
3101  2023-11-09 11:16:24.269846
3102  2023-11-09 11:16:24.317719
3103  2023-11-09 11:16:24.365720
3104  2023-11-09 11:16:24.397748
3105  2023-11-09 11:16:24.445584
3106  2023-11-09 11:16:24.477580
3107  2023-11-09 11:16:24.525485
3108  2023-11-09 11:16:24.573201
3109  2023-11-09 11:16:24.605226
3110  2023-11-09 11:16:24.652099
3111  2023-11-09 11:16:24.698943
3112  2023-11-09 11:16:24.729894
3113  2023-11-09 11:16:24.775842
3114  2023-11-09 11:16:24.822793
3115  2023-11-09 11:16:24.852725
3116  2023-11-09 11:16:24.900583
3117  2023-11-09 11:16:24.950462
3118  2023-11-09 11:16:24.980343
3119  2023-11-09 11:16:25.029255
3120  2023-11-09 11:16:25.060358
3121  2023-11-09 11:16:25.108196
3122  2023-11-09 11:16:25.158197
3123  2023-11-09 11:16:25.187763
3124  2023-11-09 11:16:25.235619
3125  2023-11-09 11:16:25.267537
3126  2023-11-09 11:16:25.315422
3127  2023-11-09 11:16:25.363281
3128  2023-11-09 11:16:25.393211
3129  2023-11-09 11:16:25.441126
3130  2023-11-09 11:16:25.487959
3131  2023-11-09 11:16:25.519874
3132  2023-11-09 11:16:25.567777
3133  2023-11-09 11:16:25.615619
3134  2023-11-09 11:16:25.646535
3135  2023-11-09 11:16:25.694436
3136  2023-11-09 11:16:25.740318
3137  2023-11-09 11:16:25.773197
3138  2023-11-09 11:16:25.820173
3139  2023-11-09 11:16:25.852259
3140  2023-11-09 11:16:25.898963
3141  2023-11-09 11:16:25.944868
3142  2023-11-09 11:16:25.975211
3143  2023-11-09 11:16:26.023161
3144  2023-11-09 11:16:26.071090
3145  2023-11-09 11:16:26.103005
3146  2023-11-09 11:16:26.150871
3147  2023-11-09 11:16:26.198588
3148  2023-11-09 11:16:26.230503
3149  2023-11-09 11:16:26.278404
3150  2023-11-09 11:16:26.310291
3151  2023-11-09 11:16:26.358161
3152  2023-11-09 11:16:26.406034
3153  2023-11-09 11:16:26.437946
3154  2023-11-09 11:16:26.485569
3155  2023-11-09 11:16:26.531484
3156  2023-11-09 11:16:26.564428
3157  2023-11-09 11:16:26.611299
3158  2023-11-09 11:16:26.643195
3159  2023-11-09 11:16:26.691035
3160  2023-11-09 11:16:26.738958
3161  2023-11-09 11:16:26.770801
3162  2023-11-09 11:16:26.818823
3163  2023-11-09 11:16:26.850731
3164  2023-11-09 11:16:26.898611
3165  2023-11-09 11:16:26.945485
3166  2023-11-09 11:16:26.977397
3167  2023-11-09 11:16:27.024239
3168  2023-11-09 11:16:27.072145
3169  2023-11-09 11:16:27.104061
3170  2023-11-09 11:16:27.149903
3171  2023-11-09 11:16:27.197891
3172  2023-11-09 11:16:27.230807
3173  2023-11-09 11:16:27.277677
3174  2023-11-09 11:16:27.309592
3175  2023-11-09 11:16:27.355500
3176  2023-11-09 11:16:27.403130
3177  2023-11-09 11:16:27.434153
3178  2023-11-09 11:16:27.481103
3179  2023-11-09 11:16:27.528942
3180  2023-11-09 11:16:27.560893
3181  2023-11-09 11:16:27.607908
3182  2023-11-09 11:16:27.655764
3183  2023-11-09 11:16:27.687388
3184  2023-11-09 11:16:27.735337
3185  2023-11-09 11:16:27.767252
3186  2023-11-09 11:16:27.814159
3187  2023-11-09 11:16:27.860033
3188  2023-11-09 11:16:27.891951
3189  2023-11-09 11:16:27.940839
3190  2023-11-09 11:16:27.988714
3191  2023-11-09 11:16:28.020607
3192  2023-11-09 11:16:28.067623
3193  2023-11-09 11:16:28.116495
3194  2023-11-09 11:16:28.149391
3195  2023-11-09 11:16:28.195281
3196  2023-11-09 11:16:28.227196
3197  2023-11-09 11:16:28.274070
3198  2023-11-09 11:16:28.320949
3199  2023-11-09 11:16:28.352864
3200  2023-11-09 11:16:28.401732
3201  2023-11-09 11:16:28.446578
3202  2023-11-09 11:16:28.476498
3203  2023-11-09 11:16:28.523407
3204  2023-11-09 11:16:28.568253
3205  2023-11-09 11:16:28.615356
3206  2023-11-09 11:16:28.647272
3207  2023-11-09 11:16:28.695145
3208  2023-11-09 11:16:28.727072
3209  2023-11-09 11:16:28.774939
3210  2023-11-09 11:16:28.822941
3211  2023-11-09 11:16:28.853863
3212  2023-11-09 11:16:28.899742
3213  2023-11-09 11:16:28.946613
3214  2023-11-09 11:16:28.980601
3215  2023-11-09 11:16:29.027465
3216  2023-11-09 11:16:29.073353
3217  2023-11-09 11:16:29.105399
3218  2023-11-09 11:16:29.153257
3219  2023-11-09 11:16:29.198140
3220  2023-11-09 11:16:29.231056
3221  2023-11-09 11:16:29.277892
3222  2023-11-09 11:16:29.309807
3223  2023-11-09 11:16:29.357679
3224  2023-11-09 11:16:29.405551
3225  2023-11-09 11:16:29.437466
3226  2023-11-09 11:16:29.485337
3227  2023-11-09 11:16:29.517417
3228  2023-11-09 11:16:29.565124
3229  2023-11-09 11:16:29.612996
3230  2023-11-09 11:16:29.644911
3231  2023-11-09 11:16:29.693811
3232  2023-11-09 11:16:29.740685
3233  2023-11-09 11:16:29.772570
3234  2023-11-09 11:16:29.819446
3235  2023-11-09 11:16:29.850395
3236  2023-11-09 11:16:29.898234
3237  2023-11-09 11:16:29.945139
3238  2023-11-09 11:16:29.977059
3239  2023-11-09 11:16:30.024931
3240  2023-11-09 11:16:30.072797
3241  2023-11-09 11:16:30.104814
3242  2023-11-09 11:16:30.152368
3243  2023-11-09 11:16:30.184282
3244  2023-11-09 11:16:30.232155
3245  2023-11-09 11:16:30.280031
3246  2023-11-09 11:16:30.311954
3247  2023-11-09 11:16:30.358784
3248  2023-11-09 11:16:30.406687
3249  2023-11-09 11:16:30.436635
3250  2023-11-09 11:16:30.484155
3251  2023-11-09 11:16:30.532096
3252  2023-11-09 11:16:30.564007
3253  2023-11-09 11:16:30.611898
3254  2023-11-09 11:16:30.641812
3255  2023-11-09 11:16:30.689687
3256  2023-11-09 11:16:30.738512
3257  2023-11-09 11:16:30.770470
3258  2023-11-09 11:16:30.818336
3259  2023-11-09 11:16:30.866205
3260  2023-11-09 11:16:30.898116
3261  2023-11-09 11:16:30.942997
3262  2023-11-09 11:16:30.991877
3263  2023-11-09 11:16:31.020756
3264  2023-11-09 11:16:31.068663
3265  2023-11-09 11:16:31.100583
3266  2023-11-09 11:16:31.148415
3267  2023-11-09 11:16:31.196288
3268  2023-11-09 11:16:31.229233
3269  2023-11-09 11:16:31.274480
3270  2023-11-09 11:16:31.322351
3271  2023-11-09 11:16:31.354267
3272  2023-11-09 11:16:31.402142
3273  2023-11-09 11:16:31.447532
3274  2023-11-09 11:16:31.479475
3275  2023-11-09 11:16:31.527352
3276  2023-11-09 11:16:31.559147
3277  2023-11-09 11:16:31.605297
3278  2023-11-09 11:16:31.653287
3279  2023-11-09 11:16:31.685232
3280  2023-11-09 11:16:31.733105
3281  2023-11-09 11:16:31.780982
3282  2023-11-09 11:16:31.812897
3283  2023-11-09 11:16:31.860766
3284  2023-11-09 11:16:31.892758
3285  2023-11-09 11:16:31.940631
3286  2023-11-09 11:16:31.988472
3287  2023-11-09 11:16:32.020424
3288  2023-11-09 11:16:32.068291
3289  2023-11-09 11:16:32.100204
3290  2023-11-09 11:16:32.148086
3291  2023-11-09 11:16:32.193961
3292  2023-11-09 11:16:32.225867
3293  2023-11-09 11:16:32.273747
3294  2023-11-09 11:16:32.318588
3295  2023-11-09 11:16:32.350503
3296  2023-11-09 11:16:32.399418
3297  2023-11-09 11:16:32.444253
3298  2023-11-09 11:16:32.476168
3299  2023-11-09 11:16:32.524040
3300  2023-11-09 11:16:32.569918
3301  2023-11-09 11:16:32.600834
3302  2023-11-09 11:16:32.647709
3303  2023-11-09 11:16:32.695581
3304  2023-11-09 11:16:32.725501
3305  2023-11-09 11:16:32.773036
3306  2023-11-09 11:16:32.820909
3307  2023-11-09 11:16:32.852838
3308  2023-11-09 11:16:32.898968
3309  2023-11-09 11:16:32.946956
3310  2023-11-09 11:16:32.979835
3311  2023-11-09 11:16:33.025750
3312  2023-11-09 11:16:33.072596
3313  2023-11-09 11:16:33.104501
3314  2023-11-09 11:16:33.152423
3315  2023-11-09 11:16:33.184330
3316  2023-11-09 11:16:33.233161
3317  2023-11-09 11:16:33.280062
3318  2023-11-09 11:16:33.312990
3319  2023-11-09 11:16:33.357871
3320  2023-11-09 11:16:33.406693
3321  2023-11-09 11:16:33.438666
3322  2023-11-09 11:16:33.482490
3323  2023-11-09 11:16:33.529364
3324  2023-11-09 11:16:33.561279
3325  2023-11-09 11:16:33.609151
3326  2023-11-09 11:16:33.657087
3327  2023-11-09 11:16:33.688972
3328  2023-11-09 11:16:33.736810
3329  2023-11-09 11:16:33.767727
3330  2023-11-09 11:16:33.815635
3331  2023-11-09 11:16:33.863471
3332  2023-11-09 11:16:33.895386
3333  2023-11-09 11:16:33.943292
3334  2023-11-09 11:16:33.975226
3335  2023-11-09 11:16:34.022080
3336  2023-11-09 11:16:34.068954
3337  2023-11-09 11:16:34.100880
3338  2023-11-09 11:16:34.148743
3339  2023-11-09 11:16:34.196581
3340  2023-11-09 11:16:34.228496
3341  2023-11-09 11:16:34.276407
3342  2023-11-09 11:16:34.323127
3343  2023-11-09 11:16:34.355142
3344  2023-11-09 11:16:34.403212
3345  2023-11-09 11:16:34.435240
3346  2023-11-09 11:16:34.483122
3347  2023-11-09 11:16:34.530638
3348  2023-11-09 11:16:34.562554
3349  2023-11-09 11:16:34.610430
3350  2023-11-09 11:16:34.642341
3351  2023-11-09 11:16:34.690212
3352  2023-11-09 11:16:34.739118
3353  2023-11-09 11:16:34.770122
3354  2023-11-09 11:16:34.816997
3355  2023-11-09 11:16:34.863918
3356  2023-11-09 11:16:34.896784
3357  2023-11-09 11:16:34.941697
3358  2023-11-09 11:16:34.989573
3359  2023-11-09 11:16:35.021482
3360  2023-11-09 11:16:35.068354
3361  2023-11-09 11:16:35.112206
3362  2023-11-09 11:16:35.143125
3363  2023-11-09 11:16:35.191029
3364  2023-11-09 11:16:35.238901
3365  2023-11-09 11:16:35.270783
3366  2023-11-09 11:16:35.318273
3367  2023-11-09 11:16:35.350272
3368  2023-11-09 11:16:35.398110
3369  2023-11-09 11:16:35.446015
3370  2023-11-09 11:16:35.477929
3371  2023-11-09 11:16:35.523810
3372  2023-11-09 11:16:35.571681
3373  2023-11-09 11:16:35.603599
3374  2023-11-09 11:16:35.651433
3375  2023-11-09 11:16:35.697344
3376  2023-11-09 11:16:35.729230
3377  2023-11-09 11:16:35.777128
3378  2023-11-09 11:16:35.809143
3379  2023-11-09 11:16:35.856918
3380  2023-11-09 11:16:35.904784
3381  2023-11-09 11:16:35.936706
3382  2023-11-09 11:16:35.984583
3383  2023-11-09 11:16:36.031503
3384  2023-11-09 11:16:36.062365
3385  2023-11-09 11:16:36.110239
3386  2023-11-09 11:16:36.142154
3387  2023-11-09 11:16:36.190030
3388  2023-11-09 11:16:36.237903
3389  2023-11-09 11:16:36.270778
3390  2023-11-09 11:16:36.317682
3391  2023-11-09 11:16:36.363714
3392  2023-11-09 11:16:36.395481
3393  2023-11-09 11:16:36.443346
3394  2023-11-09 11:16:36.475261
3395  2023-11-09 11:16:36.523245
3396  2023-11-09 11:16:36.571151
3397  2023-11-09 11:16:36.601037
3398  2023-11-09 11:16:36.648941
3399  2023-11-09 11:16:36.696781
3400  2023-11-09 11:16:36.727427
3401  2023-11-09 11:16:36.775297
3402  2023-11-09 11:16:36.823249
3403  2023-11-09 11:16:36.855170
3404  2023-11-09 11:16:36.903005
3405  2023-11-09 11:16:36.934920
3406  2023-11-09 11:16:36.981829
3407  2023-11-09 11:16:37.029667
3408  2023-11-09 11:16:37.061581
3409  2023-11-09 11:16:37.109521
3410  2023-11-09 11:16:37.156463
3411  2023-11-09 11:16:37.188286
3412  2023-11-09 11:16:37.236285
3413  2023-11-09 11:16:37.268171
3414  2023-11-09 11:16:37.316043
3415  2023-11-09 11:16:37.363967
3416  2023-11-09 11:16:37.395936
3417  2023-11-09 11:16:37.443870
3418  2023-11-09 11:16:37.489781
3419  2023-11-09 11:16:37.521703
3420  2023-11-09 11:16:37.569572
3421  2023-11-09 11:16:37.600452
3422  2023-11-09 11:16:37.647363
3423  2023-11-09 11:16:37.693203
3424  2023-11-09 11:16:37.739081
3425  2023-11-09 11:16:37.771044
3426  2023-11-09 11:16:37.818909
3427  2023-11-09 11:16:37.864745
3428  2023-11-09 11:16:37.896659
3429  2023-11-09 11:16:37.946677
3430  2023-11-09 11:16:37.976096
3431  2023-11-09 11:16:38.024006
3432  2023-11-09 11:16:38.071840
3433  2023-11-09 11:16:38.103755
3434  2023-11-09 11:16:38.151661
3435  2023-11-09 11:16:38.197706
3436  2023-11-09 11:16:38.229677
3437  2023-11-09 11:16:38.277582
3438  2023-11-09 11:16:38.309495
3439  2023-11-09 11:16:38.357337
3440  2023-11-09 11:16:38.405250
3441  2023-11-09 11:16:38.437170
3442  2023-11-09 11:16:38.485025
3443  2023-11-09 11:16:38.516947
3444  2023-11-09 11:16:38.564783
3445  2023-11-09 11:16:38.612685
3446  2023-11-09 11:16:38.644732
3447  2023-11-09 11:16:38.692600
3448  2023-11-09 11:16:38.738486
3449  2023-11-09 11:16:38.770402
3450  2023-11-09 11:16:38.818234
3451  2023-11-09 11:16:38.864151
3452  2023-11-09 11:16:38.895065
3453  2023-11-09 11:16:38.942903
3454  2023-11-09 11:16:38.988824
3455  2023-11-09 11:16:39.020725
3456  2023-11-09 11:16:39.068566
3457  2023-11-09 11:16:39.100517
3458  2023-11-09 11:16:39.147385
3459  2023-11-09 11:16:39.196275
3460  2023-11-09 11:16:39.228140
3461  2023-11-09 11:16:39.277010
3462  2023-11-09 11:16:39.321889
3463  2023-11-09 11:16:39.353804
3464  2023-11-09 11:16:39.398684
3465  2023-11-09 11:16:39.446555
3466  2023-11-09 11:16:39.478469
3467  2023-11-09 11:16:39.526384
3468  2023-11-09 11:16:39.573216
3469  2023-11-09 11:16:39.604124
3470  2023-11-09 11:16:39.651040
3471  2023-11-09 11:16:39.697951
3472  2023-11-09 11:16:39.728846
3473  2023-11-09 11:16:39.776736
3474  2023-11-09 11:16:39.822615
3475  2023-11-09 11:16:39.854527
3476  2023-11-09 11:16:39.902408
3477  2023-11-09 11:16:39.948279
3478  2023-11-09 11:16:39.980160
3479  2023-11-09 11:16:40.028032
3480  2023-11-09 11:16:40.059987
3481  2023-11-09 11:16:40.107820
3482  2023-11-09 11:16:40.155746
3483  2023-11-09 11:16:40.187646
3484  2023-11-09 11:16:40.235548
3485  2023-11-09 11:16:40.282391
3486  2023-11-09 11:16:40.315299
3487  2023-11-09 11:16:40.362174
3488  2023-11-09 11:16:40.395083
3489  2023-11-09 11:16:40.441960
3490  2023-11-09 11:16:40.489831
3491  2023-11-09 11:16:40.521712
3492  2023-11-09 11:16:40.569703
3493  2023-11-09 11:16:40.601617
3494  2023-11-09 11:16:40.648905
3495  2023-11-09 11:16:40.696756
3496  2023-11-09 11:16:40.728660
3497  2023-11-09 11:16:40.776539
3498  2023-11-09 11:16:40.824217
3499  2023-11-09 11:16:40.854577
3500  2023-11-09 11:16:40.901286
3501  2023-11-09 11:16:40.947166
3502  2023-11-09 11:16:40.979115
3503  2023-11-09 11:16:41.026950
3504  2023-11-09 11:16:41.058865
3505  2023-11-09 11:16:41.106773
3506  2023-11-09 11:16:41.154610
3507  2023-11-09 11:16:41.185565
3508  2023-11-09 11:16:41.232436
3509  2023-11-09 11:16:41.279276
3510  2023-11-09 11:16:41.311225
3511  2023-11-09 11:16:41.359062
3512  2023-11-09 11:16:41.406966
3513  2023-11-09 11:16:41.439849
3514  2023-11-09 11:16:41.486761
3515  2023-11-09 11:16:41.518668
3516  2023-11-09 11:16:41.564595
3517  2023-11-09 11:16:41.612475
3518  2023-11-09 11:16:41.644384
3519  2023-11-09 11:16:41.692345
3520  2023-11-09 11:16:41.740220
3521  2023-11-09 11:16:41.772136
3522  2023-11-09 11:16:41.820012
3523  2023-11-09 11:16:41.851918
3524  2023-11-09 11:16:41.900789
3525  2023-11-09 11:16:41.947661
3526  2023-11-09 11:16:41.979576
3527  2023-11-09 11:16:42.027447
3528  2023-11-09 11:16:42.059363
3529  2023-11-09 11:16:42.107236
3530  2023-11-09 11:16:42.153077
3531  2023-11-09 11:16:42.199991
3532  2023-11-09 11:16:42.231905
3533  2023-11-09 11:16:42.279777
3534  2023-11-09 11:16:42.311692
3535  2023-11-09 11:16:42.359560
3536  2023-11-09 11:16:42.407449
3537  2023-11-09 11:16:42.439348
3538  2023-11-09 11:16:42.485226
3539  2023-11-09 11:16:42.532064
3540  2023-11-09 11:16:42.563979
3541  2023-11-09 11:16:42.612015
3542  2023-11-09 11:16:42.643801
3543  2023-11-09 11:16:42.691768
3544  2023-11-09 11:16:42.739672
3545  2023-11-09 11:16:42.771628
3546  2023-11-09 11:16:42.819586
3547  2023-11-09 11:16:42.851498
3548  2023-11-09 11:16:42.899374
3549  2023-11-09 11:16:42.947213
3550  2023-11-09 11:16:42.979165
3551  2023-11-09 11:16:43.026997
3552  2023-11-09 11:16:43.058914
3553  2023-11-09 11:16:43.106820
3554  2023-11-09 11:16:43.154659
3555  2023-11-09 11:16:43.186607
3556  2023-11-09 11:16:43.233479
3557  2023-11-09 11:16:43.281317
3558  2023-11-09 11:16:43.313265
3559  2023-11-09 11:16:43.360106
3560  2023-11-09 11:16:43.392021
3561  2023-11-09 11:16:43.439992
