
1  2023-10-24 15:31:50.205015
2  2023-10-24 15:31:50.236929
3  2023-10-24 15:31:50.268843
4  2023-10-24 15:31:50.300758
5  2023-10-24 15:31:50.348672
6  2023-10-24 15:31:50.380578
7  2023-10-24 15:31:50.412490
8  2023-10-24 15:31:50.445404
9  2023-10-24 15:31:50.477286
10  2023-10-24 15:31:50.508330
11  2023-10-24 15:31:50.541332
12  2023-10-24 15:31:50.573214
13  2023-10-24 15:31:50.605128
14  2023-10-24 15:31:50.636819
15  2023-10-24 15:31:50.668776
16  2023-10-24 15:31:50.700722
17  2023-10-24 15:31:50.749593
18  2023-10-24 15:31:50.780543
19  2023-10-24 15:31:50.812423
20  2023-10-24 15:31:50.845336
21  2023-10-24 15:31:50.877255
22  2023-10-24 15:31:50.909165
23  2023-10-24 15:31:50.940965
24  2023-10-24 15:31:50.972869
25  2023-10-24 15:31:51.004751
26  2023-10-24 15:31:51.036708
27  2023-10-24 15:31:51.068580
28  2023-10-24 15:31:51.100655
29  2023-10-24 15:31:51.148527
30  2023-10-24 15:31:51.180474
31  2023-10-24 15:31:51.212369
32  2023-10-24 15:31:51.245297
33  2023-10-24 15:31:51.277183
34  2023-10-24 15:31:51.309099
35  2023-10-24 15:31:51.341012
36  2023-10-24 15:31:51.372927
37  2023-10-24 15:31:51.404372
38  2023-10-24 15:31:51.436286
39  2023-10-24 15:31:51.469205
40  2023-10-24 15:31:51.501182
41  2023-10-24 15:31:51.549088
42  2023-10-24 15:31:51.581015
43  2023-10-24 15:31:51.612883
44  2023-10-24 15:31:51.644798
45  2023-10-24 15:31:51.676712
46  2023-10-24 15:31:51.708660
47  2023-10-24 15:31:51.740577
48  2023-10-24 15:31:51.772491
49  2023-10-24 15:31:51.805411
50  2023-10-24 15:31:51.836319
51  2023-10-24 15:31:51.869256
52  2023-10-24 15:31:51.901146
53  2023-10-24 15:31:51.949026
54  2023-10-24 15:31:51.980899
55  2023-10-24 15:31:52.012861
56  2023-10-24 15:31:52.044669
57  2023-10-24 15:31:52.076656
58  2023-10-24 15:31:52.108571
59  2023-10-24 15:31:52.140486
60  2023-10-24 15:31:52.172400
61  2023-10-24 15:31:52.205382
62  2023-10-24 15:31:52.237227
63  2023-10-24 15:31:52.269141
64  2023-10-24 15:31:52.301111
65  2023-10-24 15:31:52.348928
66  2023-10-24 15:31:52.380843
67  2023-10-24 15:31:52.412799
68  2023-10-24 15:31:52.444672
69  2023-10-24 15:31:52.476621
70  2023-10-24 15:31:52.508374
71  2023-10-24 15:31:52.541364
72  2023-10-24 15:31:52.572281
73  2023-10-24 15:31:52.605196
74  2023-10-24 15:31:52.637154
75  2023-10-24 15:31:52.669053
76  2023-10-24 15:31:52.700938
77  2023-10-24 15:31:52.748810
78  2023-10-24 15:31:52.780737
79  2023-10-24 15:31:52.813100
80  2023-10-24 15:31:52.844972
81  2023-10-24 15:31:52.876912
82  2023-10-24 15:31:52.908802
83  2023-10-24 15:31:52.940719
84  2023-10-24 15:31:52.972688
85  2023-10-24 15:31:53.005543
86  2023-10-24 15:31:53.037457
87  2023-10-24 15:31:53.068377
88  2023-10-24 15:31:53.101409
89  2023-10-24 15:31:53.149231
90  2023-10-24 15:31:53.181192
91  2023-10-24 15:31:53.213126
92  2023-10-24 15:31:53.245045
93  2023-10-24 15:31:53.276889
94  2023-10-24 15:31:53.308804
95  2023-10-24 15:31:53.340789
96  2023-10-24 15:31:53.372682
97  2023-10-24 15:31:53.404581
98  2023-10-24 15:31:53.436462
99  2023-10-24 15:31:53.468378
100  2023-10-24 15:31:53.501289
101  2023-10-24 15:31:53.549229
102  2023-10-24 15:31:53.581128
103  2023-10-24 15:31:53.613040
104  2023-10-24 15:31:53.644938
105  2023-10-24 15:31:53.676867
106  2023-10-24 15:31:53.708803
107  2023-10-24 15:31:53.740649
108  2023-10-24 15:31:53.772565
109  2023-10-24 15:31:53.804510
110  2023-10-24 15:31:53.836423
111  2023-10-24 15:31:53.868355
112  2023-10-24 15:31:53.901269
113  2023-10-24 15:31:53.949096
114  2023-10-24 15:31:53.981039
115  2023-10-24 15:31:54.012881
116  2023-10-24 15:31:54.044774
117  2023-10-24 15:31:54.076791
118  2023-10-24 15:31:54.108690
119  2023-10-24 15:31:54.140572
120  2023-10-24 15:31:54.172552
121  2023-10-24 15:31:54.204450
122  2023-10-24 15:31:54.237314
123  2023-10-24 15:31:54.269228
124  2023-10-24 15:31:54.301192
125  2023-10-24 15:31:54.349048
126  2023-10-24 15:31:54.381001
127  2023-10-24 15:31:54.412844
128  2023-10-24 15:31:54.444759
129  2023-10-24 15:31:54.476711
130  2023-10-24 15:31:54.508619
131  2023-10-24 15:31:54.540503
132  2023-10-24 15:31:54.572418
133  2023-10-24 15:31:54.605330
134  2023-10-24 15:31:54.637295
135  2023-10-24 15:31:54.669221
136  2023-10-24 15:31:54.701074
137  2023-10-24 15:31:54.748946
138  2023-10-24 15:31:54.780861
139  2023-10-24 15:31:54.812775
140  2023-10-24 15:31:54.844757
141  2023-10-24 15:31:54.876635
142  2023-10-24 15:31:54.908551
143  2023-10-24 15:31:54.940434
144  2023-10-24 15:31:54.972382
145  2023-10-24 15:31:55.005267
146  2023-10-24 15:31:55.037175
147  2023-10-24 15:31:55.069090
148  2023-10-24 15:31:55.101004
149  2023-10-24 15:31:55.148911
150  2023-10-24 15:31:55.180791
151  2023-10-24 15:31:55.212706
152  2023-10-24 15:31:55.244622
153  2023-10-24 15:31:55.276568
154  2023-10-24 15:31:55.308483
155  2023-10-24 15:31:55.341362
156  2023-10-24 15:31:55.372313
157  2023-10-24 15:31:55.405191
158  2023-10-24 15:31:55.437106
159  2023-10-24 15:31:55.469020
160  2023-10-24 15:31:55.500983
161  2023-10-24 15:31:55.548807
162  2023-10-24 15:31:55.580753
163  2023-10-24 15:31:55.612636
164  2023-10-24 15:31:55.644551
165  2023-10-24 15:31:55.676466
166  2023-10-24 15:31:55.708413
167  2023-10-24 15:31:55.740387
168  2023-10-24 15:31:55.772270
169  2023-10-24 15:31:55.805182
170  2023-10-24 15:31:55.837097
171  2023-10-24 15:31:55.869159
172  2023-10-24 15:31:55.901074
173  2023-10-24 15:31:55.948946
174  2023-10-24 15:31:55.980860
175  2023-10-24 15:31:56.012775
176  2023-10-24 15:31:56.044690
177  2023-10-24 15:31:56.076635
178  2023-10-24 15:31:56.108519
179  2023-10-24 15:31:56.140434
180  2023-10-24 15:31:56.172348
181  2023-10-24 15:31:56.205260
182  2023-10-24 15:31:56.237175
183  2023-10-24 15:31:56.269090
184  2023-10-24 15:31:56.301004
185  2023-10-24 15:31:56.348882
186  2023-10-24 15:31:56.380791
187  2023-10-24 15:31:56.412715
188  2023-10-24 15:31:56.444620
189  2023-10-24 15:31:56.476535
190  2023-10-24 15:31:56.508450
191  2023-10-24 15:31:56.540364
192  2023-10-24 15:31:56.572279
193  2023-10-24 15:31:56.605191
194  2023-10-24 15:31:56.637106
195  2023-10-24 15:31:56.669020
196  2023-10-24 15:31:56.700935
197  2023-10-24 15:31:56.748807
198  2023-10-24 15:31:56.780722
199  2023-10-24 15:31:56.812636
200  2023-10-24 15:31:56.844551
201  2023-10-24 15:31:56.876466
202  2023-10-24 15:31:56.908380
203  2023-10-24 15:31:56.940295
204  2023-10-24 15:31:56.973207
205  2023-10-24 15:31:57.005122
206  2023-10-24 15:31:57.037036
207  2023-10-24 15:31:57.069025
208  2023-10-24 15:31:57.100998
209  2023-10-24 15:31:57.148868
210  2023-10-24 15:31:57.180783
211  2023-10-24 15:31:57.212697
212  2023-10-24 15:31:57.245672
213  2023-10-24 15:31:57.276527
214  2023-10-24 15:31:57.308441
215  2023-10-24 15:31:57.341353
216  2023-10-24 15:31:57.373307
217  2023-10-24 15:31:57.405183
218  2023-10-24 15:31:57.437098
219  2023-10-24 15:31:57.469012
220  2023-10-24 15:31:57.500927
221  2023-10-24 15:31:57.548799
222  2023-10-24 15:31:57.580714
223  2023-10-24 15:31:57.612661
224  2023-10-24 15:31:57.645322
225  2023-10-24 15:31:57.677252
226  2023-10-24 15:31:57.709174
227  2023-10-24 15:31:57.741134
228  2023-10-24 15:31:57.773016
229  2023-10-24 15:31:57.804931
230  2023-10-24 15:31:57.836845
231  2023-10-24 15:31:57.868760
232  2023-10-24 15:31:57.900675
233  2023-10-24 15:31:57.948586
234  2023-10-24 15:31:57.980471
235  2023-10-24 15:31:58.012376
236  2023-10-24 15:31:58.045321
237  2023-10-24 15:31:58.077255
238  2023-10-24 15:31:58.109117
239  2023-10-24 15:31:58.141032
240  2023-10-24 15:31:58.172947
241  2023-10-24 15:31:58.204894
242  2023-10-24 15:31:58.236776
243  2023-10-24 15:31:58.268691
244  2023-10-24 15:31:58.300605
245  2023-10-24 15:31:58.348477
246  2023-10-24 15:31:58.380428
247  2023-10-24 15:31:58.412354
248  2023-10-24 15:31:58.445219
249  2023-10-24 15:31:58.477133
250  2023-10-24 15:31:58.509048
251  2023-10-24 15:31:58.540963
252  2023-10-24 15:31:58.572877
253  2023-10-24 15:31:58.604792
254  2023-10-24 15:31:58.636707
255  2023-10-24 15:31:58.668621
256  2023-10-24 15:31:58.700536
257  2023-10-24 15:31:58.748408
258  2023-10-24 15:31:58.780567
259  2023-10-24 15:31:58.812524
260  2023-10-24 15:31:58.844454
261  2023-10-24 15:31:58.876369
262  2023-10-24 15:31:58.909307
263  2023-10-24 15:31:58.941195
264  2023-10-24 15:31:58.973110
265  2023-10-24 15:31:59.005025
266  2023-10-24 15:31:59.036939
267  2023-10-24 15:31:59.068854
268  2023-10-24 15:31:59.100769
269  2023-10-24 15:31:59.148640
270  2023-10-24 15:31:59.180571
271  2023-10-24 15:31:59.212470
272  2023-10-24 15:31:59.245393
273  2023-10-24 15:31:59.277297
274  2023-10-24 15:31:59.309211
275  2023-10-24 15:31:59.341126
276  2023-10-24 15:31:59.373042
277  2023-10-24 15:31:59.404957
278  2023-10-24 15:31:59.436870
279  2023-10-24 15:31:59.468785
280  2023-10-24 15:31:59.500727
281  2023-10-24 15:31:59.548571
282  2023-10-24 15:31:59.580443
283  2023-10-24 15:31:59.612356
284  2023-10-24 15:31:59.645276
285  2023-10-24 15:31:59.677177
286  2023-10-24 15:31:59.709102
287  2023-10-24 15:31:59.740975
288  2023-10-24 15:31:59.772956
289  2023-10-24 15:31:59.804896
290  2023-10-24 15:31:59.836952
291  2023-10-24 15:31:59.868831
292  2023-10-24 15:31:59.900746
293  2023-10-24 15:31:59.948617
294  2023-10-24 15:31:59.980533
295  2023-10-24 15:32:00.012526
296  2023-10-24 15:32:00.044483
297  2023-10-24 15:32:00.076360
298  2023-10-24 15:32:00.108274
299  2023-10-24 15:32:00.141215
300  2023-10-24 15:32:00.173123
301  2023-10-24 15:32:00.205157
302  2023-10-24 15:32:00.237037
303  2023-10-24 15:32:00.268952
304  2023-10-24 15:32:00.300872
305  2023-10-24 15:32:00.348739
306  2023-10-24 15:32:00.380653
307  2023-10-24 15:32:00.412602
308  2023-10-24 15:32:00.444484
309  2023-10-24 15:32:00.476397
310  2023-10-24 15:32:00.508312
311  2023-10-24 15:32:00.541290
312  2023-10-24 15:32:00.573258
313  2023-10-24 15:32:00.605178
314  2023-10-24 15:32:00.637087
315  2023-10-24 15:32:00.669037
316  2023-10-24 15:32:00.700956
317  2023-10-24 15:32:00.748961
318  2023-10-24 15:32:00.780837
319  2023-10-24 15:32:00.812751
320  2023-10-24 15:32:00.844681
321  2023-10-24 15:32:00.876644
322  2023-10-24 15:32:00.908611
323  2023-10-24 15:32:00.940493
324  2023-10-24 15:32:00.972460
325  2023-10-24 15:32:01.004375
326  2023-10-24 15:32:01.036290
327  2023-10-24 15:32:01.069202
328  2023-10-24 15:32:01.101117
329  2023-10-24 15:32:01.149095
330  2023-10-24 15:32:01.181010
331  2023-10-24 15:32:01.212925
332  2023-10-24 15:32:01.244839
333  2023-10-24 15:32:01.276754
334  2023-10-24 15:32:01.308669
335  2023-10-24 15:32:01.340583
336  2023-10-24 15:32:01.372498
337  2023-10-24 15:32:01.404426
338  2023-10-24 15:32:01.436597
339  2023-10-24 15:32:01.468512
340  2023-10-24 15:32:01.501426
341  2023-10-24 15:32:01.548299
342  2023-10-24 15:32:01.581211
343  2023-10-24 15:32:01.613126
344  2023-10-24 15:32:01.645040
345  2023-10-24 15:32:01.676955
346  2023-10-24 15:32:01.708870
347  2023-10-24 15:32:01.740784
348  2023-10-24 15:32:01.772699
349  2023-10-24 15:32:01.804614
350  2023-10-24 15:32:01.836528
351  2023-10-24 15:32:01.869448
352  2023-10-24 15:32:01.901355
353  2023-10-24 15:32:01.949228
354  2023-10-24 15:32:01.981142
355  2023-10-24 15:32:02.013056
356  2023-10-24 15:32:02.044971
357  2023-10-24 15:32:02.076891
358  2023-10-24 15:32:02.108800
359  2023-10-24 15:32:02.140788
360  2023-10-24 15:32:02.172702
361  2023-10-24 15:32:02.204617
362  2023-10-24 15:32:02.236565
363  2023-10-24 15:32:02.268446
364  2023-10-24 15:32:02.301365
365  2023-10-24 15:32:02.349230
366  2023-10-24 15:32:02.381092
367  2023-10-24 15:32:02.413029
368  2023-10-24 15:32:02.444953
369  2023-10-24 15:32:02.477186
370  2023-10-24 15:32:02.509101
371  2023-10-24 15:32:02.541046
372  2023-10-24 15:32:02.572930
373  2023-10-24 15:32:02.604845
374  2023-10-24 15:32:02.636858
375  2023-10-24 15:32:02.668773
376  2023-10-24 15:32:02.701686
377  2023-10-24 15:32:02.748559
378  2023-10-24 15:32:02.780621
379  2023-10-24 15:32:02.812512
380  2023-10-24 15:32:02.844427
381  2023-10-24 15:32:02.876342
382  2023-10-24 15:32:02.909254
383  2023-10-24 15:32:02.941168
384  2023-10-24 15:32:02.973215
385  2023-10-24 15:32:03.005153
386  2023-10-24 15:32:03.037068
387  2023-10-24 15:32:03.068987
388  2023-10-24 15:32:03.100897
389  2023-10-24 15:32:03.148769
390  2023-10-24 15:32:03.180684
391  2023-10-24 15:32:03.212598
392  2023-10-24 15:32:03.244513
393  2023-10-24 15:32:03.276428
394  2023-10-24 15:32:03.308342
395  2023-10-24 15:32:03.341254
396  2023-10-24 15:32:03.373169
397  2023-10-24 15:32:03.405084
398  2023-10-24 15:32:03.436998
399  2023-10-24 15:32:03.468957
400  2023-10-24 15:32:03.500920
401  2023-10-24 15:32:03.548791
402  2023-10-24 15:32:03.580707
403  2023-10-24 15:32:03.612621
404  2023-10-24 15:32:03.644535
405  2023-10-24 15:32:03.676450
406  2023-10-24 15:32:03.709313
407  2023-10-24 15:32:03.741253
408  2023-10-24 15:32:03.773139
409  2023-10-24 15:32:03.805054
410  2023-10-24 15:32:03.837002
411  2023-10-24 15:32:03.868927
412  2023-10-24 15:32:03.900798
413  2023-10-24 15:32:03.948710
414  2023-10-24 15:32:03.980586
415  2023-10-24 15:32:04.012500
416  2023-10-24 15:32:04.044460
417  2023-10-24 15:32:04.076472
418  2023-10-24 15:32:04.109349
419  2023-10-24 15:32:04.141264
420  2023-10-24 15:32:04.173179
421  2023-10-24 15:32:04.205093
422  2023-10-24 15:32:04.237024
423  2023-10-24 15:32:04.269030
424  2023-10-24 15:32:04.301012
425  2023-10-24 15:32:04.349010
426  2023-10-24 15:32:04.380926
427  2023-10-24 15:32:04.412840
428  2023-10-24 15:32:04.444754
429  2023-10-24 15:32:04.476786
430  2023-10-24 15:32:04.508701
431  2023-10-24 15:32:04.540728
432  2023-10-24 15:32:04.572761
433  2023-10-24 15:32:04.604810
434  2023-10-24 15:32:04.636724
435  2023-10-24 15:32:04.668639
436  2023-10-24 15:32:04.701553
437  2023-10-24 15:32:04.748427
438  2023-10-24 15:32:04.781372
439  2023-10-24 15:32:04.813379
440  2023-10-24 15:32:04.845325
441  2023-10-24 15:32:04.877205
442  2023-10-24 15:32:04.909121
443  2023-10-24 15:32:04.941036
444  2023-10-24 15:32:04.973020
445  2023-10-24 15:32:05.004934
446  2023-10-24 15:32:05.036857
447  2023-10-24 15:32:05.069803
448  2023-10-24 15:32:05.101676
449  2023-10-24 15:32:05.149595
450  2023-10-24 15:32:05.180751
451  2023-10-24 15:32:05.212648
452  2023-10-24 15:32:05.244563
453  2023-10-24 15:32:05.277472
454  2023-10-24 15:32:05.308457
455  2023-10-24 15:32:05.341396
456  2023-10-24 15:32:05.373439
457  2023-10-24 15:32:05.404392
458  2023-10-24 15:32:05.437267
459  2023-10-24 15:32:05.469294
460  2023-10-24 15:32:05.501258
461  2023-10-24 15:32:05.549263
462  2023-10-24 15:32:05.581135
463  2023-10-24 15:32:05.613049
464  2023-10-24 15:32:05.645058
465  2023-10-24 15:32:05.676981
466  2023-10-24 15:32:05.708888
467  2023-10-24 15:32:05.740805
468  2023-10-24 15:32:05.772844
469  2023-10-24 15:32:05.804770
470  2023-10-24 15:32:05.836643
471  2023-10-24 15:32:05.869651
472  2023-10-24 15:32:05.901534
473  2023-10-24 15:32:05.949438
474  2023-10-24 15:32:05.981387
475  2023-10-24 15:32:06.013267
476  2023-10-24 15:32:06.045163
477  2023-10-24 15:32:06.077175
478  2023-10-24 15:32:06.109108
479  2023-10-24 15:32:06.140831
480  2023-10-24 15:32:06.172783
481  2023-10-24 15:32:06.204698
482  2023-10-24 15:32:06.236773
483  2023-10-24 15:32:06.268617
484  2023-10-24 15:32:06.301573
485  2023-10-24 15:32:06.348404
486  2023-10-24 15:32:06.381366
487  2023-10-24 15:32:06.413260
488  2023-10-24 15:32:06.445194
489  2023-10-24 15:32:06.477060
490  2023-10-24 15:32:06.509025
491  2023-10-24 15:32:06.540956
492  2023-10-24 15:32:06.572852
493  2023-10-24 15:32:06.604768
494  2023-10-24 15:32:06.636689
495  2023-10-24 15:32:06.668582
496  2023-10-24 15:32:06.701462
497  2023-10-24 15:32:06.748381
498  2023-10-24 15:32:06.781287
499  2023-10-24 15:32:06.812165
500  2023-10-24 15:32:06.845127
501  2023-10-24 15:32:06.876995
502  2023-10-24 15:32:06.908907
503  2023-10-24 15:32:06.940869
504  2023-10-24 15:32:06.972786
505  2023-10-24 15:32:07.004720
506  2023-10-24 15:32:07.036600
507  2023-10-24 15:32:07.068545
508  2023-10-24 15:32:07.100427
509  2023-10-24 15:32:07.149294
510  2023-10-24 15:32:07.180408
511  2023-10-24 15:32:07.212439
512  2023-10-24 15:32:07.244335
513  2023-10-24 15:32:07.277213
514  2023-10-24 15:32:07.309178
515  2023-10-24 15:32:07.341077
516  2023-10-24 15:32:07.372992
517  2023-10-24 15:32:07.404949
518  2023-10-24 15:32:07.436786
519  2023-10-24 15:32:07.468701
520  2023-10-24 15:32:07.501646
521  2023-10-24 15:32:07.548531
522  2023-10-24 15:32:07.580440
523  2023-10-24 15:32:07.612351
524  2023-10-24 15:32:07.645269
525  2023-10-24 15:32:07.677144
526  2023-10-24 15:32:07.709110
527  2023-10-24 15:32:07.741029
528  2023-10-24 15:32:07.772922
529  2023-10-24 15:32:07.804854
530  2023-10-24 15:32:07.836745
531  2023-10-24 15:32:07.868658
532  2023-10-24 15:32:07.900577
533  2023-10-24 15:32:07.948418
534  2023-10-24 15:32:07.980384
535  2023-10-24 15:32:08.012321
536  2023-10-24 15:32:08.045214
537  2023-10-24 15:32:08.077215
538  2023-10-24 15:32:08.109080
539  2023-10-24 15:32:08.141043
540  2023-10-24 15:32:08.172961
541  2023-10-24 15:32:08.204858
542  2023-10-24 15:32:08.236790
543  2023-10-24 15:32:08.268654
544  2023-10-24 15:32:08.300568
545  2023-10-24 15:32:08.348440
546  2023-10-24 15:32:08.380389
547  2023-10-24 15:32:08.413298
548  2023-10-24 15:32:08.445244
549  2023-10-24 15:32:08.477132
550  2023-10-24 15:32:08.509057
551  2023-10-24 15:32:08.540954
552  2023-10-24 15:32:08.572889
553  2023-10-24 15:32:08.604802
554  2023-10-24 15:32:08.636732
555  2023-10-24 15:32:08.668584
556  2023-10-24 15:32:08.700552
557  2023-10-24 15:32:08.748441
558  2023-10-24 15:32:08.781325
559  2023-10-24 15:32:08.813225
560  2023-10-24 15:32:08.845165
561  2023-10-24 15:32:08.877080
562  2023-10-24 15:32:08.908942
563  2023-10-24 15:32:08.940895
564  2023-10-24 15:32:08.972821
565  2023-10-24 15:32:09.004759
566  2023-10-24 15:32:09.037630
567  2023-10-24 15:32:09.069515
568  2023-10-24 15:32:09.101428
569  2023-10-24 15:32:09.149425
570  2023-10-24 15:32:09.180360
571  2023-10-24 15:32:09.213268
572  2023-10-24 15:32:09.245139
573  2023-10-24 15:32:09.277099
574  2023-10-24 15:32:09.309002
575  2023-10-24 15:32:09.340921
576  2023-10-24 15:32:09.372797
577  2023-10-24 15:32:09.404743
578  2023-10-24 15:32:09.436662
579  2023-10-24 15:32:09.468572
580  2023-10-24 15:32:09.501482
581  2023-10-24 15:32:09.548326
582  2023-10-24 15:32:09.581272
583  2023-10-24 15:32:09.613209
584  2023-10-24 15:32:09.645101
585  2023-10-24 15:32:09.677031
586  2023-10-24 15:32:09.708946
587  2023-10-24 15:32:09.740860
588  2023-10-24 15:32:09.772773
589  2023-10-24 15:32:09.805199
590  2023-10-24 15:32:09.837125
591  2023-10-24 15:32:09.869039
592  2023-10-24 15:32:09.900927
593  2023-10-24 15:32:09.948848
594  2023-10-24 15:32:09.980785
595  2023-10-24 15:32:10.012662
596  2023-10-24 15:32:10.044568
597  2023-10-24 15:32:10.076493
598  2023-10-24 15:32:10.108372
599  2023-10-24 15:32:10.141297
600  2023-10-24 15:32:10.172251
601  2023-10-24 15:32:10.205164
602  2023-10-24 15:32:10.237060
603  2023-10-24 15:32:10.268978
604  2023-10-24 15:32:10.300890
605  2023-10-24 15:32:10.348760
606  2023-10-24 15:32:10.380670
607  2023-10-24 15:32:10.412591
608  2023-10-24 15:32:10.444505
609  2023-10-24 15:32:10.476426
610  2023-10-24 15:32:10.508341
611  2023-10-24 15:32:10.540249
612  2023-10-24 15:32:10.573156
613  2023-10-24 15:32:10.605079
614  2023-10-24 15:32:10.637054
615  2023-10-24 15:32:10.668875
616  2023-10-24 15:32:10.700789
617  2023-10-24 15:32:10.748662
618  2023-10-24 15:32:10.780653
619  2023-10-24 15:32:10.812559
620  2023-10-24 15:32:10.844480
621  2023-10-24 15:32:10.876396
622  2023-10-24 15:32:10.909304
623  2023-10-24 15:32:10.941234
624  2023-10-24 15:32:10.973129
625  2023-10-24 15:32:11.005046
626  2023-10-24 15:32:11.036977
627  2023-10-24 15:32:11.068873
628  2023-10-24 15:32:11.100793
629  2023-10-24 15:32:11.148669
630  2023-10-24 15:32:11.180582
631  2023-10-24 15:32:11.212499
632  2023-10-24 15:32:11.244409
633  2023-10-24 15:32:11.276322
634  2023-10-24 15:32:11.309257
635  2023-10-24 15:32:11.341120
636  2023-10-24 15:32:11.373062
637  2023-10-24 15:32:11.404980
638  2023-10-24 15:32:11.436890
639  2023-10-24 15:32:11.468834
640  2023-10-24 15:32:11.500750
641  2023-10-24 15:32:11.548606
642  2023-10-24 15:32:11.580519
643  2023-10-24 15:32:11.612425
644  2023-10-24 15:32:11.644339
645  2023-10-24 15:32:11.677252
646  2023-10-24 15:32:11.709175
647  2023-10-24 15:32:11.741050
648  2023-10-24 15:32:11.772965
649  2023-10-24 15:32:11.804911
650  2023-10-24 15:32:11.836820
651  2023-10-24 15:32:11.868740
652  2023-10-24 15:32:11.900623
653  2023-10-24 15:32:11.949493
654  2023-10-24 15:32:11.980410
655  2023-10-24 15:32:12.013322
656  2023-10-24 15:32:12.045237
657  2023-10-24 15:32:12.077152
658  2023-10-24 15:32:12.109066
659  2023-10-24 15:32:12.140981
660  2023-10-24 15:32:12.172896
661  2023-10-24 15:32:12.204810
662  2023-10-24 15:32:12.236725
663  2023-10-24 15:32:12.268665
664  2023-10-24 15:32:12.300554
665  2023-10-24 15:32:12.349425
666  2023-10-24 15:32:12.380371
667  2023-10-24 15:32:12.413253
668  2023-10-24 15:32:12.445168
669  2023-10-24 15:32:12.477082
670  2023-10-24 15:32:12.508997
671  2023-10-24 15:32:12.540965
672  2023-10-24 15:32:12.572835
673  2023-10-24 15:32:12.604741
674  2023-10-24 15:32:12.636669
675  2023-10-24 15:32:12.668570
676  2023-10-24 15:32:12.701484
677  2023-10-24 15:32:12.748400
678  2023-10-24 15:32:12.781300
679  2023-10-24 15:32:12.813184
680  2023-10-24 15:32:12.845098
681  2023-10-24 15:32:12.877045
682  2023-10-24 15:32:12.908955
683  2023-10-24 15:32:12.940842
684  2023-10-24 15:32:12.972757
685  2023-10-24 15:32:13.004672
686  2023-10-24 15:32:13.037616
687  2023-10-24 15:32:13.069498
688  2023-10-24 15:32:13.100416
689  2023-10-24 15:32:13.149285
690  2023-10-24 15:32:13.180202
691  2023-10-24 15:32:13.213151
692  2023-10-24 15:32:13.245064
693  2023-10-24 15:32:13.276944
694  2023-10-24 15:32:13.308858
695  2023-10-24 15:32:13.340878
696  2023-10-24 15:32:13.372792
697  2023-10-24 15:32:13.404707
698  2023-10-24 15:32:13.436621
699  2023-10-24 15:32:13.469533
700  2023-10-24 15:32:13.500451
701  2023-10-24 15:32:13.549320
702  2023-10-24 15:32:13.581235
703  2023-10-24 15:32:13.613149
704  2023-10-24 15:32:13.645064
705  2023-10-24 15:32:13.676979
706  2023-10-24 15:32:13.708893
707  2023-10-24 15:32:13.740808
708  2023-10-24 15:32:13.772723
709  2023-10-24 15:32:13.804637
710  2023-10-24 15:32:13.836552
711  2023-10-24 15:32:13.868467
712  2023-10-24 15:32:13.900381
713  2023-10-24 15:32:13.949251
714  2023-10-24 15:32:13.981165
715  2023-10-24 15:32:14.013080
716  2023-10-24 15:32:14.044995
717  2023-10-24 15:32:14.076909
718  2023-10-24 15:32:14.108824
719  2023-10-24 15:32:14.140739
720  2023-10-24 15:32:14.172653
721  2023-10-24 15:32:14.204568
722  2023-10-24 15:32:14.236483
723  2023-10-24 15:32:14.269395
724  2023-10-24 15:32:14.301311
725  2023-10-24 15:32:14.349183
726  2023-10-24 15:32:14.381098
727  2023-10-24 15:32:14.413013
728  2023-10-24 15:32:14.444957
729  2023-10-24 15:32:14.476841
730  2023-10-24 15:32:14.508756
731  2023-10-24 15:32:14.540716
732  2023-10-24 15:32:14.572610
733  2023-10-24 15:32:14.604500
734  2023-10-24 15:32:14.637412
735  2023-10-24 15:32:14.668381
736  2023-10-24 15:32:14.701292
737  2023-10-24 15:32:14.749161
738  2023-10-24 15:32:14.781077
739  2023-10-24 15:32:14.812943
740  2023-10-24 15:32:14.844857
741  2023-10-24 15:32:14.876807
742  2023-10-24 15:32:14.908720
743  2023-10-24 15:32:14.940601
744  2023-10-24 15:32:14.972516
745  2023-10-24 15:32:15.004461
746  2023-10-24 15:32:15.037354
747  2023-10-24 15:32:15.069268
748  2023-10-24 15:32:15.101172
749  2023-10-24 15:32:15.149044
750  2023-10-24 15:32:15.181111
751  2023-10-24 15:32:15.213026
752  2023-10-24 15:32:15.244941
753  2023-10-24 15:32:15.276855
754  2023-10-24 15:32:15.308770
755  2023-10-24 15:32:15.340685
756  2023-10-24 15:32:15.372599
757  2023-10-24 15:32:15.404514
758  2023-10-24 15:32:15.436429
759  2023-10-24 15:32:15.469343
760  2023-10-24 15:32:15.501259
761  2023-10-24 15:32:15.549127
762  2023-10-24 15:32:15.581042
763  2023-10-24 15:32:15.612957
764  2023-10-24 15:32:15.644871
765  2023-10-24 15:32:15.676786
766  2023-10-24 15:32:15.708701
767  2023-10-24 15:32:15.740677
768  2023-10-24 15:32:15.772530
769  2023-10-24 15:32:15.805443
770  2023-10-24 15:32:15.837357
771  2023-10-24 15:32:15.869275
772  2023-10-24 15:32:15.901186
773  2023-10-24 15:32:15.949058
774  2023-10-24 15:32:15.980973
775  2023-10-24 15:32:16.012888
776  2023-10-24 15:32:16.044968
777  2023-10-24 15:32:16.076882
778  2023-10-24 15:32:16.108797
779  2023-10-24 15:32:16.140712
780  2023-10-24 15:32:16.172630
781  2023-10-24 15:32:16.204541
782  2023-10-24 15:32:16.237460
783  2023-10-24 15:32:16.269370
784  2023-10-24 15:32:16.301283
785  2023-10-24 15:32:16.349256
786  2023-10-24 15:32:16.381230
787  2023-10-24 15:32:16.412317
788  2023-10-24 15:32:16.445269
789  2023-10-24 15:32:16.476959
790  2023-10-24 15:32:16.508908
791  2023-10-24 15:32:16.540792
792  2023-10-24 15:32:16.573057
793  2023-10-24 15:32:16.605017
794  2023-10-24 15:32:16.636932
795  2023-10-24 15:32:16.668873
796  2023-10-24 15:32:16.700817
797  2023-10-24 15:32:16.748664
798  2023-10-24 15:32:16.780548
799  2023-10-24 15:32:16.812565
800  2023-10-24 15:32:16.844524
801  2023-10-24 15:32:16.876471
802  2023-10-24 15:32:16.908423
803  2023-10-24 15:32:16.940356
804  2023-10-24 15:32:16.973268
805  2023-10-24 15:32:17.005244
806  2023-10-24 15:32:17.037097
807  2023-10-24 15:32:17.069012
808  2023-10-24 15:32:17.100926
809  2023-10-24 15:32:17.148798
810  2023-10-24 15:32:17.180713
811  2023-10-24 15:32:17.212628
812  2023-10-24 15:32:17.244542
813  2023-10-24 15:32:17.276457
814  2023-10-24 15:32:17.308372
815  2023-10-24 15:32:17.341419
816  2023-10-24 15:32:17.373412
817  2023-10-24 15:32:17.405325
818  2023-10-24 15:32:17.437240
819  2023-10-24 15:32:17.469154
820  2023-10-24 15:32:17.501069
821  2023-10-24 15:32:17.548941
822  2023-10-24 15:32:17.581005
823  2023-10-24 15:32:17.612920
824  2023-10-24 15:32:17.644995
825  2023-10-24 15:32:17.676910
826  2023-10-24 15:32:17.708824
827  2023-10-24 15:32:17.740739
828  2023-10-24 15:32:17.773651
829  2023-10-24 15:32:17.804568
830  2023-10-24 15:32:17.837480
831  2023-10-24 15:32:17.869397
832  2023-10-24 15:32:17.901311
833  2023-10-24 15:32:17.949218
834  2023-10-24 15:32:17.981096
835  2023-10-24 15:32:18.013011
836  2023-10-24 15:32:18.044926
837  2023-10-24 15:32:18.076840
838  2023-10-24 15:32:18.108755
839  2023-10-24 15:32:18.140670
840  2023-10-24 15:32:18.173582
841  2023-10-24 15:32:18.204727
842  2023-10-24 15:32:18.237593
843  2023-10-24 15:32:18.268669
844  2023-10-24 15:32:18.300710
845  2023-10-24 15:32:18.348713
846  2023-10-24 15:32:18.380659
847  2023-10-24 15:32:18.412623
848  2023-10-24 15:32:18.444537
849  2023-10-24 15:32:18.476487
850  2023-10-24 15:32:18.508419
851  2023-10-24 15:32:18.540371
852  2023-10-24 15:32:18.572332
853  2023-10-24 15:32:18.605235
854  2023-10-24 15:32:18.637153
855  2023-10-24 15:32:18.669044
856  2023-10-24 15:32:18.700958
857  2023-10-24 15:32:18.748940
858  2023-10-24 15:32:18.780799
859  2023-10-24 15:32:18.812714
860  2023-10-24 15:32:18.844629
861  2023-10-24 15:32:18.876592
862  2023-10-24 15:32:18.908493
863  2023-10-24 15:32:18.940373
864  2023-10-24 15:32:18.973286
865  2023-10-24 15:32:19.005200
866  2023-10-24 15:32:19.037148
867  2023-10-24 15:32:19.069033
868  2023-10-24 15:32:19.100943
869  2023-10-24 15:32:19.148815
870  2023-10-24 15:32:19.180730
871  2023-10-24 15:32:19.212645
872  2023-10-24 15:32:19.244559
873  2023-10-24 15:32:19.276474
874  2023-10-24 15:32:19.309386
875  2023-10-24 15:32:19.340507
876  2023-10-24 15:32:19.372421
877  2023-10-24 15:32:19.405333
878  2023-10-24 15:32:19.437248
879  2023-10-24 15:32:19.469168
880  2023-10-24 15:32:19.501077
881  2023-10-24 15:32:19.548949
882  2023-10-24 15:32:19.580951
883  2023-10-24 15:32:19.612865
884  2023-10-24 15:32:19.644780
885  2023-10-24 15:32:19.676695
886  2023-10-24 15:32:19.708611
887  2023-10-24 15:32:19.740555
888  2023-10-24 15:32:19.772439
889  2023-10-24 15:32:19.805351
890  2023-10-24 15:32:19.837265
891  2023-10-24 15:32:19.869224
892  2023-10-24 15:32:19.901095
893  2023-10-24 15:32:19.949016
894  2023-10-24 15:32:19.981016
895  2023-10-24 15:32:20.012931
896  2023-10-24 15:32:20.044930
897  2023-10-24 15:32:20.076888
898  2023-10-24 15:32:20.108891
899  2023-10-24 15:32:20.140800
900  2023-10-24 15:32:20.172715
901  2023-10-24 15:32:20.204675
902  2023-10-24 15:32:20.236579
903  2023-10-24 15:32:20.269456
904  2023-10-24 15:32:20.301371
905  2023-10-24 15:32:20.349243
906  2023-10-24 15:32:20.381205
907  2023-10-24 15:32:20.412255
908  2023-10-24 15:32:20.445173
909  2023-10-24 15:32:20.477087
910  2023-10-24 15:32:20.509000
911  2023-10-24 15:32:20.540916
912  2023-10-24 15:32:20.573956
913  2023-10-24 15:32:20.605844
914  2023-10-24 15:32:20.636814
915  2023-10-24 15:32:20.669868
916  2023-10-24 15:32:20.701849
917  2023-10-24 15:32:20.748684
918  2023-10-24 15:32:20.781591
919  2023-10-24 15:32:20.813507
920  2023-10-24 15:32:20.845420
921  2023-10-24 15:32:20.877336
922  2023-10-24 15:32:20.909335
923  2023-10-24 15:32:20.941256
924  2023-10-24 15:32:20.973129
925  2023-10-24 15:32:21.005044
926  2023-10-24 15:32:21.036957
927  2023-10-24 15:32:21.068872
928  2023-10-24 15:32:21.100802
929  2023-10-24 15:32:21.148659
930  2023-10-24 15:32:21.180573
931  2023-10-24 15:32:21.212488
932  2023-10-24 15:32:21.244403
933  2023-10-24 15:32:21.277317
934  2023-10-24 15:32:21.309275
935  2023-10-24 15:32:21.341278
936  2023-10-24 15:32:21.374224
937  2023-10-24 15:32:21.405102
938  2023-10-24 15:32:21.437076
939  2023-10-24 15:32:21.468963
940  2023-10-24 15:32:21.500877
941  2023-10-24 15:32:21.548750
942  2023-10-24 15:32:21.581630
943  2023-10-24 15:32:21.613545
944  2023-10-24 15:32:21.644462
945  2023-10-24 15:32:21.677373
946  2023-10-24 15:32:21.709329
947  2023-10-24 15:32:21.741265
948  2023-10-24 15:32:21.773180
949  2023-10-24 15:32:21.805150
950  2023-10-24 15:32:21.837063
951  2023-10-24 15:32:21.868980
952  2023-10-24 15:32:21.901891
953  2023-10-24 15:32:21.949889
954  2023-10-24 15:32:21.980773
955  2023-10-24 15:32:22.012689
956  2023-10-24 15:32:22.044648
957  2023-10-24 15:32:22.076784
958  2023-10-24 15:32:22.108734
959  2023-10-24 15:32:22.140738
960  2023-10-24 15:32:22.172688
961  2023-10-24 15:32:22.204585
962  2023-10-24 15:32:22.237468
963  2023-10-24 15:32:22.269412
964  2023-10-24 15:32:22.301299
965  2023-10-24 15:32:22.349211
966  2023-10-24 15:32:22.381141
967  2023-10-24 15:32:22.413045
968  2023-10-24 15:32:22.444946
969  2023-10-24 15:32:22.476826
970  2023-10-24 15:32:22.508790
971  2023-10-24 15:32:22.540712
972  2023-10-24 15:32:22.573594
973  2023-10-24 15:32:22.604549
974  2023-10-24 15:32:22.637397
975  2023-10-24 15:32:22.669339
976  2023-10-24 15:32:22.701262
977  2023-10-24 15:32:22.749143
978  2023-10-24 15:32:22.781048
979  2023-10-24 15:32:22.812997
980  2023-10-24 15:32:22.844911
981  2023-10-24 15:32:22.876808
982  2023-10-24 15:32:22.908672
983  2023-10-24 15:32:22.940651
984  2023-10-24 15:32:22.972553
985  2023-10-24 15:32:23.005466
986  2023-10-24 15:32:23.037363
987  2023-10-24 15:32:23.068245
988  2023-10-24 15:32:23.101189
989  2023-10-24 15:32:23.149064
990  2023-10-24 15:32:23.180970
991  2023-10-24 15:32:23.212896
992  2023-10-24 15:32:23.244823
993  2023-10-24 15:32:23.276688
994  2023-10-24 15:32:23.308602
995  2023-10-24 15:32:23.341555
996  2023-10-24 15:32:23.373480
997  2023-10-24 15:32:23.405344
998  2023-10-24 15:32:23.437272
999  2023-10-24 15:32:23.469240
1000  2023-10-24 15:32:23.501114
1001  2023-10-24 15:32:23.549009
1002  2023-10-24 15:32:23.580907
1003  2023-10-24 15:32:23.612837
1004  2023-10-24 15:32:23.644773
1005  2023-10-24 15:32:23.676654
1006  2023-10-24 15:32:23.708533
1007  2023-10-24 15:32:23.740481
1008  2023-10-24 15:32:23.772393
1009  2023-10-24 15:32:23.805314
1010  2023-10-24 15:32:23.837190
1011  2023-10-24 15:32:23.869131
1012  2023-10-24 15:32:23.901020
1013  2023-10-24 15:32:23.948948
1014  2023-10-24 15:32:23.980807
1015  2023-10-24 15:32:24.012751
1016  2023-10-24 15:32:24.044681
1017  2023-10-24 15:32:24.076584
1018  2023-10-24 15:32:24.108511
1019  2023-10-24 15:32:24.140428
1020  2023-10-24 15:32:24.173337
1021  2023-10-24 15:32:24.205240
1022  2023-10-24 15:32:24.237120
1023  2023-10-24 15:32:24.269035
1024  2023-10-24 15:32:24.301006
1025  2023-10-24 15:32:24.348821
1026  2023-10-24 15:32:24.380775
1027  2023-10-24 15:32:24.412691
1028  2023-10-24 15:32:24.444601
1029  2023-10-24 15:32:24.476480
1030  2023-10-24 15:32:24.509392
1031  2023-10-24 15:32:24.541343
1032  2023-10-24 15:32:24.573274
1033  2023-10-24 15:32:24.605171
1034  2023-10-24 15:32:24.637080
1035  2023-10-24 15:32:24.669009
1036  2023-10-24 15:32:24.700880
1037  2023-10-24 15:32:24.748799
1038  2023-10-24 15:32:24.780701
1039  2023-10-24 15:32:24.812634
1040  2023-10-24 15:32:24.844533
1041  2023-10-24 15:32:24.876459
1042  2023-10-24 15:32:24.908327
1043  2023-10-24 15:32:24.941239
1044  2023-10-24 15:32:24.973196
1045  2023-10-24 15:32:25.005107
1046  2023-10-24 15:32:25.037012
1047  2023-10-24 15:32:25.068898
1048  2023-10-24 15:32:25.100813
1049  2023-10-24 15:32:25.148758
1050  2023-10-24 15:32:25.180641
1051  2023-10-24 15:32:25.212552
1052  2023-10-24 15:32:25.244497
1053  2023-10-24 15:32:25.276389
1054  2023-10-24 15:32:25.309255
1055  2023-10-24 15:32:25.341210
1056  2023-10-24 15:32:25.373150
1057  2023-10-24 15:32:25.405033
1058  2023-10-24 15:32:25.436938
1059  2023-10-24 15:32:25.468859
1060  2023-10-24 15:32:25.500775
1061  2023-10-24 15:32:25.548680
1062  2023-10-24 15:32:25.580528
1063  2023-10-24 15:32:25.613475
1064  2023-10-24 15:32:25.644390
1065  2023-10-24 15:32:25.676306
1066  2023-10-24 15:32:25.709188
1067  2023-10-24 15:32:25.741105
1068  2023-10-24 15:32:25.773063
1069  2023-10-24 15:32:25.804977
1070  2023-10-24 15:32:25.836869
1071  2023-10-24 15:32:25.868777
1072  2023-10-24 15:32:25.900673
1073  2023-10-24 15:32:25.948552
1074  2023-10-24 15:32:25.980490
1075  2023-10-24 15:32:26.012405
1076  2023-10-24 15:32:26.044327
1077  2023-10-24 15:32:26.077259
1078  2023-10-24 15:32:26.109168
1079  2023-10-24 15:32:26.141073
1080  2023-10-24 15:32:26.172997
1081  2023-10-24 15:32:26.204888
1082  2023-10-24 15:32:26.236823
1083  2023-10-24 15:32:26.268768
1084  2023-10-24 15:32:26.300604
1085  2023-10-24 15:32:26.348510
1086  2023-10-24 15:32:26.380423
1087  2023-10-24 15:32:26.412343
1088  2023-10-24 15:32:26.445266
1089  2023-10-24 15:32:26.477168
1090  2023-10-24 15:32:26.509047
1091  2023-10-24 15:32:26.540997
1092  2023-10-24 15:32:26.572928
1093  2023-10-24 15:32:26.604829
1094  2023-10-24 15:32:26.636734
1095  2023-10-24 15:32:26.668695
1096  2023-10-24 15:32:26.701537
1097  2023-10-24 15:32:26.748448
1098  2023-10-24 15:32:26.780355
1099  2023-10-24 15:32:26.813262
1100  2023-10-24 15:32:26.845191
1101  2023-10-24 15:32:26.877106
1102  2023-10-24 15:32:26.909012
1103  2023-10-24 15:32:26.940925
1104  2023-10-24 15:32:26.972832
1105  2023-10-24 15:32:27.004757
1106  2023-10-24 15:32:27.036685
1107  2023-10-24 15:32:27.069548
1108  2023-10-24 15:32:27.100496
1109  2023-10-24 15:32:27.149367
1110  2023-10-24 15:32:27.180296
1111  2023-10-24 15:32:27.213243
1112  2023-10-24 15:32:27.245237
1113  2023-10-24 15:32:27.277153
1114  2023-10-24 15:32:27.309066
1115  2023-10-24 15:32:27.340963
1116  2023-10-24 15:32:27.372872
1117  2023-10-24 15:32:27.404792
1118  2023-10-24 15:32:27.436728
1119  2023-10-24 15:32:27.468622
1120  2023-10-24 15:32:27.500544
1121  2023-10-24 15:32:27.548409
1122  2023-10-24 15:32:27.580336
1123  2023-10-24 15:32:27.613202
1124  2023-10-24 15:32:27.645145
1125  2023-10-24 15:32:27.677060
1126  2023-10-24 15:32:27.708973
1127  2023-10-24 15:32:27.740892
1128  2023-10-24 15:32:27.772776
1129  2023-10-24 15:32:27.804742
1130  2023-10-24 15:32:27.836629
1131  2023-10-24 15:32:27.868573
1132  2023-10-24 15:32:27.901432
1133  2023-10-24 15:32:27.948355
1134  2023-10-24 15:32:27.981219
1135  2023-10-24 15:32:28.013133
1136  2023-10-24 15:32:28.045082
1137  2023-10-24 15:32:28.076962
1138  2023-10-24 15:32:28.108931
1139  2023-10-24 15:32:28.140792
1140  2023-10-24 15:32:28.172731
1141  2023-10-24 15:32:28.204656
1142  2023-10-24 15:32:28.236570
1143  2023-10-24 15:32:28.268514
1144  2023-10-24 15:32:28.301366
1145  2023-10-24 15:32:28.349266
1146  2023-10-24 15:32:28.381149
1147  2023-10-24 15:32:28.413064
1148  2023-10-24 15:32:28.445025
1149  2023-10-24 15:32:28.476945
1150  2023-10-24 15:32:28.508843
1151  2023-10-24 15:32:28.540723
1152  2023-10-24 15:32:28.572637
1153  2023-10-24 15:32:28.604552
1154  2023-10-24 15:32:28.636498
1155  2023-10-24 15:32:28.668439
1156  2023-10-24 15:32:28.701310
1157  2023-10-24 15:32:28.749165
1158  2023-10-24 15:32:28.781113
1159  2023-10-24 15:32:28.813005
1160  2023-10-24 15:32:28.844909
1161  2023-10-24 15:32:28.876856
1162  2023-10-24 15:32:28.908739
1163  2023-10-24 15:32:28.940726
1164  2023-10-24 15:32:28.972580
1165  2023-10-24 15:32:29.005480
1166  2023-10-24 15:32:29.036400
1167  2023-10-24 15:32:29.068359
1168  2023-10-24 15:32:29.101238
1169  2023-10-24 15:32:29.149096
1170  2023-10-24 15:32:29.181011
1171  2023-10-24 15:32:29.212926
1172  2023-10-24 15:32:29.244869
1173  2023-10-24 15:32:29.276755
1174  2023-10-24 15:32:29.308669
1175  2023-10-24 15:32:29.340622
1176  2023-10-24 15:32:29.372553
1177  2023-10-24 15:32:29.405412
1178  2023-10-24 15:32:29.436368
1179  2023-10-24 15:32:29.469240
1180  2023-10-24 15:32:29.501206
1181  2023-10-24 15:32:29.549027
1182  2023-10-24 15:32:29.580974
1183  2023-10-24 15:32:29.612856
1184  2023-10-24 15:32:29.644771
1185  2023-10-24 15:32:29.676685
1186  2023-10-24 15:32:29.708635
1187  2023-10-24 15:32:29.740515
1188  2023-10-24 15:32:29.772429
1189  2023-10-24 15:32:29.804344
1190  2023-10-24 15:32:29.837311
1191  2023-10-24 15:32:29.869171
1192  2023-10-24 15:32:29.901085
1193  2023-10-24 15:32:29.948957
1194  2023-10-24 15:32:29.980872
1195  2023-10-24 15:32:30.012787
1196  2023-10-24 15:32:30.044701
1197  2023-10-24 15:32:30.076630
1198  2023-10-24 15:32:30.108531
1199  2023-10-24 15:32:30.141444
1200  2023-10-24 15:32:30.173361
1201  2023-10-24 15:32:30.205358
1202  2023-10-24 15:32:30.237272
1203  2023-10-24 15:32:30.269187
1204  2023-10-24 15:32:30.301101
1205  2023-10-24 15:32:30.348973
1206  2023-10-24 15:32:30.380888
1207  2023-10-24 15:32:30.412803
1208  2023-10-24 15:32:30.444717
1209  2023-10-24 15:32:30.476632
1210  2023-10-24 15:32:30.509545
1211  2023-10-24 15:32:30.540461
1212  2023-10-24 15:32:30.573374
1213  2023-10-24 15:32:30.605289
1214  2023-10-24 15:32:30.637203
1215  2023-10-24 15:32:30.669117
1216  2023-10-24 15:32:30.701032
1217  2023-10-24 15:32:30.748904
1218  2023-10-24 15:32:30.780819
1219  2023-10-24 15:32:30.812733
1220  2023-10-24 15:32:30.844648
1221  2023-10-24 15:32:30.876563
1222  2023-10-24 15:32:30.908508
1223  2023-10-24 15:32:30.940392
1224  2023-10-24 15:32:30.973304
1225  2023-10-24 15:32:31.005219
1226  2023-10-24 15:32:31.037135
1227  2023-10-24 15:32:31.069050
1228  2023-10-24 15:32:31.100963
1229  2023-10-24 15:32:31.148835
1230  2023-10-24 15:32:31.180750
1231  2023-10-24 15:32:31.212664
1232  2023-10-24 15:32:31.244613
1233  2023-10-24 15:32:31.277491
1234  2023-10-24 15:32:31.309405
1235  2023-10-24 15:32:31.341320
1236  2023-10-24 15:32:31.373322
1237  2023-10-24 15:32:31.405149
1238  2023-10-24 15:32:31.437064
1239  2023-10-24 15:32:31.468979
1240  2023-10-24 15:32:31.500943
1241  2023-10-24 15:32:31.548765
1242  2023-10-24 15:32:31.580725
1243  2023-10-24 15:32:31.612595
1244  2023-10-24 15:32:31.645507
1245  2023-10-24 15:32:31.677421
1246  2023-10-24 15:32:31.709338
1247  2023-10-24 15:32:31.740752
1248  2023-10-24 15:32:31.772761
1249  2023-10-24 15:32:31.804848
1250  2023-10-24 15:32:31.836762
1251  2023-10-24 15:32:31.868677
1252  2023-10-24 15:32:31.900592
1253  2023-10-24 15:32:31.948464
1254  2023-10-24 15:32:31.980378
1255  2023-10-24 15:32:32.013290
1256  2023-10-24 15:32:32.045205
1257  2023-10-24 15:32:32.077120
1258  2023-10-24 15:32:32.109034
1259  2023-10-24 15:32:32.140949
1260  2023-10-24 15:32:32.172864
1261  2023-10-24 15:32:32.204778
1262  2023-10-24 15:32:32.236693
1263  2023-10-24 15:32:32.268608
1264  2023-10-24 15:32:32.300522
1265  2023-10-24 15:32:32.348394
1266  2023-10-24 15:32:32.381306
1267  2023-10-24 15:32:32.413256
1268  2023-10-24 15:32:32.445136
1269  2023-10-24 15:32:32.477050
1270  2023-10-24 15:32:32.508965
1271  2023-10-24 15:32:32.540880
1272  2023-10-24 15:32:32.572840
1273  2023-10-24 15:32:32.604709
1274  2023-10-24 15:32:32.637621
1275  2023-10-24 15:32:32.668571
1276  2023-10-24 15:32:32.700484
1277  2023-10-24 15:32:32.749354
1278  2023-10-24 15:32:32.781263
1279  2023-10-24 15:32:32.813152
1280  2023-10-24 15:32:32.845066
1281  2023-10-24 15:32:32.877012
1282  2023-10-24 15:32:32.908945
1283  2023-10-24 15:32:32.940810
1284  2023-10-24 15:32:32.972728
1285  2023-10-24 15:32:33.004640
1286  2023-10-24 15:32:33.036587
1287  2023-10-24 15:32:33.069468
1288  2023-10-24 15:32:33.101575
1289  2023-10-24 15:32:33.149447
1290  2023-10-24 15:32:33.180364
1291  2023-10-24 15:32:33.213310
1292  2023-10-24 15:32:33.245239
1293  2023-10-24 15:32:33.277106
1294  2023-10-24 15:32:33.309020
1295  2023-10-24 15:32:33.340935
1296  2023-10-24 15:32:33.372882
1297  2023-10-24 15:32:33.404764
1298  2023-10-24 15:32:33.436680
1299  2023-10-24 15:32:33.469592
1300  2023-10-24 15:32:33.500508
1301  2023-10-24 15:32:33.549378
1302  2023-10-24 15:32:33.580295
1303  2023-10-24 15:32:33.613207
1304  2023-10-24 15:32:33.645122
1305  2023-10-24 15:32:33.677036
1306  2023-10-24 15:32:33.708951
1307  2023-10-24 15:32:33.741066
1308  2023-10-24 15:32:33.772980
1309  2023-10-24 15:32:33.804895
1310  2023-10-24 15:32:33.836810
1311  2023-10-24 15:32:33.868738
1312  2023-10-24 15:32:33.900642
1313  2023-10-24 15:32:33.948442
1314  2023-10-24 15:32:33.980407
1315  2023-10-24 15:32:34.013319
1316  2023-10-24 15:32:34.045233
1317  2023-10-24 15:32:34.077179
1318  2023-10-24 15:32:34.109063
1319  2023-10-24 15:32:34.140977
1320  2023-10-24 15:32:34.172892
1321  2023-10-24 15:32:34.204843
1322  2023-10-24 15:32:34.236754
1323  2023-10-24 15:32:34.268766
1324  2023-10-24 15:32:34.300682
1325  2023-10-24 15:32:34.348558
1326  2023-10-24 15:32:34.380457
1327  2023-10-24 15:32:34.412344
1328  2023-10-24 15:32:34.444288
1329  2023-10-24 15:32:34.477171
1330  2023-10-24 15:32:34.509086
1331  2023-10-24 15:32:34.540999
1332  2023-10-24 15:32:34.572496
1333  2023-10-24 15:32:34.605408
1334  2023-10-24 15:32:34.637323
1335  2023-10-24 15:32:34.669238
1336  2023-10-24 15:32:34.701152
1337  2023-10-24 15:32:34.749024
1338  2023-10-24 15:32:34.780939
1339  2023-10-24 15:32:34.812853
1340  2023-10-24 15:32:34.844793
1341  2023-10-24 15:32:34.876683
1342  2023-10-24 15:32:34.908597
1343  2023-10-24 15:32:34.940624
1344  2023-10-24 15:32:34.973252
1345  2023-10-24 15:32:35.005177
1346  2023-10-24 15:32:35.037091
1347  2023-10-24 15:32:35.069006
1348  2023-10-24 15:32:35.100921
1349  2023-10-24 15:32:35.148937
1350  2023-10-24 15:32:35.180852
1351  2023-10-24 15:32:35.212767
1352  2023-10-24 15:32:35.244681
1353  2023-10-24 15:32:35.276597
1354  2023-10-24 15:32:35.309509
1355  2023-10-24 15:32:35.340425
1356  2023-10-24 15:32:35.373349
1357  2023-10-24 15:32:35.405252
1358  2023-10-24 15:32:35.437167
1359  2023-10-24 15:32:35.469081
1360  2023-10-24 15:32:35.500996
1361  2023-10-24 15:32:35.548868
1362  2023-10-24 15:32:35.580789
1363  2023-10-24 15:32:35.612701
1364  2023-10-24 15:32:35.644613
1365  2023-10-24 15:32:35.676528
1366  2023-10-24 15:32:35.709451
1367  2023-10-24 15:32:35.741400
1368  2023-10-24 15:32:35.773270
1369  2023-10-24 15:32:35.805184
1370  2023-10-24 15:32:35.837099
1371  2023-10-24 15:32:35.869049
1372  2023-10-24 15:32:35.900952
1373  2023-10-24 15:32:35.948831
1374  2023-10-24 15:32:35.980721
1375  2023-10-24 15:32:36.012645
1376  2023-10-24 15:32:36.044582
1377  2023-10-24 15:32:36.076505
1378  2023-10-24 15:32:36.109378
1379  2023-10-24 15:32:36.141286
1380  2023-10-24 15:32:36.173200
1381  2023-10-24 15:32:36.205139
1382  2023-10-24 15:32:36.237030
1383  2023-10-24 15:32:36.268944
1384  2023-10-24 15:32:36.300859
1385  2023-10-24 15:32:36.348731
1386  2023-10-24 15:32:36.380675
1387  2023-10-24 15:32:36.412593
1388  2023-10-24 15:32:36.444475
1389  2023-10-24 15:32:36.477387
1390  2023-10-24 15:32:36.509302
1391  2023-10-24 15:32:36.541257
1392  2023-10-24 15:32:36.573131
1393  2023-10-24 15:32:36.605046
1394  2023-10-24 15:32:36.637102
1395  2023-10-24 15:32:36.669045
1396  2023-10-24 15:32:36.700959
1397  2023-10-24 15:32:36.748852
1398  2023-10-24 15:32:36.780718
1399  2023-10-24 15:32:36.812632
1400  2023-10-24 15:32:36.845249
1401  2023-10-24 15:32:36.878195
1402  2023-10-24 15:32:36.910104
1403  2023-10-24 15:32:36.940991
1404  2023-10-24 15:32:36.973939
1405  2023-10-24 15:32:37.004820
1406  2023-10-24 15:32:37.036735
1407  2023-10-24 15:32:37.069648
1408  2023-10-24 15:32:37.101562
1409  2023-10-24 15:32:37.149437
1410  2023-10-24 15:32:37.181349
1411  2023-10-24 15:32:37.213264
1412  2023-10-24 15:32:37.245177
1413  2023-10-24 15:32:37.277092
1414  2023-10-24 15:32:37.310019
1415  2023-10-24 15:32:37.342035
1416  2023-10-24 15:32:37.373973
1417  2023-10-24 15:32:37.404867
1418  2023-10-24 15:32:37.437779
1419  2023-10-24 15:32:37.468696
1420  2023-10-24 15:32:37.501658
1421  2023-10-24 15:32:37.549512
1422  2023-10-24 15:32:37.581612
1423  2023-10-24 15:32:37.613614
1424  2023-10-24 15:32:37.645414
1425  2023-10-24 15:32:37.677454
1426  2023-10-24 15:32:37.709354
1427  2023-10-24 15:32:37.741288
1428  2023-10-24 15:32:37.773204
1429  2023-10-24 15:32:37.805068
1430  2023-10-24 15:32:37.836983
1431  2023-10-24 15:32:37.868944
1432  2023-10-24 15:32:37.900843
1433  2023-10-24 15:32:37.948720
1434  2023-10-24 15:32:37.980637
1435  2023-10-24 15:32:38.012513
1436  2023-10-24 15:32:38.045456
1437  2023-10-24 15:32:38.076381
1438  2023-10-24 15:32:38.109254
1439  2023-10-24 15:32:38.141169
1440  2023-10-24 15:32:38.174122
1441  2023-10-24 15:32:38.205047
1442  2023-10-24 15:32:38.236912
1443  2023-10-24 15:32:38.269857
1444  2023-10-24 15:32:38.301782
1445  2023-10-24 15:32:38.348648
1446  2023-10-24 15:32:38.381497
1447  2023-10-24 15:32:38.413493
1448  2023-10-24 15:32:38.444398
1449  2023-10-24 15:32:38.477277
1450  2023-10-24 15:32:38.509187
1451  2023-10-24 15:32:38.541134
1452  2023-10-24 15:32:38.573016
1453  2023-10-24 15:32:38.604930
1454  2023-10-24 15:32:38.636851
1455  2023-10-24 15:32:38.669765
1456  2023-10-24 15:32:38.701738
1457  2023-10-24 15:32:38.749591
1458  2023-10-24 15:32:38.781477
1459  2023-10-24 15:32:38.813333
1460  2023-10-24 15:32:38.845318
1461  2023-10-24 15:32:38.877223
1462  2023-10-24 15:32:38.909216
1463  2023-10-24 15:32:38.941170
1464  2023-10-24 15:32:38.973098
1465  2023-10-24 15:32:39.004961
1466  2023-10-24 15:32:39.036913
1467  2023-10-24 15:32:39.068789
1468  2023-10-24 15:32:39.100705
1469  2023-10-24 15:32:39.148577
1470  2023-10-24 15:32:39.180538
1471  2023-10-24 15:32:39.213404
1472  2023-10-24 15:32:39.245317
1473  2023-10-24 15:32:39.277232
1474  2023-10-24 15:32:39.309200
1475  2023-10-24 15:32:39.341071
1476  2023-10-24 15:32:39.373012
1477  2023-10-24 15:32:39.404924
1478  2023-10-24 15:32:39.436805
1479  2023-10-24 15:32:39.468732
1480  2023-10-24 15:32:39.500681
1481  2023-10-24 15:32:39.549504
1482  2023-10-24 15:32:39.581419
1483  2023-10-24 15:32:39.613334
1484  2023-10-24 15:32:39.645248
1485  2023-10-24 15:32:39.677162
1486  2023-10-24 15:32:39.709138
1487  2023-10-24 15:32:39.741017
1488  2023-10-24 15:32:39.772907
1489  2023-10-24 15:32:39.804822
1490  2023-10-24 15:32:39.836794
1491  2023-10-24 15:32:39.868689
1492  2023-10-24 15:32:39.901564
1493  2023-10-24 15:32:39.949513
1494  2023-10-24 15:32:39.981466
1495  2023-10-24 15:32:40.013381
1496  2023-10-24 15:32:40.045294
1497  2023-10-24 15:32:40.077258
1498  2023-10-24 15:32:40.109124
1499  2023-10-24 15:32:40.141066
1500  2023-10-24 15:32:40.172982
1501  2023-10-24 15:32:40.204898
1502  2023-10-24 15:32:40.236782
1503  2023-10-24 15:32:40.268739
1504  2023-10-24 15:32:40.300642
1505  2023-10-24 15:32:40.348583
1506  2023-10-24 15:32:40.381573
1507  2023-10-24 15:32:40.413475
1508  2023-10-24 15:32:40.444405
1509  2023-10-24 15:32:40.476318
1510  2023-10-24 15:32:40.509183
1511  2023-10-24 15:32:40.541148
1512  2023-10-24 15:32:40.573044
1513  2023-10-24 15:32:40.604963
1514  2023-10-24 15:32:40.636904
1515  2023-10-24 15:32:40.668757
1516  2023-10-24 15:32:40.700707
1517  2023-10-24 15:32:40.748576
1518  2023-10-24 15:32:40.780494
1519  2023-10-24 15:32:40.812419
1520  2023-10-24 15:32:40.845285
1521  2023-10-24 15:32:40.877231
1522  2023-10-24 15:32:40.909113
1523  2023-10-24 15:32:40.941057
1524  2023-10-24 15:32:40.972998
1525  2023-10-24 15:32:41.004887
1526  2023-10-24 15:32:41.036827
1527  2023-10-24 15:32:41.068689
1528  2023-10-24 15:32:41.100633
1529  2023-10-24 15:32:41.148628
1530  2023-10-24 15:32:41.180469
1531  2023-10-24 15:32:41.212431
1532  2023-10-24 15:32:41.245338
1533  2023-10-24 15:32:41.277267
1534  2023-10-24 15:32:41.309125
1535  2023-10-24 15:32:41.341101
1536  2023-10-24 15:32:41.373007
1537  2023-10-24 15:32:41.404895
1538  2023-10-24 15:32:41.436836
1539  2023-10-24 15:32:41.468744
1540  2023-10-24 15:32:41.500646
1541  2023-10-24 15:32:41.548575
1542  2023-10-24 15:32:41.582421
1543  2023-10-24 15:32:41.613394
1544  2023-10-24 15:32:41.645228
1545  2023-10-24 15:32:41.677143
1546  2023-10-24 15:32:41.709056
1547  2023-10-24 15:32:41.741002
1548  2023-10-24 15:32:41.772936
1549  2023-10-24 15:32:41.805848
1550  2023-10-24 15:32:41.836755
1551  2023-10-24 15:32:41.868630
1552  2023-10-24 15:32:41.901542
1553  2023-10-24 15:32:41.949450
1554  2023-10-24 15:32:41.981328
1555  2023-10-24 15:32:42.013277
1556  2023-10-24 15:32:42.045219
1557  2023-10-24 15:32:42.077075
1558  2023-10-24 15:32:42.109026
1559  2023-10-24 15:32:42.141096
1560  2023-10-24 15:32:42.173063
1561  2023-10-24 15:32:42.204984
1562  2023-10-24 15:32:42.237840
1563  2023-10-24 15:32:42.268757
1564  2023-10-24 15:32:42.300753
1565  2023-10-24 15:32:42.348574
1566  2023-10-24 15:32:42.381454
1567  2023-10-24 15:32:42.413423
1568  2023-10-24 15:32:42.445436
1569  2023-10-24 15:32:42.477363
1570  2023-10-24 15:32:42.509253
1571  2023-10-24 15:32:42.541173
1572  2023-10-24 15:32:42.573080
1573  2023-10-24 15:32:42.604968
1574  2023-10-24 15:32:42.636907
1575  2023-10-24 15:32:42.669839
1576  2023-10-24 15:32:42.700769
1577  2023-10-24 15:32:42.748635
1578  2023-10-24 15:32:42.780583
1579  2023-10-24 15:32:42.812556
1580  2023-10-24 15:32:42.844444
1581  2023-10-24 15:32:42.877386
1582  2023-10-24 15:32:42.909239
1583  2023-10-24 15:32:42.941153
1584  2023-10-24 15:32:42.973110
1585  2023-10-24 15:32:43.005038
1586  2023-10-24 15:32:43.036924
1587  2023-10-24 15:32:43.068858
1588  2023-10-24 15:32:43.100731
1589  2023-10-24 15:32:43.148631
1590  2023-10-24 15:32:43.180513
1591  2023-10-24 15:32:43.213437
1592  2023-10-24 15:32:43.245442
1593  2023-10-24 15:32:43.277298
1594  2023-10-24 15:32:43.309171
1595  2023-10-24 15:32:43.341225
1596  2023-10-24 15:32:43.373146
1597  2023-10-24 15:32:43.405063
1598  2023-10-24 15:32:43.437045
1599  2023-10-24 15:32:43.468926
1600  2023-10-24 15:32:43.500874
1601  2023-10-24 15:32:43.549712
1602  2023-10-24 15:32:43.581625
1603  2023-10-24 15:32:43.612542
1604  2023-10-24 15:32:43.644489
1605  2023-10-24 15:32:43.677402
1606  2023-10-24 15:32:43.709287
1607  2023-10-24 15:32:43.741249
1608  2023-10-24 15:32:43.773112
1609  2023-10-24 15:32:43.805091
1610  2023-10-24 15:32:43.836978
1611  2023-10-24 15:32:43.868898
1612  2023-10-24 15:32:43.900771
1613  2023-10-24 15:32:43.949652
1614  2023-10-24 15:32:43.980558
1615  2023-10-24 15:32:44.013470
1616  2023-10-24 15:32:44.045396
1617  2023-10-24 15:32:44.076313
1618  2023-10-24 15:32:44.109226
1619  2023-10-24 15:32:44.141206
1620  2023-10-24 15:32:44.173166
1621  2023-10-24 15:32:44.205081
1622  2023-10-24 15:32:44.236995
1623  2023-10-24 15:32:44.268990
1624  2023-10-24 15:32:44.300894
1625  2023-10-24 15:32:44.348766
1626  2023-10-24 15:32:44.381645
1627  2023-10-24 15:32:44.413560
1628  2023-10-24 15:32:44.445476
1629  2023-10-24 15:32:44.477401
1630  2023-10-24 15:32:44.508341
1631  2023-10-24 15:32:44.541221
1632  2023-10-24 15:32:44.573136
1633  2023-10-24 15:32:44.605077
1634  2023-10-24 15:32:44.637001
1635  2023-10-24 15:32:44.668928
1636  2023-10-24 15:32:44.700818
1637  2023-10-24 15:32:44.748713
1638  2023-10-24 15:32:44.780671
1639  2023-10-24 15:32:44.812629
1640  2023-10-24 15:32:44.844607
1641  2023-10-24 15:32:44.876533
1642  2023-10-24 15:32:44.909417
1643  2023-10-24 15:32:44.941361
1644  2023-10-24 15:32:44.973239
1645  2023-10-24 15:32:45.005153
1646  2023-10-24 15:32:45.037097
1647  2023-10-24 15:32:45.069014
1648  2023-10-24 15:32:45.100968
1649  2023-10-24 15:32:45.148769
1650  2023-10-24 15:32:45.181682
1651  2023-10-24 15:32:45.212599
1652  2023-10-24 15:32:45.245538
1653  2023-10-24 15:32:45.276461
1654  2023-10-24 15:32:45.309509
1655  2023-10-24 15:32:45.340472
1656  2023-10-24 15:32:45.372387
1657  2023-10-24 15:32:45.405252
1658  2023-10-24 15:32:45.437201
1659  2023-10-24 15:32:45.469133
1660  2023-10-24 15:32:45.501030
1661  2023-10-24 15:32:45.548922
1662  2023-10-24 15:32:45.580817
1663  2023-10-24 15:32:45.612697
1664  2023-10-24 15:32:45.644612
1665  2023-10-24 15:32:45.676557
1666  2023-10-24 15:32:45.708475
1667  2023-10-24 15:32:45.740412
1668  2023-10-24 15:32:45.773272
1669  2023-10-24 15:32:45.805183
1670  2023-10-24 15:32:45.837135
1671  2023-10-24 15:32:45.869012
1672  2023-10-24 15:32:45.901013
1673  2023-10-24 15:32:45.948885
1674  2023-10-24 15:32:45.980885
1675  2023-10-24 15:32:46.012800
1676  2023-10-24 15:32:46.044715
1677  2023-10-24 15:32:46.076629
1678  2023-10-24 15:32:46.108574
1679  2023-10-24 15:32:46.140506
1680  2023-10-24 15:32:46.172373
1681  2023-10-24 15:32:46.205285
1682  2023-10-24 15:32:46.237200
1683  2023-10-24 15:32:46.269115
1684  2023-10-24 15:32:46.301030
1685  2023-10-24 15:32:46.348902
1686  2023-10-24 15:32:46.380816
1687  2023-10-24 15:32:46.412731
1688  2023-10-24 15:32:46.444646
1689  2023-10-24 15:32:46.477558
1690  2023-10-24 15:32:46.509473
1691  2023-10-24 15:32:46.541392
1692  2023-10-24 15:32:46.573309
1693  2023-10-24 15:32:46.605216
1694  2023-10-24 15:32:46.637132
1695  2023-10-24 15:32:46.669047
1696  2023-10-24 15:32:46.700961
1697  2023-10-24 15:32:46.748877
1698  2023-10-24 15:32:46.780803
1699  2023-10-24 15:32:46.812728
1700  2023-10-24 15:32:46.844695
1701  2023-10-24 15:32:46.876635
1702  2023-10-24 15:32:46.908617
1703  2023-10-24 15:32:46.941550
1704  2023-10-24 15:32:46.972467
1705  2023-10-24 15:32:47.004382
1706  2023-10-24 15:32:47.037336
1707  2023-10-24 15:32:47.069209
1708  2023-10-24 15:32:47.101123
1709  2023-10-24 15:32:47.149084
1710  2023-10-24 15:32:47.180998
1711  2023-10-24 15:32:47.212913
1712  2023-10-24 15:32:47.244867
1713  2023-10-24 15:32:47.276742
1714  2023-10-24 15:32:47.309670
1715  2023-10-24 15:32:47.341570
1716  2023-10-24 15:32:47.372549
1717  2023-10-24 15:32:47.404401
1718  2023-10-24 15:32:47.436316
1719  2023-10-24 15:32:47.469228
1720  2023-10-24 15:32:47.501178
1721  2023-10-24 15:32:47.549076
1722  2023-10-24 15:32:47.581025
1723  2023-10-24 15:32:47.612906
1724  2023-10-24 15:32:47.644821
1725  2023-10-24 15:32:47.676827
1726  2023-10-24 15:32:47.708773
1727  2023-10-24 15:32:47.740689
1728  2023-10-24 15:32:47.772410
1729  2023-10-24 15:32:47.805323
1730  2023-10-24 15:32:47.837296
1731  2023-10-24 15:32:47.869415
1732  2023-10-24 15:32:47.901324
1733  2023-10-24 15:32:47.949196
1734  2023-10-24 15:32:47.981111
1735  2023-10-24 15:32:48.013025
1736  2023-10-24 15:32:48.044940
1737  2023-10-24 15:32:48.076855
1738  2023-10-24 15:32:48.108770
1739  2023-10-24 15:32:48.140684
1740  2023-10-24 15:32:48.172631
1741  2023-10-24 15:32:48.205512
1742  2023-10-24 15:32:48.237428
1743  2023-10-24 15:32:48.269349
1744  2023-10-24 15:32:48.301255
1745  2023-10-24 15:32:48.349127
1746  2023-10-24 15:32:48.381041
1747  2023-10-24 15:32:48.412956
1748  2023-10-24 15:32:48.444871
1749  2023-10-24 15:32:48.476786
1750  2023-10-24 15:32:48.508700
1751  2023-10-24 15:32:48.540615
1752  2023-10-24 15:32:48.573528
1753  2023-10-24 15:32:48.604444
1754  2023-10-24 15:32:48.637356
1755  2023-10-24 15:32:48.669271
1756  2023-10-24 15:32:48.701186
1757  2023-10-24 15:32:48.749058
1758  2023-10-24 15:32:48.780972
1759  2023-10-24 15:32:48.812887
1760  2023-10-24 15:32:48.844802
1761  2023-10-24 15:32:48.876716
1762  2023-10-24 15:32:48.908663
1763  2023-10-24 15:32:48.940609
1764  2023-10-24 15:32:48.972562
1765  2023-10-24 15:32:49.004549
1766  2023-10-24 15:32:49.037413
1767  2023-10-24 15:32:49.069487
1768  2023-10-24 15:32:49.100402
1769  2023-10-24 15:32:49.149272
1770  2023-10-24 15:32:49.181186
1771  2023-10-24 15:32:49.213101
1772  2023-10-24 15:32:49.245052
1773  2023-10-24 15:32:49.276930
1774  2023-10-24 15:32:49.308985
1775  2023-10-24 15:32:49.340898
1776  2023-10-24 15:32:49.372854
1777  2023-10-24 15:32:49.404771
1778  2023-10-24 15:32:49.436666
1779  2023-10-24 15:32:49.468566
1780  2023-10-24 15:32:49.500531
1781  2023-10-24 15:32:49.548353
1782  2023-10-24 15:32:49.581268
1783  2023-10-24 15:32:49.613179
1784  2023-10-24 15:32:49.645094
1785  2023-10-24 15:32:49.677009
1786  2023-10-24 15:32:49.708923
1787  2023-10-24 15:32:49.740838
1788  2023-10-24 15:32:49.772753
1789  2023-10-24 15:32:49.804676
1790  2023-10-24 15:32:49.836623
1791  2023-10-24 15:32:49.868592
1792  2023-10-24 15:32:49.900506
1793  2023-10-24 15:32:49.949380
1794  2023-10-24 15:32:49.981290
1795  2023-10-24 15:32:50.013205
1796  2023-10-24 15:32:50.045120
1797  2023-10-24 15:32:50.077034
1798  2023-10-24 15:32:50.108949
1799  2023-10-24 15:32:50.140906
1800  2023-10-24 15:32:50.172859
1801  2023-10-24 15:32:50.204774
1802  2023-10-24 15:32:50.236688
1803  2023-10-24 15:32:50.268603
1804  2023-10-24 15:32:50.300525
1805  2023-10-24 15:32:50.348389
1806  2023-10-24 15:32:50.380304
1807  2023-10-24 15:32:50.413218
1808  2023-10-24 15:32:50.445132
1809  2023-10-24 15:32:50.477046
1810  2023-10-24 15:32:50.508960
1811  2023-10-24 15:32:50.540875
1812  2023-10-24 15:32:50.573828
1813  2023-10-24 15:32:50.604710
1814  2023-10-24 15:32:50.637616
1815  2023-10-24 15:32:50.668562
1816  2023-10-24 15:32:50.701201
1817  2023-10-24 15:32:50.749040
1818  2023-10-24 15:32:50.780960
1819  2023-10-24 15:32:50.812943
1820  2023-10-24 15:32:50.844857
1821  2023-10-24 15:32:50.876799
1822  2023-10-24 15:32:50.908764
1823  2023-10-24 15:32:50.940601
1824  2023-10-24 15:32:50.973514
1825  2023-10-24 15:32:51.004431
1826  2023-10-24 15:32:51.037376
1827  2023-10-24 15:32:51.068260
1828  2023-10-24 15:32:51.101182
1829  2023-10-24 15:32:51.149057
1830  2023-10-24 15:32:51.180959
1831  2023-10-24 15:32:51.212907
1832  2023-10-24 15:32:51.244842
1833  2023-10-24 15:32:51.276703
1834  2023-10-24 15:32:51.308617
1835  2023-10-24 15:32:51.341529
1836  2023-10-24 15:32:51.373444
1837  2023-10-24 15:32:51.405359
1838  2023-10-24 15:32:51.437273
1839  2023-10-24 15:32:51.468402
1840  2023-10-24 15:32:51.500335
1841  2023-10-24 15:32:51.549210
1842  2023-10-24 15:32:51.581120
1843  2023-10-24 15:32:51.613041
1844  2023-10-24 15:32:51.644950
1845  2023-10-24 15:32:51.676864
1846  2023-10-24 15:32:51.708778
1847  2023-10-24 15:32:51.741691
1848  2023-10-24 15:32:51.772608
1849  2023-10-24 15:32:51.804523
1850  2023-10-24 15:32:51.836437
1851  2023-10-24 15:32:51.868353
1852  2023-10-24 15:32:51.901264
1853  2023-10-24 15:32:51.949164
1854  2023-10-24 15:32:51.981050
1855  2023-10-24 15:32:52.012965
1856  2023-10-24 15:32:52.044880
1857  2023-10-24 15:32:52.076823
1858  2023-10-24 15:32:52.108721
1859  2023-10-24 15:32:52.140623
1860  2023-10-24 15:32:52.172647
1861  2023-10-24 15:32:52.204593
1862  2023-10-24 15:32:52.237494
1863  2023-10-24 15:32:52.268462
1864  2023-10-24 15:32:52.300377
1865  2023-10-24 15:32:52.349246
1866  2023-10-24 15:32:52.381350
1867  2023-10-24 15:32:52.413298
1868  2023-10-24 15:32:52.445178
1869  2023-10-24 15:32:52.477093
1870  2023-10-24 15:32:52.509008
1871  2023-10-24 15:32:52.540957
1872  2023-10-24 15:32:52.572837
1873  2023-10-24 15:32:52.604752
1874  2023-10-24 15:32:52.636666
1875  2023-10-24 15:32:52.668605
1876  2023-10-24 15:32:52.700520
1877  2023-10-24 15:32:52.749365
1878  2023-10-24 15:32:52.781280
1879  2023-10-24 15:32:52.813194
1880  2023-10-24 15:32:52.845109
1881  2023-10-24 15:32:52.877024
1882  2023-10-24 15:32:52.908938
1883  2023-10-24 15:32:52.940853
1884  2023-10-24 15:32:52.972768
1885  2023-10-24 15:32:53.004851
1886  2023-10-24 15:32:53.036766
1887  2023-10-24 15:32:53.068680
1888  2023-10-24 15:32:53.100595
1889  2023-10-24 15:32:53.149464
1890  2023-10-24 15:32:53.180382
1891  2023-10-24 15:32:53.213429
1892  2023-10-24 15:32:53.245345
1893  2023-10-24 15:32:53.278316
1894  2023-10-24 15:32:53.310229
1895  2023-10-24 15:32:53.342120
1896  2023-10-24 15:32:53.374076
1897  2023-10-24 15:32:53.406085
1898  2023-10-24 15:32:53.437992
1899  2023-10-24 15:32:53.469910
1900  2023-10-24 15:32:53.501823
1901  2023-10-24 15:32:53.549703
1902  2023-10-24 15:32:53.581575
1903  2023-10-24 15:32:53.613490
1904  2023-10-24 15:32:53.645438
1905  2023-10-24 15:32:53.678345
1906  2023-10-24 15:32:53.710304
1907  2023-10-24 15:32:53.742179
1908  2023-10-24 15:32:53.774061
1909  2023-10-24 15:32:53.805975
1910  2023-10-24 15:32:53.837889
1911  2023-10-24 15:32:53.869845
1912  2023-10-24 15:32:53.901779
1913  2023-10-24 15:32:53.949610
1914  2023-10-24 15:32:53.981520
1915  2023-10-24 15:32:54.013426
1916  2023-10-24 15:32:54.045310
1917  2023-10-24 15:32:54.077227
1918  2023-10-24 15:32:54.109166
1919  2023-10-24 15:32:54.141102
1920  2023-10-24 15:32:54.173002
1921  2023-10-24 15:32:54.204906
1922  2023-10-24 15:32:54.236829
1923  2023-10-24 15:32:54.268742
1924  2023-10-24 15:32:54.300625
1925  2023-10-24 15:32:54.348495
1926  2023-10-24 15:32:54.380445
1927  2023-10-24 15:32:54.413324
1928  2023-10-24 15:32:54.445272
1929  2023-10-24 15:32:54.477174
1930  2023-10-24 15:32:54.509099
1931  2023-10-24 15:32:54.541014
1932  2023-10-24 15:32:54.572962
1933  2023-10-24 15:32:54.604877
1934  2023-10-24 15:32:54.636925
1935  2023-10-24 15:32:54.668922
1936  2023-10-24 15:32:54.700837
1937  2023-10-24 15:32:54.750688
1938  2023-10-24 15:32:54.781605
1939  2023-10-24 15:32:54.813538
1940  2023-10-24 15:32:54.845401
1941  2023-10-24 15:32:54.877319
1942  2023-10-24 15:32:54.909278
1943  2023-10-24 15:32:54.941147
1944  2023-10-24 15:32:54.974107
1945  2023-10-24 15:32:55.006049
1946  2023-10-24 15:32:55.036922
1947  2023-10-24 15:32:55.069834
1948  2023-10-24 15:32:55.101746
1949  2023-10-24 15:32:55.149637
1950  2023-10-24 15:32:55.181532
1951  2023-10-24 15:32:55.213419
1952  2023-10-24 15:32:55.245452
1953  2023-10-24 15:32:55.277364
1954  2023-10-24 15:32:55.309313
1955  2023-10-24 15:32:55.341195
1956  2023-10-24 15:32:55.374110
1957  2023-10-24 15:32:55.406056
1958  2023-10-24 15:32:55.436938
1959  2023-10-24 15:32:55.468854
1960  2023-10-24 15:32:55.500769
1961  2023-10-24 15:32:55.548717
1962  2023-10-24 15:32:55.582592
1963  2023-10-24 15:32:55.613497
1964  2023-10-24 15:32:55.645381
1965  2023-10-24 15:32:55.677295
1966  2023-10-24 15:32:55.708443
1967  2023-10-24 15:32:55.741271
1968  2023-10-24 15:32:55.773221
1969  2023-10-24 15:32:55.805101
1970  2023-10-24 15:32:55.837013
1971  2023-10-24 15:32:55.868980
1972  2023-10-24 15:32:55.900893
1973  2023-10-24 15:32:55.948795
1974  2023-10-24 15:32:55.981628
1975  2023-10-24 15:32:56.012600
1976  2023-10-24 15:32:56.044491
1977  2023-10-24 15:32:56.076411
1978  2023-10-24 15:32:56.109285
1979  2023-10-24 15:32:56.141233
1980  2023-10-24 15:32:56.173203
1981  2023-10-24 15:32:56.205118
1982  2023-10-24 15:32:56.237119
1983  2023-10-24 15:32:56.269050
1984  2023-10-24 15:32:56.300970
1985  2023-10-24 15:32:56.348786
1986  2023-10-24 15:32:56.380758
1987  2023-10-24 15:32:56.412656
1988  2023-10-24 15:32:56.445580
1989  2023-10-24 15:32:56.477443
1990  2023-10-24 15:32:56.509357
1991  2023-10-24 15:32:56.541328
1992  2023-10-24 15:32:56.573238
1993  2023-10-24 15:32:56.605141
1994  2023-10-24 15:32:56.637051
1995  2023-10-24 15:32:56.668965
1996  2023-10-24 15:32:56.700891
1997  2023-10-24 15:32:56.748748
1998  2023-10-24 15:32:56.780678
1999  2023-10-24 15:32:56.812575
2000  2023-10-24 15:32:56.845485
2001  2023-10-24 15:32:56.876412
2002  2023-10-24 15:32:56.909287
2003  2023-10-24 15:32:56.941270
2004  2023-10-24 15:32:56.973189
2005  2023-10-24 15:32:57.005091
2006  2023-10-24 15:32:57.036978
2007  2023-10-24 15:32:57.068861
2008  2023-10-24 15:32:57.100831
2009  2023-10-24 15:32:57.148647
2010  2023-10-24 15:32:57.180562
2011  2023-10-24 15:32:57.212508
2012  2023-10-24 15:32:57.244427
2013  2023-10-24 15:32:57.277303
2014  2023-10-24 15:32:57.308269
2015  2023-10-24 15:32:57.341179
2016  2023-10-24 15:32:57.373082
2017  2023-10-24 15:32:57.405005
2018  2023-10-24 15:32:57.437010
2019  2023-10-24 15:32:57.468922
2020  2023-10-24 15:32:57.500851
2021  2023-10-24 15:32:57.548674
2022  2023-10-24 15:32:57.581614
2023  2023-10-24 15:32:57.613502
2024  2023-10-24 15:32:57.645416
2025  2023-10-24 15:32:57.676369
2026  2023-10-24 15:32:57.709294
2027  2023-10-24 15:32:57.741204
2028  2023-10-24 15:32:57.773111
2029  2023-10-24 15:32:57.805038
2030  2023-10-24 15:32:57.837104
2031  2023-10-24 15:32:57.869067
2032  2023-10-24 15:32:57.901046
2033  2023-10-24 15:32:57.948888
2034  2023-10-24 15:32:57.980802
2035  2023-10-24 15:32:58.012795
2036  2023-10-24 15:32:58.044676
2037  2023-10-24 15:32:58.076576
2038  2023-10-24 15:32:58.108507
2039  2023-10-24 15:32:58.140375
2040  2023-10-24 15:32:58.173365
2041  2023-10-24 15:32:58.205239
2042  2023-10-24 15:32:58.237149
2043  2023-10-24 15:32:58.269064
2044  2023-10-24 15:32:58.300993
2045  2023-10-24 15:32:58.348818
2046  2023-10-24 15:32:58.380793
2047  2023-10-24 15:32:58.412693
2048  2023-10-24 15:32:58.444595
2049  2023-10-24 15:32:58.477530
2050  2023-10-24 15:32:58.509389
2051  2023-10-24 15:32:58.541330
2052  2023-10-24 15:32:58.573255
2053  2023-10-24 15:32:58.605182
2054  2023-10-24 15:32:58.637097
2055  2023-10-24 15:32:58.668996
2056  2023-10-24 15:32:58.700903
2057  2023-10-24 15:32:58.748799
2058  2023-10-24 15:32:58.780663
2059  2023-10-24 15:32:58.812609
2060  2023-10-24 15:32:58.845524
2061  2023-10-24 15:32:58.877405
2062  2023-10-24 15:32:58.908322
2063  2023-10-24 15:32:58.941234
2064  2023-10-24 15:32:58.973217
2065  2023-10-24 15:32:59.005095
2066  2023-10-24 15:32:59.037009
2067  2023-10-24 15:32:59.068939
2068  2023-10-24 15:32:59.100868
2069  2023-10-24 15:32:59.148679
2070  2023-10-24 15:32:59.181592
2071  2023-10-24 15:32:59.213536
2072  2023-10-24 15:32:59.245421
2073  2023-10-24 15:32:59.277335
2074  2023-10-24 15:32:59.309266
2075  2023-10-24 15:32:59.341165
2076  2023-10-24 15:32:59.373121
2077  2023-10-24 15:32:59.405041
2078  2023-10-24 15:32:59.436935
2079  2023-10-24 15:32:59.468857
2080  2023-10-24 15:32:59.500772
2081  2023-10-24 15:32:59.548669
2082  2023-10-24 15:32:59.581555
2083  2023-10-24 15:32:59.612439
2084  2023-10-24 15:32:59.644387
2085  2023-10-24 15:32:59.676314
2086  2023-10-24 15:32:59.709220
2087  2023-10-24 15:32:59.741127
2088  2023-10-24 15:32:59.773043
2089  2023-10-24 15:32:59.804960
2090  2023-10-24 15:32:59.836876
2091  2023-10-24 15:32:59.868822
2092  2023-10-24 15:32:59.900692
2093  2023-10-24 15:32:59.948574
2094  2023-10-24 15:32:59.980501
2095  2023-10-24 15:33:00.012370
2096  2023-10-24 15:33:00.045327
2097  2023-10-24 15:33:00.077262
2098  2023-10-24 15:33:00.109159
2099  2023-10-24 15:33:00.141026
2100  2023-10-24 15:33:00.172972
2101  2023-10-24 15:33:00.204901
2102  2023-10-24 15:33:00.236803
2103  2023-10-24 15:33:00.268766
2104  2023-10-24 15:33:00.300623
2105  2023-10-24 15:33:00.348501
2106  2023-10-24 15:33:00.381414
2107  2023-10-24 15:33:00.413298
2108  2023-10-24 15:33:00.445254
2109  2023-10-24 15:33:00.477157
2110  2023-10-24 15:33:00.509072
2111  2023-10-24 15:33:00.540988
2112  2023-10-24 15:33:00.572902
2113  2023-10-24 15:33:00.604809
2114  2023-10-24 15:33:00.636727
2115  2023-10-24 15:33:00.668640
2116  2023-10-24 15:33:00.700563
2117  2023-10-24 15:33:00.749411
2118  2023-10-24 15:33:00.781315
2119  2023-10-24 15:33:00.813236
2120  2023-10-24 15:33:00.845170
2121  2023-10-24 15:33:00.877094
2122  2023-10-24 15:33:00.909043
2123  2023-10-24 15:33:00.940888
2124  2023-10-24 15:33:00.972802
2125  2023-10-24 15:33:01.004770
2126  2023-10-24 15:33:01.036685
2127  2023-10-24 15:33:01.068600
2128  2023-10-24 15:33:01.101512
2129  2023-10-24 15:33:01.148448
2130  2023-10-24 15:33:01.180332
2131  2023-10-24 15:33:01.213353
2132  2023-10-24 15:33:01.245195
2133  2023-10-24 15:33:01.277137
2134  2023-10-24 15:33:01.309019
2135  2023-10-24 15:33:01.340903
2136  2023-10-24 15:33:01.372819
2137  2023-10-24 15:33:01.404732
2138  2023-10-24 15:33:01.436704
2139  2023-10-24 15:33:01.468588
2140  2023-10-24 15:33:01.500507
2141  2023-10-24 15:33:01.548402
2142  2023-10-24 15:33:01.581312
2143  2023-10-24 15:33:01.613175
2144  2023-10-24 15:33:01.645090
2145  2023-10-24 15:33:01.677053
2146  2023-10-24 15:33:01.708944
2147  2023-10-24 15:33:01.740860
2148  2023-10-24 15:33:01.772748
2149  2023-10-24 15:33:01.804663
2150  2023-10-24 15:33:01.836613
2151  2023-10-24 15:33:01.868523
2152  2023-10-24 15:33:01.900409
2153  2023-10-24 15:33:01.949361
2154  2023-10-24 15:33:01.980229
2155  2023-10-24 15:33:02.013106
2156  2023-10-24 15:33:02.045020
2157  2023-10-24 15:33:02.076967
2158  2023-10-24 15:33:02.108875
2159  2023-10-24 15:33:02.140811
2160  2023-10-24 15:33:02.172679
2161  2023-10-24 15:33:02.204615
2162  2023-10-24 15:33:02.237507
2163  2023-10-24 15:33:02.269420
2164  2023-10-24 15:33:02.300380
2165  2023-10-24 15:33:02.349251
2166  2023-10-24 15:33:02.381136
2167  2023-10-24 15:33:02.413119
2168  2023-10-24 15:33:02.445035
2169  2023-10-24 15:33:02.476984
2170  2023-10-24 15:33:02.508895
2171  2023-10-24 15:33:02.540814
2172  2023-10-24 15:33:02.572731
2173  2023-10-24 15:33:02.604607
2174  2023-10-24 15:33:02.636556
2175  2023-10-24 15:33:02.668484
2176  2023-10-24 15:33:02.700381
2177  2023-10-24 15:33:02.749291
2178  2023-10-24 15:33:02.781190
2179  2023-10-24 15:33:02.813049
2180  2023-10-24 15:33:02.844964
2181  2023-10-24 15:33:02.876928
2182  2023-10-24 15:33:02.908820
2183  2023-10-24 15:33:02.940709
2184  2023-10-24 15:33:02.972659
2185  2023-10-24 15:33:03.004579
2186  2023-10-24 15:33:03.036482
2187  2023-10-24 15:33:03.068398
2188  2023-10-24 15:33:03.100327
2189  2023-10-24 15:33:03.149151
2190  2023-10-24 15:33:03.181065
2191  2023-10-24 15:33:03.213020
2192  2023-10-24 15:33:03.244925
2193  2023-10-24 15:33:03.276809
2194  2023-10-24 15:33:03.308724
2195  2023-10-24 15:33:03.340639
2196  2023-10-24 15:33:03.372586
2197  2023-10-24 15:33:03.404468
2198  2023-10-24 15:33:03.436383
2199  2023-10-24 15:33:03.468299
2200  2023-10-24 15:33:03.501270
2201  2023-10-24 15:33:03.549116
2202  2023-10-24 15:33:03.581090
2203  2023-10-24 15:33:03.612989
2204  2023-10-24 15:33:03.644888
2205  2023-10-24 15:33:03.676802
2206  2023-10-24 15:33:03.708760
2207  2023-10-24 15:33:03.740632
2208  2023-10-24 15:33:03.772546
2209  2023-10-24 15:33:03.804461
2210  2023-10-24 15:33:03.836376
2211  2023-10-24 15:33:03.869288
2212  2023-10-24 15:33:03.901211
2213  2023-10-24 15:33:03.949074
2214  2023-10-24 15:33:03.980989
2215  2023-10-24 15:33:04.012904
2216  2023-10-24 15:33:04.044818
2217  2023-10-24 15:33:04.076742
2218  2023-10-24 15:33:04.109645
2219  2023-10-24 15:33:04.140563
2220  2023-10-24 15:33:04.173475
2221  2023-10-24 15:33:04.205415
2222  2023-10-24 15:33:04.237395
2223  2023-10-24 15:33:04.268343
2224  2023-10-24 15:33:04.301227
2225  2023-10-24 15:33:04.349130
2226  2023-10-24 15:33:04.381045
2227  2023-10-24 15:33:04.413019
2228  2023-10-24 15:33:04.444874
2229  2023-10-24 15:33:04.476789
2230  2023-10-24 15:33:04.508704
2231  2023-10-24 15:33:04.540650
2232  2023-10-24 15:33:04.572558
2233  2023-10-24 15:33:04.604448
2234  2023-10-24 15:33:04.636362
2235  2023-10-24 15:33:04.668313
2236  2023-10-24 15:33:04.700234
2237  2023-10-24 15:33:04.749111
2238  2023-10-24 15:33:04.781026
2239  2023-10-24 15:33:04.812890
2240  2023-10-24 15:33:04.844805
2241  2023-10-24 15:33:04.876747
2242  2023-10-24 15:33:04.908686
2243  2023-10-24 15:33:04.940549
2244  2023-10-24 15:33:04.972464
2245  2023-10-24 15:33:05.004415
2246  2023-10-24 15:33:05.036326
2247  2023-10-24 15:33:05.069205
2248  2023-10-24 15:33:05.101120
2249  2023-10-24 15:33:05.149103
2250  2023-10-24 15:33:05.181017
2251  2023-10-24 15:33:05.212966
2252  2023-10-24 15:33:05.244847
2253  2023-10-24 15:33:05.276761
2254  2023-10-24 15:33:05.309673
2255  2023-10-24 15:33:05.340634
2256  2023-10-24 15:33:05.372548
2257  2023-10-24 15:33:05.404420
2258  2023-10-24 15:33:05.436334
2259  2023-10-24 15:33:05.469247
2260  2023-10-24 15:33:05.500473
2261  2023-10-24 15:33:05.549384
2262  2023-10-24 15:33:05.581298
2263  2023-10-24 15:33:05.613212
2264  2023-10-24 15:33:05.645228
2265  2023-10-24 15:33:05.677143
2266  2023-10-24 15:33:05.709057
2267  2023-10-24 15:33:05.740972
2268  2023-10-24 15:33:05.772887
2269  2023-10-24 15:33:05.804801
2270  2023-10-24 15:33:05.836716
2271  2023-10-24 15:33:05.868631
2272  2023-10-24 15:33:05.900545
2273  2023-10-24 15:33:05.948417
2274  2023-10-24 15:33:05.981330
2275  2023-10-24 15:33:06.013244
2276  2023-10-24 15:33:06.045159
2277  2023-10-24 15:33:06.077074
2278  2023-10-24 15:33:06.108988
2279  2023-10-24 15:33:06.140903
2280  2023-10-24 15:33:06.172834
2281  2023-10-24 15:33:06.205785
2282  2023-10-24 15:33:06.237646
2283  2023-10-24 15:33:06.269559
2284  2023-10-24 15:33:06.300477
2285  2023-10-24 15:33:06.349346
2286  2023-10-24 15:33:06.381260
2287  2023-10-24 15:33:06.413186
2288  2023-10-24 15:33:06.445089
2289  2023-10-24 15:33:06.477004
2290  2023-10-24 15:33:06.508919
2291  2023-10-24 15:33:06.540834
2292  2023-10-24 15:33:06.572749
2293  2023-10-24 15:33:06.604663
2294  2023-10-24 15:33:06.636577
2295  2023-10-24 15:33:06.668523
2296  2023-10-24 15:33:06.700475
2297  2023-10-24 15:33:06.748405
2298  2023-10-24 15:33:06.781331
2299  2023-10-24 15:33:06.813181
2300  2023-10-24 15:33:06.845096
2301  2023-10-24 15:33:06.877047
2302  2023-10-24 15:33:06.908983
2303  2023-10-24 15:33:06.940840
2304  2023-10-24 15:33:06.972755
2305  2023-10-24 15:33:07.004703
2306  2023-10-24 15:33:07.036610
2307  2023-10-24 15:33:07.068499
2308  2023-10-24 15:33:07.100413
2309  2023-10-24 15:33:07.149283
2310  2023-10-24 15:33:07.180386
2311  2023-10-24 15:33:07.212422
2312  2023-10-24 15:33:07.245335
2313  2023-10-24 15:33:07.277289
2314  2023-10-24 15:33:07.309164
2315  2023-10-24 15:33:07.341093
2316  2023-10-24 15:33:07.372994
2317  2023-10-24 15:33:07.404908
2318  2023-10-24 15:33:07.436823
2319  2023-10-24 15:33:07.468738
2320  2023-10-24 15:33:07.500652
2321  2023-10-24 15:33:07.548524
2322  2023-10-24 15:33:07.581437
2323  2023-10-24 15:33:07.612354
2324  2023-10-24 15:33:07.645266
2325  2023-10-24 15:33:07.677180
2326  2023-10-24 15:33:07.709095
2327  2023-10-24 15:33:07.741011
2328  2023-10-24 15:33:07.772924
2329  2023-10-24 15:33:07.804839
2330  2023-10-24 15:33:07.836754
2331  2023-10-24 15:33:07.868668
2332  2023-10-24 15:33:07.901580
2333  2023-10-24 15:33:07.948455
2334  2023-10-24 15:33:07.981376
2335  2023-10-24 15:33:08.013282
2336  2023-10-24 15:33:08.045196
2337  2023-10-24 15:33:08.077111
2338  2023-10-24 15:33:08.109026
2339  2023-10-24 15:33:08.140941
2340  2023-10-24 15:33:08.172855
2341  2023-10-24 15:33:08.204770
2342  2023-10-24 15:33:08.236698
2343  2023-10-24 15:33:08.268599
2344  2023-10-24 15:33:08.300514
2345  2023-10-24 15:33:08.349383
2346  2023-10-24 15:33:08.381298
2347  2023-10-24 15:33:08.413218
2348  2023-10-24 15:33:08.445127
2349  2023-10-24 15:33:08.477042
2350  2023-10-24 15:33:08.508956
2351  2023-10-24 15:33:08.540871
2352  2023-10-24 15:33:08.572786
2353  2023-10-24 15:33:08.604706
2354  2023-10-24 15:33:08.636615
2355  2023-10-24 15:33:08.668530
2356  2023-10-24 15:33:08.701442
2357  2023-10-24 15:33:08.749319
2358  2023-10-24 15:33:08.781271
2359  2023-10-24 15:33:08.813143
2360  2023-10-24 15:33:08.845110
2361  2023-10-24 15:33:08.877025
2362  2023-10-24 15:33:08.908941
2363  2023-10-24 15:33:08.940863
2364  2023-10-24 15:33:08.972769
2365  2023-10-24 15:33:09.004683
2366  2023-10-24 15:33:09.036635
2367  2023-10-24 15:33:09.068661
2368  2023-10-24 15:33:09.101544
2369  2023-10-24 15:33:09.148417
2370  2023-10-24 15:33:09.181330
2371  2023-10-24 15:33:09.213245
2372  2023-10-24 15:33:09.245194
2373  2023-10-24 15:33:09.277074
2374  2023-10-24 15:33:09.308988
2375  2023-10-24 15:33:09.340903
2376  2023-10-24 15:33:09.372853
2377  2023-10-24 15:33:09.404772
2378  2023-10-24 15:33:09.436648
2379  2023-10-24 15:33:09.468619
2380  2023-10-24 15:33:09.500570
2381  2023-10-24 15:33:09.549404
2382  2023-10-24 15:33:09.581332
2383  2023-10-24 15:33:09.613233
2384  2023-10-24 15:33:09.645147
2385  2023-10-24 15:33:09.678114
2386  2023-10-24 15:33:09.709009
2387  2023-10-24 15:33:09.740891
2388  2023-10-24 15:33:09.772806
2389  2023-10-24 15:33:09.804721
2390  2023-10-24 15:33:09.836636
2391  2023-10-24 15:33:09.868575
2392  2023-10-24 15:33:09.900465
2393  2023-10-24 15:33:09.949335
2394  2023-10-24 15:33:09.982289
2395  2023-10-24 15:33:10.014194
2396  2023-10-24 15:33:10.046108
2397  2023-10-24 15:33:10.078021
2398  2023-10-24 15:33:10.109935
2399  2023-10-24 15:33:10.141842
2400  2023-10-24 15:33:10.173761
2401  2023-10-24 15:33:10.205665
2402  2023-10-24 15:33:10.237587
2403  2023-10-24 15:33:10.269497
2404  2023-10-24 15:33:10.301385
2405  2023-10-24 15:33:10.349284
2406  2023-10-24 15:33:10.382199
2407  2023-10-24 15:33:10.414078
2408  2023-10-24 15:33:10.445992
2409  2023-10-24 15:33:10.477937
2410  2023-10-24 15:33:10.509858
2411  2023-10-24 15:33:10.541780
2412  2023-10-24 15:33:10.573687
2413  2023-10-24 15:33:10.605599
2414  2023-10-24 15:33:10.637647
2415  2023-10-24 15:33:10.669544
2416  2023-10-24 15:33:10.701462
2417  2023-10-24 15:33:10.749339
2418  2023-10-24 15:33:10.782305
2419  2023-10-24 15:33:10.813254
2420  2023-10-24 15:33:10.845141
2421  2023-10-24 15:33:10.878079
2422  2023-10-24 15:33:10.909995
2423  2023-10-24 15:33:10.940881
2424  2023-10-24 15:33:10.972940
2425  2023-10-24 15:33:11.004856
2426  2023-10-24 15:33:11.037772
2427  2023-10-24 15:33:11.069804
2428  2023-10-24 15:33:11.100702
2429  2023-10-24 15:33:11.148674
2430  2023-10-24 15:33:11.180571
2431  2023-10-24 15:33:11.212497
2432  2023-10-24 15:33:11.244413
2433  2023-10-24 15:33:11.277279
2434  2023-10-24 15:33:11.309206
2435  2023-10-24 15:33:11.341153
2436  2023-10-24 15:33:11.373058
2437  2023-10-24 15:33:11.405053
2438  2023-10-24 15:33:11.436944
2439  2023-10-24 15:33:11.469893
2440  2023-10-24 15:33:11.500819
2441  2023-10-24 15:33:11.549677
2442  2023-10-24 15:33:11.581627
2443  2023-10-24 15:33:11.613586
2444  2023-10-24 15:33:11.644491
2445  2023-10-24 15:33:11.676565
2446  2023-10-24 15:33:11.708510
2447  2023-10-24 15:33:11.742077
2448  2023-10-24 15:33:11.773996
2449  2023-10-24 15:33:11.805895
2450  2023-10-24 15:33:11.836822
2451  2023-10-24 15:33:11.868751
2452  2023-10-24 15:33:11.901767
2453  2023-10-24 15:33:11.948606
2454  2023-10-24 15:33:11.981512
2455  2023-10-24 15:33:12.013475
2456  2023-10-24 15:33:12.045477
2457  2023-10-24 15:33:12.077423
2458  2023-10-24 15:33:12.109271
2459  2023-10-24 15:33:12.141217
2460  2023-10-24 15:33:12.173151
2461  2023-10-24 15:33:12.205049
2462  2023-10-24 15:33:12.236930
2463  2023-10-24 15:33:12.268876
2464  2023-10-24 15:33:12.301789
2465  2023-10-24 15:33:12.348632
2466  2023-10-24 15:33:12.381574
2467  2023-10-24 15:33:12.413494
2468  2023-10-24 15:33:12.445428
2469  2023-10-24 15:33:12.477287
2470  2023-10-24 15:33:12.509244
2471  2023-10-24 15:33:12.541172
2472  2023-10-24 15:33:12.573064
2473  2023-10-24 15:33:12.604978
2474  2023-10-24 15:33:12.636887
2475  2023-10-24 15:33:12.668822
2476  2023-10-24 15:33:12.700735
2477  2023-10-24 15:33:12.749562
2478  2023-10-24 15:33:12.781477
2479  2023-10-24 15:33:12.813390
2480  2023-10-24 15:33:12.845305
2481  2023-10-24 15:33:12.877350
2482  2023-10-24 15:33:12.909301
2483  2023-10-24 15:33:12.941209
2484  2023-10-24 15:33:12.973143
2485  2023-10-24 15:33:13.005044
2486  2023-10-24 15:33:13.036924
2487  2023-10-24 15:33:13.068964
2488  2023-10-24 15:33:13.100957
2489  2023-10-24 15:33:13.148802
2490  2023-10-24 15:33:13.180753
2491  2023-10-24 15:33:13.212787
2492  2023-10-24 15:33:13.245656
2493  2023-10-24 15:33:13.276573
2494  2023-10-24 15:33:13.308758
2495  2023-10-24 15:33:13.340761
2496  2023-10-24 15:33:13.372681
2497  2023-10-24 15:33:13.404597
2498  2023-10-24 15:33:13.436479
2499  2023-10-24 15:33:13.468427
2500  2023-10-24 15:33:13.500341
2501  2023-10-24 15:33:13.549276
2502  2023-10-24 15:33:13.581204
2503  2023-10-24 15:33:13.613092
2504  2023-10-24 15:33:13.645031
2505  2023-10-24 15:33:13.676895
2506  2023-10-24 15:33:13.708858
2507  2023-10-24 15:33:13.740797
2508  2023-10-24 15:33:13.772675
2509  2023-10-24 15:33:13.804589
2510  2023-10-24 15:33:13.836546
2511  2023-10-24 15:33:13.868418
2512  2023-10-24 15:33:13.900333
2513  2023-10-24 15:33:13.949231
2514  2023-10-24 15:33:13.981138
2515  2023-10-24 15:33:14.012997
2516  2023-10-24 15:33:14.044943
2517  2023-10-24 15:33:14.076876
2518  2023-10-24 15:33:14.108791
2519  2023-10-24 15:33:14.140731
2520  2023-10-24 15:33:14.172606
2521  2023-10-24 15:33:14.204519
2522  2023-10-24 15:33:14.236434
2523  2023-10-24 15:33:14.269351
2524  2023-10-24 15:33:14.301281
2525  2023-10-24 15:33:14.349098
2526  2023-10-24 15:33:14.381048
2527  2023-10-24 15:33:14.412959
2528  2023-10-24 15:33:14.444893
2529  2023-10-24 15:33:14.476807
2530  2023-10-24 15:33:14.508731
2531  2023-10-24 15:33:14.540619
2532  2023-10-24 15:33:14.572545
2533  2023-10-24 15:33:14.604448
2534  2023-10-24 15:33:14.637362
2535  2023-10-24 15:33:14.668279
2536  2023-10-24 15:33:14.701194
2537  2023-10-24 15:33:14.749069
2538  2023-10-24 15:33:14.780944
2539  2023-10-24 15:33:14.812885
2540  2023-10-24 15:33:14.844832
2541  2023-10-24 15:33:14.876730
2542  2023-10-24 15:33:14.908648
2543  2023-10-24 15:33:14.940576
2544  2023-10-24 15:33:14.972458
2545  2023-10-24 15:33:15.004377
2546  2023-10-24 15:33:15.037303
2547  2023-10-24 15:33:15.069213
2548  2023-10-24 15:33:15.101138
2549  2023-10-24 15:33:15.148960
2550  2023-10-24 15:33:15.180908
2551  2023-10-24 15:33:15.212842
2552  2023-10-24 15:33:15.245823
2553  2023-10-24 15:33:15.276706
2554  2023-10-24 15:33:15.308618
2555  2023-10-24 15:33:15.340541
2556  2023-10-24 15:33:15.372456
2557  2023-10-24 15:33:15.405339
2558  2023-10-24 15:33:15.436283
2559  2023-10-24 15:33:15.469199
2560  2023-10-24 15:33:15.501124
2561  2023-10-24 15:33:15.548952
2562  2023-10-24 15:33:15.580895
2563  2023-10-24 15:33:15.612783
2564  2023-10-24 15:33:15.644747
2565  2023-10-24 15:33:15.676643
2566  2023-10-24 15:33:15.708558
2567  2023-10-24 15:33:15.740471
2568  2023-10-24 15:33:15.772285
2569  2023-10-24 15:33:15.805246
2570  2023-10-24 15:33:15.837199
2571  2023-10-24 15:33:15.869257
2572  2023-10-24 15:33:15.901146
2573  2023-10-24 15:33:15.949035
2574  2023-10-24 15:33:15.980898
2575  2023-10-24 15:33:16.012813
2576  2023-10-24 15:33:16.044774
2577  2023-10-24 15:33:16.076680
2578  2023-10-24 15:33:16.108582
2579  2023-10-24 15:33:16.140502
2580  2023-10-24 15:33:16.172432
2581  2023-10-24 15:33:16.204337
2582  2023-10-24 15:33:16.237241
2583  2023-10-24 15:33:16.269155
2584  2023-10-24 15:33:16.301082
2585  2023-10-24 15:33:16.348967
2586  2023-10-24 15:33:16.380862
2587  2023-10-24 15:33:16.413774
2588  2023-10-24 15:33:16.444659
2589  2023-10-24 15:33:16.476603
2590  2023-10-24 15:33:16.508527
2591  2023-10-24 15:33:16.540432
2592  2023-10-24 15:33:16.572365
2593  2023-10-24 15:33:16.605271
2594  2023-10-24 15:33:16.637195
2595  2023-10-24 15:33:16.669085
2596  2023-10-24 15:33:16.700999
2597  2023-10-24 15:33:16.748885
2598  2023-10-24 15:33:16.780791
2599  2023-10-24 15:33:16.812675
2600  2023-10-24 15:33:16.844618
2601  2023-10-24 15:33:16.876557
2602  2023-10-24 15:33:16.908459
2603  2023-10-24 15:33:16.940364
2604  2023-10-24 15:33:16.973246
2605  2023-10-24 15:33:17.005208
2606  2023-10-24 15:33:17.037077
2607  2023-10-24 15:33:17.069032
2608  2023-10-24 15:33:17.100954
2609  2023-10-24 15:33:17.148849
2610  2023-10-24 15:33:17.180746
2611  2023-10-24 15:33:17.212648
2612  2023-10-24 15:33:17.244576
2613  2023-10-24 15:33:17.276477
2614  2023-10-24 15:33:17.308391
2615  2023-10-24 15:33:17.340318
2616  2023-10-24 15:33:17.373210
2617  2023-10-24 15:33:17.405121
2618  2023-10-24 15:33:17.437031
2619  2023-10-24 15:33:17.468956
2620  2023-10-24 15:33:17.500880
2621  2023-10-24 15:33:17.548769
2622  2023-10-24 15:33:17.580664
2623  2023-10-24 15:33:17.612536
2624  2023-10-24 15:33:17.644499
2625  2023-10-24 15:33:17.676421
2626  2023-10-24 15:33:17.708315
2627  2023-10-24 15:33:17.741241
2628  2023-10-24 15:33:17.773107
2629  2023-10-24 15:33:17.805050
2630  2023-10-24 15:33:17.836869
2631  2023-10-24 15:33:17.868786
2632  2023-10-24 15:33:17.900722
2633  2023-10-24 15:33:17.948568
2634  2023-10-24 15:33:17.980483
2635  2023-10-24 15:33:18.013396
2636  2023-10-24 15:33:18.044405
2637  2023-10-24 15:33:18.077334
2638  2023-10-24 15:33:18.109237
2639  2023-10-24 15:33:18.141143
2640  2023-10-24 15:33:18.173026
2641  2023-10-24 15:33:18.204941
2642  2023-10-24 15:33:18.236918
2643  2023-10-24 15:33:18.268817
2644  2023-10-24 15:33:18.300726
2645  2023-10-24 15:33:18.348587
2646  2023-10-24 15:33:18.381501
2647  2023-10-24 15:33:18.412386
2648  2023-10-24 15:33:18.444301
2649  2023-10-24 15:33:18.477213
2650  2023-10-24 15:33:18.509156
2651  2023-10-24 15:33:18.541074
2652  2023-10-24 15:33:18.572957
2653  2023-10-24 15:33:18.604871
2654  2023-10-24 15:33:18.636829
2655  2023-10-24 15:33:18.668734
2656  2023-10-24 15:33:18.700647
2657  2023-10-24 15:33:18.749486
2658  2023-10-24 15:33:18.781418
2659  2023-10-24 15:33:18.813315
2660  2023-10-24 15:33:18.845235
2661  2023-10-24 15:33:18.877184
2662  2023-10-24 15:33:18.909107
2663  2023-10-24 15:33:18.941007
2664  2023-10-24 15:33:18.972887
2665  2023-10-24 15:33:19.004802
2666  2023-10-24 15:33:19.036765
2667  2023-10-24 15:33:19.068659
2668  2023-10-24 15:33:19.100585
2669  2023-10-24 15:33:19.148464
2670  2023-10-24 15:33:19.180364
2671  2023-10-24 15:33:19.213278
2672  2023-10-24 15:33:19.245186
2673  2023-10-24 15:33:19.277074
2674  2023-10-24 15:33:19.309015
2675  2023-10-24 15:33:19.340941
2676  2023-10-24 15:33:19.372853
2677  2023-10-24 15:33:19.404733
2678  2023-10-24 15:33:19.436672
2679  2023-10-24 15:33:19.468588
2680  2023-10-24 15:33:19.500503
2681  2023-10-24 15:33:19.549346
2682  2023-10-24 15:33:19.581285
2683  2023-10-24 15:33:19.613176
2684  2023-10-24 15:33:19.645090
2685  2023-10-24 15:33:19.677005
2686  2023-10-24 15:33:19.708950
2687  2023-10-24 15:33:19.740865
2688  2023-10-24 15:33:19.772749
2689  2023-10-24 15:33:19.804664
2690  2023-10-24 15:33:19.836578
2691  2023-10-24 15:33:19.868520
2692  2023-10-24 15:33:19.900408
2693  2023-10-24 15:33:19.949277
2694  2023-10-24 15:33:19.981192
2695  2023-10-24 15:33:20.013106
2696  2023-10-24 15:33:20.045021
2697  2023-10-24 15:33:20.076936
2698  2023-10-24 15:33:20.108850
2699  2023-10-24 15:33:20.140765
2700  2023-10-24 15:33:20.172680
2701  2023-10-24 15:33:20.204594
2702  2023-10-24 15:33:20.236509
2703  2023-10-24 15:33:20.268424
2704  2023-10-24 15:33:20.300338
2705  2023-10-24 15:33:20.349208
2706  2023-10-24 15:33:20.381122
2707  2023-10-24 15:33:20.413037
2708  2023-10-24 15:33:20.444952
2709  2023-10-24 15:33:20.476866
2710  2023-10-24 15:33:20.508781
2711  2023-10-24 15:33:20.540696
2712  2023-10-24 15:33:20.572663
2713  2023-10-24 15:33:20.604538
2714  2023-10-24 15:33:20.637437
2715  2023-10-24 15:33:20.669381
2716  2023-10-24 15:33:20.700295
2717  2023-10-24 15:33:20.749171
2718  2023-10-24 15:33:20.781053
2719  2023-10-24 15:33:20.812968
2720  2023-10-24 15:33:20.844882
2721  2023-10-24 15:33:20.876839
2722  2023-10-24 15:33:20.908712
2723  2023-10-24 15:33:20.940626
2724  2023-10-24 15:33:20.972541
2725  2023-10-24 15:33:21.004457
2726  2023-10-24 15:33:21.037369
2727  2023-10-24 15:33:21.069284
2728  2023-10-24 15:33:21.101197
2729  2023-10-24 15:33:21.149071
2730  2023-10-24 15:33:21.180985
2731  2023-10-24 15:33:21.212900
2732  2023-10-24 15:33:21.244863
2733  2023-10-24 15:33:21.276755
2734  2023-10-24 15:33:21.308644
2735  2023-10-24 15:33:21.340559
2736  2023-10-24 15:33:21.372474
2737  2023-10-24 15:33:21.404427
2738  2023-10-24 15:33:21.437300
2739  2023-10-24 15:33:21.469214
2740  2023-10-24 15:33:21.501156
2741  2023-10-24 15:33:21.549001
2742  2023-10-24 15:33:21.580955
2743  2023-10-24 15:33:21.612831
2744  2023-10-24 15:33:21.644745
2745  2023-10-24 15:33:21.676660
2746  2023-10-24 15:33:21.708617
2747  2023-10-24 15:33:21.740489
2748  2023-10-24 15:33:21.772404
2749  2023-10-24 15:33:21.804318
2750  2023-10-24 15:33:21.837231
2751  2023-10-24 15:33:21.869145
2752  2023-10-24 15:33:21.901060
2753  2023-10-24 15:33:21.948930
2754  2023-10-24 15:33:21.980852
2755  2023-10-24 15:33:22.012760
2756  2023-10-24 15:33:22.044674
2757  2023-10-24 15:33:22.076589
2758  2023-10-24 15:33:22.108505
2759  2023-10-24 15:33:22.141417
2760  2023-10-24 15:33:22.172451
2761  2023-10-24 15:33:22.204388
2762  2023-10-24 15:33:22.237300
2763  2023-10-24 15:33:22.269214
2764  2023-10-24 15:33:22.301129
2765  2023-10-24 15:33:22.349002
2766  2023-10-24 15:33:22.380854
2767  2023-10-24 15:33:22.413852
2768  2023-10-24 15:33:22.444768
2769  2023-10-24 15:33:22.476682
2770  2023-10-24 15:33:22.508721
2771  2023-10-24 15:33:22.540666
2772  2023-10-24 15:33:22.572584
2773  2023-10-24 15:33:22.605462
2774  2023-10-24 15:33:22.637377
2775  2023-10-24 15:33:22.668331
2776  2023-10-24 15:33:22.701263
2777  2023-10-24 15:33:22.749079
2778  2023-10-24 15:33:22.780993
2779  2023-10-24 15:33:22.812908
2780  2023-10-24 15:33:22.844822
2781  2023-10-24 15:33:22.876764
2782  2023-10-24 15:33:22.908681
2783  2023-10-24 15:33:22.940704
2784  2023-10-24 15:33:22.972619
2785  2023-10-24 15:33:23.004565
2786  2023-10-24 15:33:23.036473
2787  2023-10-24 15:33:23.068363
2788  2023-10-24 15:33:23.101275
2789  2023-10-24 15:33:23.149147
2790  2023-10-24 15:33:23.181061
2791  2023-10-24 15:33:23.213015
2792  2023-10-24 15:33:23.244891
2793  2023-10-24 15:33:23.276805
2794  2023-10-24 15:33:23.308720
2795  2023-10-24 15:33:23.340635
2796  2023-10-24 15:33:23.372549
2797  2023-10-24 15:33:23.404464
2798  2023-10-24 15:33:23.436379
2799  2023-10-24 15:33:23.468293
2800  2023-10-24 15:33:23.501278
2801  2023-10-24 15:33:23.548650
2802  2023-10-24 15:33:23.580565
2803  2023-10-24 15:33:23.612480
2804  2023-10-24 15:33:23.644508
2805  2023-10-24 15:33:23.676463
2806  2023-10-24 15:33:23.708378
2807  2023-10-24 15:33:23.741290
2808  2023-10-24 15:33:23.773217
2809  2023-10-24 15:33:23.805196
2810  2023-10-24 15:33:23.837110
2811  2023-10-24 15:33:23.869026
2812  2023-10-24 15:33:23.900940
2813  2023-10-24 15:33:23.948812
2814  2023-10-24 15:33:23.980726
2815  2023-10-24 15:33:24.012641
2816  2023-10-24 15:33:24.044556
2817  2023-10-24 15:33:24.077501
2818  2023-10-24 15:33:24.109382
2819  2023-10-24 15:33:24.141329
2820  2023-10-24 15:33:24.173280
2821  2023-10-24 15:33:24.205157
2822  2023-10-24 15:33:24.237071
2823  2023-10-24 15:33:24.269031
2824  2023-10-24 15:33:24.300941
2825  2023-10-24 15:33:24.348813
2826  2023-10-24 15:33:24.380727
2827  2023-10-24 15:33:24.412679
2828  2023-10-24 15:33:24.444556
2829  2023-10-24 15:33:24.476471
2830  2023-10-24 15:33:24.508386
2831  2023-10-24 15:33:24.540493
2832  2023-10-24 15:33:24.572374
2833  2023-10-24 15:33:24.605388
2834  2023-10-24 15:33:24.636295
2835  2023-10-24 15:33:24.669255
2836  2023-10-24 15:33:24.701127
2837  2023-10-24 15:33:24.748999
2838  2023-10-24 15:33:24.780913
2839  2023-10-24 15:33:24.812936
2840  2023-10-24 15:33:24.845004
2841  2023-10-24 15:33:24.877112
2842  2023-10-24 15:33:24.909038
2843  2023-10-24 15:33:24.940915
2844  2023-10-24 15:33:24.972830
2845  2023-10-24 15:33:25.004776
2846  2023-10-24 15:33:25.036659
2847  2023-10-24 15:33:25.068574
2848  2023-10-24 15:33:25.100489
2849  2023-10-24 15:33:25.149358
2850  2023-10-24 15:33:25.180275
2851  2023-10-24 15:33:25.213187
2852  2023-10-24 15:33:25.245102
2853  2023-10-24 15:33:25.277017
2854  2023-10-24 15:33:25.308932
2855  2023-10-24 15:33:25.340846
2856  2023-10-24 15:33:25.372761
2857  2023-10-24 15:33:25.404675
2858  2023-10-24 15:33:25.436590
2859  2023-10-24 15:33:25.469502
2860  2023-10-24 15:33:25.500419
2861  2023-10-24 15:33:25.549290
2862  2023-10-24 15:33:25.581208
2863  2023-10-24 15:33:25.613118
2864  2023-10-24 15:33:25.645033
2865  2023-10-24 15:33:25.676947
2866  2023-10-24 15:33:25.708862
2867  2023-10-24 15:33:25.740777
2868  2023-10-24 15:33:25.772691
2869  2023-10-24 15:33:25.804606
2870  2023-10-24 15:33:25.837519
2871  2023-10-24 15:33:25.869433
2872  2023-10-24 15:33:25.903381
2873  2023-10-24 15:33:25.950260
2874  2023-10-24 15:33:25.982178
2875  2023-10-24 15:33:26.014077
2876  2023-10-24 15:33:26.046007
2877  2023-10-24 15:33:26.078032
2878  2023-10-24 15:33:26.109992
2879  2023-10-24 15:33:26.141890
2880  2023-10-24 15:33:26.173811
2881  2023-10-24 15:33:26.205719
2882  2023-10-24 15:33:26.238633
2883  2023-10-24 15:33:26.270517
2884  2023-10-24 15:33:26.301458
2885  2023-10-24 15:33:26.349365
2886  2023-10-24 15:33:26.382217
2887  2023-10-24 15:33:26.414160
2888  2023-10-24 15:33:26.446071
2889  2023-10-24 15:33:26.478959
2890  2023-10-24 15:33:26.509907
2891  2023-10-24 15:33:26.541834
2892  2023-10-24 15:33:26.573736
2893  2023-10-24 15:33:26.605654
2894  2023-10-24 15:33:26.637568
2895  2023-10-24 15:33:26.669503
2896  2023-10-24 15:33:26.701389
2897  2023-10-24 15:33:26.749278
2898  2023-10-24 15:33:26.781196
2899  2023-10-24 15:33:26.813117
2900  2023-10-24 15:33:26.845013
2901  2023-10-24 15:33:26.876925
2902  2023-10-24 15:33:26.908848
2903  2023-10-24 15:33:26.940754
2904  2023-10-24 15:33:26.973665
2905  2023-10-24 15:33:27.005602
2906  2023-10-24 15:33:27.036580
2907  2023-10-24 15:33:27.069500
2908  2023-10-24 15:33:27.100414
2909  2023-10-24 15:33:27.149282
2910  2023-10-24 15:33:27.181196
2911  2023-10-24 15:33:27.213110
2912  2023-10-24 15:33:27.245024
2913  2023-10-24 15:33:27.276943
2914  2023-10-24 15:33:27.308857
2915  2023-10-24 15:33:27.340770
2916  2023-10-24 15:33:27.372683
2917  2023-10-24 15:33:27.404596
2918  2023-10-24 15:33:27.437512
2919  2023-10-24 15:33:27.468425
2920  2023-10-24 15:33:27.500342
2921  2023-10-24 15:33:27.549179
2922  2023-10-24 15:33:27.581136
2923  2023-10-24 15:33:27.613042
2924  2023-10-24 15:33:27.645920
2925  2023-10-24 15:33:27.676871
2926  2023-10-24 15:33:27.708790
2927  2023-10-24 15:33:27.741712
2928  2023-10-24 15:33:27.774611
2929  2023-10-24 15:33:27.806523
2930  2023-10-24 15:33:27.836448
2931  2023-10-24 15:33:27.869352
2932  2023-10-24 15:33:27.902268
2933  2023-10-24 15:33:27.949131
2934  2023-10-24 15:33:27.982053
2935  2023-10-24 15:33:28.013980
2936  2023-10-24 15:33:28.045880
2937  2023-10-24 15:33:28.076798
2938  2023-10-24 15:33:28.108690
2939  2023-10-24 15:33:28.141628
2940  2023-10-24 15:33:28.173509
2941  2023-10-24 15:33:28.205426
2942  2023-10-24 15:33:28.237340
2943  2023-10-24 15:33:28.269292
2944  2023-10-24 15:33:28.302209
2945  2023-10-24 15:33:28.349092
2946  2023-10-24 15:33:28.380986
2947  2023-10-24 15:33:28.413898
2948  2023-10-24 15:33:28.445814
2949  2023-10-24 15:33:28.476698
2950  2023-10-24 15:33:28.508613
2951  2023-10-24 15:33:28.541558
2952  2023-10-24 15:33:28.573475
2953  2023-10-24 15:33:28.605382
2954  2023-10-24 15:33:28.637308
2955  2023-10-24 15:33:28.669232
2956  2023-10-24 15:33:28.701129
2957  2023-10-24 15:33:28.749023
2958  2023-10-24 15:33:28.780917
2959  2023-10-24 15:33:28.813799
2960  2023-10-24 15:33:28.844775
2961  2023-10-24 15:33:28.876656
2962  2023-10-24 15:33:28.908543
2963  2023-10-24 15:33:28.941496
2964  2023-10-24 15:33:28.973546
2965  2023-10-24 15:33:29.005457
2966  2023-10-24 15:33:29.037366
2967  2023-10-24 15:33:29.068318
2968  2023-10-24 15:33:29.101274
2969  2023-10-24 15:33:29.149247
2970  2023-10-24 15:33:29.181193
2971  2023-10-24 15:33:29.213129
2972  2023-10-24 15:33:29.245018
2973  2023-10-24 15:33:29.277080
2974  2023-10-24 15:33:29.308995
2975  2023-10-24 15:33:29.340969
2976  2023-10-24 15:33:29.372832
2977  2023-10-24 15:33:29.404858
2978  2023-10-24 15:33:29.436755
2979  2023-10-24 15:33:29.468693
2980  2023-10-24 15:33:29.501553
2981  2023-10-24 15:33:29.548426
2982  2023-10-24 15:33:29.581383
2983  2023-10-24 15:33:29.613254
2984  2023-10-24 15:33:29.645168
2985  2023-10-24 15:33:29.677083
2986  2023-10-24 15:33:29.709031
2987  2023-10-24 15:33:29.740942
2988  2023-10-24 15:33:29.772865
2989  2023-10-24 15:33:29.804796
2990  2023-10-24 15:33:29.836709
2991  2023-10-24 15:33:29.868604
2992  2023-10-24 15:33:29.900595
2993  2023-10-24 15:33:29.948563
2994  2023-10-24 15:33:29.981447
2995  2023-10-24 15:33:30.013373
2996  2023-10-24 15:33:30.045297
2997  2023-10-24 15:33:30.077208
2998  2023-10-24 15:33:30.109122
2999  2023-10-24 15:33:30.141022
3000  2023-10-24 15:33:30.172904
3001  2023-10-24 15:33:30.204853
3002  2023-10-24 15:33:30.236786
3003  2023-10-24 15:33:30.268678
3004  2023-10-24 15:33:30.300595
3005  2023-10-24 15:33:30.348466
3006  2023-10-24 15:33:30.381371
3007  2023-10-24 15:33:30.413315
3008  2023-10-24 15:33:30.445226
3009  2023-10-24 15:33:30.477139
3010  2023-10-24 15:33:30.509034
3011  2023-10-24 15:33:30.540951
3012  2023-10-24 15:33:30.572863
3013  2023-10-24 15:33:30.604790
3014  2023-10-24 15:33:30.636703
3015  2023-10-24 15:33:30.668625
3016  2023-10-24 15:33:30.700522
3017  2023-10-24 15:33:30.748416
3018  2023-10-24 15:33:30.781315
3019  2023-10-24 15:33:30.813192
3020  2023-10-24 15:33:30.845107
3021  2023-10-24 15:33:30.877021
3022  2023-10-24 15:33:30.908936
3023  2023-10-24 15:33:30.940850
3024  2023-10-24 15:33:30.972765
3025  2023-10-24 15:33:31.004717
3026  2023-10-24 15:33:31.037592
3027  2023-10-24 15:33:31.069505
3028  2023-10-24 15:33:31.100424
3029  2023-10-24 15:33:31.149293
3030  2023-10-24 15:33:31.181208
3031  2023-10-24 15:33:31.213122
3032  2023-10-24 15:33:31.245037
3033  2023-10-24 15:33:31.276952
3034  2023-10-24 15:33:31.308866
3035  2023-10-24 15:33:31.340782
3036  2023-10-24 15:33:31.373695
3037  2023-10-24 15:33:31.404610
3038  2023-10-24 15:33:31.436525
3039  2023-10-24 15:33:31.468481
3040  2023-10-24 15:33:31.500354
3041  2023-10-24 15:33:31.549265
3042  2023-10-24 15:33:31.581187
3043  2023-10-24 15:33:31.613053
3044  2023-10-24 15:33:31.644968
3045  2023-10-24 15:33:31.676913
3046  2023-10-24 15:33:31.708826
3047  2023-10-24 15:33:31.740738
3048  2023-10-24 15:33:31.772656
3049  2023-10-24 15:33:31.804571
3050  2023-10-24 15:33:31.836506
3051  2023-10-24 15:33:31.868416
3052  2023-10-24 15:33:31.900311
3053  2023-10-24 15:33:31.949202
3054  2023-10-24 15:33:31.981103
3055  2023-10-24 15:33:32.013017
3056  2023-10-24 15:33:32.044969
3057  2023-10-24 15:33:32.076845
3058  2023-10-24 15:33:32.108758
3059  2023-10-24 15:33:32.140690
3060  2023-10-24 15:33:32.172589
3061  2023-10-24 15:33:32.204511
3062  2023-10-24 15:33:32.236411
3063  2023-10-24 15:33:32.268333
3064  2023-10-24 15:33:32.301247
3065  2023-10-24 15:33:32.349130
3066  2023-10-24 15:33:32.381033
3067  2023-10-24 15:33:32.412915
3068  2023-10-24 15:33:32.444860
3069  2023-10-24 15:33:32.476774
3070  2023-10-24 15:33:32.508692
3071  2023-10-24 15:33:32.540612
3072  2023-10-24 15:33:32.573484
3073  2023-10-24 15:33:32.604450
3074  2023-10-24 15:33:32.636369
3075  2023-10-24 15:33:32.669277
3076  2023-10-24 15:33:32.701240
3077  2023-10-24 15:33:32.749231
3078  2023-10-24 15:33:32.781142
3079  2023-10-24 15:33:32.813076
3080  2023-10-24 15:33:32.845011
3081  2023-10-24 15:33:32.876877
3082  2023-10-24 15:33:32.908796
3083  2023-10-24 15:33:32.940756
3084  2023-10-24 15:33:32.972645
3085  2023-10-24 15:33:33.004579
3086  2023-10-24 15:33:33.036451
3087  2023-10-24 15:33:33.068411
3088  2023-10-24 15:33:33.100445
3089  2023-10-24 15:33:33.148365
3090  2023-10-24 15:33:33.180266
3091  2023-10-24 15:33:33.213201
3092  2023-10-24 15:33:33.245101
3093  2023-10-24 15:33:33.277004
3094  2023-10-24 15:33:33.308928
3095  2023-10-24 15:33:33.340841
3096  2023-10-24 15:33:33.372782
3097  2023-10-24 15:33:33.404670
3098  2023-10-24 15:33:33.436577
3099  2023-10-24 15:33:33.468475
3100  2023-10-24 15:33:33.500389
3101  2023-10-24 15:33:33.549260
3102  2023-10-24 15:33:33.581174
3103  2023-10-24 15:33:33.613088
3104  2023-10-24 15:33:33.645003
3105  2023-10-24 15:33:33.676917
3106  2023-10-24 15:33:33.708833
3107  2023-10-24 15:33:33.740747
3108  2023-10-24 15:33:33.772662
3109  2023-10-24 15:33:33.804576
3110  2023-10-24 15:33:33.836491
3111  2023-10-24 15:33:33.868473
3112  2023-10-24 15:33:33.901440
3113  2023-10-24 15:33:33.948336
3114  2023-10-24 15:33:33.981241
3115  2023-10-24 15:33:34.013110
3116  2023-10-24 15:33:34.045024
3117  2023-10-24 15:33:34.077003
3118  2023-10-24 15:33:34.108885
3119  2023-10-24 15:33:34.140803
3120  2023-10-24 15:33:34.172739
3121  2023-10-24 15:33:34.205649
3122  2023-10-24 15:33:34.237543
3123  2023-10-24 15:33:34.268458
3124  2023-10-24 15:33:34.301383
3125  2023-10-24 15:33:34.349259
3126  2023-10-24 15:33:34.381157
3127  2023-10-24 15:33:34.413073
3128  2023-10-24 15:33:34.444988
3129  2023-10-24 15:33:34.476899
3130  2023-10-24 15:33:34.508834
3131  2023-10-24 15:33:34.540700
3132  2023-10-24 15:33:34.572657
3133  2023-10-24 15:33:34.604528
3134  2023-10-24 15:33:34.636474
3135  2023-10-24 15:33:34.668391
3136  2023-10-24 15:33:34.701278
3137  2023-10-24 15:33:34.749150
3138  2023-10-24 15:33:34.781064
3139  2023-10-24 15:33:34.813037
3140  2023-10-24 15:33:34.845060
3141  2023-10-24 15:33:34.877009
3142  2023-10-24 15:33:34.908936
3143  2023-10-24 15:33:34.940841
3144  2023-10-24 15:33:34.972718
3145  2023-10-24 15:33:35.004666
3146  2023-10-24 15:33:35.036580
3147  2023-10-24 15:33:35.068507
3148  2023-10-24 15:33:35.100426
3149  2023-10-24 15:33:35.149278
3150  2023-10-24 15:33:35.180208
3151  2023-10-24 15:33:35.213113
3152  2023-10-24 15:33:35.245023
3153  2023-10-24 15:33:35.276950
3154  2023-10-24 15:33:35.308857
3155  2023-10-24 15:33:35.340771
3156  2023-10-24 15:33:35.372680
3157  2023-10-24 15:33:35.404564
3158  2023-10-24 15:33:35.436478
3159  2023-10-24 15:33:35.468440
3160  2023-10-24 15:33:35.501347
3161  2023-10-24 15:33:35.549228
3162  2023-10-24 15:33:35.581124
3163  2023-10-24 15:33:35.613006
3164  2023-10-24 15:33:35.644921
3165  2023-10-24 15:33:35.676836
3166  2023-10-24 15:33:35.708781
3167  2023-10-24 15:33:35.740701
3168  2023-10-24 15:33:35.772619
3169  2023-10-24 15:33:35.804494
3170  2023-10-24 15:33:35.837406
3171  2023-10-24 15:33:35.869323
3172  2023-10-24 15:33:35.901236
3173  2023-10-24 15:33:35.949108
3174  2023-10-24 15:33:35.981022
3175  2023-10-24 15:33:36.012937
3176  2023-10-24 15:33:36.044852
3177  2023-10-24 15:33:36.076798
3178  2023-10-24 15:33:36.108681
3179  2023-10-24 15:33:36.140596
3180  2023-10-24 15:33:36.172556
3181  2023-10-24 15:33:36.204466
3182  2023-10-24 15:33:36.236340
3183  2023-10-24 15:33:36.268282
3184  2023-10-24 15:33:36.301167
3185  2023-10-24 15:33:36.349040
3186  2023-10-24 15:33:36.380953
3187  2023-10-24 15:33:36.412899
3188  2023-10-24 15:33:36.444782
3189  2023-10-24 15:33:36.476764
3190  2023-10-24 15:33:36.508679
3191  2023-10-24 15:33:36.540619
3192  2023-10-24 15:33:36.572508
3193  2023-10-24 15:33:36.604422
3194  2023-10-24 15:33:36.636337
3195  2023-10-24 15:33:36.668301
3196  2023-10-24 15:33:36.701213
3197  2023-10-24 15:33:36.749061
3198  2023-10-24 15:33:36.780951
3199  2023-10-24 15:33:36.812865
3200  2023-10-24 15:33:36.844780
3201  2023-10-24 15:33:36.876727
3202  2023-10-24 15:33:36.908609
3203  2023-10-24 15:33:36.940524
3204  2023-10-24 15:33:36.972439
3205  2023-10-24 15:33:37.004402
3206  2023-10-24 15:33:37.036300
3207  2023-10-24 15:33:37.069180
3208  2023-10-24 15:33:37.101094
3209  2023-10-24 15:33:37.148966
3210  2023-10-24 15:33:37.180881
3211  2023-10-24 15:33:37.212919
3212  2023-10-24 15:33:37.244795
3213  2023-10-24 15:33:37.276710
3214  2023-10-24 15:33:37.308625
3215  2023-10-24 15:33:37.340576
3216  2023-10-24 15:33:37.372499
3217  2023-10-24 15:33:37.404369
3218  2023-10-24 15:33:37.437281
3219  2023-10-24 15:33:37.469196
3220  2023-10-24 15:33:37.501110
3221  2023-10-24 15:33:37.548982
3222  2023-10-24 15:33:37.580897
3223  2023-10-24 15:33:37.612811
3224  2023-10-24 15:33:37.644730
3225  2023-10-24 15:33:37.676641
3226  2023-10-24 15:33:37.708555
3227  2023-10-24 15:33:37.740502
3228  2023-10-24 15:33:37.772385
3229  2023-10-24 15:33:37.804398
3230  2023-10-24 15:33:37.836313
3231  2023-10-24 15:33:37.869226
3232  2023-10-24 15:33:37.901140
3233  2023-10-24 15:33:37.949045
3234  2023-10-24 15:33:37.980926
3235  2023-10-24 15:33:38.012841
3236  2023-10-24 15:33:38.044908
3237  2023-10-24 15:33:38.076853
3238  2023-10-24 15:33:38.108824
3239  2023-10-24 15:33:38.140739
3240  2023-10-24 15:33:38.172653
3241  2023-10-24 15:33:38.204569
3242  2023-10-24 15:33:38.236483
3243  2023-10-24 15:33:38.269395
3244  2023-10-24 15:33:38.300320
3245  2023-10-24 15:33:38.349181
3246  2023-10-24 15:33:38.381096
3247  2023-10-24 15:33:38.413049
3248  2023-10-24 15:33:38.444925
3249  2023-10-24 15:33:38.476843
3250  2023-10-24 15:33:38.508755
3251  2023-10-24 15:33:38.540703
3252  2023-10-24 15:33:38.572648
3253  2023-10-24 15:33:38.604559
3254  2023-10-24 15:33:38.636474
3255  2023-10-24 15:33:38.669386
3256  2023-10-24 15:33:38.701305
3257  2023-10-24 15:33:38.749173
3258  2023-10-24 15:33:38.781087
3259  2023-10-24 15:33:38.813002
3260  2023-10-24 15:33:38.844917
3261  2023-10-24 15:33:38.876831
3262  2023-10-24 15:33:38.908746
3263  2023-10-24 15:33:38.940661
3264  2023-10-24 15:33:38.972575
3265  2023-10-24 15:33:39.004554
3266  2023-10-24 15:33:39.036563
3267  2023-10-24 15:33:39.068502
3268  2023-10-24 15:33:39.101415
3269  2023-10-24 15:33:39.149286
3270  2023-10-24 15:33:39.181201
3271  2023-10-24 15:33:39.213143
3272  2023-10-24 15:33:39.245030
3273  2023-10-24 15:33:39.276945
3274  2023-10-24 15:33:39.308860
3275  2023-10-24 15:33:39.340808
3276  2023-10-24 15:33:39.372721
3277  2023-10-24 15:33:39.404604
3278  2023-10-24 15:33:39.436530
3279  2023-10-24 15:33:39.469430
3280  2023-10-24 15:33:39.501345
3281  2023-10-24 15:33:39.549217
3282  2023-10-24 15:33:39.581132
3283  2023-10-24 15:33:39.613093
3284  2023-10-24 15:33:39.644961
3285  2023-10-24 15:33:39.676876
3286  2023-10-24 15:33:39.708790
3287  2023-10-24 15:33:39.740738
3288  2023-10-24 15:33:39.772620
3289  2023-10-24 15:33:39.804534
3290  2023-10-24 15:33:39.836449
3291  2023-10-24 15:33:39.870359
3292  2023-10-24 15:33:39.901276
3293  2023-10-24 15:33:39.948462
3294  2023-10-24 15:33:39.981319
3295  2023-10-24 15:33:40.013233
3296  2023-10-24 15:33:40.045148
3297  2023-10-24 15:33:40.077097
3298  2023-10-24 15:33:40.108977
3299  2023-10-24 15:33:40.140892
3300  2023-10-24 15:33:40.172807
3301  2023-10-24 15:33:40.204748
3302  2023-10-24 15:33:40.236636
3303  2023-10-24 15:33:40.269548
3304  2023-10-24 15:33:40.300466
3305  2023-10-24 15:33:40.349335
3306  2023-10-24 15:33:40.381249
3307  2023-10-24 15:33:40.412215
3308  2023-10-24 15:33:40.445079
3309  2023-10-24 15:33:40.476993
3310  2023-10-24 15:33:40.508908
3311  2023-10-24 15:33:40.540848
3312  2023-10-24 15:33:40.572738
3313  2023-10-24 15:33:40.604652
3314  2023-10-24 15:33:40.636567
3315  2023-10-24 15:33:40.669479
3316  2023-10-24 15:33:40.701394
3317  2023-10-24 15:33:40.749266
3318  2023-10-24 15:33:40.781180
3319  2023-10-24 15:33:40.813095
3320  2023-10-24 15:33:40.845009
3321  2023-10-24 15:33:40.876924
3322  2023-10-24 15:33:40.908854
3323  2023-10-24 15:33:40.940754
3324  2023-10-24 15:33:40.972668
3325  2023-10-24 15:33:41.004583
3326  2023-10-24 15:33:41.036497
3327  2023-10-24 15:33:41.069410
3328  2023-10-24 15:33:41.101325
3329  2023-10-24 15:33:41.148354
3330  2023-10-24 15:33:41.180269
3331  2023-10-24 15:33:41.213181
3332  2023-10-24 15:33:41.245095
3333  2023-10-24 15:33:41.277010
3334  2023-10-24 15:33:41.308925
3335  2023-10-24 15:33:41.340840
3336  2023-10-24 15:33:41.373752
3337  2023-10-24 15:33:41.405719
3338  2023-10-24 15:33:41.436718
3339  2023-10-24 15:33:41.469631
3340  2023-10-24 15:33:41.501530
3341  2023-10-24 15:33:41.548546
3342  2023-10-24 15:33:41.581459
3343  2023-10-24 15:33:41.613373
3344  2023-10-24 15:33:41.645231
3345  2023-10-24 15:33:41.677175
3346  2023-10-24 15:33:41.709092
3347  2023-10-24 15:33:41.741035
3348  2023-10-24 15:33:41.772919
3349  2023-10-24 15:33:41.804834
3350  2023-10-24 15:33:41.836774
3351  2023-10-24 15:33:41.869737
3352  2023-10-24 15:33:41.900578
3353  2023-10-24 15:33:41.948481
3354  2023-10-24 15:33:41.982406
3355  2023-10-24 15:33:42.013285
3356  2023-10-24 15:33:42.045242
3357  2023-10-24 15:33:42.078133
3358  2023-10-24 15:33:42.110050
3359  2023-10-24 15:33:42.141968
3360  2023-10-24 15:33:42.173881
3361  2023-10-24 15:33:42.205762
3362  2023-10-24 15:33:42.237731
3363  2023-10-24 15:33:42.270634
3364  2023-10-24 15:33:42.302553
3365  2023-10-24 15:33:42.348381
3366  2023-10-24 15:33:42.382324
3367  2023-10-24 15:33:42.414252
3368  2023-10-24 15:33:42.446226
3369  2023-10-24 15:33:42.478147
3370  2023-10-24 15:33:42.510122
3371  2023-10-24 15:33:42.542239
3372  2023-10-24 15:33:42.574143
3373  2023-10-24 15:33:42.606058
3374  2023-10-24 15:33:42.637975
3375  2023-10-24 15:33:42.669890
3376  2023-10-24 15:33:42.701805
3377  2023-10-24 15:33:42.749675
3378  2023-10-24 15:33:42.781599
3379  2023-10-24 15:33:42.814495
3380  2023-10-24 15:33:42.845421
3381  2023-10-24 15:33:42.877335
3382  2023-10-24 15:33:42.910260
3383  2023-10-24 15:33:42.941190
3384  2023-10-24 15:33:42.973078
3385  2023-10-24 15:33:43.005015
3386  2023-10-24 15:33:43.037917
3387  2023-10-24 15:33:43.069828
3388  2023-10-24 15:33:43.101744
3389  2023-10-24 15:33:43.149605
3390  2023-10-24 15:33:43.181524
3391  2023-10-24 15:33:43.213439
3392  2023-10-24 15:33:43.245349
3393  2023-10-24 15:33:43.277271
3394  2023-10-24 15:33:43.309185
3395  2023-10-24 15:33:43.341098
3396  2023-10-24 15:33:43.373017
3397  2023-10-24 15:33:43.404941
3398  2023-10-24 15:33:43.436842
3399  2023-10-24 15:33:43.468755
3400  2023-10-24 15:33:43.500726
3401  2023-10-24 15:33:43.548581
3402  2023-10-24 15:33:43.580549
3403  2023-10-24 15:33:43.612457
3404  2023-10-24 15:33:43.645370
3405  2023-10-24 15:33:43.677252
3406  2023-10-24 15:33:43.709220
3407  2023-10-24 15:33:43.741125
3408  2023-10-24 15:33:43.773028
3409  2023-10-24 15:33:43.804948
3410  2023-10-24 15:33:43.836867
3411  2023-10-24 15:33:43.868769
3412  2023-10-24 15:33:43.902680
3413  2023-10-24 15:33:43.948568
3414  2023-10-24 15:33:43.980478
3415  2023-10-24 15:33:44.013362
3416  2023-10-24 15:33:44.045268
3417  2023-10-24 15:33:44.077185
3418  2023-10-24 15:33:44.109129
3419  2023-10-24 15:33:44.142040
3420  2023-10-24 15:33:44.174988
3421  2023-10-24 15:33:44.204877
3422  2023-10-24 15:33:44.236789
3423  2023-10-24 15:33:44.269670
3424  2023-10-24 15:33:44.301586
3425  2023-10-24 15:33:44.348504
3426  2023-10-24 15:33:44.382399
3427  2023-10-24 15:33:44.414326
3428  2023-10-24 15:33:44.446231
3429  2023-10-24 15:33:44.477114
3430  2023-10-24 15:33:44.509075
3431  2023-10-24 15:33:44.541972
3432  2023-10-24 15:33:44.574852
3433  2023-10-24 15:33:44.605801
3434  2023-10-24 15:33:44.636687
3435  2023-10-24 15:33:44.668603
3436  2023-10-24 15:33:44.702585
3437  2023-10-24 15:33:44.749388
3438  2023-10-24 15:33:44.782326
3439  2023-10-24 15:33:44.813257
3440  2023-10-24 15:33:44.845161
3441  2023-10-24 15:33:44.877075
3442  2023-10-24 15:33:44.908999
3443  2023-10-24 15:33:44.941904
3444  2023-10-24 15:33:44.973818
3445  2023-10-24 15:33:45.005702
3446  2023-10-24 15:33:45.036619
3447  2023-10-24 15:33:45.068575
3448  2023-10-24 15:33:45.101445
3449  2023-10-24 15:33:45.149370
3450  2023-10-24 15:33:45.181323
3451  2023-10-24 15:33:45.213281
3452  2023-10-24 15:33:45.245251
3453  2023-10-24 15:33:45.277177
3454  2023-10-24 15:33:45.309138
3455  2023-10-24 15:33:45.340941
3456  2023-10-24 15:33:45.372809
3457  2023-10-24 15:33:45.405836
3458  2023-10-24 15:33:45.436937
3459  2023-10-24 15:33:45.468819
3460  2023-10-24 15:33:45.501769
3461  2023-10-24 15:33:45.548642
3462  2023-10-24 15:33:45.581555
3463  2023-10-24 15:33:45.612468
3464  2023-10-24 15:33:45.645379
3465  2023-10-24 15:33:45.676298
3466  2023-10-24 15:33:45.709225
3467  2023-10-24 15:33:45.741140
3468  2023-10-24 15:33:45.773074
3469  2023-10-24 15:33:45.804959
3470  2023-10-24 15:33:45.836884
3471  2023-10-24 15:33:45.868750
3472  2023-10-24 15:33:45.900673
3473  2023-10-24 15:33:45.949543
3474  2023-10-24 15:33:45.980486
3475  2023-10-24 15:33:46.013368
3476  2023-10-24 15:33:46.045314
3477  2023-10-24 15:33:46.077236
3478  2023-10-24 15:33:46.109108
3479  2023-10-24 15:33:46.141055
3480  2023-10-24 15:33:46.172962
3481  2023-10-24 15:33:46.204970
3482  2023-10-24 15:33:46.236892
3483  2023-10-24 15:33:46.268773
3484  2023-10-24 15:33:46.300775
3485  2023-10-24 15:33:46.349591
3486  2023-10-24 15:33:46.380506
3487  2023-10-24 15:33:46.413597
3488  2023-10-24 15:33:46.445511
3489  2023-10-24 15:33:46.476410
3490  2023-10-24 15:33:46.509315
3491  2023-10-24 15:33:46.541234
3492  2023-10-24 15:33:46.573125
3493  2023-10-24 15:33:46.605034
3494  2023-10-24 15:33:46.636994
3495  2023-10-24 15:33:46.668972
3496  2023-10-24 15:33:46.701006
3497  2023-10-24 15:33:46.748862
3498  2023-10-24 15:33:46.780773
3499  2023-10-24 15:33:46.812687
3500  2023-10-24 15:33:46.844750
3501  2023-10-24 15:33:46.876637
3502  2023-10-24 15:33:46.908551
3503  2023-10-24 15:33:46.940551
3504  2023-10-24 15:33:46.972479
3505  2023-10-24 15:33:47.004380
3506  2023-10-24 15:33:47.036304
3507  2023-10-24 15:33:47.069163
3508  2023-10-24 15:33:47.101078
3509  2023-10-24 15:33:47.148989
3510  2023-10-24 15:33:47.180895
3511  2023-10-24 15:33:47.212832
3512  2023-10-24 15:33:47.244772
3513  2023-10-24 15:33:47.276642
3514  2023-10-24 15:33:47.308560
3515  2023-10-24 15:33:47.340472
3516  2023-10-24 15:33:47.372398
3517  2023-10-24 15:33:47.405267
3518  2023-10-24 15:33:47.437214
3519  2023-10-24 15:33:47.469123
3520  2023-10-24 15:33:47.501057
3521  2023-10-24 15:33:47.548898
3522  2023-10-24 15:33:47.580844
3523  2023-10-24 15:33:47.612792
3524  2023-10-24 15:33:47.644657
3525  2023-10-24 15:33:47.676628
3526  2023-10-24 15:33:47.708567
3527  2023-10-24 15:33:47.740577
3528  2023-10-24 15:33:47.772490
3529  2023-10-24 15:33:47.805380
3530  2023-10-24 15:33:47.837283
3531  2023-10-24 15:33:47.869198
3532  2023-10-24 15:33:47.901112
3533  2023-10-24 15:33:47.949036
3534  2023-10-24 15:33:47.980925
3535  2023-10-24 15:33:48.012814
3536  2023-10-24 15:33:48.044759
3537  2023-10-24 15:33:48.077642
3538  2023-10-24 15:33:48.108593
3539  2023-10-24 15:33:48.140473
3540  2023-10-24 15:33:48.172426
3541  2023-10-24 15:33:48.205300
3542  2023-10-24 15:33:48.237229
3543  2023-10-24 15:33:48.269169
3544  2023-10-24 15:33:48.301084
3545  2023-10-24 15:33:48.349063
3546  2023-10-24 15:33:48.380952
3547  2023-10-24 15:33:48.412867
3548  2023-10-24 15:33:48.444809
3549  2023-10-24 15:33:48.476735
3550  2023-10-24 15:33:48.508618
3551  2023-10-24 15:33:48.540531
3552  2023-10-24 15:33:48.572437
3553  2023-10-24 15:33:48.605323
3554  2023-10-24 15:33:48.637291
3555  2023-10-24 15:33:48.669205
3556  2023-10-24 15:33:48.701098
3557  2023-10-24 15:33:48.748970
3558  2023-10-24 15:33:48.780884
3559  2023-10-24 15:33:48.812802
3560  2023-10-24 15:33:48.844715
3561  2023-10-24 15:33:48.876629
