
1  2023-11-09 10:18:26.801723
2  2023-11-09 10:18:26.833668
3  2023-11-09 10:18:26.865532
4  2023-11-09 10:18:26.898409
5  2023-11-09 10:18:26.930322
6  2023-11-09 10:18:26.962271
7  2023-11-09 10:18:26.994185
8  2023-11-09 10:18:27.042054
9  2023-11-09 10:18:27.073970
10  2023-11-09 10:18:27.105886
11  2023-11-09 10:18:27.137767
12  2023-11-09 10:18:27.169782
13  2023-11-09 10:18:27.201687
14  2023-11-09 10:18:27.233685
15  2023-11-09 10:18:27.265613
16  2023-11-09 10:18:27.298493
17  2023-11-09 10:18:27.330407
18  2023-11-09 10:18:27.362333
19  2023-11-09 10:18:27.394237
20  2023-11-09 10:18:27.442109
21  2023-11-09 10:18:27.474024
22  2023-11-09 10:18:27.505939
23  2023-11-09 10:18:27.537853
24  2023-11-09 10:18:27.569783
25  2023-11-09 10:18:27.601723
26  2023-11-09 10:18:27.633638
27  2023-11-09 10:18:27.666550
28  2023-11-09 10:18:27.698465
29  2023-11-09 10:18:27.730383
30  2023-11-09 10:18:27.762295
31  2023-11-09 10:18:27.794269
32  2023-11-09 10:18:27.842081
33  2023-11-09 10:18:27.873996
34  2023-11-09 10:18:27.905911
35  2023-11-09 10:18:27.937825
36  2023-11-09 10:18:27.969739
37  2023-11-09 10:18:28.001713
38  2023-11-09 10:18:28.033677
39  2023-11-09 10:18:28.066586
40  2023-11-09 10:18:28.097501
41  2023-11-09 10:18:28.129470
42  2023-11-09 10:18:28.161522
43  2023-11-09 10:18:28.194513
44  2023-11-09 10:18:28.242386
45  2023-11-09 10:18:28.274338
46  2023-11-09 10:18:28.306489
47  2023-11-09 10:18:28.338391
48  2023-11-09 10:18:28.370307
49  2023-11-09 10:18:28.401356
50  2023-11-09 10:18:28.434228
51  2023-11-09 10:18:28.466144
52  2023-11-09 10:18:28.498201
53  2023-11-09 10:18:28.530116
54  2023-11-09 10:18:28.562024
55  2023-11-09 10:18:28.593906
56  2023-11-09 10:18:28.641778
57  2023-11-09 10:18:28.673694
58  2023-11-09 10:18:28.705653
59  2023-11-09 10:18:28.737522
60  2023-11-09 10:18:28.769438
61  2023-11-09 10:18:28.802349
62  2023-11-09 10:18:28.834263
63  2023-11-09 10:18:28.866230
64  2023-11-09 10:18:28.898210
65  2023-11-09 10:18:28.930238
66  2023-11-09 10:18:28.962232
67  2023-11-09 10:18:28.994114
68  2023-11-09 10:18:29.041986
69  2023-11-09 10:18:29.073931
70  2023-11-09 10:18:29.105842
71  2023-11-09 10:18:29.137730
72  2023-11-09 10:18:29.169644
73  2023-11-09 10:18:29.201559
74  2023-11-09 10:18:29.233474
75  2023-11-09 10:18:29.265389
76  2023-11-09 10:18:29.298302
77  2023-11-09 10:18:29.330215
78  2023-11-09 10:18:29.362131
79  2023-11-09 10:18:29.394045
80  2023-11-09 10:18:29.441266
81  2023-11-09 10:18:29.474178
82  2023-11-09 10:18:29.506128
83  2023-11-09 10:18:29.538110
84  2023-11-09 10:18:29.569991
85  2023-11-09 10:18:29.601906
86  2023-11-09 10:18:29.633820
87  2023-11-09 10:18:29.665734
88  2023-11-09 10:18:29.697674
89  2023-11-09 10:18:29.729590
90  2023-11-09 10:18:29.762501
91  2023-11-09 10:18:29.793418
92  2023-11-09 10:18:29.842289
93  2023-11-09 10:18:29.874235
94  2023-11-09 10:18:29.906154
95  2023-11-09 10:18:29.938084
96  2023-11-09 10:18:29.969976
97  2023-11-09 10:18:30.001861
98  2023-11-09 10:18:30.033776
99  2023-11-09 10:18:30.066186
100  2023-11-09 10:18:30.098101
101  2023-11-09 10:18:30.129929
102  2023-11-09 10:18:30.161891
103  2023-11-09 10:18:30.193808
104  2023-11-09 10:18:30.241716
105  2023-11-09 10:18:30.273656
106  2023-11-09 10:18:30.305507
107  2023-11-09 10:18:30.337465
108  2023-11-09 10:18:30.369337
109  2023-11-09 10:18:30.402278
110  2023-11-09 10:18:30.434198
111  2023-11-09 10:18:30.466078
112  2023-11-09 10:18:30.497993
113  2023-11-09 10:18:30.529950
114  2023-11-09 10:18:30.561858
115  2023-11-09 10:18:30.593737
116  2023-11-09 10:18:30.641609
117  2023-11-09 10:18:30.673524
118  2023-11-09 10:18:30.705483
119  2023-11-09 10:18:30.737389
120  2023-11-09 10:18:30.769399
121  2023-11-09 10:18:30.802311
122  2023-11-09 10:18:30.834277
123  2023-11-09 10:18:30.866172
124  2023-11-09 10:18:30.898055
125  2023-11-09 10:18:30.929969
126  2023-11-09 10:18:30.961929
127  2023-11-09 10:18:30.993799
128  2023-11-09 10:18:31.041671
129  2023-11-09 10:18:31.073585
130  2023-11-09 10:18:31.105500
131  2023-11-09 10:18:31.137415
132  2023-11-09 10:18:31.169339
133  2023-11-09 10:18:31.202256
134  2023-11-09 10:18:31.234156
135  2023-11-09 10:18:31.266071
136  2023-11-09 10:18:31.298071
137  2023-11-09 10:18:31.330055
138  2023-11-09 10:18:31.361937
139  2023-11-09 10:18:31.393851
140  2023-11-09 10:18:31.441749
141  2023-11-09 10:18:31.473639
142  2023-11-09 10:18:31.505553
143  2023-11-09 10:18:31.537471
144  2023-11-09 10:18:31.570420
145  2023-11-09 10:18:31.602297
146  2023-11-09 10:18:31.634209
147  2023-11-09 10:18:31.666158
148  2023-11-09 10:18:31.698097
149  2023-11-09 10:18:31.730014
150  2023-11-09 10:18:31.762048
151  2023-11-09 10:18:31.793953
152  2023-11-09 10:18:31.841800
153  2023-11-09 10:18:31.873865
154  2023-11-09 10:18:31.905992
155  2023-11-09 10:18:31.937906
156  2023-11-09 10:18:31.969854
157  2023-11-09 10:18:32.001770
158  2023-11-09 10:18:32.033701
159  2023-11-09 10:18:32.065565
160  2023-11-09 10:18:32.097480
161  2023-11-09 10:18:32.129438
162  2023-11-09 10:18:32.162344
163  2023-11-09 10:18:32.194254
164  2023-11-09 10:18:32.242125
165  2023-11-09 10:18:32.274008
166  2023-11-09 10:18:32.305922
167  2023-11-09 10:18:32.337868
168  2023-11-09 10:18:32.369511
169  2023-11-09 10:18:32.401505
170  2023-11-09 10:18:32.433380
171  2023-11-09 10:18:32.466293
172  2023-11-09 10:18:32.498240
173  2023-11-09 10:18:32.530170
174  2023-11-09 10:18:32.562063
175  2023-11-09 10:18:32.593956
176  2023-11-09 10:18:32.641914
177  2023-11-09 10:18:32.673828
178  2023-11-09 10:18:32.705742
179  2023-11-09 10:18:32.737657
180  2023-11-09 10:18:32.770600
181  2023-11-09 10:18:32.801487
182  2023-11-09 10:18:32.833401
183  2023-11-09 10:18:32.866317
184  2023-11-09 10:18:32.898261
185  2023-11-09 10:18:32.930143
186  2023-11-09 10:18:32.962106
187  2023-11-09 10:18:32.994032
188  2023-11-09 10:18:33.041962
189  2023-11-09 10:18:33.073846
190  2023-11-09 10:18:33.105697
191  2023-11-09 10:18:33.137577
192  2023-11-09 10:18:33.169496
193  2023-11-09 10:18:33.201410
194  2023-11-09 10:18:33.233505
195  2023-11-09 10:18:33.266410
196  2023-11-09 10:18:33.297340
197  2023-11-09 10:18:33.330206
198  2023-11-09 10:18:33.362148
199  2023-11-09 10:18:33.394035
200  2023-11-09 10:18:33.441941
201  2023-11-09 10:18:33.473827
202  2023-11-09 10:18:33.505770
203  2023-11-09 10:18:33.537685
204  2023-11-09 10:18:33.569599
205  2023-11-09 10:18:33.601526
206  2023-11-09 10:18:33.633396
207  2023-11-09 10:18:33.665347
208  2023-11-09 10:18:33.698223
209  2023-11-09 10:18:33.730171
210  2023-11-09 10:18:33.762088
211  2023-11-09 10:18:33.793684
212  2023-11-09 10:18:33.841674
213  2023-11-09 10:18:33.873602
214  2023-11-09 10:18:33.906496
215  2023-11-09 10:18:33.938376
216  2023-11-09 10:18:33.969334
217  2023-11-09 10:18:34.002240
218  2023-11-09 10:18:34.034120
219  2023-11-09 10:18:34.066061
220  2023-11-09 10:18:34.097949
221  2023-11-09 10:18:34.129896
222  2023-11-09 10:18:34.161817
223  2023-11-09 10:18:34.193693
224  2023-11-09 10:18:34.241621
225  2023-11-09 10:18:34.273517
226  2023-11-09 10:18:34.305394
227  2023-11-09 10:18:34.338306
228  2023-11-09 10:18:34.370297
229  2023-11-09 10:18:34.402190
230  2023-11-09 10:18:34.434092
231  2023-11-09 10:18:34.465965
232  2023-11-09 10:18:34.497880
233  2023-11-09 10:18:34.529831
234  2023-11-09 10:18:34.561742
235  2023-11-09 10:18:34.593625
236  2023-11-09 10:18:34.641535
237  2023-11-09 10:18:34.674452
238  2023-11-09 10:18:34.706356
239  2023-11-09 10:18:34.738237
240  2023-11-09 10:18:34.770187
241  2023-11-09 10:18:34.802098
242  2023-11-09 10:18:34.834012
243  2023-11-09 10:18:34.865935
244  2023-11-09 10:18:34.897847
245  2023-11-09 10:18:34.929725
246  2023-11-09 10:18:34.961686
247  2023-11-09 10:18:34.993589
248  2023-11-09 10:18:35.041461
249  2023-11-09 10:18:35.074381
250  2023-11-09 10:18:35.106296
251  2023-11-09 10:18:35.138168
252  2023-11-09 10:18:35.170116
253  2023-11-09 10:18:35.202028
254  2023-11-09 10:18:35.233945
255  2023-11-09 10:18:35.265835
256  2023-11-09 10:18:35.297784
257  2023-11-09 10:18:35.329719
258  2023-11-09 10:18:35.362601
259  2023-11-09 10:18:35.393542
260  2023-11-09 10:18:35.442357
261  2023-11-09 10:18:35.474317
262  2023-11-09 10:18:35.506184
263  2023-11-09 10:18:35.538100
264  2023-11-09 10:18:35.570052
265  2023-11-09 10:18:35.601962
266  2023-11-09 10:18:35.633875
267  2023-11-09 10:18:35.665757
268  2023-11-09 10:18:35.697705
269  2023-11-09 10:18:35.729622
270  2023-11-09 10:18:35.761537
271  2023-11-09 10:18:35.793416
272  2023-11-09 10:18:35.841318
273  2023-11-09 10:18:35.874200
274  2023-11-09 10:18:35.906147
275  2023-11-09 10:18:35.938060
276  2023-11-09 10:18:35.969977
277  2023-11-09 10:18:36.001892
278  2023-11-09 10:18:36.033825
279  2023-11-09 10:18:36.065738
280  2023-11-09 10:18:36.097642
281  2023-11-09 10:18:36.129554
282  2023-11-09 10:18:36.161477
283  2023-11-09 10:18:36.193381
284  2023-11-09 10:18:36.242266
285  2023-11-09 10:18:36.274165
286  2023-11-09 10:18:36.306046
287  2023-11-09 10:18:36.337960
288  2023-11-09 10:18:36.369907
289  2023-11-09 10:18:36.401826
290  2023-11-09 10:18:36.433738
291  2023-11-09 10:18:36.465619
292  2023-11-09 10:18:36.497534
293  2023-11-09 10:18:36.529483
294  2023-11-09 10:18:36.561363
295  2023-11-09 10:18:36.594313
296  2023-11-09 10:18:36.642181
297  2023-11-09 10:18:36.674062
298  2023-11-09 10:18:36.706009
299  2023-11-09 10:18:36.737891
300  2023-11-09 10:18:36.769814
301  2023-11-09 10:18:36.801760
302  2023-11-09 10:18:36.833669
303  2023-11-09 10:18:36.865581
304  2023-11-09 10:18:36.897510
305  2023-11-09 10:18:36.929420
306  2023-11-09 10:18:36.961332
307  2023-11-09 10:18:36.994249
308  2023-11-09 10:18:37.042087
309  2023-11-09 10:18:37.074002
310  2023-11-09 10:18:37.106056
311  2023-11-09 10:18:37.137799
312  2023-11-09 10:18:37.169722
313  2023-11-09 10:18:37.201689
314  2023-11-09 10:18:37.233735
315  2023-11-09 10:18:37.266583
316  2023-11-09 10:18:37.298497
317  2023-11-09 10:18:37.329549
318  2023-11-09 10:18:37.362511
319  2023-11-09 10:18:37.394378
320  2023-11-09 10:18:37.442248
321  2023-11-09 10:18:37.474205
322  2023-11-09 10:18:37.506077
323  2023-11-09 10:18:37.537992
324  2023-11-09 10:18:37.569907
325  2023-11-09 10:18:37.601851
326  2023-11-09 10:18:37.633774
327  2023-11-09 10:18:37.665699
328  2023-11-09 10:18:37.698564
329  2023-11-09 10:18:37.729485
330  2023-11-09 10:18:37.761426
331  2023-11-09 10:18:37.794321
332  2023-11-09 10:18:37.842181
333  2023-11-09 10:18:37.874095
334  2023-11-09 10:18:37.906008
335  2023-11-09 10:18:37.937923
336  2023-11-09 10:18:37.969839
337  2023-11-09 10:18:38.001754
338  2023-11-09 10:18:38.033668
339  2023-11-09 10:18:38.066604
340  2023-11-09 10:18:38.097498
341  2023-11-09 10:18:38.129411
342  2023-11-09 10:18:38.161327
343  2023-11-09 10:18:38.194239
344  2023-11-09 10:18:38.242110
345  2023-11-09 10:18:38.274059
346  2023-11-09 10:18:38.305974
347  2023-11-09 10:18:38.337891
348  2023-11-09 10:18:38.369807
349  2023-11-09 10:18:38.401722
350  2023-11-09 10:18:38.433635
351  2023-11-09 10:18:38.465578
352  2023-11-09 10:18:38.498462
353  2023-11-09 10:18:38.530421
354  2023-11-09 10:18:38.562298
355  2023-11-09 10:18:38.594211
356  2023-11-09 10:18:38.642083
357  2023-11-09 10:18:38.673998
358  2023-11-09 10:18:38.705913
359  2023-11-09 10:18:38.737827
360  2023-11-09 10:18:38.770250
361  2023-11-09 10:18:38.802164
362  2023-11-09 10:18:38.834079
363  2023-11-09 10:18:38.865722
364  2023-11-09 10:18:38.897654
365  2023-11-09 10:18:38.929624
366  2023-11-09 10:18:38.972512
367  2023-11-09 10:18:38.993484
368  2023-11-09 10:18:39.042323
369  2023-11-09 10:18:39.074238
370  2023-11-09 10:18:39.106152
371  2023-11-09 10:18:39.138067
372  2023-11-09 10:18:39.169626
373  2023-11-09 10:18:39.201629
374  2023-11-09 10:18:39.233543
375  2023-11-09 10:18:39.265494
376  2023-11-09 10:18:39.298370
377  2023-11-09 10:18:39.330285
378  2023-11-09 10:18:39.362179
379  2023-11-09 10:18:39.394127
380  2023-11-09 10:18:39.441965
381  2023-11-09 10:18:39.473878
382  2023-11-09 10:18:39.505625
383  2023-11-09 10:18:39.537539
384  2023-11-09 10:18:39.569958
385  2023-11-09 10:18:39.601873
386  2023-11-09 10:18:39.633787
387  2023-11-09 10:18:39.665734
388  2023-11-09 10:18:39.697683
389  2023-11-09 10:18:39.729563
390  2023-11-09 10:18:39.762061
391  2023-11-09 10:18:39.793925
392  2023-11-09 10:18:39.841756
393  2023-11-09 10:18:39.873711
394  2023-11-09 10:18:39.905665
395  2023-11-09 10:18:39.937540
396  2023-11-09 10:18:39.969454
397  2023-11-09 10:18:40.001873
398  2023-11-09 10:18:40.033788
399  2023-11-09 10:18:40.065703
400  2023-11-09 10:18:40.097540
401  2023-11-09 10:18:40.130452
402  2023-11-09 10:18:40.161369
403  2023-11-09 10:18:40.193857
404  2023-11-09 10:18:40.241729
405  2023-11-09 10:18:40.274185
406  2023-11-09 10:18:40.306099
407  2023-11-09 10:18:40.338013
408  2023-11-09 10:18:40.369928
409  2023-11-09 10:18:40.402097
410  2023-11-09 10:18:40.434128
411  2023-11-09 10:18:40.465396
412  2023-11-09 10:18:40.498294
413  2023-11-09 10:18:40.530286
414  2023-11-09 10:18:40.562169
415  2023-11-09 10:18:40.594081
416  2023-11-09 10:18:40.641953
417  2023-11-09 10:18:40.673867
418  2023-11-09 10:18:40.705782
419  2023-11-09 10:18:40.737731
420  2023-11-09 10:18:40.769613
421  2023-11-09 10:18:40.802065
422  2023-11-09 10:18:40.833979
423  2023-11-09 10:18:40.865939
424  2023-11-09 10:18:40.897442
425  2023-11-09 10:18:40.930307
426  2023-11-09 10:18:40.962217
427  2023-11-09 10:18:40.994176
428  2023-11-09 10:18:41.042004
429  2023-11-09 10:18:41.073961
430  2023-11-09 10:18:41.105833
431  2023-11-09 10:18:41.137998
432  2023-11-09 10:18:41.169881
433  2023-11-09 10:18:41.201844
434  2023-11-09 10:18:41.233759
435  2023-11-09 10:18:41.265673
436  2023-11-09 10:18:41.297588
437  2023-11-09 10:18:41.329503
438  2023-11-09 10:18:41.362415
439  2023-11-09 10:18:41.393332
440  2023-11-09 10:18:41.442202
441  2023-11-09 10:18:41.474116
442  2023-11-09 10:18:41.506036
443  2023-11-09 10:18:41.537951
444  2023-11-09 10:18:41.569866
445  2023-11-09 10:18:41.602284
446  2023-11-09 10:18:41.634198
447  2023-11-09 10:18:41.666113
448  2023-11-09 10:18:41.698028
449  2023-11-09 10:18:41.730004
450  2023-11-09 10:18:41.761857
451  2023-11-09 10:18:41.793771
452  2023-11-09 10:18:41.841653
453  2023-11-09 10:18:41.873568
454  2023-11-09 10:18:41.905527
455  2023-11-09 10:18:41.938304
456  2023-11-09 10:18:41.970173
457  2023-11-09 10:18:42.002088
458  2023-11-09 10:18:42.034097
459  2023-11-09 10:18:42.065965
460  2023-11-09 10:18:42.097923
461  2023-11-09 10:18:42.129837
462  2023-11-09 10:18:42.162154
463  2023-11-09 10:18:42.194011
464  2023-11-09 10:18:42.241930
465  2023-11-09 10:18:42.273947
466  2023-11-09 10:18:42.305861
467  2023-11-09 10:18:42.337784
468  2023-11-09 10:18:42.369737
469  2023-11-09 10:18:42.401606
470  2023-11-09 10:18:42.433520
471  2023-11-09 10:18:42.465442
472  2023-11-09 10:18:42.497381
473  2023-11-09 10:18:42.530262
474  2023-11-09 10:18:42.562176
475  2023-11-09 10:18:42.594091
476  2023-11-09 10:18:42.641963
477  2023-11-09 10:18:42.673877
478  2023-11-09 10:18:42.705808
479  2023-11-09 10:18:42.737707
480  2023-11-09 10:18:42.769621
481  2023-11-09 10:18:42.801575
482  2023-11-09 10:18:42.833528
483  2023-11-09 10:18:42.865477
484  2023-11-09 10:18:42.897358
485  2023-11-09 10:18:42.930269
486  2023-11-09 10:18:42.962184
487  2023-11-09 10:18:42.994099
488  2023-11-09 10:18:43.041971
489  2023-11-09 10:18:43.073885
490  2023-11-09 10:18:43.105800
491  2023-11-09 10:18:43.137715
492  2023-11-09 10:18:43.169629
493  2023-11-09 10:18:43.201544
494  2023-11-09 10:18:43.233535
495  2023-11-09 10:18:43.265471
496  2023-11-09 10:18:43.298382
497  2023-11-09 10:18:43.330297
498  2023-11-09 10:18:43.362212
499  2023-11-09 10:18:43.394126
500  2023-11-09 10:18:43.441998
501  2023-11-09 10:18:43.473913
502  2023-11-09 10:18:43.505829
503  2023-11-09 10:18:43.537742
504  2023-11-09 10:18:43.569712
505  2023-11-09 10:18:43.601629
506  2023-11-09 10:18:43.633542
507  2023-11-09 10:18:43.666454
508  2023-11-09 10:18:43.698369
509  2023-11-09 10:18:43.730283
510  2023-11-09 10:18:43.762198
511  2023-11-09 10:18:43.794112
512  2023-11-09 10:18:43.841984
513  2023-11-09 10:18:43.873899
514  2023-11-09 10:18:43.905852
515  2023-11-09 10:18:43.937905
516  2023-11-09 10:18:43.969862
517  2023-11-09 10:18:44.001776
518  2023-11-09 10:18:44.038679
519  2023-11-09 10:18:44.065643
520  2023-11-09 10:18:44.097521
521  2023-11-09 10:18:44.129439
522  2023-11-09 10:18:44.161380
523  2023-11-09 10:18:44.194262
524  2023-11-09 10:18:44.242134
525  2023-11-09 10:18:44.274048
526  2023-11-09 10:18:44.305963
527  2023-11-09 10:18:44.337878
528  2023-11-09 10:18:44.369832
529  2023-11-09 10:18:44.401707
530  2023-11-09 10:18:44.433622
531  2023-11-09 10:18:44.465536
532  2023-11-09 10:18:44.498449
533  2023-11-09 10:18:44.529372
534  2023-11-09 10:18:44.562278
535  2023-11-09 10:18:44.594192
536  2023-11-09 10:18:44.642064
537  2023-11-09 10:18:44.674085
538  2023-11-09 10:18:44.705894
539  2023-11-09 10:18:44.737808
540  2023-11-09 10:18:44.769723
541  2023-11-09 10:18:44.801638
542  2023-11-09 10:18:44.833553
543  2023-11-09 10:18:44.865561
544  2023-11-09 10:18:44.898473
545  2023-11-09 10:18:44.929441
546  2023-11-09 10:18:44.962302
547  2023-11-09 10:18:44.994217
548  2023-11-09 10:18:45.042161
549  2023-11-09 10:18:45.074109
550  2023-11-09 10:18:45.106023
551  2023-11-09 10:18:45.137905
552  2023-11-09 10:18:45.169820
553  2023-11-09 10:18:45.201771
554  2023-11-09 10:18:45.233681
555  2023-11-09 10:18:45.265564
556  2023-11-09 10:18:45.297479
557  2023-11-09 10:18:45.329394
558  2023-11-09 10:18:45.362347
559  2023-11-09 10:18:45.394220
560  2023-11-09 10:18:45.442166
561  2023-11-09 10:18:45.474007
562  2023-11-09 10:18:45.506035
563  2023-11-09 10:18:45.538017
564  2023-11-09 10:18:45.569965
565  2023-11-09 10:18:45.601847
566  2023-11-09 10:18:45.633761
567  2023-11-09 10:18:45.665676
568  2023-11-09 10:18:45.697627
569  2023-11-09 10:18:45.729505
570  2023-11-09 10:18:45.762417
571  2023-11-09 10:18:45.793335
572  2023-11-09 10:18:45.842204
573  2023-11-09 10:18:45.874119
574  2023-11-09 10:18:45.906033
575  2023-11-09 10:18:45.937948
576  2023-11-09 10:18:45.969863
577  2023-11-09 10:18:46.001778
578  2023-11-09 10:18:46.033692
579  2023-11-09 10:18:46.065616
580  2023-11-09 10:18:46.097522
581  2023-11-09 10:18:46.129437
582  2023-11-09 10:18:46.161351
583  2023-11-09 10:18:46.193268
584  2023-11-09 10:18:46.242136
585  2023-11-09 10:18:46.274050
586  2023-11-09 10:18:46.305966
587  2023-11-09 10:18:46.337880
588  2023-11-09 10:18:46.369794
589  2023-11-09 10:18:46.401709
590  2023-11-09 10:18:46.433623
591  2023-11-09 10:18:46.465538
592  2023-11-09 10:18:46.497452
593  2023-11-09 10:18:46.529368
594  2023-11-09 10:18:46.561287
595  2023-11-09 10:18:46.594194
596  2023-11-09 10:18:46.641596
597  2023-11-09 10:18:46.673506
598  2023-11-09 10:18:46.705421
599  2023-11-09 10:18:46.737370
600  2023-11-09 10:18:46.770247
601  2023-11-09 10:18:46.802162
602  2023-11-09 10:18:46.834293
603  2023-11-09 10:18:46.866255
604  2023-11-09 10:18:46.898122
605  2023-11-09 10:18:46.930037
606  2023-11-09 10:18:46.961951
607  2023-11-09 10:18:46.993902
608  2023-11-09 10:18:47.041738
609  2023-11-09 10:18:47.073702
610  2023-11-09 10:18:47.105568
611  2023-11-09 10:18:47.137985
612  2023-11-09 10:18:47.169901
613  2023-11-09 10:18:47.201816
614  2023-11-09 10:18:47.233767
615  2023-11-09 10:18:47.265645
616  2023-11-09 10:18:47.297559
617  2023-11-09 10:18:47.329505
618  2023-11-09 10:18:47.362386
619  2023-11-09 10:18:47.394301
620  2023-11-09 10:18:47.442173
621  2023-11-09 10:18:47.473599
622  2023-11-09 10:18:47.506511
623  2023-11-09 10:18:47.538429
624  2023-11-09 10:18:47.569874
625  2023-11-09 10:18:47.601788
626  2023-11-09 10:18:47.633703
627  2023-11-09 10:18:47.665442
628  2023-11-09 10:18:47.697357
629  2023-11-09 10:18:47.730268
630  2023-11-09 10:18:47.761783
631  2023-11-09 10:18:47.793697
632  2023-11-09 10:18:47.841569
633  2023-11-09 10:18:47.873518
634  2023-11-09 10:18:47.905844
635  2023-11-09 10:18:47.938099
636  2023-11-09 10:18:47.970014
637  2023-11-09 10:18:48.001929
638  2023-11-09 10:18:48.033805
639  2023-11-09 10:18:48.065751
640  2023-11-09 10:18:48.098257
641  2023-11-09 10:18:48.129760
642  2023-11-09 10:18:48.161669
643  2023-11-09 10:18:48.193614
644  2023-11-09 10:18:48.241490
645  2023-11-09 10:18:48.273406
646  2023-11-09 10:18:48.306282
647  2023-11-09 10:18:48.338282
648  2023-11-09 10:18:48.370271
649  2023-11-09 10:18:48.402188
650  2023-11-09 10:18:48.434067
651  2023-11-09 10:18:48.465508
652  2023-11-09 10:18:48.497939
653  2023-11-09 10:18:48.529890
654  2023-11-09 10:18:48.561768
655  2023-11-09 10:18:48.593683
656  2023-11-09 10:18:48.642093
657  2023-11-09 10:18:48.674008
658  2023-11-09 10:18:48.705922
659  2023-11-09 10:18:48.737837
660  2023-11-09 10:18:48.769752
661  2023-11-09 10:18:48.801786
662  2023-11-09 10:18:48.833700
663  2023-11-09 10:18:48.866181
664  2023-11-09 10:18:48.898099
665  2023-11-09 10:18:48.929584
666  2023-11-09 10:18:48.961624
667  2023-11-09 10:18:48.993697
668  2023-11-09 10:18:49.041569
669  2023-11-09 10:18:49.074481
670  2023-11-09 10:18:49.106396
671  2023-11-09 10:18:49.137313
672  2023-11-09 10:18:49.170229
673  2023-11-09 10:18:49.202140
674  2023-11-09 10:18:49.234107
675  2023-11-09 10:18:49.266061
676  2023-11-09 10:18:49.298059
677  2023-11-09 10:18:49.329923
678  2023-11-09 10:18:49.362348
679  2023-11-09 10:18:49.394287
680  2023-11-09 10:18:49.441721
681  2023-11-09 10:18:49.473768
682  2023-11-09 10:18:49.505695
683  2023-11-09 10:18:49.537586
684  2023-11-09 10:18:49.570499
685  2023-11-09 10:18:49.601480
686  2023-11-09 10:18:49.633516
687  2023-11-09 10:18:49.666429
688  2023-11-09 10:18:49.698429
689  2023-11-09 10:18:49.729345
690  2023-11-09 10:18:49.762257
691  2023-11-09 10:18:49.794072
692  2023-11-09 10:18:49.841944
693  2023-11-09 10:18:49.873859
694  2023-11-09 10:18:49.905773
695  2023-11-09 10:18:49.937688
696  2023-11-09 10:18:49.969697
697  2023-11-09 10:18:50.001609
698  2023-11-09 10:18:50.034522
699  2023-11-09 10:18:50.066442
700  2023-11-09 10:18:50.098351
701  2023-11-09 10:18:50.130265
702  2023-11-09 10:18:50.162180
703  2023-11-09 10:18:50.194095
704  2023-11-09 10:18:50.241967
705  2023-11-09 10:18:50.273881
706  2023-11-09 10:18:50.305796
707  2023-11-09 10:18:50.337711
708  2023-11-09 10:18:50.369656
709  2023-11-09 10:18:50.401540
710  2023-11-09 10:18:50.434452
711  2023-11-09 10:18:50.466367
712  2023-11-09 10:18:50.498323
713  2023-11-09 10:18:50.530197
714  2023-11-09 10:18:50.562111
715  2023-11-09 10:18:50.594025
716  2023-11-09 10:18:50.641898
717  2023-11-09 10:18:50.674848
718  2023-11-09 10:18:50.706726
719  2023-11-09 10:18:50.738676
720  2023-11-09 10:18:50.770555
721  2023-11-09 10:18:50.802469
722  2023-11-09 10:18:50.834431
723  2023-11-09 10:18:50.866389
724  2023-11-09 10:18:50.898300
725  2023-11-09 10:18:50.930214
726  2023-11-09 10:18:50.962130
727  2023-11-09 10:18:50.994044
728  2023-11-09 10:18:51.041916
729  2023-11-09 10:18:51.073865
730  2023-11-09 10:18:51.105782
731  2023-11-09 10:18:51.137660
732  2023-11-09 10:18:51.169574
733  2023-11-09 10:18:51.201525
734  2023-11-09 10:18:51.234442
735  2023-11-09 10:18:51.266377
736  2023-11-09 10:18:51.298268
737  2023-11-09 10:18:51.330146
738  2023-11-09 10:18:51.362098
739  2023-11-09 10:18:51.393975
740  2023-11-09 10:18:51.441894
741  2023-11-09 10:18:51.473761
742  2023-11-09 10:18:51.505676
743  2023-11-09 10:18:51.537627
744  2023-11-09 10:18:51.569538
745  2023-11-09 10:18:51.601421
746  2023-11-09 10:18:51.634334
747  2023-11-09 10:18:51.666247
748  2023-11-09 10:18:51.698211
749  2023-11-09 10:18:51.730108
750  2023-11-09 10:18:51.762031
751  2023-11-09 10:18:51.793937
752  2023-11-09 10:18:51.841778
753  2023-11-09 10:18:51.873723
754  2023-11-09 10:18:51.905613
755  2023-11-09 10:18:51.938554
756  2023-11-09 10:18:51.970435
757  2023-11-09 10:18:52.002383
758  2023-11-09 10:18:52.034265
759  2023-11-09 10:18:52.066212
760  2023-11-09 10:18:52.098147
761  2023-11-09 10:18:52.130075
762  2023-11-09 10:18:52.161949
763  2023-11-09 10:18:52.193896
764  2023-11-09 10:18:52.241709
765  2023-11-09 10:18:52.273745
766  2023-11-09 10:18:52.306694
767  2023-11-09 10:18:52.338606
768  2023-11-09 10:18:52.370535
769  2023-11-09 10:18:52.402505
770  2023-11-09 10:18:52.434528
771  2023-11-09 10:18:52.466445
772  2023-11-09 10:18:52.498378
773  2023-11-09 10:18:52.530240
774  2023-11-09 10:18:52.562877
775  2023-11-09 10:18:52.593874
776  2023-11-09 10:18:52.641731
777  2023-11-09 10:18:52.673645
778  2023-11-09 10:18:52.706594
779  2023-11-09 10:18:52.738472
780  2023-11-09 10:18:52.770390
781  2023-11-09 10:18:52.802316
782  2023-11-09 10:18:52.834266
783  2023-11-09 10:18:52.866186
784  2023-11-09 10:18:52.898081
785  2023-11-09 10:18:52.929961
786  2023-11-09 10:18:52.961875
787  2023-11-09 10:18:52.993852
788  2023-11-09 10:18:53.041693
789  2023-11-09 10:18:53.073701
790  2023-11-09 10:18:53.105670
791  2023-11-09 10:18:53.137519
792  2023-11-09 10:18:53.169499
793  2023-11-09 10:18:53.202443
794  2023-11-09 10:18:53.233334
795  2023-11-09 10:18:53.266242
796  2023-11-09 10:18:53.298156
797  2023-11-09 10:18:53.330128
798  2023-11-09 10:18:53.362017
799  2023-11-09 10:18:53.393935
800  2023-11-09 10:18:53.441771
801  2023-11-09 10:18:53.473688
802  2023-11-09 10:18:53.505602
803  2023-11-09 10:18:53.537550
804  2023-11-09 10:18:53.570438
805  2023-11-09 10:18:53.603340
806  2023-11-09 10:18:53.634258
807  2023-11-09 10:18:53.666174
808  2023-11-09 10:18:53.698088
809  2023-11-09 10:18:53.730002
810  2023-11-09 10:18:53.761916
811  2023-11-09 10:18:53.793837
812  2023-11-09 10:18:53.841703
813  2023-11-09 10:18:53.873618
814  2023-11-09 10:18:53.905533
815  2023-11-09 10:18:53.938003
816  2023-11-09 10:18:53.969916
817  2023-11-09 10:18:54.001834
818  2023-11-09 10:18:54.033753
819  2023-11-09 10:18:54.065658
820  2023-11-09 10:18:54.097580
821  2023-11-09 10:18:54.129455
822  2023-11-09 10:18:54.161372
823  2023-11-09 10:18:54.194313
824  2023-11-09 10:18:54.242202
825  2023-11-09 10:18:54.274100
826  2023-11-09 10:18:54.306018
827  2023-11-09 10:18:54.337930
828  2023-11-09 10:18:54.369854
829  2023-11-09 10:18:54.401769
830  2023-11-09 10:18:54.433698
831  2023-11-09 10:18:54.465591
832  2023-11-09 10:18:54.497520
833  2023-11-09 10:18:54.530430
834  2023-11-09 10:18:54.562349
835  2023-11-09 10:18:54.594254
836  2023-11-09 10:18:54.641625
837  2023-11-09 10:18:54.673505
838  2023-11-09 10:18:54.705450
839  2023-11-09 10:18:54.737867
840  2023-11-09 10:18:54.769785
841  2023-11-09 10:18:54.801700
842  2023-11-09 10:18:54.833620
843  2023-11-09 10:18:54.865530
844  2023-11-09 10:18:54.897419
845  2023-11-09 10:18:54.929363
846  2023-11-09 10:18:54.962326
847  2023-11-09 10:18:54.994221
848  2023-11-09 10:18:55.042204
849  2023-11-09 10:18:55.074122
850  2023-11-09 10:18:55.106115
851  2023-11-09 10:18:55.137626
852  2023-11-09 10:18:55.169403
853  2023-11-09 10:18:55.202330
854  2023-11-09 10:18:55.234267
855  2023-11-09 10:18:55.266145
856  2023-11-09 10:18:55.298062
857  2023-11-09 10:18:55.329526
858  2023-11-09 10:18:55.362447
859  2023-11-09 10:18:55.394359
860  2023-11-09 10:18:55.442228
861  2023-11-09 10:18:55.474143
862  2023-11-09 10:18:55.506055
863  2023-11-09 10:18:55.537973
864  2023-11-09 10:18:55.569946
865  2023-11-09 10:18:55.601859
866  2023-11-09 10:18:55.633775
867  2023-11-09 10:18:55.665687
868  2023-11-09 10:18:55.697670
869  2023-11-09 10:18:55.729601
870  2023-11-09 10:18:55.762466
871  2023-11-09 10:18:55.793381
872  2023-11-09 10:18:55.842254
873  2023-11-09 10:18:55.874165
874  2023-11-09 10:18:55.906117
875  2023-11-09 10:18:55.938027
876  2023-11-09 10:18:55.969947
877  2023-11-09 10:18:56.001860
878  2023-11-09 10:18:56.033770
879  2023-11-09 10:18:56.065705
880  2023-11-09 10:18:56.097598
881  2023-11-09 10:18:56.129519
882  2023-11-09 10:18:56.162428
883  2023-11-09 10:18:56.193351
884  2023-11-09 10:18:56.242215
885  2023-11-09 10:18:56.274129
886  2023-11-09 10:18:56.306011
887  2023-11-09 10:18:56.337927
888  2023-11-09 10:18:56.369875
889  2023-11-09 10:18:56.401796
890  2023-11-09 10:18:56.433725
891  2023-11-09 10:18:56.465620
892  2023-11-09 10:18:56.497537
893  2023-11-09 10:18:56.530456
894  2023-11-09 10:18:56.562328
895  2023-11-09 10:18:56.594272
896  2023-11-09 10:18:56.642145
897  2023-11-09 10:18:56.674027
898  2023-11-09 10:18:56.705986
899  2023-11-09 10:18:56.737888
900  2023-11-09 10:18:56.769773
901  2023-11-09 10:18:56.801691
902  2023-11-09 10:18:56.833634
903  2023-11-09 10:18:56.865516
904  2023-11-09 10:18:56.897463
905  2023-11-09 10:18:56.929385
906  2023-11-09 10:18:56.962291
907  2023-11-09 10:18:56.994203
908  2023-11-09 10:18:57.042076
909  2023-11-09 10:18:57.073960
910  2023-11-09 10:18:57.105875
911  2023-11-09 10:18:57.137830
912  2023-11-09 10:18:57.169734
913  2023-11-09 10:18:57.201652
914  2023-11-09 10:18:57.233533
915  2023-11-09 10:18:57.265483
916  2023-11-09 10:18:57.297394
917  2023-11-09 10:18:57.330322
918  2023-11-09 10:18:57.362191
919  2023-11-09 10:18:57.394136
920  2023-11-09 10:18:57.442012
921  2023-11-09 10:18:57.473921
922  2023-11-09 10:18:57.505847
923  2023-11-09 10:18:57.537749
924  2023-11-09 10:18:57.569677
925  2023-11-09 10:18:57.601583
926  2023-11-09 10:18:57.633811
927  2023-11-09 10:18:57.665823
928  2023-11-09 10:18:57.697724
929  2023-11-09 10:18:57.729644
930  2023-11-09 10:18:57.761578
931  2023-11-09 10:18:57.793470
932  2023-11-09 10:18:57.842342
933  2023-11-09 10:18:57.874220
934  2023-11-09 10:18:57.906172
935  2023-11-09 10:18:57.938084
936  2023-11-09 10:18:57.969996
937  2023-11-09 10:18:58.001910
938  2023-11-09 10:18:58.033832
939  2023-11-09 10:18:58.065740
940  2023-11-09 10:18:58.098656
941  2023-11-09 10:18:58.129582
942  2023-11-09 10:18:58.162488
943  2023-11-09 10:18:58.194365
944  2023-11-09 10:18:58.242269
945  2023-11-09 10:18:58.274152
946  2023-11-09 10:18:58.306098
947  2023-11-09 10:18:58.338014
948  2023-11-09 10:18:58.369928
949  2023-11-09 10:18:58.401840
950  2023-11-09 10:18:58.433757
951  2023-11-09 10:18:58.465677
952  2023-11-09 10:18:58.497589
953  2023-11-09 10:18:58.529503
954  2023-11-09 10:18:58.562416
955  2023-11-09 10:18:58.594335
956  2023-11-09 10:18:58.642198
957  2023-11-09 10:18:58.674112
958  2023-11-09 10:18:58.706029
959  2023-11-09 10:18:58.737952
960  2023-11-09 10:18:58.769826
961  2023-11-09 10:18:58.801779
962  2023-11-09 10:18:58.833692
963  2023-11-09 10:18:58.865625
964  2023-11-09 10:18:58.897507
965  2023-11-09 10:18:58.929532
966  2023-11-09 10:18:58.961462
967  2023-11-09 10:18:58.993334
968  2023-11-09 10:18:59.042201
969  2023-11-09 10:18:59.074176
970  2023-11-09 10:18:59.106031
971  2023-11-09 10:18:59.137946
972  2023-11-09 10:18:59.169860
973  2023-11-09 10:18:59.201776
974  2023-11-09 10:18:59.233691
975  2023-11-09 10:18:59.265605
976  2023-11-09 10:18:59.297520
977  2023-11-09 10:18:59.329438
978  2023-11-09 10:18:59.361350
979  2023-11-09 10:18:59.394261
980  2023-11-09 10:18:59.442132
981  2023-11-09 10:18:59.473719
982  2023-11-09 10:18:59.505619
983  2023-11-09 10:18:59.537539
984  2023-11-09 10:18:59.569453
985  2023-11-09 10:18:59.601367
986  2023-11-09 10:18:59.634298
987  2023-11-09 10:18:59.666195
988  2023-11-09 10:18:59.698108
989  2023-11-09 10:18:59.730025
990  2023-11-09 10:18:59.761936
991  2023-11-09 10:18:59.793851
992  2023-11-09 10:18:59.842231
993  2023-11-09 10:18:59.874146
994  2023-11-09 10:18:59.906026
995  2023-11-09 10:18:59.938007
996  2023-11-09 10:18:59.969933
997  2023-11-09 10:19:00.001807
998  2023-11-09 10:19:00.033762
999  2023-11-09 10:19:00.066669
1000  2023-11-09 10:19:00.098548
1001  2023-11-09 10:19:00.129536
1002  2023-11-09 10:19:00.161447
1003  2023-11-09 10:19:00.194359
1004  2023-11-09 10:19:00.242248
1005  2023-11-09 10:19:00.274148
1006  2023-11-09 10:19:00.306063
1007  2023-11-09 10:19:00.337976
1008  2023-11-09 10:19:00.370241
1009  2023-11-09 10:19:00.402629
1010  2023-11-09 10:19:00.434160
1011  2023-11-09 10:19:00.466071
1012  2023-11-09 10:19:00.497984
1013  2023-11-09 10:19:00.529918
1014  2023-11-09 10:19:00.561819
1015  2023-11-09 10:19:00.593730
1016  2023-11-09 10:19:00.641605
1017  2023-11-09 10:19:00.674242
1018  2023-11-09 10:19:00.706151
1019  2023-11-09 10:19:00.738172
1020  2023-11-09 10:19:00.769679
1021  2023-11-09 10:19:00.801872
1022  2023-11-09 10:19:00.833792
1023  2023-11-09 10:19:00.865714
1024  2023-11-09 10:19:00.897571
1025  2023-11-09 10:19:00.929530
1026  2023-11-09 10:19:00.962438
1027  2023-11-09 10:19:00.994343
1028  2023-11-09 10:19:01.042220
1029  2023-11-09 10:19:01.074134
1030  2023-11-09 10:19:01.106046
1031  2023-11-09 10:19:01.137929
1032  2023-11-09 10:19:01.169875
1033  2023-11-09 10:19:01.201802
1034  2023-11-09 10:19:01.234701
1035  2023-11-09 10:19:01.265630
1036  2023-11-09 10:19:01.297504
1037  2023-11-09 10:19:01.329423
1038  2023-11-09 10:19:01.362400
1039  2023-11-09 10:19:01.394280
1040  2023-11-09 10:19:01.442158
1041  2023-11-09 10:19:01.474079
1042  2023-11-09 10:19:01.505977
1043  2023-11-09 10:19:01.537893
1044  2023-11-09 10:19:01.569808
1045  2023-11-09 10:19:01.601728
1046  2023-11-09 10:19:01.633649
1047  2023-11-09 10:19:01.665549
1048  2023-11-09 10:19:01.698466
1049  2023-11-09 10:19:01.729382
1050  2023-11-09 10:19:01.762301
1051  2023-11-09 10:19:01.794232
1052  2023-11-09 10:19:01.842053
1053  2023-11-09 10:19:01.874009
1054  2023-11-09 10:19:01.905913
1055  2023-11-09 10:19:01.937792
1056  2023-11-09 10:19:01.969705
1057  2023-11-09 10:19:02.002617
1058  2023-11-09 10:19:02.033572
1059  2023-11-09 10:19:02.065478
1060  2023-11-09 10:19:02.097497
1061  2023-11-09 10:19:02.130070
1062  2023-11-09 10:19:02.162015
1063  2023-11-09 10:19:02.193930
1064  2023-11-09 10:19:02.241811
1065  2023-11-09 10:19:02.273721
1066  2023-11-09 10:19:02.305639
1067  2023-11-09 10:19:02.337515
1068  2023-11-09 10:19:02.369464
1069  2023-11-09 10:19:02.402381
1070  2023-11-09 10:19:02.434257
1071  2023-11-09 10:19:02.466171
1072  2023-11-09 10:19:02.498086
1073  2023-11-09 10:19:02.530001
1074  2023-11-09 10:19:02.561915
1075  2023-11-09 10:19:02.593830
1076  2023-11-09 10:19:02.641707
1077  2023-11-09 10:19:02.673617
1078  2023-11-09 10:19:02.705536
1079  2023-11-09 10:19:02.737446
1080  2023-11-09 10:19:02.769361
1081  2023-11-09 10:19:02.802273
1082  2023-11-09 10:19:02.834187
1083  2023-11-09 10:19:02.866142
1084  2023-11-09 10:19:02.898108
1085  2023-11-09 10:19:02.929931
1086  2023-11-09 10:19:02.961882
1087  2023-11-09 10:19:02.993801
1088  2023-11-09 10:19:03.041633
1089  2023-11-09 10:19:03.073606
1090  2023-11-09 10:19:03.105501
1091  2023-11-09 10:19:03.138374
1092  2023-11-09 10:19:03.170289
1093  2023-11-09 10:19:03.202238
1094  2023-11-09 10:19:03.234169
1095  2023-11-09 10:19:03.266033
1096  2023-11-09 10:19:03.297947
1097  2023-11-09 10:19:03.329862
1098  2023-11-09 10:19:03.361817
1099  2023-11-09 10:19:03.393729
1100  2023-11-09 10:19:03.441594
1101  2023-11-09 10:19:03.473483
1102  2023-11-09 10:19:03.505429
1103  2023-11-09 10:19:03.538349
1104  2023-11-09 10:19:03.570263
1105  2023-11-09 10:19:03.602134
1106  2023-11-09 10:19:03.634188
1107  2023-11-09 10:19:03.666102
1108  2023-11-09 10:19:03.698048
1109  2023-11-09 10:19:03.729932
1110  2023-11-09 10:19:03.761846
1111  2023-11-09 10:19:03.793761
1112  2023-11-09 10:19:03.841633
1113  2023-11-09 10:19:03.873588
1114  2023-11-09 10:19:03.905497
1115  2023-11-09 10:19:03.937412
1116  2023-11-09 10:19:03.970289
1117  2023-11-09 10:19:04.002204
1118  2023-11-09 10:19:04.034119
1119  2023-11-09 10:19:04.066033
1120  2023-11-09 10:19:04.097948
1121  2023-11-09 10:19:04.129862
1122  2023-11-09 10:19:04.161750
1123  2023-11-09 10:19:04.193713
1124  2023-11-09 10:19:04.241587
1125  2023-11-09 10:19:04.273451
1126  2023-11-09 10:19:04.305413
1127  2023-11-09 10:19:04.338278
1128  2023-11-09 10:19:04.370192
1129  2023-11-09 10:19:04.402107
1130  2023-11-09 10:19:04.434022
1131  2023-11-09 10:19:04.465936
1132  2023-11-09 10:19:04.497851
1133  2023-11-09 10:19:04.529766
1134  2023-11-09 10:19:04.561719
1135  2023-11-09 10:19:04.593595
1136  2023-11-09 10:19:04.641467
1137  2023-11-09 10:19:04.673382
1138  2023-11-09 10:19:04.706294
1139  2023-11-09 10:19:04.738241
1140  2023-11-09 10:19:04.770160
1141  2023-11-09 10:19:04.802038
1142  2023-11-09 10:19:04.833952
1143  2023-11-09 10:19:04.865899
1144  2023-11-09 10:19:04.897834
1145  2023-11-09 10:19:04.929696
1146  2023-11-09 10:19:04.961611
1147  2023-11-09 10:19:04.993563
1148  2023-11-09 10:19:05.042395
1149  2023-11-09 10:19:05.074357
1150  2023-11-09 10:19:05.106276
1151  2023-11-09 10:19:05.138139
1152  2023-11-09 10:19:05.170054
1153  2023-11-09 10:19:05.202000
1154  2023-11-09 10:19:05.233919
1155  2023-11-09 10:19:05.265798
1156  2023-11-09 10:19:05.297713
1157  2023-11-09 10:19:05.329665
1158  2023-11-09 10:19:05.361579
1159  2023-11-09 10:19:05.393457
1160  2023-11-09 10:19:05.442326
1161  2023-11-09 10:19:05.474241
1162  2023-11-09 10:19:05.506155
1163  2023-11-09 10:19:05.538101
1164  2023-11-09 10:19:05.569985
1165  2023-11-09 10:19:05.601899
1166  2023-11-09 10:19:05.633814
1167  2023-11-09 10:19:05.665729
1168  2023-11-09 10:19:05.697644
1169  2023-11-09 10:19:05.729564
1170  2023-11-09 10:19:05.761597
1171  2023-11-09 10:19:05.793511
1172  2023-11-09 10:19:05.841383
1173  2023-11-09 10:19:05.874295
1174  2023-11-09 10:19:05.906210
1175  2023-11-09 10:19:05.938125
1176  2023-11-09 10:19:05.970039
1177  2023-11-09 10:19:06.001954
1178  2023-11-09 10:19:06.033869
1179  2023-11-09 10:19:06.065783
1180  2023-11-09 10:19:06.097698
1181  2023-11-09 10:19:06.129613
1182  2023-11-09 10:19:06.161528
1183  2023-11-09 10:19:06.193443
1184  2023-11-09 10:19:06.242312
1185  2023-11-09 10:19:06.274227
1186  2023-11-09 10:19:06.306147
1187  2023-11-09 10:19:06.338056
1188  2023-11-09 10:19:06.369970
1189  2023-11-09 10:19:06.401920
1190  2023-11-09 10:19:06.433817
1191  2023-11-09 10:19:06.465714
1192  2023-11-09 10:19:06.498044
1193  2023-11-09 10:19:06.529961
1194  2023-11-09 10:19:06.561920
1195  2023-11-09 10:19:06.593835
1196  2023-11-09 10:19:06.641707
1197  2023-11-09 10:19:06.673624
1198  2023-11-09 10:19:06.705536
1199  2023-11-09 10:19:06.737484
1200  2023-11-09 10:19:06.769366
1201  2023-11-09 10:19:06.802277
1202  2023-11-09 10:19:06.834192
1203  2023-11-09 10:19:06.866139
1204  2023-11-09 10:19:06.898022
1205  2023-11-09 10:19:06.929936
1206  2023-11-09 10:19:06.961851
1207  2023-11-09 10:19:06.993798
1208  2023-11-09 10:19:07.041638
1209  2023-11-09 10:19:07.073583
1210  2023-11-09 10:19:07.105536
1211  2023-11-09 10:19:07.137509
1212  2023-11-09 10:19:07.169424
1213  2023-11-09 10:19:07.202336
1214  2023-11-09 10:19:07.234250
1215  2023-11-09 10:19:07.266165
1216  2023-11-09 10:19:07.298080
1217  2023-11-09 10:19:07.329995
1218  2023-11-09 10:19:07.361909
1219  2023-11-09 10:19:07.393824
1220  2023-11-09 10:19:07.441696
1221  2023-11-09 10:19:07.473610
1222  2023-11-09 10:19:07.505525
1223  2023-11-09 10:19:07.537484
1224  2023-11-09 10:19:07.569355
1225  2023-11-09 10:19:07.602266
1226  2023-11-09 10:19:07.634181
1227  2023-11-09 10:19:07.666096
1228  2023-11-09 10:19:07.698089
1229  2023-11-09 10:19:07.730003
1230  2023-11-09 10:19:07.761918
1231  2023-11-09 10:19:07.793833
1232  2023-11-09 10:19:07.841838
1233  2023-11-09 10:19:07.873752
1234  2023-11-09 10:19:07.905718
1235  2023-11-09 10:19:07.937629
1236  2023-11-09 10:19:07.969545
1237  2023-11-09 10:19:08.002457
1238  2023-11-09 10:19:08.034406
1239  2023-11-09 10:19:08.066297
1240  2023-11-09 10:19:08.098201
1241  2023-11-09 10:19:08.130116
1242  2023-11-09 10:19:08.162030
1243  2023-11-09 10:19:08.193945
1244  2023-11-09 10:19:08.241817
1245  2023-11-09 10:19:08.273731
1246  2023-11-09 10:19:08.305646
1247  2023-11-09 10:19:08.338558
1248  2023-11-09 10:19:08.369476
1249  2023-11-09 10:19:08.401390
1250  2023-11-09 10:19:08.434354
1251  2023-11-09 10:19:08.466217
1252  2023-11-09 10:19:08.498176
1253  2023-11-09 10:19:08.530091
1254  2023-11-09 10:19:08.562060
1255  2023-11-09 10:19:08.593919
1256  2023-11-09 10:19:08.641791
1257  2023-11-09 10:19:08.673706
1258  2023-11-09 10:19:08.705621
1259  2023-11-09 10:19:08.737569
1260  2023-11-09 10:19:08.769450
1261  2023-11-09 10:19:08.801365
1262  2023-11-09 10:19:08.834277
1263  2023-11-09 10:19:08.865338
1264  2023-11-09 10:19:08.898254
1265  2023-11-09 10:19:08.930135
1266  2023-11-09 10:19:08.962049
1267  2023-11-09 10:19:08.994012
1268  2023-11-09 10:19:09.041836
1269  2023-11-09 10:19:09.073792
1270  2023-11-09 10:19:09.105665
1271  2023-11-09 10:19:09.137580
1272  2023-11-09 10:19:09.169495
1273  2023-11-09 10:19:09.201442
1274  2023-11-09 10:19:09.234322
1275  2023-11-09 10:19:09.266236
1276  2023-11-09 10:19:09.298151
1277  2023-11-09 10:19:09.330066
1278  2023-11-09 10:19:09.362019
1279  2023-11-09 10:19:09.393895
1280  2023-11-09 10:19:09.441767
1281  2023-11-09 10:19:09.473682
1282  2023-11-09 10:19:09.505596
1283  2023-11-09 10:19:09.537543
1284  2023-11-09 10:19:09.569426
1285  2023-11-09 10:19:09.601340
1286  2023-11-09 10:19:09.634370
1287  2023-11-09 10:19:09.666285
1288  2023-11-09 10:19:09.698200
1289  2023-11-09 10:19:09.730114
1290  2023-11-09 10:19:09.762029
1291  2023-11-09 10:19:09.793944
1292  2023-11-09 10:19:09.841816
1293  2023-11-09 10:19:09.873730
1294  2023-11-09 10:19:09.905645
1295  2023-11-09 10:19:09.937560
1296  2023-11-09 10:19:09.969475
1297  2023-11-09 10:19:10.001421
1298  2023-11-09 10:19:10.034301
1299  2023-11-09 10:19:10.066216
1300  2023-11-09 10:19:10.098130
1301  2023-11-09 10:19:10.130045
1302  2023-11-09 10:19:10.161960
1303  2023-11-09 10:19:10.193874
1304  2023-11-09 10:19:10.241746
1305  2023-11-09 10:19:10.274659
1306  2023-11-09 10:19:10.305576
1307  2023-11-09 10:19:10.337491
1308  2023-11-09 10:19:10.370520
1309  2023-11-09 10:19:10.402449
1310  2023-11-09 10:19:10.434390
1311  2023-11-09 10:19:10.466305
1312  2023-11-09 10:19:10.498298
1313  2023-11-09 10:19:10.530265
1314  2023-11-09 10:19:10.562181
1315  2023-11-09 10:19:10.594094
1316  2023-11-09 10:19:10.641966
1317  2023-11-09 10:19:10.673881
1318  2023-11-09 10:19:10.705796
1319  2023-11-09 10:19:10.737746
1320  2023-11-09 10:19:10.769694
1321  2023-11-09 10:19:10.801613
1322  2023-11-09 10:19:10.833527
1323  2023-11-09 10:19:10.865480
1324  2023-11-09 10:19:10.897389
1325  2023-11-09 10:19:10.930274
1326  2023-11-09 10:19:10.962184
1327  2023-11-09 10:19:10.994130
1328  2023-11-09 10:19:11.042016
1329  2023-11-09 10:19:11.073967
1330  2023-11-09 10:19:11.105846
1331  2023-11-09 10:19:11.137760
1332  2023-11-09 10:19:11.169675
1333  2023-11-09 10:19:11.201630
1334  2023-11-09 10:19:11.233545
1335  2023-11-09 10:19:11.265419
1336  2023-11-09 10:19:11.298331
1337  2023-11-09 10:19:11.330246
1338  2023-11-09 10:19:11.362161
1339  2023-11-09 10:19:11.394075
1340  2023-11-09 10:19:11.441947
1341  2023-11-09 10:19:11.474860
1342  2023-11-09 10:19:11.505776
1343  2023-11-09 10:19:11.537691
1344  2023-11-09 10:19:11.570603
1345  2023-11-09 10:19:11.601669
1346  2023-11-09 10:19:11.634581
1347  2023-11-09 10:19:11.665592
1348  2023-11-09 10:19:11.697577
1349  2023-11-09 10:19:11.729562
1350  2023-11-09 10:19:11.761569
1351  2023-11-09 10:19:11.793484
1352  2023-11-09 10:19:11.842444
1353  2023-11-09 10:19:11.874358
1354  2023-11-09 10:19:11.906324
1355  2023-11-09 10:19:11.938221
1356  2023-11-09 10:19:11.970102
1357  2023-11-09 10:19:12.002017
1358  2023-11-09 10:19:12.033972
1359  2023-11-09 10:19:12.065886
1360  2023-11-09 10:19:12.097761
1361  2023-11-09 10:19:12.129676
1362  2023-11-09 10:19:12.161621
1363  2023-11-09 10:19:12.193536
1364  2023-11-09 10:19:12.241411
1365  2023-11-09 10:19:12.274322
1366  2023-11-09 10:19:12.306204
1367  2023-11-09 10:19:12.338118
1368  2023-11-09 10:19:12.370067
1369  2023-11-09 10:19:12.401987
1370  2023-11-09 10:19:12.433862
1371  2023-11-09 10:19:12.465777
1372  2023-11-09 10:19:12.497692
1373  2023-11-09 10:19:12.529607
1374  2023-11-09 10:19:12.561521
1375  2023-11-09 10:19:12.593436
1376  2023-11-09 10:19:12.642305
1377  2023-11-09 10:19:12.674220
1378  2023-11-09 10:19:12.706135
1379  2023-11-09 10:19:12.738081
1380  2023-11-09 10:19:12.769964
1381  2023-11-09 10:19:12.801878
1382  2023-11-09 10:19:12.833793
1383  2023-11-09 10:19:12.865769
1384  2023-11-09 10:19:12.897737
1385  2023-11-09 10:19:12.929652
1386  2023-11-09 10:19:12.961566
1387  2023-11-09 10:19:12.993481
1388  2023-11-09 10:19:13.041384
1389  2023-11-09 10:19:13.074265
1390  2023-11-09 10:19:13.106180
1391  2023-11-09 10:19:13.138094
1392  2023-11-09 10:19:13.170009
1393  2023-11-09 10:19:13.201924
1394  2023-11-09 10:19:13.233838
1395  2023-11-09 10:19:13.265753
1396  2023-11-09 10:19:13.297668
1397  2023-11-09 10:19:13.329582
1398  2023-11-09 10:19:13.361497
1399  2023-11-09 10:19:13.393412
1400  2023-11-09 10:19:13.441406
1401  2023-11-09 10:19:13.475347
1402  2023-11-09 10:19:13.506369
1403  2023-11-09 10:19:13.538283
1404  2023-11-09 10:19:13.570198
1405  2023-11-09 10:19:13.602113
1406  2023-11-09 10:19:13.634027
1407  2023-11-09 10:19:13.665942
1408  2023-11-09 10:19:13.698045
1409  2023-11-09 10:19:13.729874
1410  2023-11-09 10:19:13.761788
1411  2023-11-09 10:19:13.794750
1412  2023-11-09 10:19:13.842610
1413  2023-11-09 10:19:13.874577
1414  2023-11-09 10:19:13.906494
1415  2023-11-09 10:19:13.938450
1416  2023-11-09 10:19:13.970321
1417  2023-11-09 10:19:14.002235
1418  2023-11-09 10:19:14.034184
1419  2023-11-09 10:19:14.066067
1420  2023-11-09 10:19:14.097979
1421  2023-11-09 10:19:14.130925
1422  2023-11-09 10:19:14.162840
1423  2023-11-09 10:19:14.194751
1424  2023-11-09 10:19:14.242625
1425  2023-11-09 10:19:14.274540
1426  2023-11-09 10:19:14.306464
1427  2023-11-09 10:19:14.338460
1428  2023-11-09 10:19:14.370344
1429  2023-11-09 10:19:14.402258
1430  2023-11-09 10:19:14.434172
1431  2023-11-09 10:19:14.466087
1432  2023-11-09 10:19:14.498006
1433  2023-11-09 10:19:14.530947
1434  2023-11-09 10:19:14.561958
1435  2023-11-09 10:19:14.593869
1436  2023-11-09 10:19:14.641741
1437  2023-11-09 10:19:14.673655
1438  2023-11-09 10:19:14.706599
1439  2023-11-09 10:19:14.738515
1440  2023-11-09 10:19:14.770428
1441  2023-11-09 10:19:14.802349
1442  2023-11-09 10:19:14.834274
1443  2023-11-09 10:19:14.866195
1444  2023-11-09 10:19:14.898057
1445  2023-11-09 10:19:14.930006
1446  2023-11-09 10:19:14.961920
1447  2023-11-09 10:19:14.993817
1448  2023-11-09 10:19:15.041673
1449  2023-11-09 10:19:15.073622
1450  2023-11-09 10:19:15.106529
1451  2023-11-09 10:19:15.137462
1452  2023-11-09 10:19:15.170329
1453  2023-11-09 10:19:15.202274
1454  2023-11-09 10:19:15.234192
1455  2023-11-09 10:19:15.266073
1456  2023-11-09 10:19:15.297988
1457  2023-11-09 10:19:15.330092
1458  2023-11-09 10:19:15.362009
1459  2023-11-09 10:19:15.393921
1460  2023-11-09 10:19:15.441813
1461  2023-11-09 10:19:15.473719
1462  2023-11-09 10:19:15.505622
1463  2023-11-09 10:19:15.538502
1464  2023-11-09 10:19:15.570454
1465  2023-11-09 10:19:15.602369
1466  2023-11-09 10:19:15.634245
1467  2023-11-09 10:19:15.666161
1468  2023-11-09 10:19:15.698114
1469  2023-11-09 10:19:15.729991
1470  2023-11-09 10:19:15.761904
1471  2023-11-09 10:19:15.793821
1472  2023-11-09 10:19:15.841724
1473  2023-11-09 10:19:15.873632
1474  2023-11-09 10:19:15.905521
1475  2023-11-09 10:19:15.937470
1476  2023-11-09 10:19:15.970347
1477  2023-11-09 10:19:16.002263
1478  2023-11-09 10:19:16.034219
1479  2023-11-09 10:19:16.066136
1480  2023-11-09 10:19:16.098042
1481  2023-11-09 10:19:16.129931
1482  2023-11-09 10:19:16.161835
1483  2023-11-09 10:19:16.193750
1484  2023-11-09 10:19:16.241676
1485  2023-11-09 10:19:16.273569
1486  2023-11-09 10:19:16.306479
1487  2023-11-09 10:19:16.338394
1488  2023-11-09 10:19:16.370317
1489  2023-11-09 10:19:16.402224
1490  2023-11-09 10:19:16.434142
1491  2023-11-09 10:19:16.466054
1492  2023-11-09 10:19:16.497971
1493  2023-11-09 10:19:16.530887
1494  2023-11-09 10:19:16.561765
1495  2023-11-09 10:19:16.593680
1496  2023-11-09 10:19:16.641586
1497  2023-11-09 10:19:16.673496
1498  2023-11-09 10:19:16.705413
1499  2023-11-09 10:19:16.738335
1500  2023-11-09 10:19:16.770239
1501  2023-11-09 10:19:16.802153
1502  2023-11-09 10:19:16.834071
1503  2023-11-09 10:19:16.865953
1504  2023-11-09 10:19:16.897902
1505  2023-11-09 10:19:16.929814
1506  2023-11-09 10:19:16.961696
1507  2023-11-09 10:19:16.993649
1508  2023-11-09 10:19:17.041517
1509  2023-11-09 10:19:17.073432
1510  2023-11-09 10:19:17.105375
1511  2023-11-09 10:19:17.138434
1512  2023-11-09 10:19:17.170172
1513  2023-11-09 10:19:17.202086
1514  2023-11-09 10:19:17.234012
1515  2023-11-09 10:19:17.265926
1516  2023-11-09 10:19:17.297956
1517  2023-11-09 10:19:17.329857
1518  2023-11-09 10:19:17.361784
1519  2023-11-09 10:19:17.393688
1520  2023-11-09 10:19:17.441580
1521  2023-11-09 10:19:17.473474
1522  2023-11-09 10:19:17.505393
1523  2023-11-09 10:19:17.538319
1524  2023-11-09 10:19:17.570253
1525  2023-11-09 10:19:17.602136
1526  2023-11-09 10:19:17.634044
1527  2023-11-09 10:19:17.665976
1528  2023-11-09 10:19:17.697888
1529  2023-11-09 10:19:17.729787
1530  2023-11-09 10:19:17.761670
1531  2023-11-09 10:19:17.793585
1532  2023-11-09 10:19:17.841495
1533  2023-11-09 10:19:17.873405
1534  2023-11-09 10:19:17.906327
1535  2023-11-09 10:19:17.938229
1536  2023-11-09 10:19:17.970145
1537  2023-11-09 10:19:18.002070
1538  2023-11-09 10:19:18.033977
1539  2023-11-09 10:19:18.065905
1540  2023-11-09 10:19:18.097808
1541  2023-11-09 10:19:18.129718
1542  2023-11-09 10:19:18.161631
1543  2023-11-09 10:19:18.193515
1544  2023-11-09 10:19:18.241427
1545  2023-11-09 10:19:18.274336
1546  2023-11-09 10:19:18.306247
1547  2023-11-09 10:19:18.338162
1548  2023-11-09 10:19:18.369983
1549  2023-11-09 10:19:18.401884
1550  2023-11-09 10:19:18.434924
1551  2023-11-09 10:19:18.465845
1552  2023-11-09 10:19:18.497747
1553  2023-11-09 10:19:18.530632
1554  2023-11-09 10:19:18.562583
1555  2023-11-09 10:19:18.593460
1556  2023-11-09 10:19:18.642364
1557  2023-11-09 10:19:18.674294
1558  2023-11-09 10:19:18.706192
1559  2023-11-09 10:19:18.738117
1560  2023-11-09 10:19:18.770047
1561  2023-11-09 10:19:18.801936
1562  2023-11-09 10:19:18.833854
1563  2023-11-09 10:19:18.865763
1564  2023-11-09 10:19:18.898698
1565  2023-11-09 10:19:18.930607
1566  2023-11-09 10:19:18.961518
1567  2023-11-09 10:19:18.993426
1568  2023-11-09 10:19:19.042296
1569  2023-11-09 10:19:19.074176
1570  2023-11-09 10:19:19.106091
1571  2023-11-09 10:19:19.138039
1572  2023-11-09 10:19:19.169953
1573  2023-11-09 10:19:19.201874
1574  2023-11-09 10:19:19.233803
1575  2023-11-09 10:19:19.265701
1576  2023-11-09 10:19:19.297619
1577  2023-11-09 10:19:19.329526
1578  2023-11-09 10:19:19.361449
1579  2023-11-09 10:19:19.394319
1580  2023-11-09 10:19:19.442224
1581  2023-11-09 10:19:19.474137
1582  2023-11-09 10:19:19.506055
1583  2023-11-09 10:19:19.537969
1584  2023-11-09 10:19:19.569889
1585  2023-11-09 10:19:19.601766
1586  2023-11-09 10:19:19.633726
1587  2023-11-09 10:19:19.665631
1588  2023-11-09 10:19:19.697544
1589  2023-11-09 10:19:19.730423
1590  2023-11-09 10:19:19.762369
1591  2023-11-09 10:19:19.794299
1592  2023-11-09 10:19:19.842154
1593  2023-11-09 10:19:19.874070
1594  2023-11-09 10:19:19.905953
1595  2023-11-09 10:19:19.937900
1596  2023-11-09 10:19:19.969808
1597  2023-11-09 10:19:20.001726
1598  2023-11-09 10:19:20.033646
1599  2023-11-09 10:19:20.065559
1600  2023-11-09 10:19:20.097478
1601  2023-11-09 10:19:20.129391
1602  2023-11-09 10:19:20.162300
1603  2023-11-09 10:19:20.194214
1604  2023-11-09 10:19:20.242090
1605  2023-11-09 10:19:20.274000
1606  2023-11-09 10:19:20.305917
1607  2023-11-09 10:19:20.337855
1608  2023-11-09 10:19:20.369751
1609  2023-11-09 10:19:20.401667
1610  2023-11-09 10:19:20.433575
1611  2023-11-09 10:19:20.465493
1612  2023-11-09 10:19:20.497406
1613  2023-11-09 10:19:20.530321
1614  2023-11-09 10:19:20.562234
1615  2023-11-09 10:19:20.594144
1616  2023-11-09 10:19:20.642018
1617  2023-11-09 10:19:20.673929
1618  2023-11-09 10:19:20.705859
1619  2023-11-09 10:19:20.737761
1620  2023-11-09 10:19:20.769673
1621  2023-11-09 10:19:20.801587
1622  2023-11-09 10:19:20.833507
1623  2023-11-09 10:19:20.865488
1624  2023-11-09 10:19:20.897380
1625  2023-11-09 10:19:20.930302
1626  2023-11-09 10:19:20.962210
1627  2023-11-09 10:19:20.994120
1628  2023-11-09 10:19:21.041991
1629  2023-11-09 10:19:21.073906
1630  2023-11-09 10:19:21.105831
1631  2023-11-09 10:19:21.137702
1632  2023-11-09 10:19:21.169650
1633  2023-11-09 10:19:21.201563
1634  2023-11-09 10:19:21.233484
1635  2023-11-09 10:19:21.266402
1636  2023-11-09 10:19:21.298322
1637  2023-11-09 10:19:21.330226
1638  2023-11-09 10:19:21.362148
1639  2023-11-09 10:19:21.394054
1640  2023-11-09 10:19:21.441922
1641  2023-11-09 10:19:21.474833
1642  2023-11-09 10:19:21.505758
1643  2023-11-09 10:19:21.537667
1644  2023-11-09 10:19:21.570577
1645  2023-11-09 10:19:21.602493
1646  2023-11-09 10:19:21.634427
1647  2023-11-09 10:19:21.666289
1648  2023-11-09 10:19:21.698239
1649  2023-11-09 10:19:21.730182
1650  2023-11-09 10:19:21.762067
1651  2023-11-09 10:19:21.793992
1652  2023-11-09 10:19:21.841859
1653  2023-11-09 10:19:21.873776
1654  2023-11-09 10:19:21.905650
1655  2023-11-09 10:19:21.937594
1656  2023-11-09 10:19:21.969514
1657  2023-11-09 10:19:22.001434
1658  2023-11-09 10:19:22.033341
1659  2023-11-09 10:19:22.066251
1660  2023-11-09 10:19:22.098134
1661  2023-11-09 10:19:22.130087
1662  2023-11-09 10:19:22.161999
1663  2023-11-09 10:19:22.193926
1664  2023-11-09 10:19:22.241941
1665  2023-11-09 10:19:22.273856
1666  2023-11-09 10:19:22.305782
1667  2023-11-09 10:19:22.337682
1668  2023-11-09 10:19:22.369599
1669  2023-11-09 10:19:22.401512
1670  2023-11-09 10:19:22.433435
1671  2023-11-09 10:19:22.466362
1672  2023-11-09 10:19:22.498230
1673  2023-11-09 10:19:22.530168
1674  2023-11-09 10:19:22.562086
1675  2023-11-09 10:19:22.594001
1676  2023-11-09 10:19:22.641872
1677  2023-11-09 10:19:22.673783
1678  2023-11-09 10:19:22.705698
1679  2023-11-09 10:19:22.737616
1680  2023-11-09 10:19:22.769528
1681  2023-11-09 10:19:22.801445
1682  2023-11-09 10:19:22.833367
1683  2023-11-09 10:19:22.866269
1684  2023-11-09 10:19:22.898152
1685  2023-11-09 10:19:22.930103
1686  2023-11-09 10:19:22.962016
1687  2023-11-09 10:19:22.993932
1688  2023-11-09 10:19:23.041811
1689  2023-11-09 10:19:23.073720
1690  2023-11-09 10:19:23.105634
1691  2023-11-09 10:19:23.137543
1692  2023-11-09 10:19:23.170465
1693  2023-11-09 10:19:23.202339
1694  2023-11-09 10:19:23.234302
1695  2023-11-09 10:19:23.266200
1696  2023-11-09 10:19:23.298117
1697  2023-11-09 10:19:23.330031
1698  2023-11-09 10:19:23.361946
1699  2023-11-09 10:19:23.393864
1700  2023-11-09 10:19:23.441732
1701  2023-11-09 10:19:23.473648
1702  2023-11-09 10:19:23.506572
1703  2023-11-09 10:19:23.537481
1704  2023-11-09 10:19:23.569388
1705  2023-11-09 10:19:23.602302
1706  2023-11-09 10:19:23.634226
1707  2023-11-09 10:19:23.666132
1708  2023-11-09 10:19:23.698058
1709  2023-11-09 10:19:23.729933
1710  2023-11-09 10:19:23.761841
1711  2023-11-09 10:19:23.793898
1712  2023-11-09 10:19:23.841751
1713  2023-11-09 10:19:23.873666
1714  2023-11-09 10:19:23.905577
1715  2023-11-09 10:19:23.937501
1716  2023-11-09 10:19:23.969408
1717  2023-11-09 10:19:24.002324
1718  2023-11-09 10:19:24.034267
1719  2023-11-09 10:19:24.066151
1720  2023-11-09 10:19:24.098031
1721  2023-11-09 10:19:24.129977
1722  2023-11-09 10:19:24.161894
1723  2023-11-09 10:19:24.193817
1724  2023-11-09 10:19:24.241689
1725  2023-11-09 10:19:24.273600
1726  2023-11-09 10:19:24.305514
1727  2023-11-09 10:19:24.337422
1728  2023-11-09 10:19:24.370363
1729  2023-11-09 10:19:24.402254
1730  2023-11-09 10:19:24.434166
1731  2023-11-09 10:19:24.466078
1732  2023-11-09 10:19:24.497993
1733  2023-11-09 10:19:24.529921
1734  2023-11-09 10:19:24.561832
1735  2023-11-09 10:19:24.593739
1736  2023-11-09 10:19:24.641618
1737  2023-11-09 10:19:24.673527
1738  2023-11-09 10:19:24.705442
1739  2023-11-09 10:19:24.738319
1740  2023-11-09 10:19:24.770234
1741  2023-11-09 10:19:24.802181
1742  2023-11-09 10:19:24.834103
1743  2023-11-09 10:19:24.866019
1744  2023-11-09 10:19:24.897908
1745  2023-11-09 10:19:24.929811
1746  2023-11-09 10:19:24.961752
1747  2023-11-09 10:19:24.993678
1748  2023-11-09 10:19:25.041548
1749  2023-11-09 10:19:25.074457
1750  2023-11-09 10:19:25.105372
1751  2023-11-09 10:19:25.138250
1752  2023-11-09 10:19:25.170241
1753  2023-11-09 10:19:25.202191
1754  2023-11-09 10:19:25.234105
1755  2023-11-09 10:19:25.266020
1756  2023-11-09 10:19:25.297899
1757  2023-11-09 10:19:25.329814
1758  2023-11-09 10:19:25.361760
1759  2023-11-09 10:19:25.394641
1760  2023-11-09 10:19:25.442514
1761  2023-11-09 10:19:25.474459
1762  2023-11-09 10:19:25.505375
1763  2023-11-09 10:19:25.538256
1764  2023-11-09 10:19:25.570204
1765  2023-11-09 10:19:25.602087
1766  2023-11-09 10:19:25.634035
1767  2023-11-09 10:19:25.665950
1768  2023-11-09 10:19:25.697830
1769  2023-11-09 10:19:25.729796
1770  2023-11-09 10:19:25.761699
1771  2023-11-09 10:19:25.793604
1772  2023-11-09 10:19:25.841481
1773  2023-11-09 10:19:25.873392
1774  2023-11-09 10:19:25.906321
1775  2023-11-09 10:19:25.938220
1776  2023-11-09 10:19:25.970102
1777  2023-11-09 10:19:26.002052
1778  2023-11-09 10:19:26.033965
1779  2023-11-09 10:19:26.065881
1780  2023-11-09 10:19:26.097760
1781  2023-11-09 10:19:26.129675
1782  2023-11-09 10:19:26.161626
1783  2023-11-09 10:19:26.193539
1784  2023-11-09 10:19:26.241412
1785  2023-11-09 10:19:26.274323
1786  2023-11-09 10:19:26.306236
1787  2023-11-09 10:19:26.338118
1788  2023-11-09 10:19:26.370064
1789  2023-11-09 10:19:26.401982
1790  2023-11-09 10:19:26.433893
1791  2023-11-09 10:19:26.465812
1792  2023-11-09 10:19:26.497691
1793  2023-11-09 10:19:26.529606
1794  2023-11-09 10:19:26.561554
1795  2023-11-09 10:19:26.594433
1796  2023-11-09 10:19:26.642342
1797  2023-11-09 10:19:26.674265
1798  2023-11-09 10:19:26.706166
1799  2023-11-09 10:19:26.738082
1800  2023-11-09 10:19:26.769963
1801  2023-11-09 10:19:26.802010
1802  2023-11-09 10:19:26.833927
1803  2023-11-09 10:19:26.865856
1804  2023-11-09 10:19:26.897722
1805  2023-11-09 10:19:26.929636
1806  2023-11-09 10:19:26.962548
1807  2023-11-09 10:19:26.993502
1808  2023-11-09 10:19:27.042335
1809  2023-11-09 10:19:27.074238
1810  2023-11-09 10:19:27.106183
1811  2023-11-09 10:19:27.138098
1812  2023-11-09 10:19:27.170013
1813  2023-11-09 10:19:27.201927
1814  2023-11-09 10:19:27.233892
1815  2023-11-09 10:19:27.265757
1816  2023-11-09 10:19:27.297671
1817  2023-11-09 10:19:27.329586
1818  2023-11-09 10:19:27.361539
1819  2023-11-09 10:19:27.394448
1820  2023-11-09 10:19:27.442286
1821  2023-11-09 10:19:27.474311
1822  2023-11-09 10:19:27.506334
1823  2023-11-09 10:19:27.538248
1824  2023-11-09 10:19:27.570194
1825  2023-11-09 10:19:27.602172
1826  2023-11-09 10:19:27.634200
1827  2023-11-09 10:19:27.666114
1828  2023-11-09 10:19:27.698141
1829  2023-11-09 10:19:27.730022
1830  2023-11-09 10:19:27.761937
1831  2023-11-09 10:19:27.793852
1832  2023-11-09 10:19:27.841723
1833  2023-11-09 10:19:27.873676
1834  2023-11-09 10:19:27.905584
1835  2023-11-09 10:19:27.937508
1836  2023-11-09 10:19:27.969382
1837  2023-11-09 10:19:28.002294
1838  2023-11-09 10:19:28.034298
1839  2023-11-09 10:19:28.065353
1840  2023-11-09 10:19:28.098265
1841  2023-11-09 10:19:28.130180
1842  2023-11-09 10:19:28.162181
1843  2023-11-09 10:19:28.194096
1844  2023-11-09 10:19:28.241968
1845  2023-11-09 10:19:28.273883
1846  2023-11-09 10:19:28.305909
1847  2023-11-09 10:19:28.337935
1848  2023-11-09 10:19:28.369850
1849  2023-11-09 10:19:28.401764
1850  2023-11-09 10:19:28.433679
1851  2023-11-09 10:19:28.465594
1852  2023-11-09 10:19:28.497508
1853  2023-11-09 10:19:28.529523
1854  2023-11-09 10:19:28.561474
1855  2023-11-09 10:19:28.594349
1856  2023-11-09 10:19:28.642344
1857  2023-11-09 10:19:28.674259
1858  2023-11-09 10:19:28.706173
1859  2023-11-09 10:19:28.738122
1860  2023-11-09 10:19:28.770133
1861  2023-11-09 10:19:28.802013
1862  2023-11-09 10:19:28.833927
1863  2023-11-09 10:19:28.865843
1864  2023-11-09 10:19:28.897791
1865  2023-11-09 10:19:28.929671
1866  2023-11-09 10:19:28.961586
1867  2023-11-09 10:19:28.993532
1868  2023-11-09 10:19:29.041460
1869  2023-11-09 10:19:29.073411
1870  2023-11-09 10:19:29.106318
1871  2023-11-09 10:19:29.138257
1872  2023-11-09 10:19:29.170171
1873  2023-11-09 10:19:29.202129
1874  2023-11-09 10:19:29.234035
1875  2023-11-09 10:19:29.265915
1876  2023-11-09 10:19:29.297830
1877  2023-11-09 10:19:29.329778
1878  2023-11-09 10:19:29.361695
1879  2023-11-09 10:19:29.393574
1880  2023-11-09 10:19:29.441446
1881  2023-11-09 10:19:29.474373
1882  2023-11-09 10:19:29.506273
1883  2023-11-09 10:19:29.537387
1884  2023-11-09 10:19:29.570267
1885  2023-11-09 10:19:29.602182
1886  2023-11-09 10:19:29.634096
1887  2023-11-09 10:19:29.666011
1888  2023-11-09 10:19:29.697926
1889  2023-11-09 10:19:29.729840
1890  2023-11-09 10:19:29.761755
1891  2023-11-09 10:19:29.793670
1892  2023-11-09 10:19:29.841542
1893  2023-11-09 10:19:29.874455
1894  2023-11-09 10:19:29.906413
1895  2023-11-09 10:19:29.938329
1896  2023-11-09 10:19:29.970242
1897  2023-11-09 10:19:30.002252
1898  2023-11-09 10:19:30.034166
1899  2023-11-09 10:19:30.066083
1900  2023-11-09 10:19:30.098001
1901  2023-11-09 10:19:30.129910
1902  2023-11-09 10:19:30.161825
1903  2023-11-09 10:19:30.193773
1904  2023-11-09 10:19:30.241644
1905  2023-11-09 10:19:30.273559
1906  2023-11-09 10:19:30.305441
1907  2023-11-09 10:19:30.337356
1908  2023-11-09 10:19:30.370268
1909  2023-11-09 10:19:30.402216
1910  2023-11-09 10:19:30.434097
1911  2023-11-09 10:19:30.466012
1912  2023-11-09 10:19:30.497926
1913  2023-11-09 10:19:30.529893
1914  2023-11-09 10:19:30.561756
1915  2023-11-09 10:19:30.593670
1916  2023-11-09 10:19:30.641542
1917  2023-11-09 10:19:30.673459
1918  2023-11-09 10:19:30.705373
1919  2023-11-09 10:19:30.738327
1920  2023-11-09 10:19:30.770200
1921  2023-11-09 10:19:30.802115
1922  2023-11-09 10:19:30.834029
1923  2023-11-09 10:19:30.865976
1924  2023-11-09 10:19:30.897889
1925  2023-11-09 10:19:30.929773
1926  2023-11-09 10:19:30.961688
1927  2023-11-09 10:19:30.993602
1928  2023-11-09 10:19:31.041475
1929  2023-11-09 10:19:31.073424
1930  2023-11-09 10:19:31.106301
1931  2023-11-09 10:19:31.138216
1932  2023-11-09 10:19:31.170131
1933  2023-11-09 10:19:31.202045
1934  2023-11-09 10:19:31.233960
1935  2023-11-09 10:19:31.265875
1936  2023-11-09 10:19:31.297789
1937  2023-11-09 10:19:31.329704
1938  2023-11-09 10:19:31.362617
1939  2023-11-09 10:19:31.394533
1940  2023-11-09 10:19:31.442404
1941  2023-11-09 10:19:31.474317
1942  2023-11-09 10:19:31.506232
1943  2023-11-09 10:19:31.538147
1944  2023-11-09 10:19:31.570093
1945  2023-11-09 10:19:31.601976
1946  2023-11-09 10:19:31.633891
1947  2023-11-09 10:19:31.665805
1948  2023-11-09 10:19:31.697755
1949  2023-11-09 10:19:31.729666
1950  2023-11-09 10:19:31.761549
1951  2023-11-09 10:19:31.793464
1952  2023-11-09 10:19:31.842334
1953  2023-11-09 10:19:31.874248
1954  2023-11-09 10:19:31.906201
1955  2023-11-09 10:19:31.938078
1956  2023-11-09 10:19:31.969992
1957  2023-11-09 10:19:32.001907
1958  2023-11-09 10:19:32.033822
1959  2023-11-09 10:19:32.065736
1960  2023-11-09 10:19:32.097749
1961  2023-11-09 10:19:32.129663
1962  2023-11-09 10:19:32.161615
1963  2023-11-09 10:19:32.193492
1964  2023-11-09 10:19:32.241398
1965  2023-11-09 10:19:32.274277
1966  2023-11-09 10:19:32.306191
1967  2023-11-09 10:19:32.338106
1968  2023-11-09 10:19:32.370062
1969  2023-11-09 10:19:32.401935
1970  2023-11-09 10:19:32.433850
1971  2023-11-09 10:19:32.465765
1972  2023-11-09 10:19:32.497679
1973  2023-11-09 10:19:32.529594
1974  2023-11-09 10:19:32.561509
1975  2023-11-09 10:19:32.594422
1976  2023-11-09 10:19:32.641440
1977  2023-11-09 10:19:32.673355
1978  2023-11-09 10:19:32.706293
1979  2023-11-09 10:19:32.738213
1980  2023-11-09 10:19:32.770096
1981  2023-11-09 10:19:32.802011
1982  2023-11-09 10:19:32.833925
1983  2023-11-09 10:19:32.865840
1984  2023-11-09 10:19:32.897755
1985  2023-11-09 10:19:32.929669
1986  2023-11-09 10:19:32.961584
1987  2023-11-09 10:19:32.993499
1988  2023-11-09 10:19:33.041412
1989  2023-11-09 10:19:33.074283
1990  2023-11-09 10:19:33.106197
1991  2023-11-09 10:19:33.138112
1992  2023-11-09 10:19:33.170109
1993  2023-11-09 10:19:33.202024
1994  2023-11-09 10:19:33.233940
1995  2023-11-09 10:19:33.265853
1996  2023-11-09 10:19:33.297768
1997  2023-11-09 10:19:33.329682
1998  2023-11-09 10:19:33.361630
1999  2023-11-09 10:19:33.394510
2000  2023-11-09 10:19:33.441425
2001  2023-11-09 10:19:33.474296
2002  2023-11-09 10:19:33.506211
2003  2023-11-09 10:19:33.538125
2004  2023-11-09 10:19:33.570071
2005  2023-11-09 10:19:33.601954
2006  2023-11-09 10:19:33.633869
2007  2023-11-09 10:19:33.665784
2008  2023-11-09 10:19:33.697745
2009  2023-11-09 10:19:33.729613
2010  2023-11-09 10:19:33.761528
2011  2023-11-09 10:19:33.793443
2012  2023-11-09 10:19:33.842312
2013  2023-11-09 10:19:33.874227
2014  2023-11-09 10:19:33.906173
2015  2023-11-09 10:19:33.938056
2016  2023-11-09 10:19:33.969971
2017  2023-11-09 10:19:34.001885
2018  2023-11-09 10:19:34.033800
2019  2023-11-09 10:19:34.065715
2020  2023-11-09 10:19:34.097629
2021  2023-11-09 10:19:34.129707
2022  2023-11-09 10:19:34.161683
2023  2023-11-09 10:19:34.193598
2024  2023-11-09 10:19:34.241505
2025  2023-11-09 10:19:34.273384
2026  2023-11-09 10:19:34.306296
2027  2023-11-09 10:19:34.338211
2028  2023-11-09 10:19:34.370125
2029  2023-11-09 10:19:34.402042
2030  2023-11-09 10:19:34.433955
2031  2023-11-09 10:19:34.465870
2032  2023-11-09 10:19:34.497784
2033  2023-11-09 10:19:34.529706
2034  2023-11-09 10:19:34.561613
2035  2023-11-09 10:19:34.593599
2036  2023-11-09 10:19:34.641471
2037  2023-11-09 10:19:34.674385
2038  2023-11-09 10:19:34.706301
2039  2023-11-09 10:19:34.738213
2040  2023-11-09 10:19:34.770127
2041  2023-11-09 10:19:34.802042
2042  2023-11-09 10:19:34.833957
2043  2023-11-09 10:19:34.865872
2044  2023-11-09 10:19:34.897786
2045  2023-11-09 10:19:34.929704
2046  2023-11-09 10:19:34.961651
2047  2023-11-09 10:19:34.993566
2048  2023-11-09 10:19:35.041469
2049  2023-11-09 10:19:35.074356
2050  2023-11-09 10:19:35.106314
2051  2023-11-09 10:19:35.138243
2052  2023-11-09 10:19:35.170178
2053  2023-11-09 10:19:35.202093
2054  2023-11-09 10:19:35.234041
2055  2023-11-09 10:19:35.266005
2056  2023-11-09 10:19:35.297918
2057  2023-11-09 10:19:35.329916
2058  2023-11-09 10:19:35.361880
2059  2023-11-09 10:19:35.393791
2060  2023-11-09 10:19:35.441664
2061  2023-11-09 10:19:35.473538
2062  2023-11-09 10:19:35.505452
2063  2023-11-09 10:19:35.538365
2064  2023-11-09 10:19:35.570312
2065  2023-11-09 10:19:35.602194
2066  2023-11-09 10:19:35.634108
2067  2023-11-09 10:19:35.666023
2068  2023-11-09 10:19:35.697981
2069  2023-11-09 10:19:35.729956
2070  2023-11-09 10:19:35.761870
2071  2023-11-09 10:19:35.793785
2072  2023-11-09 10:19:35.841657
2073  2023-11-09 10:19:35.873572
2074  2023-11-09 10:19:35.905487
2075  2023-11-09 10:19:35.938410
2076  2023-11-09 10:19:35.970313
2077  2023-11-09 10:19:36.002228
2078  2023-11-09 10:19:36.034143
2079  2023-11-09 10:19:36.066057
2080  2023-11-09 10:19:36.097972
2081  2023-11-09 10:19:36.130176
2082  2023-11-09 10:19:36.162091
2083  2023-11-09 10:19:36.194005
2084  2023-11-09 10:19:36.241877
2085  2023-11-09 10:19:36.273792
2086  2023-11-09 10:19:36.305890
2087  2023-11-09 10:19:36.337859
2088  2023-11-09 10:19:36.369774
2089  2023-11-09 10:19:36.401734
2090  2023-11-09 10:19:36.433603
2091  2023-11-09 10:19:36.465518
2092  2023-11-09 10:19:36.498430
2093  2023-11-09 10:19:36.530431
2094  2023-11-09 10:19:36.561427
2095  2023-11-09 10:19:36.594339
2096  2023-11-09 10:19:36.642211
2097  2023-11-09 10:19:36.674125
2098  2023-11-09 10:19:36.706040
2099  2023-11-09 10:19:36.737988
2100  2023-11-09 10:19:36.769869
2101  2023-11-09 10:19:36.801784
2102  2023-11-09 10:19:36.833699
2103  2023-11-09 10:19:36.865648
2104  2023-11-09 10:19:36.897573
2105  2023-11-09 10:19:36.930440
2106  2023-11-09 10:19:36.962355
2107  2023-11-09 10:19:36.994315
2108  2023-11-09 10:19:37.042141
2109  2023-11-09 10:19:37.074101
2110  2023-11-09 10:19:37.106004
2111  2023-11-09 10:19:37.137885
2112  2023-11-09 10:19:37.169800
2113  2023-11-09 10:19:37.201748
2114  2023-11-09 10:19:37.233658
2115  2023-11-09 10:19:37.266542
2116  2023-11-09 10:19:37.299485
2117  2023-11-09 10:19:37.329411
2118  2023-11-09 10:19:37.362334
2119  2023-11-09 10:19:37.394200
2120  2023-11-09 10:19:37.442107
2121  2023-11-09 10:19:37.475194
2122  2023-11-09 10:19:37.507108
2123  2023-11-09 10:19:37.539025
2124  2023-11-09 10:19:37.570938
2125  2023-11-09 10:19:37.602853
2126  2023-11-09 10:19:37.634767
2127  2023-11-09 10:19:37.667648
2128  2023-11-09 10:19:37.698593
2129  2023-11-09 10:19:37.730509
2130  2023-11-09 10:19:37.762402
2131  2023-11-09 10:19:37.795340
2132  2023-11-09 10:19:37.843216
2133  2023-11-09 10:19:37.875127
2134  2023-11-09 10:19:37.907038
2135  2023-11-09 10:19:37.938967
2136  2023-11-09 10:19:37.970868
2137  2023-11-09 10:19:38.002812
2138  2023-11-09 10:19:38.034829
2139  2023-11-09 10:19:38.066741
2140  2023-11-09 10:19:38.098658
2141  2023-11-09 10:19:38.130580
2142  2023-11-09 10:19:38.162484
2143  2023-11-09 10:19:38.194366
2144  2023-11-09 10:19:38.242278
2145  2023-11-09 10:19:38.274190
2146  2023-11-09 10:19:38.306098
2147  2023-11-09 10:19:38.337982
2148  2023-11-09 10:19:38.370917
2149  2023-11-09 10:19:38.403895
2150  2023-11-09 10:19:38.433862
2151  2023-11-09 10:19:38.466802
2152  2023-11-09 10:19:38.498727
2153  2023-11-09 10:19:38.530635
2154  2023-11-09 10:19:38.562564
2155  2023-11-09 10:19:38.594469
2156  2023-11-09 10:19:38.642336
2157  2023-11-09 10:19:38.674251
2158  2023-11-09 10:19:38.706171
2159  2023-11-09 10:19:38.738091
2160  2023-11-09 10:19:38.769989
2161  2023-11-09 10:19:38.801930
2162  2023-11-09 10:19:38.833823
2163  2023-11-09 10:19:38.865742
2164  2023-11-09 10:19:38.898654
2165  2023-11-09 10:19:38.929569
2166  2023-11-09 10:19:38.961450
2167  2023-11-09 10:19:38.993479
2168  2023-11-09 10:19:39.042354
2169  2023-11-09 10:19:39.074285
2170  2023-11-09 10:19:39.106195
2171  2023-11-09 10:19:39.138094
2172  2023-11-09 10:19:39.170008
2173  2023-11-09 10:19:39.201922
2174  2023-11-09 10:19:39.233838
2175  2023-11-09 10:19:39.266750
2176  2023-11-09 10:19:39.298631
2177  2023-11-09 10:19:39.330555
2178  2023-11-09 10:19:39.362460
2179  2023-11-09 10:19:39.394413
2180  2023-11-09 10:19:39.442279
2181  2023-11-09 10:19:39.474193
2182  2023-11-09 10:19:39.506108
2183  2023-11-09 10:19:39.538027
2184  2023-11-09 10:19:39.569937
2185  2023-11-09 10:19:39.601860
2186  2023-11-09 10:19:39.633795
2187  2023-11-09 10:19:39.665691
2188  2023-11-09 10:19:39.697595
2189  2023-11-09 10:19:39.730477
2190  2023-11-09 10:19:39.762391
2191  2023-11-09 10:19:39.794355
2192  2023-11-09 10:19:39.842217
2193  2023-11-09 10:19:39.874125
2194  2023-11-09 10:19:39.906051
2195  2023-11-09 10:19:39.938952
2196  2023-11-09 10:19:39.970870
2197  2023-11-09 10:19:40.001751
2198  2023-11-09 10:19:40.033707
2199  2023-11-09 10:19:40.066608
2200  2023-11-09 10:19:40.098544
2201  2023-11-09 10:19:40.130448
2202  2023-11-09 10:19:40.162354
2203  2023-11-09 10:19:40.194284
2204  2023-11-09 10:19:40.242172
2205  2023-11-09 10:19:40.274143
2206  2023-11-09 10:19:40.306069
2207  2023-11-09 10:19:40.338986
2208  2023-11-09 10:19:40.370874
2209  2023-11-09 10:19:40.401762
2210  2023-11-09 10:19:40.433707
2211  2023-11-09 10:19:40.466619
2212  2023-11-09 10:19:40.498533
2213  2023-11-09 10:19:40.530418
2214  2023-11-09 10:19:40.562347
2215  2023-11-09 10:19:40.594304
2216  2023-11-09 10:19:40.642121
2217  2023-11-09 10:19:40.674065
2218  2023-11-09 10:19:40.705950
2219  2023-11-09 10:19:40.737864
2220  2023-11-09 10:19:40.770806
2221  2023-11-09 10:19:40.801729
2222  2023-11-09 10:19:40.833607
2223  2023-11-09 10:19:40.866561
2224  2023-11-09 10:19:40.898465
2225  2023-11-09 10:19:40.930379
2226  2023-11-09 10:19:40.962270
2227  2023-11-09 10:19:40.994178
2228  2023-11-09 10:19:41.042097
2229  2023-11-09 10:19:41.074116
2230  2023-11-09 10:19:41.107035
2231  2023-11-09 10:19:41.137953
2232  2023-11-09 10:19:41.169860
2233  2023-11-09 10:19:41.201774
2234  2023-11-09 10:19:41.234692
2235  2023-11-09 10:19:41.265531
2236  2023-11-09 10:19:41.297525
2237  2023-11-09 10:19:41.329440
2238  2023-11-09 10:19:41.361389
2239  2023-11-09 10:19:41.394265
2240  2023-11-09 10:19:41.442172
2241  2023-11-09 10:19:41.474085
2242  2023-11-09 10:19:41.506000
2243  2023-11-09 10:19:41.537917
2244  2023-11-09 10:19:41.569827
2245  2023-11-09 10:19:41.601710
2246  2023-11-09 10:19:41.633682
2247  2023-11-09 10:19:41.665572
2248  2023-11-09 10:19:41.697485
2249  2023-11-09 10:19:41.730376
2250  2023-11-09 10:19:41.762326
2251  2023-11-09 10:19:41.794196
2252  2023-11-09 10:19:41.842111
2253  2023-11-09 10:19:41.874042
2254  2023-11-09 10:19:41.905934
2255  2023-11-09 10:19:41.937867
2256  2023-11-09 10:19:41.969772
2257  2023-11-09 10:19:42.001684
2258  2023-11-09 10:19:42.033591
2259  2023-11-09 10:19:42.065472
2260  2023-11-09 10:19:42.097420
2261  2023-11-09 10:19:42.130300
2262  2023-11-09 10:19:42.162244
2263  2023-11-09 10:19:42.194128
2264  2023-11-09 10:19:42.242000
2265  2023-11-09 10:19:42.273952
2266  2023-11-09 10:19:42.305829
2267  2023-11-09 10:19:42.337774
2268  2023-11-09 10:19:42.369711
2269  2023-11-09 10:19:42.402570
2270  2023-11-09 10:19:42.434486
2271  2023-11-09 10:19:42.465402
2272  2023-11-09 10:19:42.498349
2273  2023-11-09 10:19:42.530269
2274  2023-11-09 10:19:42.562177
2275  2023-11-09 10:19:42.594058
2276  2023-11-09 10:19:42.641931
2277  2023-11-09 10:19:42.673891
2278  2023-11-09 10:19:42.705760
2279  2023-11-09 10:19:42.737674
2280  2023-11-09 10:19:42.770619
2281  2023-11-09 10:19:42.801589
2282  2023-11-09 10:19:42.833454
2283  2023-11-09 10:19:42.866331
2284  2023-11-09 10:19:42.898245
2285  2023-11-09 10:19:42.930204
2286  2023-11-09 10:19:42.962105
2287  2023-11-09 10:19:42.993989
2288  2023-11-09 10:19:43.041893
2289  2023-11-09 10:19:43.073808
2290  2023-11-09 10:19:43.105726
2291  2023-11-09 10:19:43.137640
2292  2023-11-09 10:19:43.169567
2293  2023-11-09 10:19:43.201434
2294  2023-11-09 10:19:43.234386
2295  2023-11-09 10:19:43.266261
2296  2023-11-09 10:19:43.298206
2297  2023-11-09 10:19:43.330125
2298  2023-11-09 10:19:43.362037
2299  2023-11-09 10:19:43.393956
2300  2023-11-09 10:19:43.441836
2301  2023-11-09 10:19:43.473752
2302  2023-11-09 10:19:43.505621
2303  2023-11-09 10:19:43.537575
2304  2023-11-09 10:19:43.569451
2305  2023-11-09 10:19:43.601398
2306  2023-11-09 10:19:43.634278
2307  2023-11-09 10:19:43.666226
2308  2023-11-09 10:19:43.698141
2309  2023-11-09 10:19:43.730074
2310  2023-11-09 10:19:43.761969
2311  2023-11-09 10:19:43.793886
2312  2023-11-09 10:19:43.841753
2313  2023-11-09 10:19:43.873675
2314  2023-11-09 10:19:43.905687
2315  2023-11-09 10:19:43.937602
2316  2023-11-09 10:19:43.969517
2317  2023-11-09 10:19:44.002425
2318  2023-11-09 10:19:44.034340
2319  2023-11-09 10:19:44.066259
2320  2023-11-09 10:19:44.098169
2321  2023-11-09 10:19:44.130089
2322  2023-11-09 10:19:44.162003
2323  2023-11-09 10:19:44.193924
2324  2023-11-09 10:19:44.241791
2325  2023-11-09 10:19:44.273704
2326  2023-11-09 10:19:44.305584
2327  2023-11-09 10:19:44.337533
2328  2023-11-09 10:19:44.369445
2329  2023-11-09 10:19:44.401361
2330  2023-11-09 10:19:44.434241
2331  2023-11-09 10:19:44.466155
2332  2023-11-09 10:19:44.498105
2333  2023-11-09 10:19:44.530020
2334  2023-11-09 10:19:44.561930
2335  2023-11-09 10:19:44.593814
2336  2023-11-09 10:19:44.641730
2337  2023-11-09 10:19:44.673631
2338  2023-11-09 10:19:44.705546
2339  2023-11-09 10:19:44.737461
2340  2023-11-09 10:19:44.769378
2341  2023-11-09 10:19:44.802302
2342  2023-11-09 10:19:44.834210
2343  2023-11-09 10:19:44.866120
2344  2023-11-09 10:19:44.898063
2345  2023-11-09 10:19:44.929948
2346  2023-11-09 10:19:44.961881
2347  2023-11-09 10:19:44.993793
2348  2023-11-09 10:19:45.041653
2349  2023-11-09 10:19:45.073562
2350  2023-11-09 10:19:45.106458
2351  2023-11-09 10:19:45.137394
2352  2023-11-09 10:19:45.170332
2353  2023-11-09 10:19:45.202220
2354  2023-11-09 10:19:45.234102
2355  2023-11-09 10:19:45.266016
2356  2023-11-09 10:19:45.297969
2357  2023-11-09 10:19:45.329879
2358  2023-11-09 10:19:45.361825
2359  2023-11-09 10:19:45.393836
2360  2023-11-09 10:19:45.441711
2361  2023-11-09 10:19:45.473630
2362  2023-11-09 10:19:45.505546
2363  2023-11-09 10:19:45.537464
2364  2023-11-09 10:19:45.570380
2365  2023-11-09 10:19:45.602336
2366  2023-11-09 10:19:45.634197
2367  2023-11-09 10:19:45.666078
2368  2023-11-09 10:19:45.698034
2369  2023-11-09 10:19:45.729938
2370  2023-11-09 10:19:45.761861
2371  2023-11-09 10:19:45.793768
2372  2023-11-09 10:19:45.841652
2373  2023-11-09 10:19:45.873558
2374  2023-11-09 10:19:45.906469
2375  2023-11-09 10:19:45.938350
2376  2023-11-09 10:19:45.970310
2377  2023-11-09 10:19:46.002212
2378  2023-11-09 10:19:46.034128
2379  2023-11-09 10:19:46.066009
2380  2023-11-09 10:19:46.097924
2381  2023-11-09 10:19:46.129871
2382  2023-11-09 10:19:46.161800
2383  2023-11-09 10:19:46.193700
2384  2023-11-09 10:19:46.241577
2385  2023-11-09 10:19:46.273491
2386  2023-11-09 10:19:46.305411
2387  2023-11-09 10:19:46.338281
2388  2023-11-09 10:19:46.370230
2389  2023-11-09 10:19:46.402156
2390  2023-11-09 10:19:46.434061
2391  2023-11-09 10:19:46.465940
2392  2023-11-09 10:19:46.497887
2393  2023-11-09 10:19:46.529811
2394  2023-11-09 10:19:46.561727
2395  2023-11-09 10:19:46.593637
2396  2023-11-09 10:19:46.641504
2397  2023-11-09 10:19:46.673423
2398  2023-11-09 10:19:46.706332
2399  2023-11-09 10:19:46.738245
2400  2023-11-09 10:19:46.770164
2401  2023-11-09 10:19:46.802077
2402  2023-11-09 10:19:46.833988
2403  2023-11-09 10:19:46.865926
2404  2023-11-09 10:19:46.897836
2405  2023-11-09 10:19:46.929737
2406  2023-11-09 10:19:46.961677
2407  2023-11-09 10:19:46.993561
2408  2023-11-09 10:19:47.042433
2409  2023-11-09 10:19:47.074354
2410  2023-11-09 10:19:47.106229
2411  2023-11-09 10:19:47.138143
2412  2023-11-09 10:19:47.170093
2413  2023-11-09 10:19:47.202007
2414  2023-11-09 10:19:47.233936
2415  2023-11-09 10:19:47.265929
2416  2023-11-09 10:19:47.297844
2417  2023-11-09 10:19:47.329793
2418  2023-11-09 10:19:47.361718
2419  2023-11-09 10:19:47.393628
2420  2023-11-09 10:19:47.442496
2421  2023-11-09 10:19:47.473412
2422  2023-11-09 10:19:47.506339
2423  2023-11-09 10:19:47.538244
2424  2023-11-09 10:19:47.570172
2425  2023-11-09 10:19:47.602064
2426  2023-11-09 10:19:47.634078
2427  2023-11-09 10:19:47.665949
2428  2023-11-09 10:19:47.697895
2429  2023-11-09 10:19:47.729778
2430  2023-11-09 10:19:47.761864
2431  2023-11-09 10:19:47.793775
2432  2023-11-09 10:19:47.841648
2433  2023-11-09 10:19:47.873562
2434  2023-11-09 10:19:47.906477
2435  2023-11-09 10:19:47.937396
2436  2023-11-09 10:19:47.970302
2437  2023-11-09 10:19:48.002220
2438  2023-11-09 10:19:48.034135
2439  2023-11-09 10:19:48.066065
2440  2023-11-09 10:19:48.097963
2441  2023-11-09 10:19:48.129843
2442  2023-11-09 10:19:48.161797
2443  2023-11-09 10:19:48.193715
2444  2023-11-09 10:19:48.241657
2445  2023-11-09 10:19:48.273577
2446  2023-11-09 10:19:48.305491
2447  2023-11-09 10:19:48.338368
2448  2023-11-09 10:19:48.370283
2449  2023-11-09 10:19:48.402234
2450  2023-11-09 10:19:48.434151
2451  2023-11-09 10:19:48.466058
2452  2023-11-09 10:19:48.497977
2453  2023-11-09 10:19:48.529857
2454  2023-11-09 10:19:48.561804
2455  2023-11-09 10:19:48.593732
2456  2023-11-09 10:19:48.642586
2457  2023-11-09 10:19:48.673505
2458  2023-11-09 10:19:48.705418
2459  2023-11-09 10:19:48.738303
2460  2023-11-09 10:19:48.770214
2461  2023-11-09 10:19:48.802161
2462  2023-11-09 10:19:48.834077
2463  2023-11-09 10:19:48.866001
2464  2023-11-09 10:19:48.897881
2465  2023-11-09 10:19:48.929787
2466  2023-11-09 10:19:48.961737
2467  2023-11-09 10:19:48.993663
2468  2023-11-09 10:19:49.041526
2469  2023-11-09 10:19:49.074401
2470  2023-11-09 10:19:49.106333
2471  2023-11-09 10:19:49.138230
2472  2023-11-09 10:19:49.170144
2473  2023-11-09 10:19:49.202091
2474  2023-11-09 10:19:49.234017
2475  2023-11-09 10:19:49.265924
2476  2023-11-09 10:19:49.297816
2477  2023-11-09 10:19:49.329723
2478  2023-11-09 10:19:49.361670
2479  2023-11-09 10:19:49.393597
2480  2023-11-09 10:19:49.441426
2481  2023-11-09 10:19:49.474377
2482  2023-11-09 10:19:49.506284
2483  2023-11-09 10:19:49.538338
2484  2023-11-09 10:19:49.570310
2485  2023-11-09 10:19:49.602198
2486  2023-11-09 10:19:49.634120
2487  2023-11-09 10:19:49.666033
2488  2023-11-09 10:19:49.697964
2489  2023-11-09 10:19:49.729825
2490  2023-11-09 10:19:49.761772
2491  2023-11-09 10:19:49.793708
2492  2023-11-09 10:19:49.841564
2493  2023-11-09 10:19:49.873476
2494  2023-11-09 10:19:49.906387
2495  2023-11-09 10:19:49.938270
2496  2023-11-09 10:19:49.970183
2497  2023-11-09 10:19:50.002133
2498  2023-11-09 10:19:50.034046
2499  2023-11-09 10:19:50.065965
2500  2023-11-09 10:19:50.097842
2501  2023-11-09 10:19:50.129756
2502  2023-11-09 10:19:50.161701
2503  2023-11-09 10:19:50.193618
2504  2023-11-09 10:19:50.241565
2505  2023-11-09 10:19:50.273550
2506  2023-11-09 10:19:50.305465
2507  2023-11-09 10:19:50.338343
2508  2023-11-09 10:19:50.370257
2509  2023-11-09 10:19:50.402203
2510  2023-11-09 10:19:50.434119
2511  2023-11-09 10:19:50.466032
2512  2023-11-09 10:19:50.497916
2513  2023-11-09 10:19:50.529831
2514  2023-11-09 10:19:50.561777
2515  2023-11-09 10:19:50.594658
2516  2023-11-09 10:19:50.641565
2517  2023-11-09 10:19:50.673480
2518  2023-11-09 10:19:50.706359
2519  2023-11-09 10:19:50.738342
2520  2023-11-09 10:19:50.770259
2521  2023-11-09 10:19:50.802171
2522  2023-11-09 10:19:50.834120
2523  2023-11-09 10:19:50.866019
2524  2023-11-09 10:19:50.897922
2525  2023-11-09 10:19:50.929829
2526  2023-11-09 10:19:50.961744
2527  2023-11-09 10:19:50.993660
2528  2023-11-09 10:19:51.041654
2529  2023-11-09 10:19:51.073570
2530  2023-11-09 10:19:51.106513
2531  2023-11-09 10:19:51.137435
2532  2023-11-09 10:19:51.170311
2533  2023-11-09 10:19:51.202261
2534  2023-11-09 10:19:51.234192
2535  2023-11-09 10:19:51.266054
2536  2023-11-09 10:19:51.297969
2537  2023-11-09 10:19:51.329899
2538  2023-11-09 10:19:51.361829
2539  2023-11-09 10:19:51.393745
2540  2023-11-09 10:19:51.441677
2541  2023-11-09 10:19:51.473628
2542  2023-11-09 10:19:51.506502
2543  2023-11-09 10:19:51.537466
2544  2023-11-09 10:19:51.570388
2545  2023-11-09 10:19:51.602246
2546  2023-11-09 10:19:51.634160
2547  2023-11-09 10:19:51.666075
2548  2023-11-09 10:19:51.698021
2549  2023-11-09 10:19:51.729904
2550  2023-11-09 10:19:51.761819
2551  2023-11-09 10:19:51.793766
2552  2023-11-09 10:19:51.841605
2553  2023-11-09 10:19:51.873571
2554  2023-11-09 10:19:51.905474
2555  2023-11-09 10:19:51.938347
2556  2023-11-09 10:19:51.970262
2557  2023-11-09 10:19:52.002176
2558  2023-11-09 10:19:52.034196
2559  2023-11-09 10:19:52.066172
2560  2023-11-09 10:19:52.098141
2561  2023-11-09 10:19:52.130075
2562  2023-11-09 10:19:52.161990
2563  2023-11-09 10:19:52.193905
2564  2023-11-09 10:19:52.241777
2565  2023-11-09 10:19:52.273691
2566  2023-11-09 10:19:52.305606
2567  2023-11-09 10:19:52.337521
2568  2023-11-09 10:19:52.369435
2569  2023-11-09 10:19:52.402348
2570  2023-11-09 10:19:52.434265
2571  2023-11-09 10:19:52.466177
2572  2023-11-09 10:19:52.498091
2573  2023-11-09 10:19:52.530007
2574  2023-11-09 10:19:52.561952
2575  2023-11-09 10:19:52.593839
2576  2023-11-09 10:19:52.641847
2577  2023-11-09 10:19:52.673762
2578  2023-11-09 10:19:52.705677
2579  2023-11-09 10:19:52.737628
2580  2023-11-09 10:19:52.769506
2581  2023-11-09 10:19:52.801421
2582  2023-11-09 10:19:52.834333
2583  2023-11-09 10:19:52.866372
2584  2023-11-09 10:19:52.898253
2585  2023-11-09 10:19:52.930168
2586  2023-11-09 10:19:52.962082
2587  2023-11-09 10:19:52.994036
2588  2023-11-09 10:19:53.041869
2589  2023-11-09 10:19:53.073815
2590  2023-11-09 10:19:53.105698
2591  2023-11-09 10:19:53.137613
2592  2023-11-09 10:19:53.169528
2593  2023-11-09 10:19:53.201563
2594  2023-11-09 10:19:53.233485
2595  2023-11-09 10:19:53.265399
2596  2023-11-09 10:19:53.298311
2597  2023-11-09 10:19:53.330302
2598  2023-11-09 10:19:53.362216
2599  2023-11-09 10:19:53.394132
2600  2023-11-09 10:19:53.442004
2601  2023-11-09 10:19:53.473919
2602  2023-11-09 10:19:53.505834
2603  2023-11-09 10:19:53.537748
2604  2023-11-09 10:19:53.569663
2605  2023-11-09 10:19:53.602575
2606  2023-11-09 10:19:53.633492
2607  2023-11-09 10:19:53.665407
2608  2023-11-09 10:19:53.698320
2609  2023-11-09 10:19:53.730273
2610  2023-11-09 10:19:53.762148
2611  2023-11-09 10:19:53.794063
2612  2023-11-09 10:19:53.841935
2613  2023-11-09 10:19:53.873850
2614  2023-11-09 10:19:53.905791
2615  2023-11-09 10:19:53.937710
2616  2023-11-09 10:19:53.969594
2617  2023-11-09 10:19:54.001508
2618  2023-11-09 10:19:54.034449
2619  2023-11-09 10:19:54.065501
2620  2023-11-09 10:19:54.098380
2621  2023-11-09 10:19:54.129421
2622  2023-11-09 10:19:54.162333
2623  2023-11-09 10:19:54.194248
2624  2023-11-09 10:19:54.242120
2625  2023-11-09 10:19:54.274034
2626  2023-11-09 10:19:54.305949
2627  2023-11-09 10:19:54.337864
2628  2023-11-09 10:19:54.369779
2629  2023-11-09 10:19:54.401775
2630  2023-11-09 10:19:54.433836
2631  2023-11-09 10:19:54.465746
2632  2023-11-09 10:19:54.497661
2633  2023-11-09 10:19:54.529575
2634  2023-11-09 10:19:54.561607
2635  2023-11-09 10:19:54.593522
2636  2023-11-09 10:19:54.641439
2637  2023-11-09 10:19:54.673354
2638  2023-11-09 10:19:54.705438
2639  2023-11-09 10:19:54.738351
2640  2023-11-09 10:19:54.770265
2641  2023-11-09 10:19:54.802179
2642  2023-11-09 10:19:54.834110
2643  2023-11-09 10:19:54.866009
2644  2023-11-09 10:19:54.897995
2645  2023-11-09 10:19:54.929909
2646  2023-11-09 10:19:54.961824
2647  2023-11-09 10:19:54.993808
2648  2023-11-09 10:19:55.041678
2649  2023-11-09 10:19:55.073564
2650  2023-11-09 10:19:55.105542
2651  2023-11-09 10:19:55.137455
2652  2023-11-09 10:19:55.170367
2653  2023-11-09 10:19:55.202282
2654  2023-11-09 10:19:55.234229
2655  2023-11-09 10:19:55.266111
2656  2023-11-09 10:19:55.298026
2657  2023-11-09 10:19:55.329941
2658  2023-11-09 10:19:55.362066
2659  2023-11-09 10:19:55.393948
2660  2023-11-09 10:19:55.441854
2661  2023-11-09 10:19:55.473734
2662  2023-11-09 10:19:55.505649
2663  2023-11-09 10:19:55.537605
2664  2023-11-09 10:19:55.569508
2665  2023-11-09 10:19:55.601393
2666  2023-11-09 10:19:55.634305
2667  2023-11-09 10:19:55.666220
2668  2023-11-09 10:19:55.698134
2669  2023-11-09 10:19:55.730049
2670  2023-11-09 10:19:55.761964
2671  2023-11-09 10:19:55.793890
2672  2023-11-09 10:19:55.841750
2673  2023-11-09 10:19:55.873665
2674  2023-11-09 10:19:55.905581
2675  2023-11-09 10:19:55.937525
2676  2023-11-09 10:19:55.969409
2677  2023-11-09 10:19:56.002321
2678  2023-11-09 10:19:56.034269
2679  2023-11-09 10:19:56.066184
2680  2023-11-09 10:19:56.098065
2681  2023-11-09 10:19:56.129980
2682  2023-11-09 10:19:56.161928
2683  2023-11-09 10:19:56.193855
2684  2023-11-09 10:19:56.241724
2685  2023-11-09 10:19:56.273627
2686  2023-11-09 10:19:56.305510
2687  2023-11-09 10:19:56.337425
2688  2023-11-09 10:19:56.369374
2689  2023-11-09 10:19:56.402283
2690  2023-11-09 10:19:56.434166
2691  2023-11-09 10:19:56.466127
2692  2023-11-09 10:19:56.498042
2693  2023-11-09 10:19:56.529957
2694  2023-11-09 10:19:56.561871
2695  2023-11-09 10:19:56.593786
2696  2023-11-09 10:19:56.641658
2697  2023-11-09 10:19:56.673573
2698  2023-11-09 10:19:56.705488
2699  2023-11-09 10:19:56.737402
2700  2023-11-09 10:19:56.770314
2701  2023-11-09 10:19:56.802229
2702  2023-11-09 10:19:56.834275
2703  2023-11-09 10:19:56.866190
2704  2023-11-09 10:19:56.898116
2705  2023-11-09 10:19:56.930019
2706  2023-11-09 10:19:56.961934
2707  2023-11-09 10:19:56.993848
2708  2023-11-09 10:19:57.041720
2709  2023-11-09 10:19:57.073635
2710  2023-11-09 10:19:57.105597
2711  2023-11-09 10:19:57.137560
2712  2023-11-09 10:19:57.169474
2713  2023-11-09 10:19:57.201421
2714  2023-11-09 10:19:57.234335
2715  2023-11-09 10:19:57.266216
2716  2023-11-09 10:19:57.298131
2717  2023-11-09 10:19:57.330045
2718  2023-11-09 10:19:57.362004
2719  2023-11-09 10:19:57.393919
2720  2023-11-09 10:19:57.441791
2721  2023-11-09 10:19:57.473705
2722  2023-11-09 10:19:57.505620
2723  2023-11-09 10:19:57.537535
2724  2023-11-09 10:19:57.569449
2725  2023-11-09 10:19:57.601364
2726  2023-11-09 10:19:57.634276
2727  2023-11-09 10:19:57.666191
2728  2023-11-09 10:19:57.698113
2729  2023-11-09 10:19:57.730020
2730  2023-11-09 10:19:57.761935
2731  2023-11-09 10:19:57.793850
2732  2023-11-09 10:19:57.841826
2733  2023-11-09 10:19:57.873732
2734  2023-11-09 10:19:57.905711
2735  2023-11-09 10:19:57.937742
2736  2023-11-09 10:19:57.969666
2737  2023-11-09 10:19:58.001580
2738  2023-11-09 10:19:58.033525
2739  2023-11-09 10:19:58.066442
2740  2023-11-09 10:19:58.098322
2741  2023-11-09 10:19:58.130236
2742  2023-11-09 10:19:58.162185
2743  2023-11-09 10:19:58.194202
2744  2023-11-09 10:19:58.242077
2745  2023-11-09 10:19:58.274004
2746  2023-11-09 10:19:58.305884
2747  2023-11-09 10:19:58.337874
2748  2023-11-09 10:19:58.369821
2749  2023-11-09 10:19:58.401735
2750  2023-11-09 10:19:58.433618
2751  2023-11-09 10:19:58.466530
2752  2023-11-09 10:19:58.497448
2753  2023-11-09 10:19:58.530360
2754  2023-11-09 10:19:58.562287
2755  2023-11-09 10:19:58.594189
2756  2023-11-09 10:19:58.642197
2757  2023-11-09 10:19:58.674111
2758  2023-11-09 10:19:58.706026
2759  2023-11-09 10:19:58.737941
2760  2023-11-09 10:19:58.769855
2761  2023-11-09 10:19:58.801770
2762  2023-11-09 10:19:58.833685
2763  2023-11-09 10:19:58.865599
2764  2023-11-09 10:19:58.897614
2765  2023-11-09 10:19:58.929529
2766  2023-11-09 10:19:58.961444
2767  2023-11-09 10:19:58.994356
2768  2023-11-09 10:19:59.042228
2769  2023-11-09 10:19:59.074143
2770  2023-11-09 10:19:59.106063
2771  2023-11-09 10:19:59.137972
2772  2023-11-09 10:19:59.169887
2773  2023-11-09 10:19:59.201804
2774  2023-11-09 10:19:59.233717
2775  2023-11-09 10:19:59.265633
2776  2023-11-09 10:19:59.297546
2777  2023-11-09 10:19:59.329461
2778  2023-11-09 10:19:59.362374
2779  2023-11-09 10:19:59.394288
2780  2023-11-09 10:19:59.442161
2781  2023-11-09 10:19:59.474113
2782  2023-11-09 10:19:59.506028
2783  2023-11-09 10:19:59.537943
2784  2023-11-09 10:19:59.569857
2785  2023-11-09 10:19:59.601772
2786  2023-11-09 10:19:59.633687
2787  2023-11-09 10:19:59.666599
2788  2023-11-09 10:19:59.697693
2789  2023-11-09 10:19:59.730606
2790  2023-11-09 10:19:59.761523
2791  2023-11-09 10:19:59.793437
2792  2023-11-09 10:19:59.842307
2793  2023-11-09 10:19:59.874223
2794  2023-11-09 10:19:59.906169
2795  2023-11-09 10:19:59.938085
2796  2023-11-09 10:19:59.969966
2797  2023-11-09 10:20:00.001893
2798  2023-11-09 10:20:00.033842
2799  2023-11-09 10:20:00.065740
2800  2023-11-09 10:20:00.097624
2801  2023-11-09 10:20:00.130536
2802  2023-11-09 10:20:00.161454
2803  2023-11-09 10:20:00.193504
2804  2023-11-09 10:20:00.241477
2805  2023-11-09 10:20:00.273383
2806  2023-11-09 10:20:00.306258
2807  2023-11-09 10:20:00.338172
2808  2023-11-09 10:20:00.370118
2809  2023-11-09 10:20:00.402036
2810  2023-11-09 10:20:00.433916
2811  2023-11-09 10:20:00.465831
2812  2023-11-09 10:20:00.497746
2813  2023-11-09 10:20:00.529697
2814  2023-11-09 10:20:00.563607
2815  2023-11-09 10:20:00.593490
2816  2023-11-09 10:20:00.642359
2817  2023-11-09 10:20:00.674274
2818  2023-11-09 10:20:00.707220
2819  2023-11-09 10:20:00.738149
2820  2023-11-09 10:20:00.771049
2821  2023-11-09 10:20:00.801933
2822  2023-11-09 10:20:00.833847
2823  2023-11-09 10:20:00.867798
2824  2023-11-09 10:20:00.899702
2825  2023-11-09 10:20:00.931619
2826  2023-11-09 10:20:00.961506
2827  2023-11-09 10:20:00.993458
2828  2023-11-09 10:20:01.043318
2829  2023-11-09 10:20:01.075236
2830  2023-11-09 10:20:01.107154
2831  2023-11-09 10:20:01.139065
2832  2023-11-09 10:20:01.170978
2833  2023-11-09 10:20:01.202894
2834  2023-11-09 10:20:01.234806
2835  2023-11-09 10:20:01.267688
2836  2023-11-09 10:20:01.299652
2837  2023-11-09 10:20:01.331574
2838  2023-11-09 10:20:01.363477
2839  2023-11-09 10:20:01.395380
2840  2023-11-09 10:20:01.443254
2841  2023-11-09 10:20:01.475167
2842  2023-11-09 10:20:01.507080
2843  2023-11-09 10:20:01.538996
2844  2023-11-09 10:20:01.570909
2845  2023-11-09 10:20:01.602825
2846  2023-11-09 10:20:01.634741
2847  2023-11-09 10:20:01.666654
2848  2023-11-09 10:20:01.698537
2849  2023-11-09 10:20:01.731482
2850  2023-11-09 10:20:01.763395
2851  2023-11-09 10:20:01.795312
2852  2023-11-09 10:20:01.843181
2853  2023-11-09 10:20:01.875098
2854  2023-11-09 10:20:01.907012
2855  2023-11-09 10:20:01.938930
2856  2023-11-09 10:20:01.970839
2857  2023-11-09 10:20:02.002755
2858  2023-11-09 10:20:02.034670
2859  2023-11-09 10:20:02.066584
2860  2023-11-09 10:20:02.098502
2861  2023-11-09 10:20:02.130414
2862  2023-11-09 10:20:02.163342
2863  2023-11-09 10:20:02.194242
2864  2023-11-09 10:20:02.243113
2865  2023-11-09 10:20:02.274030
2866  2023-11-09 10:20:02.305945
2867  2023-11-09 10:20:02.338827
2868  2023-11-09 10:20:02.370789
2869  2023-11-09 10:20:02.402695
2870  2023-11-09 10:20:02.434599
2871  2023-11-09 10:20:02.466516
2872  2023-11-09 10:20:02.498430
2873  2023-11-09 10:20:02.530362
2874  2023-11-09 10:20:02.562278
2875  2023-11-09 10:20:02.594201
2876  2023-11-09 10:20:02.642048
2877  2023-11-09 10:20:02.673960
2878  2023-11-09 10:20:02.705875
2879  2023-11-09 10:20:02.737798
2880  2023-11-09 10:20:02.769705
2881  2023-11-09 10:20:02.802618
2882  2023-11-09 10:20:02.834536
2883  2023-11-09 10:20:02.866446
2884  2023-11-09 10:20:02.898387
2885  2023-11-09 10:20:02.930243
2886  2023-11-09 10:20:02.962191
2887  2023-11-09 10:20:02.994106
2888  2023-11-09 10:20:03.041978
2889  2023-11-09 10:20:03.073893
2890  2023-11-09 10:20:03.105812
2891  2023-11-09 10:20:03.137725
2892  2023-11-09 10:20:03.170601
2893  2023-11-09 10:20:03.201675
2894  2023-11-09 10:20:03.234602
2895  2023-11-09 10:20:03.265652
2896  2023-11-09 10:20:03.297568
2897  2023-11-09 10:20:03.330450
2898  2023-11-09 10:20:03.362390
2899  2023-11-09 10:20:03.394321
2900  2023-11-09 10:20:03.442145
2901  2023-11-09 10:20:03.474058
2902  2023-11-09 10:20:03.507003
2903  2023-11-09 10:20:03.538920
2904  2023-11-09 10:20:03.569835
2905  2023-11-09 10:20:03.601747
2906  2023-11-09 10:20:03.633631
2907  2023-11-09 10:20:03.667572
2908  2023-11-09 10:20:03.697506
2909  2023-11-09 10:20:03.731401
2910  2023-11-09 10:20:03.762289
2911  2023-11-09 10:20:03.794204
2912  2023-11-09 10:20:03.842118
2913  2023-11-09 10:20:03.873991
2914  2023-11-09 10:20:03.906941
2915  2023-11-09 10:20:03.938848
2916  2023-11-09 10:20:03.970761
2917  2023-11-09 10:20:04.001659
2918  2023-11-09 10:20:04.033594
2919  2023-11-09 10:20:04.066521
2920  2023-11-09 10:20:04.098436
2921  2023-11-09 10:20:04.130334
2922  2023-11-09 10:20:04.162219
2923  2023-11-09 10:20:04.194165
2924  2023-11-09 10:20:04.242203
2925  2023-11-09 10:20:04.274021
2926  2023-11-09 10:20:04.306934
2927  2023-11-09 10:20:04.337819
2928  2023-11-09 10:20:04.370735
2929  2023-11-09 10:20:04.401648
2930  2023-11-09 10:20:04.433648
2931  2023-11-09 10:20:04.466595
2932  2023-11-09 10:20:04.498506
2933  2023-11-09 10:20:04.531422
2934  2023-11-09 10:20:04.562338
2935  2023-11-09 10:20:04.594252
2936  2023-11-09 10:20:04.642090
2937  2023-11-09 10:20:04.674005
2938  2023-11-09 10:20:04.705954
2939  2023-11-09 10:20:04.738868
2940  2023-11-09 10:20:04.770790
2941  2023-11-09 10:20:04.801664
2942  2023-11-09 10:20:04.833579
2943  2023-11-09 10:20:04.866505
2944  2023-11-09 10:20:04.898437
2945  2023-11-09 10:20:04.930354
2946  2023-11-09 10:20:04.962270
2947  2023-11-09 10:20:04.994183
2948  2023-11-09 10:20:05.042055
2949  2023-11-09 10:20:05.073969
2950  2023-11-09 10:20:05.105884
2951  2023-11-09 10:20:05.138794
2952  2023-11-09 10:20:05.169717
2953  2023-11-09 10:20:05.201627
2954  2023-11-09 10:20:05.233511
2955  2023-11-09 10:20:05.266453
2956  2023-11-09 10:20:05.298374
2957  2023-11-09 10:20:05.330287
2958  2023-11-09 10:20:05.362200
2959  2023-11-09 10:20:05.394114
2960  2023-11-09 10:20:05.441960
2961  2023-11-09 10:20:05.473868
2962  2023-11-09 10:20:05.505818
2963  2023-11-09 10:20:05.538725
2964  2023-11-09 10:20:05.569645
2965  2023-11-09 10:20:05.602578
2966  2023-11-09 10:20:05.634439
2967  2023-11-09 10:20:05.666388
2968  2023-11-09 10:20:05.698303
2969  2023-11-09 10:20:05.730240
2970  2023-11-09 10:20:05.762155
2971  2023-11-09 10:20:05.794045
2972  2023-11-09 10:20:05.841915
2973  2023-11-09 10:20:05.873799
2974  2023-11-09 10:20:05.905743
2975  2023-11-09 10:20:05.938657
2976  2023-11-09 10:20:05.969573
2977  2023-11-09 10:20:06.002454
2978  2023-11-09 10:20:06.033405
2979  2023-11-09 10:20:06.066319
2980  2023-11-09 10:20:06.098229
2981  2023-11-09 10:20:06.130145
2982  2023-11-09 10:20:06.162058
2983  2023-11-09 10:20:06.193974
2984  2023-11-09 10:20:06.241847
2985  2023-11-09 10:20:06.273730
2986  2023-11-09 10:20:06.305644
2987  2023-11-09 10:20:06.337590
2988  2023-11-09 10:20:06.369513
2989  2023-11-09 10:20:06.402386
2990  2023-11-09 10:20:06.434341
2991  2023-11-09 10:20:06.466249
2992  2023-11-09 10:20:06.498196
2993  2023-11-09 10:20:06.530078
2994  2023-11-09 10:20:06.561959
2995  2023-11-09 10:20:06.593904
2996  2023-11-09 10:20:06.641788
2997  2023-11-09 10:20:06.673660
2998  2023-11-09 10:20:06.705614
2999  2023-11-09 10:20:06.738489
3000  2023-11-09 10:20:06.770473
3001  2023-11-09 10:20:06.801426
3002  2023-11-09 10:20:06.834303
3003  2023-11-09 10:20:06.866268
3004  2023-11-09 10:20:06.898225
3005  2023-11-09 10:20:06.930130
3006  2023-11-09 10:20:06.962044
3007  2023-11-09 10:20:06.993956
3008  2023-11-09 10:20:07.041834
3009  2023-11-09 10:20:07.073743
3010  2023-11-09 10:20:07.105659
3011  2023-11-09 10:20:07.137574
3012  2023-11-09 10:20:07.169495
3013  2023-11-09 10:20:07.202402
3014  2023-11-09 10:20:07.234323
3015  2023-11-09 10:20:07.266197
3016  2023-11-09 10:20:07.298145
3017  2023-11-09 10:20:07.330061
3018  2023-11-09 10:20:07.361976
3019  2023-11-09 10:20:07.393898
3020  2023-11-09 10:20:07.441761
3021  2023-11-09 10:20:07.473676
3022  2023-11-09 10:20:07.505589
3023  2023-11-09 10:20:07.537504
3024  2023-11-09 10:20:07.569429
3025  2023-11-09 10:20:07.602333
3026  2023-11-09 10:20:07.634213
3027  2023-11-09 10:20:07.666163
3028  2023-11-09 10:20:07.698075
3029  2023-11-09 10:20:07.729988
3030  2023-11-09 10:20:07.761905
3031  2023-11-09 10:20:07.793829
3032  2023-11-09 10:20:07.841693
3033  2023-11-09 10:20:07.873614
3034  2023-11-09 10:20:07.906522
3035  2023-11-09 10:20:07.938475
3036  2023-11-09 10:20:07.969348
3037  2023-11-09 10:20:08.002262
3038  2023-11-09 10:20:08.034144
3039  2023-11-09 10:20:08.066091
3040  2023-11-09 10:20:08.098004
3041  2023-11-09 10:20:08.129920
3042  2023-11-09 10:20:08.161854
3043  2023-11-09 10:20:08.193754
3044  2023-11-09 10:20:08.241623
3045  2023-11-09 10:20:08.273640
3046  2023-11-09 10:20:08.305580
3047  2023-11-09 10:20:08.337535
3048  2023-11-09 10:20:08.369448
3049  2023-11-09 10:20:08.402362
3050  2023-11-09 10:20:08.434272
3051  2023-11-09 10:20:08.466151
3052  2023-11-09 10:20:08.498104
3053  2023-11-09 10:20:08.530017
3054  2023-11-09 10:20:08.561932
3055  2023-11-09 10:20:08.593847
3056  2023-11-09 10:20:08.641839
3057  2023-11-09 10:20:08.673748
3058  2023-11-09 10:20:08.705752
3059  2023-11-09 10:20:08.737705
3060  2023-11-09 10:20:08.769619
3061  2023-11-09 10:20:08.801528
3062  2023-11-09 10:20:08.833451
3063  2023-11-09 10:20:08.866360
3064  2023-11-09 10:20:08.898272
3065  2023-11-09 10:20:08.930187
3066  2023-11-09 10:20:08.962100
3067  2023-11-09 10:20:08.994016
3068  2023-11-09 10:20:09.041887
3069  2023-11-09 10:20:09.073799
3070  2023-11-09 10:20:09.105737
3071  2023-11-09 10:20:09.137598
3072  2023-11-09 10:20:09.169546
3073  2023-11-09 10:20:09.201459
3074  2023-11-09 10:20:09.233375
3075  2023-11-09 10:20:09.266305
3076  2023-11-09 10:20:09.298203
3077  2023-11-09 10:20:09.330116
3078  2023-11-09 10:20:09.362032
3079  2023-11-09 10:20:09.393950
3080  2023-11-09 10:20:09.441818
3081  2023-11-09 10:20:09.473734
3082  2023-11-09 10:20:09.505614
3083  2023-11-09 10:20:09.537564
3084  2023-11-09 10:20:09.569476
3085  2023-11-09 10:20:09.602389
3086  2023-11-09 10:20:09.634317
3087  2023-11-09 10:20:09.666228
3088  2023-11-09 10:20:09.698134
3089  2023-11-09 10:20:09.730014
3090  2023-11-09 10:20:09.761964
3091  2023-11-09 10:20:09.793876
3092  2023-11-09 10:20:09.841749
3093  2023-11-09 10:20:09.873671
3094  2023-11-09 10:20:09.905545
3095  2023-11-09 10:20:09.938457
3096  2023-11-09 10:20:09.970382
3097  2023-11-09 10:20:10.002286
3098  2023-11-09 10:20:10.034201
3099  2023-11-09 10:20:10.066116
3100  2023-11-09 10:20:10.098030
3101  2023-11-09 10:20:10.129945
3102  2023-11-09 10:20:10.161860
3103  2023-11-09 10:20:10.193811
3104  2023-11-09 10:20:10.241682
3105  2023-11-09 10:20:10.273604
3106  2023-11-09 10:20:10.305625
3107  2023-11-09 10:20:10.337686
3108  2023-11-09 10:20:10.369635
3109  2023-11-09 10:20:10.401517
3110  2023-11-09 10:20:10.434427
3111  2023-11-09 10:20:10.466416
3112  2023-11-09 10:20:10.498288
3113  2023-11-09 10:20:10.530205
3114  2023-11-09 10:20:10.562119
3115  2023-11-09 10:20:10.594035
3116  2023-11-09 10:20:10.641904
3117  2023-11-09 10:20:10.673819
3118  2023-11-09 10:20:10.705741
3119  2023-11-09 10:20:10.737652
3120  2023-11-09 10:20:10.769571
3121  2023-11-09 10:20:10.801483
3122  2023-11-09 10:20:10.833391
3123  2023-11-09 10:20:10.866304
3124  2023-11-09 10:20:10.898222
3125  2023-11-09 10:20:10.930136
3126  2023-11-09 10:20:10.962048
3127  2023-11-09 10:20:10.993972
3128  2023-11-09 10:20:11.041853
3129  2023-11-09 10:20:11.073810
3130  2023-11-09 10:20:11.105724
3131  2023-11-09 10:20:11.137683
3132  2023-11-09 10:20:11.169583
3133  2023-11-09 10:20:11.201498
3134  2023-11-09 10:20:11.233425
3135  2023-11-09 10:20:11.266351
3136  2023-11-09 10:20:11.298245
3137  2023-11-09 10:20:11.330156
3138  2023-11-09 10:20:11.362040
3139  2023-11-09 10:20:11.394988
3140  2023-11-09 10:20:11.441869
3141  2023-11-09 10:20:11.473792
3142  2023-11-09 10:20:11.505688
3143  2023-11-09 10:20:11.537617
3144  2023-11-09 10:20:11.570482
3145  2023-11-09 10:20:11.602403
3146  2023-11-09 10:20:11.634353
3147  2023-11-09 10:20:11.666275
3148  2023-11-09 10:20:11.698142
3149  2023-11-09 10:20:11.730059
3150  2023-11-09 10:20:11.762001
3151  2023-11-09 10:20:11.793916
3152  2023-11-09 10:20:11.841788
3153  2023-11-09 10:20:11.873706
3154  2023-11-09 10:20:11.905623
3155  2023-11-09 10:20:11.938559
3156  2023-11-09 10:20:11.969415
3157  2023-11-09 10:20:12.002360
3158  2023-11-09 10:20:12.034287
3159  2023-11-09 10:20:12.066203
3160  2023-11-09 10:20:12.098072
3161  2023-11-09 10:20:12.130021
3162  2023-11-09 10:20:12.161934
3163  2023-11-09 10:20:12.193858
3164  2023-11-09 10:20:12.241736
3165  2023-11-09 10:20:12.273637
3166  2023-11-09 10:20:12.305550
3167  2023-11-09 10:20:12.338429
3168  2023-11-09 10:20:12.370391
3169  2023-11-09 10:20:12.402302
3170  2023-11-09 10:20:12.434206
3171  2023-11-09 10:20:12.466121
3172  2023-11-09 10:20:12.498038
3173  2023-11-09 10:20:12.529956
3174  2023-11-09 10:20:12.561874
3175  2023-11-09 10:20:12.593777
3176  2023-11-09 10:20:12.641652
3177  2023-11-09 10:20:12.673569
3178  2023-11-09 10:20:12.706480
3179  2023-11-09 10:20:12.738360
3180  2023-11-09 10:20:12.770275
3181  2023-11-09 10:20:12.802220
3182  2023-11-09 10:20:12.834146
3183  2023-11-09 10:20:12.866086
3184  2023-11-09 10:20:12.897967
3185  2023-11-09 10:20:12.930003
3186  2023-11-09 10:20:12.961922
3187  2023-11-09 10:20:12.993840
3188  2023-11-09 10:20:13.041797
3189  2023-11-09 10:20:13.073712
3190  2023-11-09 10:20:13.105597
3191  2023-11-09 10:20:13.138504
3192  2023-11-09 10:20:13.169452
3193  2023-11-09 10:20:13.202363
3194  2023-11-09 10:20:13.234248
3195  2023-11-09 10:20:13.266194
3196  2023-11-09 10:20:13.298109
3197  2023-11-09 10:20:13.329990
3198  2023-11-09 10:20:13.361934
3199  2023-11-09 10:20:13.393870
3200  2023-11-09 10:20:13.441763
3201  2023-11-09 10:20:13.473682
3202  2023-11-09 10:20:13.505694
3203  2023-11-09 10:20:13.537606
3204  2023-11-09 10:20:13.569520
3205  2023-11-09 10:20:13.601441
3206  2023-11-09 10:20:13.634345
3207  2023-11-09 10:20:13.666274
3208  2023-11-09 10:20:13.698175
3209  2023-11-09 10:20:13.730057
3210  2023-11-09 10:20:13.762023
3211  2023-11-09 10:20:13.794036
3212  2023-11-09 10:20:13.841886
3213  2023-11-09 10:20:13.873802
3214  2023-11-09 10:20:13.905731
3215  2023-11-09 10:20:13.937599
3216  2023-11-09 10:20:13.970512
3217  2023-11-09 10:20:14.001461
3218  2023-11-09 10:20:14.034374
3219  2023-11-09 10:20:14.066257
3220  2023-11-09 10:20:14.098170
3221  2023-11-09 10:20:14.130085
3222  2023-11-09 10:20:14.162034
3223  2023-11-09 10:20:14.194945
3224  2023-11-09 10:20:14.241786
3225  2023-11-09 10:20:14.273752
3226  2023-11-09 10:20:14.305650
3227  2023-11-09 10:20:14.337560
3228  2023-11-09 10:20:14.369445
3229  2023-11-09 10:20:14.402359
3230  2023-11-09 10:20:14.434272
3231  2023-11-09 10:20:14.466227
3232  2023-11-09 10:20:14.498134
3233  2023-11-09 10:20:14.530051
3234  2023-11-09 10:20:14.561931
3235  2023-11-09 10:20:14.593877
3236  2023-11-09 10:20:14.641717
3237  2023-11-09 10:20:14.673669
3238  2023-11-09 10:20:14.705579
3239  2023-11-09 10:20:14.737495
3240  2023-11-09 10:20:14.770373
3241  2023-11-09 10:20:14.802288
3242  2023-11-09 10:20:14.834236
3243  2023-11-09 10:20:14.866160
3244  2023-11-09 10:20:14.898066
3245  2023-11-09 10:20:14.929947
3246  2023-11-09 10:20:14.961861
3247  2023-11-09 10:20:14.993815
3248  2023-11-09 10:20:15.041648
3249  2023-11-09 10:20:15.073682
3250  2023-11-09 10:20:15.105641
3251  2023-11-09 10:20:15.137549
3252  2023-11-09 10:20:15.169427
3253  2023-11-09 10:20:15.202339
3254  2023-11-09 10:20:15.234265
3255  2023-11-09 10:20:15.266201
3256  2023-11-09 10:20:15.298126
3257  2023-11-09 10:20:15.329998
3258  2023-11-09 10:20:15.361912
3259  2023-11-09 10:20:15.394826
3260  2023-11-09 10:20:15.441704
3261  2023-11-09 10:20:15.473650
3262  2023-11-09 10:20:15.505561
3263  2023-11-09 10:20:15.538441
3264  2023-11-09 10:20:15.570377
3265  2023-11-09 10:20:15.602315
3266  2023-11-09 10:20:15.634185
3267  2023-11-09 10:20:15.666099
3268  2023-11-09 10:20:15.698053
3269  2023-11-09 10:20:15.729930
3270  2023-11-09 10:20:15.761848
3271  2023-11-09 10:20:15.793790
3272  2023-11-09 10:20:15.841630
3273  2023-11-09 10:20:15.873575
3274  2023-11-09 10:20:15.905493
3275  2023-11-09 10:20:15.937410
3276  2023-11-09 10:20:15.970286
3277  2023-11-09 10:20:16.002201
3278  2023-11-09 10:20:16.034157
3279  2023-11-09 10:20:16.066070
3280  2023-11-09 10:20:16.097980
3281  2023-11-09 10:20:16.129859
3282  2023-11-09 10:20:16.161747
3283  2023-11-09 10:20:16.193745
3284  2023-11-09 10:20:16.241612
3285  2023-11-09 10:20:16.273549
3286  2023-11-09 10:20:16.305442
3287  2023-11-09 10:20:16.338337
3288  2023-11-09 10:20:16.370275
3289  2023-11-09 10:20:16.402185
3290  2023-11-09 10:20:16.434107
3291  2023-11-09 10:20:16.466022
3292  2023-11-09 10:20:16.498018
3293  2023-11-09 10:20:16.529988
3294  2023-11-09 10:20:16.561887
3295  2023-11-09 10:20:16.593873
3296  2023-11-09 10:20:16.641674
3297  2023-11-09 10:20:16.673589
3298  2023-11-09 10:20:16.705538
3299  2023-11-09 10:20:16.737451
3300  2023-11-09 10:20:16.770330
3301  2023-11-09 10:20:16.802245
3302  2023-11-09 10:20:16.834160
3303  2023-11-09 10:20:16.866162
3304  2023-11-09 10:20:16.898133
3305  2023-11-09 10:20:16.930014
3306  2023-11-09 10:20:16.961929
3307  2023-11-09 10:20:16.993877
3308  2023-11-09 10:20:17.041719
3309  2023-11-09 10:20:17.073630
3310  2023-11-09 10:20:17.106617
3311  2023-11-09 10:20:17.137629
3312  2023-11-09 10:20:17.170075
3313  2023-11-09 10:20:17.201952
3314  2023-11-09 10:20:17.233867
3315  2023-11-09 10:20:17.265781
3316  2023-11-09 10:20:17.297697
3317  2023-11-09 10:20:17.329617
3318  2023-11-09 10:20:17.361636
3319  2023-11-09 10:20:17.394486
3320  2023-11-09 10:20:17.442392
3321  2023-11-09 10:20:17.474272
3322  2023-11-09 10:20:17.506185
3323  2023-11-09 10:20:17.538218
3324  2023-11-09 10:20:17.570167
3325  2023-11-09 10:20:17.602048
3326  2023-11-09 10:20:17.633963
3327  2023-11-09 10:20:17.665927
3328  2023-11-09 10:20:17.697833
3329  2023-11-09 10:20:17.729737
3330  2023-11-09 10:20:17.761652
3331  2023-11-09 10:20:17.793537
3332  2023-11-09 10:20:17.841408
3333  2023-11-09 10:20:17.874320
3334  2023-11-09 10:20:17.906266
3335  2023-11-09 10:20:17.938184
3336  2023-11-09 10:20:17.970064
3337  2023-11-09 10:20:18.001978
3338  2023-11-09 10:20:18.033909
3339  2023-11-09 10:20:18.065847
3340  2023-11-09 10:20:18.097754
3341  2023-11-09 10:20:18.129671
3342  2023-11-09 10:20:18.161591
3343  2023-11-09 10:20:18.193512
3344  2023-11-09 10:20:18.242336
3345  2023-11-09 10:20:18.274251
3346  2023-11-09 10:20:18.306165
3347  2023-11-09 10:20:18.338080
3348  2023-11-09 10:20:18.369995
3349  2023-11-09 10:20:18.401909
3350  2023-11-09 10:20:18.433871
3351  2023-11-09 10:20:18.465739
3352  2023-11-09 10:20:18.497683
3353  2023-11-09 10:20:18.530606
3354  2023-11-09 10:20:18.562551
3355  2023-11-09 10:20:18.593506
3356  2023-11-09 10:20:18.641419
3357  2023-11-09 10:20:18.674335
3358  2023-11-09 10:20:18.706246
3359  2023-11-09 10:20:18.738199
3360  2023-11-09 10:20:18.770106
3361  2023-11-09 10:20:18.802005
3362  2023-11-09 10:20:18.833938
3363  2023-11-09 10:20:18.865873
3364  2023-11-09 10:20:18.897779
3365  2023-11-09 10:20:18.929693
3366  2023-11-09 10:20:18.961610
3367  2023-11-09 10:20:18.994525
3368  2023-11-09 10:20:19.041365
3369  2023-11-09 10:20:19.074310
3370  2023-11-09 10:20:19.106225
3371  2023-11-09 10:20:19.138106
3372  2023-11-09 10:20:19.170021
3373  2023-11-09 10:20:19.201965
3374  2023-11-09 10:20:19.233996
3375  2023-11-09 10:20:19.265908
3376  2023-11-09 10:20:19.297823
3377  2023-11-09 10:20:19.329744
3378  2023-11-09 10:20:19.361651
3379  2023-11-09 10:20:19.394575
3380  2023-11-09 10:20:19.441407
3381  2023-11-09 10:20:19.474328
3382  2023-11-09 10:20:19.506328
3383  2023-11-09 10:20:19.538201
3384  2023-11-09 10:20:19.570144
3385  2023-11-09 10:20:19.602026
3386  2023-11-09 10:20:19.633941
3387  2023-11-09 10:20:19.665856
3388  2023-11-09 10:20:19.697770
3389  2023-11-09 10:20:19.729686
3390  2023-11-09 10:20:19.761639
3391  2023-11-09 10:20:19.793518
3392  2023-11-09 10:20:19.841454
3393  2023-11-09 10:20:19.874366
3394  2023-11-09 10:20:19.906325
3395  2023-11-09 10:20:19.938228
3396  2023-11-09 10:20:19.970110
3397  2023-11-09 10:20:20.002025
3398  2023-11-09 10:20:20.034107
3399  2023-11-09 10:20:20.066031
3400  2023-11-09 10:20:20.097940
3401  2023-11-09 10:20:20.129860
3402  2023-11-09 10:20:20.161765
3403  2023-11-09 10:20:20.193683
3404  2023-11-09 10:20:20.241550
3405  2023-11-09 10:20:20.273466
3406  2023-11-09 10:20:20.306346
3407  2023-11-09 10:20:20.338260
3408  2023-11-09 10:20:20.370212
3409  2023-11-09 10:20:20.402122
3410  2023-11-09 10:20:20.434004
3411  2023-11-09 10:20:20.465899
3412  2023-11-09 10:20:20.497853
3413  2023-11-09 10:20:20.529761
3414  2023-11-09 10:20:20.561680
3415  2023-11-09 10:20:20.593557
3416  2023-11-09 10:20:20.641429
3417  2023-11-09 10:20:20.674341
3418  2023-11-09 10:20:20.706256
3419  2023-11-09 10:20:20.738171
3420  2023-11-09 10:20:20.770085
3421  2023-11-09 10:20:20.802000
3422  2023-11-09 10:20:20.833915
3423  2023-11-09 10:20:20.865830
3424  2023-11-09 10:20:20.897791
3425  2023-11-09 10:20:20.930656
3426  2023-11-09 10:20:20.961604
3427  2023-11-09 10:20:20.993488
3428  2023-11-09 10:20:21.042358
3429  2023-11-09 10:20:21.074272
3430  2023-11-09 10:20:21.107185
3431  2023-11-09 10:20:21.138101
3432  2023-11-09 10:20:21.170016
3433  2023-11-09 10:20:21.201965
3434  2023-11-09 10:20:21.233893
3435  2023-11-09 10:20:21.265760
3436  2023-11-09 10:20:21.297706
3437  2023-11-09 10:20:21.329621
3438  2023-11-09 10:20:21.362534
3439  2023-11-09 10:20:21.394454
3440  2023-11-09 10:20:21.442325
3441  2023-11-09 10:20:21.474203
3442  2023-11-09 10:20:21.506118
3443  2023-11-09 10:20:21.538032
3444  2023-11-09 10:20:21.569979
3445  2023-11-09 10:20:21.601862
3446  2023-11-09 10:20:21.633776
3447  2023-11-09 10:20:21.665691
3448  2023-11-09 10:20:21.697645
3449  2023-11-09 10:20:21.729552
3450  2023-11-09 10:20:21.761544
3451  2023-11-09 10:20:21.794503
3452  2023-11-09 10:20:21.841414
3453  2023-11-09 10:20:21.874326
3454  2023-11-09 10:20:21.906274
3455  2023-11-09 10:20:21.938156
3456  2023-11-09 10:20:21.970070
3457  2023-11-09 10:20:22.001985
3458  2023-11-09 10:20:22.033934
3459  2023-11-09 10:20:22.065873
3460  2023-11-09 10:20:22.097733
3461  2023-11-09 10:20:22.129677
3462  2023-11-09 10:20:22.161598
3463  2023-11-09 10:20:22.193505
3464  2023-11-09 10:20:22.242374
3465  2023-11-09 10:20:22.274296
3466  2023-11-09 10:20:22.306339
3467  2023-11-09 10:20:22.338253
3468  2023-11-09 10:20:22.370168
3469  2023-11-09 10:20:22.402083
3470  2023-11-09 10:20:22.434097
3471  2023-11-09 10:20:22.466024
3472  2023-11-09 10:20:22.497939
3473  2023-11-09 10:20:22.529893
3474  2023-11-09 10:20:22.561768
3475  2023-11-09 10:20:22.593683
3476  2023-11-09 10:20:22.641555
3477  2023-11-09 10:20:22.674467
3478  2023-11-09 10:20:22.706382
3479  2023-11-09 10:20:22.738390
3480  2023-11-09 10:20:22.770305
3481  2023-11-09 10:20:22.802220
3482  2023-11-09 10:20:22.834134
3483  2023-11-09 10:20:22.866049
3484  2023-11-09 10:20:22.897997
3485  2023-11-09 10:20:22.929878
3486  2023-11-09 10:20:22.961793
3487  2023-11-09 10:20:22.993708
3488  2023-11-09 10:20:23.041580
3489  2023-11-09 10:20:23.074528
3490  2023-11-09 10:20:23.106442
3491  2023-11-09 10:20:23.138323
3492  2023-11-09 10:20:23.170236
3493  2023-11-09 10:20:23.202184
3494  2023-11-09 10:20:23.234098
3495  2023-11-09 10:20:23.266048
3496  2023-11-09 10:20:23.297963
3497  2023-11-09 10:20:23.329915
3498  2023-11-09 10:20:23.361824
3499  2023-11-09 10:20:23.393707
3500  2023-11-09 10:20:23.441579
3501  2023-11-09 10:20:23.474491
3502  2023-11-09 10:20:23.505408
3503  2023-11-09 10:20:23.538320
3504  2023-11-09 10:20:23.570266
3505  2023-11-09 10:20:23.602372
3506  2023-11-09 10:20:23.634287
3507  2023-11-09 10:20:23.666201
3508  2023-11-09 10:20:23.698116
3509  2023-11-09 10:20:23.730147
3510  2023-11-09 10:20:23.762142
3511  2023-11-09 10:20:23.794060
3512  2023-11-09 10:20:23.841932
3513  2023-11-09 10:20:23.873847
3514  2023-11-09 10:20:23.905770
3515  2023-11-09 10:20:23.939723
3516  2023-11-09 10:20:23.969591
3517  2023-11-09 10:20:24.001505
3518  2023-11-09 10:20:24.033897
3519  2023-11-09 10:20:24.065811
3520  2023-11-09 10:20:24.097763
3521  2023-11-09 10:20:24.129677
3522  2023-11-09 10:20:24.161592
3523  2023-11-09 10:20:24.193542
3524  2023-11-09 10:20:24.242411
3525  2023-11-09 10:20:24.274375
3526  2023-11-09 10:20:24.307239
3527  2023-11-09 10:20:24.338120
3528  2023-11-09 10:20:24.370037
3529  2023-11-09 10:20:24.401982
3530  2023-11-09 10:20:24.435912
3531  2023-11-09 10:20:24.467804
3532  2023-11-09 10:20:24.499721
3533  2023-11-09 10:20:24.529609
3534  2023-11-09 10:20:24.563552
3535  2023-11-09 10:20:24.595474
3536  2023-11-09 10:20:24.643329
3537  2023-11-09 10:20:24.676255
3538  2023-11-09 10:20:24.707166
3539  2023-11-09 10:20:24.739081
3540  2023-11-09 10:20:24.771008
3541  2023-11-09 10:20:24.803925
3542  2023-11-09 10:20:24.835938
3543  2023-11-09 10:20:24.867860
3544  2023-11-09 10:20:24.898770
3545  2023-11-09 10:20:24.931680
3546  2023-11-09 10:20:24.963594
3547  2023-11-09 10:20:24.995513
3548  2023-11-09 10:20:25.043393
3549  2023-11-09 10:20:25.075299
3550  2023-11-09 10:20:25.107227
3551  2023-11-09 10:20:25.139133
3552  2023-11-09 10:20:25.171104
3553  2023-11-09 10:20:25.203015
3554  2023-11-09 10:20:25.234970
3555  2023-11-09 10:20:25.267028
3556  2023-11-09 10:20:25.298939
3557  2023-11-09 10:20:25.331850
3558  2023-11-09 10:20:25.362770
3559  2023-11-09 10:20:25.394681
3560  2023-11-09 10:20:25.442556
3561  2023-11-09 10:20:25.474468
