
1  2023-11-03 10:48:42.244148
2  2023-11-03 10:48:42.292092
3  2023-11-03 10:48:42.339985
4  2023-11-03 10:48:42.371895
5  2023-11-03 10:48:42.419787
6  2023-11-03 10:48:42.451710
7  2023-11-03 10:48:42.499506
8  2023-11-03 10:48:42.546381
9  2023-11-03 10:48:42.577334
10  2023-11-03 10:48:42.625212
11  2023-11-03 10:48:42.673084
12  2023-11-03 10:48:42.704995
13  2023-11-03 10:48:42.750921
14  2023-11-03 10:48:42.798793
15  2023-11-03 10:48:42.830799
16  2023-11-03 10:48:42.878672
17  2023-11-03 10:48:42.910547
18  2023-11-03 10:48:42.958472
19  2023-11-03 10:48:43.004381
20  2023-11-03 10:48:43.036294
21  2023-11-03 10:48:43.084136
22  2023-11-03 10:48:43.131014
23  2023-11-03 10:48:43.162962
24  2023-11-03 10:48:43.210799
25  2023-11-03 10:48:43.242707
26  2023-11-03 10:48:43.289548
27  2023-11-03 10:48:43.335425
28  2023-11-03 10:48:43.381307
29  2023-11-03 10:48:43.413248
30  2023-11-03 10:48:43.461090
31  2023-11-03 10:48:43.493008
32  2023-11-03 10:48:43.540966
33  2023-11-03 10:48:43.588802
34  2023-11-03 10:48:43.620712
35  2023-11-03 10:48:43.668583
36  2023-11-03 10:48:43.700527
37  2023-11-03 10:48:43.748455
38  2023-11-03 10:48:43.796344
39  2023-11-03 10:48:43.828259
40  2023-11-03 10:48:43.874092
41  2023-11-03 10:48:43.921959
42  2023-11-03 10:48:43.953874
43  2023-11-03 10:48:44.001746
44  2023-11-03 10:48:44.033705
45  2023-11-03 10:48:44.080536
46  2023-11-03 10:48:44.128408
47  2023-11-03 10:48:44.160324
48  2023-11-03 10:48:44.207235
49  2023-11-03 10:48:44.254073
50  2023-11-03 10:48:44.285019
51  2023-11-03 10:48:44.331909
52  2023-11-03 10:48:44.378739
53  2023-11-03 10:48:44.409657
54  2023-11-03 10:48:44.457530
55  2023-11-03 10:48:44.506435
56  2023-11-03 10:48:44.536323
57  2023-11-03 10:48:44.583193
58  2023-11-03 10:48:44.631122
59  2023-11-03 10:48:44.661983
60  2023-11-03 10:48:44.707891
61  2023-11-03 10:48:44.753738
62  2023-11-03 10:48:44.785653
63  2023-11-03 10:48:44.833569
64  2023-11-03 10:48:44.881396
65  2023-11-03 10:48:44.913311
66  2023-11-03 10:48:44.961184
67  2023-11-03 10:48:44.993098
68  2023-11-03 10:48:45.041126
69  2023-11-03 10:48:45.087957
70  2023-11-03 10:48:45.118884
71  2023-11-03 10:48:45.166758
72  2023-11-03 10:48:45.214629
73  2023-11-03 10:48:45.246542
74  2023-11-03 10:48:45.294415
75  2023-11-03 10:48:45.326329
76  2023-11-03 10:48:45.372660
77  2023-11-03 10:48:45.418537
78  2023-11-03 10:48:45.465414
79  2023-11-03 10:48:45.497370
80  2023-11-03 10:48:45.545199
81  2023-11-03 10:48:45.577113
82  2023-11-03 10:48:45.625119
83  2023-11-03 10:48:45.672913
84  2023-11-03 10:48:45.704772
85  2023-11-03 10:48:45.752644
86  2023-11-03 10:48:45.784619
87  2023-11-03 10:48:45.832599
88  2023-11-03 10:48:45.880529
89  2023-11-03 10:48:45.912446
90  2023-11-03 10:48:45.960284
91  2023-11-03 10:48:45.992195
92  2023-11-03 10:48:46.040109
93  2023-11-03 10:48:46.087057
94  2023-11-03 10:48:46.118113
95  2023-11-03 10:48:46.163877
96  2023-11-03 10:48:46.211749
97  2023-11-03 10:48:46.243747
98  2023-11-03 10:48:46.291628
99  2023-11-03 10:48:46.338712
100  2023-11-03 10:48:46.370692
101  2023-11-03 10:48:46.417601
102  2023-11-03 10:48:46.465441
103  2023-11-03 10:48:46.497354
104  2023-11-03 10:48:46.545226
105  2023-11-03 10:48:46.590115
106  2023-11-03 10:48:46.622022
107  2023-11-03 10:48:46.669894
108  2023-11-03 10:48:46.701809
109  2023-11-03 10:48:46.749680
110  2023-11-03 10:48:46.797553
111  2023-11-03 10:48:46.829467
112  2023-11-03 10:48:46.877365
113  2023-11-03 10:48:46.909279
114  2023-11-03 10:48:46.957135
115  2023-11-03 10:48:47.004335
116  2023-11-03 10:48:47.036217
117  2023-11-03 10:48:47.084138
118  2023-11-03 10:48:47.131057
119  2023-11-03 10:48:47.162974
120  2023-11-03 10:48:47.210799
121  2023-11-03 10:48:47.242745
122  2023-11-03 10:48:47.290586
123  2023-11-03 10:48:47.336464
124  2023-11-03 10:48:47.368419
125  2023-11-03 10:48:47.414256
126  2023-11-03 10:48:47.462128
127  2023-11-03 10:48:47.493091
128  2023-11-03 10:48:47.539920
129  2023-11-03 10:48:47.587794
130  2023-11-03 10:48:47.618743
131  2023-11-03 10:48:47.665630
132  2023-11-03 10:48:47.712505
133  2023-11-03 10:48:47.743402
134  2023-11-03 10:48:47.791248
135  2023-11-03 10:48:47.839167
136  2023-11-03 10:48:47.871081
137  2023-11-03 10:48:47.918954
138  2023-11-03 10:48:47.950865
139  2023-11-03 10:48:47.998727
140  2023-11-03 10:48:48.046611
141  2023-11-03 10:48:48.078481
142  2023-11-03 10:48:48.126353
143  2023-11-03 10:48:48.275954
144  2023-11-03 10:48:48.297895
145  2023-11-03 10:48:48.329871
146  2023-11-03 10:48:48.377774
147  2023-11-03 10:48:48.408692
148  2023-11-03 10:48:48.456564
149  2023-11-03 10:48:48.504437
150  2023-11-03 10:48:48.536467
151  2023-11-03 10:48:48.583225
152  2023-11-03 10:48:48.629104
153  2023-11-03 10:48:48.661066
154  2023-11-03 10:48:48.708889
155  2023-11-03 10:48:48.756762
156  2023-11-03 10:48:48.787728
157  2023-11-03 10:48:48.834554
158  2023-11-03 10:48:48.881471
159  2023-11-03 10:48:48.912379
160  2023-11-03 10:48:48.960218
161  2023-11-03 10:48:49.007125
162  2023-11-03 10:48:49.039038
163  2023-11-03 10:48:49.086879
164  2023-11-03 10:48:49.118794
165  2023-11-03 10:48:49.166843
166  2023-11-03 10:48:49.214703
167  2023-11-03 10:48:49.246638
168  2023-11-03 10:48:49.294458
169  2023-11-03 10:48:49.326407
170  2023-11-03 10:48:49.373295
171  2023-11-03 10:48:49.420261
172  2023-11-03 10:48:49.452138
173  2023-11-03 10:48:49.500095
174  2023-11-03 10:48:49.547888
175  2023-11-03 10:48:49.579930
176  2023-11-03 10:48:49.627802
177  2023-11-03 10:48:49.659717
178  2023-11-03 10:48:49.704633
179  2023-11-03 10:48:49.751513
180  2023-11-03 10:48:49.798413
181  2023-11-03 10:48:49.829301
182  2023-11-03 10:48:49.877204
183  2023-11-03 10:48:49.909119
184  2023-11-03 10:48:49.956650
185  2023-11-03 10:48:50.004515
186  2023-11-03 10:48:50.035433
187  2023-11-03 10:48:50.082276
188  2023-11-03 10:48:50.128259
189  2023-11-03 10:48:50.159145
190  2023-11-03 10:48:50.205058
191  2023-11-03 10:48:50.252895
192  2023-11-03 10:48:50.283846
193  2023-11-03 10:48:50.330688
194  2023-11-03 10:48:50.378559
195  2023-11-03 10:48:50.410503
196  2023-11-03 10:48:50.458466
197  2023-11-03 10:48:50.504303
198  2023-11-03 10:48:50.534233
199  2023-11-03 10:48:50.582198
200  2023-11-03 10:48:50.628108
201  2023-11-03 10:48:50.659164
202  2023-11-03 10:48:50.706021
203  2023-11-03 10:48:50.751910
204  2023-11-03 10:48:50.797907
205  2023-11-03 10:48:50.829808
206  2023-11-03 10:48:50.877685
207  2023-11-03 10:48:50.909705
208  2023-11-03 10:48:50.955551
209  2023-11-03 10:48:51.002442
210  2023-11-03 10:48:51.034342
211  2023-11-03 10:48:51.082212
212  2023-11-03 10:48:51.130086
213  2023-11-03 10:48:51.161999
214  2023-11-03 10:48:51.209872
215  2023-11-03 10:48:51.256822
216  2023-11-03 10:48:51.288709
217  2023-11-03 10:48:51.335663
218  2023-11-03 10:48:51.381620
219  2023-11-03 10:48:51.412537
220  2023-11-03 10:48:51.460457
221  2023-11-03 10:48:51.492363
222  2023-11-03 10:48:51.540271
223  2023-11-03 10:48:51.588117
224  2023-11-03 10:48:51.620033
225  2023-11-03 10:48:51.667873
226  2023-11-03 10:48:51.714748
227  2023-11-03 10:48:51.745666
228  2023-11-03 10:48:51.793569
229  2023-11-03 10:48:51.825453
230  2023-11-03 10:48:51.873325
231  2023-11-03 10:48:51.919202
232  2023-11-03 10:48:51.951150
233  2023-11-03 10:48:51.999035
234  2023-11-03 10:48:52.046861
235  2023-11-03 10:48:52.078822
236  2023-11-03 10:48:52.126647
237  2023-11-03 10:48:52.173553
238  2023-11-03 10:48:52.204471
239  2023-11-03 10:48:52.252477
240  2023-11-03 10:48:52.284226
241  2023-11-03 10:48:52.332144
242  2023-11-03 10:48:52.380018
243  2023-11-03 10:48:52.410925
244  2023-11-03 10:48:52.458794
245  2023-11-03 10:48:52.506633
246  2023-11-03 10:48:52.538617
247  2023-11-03 10:48:52.586701
248  2023-11-03 10:48:52.618530
249  2023-11-03 10:48:52.666370
250  2023-11-03 10:48:52.713297
251  2023-11-03 10:48:52.744214
252  2023-11-03 10:48:52.792201
253  2023-11-03 10:48:52.840074
254  2023-11-03 10:48:52.870087
255  2023-11-03 10:48:52.918032
256  2023-11-03 10:48:52.964891
257  2023-11-03 10:48:52.994822
258  2023-11-03 10:48:53.041653
259  2023-11-03 10:48:53.089579
260  2023-11-03 10:48:53.121478
261  2023-11-03 10:48:53.169441
262  2023-11-03 10:48:53.200359
263  2023-11-03 10:48:53.248231
264  2023-11-03 10:48:53.296103
265  2023-11-03 10:48:53.328017
266  2023-11-03 10:48:53.373940
267  2023-11-03 10:48:53.421831
268  2023-11-03 10:48:53.453746
269  2023-11-03 10:48:53.501605
270  2023-11-03 10:48:53.533635
271  2023-11-03 10:48:53.581392
272  2023-11-03 10:48:53.629152
273  2023-11-03 10:48:53.660188
274  2023-11-03 10:48:53.707075
275  2023-11-03 10:48:53.754951
276  2023-11-03 10:48:53.786850
277  2023-11-03 10:48:53.834766
278  2023-11-03 10:48:53.881640
279  2023-11-03 10:48:54.367342
280  2023-11-03 10:48:54.374333
281  2023-11-03 10:48:54.422243
282  2023-11-03 10:48:54.453155
283  2023-11-03 10:48:54.499989
284  2023-11-03 10:48:54.547861
285  2023-11-03 10:48:54.579880
286  2023-11-03 10:48:54.627699
287  2023-11-03 10:48:54.659624
288  2023-11-03 10:48:54.707434
289  2023-11-03 10:48:54.753312
290  2023-11-03 10:48:54.785301
291  2023-11-03 10:48:54.833098
292  2023-11-03 10:48:54.880971
293  2023-11-03 10:48:54.912409
294  2023-11-03 10:48:54.960249
295  2023-11-03 10:48:54.992287
296  2023-11-03 10:48:55.040236
297  2023-11-03 10:48:55.088144
298  2023-11-03 10:48:55.120058
299  2023-11-03 10:48:55.167930
300  2023-11-03 10:48:55.214840
301  2023-11-03 10:48:55.245803
302  2023-11-03 10:48:55.293595
303  2023-11-03 10:48:55.325559
304  2023-11-03 10:48:55.373478
305  2023-11-03 10:48:55.421350
306  2023-11-03 10:48:55.453313
307  2023-11-03 10:48:55.501185
308  2023-11-03 10:48:55.549011
309  2023-11-03 10:48:55.580971
310  2023-11-03 10:48:55.628797
311  2023-11-03 10:48:55.660749
312  2023-11-03 10:48:55.708584
313  2023-11-03 10:48:55.756456
314  2023-11-03 10:48:55.788371
315  2023-11-03 10:48:55.836290
316  2023-11-03 10:48:55.868189
317  2023-11-03 10:48:55.916030
318  2023-11-03 10:48:55.963953
319  2023-11-03 10:48:55.995848
320  2023-11-03 10:48:56.043781
321  2023-11-03 10:48:56.075777
322  2023-11-03 10:48:56.123641
323  2023-11-03 10:48:56.171531
324  2023-11-03 10:48:56.203445
325  2023-11-03 10:48:56.251299
326  2023-11-03 10:48:56.298177
327  2023-11-03 10:48:56.329093
328  2023-11-03 10:48:56.377108
329  2023-11-03 10:48:56.408880
330  2023-11-03 10:48:56.456799
331  2023-11-03 10:48:56.504676
332  2023-11-03 10:48:56.536557
333  2023-11-03 10:48:56.584550
334  2023-11-03 10:48:56.631462
335  2023-11-03 10:48:56.662355
336  2023-11-03 10:48:56.710257
337  2023-11-03 10:48:56.742125
338  2023-11-03 10:48:56.789997
339  2023-11-03 10:48:56.837837
340  2023-11-03 10:48:56.869822
341  2023-11-03 10:48:56.917655
342  2023-11-03 10:48:56.965497
343  2023-11-03 10:48:56.997411
344  2023-11-03 10:48:57.045283
345  2023-11-03 10:48:57.077197
346  2023-11-03 10:48:57.125158
347  2023-11-03 10:48:57.173039
348  2023-11-03 10:48:57.204948
349  2023-11-03 10:48:57.252817
350  2023-11-03 10:48:57.284765
351  2023-11-03 10:48:57.332735
352  2023-11-03 10:48:57.379384
353  2023-11-03 10:48:57.410495
354  2023-11-03 10:48:57.458229
355  2023-11-03 10:48:57.504113
356  2023-11-03 10:48:57.536021
357  2023-11-03 10:48:57.583634
358  2023-11-03 10:48:57.631632
359  2023-11-03 10:48:57.663547
360  2023-11-03 10:48:57.711463
361  2023-11-03 10:48:57.743472
362  2023-11-03 10:48:57.791339
363  2023-11-03 10:48:57.839234
364  2023-11-03 10:48:57.871150
365  2023-11-03 10:48:57.919058
366  2023-11-03 10:48:57.950938
367  2023-11-03 10:48:57.998896
368  2023-11-03 10:48:58.046799
369  2023-11-03 10:48:58.078733
370  2023-11-03 10:48:58.126555
371  2023-11-03 10:48:58.173498
372  2023-11-03 10:48:58.205391
373  2023-11-03 10:48:58.253217
374  2023-11-03 10:48:58.285132
375  2023-11-03 10:48:58.333148
376  2023-11-03 10:48:58.381136
377  2023-11-03 10:48:58.413120
378  2023-11-03 10:48:58.460606
379  2023-11-03 10:48:58.492518
380  2023-11-03 10:48:58.540473
381  2023-11-03 10:48:58.588298
382  2023-11-03 10:48:58.620213
383  2023-11-03 10:48:58.668122
384  2023-11-03 10:48:58.715038
385  2023-11-03 10:48:58.745927
386  2023-11-03 10:48:58.793899
387  2023-11-03 10:48:58.825813
388  2023-11-03 10:48:58.873654
389  2023-11-03 10:48:58.919567
390  2023-11-03 10:48:58.951492
391  2023-11-03 10:48:58.999468
392  2023-11-03 10:48:59.046294
393  2023-11-03 10:48:59.078241
394  2023-11-03 10:48:59.126287
395  2023-11-03 10:48:59.173215
396  2023-11-03 10:48:59.205161
397  2023-11-03 10:48:59.253196
398  2023-11-03 10:48:59.299115
399  2023-11-03 10:48:59.331030
400  2023-11-03 10:48:59.378908
401  2023-11-03 10:48:59.676157
402  2023-11-03 10:48:59.705067
403  2023-11-03 10:48:59.752035
404  2023-11-03 10:48:59.798907
405  2023-11-03 10:48:59.830679
406  2023-11-03 10:48:59.878740
407  2023-11-03 10:48:59.910636
408  2023-11-03 10:48:59.957522
409  2023-11-03 10:49:00.004342
410  2023-11-03 10:49:00.036296
411  2023-11-03 10:49:00.084164
412  2023-11-03 10:49:00.132038
413  2023-11-03 10:49:00.163951
414  2023-11-03 10:49:00.211787
415  2023-11-03 10:49:00.243751
416  2023-11-03 10:49:00.291623
417  2023-11-03 10:49:00.338449
418  2023-11-03 10:49:00.370364
419  2023-11-03 10:49:00.419234
420  2023-11-03 10:49:00.450194
421  2023-11-03 10:49:00.497174
422  2023-11-03 10:49:00.543946
423  2023-11-03 10:49:00.575846
424  2023-11-03 10:49:00.623687
425  2023-11-03 10:49:00.671429
426  2023-11-03 10:49:00.703409
427  2023-11-03 10:49:00.751311
428  2023-11-03 10:49:00.798156
429  2023-11-03 10:49:00.829074
430  2023-11-03 10:49:00.875996
431  2023-11-03 10:49:00.923820
432  2023-11-03 10:49:00.955735
433  2023-11-03 10:49:01.003655
434  2023-11-03 10:49:01.035574
435  2023-11-03 10:49:01.083394
436  2023-11-03 10:49:01.131266
437  2023-11-03 10:49:01.163181
438  2023-11-03 10:49:01.211055
439  2023-11-03 10:49:01.242002
440  2023-11-03 10:49:01.288999
441  2023-11-03 10:49:01.335839
442  2023-11-03 10:49:01.367411
443  2023-11-03 10:49:01.415398
444  2023-11-03 10:49:01.463279
445  2023-11-03 10:49:01.495346
446  2023-11-03 10:49:01.543223
447  2023-11-03 10:49:01.590083
448  2023-11-03 10:49:01.622013
449  2023-11-03 10:49:01.670059
450  2023-11-03 10:49:01.701973
451  2023-11-03 10:49:01.749815
452  2023-11-03 10:49:01.797736
453  2023-11-03 10:49:01.829651
454  2023-11-03 10:49:01.877507
455  2023-11-03 10:49:01.923397
456  2023-11-03 10:49:01.955267
457  2023-11-03 10:49:02.003138
458  2023-11-03 10:49:02.035097
459  2023-11-03 10:49:02.081973
460  2023-11-03 10:49:02.129955
461  2023-11-03 10:49:02.161725
462  2023-11-03 10:49:02.209601
463  2023-11-03 10:49:02.256461
464  2023-11-03 10:49:02.287378
465  2023-11-03 10:49:02.335250
466  2023-11-03 10:49:02.367165
467  2023-11-03 10:49:02.414093
468  2023-11-03 10:49:02.461912
469  2023-11-03 10:49:02.492829
470  2023-11-03 10:49:02.539752
471  2023-11-03 10:49:02.587576
472  2023-11-03 10:49:02.619491
473  2023-11-03 10:49:02.667364
474  2023-11-03 10:49:02.715267
475  2023-11-03 10:49:02.747150
476  2023-11-03 10:49:02.795022
477  2023-11-03 10:49:02.826936
478  2023-11-03 10:49:02.874835
479  2023-11-03 10:49:02.922681
480  2023-11-03 10:49:02.954595
481  2023-11-03 10:49:03.002684
482  2023-11-03 10:49:03.034596
483  2023-11-03 10:49:03.082425
484  2023-11-03 10:49:03.128337
485  2023-11-03 10:49:03.160266
486  2023-11-03 10:49:03.208090
487  2023-11-03 10:49:03.255992
488  2023-11-03 10:49:03.287648
489  2023-11-03 10:49:03.335463
490  2023-11-03 10:49:03.367443
491  2023-11-03 10:49:03.415284
492  2023-11-03 10:49:03.463186
493  2023-11-03 10:49:03.495071
494  2023-11-03 10:49:03.541976
495  2023-11-03 10:49:03.589976
496  2023-11-03 10:49:03.621830
497  2023-11-03 10:49:03.669641
498  2023-11-03 10:49:03.701642
499  2023-11-03 10:49:03.749474
500  2023-11-03 10:49:03.797419
501  2023-11-03 10:49:03.829364
502  2023-11-03 10:49:03.877244
503  2023-11-03 10:49:03.909219
504  2023-11-03 10:49:03.955150
505  2023-11-03 10:49:04.002999
506  2023-11-03 10:49:04.033930
507  2023-11-03 10:49:04.080763
508  2023-11-03 10:49:04.128692
509  2023-11-03 10:49:04.160549
510  2023-11-03 10:49:04.208457
511  2023-11-03 10:49:04.256320
512  2023-11-03 10:49:04.288263
513  2023-11-03 10:49:04.336093
514  2023-11-03 10:49:04.367994
515  2023-11-03 10:49:04.415934
516  2023-11-03 10:49:04.463805
517  2023-11-03 10:49:04.495721
518  2023-11-03 10:49:04.543645
519  2023-11-03 10:49:04.575532
520  2023-11-03 10:49:04.623477
521  2023-11-03 10:49:04.671297
522  2023-11-03 10:49:04.703167
523  2023-11-03 10:49:04.749090
524  2023-11-03 10:49:04.796917
525  2023-11-03 10:49:04.828831
526  2023-11-03 10:49:04.876737
527  2023-11-03 10:49:04.908642
528  2023-11-03 10:49:04.956490
529  2023-11-03 10:49:05.004362
530  2023-11-03 10:49:05.255690
531  2023-11-03 10:49:05.289600
532  2023-11-03 10:49:05.337473
533  2023-11-03 10:49:05.370409
534  2023-11-03 10:49:05.417259
535  2023-11-03 10:49:05.465171
536  2023-11-03 10:49:05.497076
537  2023-11-03 10:49:05.544918
538  2023-11-03 10:49:05.576833
539  2023-11-03 10:49:05.623748
540  2023-11-03 10:49:05.670582
541  2023-11-03 10:49:05.701499
542  2023-11-03 10:49:05.749371
543  2023-11-03 10:49:05.797273
544  2023-11-03 10:49:05.829189
545  2023-11-03 10:49:05.876072
546  2023-11-03 10:49:05.922906
547  2023-11-03 10:49:05.953858
548  2023-11-03 10:49:05.999746
549  2023-11-03 10:49:06.046627
550  2023-11-03 10:49:06.078548
551  2023-11-03 10:49:06.126418
552  2023-11-03 10:49:06.173275
553  2023-11-03 10:49:06.204186
554  2023-11-03 10:49:06.250033
555  2023-11-03 10:49:06.297906
556  2023-11-03 10:49:06.329625
557  2023-11-03 10:49:06.378620
558  2023-11-03 10:49:06.409535
559  2023-11-03 10:49:06.457405
560  2023-11-03 10:49:06.506262
561  2023-11-03 10:49:06.537158
562  2023-11-03 10:49:06.585030
563  2023-11-03 10:49:06.616945
564  2023-11-03 10:49:06.664851
565  2023-11-03 10:49:06.712689
566  2023-11-03 10:49:06.744604
567  2023-11-03 10:49:06.792511
568  2023-11-03 10:49:06.840384
569  2023-11-03 10:49:06.872337
570  2023-11-03 10:49:06.920187
571  2023-11-03 10:49:06.952049
572  2023-11-03 10:49:06.999982
573  2023-11-03 10:49:07.047883
574  2023-11-03 10:49:07.079798
575  2023-11-03 10:49:07.127715
576  2023-11-03 10:49:07.158620
577  2023-11-03 10:49:07.206459
578  2023-11-03 10:49:07.254372
579  2023-11-03 10:49:07.285279
580  2023-11-03 10:49:07.332123
581  2023-11-03 10:49:07.379032
582  2023-11-03 10:49:07.409947
583  2023-11-03 10:49:07.454829
584  2023-11-03 10:49:07.501809
585  2023-11-03 10:49:07.533723
586  2023-11-03 10:49:07.581642
587  2023-11-03 10:49:07.629499
588  2023-11-03 10:49:07.661382
589  2023-11-03 10:49:07.709372
590  2023-11-03 10:49:07.755131
591  2023-11-03 10:49:07.787046
592  2023-11-03 10:49:07.834919
593  2023-11-03 10:49:07.880951
594  2023-11-03 10:49:07.911872
595  2023-11-03 10:49:07.958870
596  2023-11-03 10:49:08.006828
597  2023-11-03 10:49:08.038832
598  2023-11-03 10:49:08.085740
599  2023-11-03 10:49:08.131584
600  2023-11-03 10:49:08.163555
601  2023-11-03 10:49:08.211371
602  2023-11-03 10:49:08.242319
603  2023-11-03 10:49:08.290162
604  2023-11-03 10:49:08.338086
605  2023-11-03 10:49:08.369980
606  2023-11-03 10:49:08.415993
607  2023-11-03 10:49:08.463875
608  2023-11-03 10:49:08.495908
609  2023-11-03 10:49:08.543967
610  2023-11-03 10:49:08.590021
611  2023-11-03 10:49:08.622018
612  2023-11-03 10:49:08.669886
613  2023-11-03 10:49:08.700791
614  2023-11-03 10:49:08.747634
615  2023-11-03 10:49:08.795512
616  2023-11-03 10:49:08.827421
617  2023-11-03 10:49:08.875339
618  2023-11-03 10:49:08.923164
619  2023-11-03 10:49:08.955079
620  2023-11-03 10:49:09.003005
621  2023-11-03 10:49:09.034996
622  2023-11-03 10:49:09.081871
623  2023-11-03 10:49:09.128776
624  2023-11-03 10:49:09.160711
625  2023-11-03 10:49:09.208533
626  2023-11-03 10:49:09.256463
627  2023-11-03 10:49:09.288350
628  2023-11-03 10:49:09.336192
629  2023-11-03 10:49:09.368134
630  2023-11-03 10:49:09.414981
631  2023-11-03 10:49:09.461897
632  2023-11-03 10:49:09.493816
633  2023-11-03 10:49:09.541642
634  2023-11-03 10:49:09.589560
635  2023-11-03 10:49:09.621481
636  2023-11-03 10:49:09.669301
637  2023-11-03 10:49:09.701216
638  2023-11-03 10:49:09.749088
639  2023-11-03 10:49:09.797024
640  2023-11-03 10:49:09.828907
641  2023-11-03 10:49:09.876747
642  2023-11-03 10:49:09.922626
643  2023-11-03 10:49:09.954585
644  2023-11-03 10:49:10.002488
645  2023-11-03 10:49:10.034403
646  2023-11-03 10:49:10.082330
647  2023-11-03 10:49:10.130147
648  2023-11-03 10:49:10.162134
649  2023-11-03 10:49:10.209934
650  2023-11-03 10:49:10.241976
651  2023-11-03 10:49:10.289848
652  2023-11-03 10:49:10.622003
653  2023-11-03 10:49:10.666885
654  2023-11-03 10:49:10.714850
655  2023-11-03 10:49:10.746750
656  2023-11-03 10:49:10.794586
657  2023-11-03 10:49:10.826584
658  2023-11-03 10:49:10.874376
659  2023-11-03 10:49:10.922297
660  2023-11-03 10:49:10.953164
661  2023-11-03 10:49:10.999095
662  2023-11-03 10:49:11.046913
663  2023-11-03 10:49:11.078828
664  2023-11-03 10:49:11.126731
665  2023-11-03 10:49:11.173247
666  2023-11-03 10:49:11.205162
667  2023-11-03 10:49:11.252085
668  2023-11-03 10:49:11.283993
669  2023-11-03 10:49:11.331824
670  2023-11-03 10:49:11.377701
671  2023-11-03 10:49:11.409616
672  2023-11-03 10:49:11.457522
673  2023-11-03 10:49:11.504463
674  2023-11-03 10:49:11.535418
675  2023-11-03 10:49:11.583259
676  2023-11-03 10:49:11.631178
677  2023-11-03 10:49:11.663188
678  2023-11-03 10:49:11.711024
679  2023-11-03 10:49:11.742976
680  2023-11-03 10:49:11.790929
681  2023-11-03 10:49:11.838785
682  2023-11-03 10:49:11.870704
683  2023-11-03 10:49:11.916591
684  2023-11-03 10:49:11.964446
685  2023-11-03 10:49:11.996362
686  2023-11-03 10:49:12.042256
687  2023-11-03 10:49:12.090131
688  2023-11-03 10:49:12.121485
689  2023-11-03 10:49:12.167444
690  2023-11-03 10:49:12.216374
691  2023-11-03 10:49:12.248280
692  2023-11-03 10:49:12.295186
693  2023-11-03 10:49:12.327101
694  2023-11-03 10:49:12.373016
695  2023-11-03 10:49:12.420962
696  2023-11-03 10:49:12.452861
697  2023-11-03 10:49:12.500703
698  2023-11-03 10:49:12.548575
699  2023-11-03 10:49:12.578495
700  2023-11-03 10:49:12.626395
701  2023-11-03 10:49:12.673242
702  2023-11-03 10:49:12.704159
703  2023-11-03 10:49:12.752064
704  2023-11-03 10:49:12.783977
705  2023-11-03 10:49:12.829857
706  2023-11-03 10:49:12.877729
707  2023-11-03 10:49:12.909644
708  2023-11-03 10:49:12.957516
709  2023-11-03 10:49:13.004390
710  2023-11-03 10:49:13.035397
711  2023-11-03 10:49:13.083148
712  2023-11-03 10:49:13.131053
713  2023-11-03 10:49:13.162983
714  2023-11-03 10:49:13.210823
715  2023-11-03 10:49:13.242746
716  2023-11-03 10:49:13.290500
717  2023-11-03 10:49:13.338412
718  2023-11-03 10:49:13.370320
719  2023-11-03 10:49:13.418328
720  2023-11-03 10:49:13.450172
721  2023-11-03 10:49:13.497182
722  2023-11-03 10:49:13.544009
723  2023-11-03 10:49:13.576046
724  2023-11-03 10:49:13.624063
725  2023-11-03 10:49:13.672012
726  2023-11-03 10:49:13.703402
727  2023-11-03 10:49:13.751273
728  2023-11-03 10:49:13.798184
729  2023-11-03 10:49:13.829099
730  2023-11-03 10:49:13.877124
731  2023-11-03 10:49:13.923812
732  2023-11-03 10:49:13.955769
733  2023-11-03 10:49:14.003598
734  2023-11-03 10:49:14.035513
735  2023-11-03 10:49:14.081685
736  2023-11-03 10:49:14.129487
737  2023-11-03 10:49:14.161425
738  2023-11-03 10:49:14.209343
739  2023-11-03 10:49:14.257254
740  2023-11-03 10:49:14.289170
741  2023-11-03 10:49:14.337007
742  2023-11-03 10:49:14.368917
743  2023-11-03 10:49:14.416836
744  2023-11-03 10:49:14.462667
745  2023-11-03 10:49:14.494581
746  2023-11-03 10:49:14.542455
747  2023-11-03 10:49:14.590325
748  2023-11-03 10:49:14.622288
749  2023-11-03 10:49:14.670112
750  2023-11-03 10:49:14.702060
751  2023-11-03 10:49:14.749974
752  2023-11-03 10:49:14.797870
753  2023-11-03 10:49:14.829761
754  2023-11-03 10:49:14.877632
755  2023-11-03 10:49:14.909752
756  2023-11-03 10:49:14.957509
757  2023-11-03 10:49:15.005428
758  2023-11-03 10:49:15.037295
759  2023-11-03 10:49:15.085222
760  2023-11-03 10:49:15.117129
761  2023-11-03 10:49:15.164986
762  2023-11-03 10:49:15.212836
763  2023-11-03 10:49:15.244774
764  2023-11-03 10:49:15.292613
765  2023-11-03 10:49:15.338577
766  2023-11-03 10:49:15.370577
767  2023-11-03 10:49:15.418448
768  2023-11-03 10:49:15.464360
769  2023-11-03 10:49:15.496385
770  2023-11-03 10:49:15.544268
771  2023-11-03 10:49:15.576178
772  2023-11-03 10:49:15.624050
773  2023-11-03 10:49:15.817518
774  2023-11-03 10:49:15.829488
775  2023-11-03 10:49:15.877325
776  2023-11-03 10:49:15.923243
777  2023-11-03 10:49:15.955150
778  2023-11-03 10:49:16.001072
779  2023-11-03 10:49:16.049058
780  2023-11-03 10:49:16.081961
781  2023-11-03 10:49:16.129036
782  2023-11-03 10:49:16.161041
783  2023-11-03 10:49:16.208913
784  2023-11-03 10:49:16.256785
785  2023-11-03 10:49:16.287736
786  2023-11-03 10:49:16.334577
787  2023-11-03 10:49:16.381507
788  2023-11-03 10:49:16.412420
789  2023-11-03 10:49:16.460343
790  2023-11-03 10:49:16.506259
791  2023-11-03 10:49:16.538175
792  2023-11-03 10:49:16.585052
793  2023-11-03 10:49:16.617086
794  2023-11-03 10:49:16.664969
795  2023-11-03 10:49:16.710833
796  2023-11-03 10:49:16.742714
797  2023-11-03 10:49:16.790655
798  2023-11-03 10:49:16.838459
799  2023-11-03 10:49:16.869376
800  2023-11-03 10:49:16.916322
801  2023-11-03 10:49:16.963210
802  2023-11-03 10:49:16.995161
803  2023-11-03 10:49:17.042996
804  2023-11-03 10:49:17.089888
805  2023-11-03 10:49:17.121942
806  2023-11-03 10:49:17.169852
807  2023-11-03 10:49:17.201768
808  2023-11-03 10:49:17.249611
809  2023-11-03 10:49:17.297531
810  2023-11-03 10:49:17.329445
811  2023-11-03 10:49:17.377317
812  2023-11-03 10:49:17.409233
813  2023-11-03 10:49:17.457156
814  2023-11-03 10:49:17.502981
815  2023-11-03 10:49:17.534896
816  2023-11-03 10:49:17.582799
817  2023-11-03 10:49:17.630641
818  2023-11-03 10:49:17.662555
819  2023-11-03 10:49:17.710457
820  2023-11-03 10:49:17.756305
821  2023-11-03 10:49:17.788268
822  2023-11-03 10:49:17.836091
823  2023-11-03 10:49:17.867039
824  2023-11-03 10:49:17.914913
825  2023-11-03 10:49:17.960810
826  2023-11-03 10:49:17.992789
827  2023-11-03 10:49:18.040577
828  2023-11-03 10:49:18.088454
829  2023-11-03 10:49:18.119371
830  2023-11-03 10:49:18.165610
831  2023-11-03 10:49:18.212539
832  2023-11-03 10:49:18.244454
833  2023-11-03 10:49:18.292417
834  2023-11-03 10:49:18.340289
835  2023-11-03 10:49:18.372204
836  2023-11-03 10:49:18.420094
837  2023-11-03 10:49:18.451017
838  2023-11-03 10:49:18.497950
839  2023-11-03 10:49:18.545912
840  2023-11-03 10:49:18.575832
841  2023-11-03 10:49:18.623881
842  2023-11-03 10:49:18.671722
843  2023-11-03 10:49:18.703717
844  2023-11-03 10:49:18.751631
845  2023-11-03 10:49:18.783541
846  2023-11-03 10:49:18.830378
847  2023-11-03 10:49:18.877295
848  2023-11-03 10:49:18.909201
849  2023-11-03 10:49:18.956042
850  2023-11-03 10:49:19.003915
851  2023-11-03 10:49:19.035829
852  2023-11-03 10:49:19.082741
853  2023-11-03 10:49:19.129611
854  2023-11-03 10:49:19.160529
855  2023-11-03 10:49:19.208402
856  2023-11-03 10:49:19.256276
857  2023-11-03 10:49:19.288188
858  2023-11-03 10:49:19.335030
859  2023-11-03 10:49:19.381950
860  2023-11-03 10:49:19.413869
861  2023-11-03 10:49:19.461736
862  2023-11-03 10:49:19.493639
863  2023-11-03 10:49:19.540511
864  2023-11-03 10:49:19.588396
865  2023-11-03 10:49:19.620268
866  2023-11-03 10:49:19.667212
867  2023-11-03 10:49:19.715042
868  2023-11-03 10:49:19.745932
869  2023-11-03 10:49:19.793083
870  2023-11-03 10:49:19.840248
871  2023-11-03 10:49:19.872047
872  2023-11-03 10:49:19.919955
873  2023-11-03 10:49:19.951876
874  2023-11-03 10:49:19.999706
875  2023-11-03 10:49:20.047704
876  2023-11-03 10:49:20.079527
877  2023-11-03 10:49:20.127365
878  2023-11-03 10:49:20.173243
879  2023-11-03 10:49:20.205279
880  2023-11-03 10:49:20.253187
881  2023-11-03 10:49:20.285112
882  2023-11-03 10:49:20.332938
883  2023-11-03 10:49:20.380856
884  2023-11-03 10:49:20.412774
885  2023-11-03 10:49:20.460597
886  2023-11-03 10:49:20.506483
887  2023-11-03 10:49:20.538389
888  2023-11-03 10:49:20.586248
889  2023-11-03 10:49:20.617974
890  2023-11-03 10:49:20.665876
891  2023-11-03 10:49:20.713718
892  2023-11-03 10:49:20.745632
893  2023-11-03 10:49:20.793546
894  2023-11-03 10:49:20.825453
895  2023-11-03 10:49:20.873325
896  2023-11-03 10:49:21.046829
897  2023-11-03 10:49:21.078743
898  2023-11-03 10:49:21.126616
899  2023-11-03 10:49:21.158599
900  2023-11-03 10:49:21.205445
901  2023-11-03 10:49:21.253442
902  2023-11-03 10:49:21.285278
903  2023-11-03 10:49:21.333135
904  2023-11-03 10:49:21.381018
905  2023-11-03 10:49:21.412925
906  2023-11-03 10:49:21.460805
907  2023-11-03 10:49:21.492713
908  2023-11-03 10:49:21.540592
909  2023-11-03 10:49:21.588455
910  2023-11-03 10:49:21.620489
911  2023-11-03 10:49:21.666405
912  2023-11-03 10:49:21.714345
913  2023-11-03 10:49:21.746262
914  2023-11-03 10:49:21.795295
915  2023-11-03 10:49:21.826225
916  2023-11-03 10:49:21.872032
917  2023-11-03 10:49:21.919951
918  2023-11-03 10:49:21.951850
919  2023-11-03 10:49:21.997817
920  2023-11-03 10:49:22.045740
921  2023-11-03 10:49:22.077647
922  2023-11-03 10:49:22.124479
923  2023-11-03 10:49:22.172351
924  2023-11-03 10:49:22.204266
925  2023-11-03 10:49:22.252171
926  2023-11-03 10:49:22.284086
927  2023-11-03 10:49:22.329962
928  2023-11-03 10:49:22.377802
929  2023-11-03 10:49:22.409718
930  2023-11-03 10:49:22.457619
931  2023-11-03 10:49:22.503496
932  2023-11-03 10:49:22.535414
933  2023-11-03 10:49:22.583286
934  2023-11-03 10:49:22.631159
935  2023-11-03 10:49:22.663087
936  2023-11-03 10:49:22.710912
937  2023-11-03 10:49:22.742857
938  2023-11-03 10:49:22.790733
939  2023-11-03 10:49:22.838576
940  2023-11-03 10:49:22.870485
941  2023-11-03 10:49:22.918410
942  2023-11-03 10:49:22.965268
943  2023-11-03 10:49:22.997346
944  2023-11-03 10:49:23.045431
945  2023-11-03 10:49:23.077305
946  2023-11-03 10:49:23.125207
947  2023-11-03 10:49:23.173096
948  2023-11-03 10:49:23.204996
949  2023-11-03 10:49:23.252881
950  2023-11-03 10:49:23.284795
951  2023-11-03 10:49:23.332654
952  2023-11-03 10:49:23.380526
953  2023-11-03 10:49:23.412443
954  2023-11-03 10:49:23.458327
955  2023-11-03 10:49:23.506160
956  2023-11-03 10:49:23.538126
957  2023-11-03 10:49:23.584951
958  2023-11-03 10:49:23.616934
959  2023-11-03 10:49:23.664781
960  2023-11-03 10:49:23.712649
961  2023-11-03 10:49:23.744560
962  2023-11-03 10:49:23.792464
963  2023-11-03 10:49:23.840337
964  2023-11-03 10:49:23.871222
965  2023-11-03 10:49:23.919211
966  2023-11-03 10:49:23.951096
967  2023-11-03 10:49:23.999126
968  2023-11-03 10:49:24.046924
969  2023-11-03 10:49:24.077857
970  2023-11-03 10:49:24.123734
971  2023-11-03 10:49:24.170694
972  2023-11-03 10:49:24.202476
973  2023-11-03 10:49:24.250350
974  2023-11-03 10:49:24.296264
975  2023-11-03 10:49:24.328250
976  2023-11-03 10:49:24.376136
977  2023-11-03 10:49:24.424010
978  2023-11-03 10:49:24.455490
979  2023-11-03 10:49:24.502450
980  2023-11-03 10:49:24.533467
981  2023-11-03 10:49:24.580310
982  2023-11-03 10:49:24.627288
983  2023-11-03 10:49:24.659220
984  2023-11-03 10:49:24.707099
985  2023-11-03 10:49:24.754974
986  2023-11-03 10:49:24.786720
987  2023-11-03 10:49:24.833740
988  2023-11-03 10:49:24.880588
989  2023-11-03 10:49:24.912543
990  2023-11-03 10:49:24.960368
991  2023-11-03 10:49:24.992300
992  2023-11-03 10:49:25.040145
993  2023-11-03 10:49:25.087697
994  2023-11-03 10:49:25.119578
995  2023-11-03 10:49:25.167504
996  2023-11-03 10:49:25.214390
997  2023-11-03 10:49:25.245315
998  2023-11-03 10:49:25.293253
999  2023-11-03 10:49:25.339989
1000  2023-11-03 10:49:25.370906
1001  2023-11-03 10:49:25.418817
1002  2023-11-03 10:49:25.450751
1003  2023-11-03 10:49:25.498565
1004  2023-11-03 10:49:25.546485
1005  2023-11-03 10:49:25.578397
1006  2023-11-03 10:49:25.626224
1007  2023-11-03 10:49:25.673134
1008  2023-11-03 10:49:25.704016
1009  2023-11-03 10:49:25.751888
1010  2023-11-03 10:49:25.797814
1011  2023-11-03 10:49:25.829714
1012  2023-11-03 10:49:25.877552
1013  2023-11-03 10:49:25.909467
1014  2023-11-03 10:49:25.957568
1015  2023-11-03 10:49:26.005448
1016  2023-11-03 10:49:26.037358
1017  2023-11-03 10:49:26.085270
1018  2023-11-03 10:49:26.117185
1019  2023-11-03 10:49:26.165180
1020  2023-11-03 10:49:26.210998
1021  2023-11-03 10:49:26.241919
1022  2023-11-03 10:49:26.287936
1023  2023-11-03 10:49:26.335764
1024  2023-11-03 10:49:26.367709
1025  2023-11-03 10:49:26.415583
1026  2023-11-03 10:49:26.463423
1027  2023-11-03 10:49:26.579156
1028  2023-11-03 10:49:26.613025
1029  2023-11-03 10:49:26.621003
1030  2023-11-03 10:49:26.668909
1031  2023-11-03 10:49:26.700790
1032  2023-11-03 10:49:26.747177
1033  2023-11-03 10:49:26.793211
1034  2023-11-03 10:49:26.838973
1035  2023-11-03 10:49:26.869891
1036  2023-11-03 10:49:26.917814
1037  2023-11-03 10:49:26.964818
1038  2023-11-03 10:49:26.995740
1039  2023-11-03 10:49:27.043606
1040  2023-11-03 10:49:27.075555
1041  2023-11-03 10:49:27.123359
1042  2023-11-03 10:49:27.171230
1043  2023-11-03 10:49:27.203177
1044  2023-11-03 10:49:27.251211
1045  2023-11-03 10:49:27.298889
1046  2023-11-03 10:49:27.330803
1047  2023-11-03 10:49:27.378675
1048  2023-11-03 10:49:27.410624
1049  2023-11-03 10:49:27.459463
1050  2023-11-03 10:49:27.506368
1051  2023-11-03 10:49:27.538281
1052  2023-11-03 10:49:27.584158
1053  2023-11-03 10:49:27.632028
1054  2023-11-03 10:49:27.663944
1055  2023-11-03 10:49:27.711832
1056  2023-11-03 10:49:27.743774
1057  2023-11-03 10:49:27.790622
1058  2023-11-03 10:49:27.838493
1059  2023-11-03 10:49:27.870395
1060  2023-11-03 10:49:27.918265
1061  2023-11-03 10:49:27.950204
1062  2023-11-03 10:49:27.997059
1063  2023-11-03 10:49:28.044947
1064  2023-11-03 10:49:28.076848
1065  2023-11-03 10:49:28.124727
1066  2023-11-03 10:49:28.172554
1067  2023-11-03 10:49:28.204500
1068  2023-11-03 10:49:28.252534
1069  2023-11-03 10:49:28.284614
1070  2023-11-03 10:49:28.331283
1071  2023-11-03 10:49:28.379190
1072  2023-11-03 10:49:28.411071
1073  2023-11-03 10:49:28.459974
1074  2023-11-03 10:49:28.506814
1075  2023-11-03 10:49:28.539771
1076  2023-11-03 10:49:28.587646
1077  2023-11-03 10:49:28.619558
1078  2023-11-03 10:49:28.664427
1079  2023-11-03 10:49:28.711342
1080  2023-11-03 10:49:28.743256
1081  2023-11-03 10:49:28.789168
1082  2023-11-03 10:49:28.837123
1083  2023-11-03 10:49:28.869037
1084  2023-11-03 10:49:28.916942
1085  2023-11-03 10:49:28.963812
1086  2023-11-03 10:49:28.994748
1087  2023-11-03 10:49:29.042574
1088  2023-11-03 10:49:29.090533
1089  2023-11-03 10:49:29.122448
1090  2023-11-03 10:49:29.170361
1091  2023-11-03 10:49:29.202307
1092  2023-11-03 10:49:29.250148
1093  2023-11-03 10:49:29.298133
1094  2023-11-03 10:49:29.330048
1095  2023-11-03 10:49:29.378027
1096  2023-11-03 10:49:29.410044
1097  2023-11-03 10:49:29.457640
1098  2023-11-03 10:49:29.505587
1099  2023-11-03 10:49:29.537601
1100  2023-11-03 10:49:29.585475
1101  2023-11-03 10:49:29.631383
1102  2023-11-03 10:49:29.663303
1103  2023-11-03 10:49:29.711361
1104  2023-11-03 10:49:29.743267
1105  2023-11-03 10:49:29.791309
1106  2023-11-03 10:49:29.839164
1107  2023-11-03 10:49:29.871079
1108  2023-11-03 10:49:29.917954
1109  2023-11-03 10:49:29.964797
1110  2023-11-03 10:49:29.996763
1111  2023-11-03 10:49:30.044635
1112  2023-11-03 10:49:30.076498
1113  2023-11-03 10:49:30.124402
1114  2023-11-03 10:49:30.172276
1115  2023-11-03 10:49:30.204296
1116  2023-11-03 10:49:30.252199
1117  2023-11-03 10:49:30.284097
1118  2023-11-03 10:49:30.331955
1119  2023-11-03 10:49:30.379800
1120  2023-11-03 10:49:30.411711
1121  2023-11-03 10:49:30.459783
1122  2023-11-03 10:49:30.506652
1123  2023-11-03 10:49:30.539514
1124  2023-11-03 10:49:30.586434
1125  2023-11-03 10:49:30.619343
1126  2023-11-03 10:49:30.665207
1127  2023-11-03 10:49:30.712056
1128  2023-11-03 10:49:30.744105
1129  2023-11-03 10:49:30.791871
1130  2023-11-03 10:49:30.838713
1131  2023-11-03 10:49:30.869631
1132  2023-11-03 10:49:30.917534
1133  2023-11-03 10:49:30.965423
1134  2023-11-03 10:49:30.997338
1135  2023-11-03 10:49:31.045162
1136  2023-11-03 10:49:31.077076
1137  2023-11-03 10:49:31.124997
1138  2023-11-03 10:49:31.172821
1139  2023-11-03 10:49:31.204735
1140  2023-11-03 10:49:31.252656
1141  2023-11-03 10:49:31.284569
1142  2023-11-03 10:49:31.332394
1143  2023-11-03 10:49:31.378435
1144  2023-11-03 10:49:31.410186
1145  2023-11-03 10:49:31.458066
1146  2023-11-03 10:49:31.505898
1147  2023-11-03 10:49:31.537956
1148  2023-11-03 10:49:31.583867
1149  2023-11-03 10:49:31.631747
1150  2023-11-03 10:49:31.662659
1151  2023-11-03 10:49:31.709528
1152  2023-11-03 10:49:31.756435
1153  2023-11-03 10:49:31.787499
1154  2023-11-03 10:49:31.835343
1155  2023-11-03 10:49:31.867265
1156  2023-11-03 10:49:31.915175
1157  2023-11-03 10:49:31.963099
1158  2023-11-03 10:49:31.995010
1159  2023-11-03 10:49:32.042821
1160  2023-11-03 10:49:32.090663
1161  2023-11-03 10:49:32.146543
1162  2023-11-03 10:49:32.170451
1163  2023-11-03 10:49:32.202397
1164  2023-11-03 10:49:32.250314
1165  2023-11-03 10:49:32.298139
1166  2023-11-03 10:49:32.329077
1167  2023-11-03 10:49:32.376988
1168  2023-11-03 10:49:32.424660
1169  2023-11-03 10:49:32.456690
1170  2023-11-03 10:49:32.504547
1171  2023-11-03 10:49:32.536473
1172  2023-11-03 10:49:32.584324
1173  2023-11-03 10:49:32.632404
1174  2023-11-03 10:49:32.661317
1175  2023-11-03 10:49:32.708146
1176  2023-11-03 10:49:32.754056
1177  2023-11-03 10:49:32.785950
1178  2023-11-03 10:49:32.833870
1179  2023-11-03 10:49:32.879748
1180  2023-11-03 10:49:32.911675
1181  2023-11-03 10:49:32.958576
1182  2023-11-03 10:49:33.005457
1183  2023-11-03 10:49:33.037462
1184  2023-11-03 10:49:33.085358
1185  2023-11-03 10:49:33.117328
1186  2023-11-03 10:49:33.165200
1187  2023-11-03 10:49:33.213075
1188  2023-11-03 10:49:33.245001
1189  2023-11-03 10:49:33.290868
1190  2023-11-03 10:49:33.338781
1191  2023-11-03 10:49:33.370695
1192  2023-11-03 10:49:33.418727
1193  2023-11-03 10:49:33.450724
1194  2023-11-03 10:49:33.498256
1195  2023-11-03 10:49:33.544237
1196  2023-11-03 10:49:33.577117
1197  2023-11-03 10:49:33.624038
1198  2023-11-03 10:49:33.671863
1199  2023-11-03 10:49:33.703812
1200  2023-11-03 10:49:33.751651
1201  2023-11-03 10:49:33.783573
1202  2023-11-03 10:49:33.831467
1203  2023-11-03 10:49:33.879401
1204  2023-11-03 10:49:33.911413
1205  2023-11-03 10:49:33.959220
1206  2023-11-03 10:49:34.005106
1207  2023-11-03 10:49:34.037021
1208  2023-11-03 10:49:34.083138
1209  2023-11-03 10:49:34.131064
1210  2023-11-03 10:49:34.162981
1211  2023-11-03 10:49:34.210850
1212  2023-11-03 10:49:34.256764
1213  2023-11-03 10:49:34.288675
1214  2023-11-03 10:49:34.336515
1215  2023-11-03 10:49:34.368429
1216  2023-11-03 10:49:34.416301
1217  2023-11-03 10:49:34.464333
1218  2023-11-03 10:49:34.494140
1219  2023-11-03 10:49:34.541965
1220  2023-11-03 10:49:34.589868
1221  2023-11-03 10:49:34.621805
1222  2023-11-03 10:49:34.669625
1223  2023-11-03 10:49:34.700568
1224  2023-11-03 10:49:34.748462
1225  2023-11-03 10:49:34.796311
1226  2023-11-03 10:49:34.827235
1227  2023-11-03 10:49:34.874130
1228  2023-11-03 10:49:34.921391
1229  2023-11-03 10:49:34.953458
1230  2023-11-03 10:49:35.001331
1231  2023-11-03 10:49:35.047207
1232  2023-11-03 10:49:35.080094
1233  2023-11-03 10:49:35.127012
1234  2023-11-03 10:49:35.158908
1235  2023-11-03 10:49:35.206792
1236  2023-11-03 10:49:35.254651
1237  2023-11-03 10:49:35.286603
1238  2023-11-03 10:49:35.334407
1239  2023-11-03 10:49:35.382279
1240  2023-11-03 10:49:35.414194
1241  2023-11-03 10:49:35.462098
1242  2023-11-03 10:49:35.493828
1243  2023-11-03 10:49:35.539780
1244  2023-11-03 10:49:35.585636
1245  2023-11-03 10:49:35.631744
1246  2023-11-03 10:49:35.662666
1247  2023-11-03 10:49:35.710629
1248  2023-11-03 10:49:35.742416
1249  2023-11-03 10:49:35.790334
1250  2023-11-03 10:49:35.838160
1251  2023-11-03 10:49:35.870075
1252  2023-11-03 10:49:35.915982
1253  2023-11-03 10:49:35.963858
1254  2023-11-03 10:49:35.995777
1255  2023-11-03 10:49:36.043843
1256  2023-11-03 10:49:36.075754
1257  2023-11-03 10:49:36.123627
1258  2023-11-03 10:49:36.171484
1259  2023-11-03 10:49:36.203593
1260  2023-11-03 10:49:36.251300
1261  2023-11-03 10:49:36.298140
1262  2023-11-03 10:49:36.329057
1263  2023-11-03 10:49:36.376956
1264  2023-11-03 10:49:36.408973
1265  2023-11-03 10:49:36.456893
1266  2023-11-03 10:49:36.504738
1267  2023-11-03 10:49:36.536804
1268  2023-11-03 10:49:36.584538
1269  2023-11-03 10:49:36.631432
1270  2023-11-03 10:49:36.662348
1271  2023-11-03 10:49:36.710229
1272  2023-11-03 10:49:36.742104
1273  2023-11-03 10:49:36.790020
1274  2023-11-03 10:49:36.837880
1275  2023-11-03 10:49:36.869806
1276  2023-11-03 10:49:36.917676
1277  2023-11-03 10:49:36.965550
1278  2023-11-03 10:49:36.998422
1279  2023-11-03 10:49:37.043301
1280  2023-11-03 10:49:37.075215
1281  2023-11-03 10:49:37.123247
1282  2023-11-03 10:49:37.171118
1283  2023-11-03 10:49:37.240976
1284  2023-11-03 10:49:37.270854
1285  2023-11-03 10:49:37.296783
1286  2023-11-03 10:49:37.328697
1287  2023-11-03 10:49:37.376569
1288  2023-11-03 10:49:37.408484
1289  2023-11-03 10:49:37.456387
1290  2023-11-03 10:49:37.503231
1291  2023-11-03 10:49:37.534148
1292  2023-11-03 10:49:37.582163
1293  2023-11-03 10:49:37.629943
1294  2023-11-03 10:49:37.661860
1295  2023-11-03 10:49:37.709681
1296  2023-11-03 10:49:37.756589
1297  2023-11-03 10:49:37.787504
1298  2023-11-03 10:49:37.835391
1299  2023-11-03 10:49:37.867291
1300  2023-11-03 10:49:37.915131
1301  2023-11-03 10:49:37.963048
1302  2023-11-03 10:49:37.994958
1303  2023-11-03 10:49:38.042824
1304  2023-11-03 10:49:38.090704
1305  2023-11-03 10:49:38.121580
1306  2023-11-03 10:49:38.169456
1307  2023-11-03 10:49:38.201400
1308  2023-11-03 10:49:38.249389
1309  2023-11-03 10:49:38.297264
1310  2023-11-03 10:49:38.328432
1311  2023-11-03 10:49:38.376407
1312  2023-11-03 10:49:38.423290
1313  2023-11-03 10:49:38.454217
1314  2023-11-03 10:49:38.502088
1315  2023-11-03 10:49:38.533982
1316  2023-11-03 10:49:38.581888
1317  2023-11-03 10:49:38.629726
1318  2023-11-03 10:49:38.659656
1319  2023-11-03 10:49:38.708487
1320  2023-11-03 10:49:38.756475
1321  2023-11-03 10:49:38.786430
1322  2023-11-03 10:49:38.832270
1323  2023-11-03 10:49:38.878147
1324  2023-11-03 10:49:38.924059
1325  2023-11-03 10:49:38.955039
1326  2023-11-03 10:49:39.003003
1327  2023-11-03 10:49:39.034936
1328  2023-11-03 10:49:39.082757
1329  2023-11-03 10:49:39.130628
1330  2023-11-03 10:49:39.162497
1331  2023-11-03 10:49:39.210371
1332  2023-11-03 10:49:39.242356
1333  2023-11-03 10:49:39.290229
1334  2023-11-03 10:49:39.338137
1335  2023-11-03 10:49:39.369510
1336  2023-11-03 10:49:39.417381
1337  2023-11-03 10:49:39.465259
1338  2023-11-03 10:49:39.497167
1339  2023-11-03 10:49:39.542063
1340  2023-11-03 10:49:39.588925
1341  2023-11-03 10:49:39.621815
1342  2023-11-03 10:49:39.668724
1343  2023-11-03 10:49:39.700634
1344  2023-11-03 10:49:39.748616
1345  2023-11-03 10:49:39.796475
1346  2023-11-03 10:49:39.828359
1347  2023-11-03 10:49:39.876229
1348  2023-11-03 10:49:39.923104
1349  2023-11-03 10:49:39.954070
1350  2023-11-03 10:49:40.001926
1351  2023-11-03 10:49:40.049766
1352  2023-11-03 10:49:40.080683
1353  2023-11-03 10:49:40.128555
1354  2023-11-03 10:49:40.160508
1355  2023-11-03 10:49:40.208345
1356  2023-11-03 10:49:40.257213
1357  2023-11-03 10:49:40.288274
1358  2023-11-03 10:49:40.336001
1359  2023-11-03 10:49:40.367915
1360  2023-11-03 10:49:40.415872
1361  2023-11-03 10:49:40.463825
1362  2023-11-03 10:49:40.494738
1363  2023-11-03 10:49:40.542579
1364  2023-11-03 10:49:40.590486
1365  2023-11-03 10:49:40.622412
1366  2023-11-03 10:49:40.670350
1367  2023-11-03 10:49:40.701269
1368  2023-11-03 10:49:40.749228
1369  2023-11-03 10:49:40.796150
1370  2023-11-03 10:49:40.827064
1371  2023-11-03 10:49:40.874905
1372  2023-11-03 10:49:40.921782
1373  2023-11-03 10:49:40.952748
1374  2023-11-03 10:49:41.000786
1375  2023-11-03 10:49:41.047497
1376  2023-11-03 10:49:41.080358
1377  2023-11-03 10:49:41.127265
1378  2023-11-03 10:49:41.159179
1379  2023-11-03 10:49:41.207194
1380  2023-11-03 10:49:41.255110
1381  2023-11-03 10:49:41.287099
1382  2023-11-03 10:49:41.334987
1383  2023-11-03 10:49:41.366893
1384  2023-11-03 10:49:41.414771
1385  2023-11-03 10:49:41.462643
1386  2023-11-03 10:49:41.494565
1387  2023-11-03 10:49:41.541420
1388  2023-11-03 10:49:41.589291
1389  2023-11-03 10:49:41.621175
1390  2023-11-03 10:49:41.669083
1391  2023-11-03 10:49:41.700991
1392  2023-11-03 10:49:41.748832
1393  2023-11-03 10:49:41.796738
1394  2023-11-03 10:49:41.828620
1395  2023-11-03 10:49:41.876491
1396  2023-11-03 10:49:41.923404
1397  2023-11-03 10:49:41.954317
1398  2023-11-03 10:49:42.002185
1399  2023-11-03 10:49:42.034105
1400  2023-11-03 10:49:42.081982
1401  2023-11-03 10:49:42.129853
1402  2023-11-03 10:49:42.162770
1403  2023-11-03 10:49:42.209635
1404  2023-11-03 10:49:42.256510
1405  2023-11-03 10:49:42.288423
1406  2023-11-03 10:49:42.336318
1407  2023-11-03 10:49:42.368221
1408  2023-11-03 10:49:42.416098
1409  2023-11-03 10:49:42.463959
1410  2023-11-03 10:49:42.495990
1411  2023-11-03 10:49:42.543861
1412  2023-11-03 10:49:42.589725
1413  2023-11-03 10:49:42.620580
1414  2023-11-03 10:49:42.668526
1415  2023-11-03 10:49:42.714549
1416  2023-11-03 10:49:42.745320
1417  2023-11-03 10:49:42.792195
1418  2023-11-03 10:49:42.852038
1419  2023-11-03 10:49:42.879962
1420  2023-11-03 10:49:42.917860
1421  2023-11-03 10:49:42.964735
1422  2023-11-03 10:49:42.995653
1423  2023-11-03 10:49:43.043573
1424  2023-11-03 10:49:43.075438
1425  2023-11-03 10:49:43.122364
1426  2023-11-03 10:49:43.169189
1427  2023-11-03 10:49:43.201103
1428  2023-11-03 10:49:43.246980
1429  2023-11-03 10:49:43.294909
1430  2023-11-03 10:49:43.326834
1431  2023-11-03 10:49:43.374639
1432  2023-11-03 10:49:43.423554
1433  2023-11-03 10:49:43.455503
1434  2023-11-03 10:49:43.503364
1435  2023-11-03 10:49:43.534214
1436  2023-11-03 10:49:43.583138
1437  2023-11-03 10:49:43.630987
1438  2023-11-03 10:49:43.662986
1439  2023-11-03 10:49:43.709815
1440  2023-11-03 10:49:43.756722
1441  2023-11-03 10:49:43.788636
1442  2023-11-03 10:49:43.835479
1443  2023-11-03 10:49:43.881472
1444  2023-11-03 10:49:43.912358
1445  2023-11-03 10:49:43.959279
1446  2023-11-03 10:49:44.006253
1447  2023-11-03 10:49:44.038160
1448  2023-11-03 10:49:44.085997
1449  2023-11-03 10:49:44.117953
1450  2023-11-03 10:49:44.165833
1451  2023-11-03 10:49:44.213692
1452  2023-11-03 10:49:44.245600
1453  2023-11-03 10:49:44.293475
1454  2023-11-03 10:49:44.325388
1455  2023-11-03 10:49:44.373259
1456  2023-11-03 10:49:44.421150
1457  2023-11-03 10:49:44.453047
1458  2023-11-03 10:49:44.500887
1459  2023-11-03 10:49:44.548759
1460  2023-11-03 10:49:44.580709
1461  2023-11-03 10:49:44.628576
1462  2023-11-03 10:49:44.660498
1463  2023-11-03 10:49:44.706368
1464  2023-11-03 10:49:44.754241
1465  2023-11-03 10:49:44.786160
1466  2023-11-03 10:49:44.834043
1467  2023-11-03 10:49:44.880906
1468  2023-11-03 10:49:44.911789
1469  2023-11-03 10:49:44.959720
1470  2023-11-03 10:49:45.007575
1471  2023-11-03 10:49:45.037561
1472  2023-11-03 10:49:45.084910
1473  2023-11-03 10:49:45.130751
1474  2023-11-03 10:49:45.162668
1475  2023-11-03 10:49:45.210538
1476  2023-11-03 10:49:45.256448
1477  2023-11-03 10:49:45.288372
1478  2023-11-03 10:49:45.336202
1479  2023-11-03 10:49:45.368168
1480  2023-11-03 10:49:45.414992
1481  2023-11-03 10:49:45.461898
1482  2023-11-03 10:49:45.492816
1483  2023-11-03 10:49:45.539689
1484  2023-11-03 10:49:45.587572
1485  2023-11-03 10:49:45.619484
1486  2023-11-03 10:49:45.667318
1487  2023-11-03 10:49:45.714966
1488  2023-11-03 10:49:45.746990
1489  2023-11-03 10:49:45.795830
1490  2023-11-03 10:49:45.826779
1491  2023-11-03 10:49:45.874636
1492  2023-11-03 10:49:45.923505
1493  2023-11-03 10:49:45.954427
1494  2023-11-03 10:49:46.000307
1495  2023-11-03 10:49:46.046191
1496  2023-11-03 10:49:46.078111
1497  2023-11-03 10:49:46.125978
1498  2023-11-03 10:49:46.173849
1499  2023-11-03 10:49:46.205764
1500  2023-11-03 10:49:46.253589
1501  2023-11-03 10:49:46.284764
1502  2023-11-03 10:49:46.332707
1503  2023-11-03 10:49:46.379548
1504  2023-11-03 10:49:46.411462
1505  2023-11-03 10:49:46.459369
1506  2023-11-03 10:49:46.507207
1507  2023-11-03 10:49:46.539121
1508  2023-11-03 10:49:46.585031
1509  2023-11-03 10:49:46.616914
1510  2023-11-03 10:49:46.664819
1511  2023-11-03 10:49:46.712320
1512  2023-11-03 10:49:46.744235
1513  2023-11-03 10:49:46.792141
1514  2023-11-03 10:49:46.838331
1515  2023-11-03 10:49:46.870236
1516  2023-11-03 10:49:46.917523
1517  2023-11-03 10:49:46.963913
1518  2023-11-03 10:49:46.995828
1519  2023-11-03 10:49:47.043418
1520  2023-11-03 10:49:47.075287
1521  2023-11-03 10:49:47.122162
1522  2023-11-03 10:49:47.168117
1523  2023-11-03 10:49:47.215078
1524  2023-11-03 10:49:47.247031
1525  2023-11-03 10:49:47.295172
1526  2023-11-03 10:49:47.326970
1527  2023-11-03 10:49:47.374877
1528  2023-11-03 10:49:47.421758
1529  2023-11-03 10:49:47.452675
1530  2023-11-03 10:49:47.499510
1531  2023-11-03 10:49:47.545387
1532  2023-11-03 10:49:47.577301
1533  2023-11-03 10:49:47.625206
1534  2023-11-03 10:49:47.673045
1535  2023-11-03 10:49:47.704960
1536  2023-11-03 10:49:47.750838
1537  2023-11-03 10:49:47.798742
1538  2023-11-03 10:49:47.830700
1539  2023-11-03 10:49:47.878612
1540  2023-11-03 10:49:47.910520
1541  2023-11-03 10:49:47.956447
1542  2023-11-03 10:49:48.004269
1543  2023-11-03 10:49:48.036184
1544  2023-11-03 10:49:48.082092
1545  2023-11-03 10:49:48.130019
1546  2023-11-03 10:49:48.162000
1547  2023-11-03 10:49:48.207875
1548  2023-11-03 10:49:48.255748
1549  2023-11-03 10:49:48.288646
1550  2023-11-03 10:49:48.335537
1551  2023-11-03 10:49:48.367452
1552  2023-11-03 10:49:48.414292
1553  2023-11-03 10:49:48.481163
1554  2023-11-03 10:49:48.493082
1555  2023-11-03 10:49:48.539085
1556  2023-11-03 10:49:48.585950
1557  2023-11-03 10:49:48.617838
1558  2023-11-03 10:49:48.665757
1559  2023-11-03 10:49:48.712726
1560  2023-11-03 10:49:48.744546
1561  2023-11-03 10:49:48.792451
1562  2023-11-03 10:49:48.841354
1563  2023-11-03 10:49:48.870292
1564  2023-11-03 10:49:48.917213
1565  2023-11-03 10:49:48.965039
1566  2023-11-03 10:49:48.996981
1567  2023-11-03 10:49:49.044909
1568  2023-11-03 10:49:49.076823
1569  2023-11-03 10:49:49.124746
1570  2023-11-03 10:49:49.172567
1571  2023-11-03 10:49:49.204481
1572  2023-11-03 10:49:49.251390
1573  2023-11-03 10:49:49.298273
1574  2023-11-03 10:49:49.329179
1575  2023-11-03 10:49:49.377101
1576  2023-11-03 10:49:49.422979
1577  2023-11-03 10:49:49.454907
1578  2023-11-03 10:49:49.502765
1579  2023-11-03 10:49:49.534370
1580  2023-11-03 10:49:49.582340
1581  2023-11-03 10:49:49.630195
1582  2023-11-03 10:49:49.662115
1583  2023-11-03 10:49:49.709996
1584  2023-11-03 10:49:49.741911
1585  2023-11-03 10:49:49.789775
1586  2023-11-03 10:49:49.837641
1587  2023-11-03 10:49:49.869556
1588  2023-11-03 10:49:49.915450
1589  2023-11-03 10:49:49.963308
1590  2023-11-03 10:49:49.995190
1591  2023-11-03 10:49:50.043060
1592  2023-11-03 10:49:50.090996
1593  2023-11-03 10:49:50.121934
1594  2023-11-03 10:49:50.167764
1595  2023-11-03 10:49:50.214602
1596  2023-11-03 10:49:50.246517
1597  2023-11-03 10:49:50.294419
1598  2023-11-03 10:49:50.326354
1599  2023-11-03 10:49:50.374175
1600  2023-11-03 10:49:50.420114
1601  2023-11-03 10:49:50.452038
1602  2023-11-03 10:49:50.499840
1603  2023-11-03 10:49:50.547712
1604  2023-11-03 10:49:50.579627
1605  2023-11-03 10:49:50.627532
1606  2023-11-03 10:49:50.659415
1607  2023-11-03 10:49:50.707285
1608  2023-11-03 10:49:50.754195
1609  2023-11-03 10:49:50.785739
1610  2023-11-03 10:49:50.833693
1611  2023-11-03 10:49:50.881566
1612  2023-11-03 10:49:50.913482
1613  2023-11-03 10:49:50.961397
1614  2023-11-03 10:49:50.993304
1615  2023-11-03 10:49:51.041140
1616  2023-11-03 10:49:51.089012
1617  2023-11-03 10:49:51.120927
1618  2023-11-03 10:49:51.168833
1619  2023-11-03 10:49:51.200833
1620  2023-11-03 10:49:51.248629
1621  2023-11-03 10:49:51.295502
1622  2023-11-03 10:49:51.325411
1623  2023-11-03 10:49:51.372289
1624  2023-11-03 10:49:51.420160
1625  2023-11-03 10:49:51.452082
1626  2023-11-03 10:49:51.499916
1627  2023-11-03 10:49:51.546788
1628  2023-11-03 10:49:51.577756
1629  2023-11-03 10:49:51.625617
1630  2023-11-03 10:49:51.670458
1631  2023-11-03 10:49:51.702373
1632  2023-11-03 10:49:51.748250
1633  2023-11-03 10:49:51.795475
1634  2023-11-03 10:49:51.827534
1635  2023-11-03 10:49:51.875332
1636  2023-11-03 10:49:51.923423
1637  2023-11-03 10:49:51.955655
1638  2023-11-03 10:49:52.003336
1639  2023-11-03 10:49:52.035251
1640  2023-11-03 10:49:52.083187
1641  2023-11-03 10:49:52.131152
1642  2023-11-03 10:49:52.162122
1643  2023-11-03 10:49:52.208061
1644  2023-11-03 10:49:52.255873
1645  2023-11-03 10:49:52.286795
1646  2023-11-03 10:49:52.332705
1647  2023-11-03 10:49:52.379806
1648  2023-11-03 10:49:52.411708
1649  2023-11-03 10:49:52.460584
1650  2023-11-03 10:49:52.506467
1651  2023-11-03 10:49:52.537475
1652  2023-11-03 10:49:52.585429
1653  2023-11-03 10:49:52.631316
1654  2023-11-03 10:49:52.663250
1655  2023-11-03 10:49:52.711062
1656  2023-11-03 10:49:52.743973
1657  2023-11-03 10:49:52.791881
1658  2023-11-03 10:49:52.839760
1659  2023-11-03 10:49:52.871668
1660  2023-11-03 10:49:52.919558
1661  2023-11-03 10:49:52.951468
1662  2023-11-03 10:49:52.997730
1663  2023-11-03 10:49:53.045684
1664  2023-11-03 10:49:53.077599
1665  2023-11-03 10:49:53.125501
1666  2023-11-03 10:49:53.173343
1667  2023-11-03 10:49:53.205257
1668  2023-11-03 10:49:53.253160
1669  2023-11-03 10:49:53.285096
1670  2023-11-03 10:49:53.332916
1671  2023-11-03 10:49:53.378794
1672  2023-11-03 10:49:53.410708
1673  2023-11-03 10:49:53.457609
1674  2023-11-03 10:49:53.504500
1675  2023-11-03 10:49:53.536406
1676  2023-11-03 10:49:53.584245
1677  2023-11-03 10:49:53.631165
1678  2023-11-03 10:49:53.662068
1679  2023-11-03 10:49:53.710062
1680  2023-11-03 10:49:53.756699
1681  2023-11-03 10:49:53.788612
1682  2023-11-03 10:49:53.835602
1683  2023-11-03 10:49:53.881482
1684  2023-11-03 10:49:53.912395
1685  2023-11-03 10:49:53.960394
1686  2023-11-03 10:49:53.992313
1687  2023-11-03 10:49:54.039613
1688  2023-11-03 10:49:54.086533
1689  2023-11-03 10:49:54.118432
1690  2023-11-03 10:49:54.166313
1691  2023-11-03 10:49:54.212425
1692  2023-11-03 10:49:54.244340
1693  2023-11-03 10:49:54.290361
1694  2023-11-03 10:49:54.338207
1695  2023-11-03 10:49:54.370122
1696  2023-11-03 10:49:54.417994
1697  2023-11-03 10:49:54.464944
1698  2023-11-03 10:49:54.495968
1699  2023-11-03 10:49:54.543805
1700  2023-11-03 10:49:54.575720
1701  2023-11-03 10:49:54.623626
1702  2023-11-03 10:49:54.671559
1703  2023-11-03 10:49:54.703474
1704  2023-11-03 10:49:54.751315
1705  2023-11-03 10:49:54.798249
1706  2023-11-03 10:49:54.829150
1707  2023-11-03 10:49:54.877145
1708  2023-11-03 10:49:54.923096
1709  2023-11-03 10:49:54.955010
1710  2023-11-03 10:49:55.002911
1711  2023-11-03 10:49:55.034771
1712  2023-11-03 10:49:55.080725
1713  2023-11-03 10:49:55.128588
1714  2023-11-03 10:49:55.160518
1715  2023-11-03 10:49:55.208385
1716  2023-11-03 10:49:55.256346
1717  2023-11-03 10:49:55.288363
1718  2023-11-03 10:49:55.336075
1719  2023-11-03 10:49:55.367048
1720  2023-11-03 10:49:55.413868
1721  2023-11-03 10:49:55.461744
1722  2023-11-03 10:49:55.493693
1723  2023-11-03 10:49:55.541577
1724  2023-11-03 10:49:55.589443
1725  2023-11-03 10:49:55.621358
1726  2023-11-03 10:49:55.669480
1727  2023-11-03 10:49:55.715357
1728  2023-11-03 10:49:55.747271
1729  2023-11-03 10:49:55.795218
1730  2023-11-03 10:49:55.827175
1731  2023-11-03 10:49:55.874692
1732  2023-11-03 10:49:55.923618
1733  2023-11-03 10:49:55.954479
1734  2023-11-03 10:49:56.000397
1735  2023-11-03 10:49:56.048228
1736  2023-11-03 10:49:56.079749
1737  2023-11-03 10:49:56.127657
1738  2023-11-03 10:49:56.159576
1739  2023-11-03 10:49:56.206411
1740  2023-11-03 10:49:56.253402
1741  2023-11-03 10:49:56.284700
1742  2023-11-03 10:49:56.330615
1743  2023-11-03 10:49:56.378528
1744  2023-11-03 10:49:56.410475
1745  2023-11-03 10:49:56.458317
1746  2023-11-03 10:49:56.506218
1747  2023-11-03 10:49:56.538181
1748  2023-11-03 10:49:56.585083
1749  2023-11-03 10:49:56.631999
1750  2023-11-03 10:49:56.664043
1751  2023-11-03 10:49:56.711912
1752  2023-11-03 10:49:56.742822
1753  2023-11-03 10:49:56.790726
1754  2023-11-03 10:49:56.836565
1755  2023-11-03 10:49:56.868499
1756  2023-11-03 10:49:56.916350
1757  2023-11-03 10:49:56.965204
1758  2023-11-03 10:49:56.996224
1759  2023-11-03 10:49:57.044110
1760  2023-11-03 10:49:57.076030
1761  2023-11-03 10:49:57.122724
1762  2023-11-03 10:49:57.170668
1763  2023-11-03 10:49:57.202583
1764  2023-11-03 10:49:57.250491
1765  2023-11-03 10:49:57.298327
1766  2023-11-03 10:49:57.329310
1767  2023-11-03 10:49:57.376809
1768  2023-11-03 10:49:57.408723
1769  2023-11-03 10:49:57.454601
1770  2023-11-03 10:49:57.501523
1771  2023-11-03 10:49:57.548350
1772  2023-11-03 10:49:57.579268
1773  2023-11-03 10:49:57.627166
1774  2023-11-03 10:49:57.659097
1775  2023-11-03 10:49:57.706957
1776  2023-11-03 10:49:57.754834
1777  2023-11-03 10:49:57.786755
1778  2023-11-03 10:49:57.833685
1779  2023-11-03 10:49:57.880763
1780  2023-11-03 10:49:57.911665
1781  2023-11-03 10:49:57.958655
1782  2023-11-03 10:49:58.006550
1783  2023-11-03 10:49:58.038439
1784  2023-11-03 10:49:58.086324
1785  2023-11-03 10:49:58.118315
1786  2023-11-03 10:49:58.164160
1787  2023-11-03 10:49:58.211515
1788  2023-11-03 10:49:58.243512
1789  2023-11-03 10:49:58.291392
1790  2023-11-03 10:49:58.340335
1791  2023-11-03 10:49:58.372325
1792  2023-11-03 10:49:58.421271
1793  2023-11-03 10:49:58.451150
1794  2023-11-03 10:49:58.499989
1795  2023-11-03 10:49:58.544989
1796  2023-11-03 10:49:58.576904
1797  2023-11-03 10:49:58.625868
1798  2023-11-03 10:49:58.672774
1799  2023-11-03 10:49:58.704692
1800  2023-11-03 10:49:58.752528
1801  2023-11-03 10:49:58.784443
1802  2023-11-03 10:49:58.832479
1803  2023-11-03 10:49:58.880305
1804  2023-11-03 10:49:58.912221
1805  2023-11-03 10:49:58.960122
1806  2023-11-03 10:49:58.992037
1807  2023-11-03 10:49:59.039948
1808  2023-11-03 10:49:59.087830
1809  2023-11-03 10:49:59.119744
1810  2023-11-03 10:49:59.167659
1811  2023-11-03 10:49:59.215488
1812  2023-11-03 10:49:59.247208
1813  2023-11-03 10:49:59.295143
1814  2023-11-03 10:49:59.327027
1815  2023-11-03 10:49:59.374987
1816  2023-11-03 10:49:59.422739
1817  2023-11-03 10:49:59.452661
1818  2023-11-03 10:49:59.500583
1819  2023-11-03 10:49:59.548165
1820  2023-11-03 10:49:59.580080
1821  2023-11-03 10:49:59.628237
1822  2023-11-03 10:49:59.659914
1823  2023-11-03 10:49:59.707965
1824  2023-11-03 10:49:59.755833
1825  2023-11-03 10:49:59.787717
1826  2023-11-03 10:49:59.835587
1827  2023-11-03 10:49:59.867503
1828  2023-11-03 10:49:59.915433
1829  2023-11-03 10:49:59.963359
1830  2023-11-03 10:49:59.995249
1831  2023-11-03 10:50:00.042828
1832  2023-11-03 10:50:00.090635
1833  2023-11-03 10:50:00.122551
1834  2023-11-03 10:50:00.170421
1835  2023-11-03 10:50:00.202336
1836  2023-11-03 10:50:00.250281
1837  2023-11-03 10:50:00.298156
1838  2023-11-03 10:50:00.330408
1839  2023-11-03 10:50:00.377314
1840  2023-11-03 10:50:00.409246
1841  2023-11-03 10:50:00.457175
1842  2023-11-03 10:50:00.505040
1843  2023-11-03 10:50:00.535941
1844  2023-11-03 10:50:00.583814
1845  2023-11-03 10:50:00.632650
1846  2023-11-03 10:50:00.663598
1847  2023-11-03 10:50:00.711530
1848  2023-11-03 10:50:00.743548
1849  2023-11-03 10:50:00.791281
1850  2023-11-03 10:50:00.838181
1851  2023-11-03 10:50:00.870110
1852  2023-11-03 10:50:00.917992
1853  2023-11-03 10:50:00.965888
1854  2023-11-03 10:50:00.995780
1855  2023-11-03 10:50:01.043660
1856  2023-11-03 10:50:01.075573
1857  2023-11-03 10:50:01.123416
1858  2023-11-03 10:50:01.171317
1859  2023-11-03 10:50:01.203234
1860  2023-11-03 10:50:01.250128
1861  2023-11-03 10:50:01.298054
1862  2023-11-03 10:50:01.328898
1863  2023-11-03 10:50:01.376768
1864  2023-11-03 10:50:01.408683
1865  2023-11-03 10:50:01.456580
1866  2023-11-03 10:50:01.504438
1867  2023-11-03 10:50:01.534342
1868  2023-11-03 10:50:01.581190
1869  2023-11-03 10:50:01.627094
1870  2023-11-03 10:50:01.659032
1871  2023-11-03 10:50:01.706855
1872  2023-11-03 10:50:01.754757
1873  2023-11-03 10:50:01.785644
1874  2023-11-03 10:50:01.832552
1875  2023-11-03 10:50:01.880391
1876  2023-11-03 10:50:01.911308
1877  2023-11-03 10:50:01.958216
1878  2023-11-03 10:50:02.006090
1879  2023-11-03 10:50:02.038001
1880  2023-11-03 10:50:02.085873
1881  2023-11-03 10:50:02.117804
1882  2023-11-03 10:50:02.165660
1883  2023-11-03 10:50:02.213557
1884  2023-11-03 10:50:02.245594
1885  2023-11-03 10:50:02.293289
1886  2023-11-03 10:50:02.325286
1887  2023-11-03 10:50:02.373109
1888  2023-11-03 10:50:02.420701
1889  2023-11-03 10:50:02.452669
1890  2023-11-03 10:50:02.500523
1891  2023-11-03 10:50:02.548480
1892  2023-11-03 10:50:02.580425
1893  2023-11-03 10:50:02.628316
1894  2023-11-03 10:50:02.661188
1895  2023-11-03 10:50:02.707091
1896  2023-11-03 10:50:02.753978
1897  2023-11-03 10:50:02.785880
1898  2023-11-03 10:50:02.833751
1899  2023-11-03 10:50:02.880629
1900  2023-11-03 10:50:02.911575
1901  2023-11-03 10:50:02.959413
1902  2023-11-03 10:50:03.007302
1903  2023-11-03 10:50:03.039169
1904  2023-11-03 10:50:03.084153
1905  2023-11-03 10:50:03.131100
1906  2023-11-03 10:50:03.161979
1907  2023-11-03 10:50:03.209818
1908  2023-11-03 10:50:03.256731
1909  2023-11-03 10:50:03.288634
1910  2023-11-03 10:50:03.336485
1911  2023-11-03 10:50:03.367427
1912  2023-11-03 10:50:03.413949
1913  2023-11-03 10:50:03.459998
1914  2023-11-03 10:50:03.491822
1915  2023-11-03 10:50:03.538730
1916  2023-11-03 10:50:03.585621
1917  2023-11-03 10:50:03.617532
1918  2023-11-03 10:50:03.665390
1919  2023-11-03 10:50:03.713273
1920  2023-11-03 10:50:03.744147
1921  2023-11-03 10:50:03.792051
1922  2023-11-03 10:50:03.839952
1923  2023-11-03 10:50:03.870841
1924  2023-11-03 10:50:03.918716
1925  2023-11-03 10:50:03.950641
1926  2023-11-03 10:50:03.998499
1927  2023-11-03 10:50:04.046388
1928  2023-11-03 10:50:04.078285
1929  2023-11-03 10:50:04.126132
1930  2023-11-03 10:50:04.173048
1931  2023-11-03 10:50:04.203994
1932  2023-11-03 10:50:04.251791
1933  2023-11-03 10:50:04.283705
1934  2023-11-03 10:50:04.331624
1935  2023-11-03 10:50:04.379449
1936  2023-11-03 10:50:04.411364
1937  2023-11-03 10:50:04.459237
1938  2023-11-03 10:50:04.507108
1939  2023-11-03 10:50:04.539023
1940  2023-11-03 10:50:04.585898
1941  2023-11-03 10:50:04.631808
1942  2023-11-03 10:50:04.662694
1943  2023-11-03 10:50:04.709567
1944  2023-11-03 10:50:04.756488
1945  2023-11-03 10:50:04.787360
1946  2023-11-03 10:50:04.832674
1947  2023-11-03 10:50:04.880689
1948  2023-11-03 10:50:04.911708
1949  2023-11-03 10:50:04.959451
1950  2023-11-03 10:50:05.007320
1951  2023-11-03 10:50:05.037579
1952  2023-11-03 10:50:05.085471
1953  2023-11-03 10:50:05.131514
1954  2023-11-03 10:50:05.163421
1955  2023-11-03 10:50:05.211292
1956  2023-11-03 10:50:05.243247
1957  2023-11-03 10:50:05.291160
1958  2023-11-03 10:50:05.338320
1959  2023-11-03 10:50:05.369339
1960  2023-11-03 10:50:05.417260
1961  2023-11-03 10:50:05.465256
1962  2023-11-03 10:50:05.497257
1963  2023-11-03 10:50:05.545086
1964  2023-11-03 10:50:05.577000
1965  2023-11-03 10:50:05.624907
1966  2023-11-03 10:50:05.672745
1967  2023-11-03 10:50:05.704663
1968  2023-11-03 10:50:05.752533
1969  2023-11-03 10:50:05.784446
1970  2023-11-03 10:50:05.831354
1971  2023-11-03 10:50:05.878196
1972  2023-11-03 10:50:05.909113
1973  2023-11-03 10:50:05.956024
1974  2023-11-03 10:50:06.001914
1975  2023-11-03 10:50:06.033910
1976  2023-11-03 10:50:06.081805
1977  2023-11-03 10:50:06.129709
1978  2023-11-03 10:50:06.161574
1979  2023-11-03 10:50:06.209578
1980  2023-11-03 10:50:06.256415
1981  2023-11-03 10:50:06.287305
1982  2023-11-03 10:50:06.335226
1983  2023-11-03 10:50:06.367134
1984  2023-11-03 10:50:06.414964
1985  2023-11-03 10:50:06.462836
1986  2023-11-03 10:50:06.494792
1987  2023-11-03 10:50:06.542624
1988  2023-11-03 10:50:06.590522
1989  2023-11-03 10:50:06.622450
1990  2023-11-03 10:50:06.670315
1991  2023-11-03 10:50:06.702234
1992  2023-11-03 10:50:06.750125
1993  2023-11-03 10:50:06.797999
1994  2023-11-03 10:50:06.827862
1995  2023-11-03 10:50:06.875782
1996  2023-11-03 10:50:06.922638
1997  2023-11-03 10:50:06.955569
1998  2023-11-03 10:50:07.000437
1999  2023-11-03 10:50:07.046377
2000  2023-11-03 10:50:07.078138
2001  2023-11-03 10:50:07.125044
2002  2023-11-03 10:50:07.171888
2003  2023-11-03 10:50:07.203845
2004  2023-11-03 10:50:07.251708
2005  2023-11-03 10:50:07.298619
2006  2023-11-03 10:50:07.330535
2007  2023-11-03 10:50:07.378376
2008  2023-11-03 10:50:07.408402
2009  2023-11-03 10:50:07.456292
2010  2023-11-03 10:50:07.503144
2011  2023-11-03 10:50:07.534159
2012  2023-11-03 10:50:07.582032
2013  2023-11-03 10:50:07.629912
2014  2023-11-03 10:50:07.661820
2015  2023-11-03 10:50:07.709699
2016  2023-11-03 10:50:07.757569
2017  2023-11-03 10:50:07.789486
2018  2023-11-03 10:50:07.837342
2019  2023-11-03 10:50:07.869297
2020  2023-11-03 10:50:07.917297
2021  2023-11-03 10:50:07.964211
2022  2023-11-03 10:50:07.996254
2023  2023-11-03 10:50:08.044230
2024  2023-11-03 10:50:08.076155
2025  2023-11-03 10:50:08.124020
2026  2023-11-03 10:50:08.172949
2027  2023-11-03 10:50:08.202972
2028  2023-11-03 10:50:08.249813
2029  2023-11-03 10:50:08.297210
2030  2023-11-03 10:50:08.329100
2031  2023-11-03 10:50:08.376991
2032  2023-11-03 10:50:08.422906
2033  2023-11-03 10:50:08.454785
2034  2023-11-03 10:50:08.502655
2035  2023-11-03 10:50:08.533573
2036  2023-11-03 10:50:08.580448
2037  2023-11-03 10:50:08.628374
2038  2023-11-03 10:50:08.660267
2039  2023-11-03 10:50:08.708106
2040  2023-11-03 10:50:08.756022
2041  2023-11-03 10:50:08.787895
2042  2023-11-03 10:50:08.835765
2043  2023-11-03 10:50:08.867680
2044  2023-11-03 10:50:08.916549
2045  2023-11-03 10:50:08.963424
2046  2023-11-03 10:50:08.995341
2047  2023-11-03 10:50:09.043211
2048  2023-11-03 10:50:09.089134
2049  2023-11-03 10:50:09.122000
2050  2023-11-03 10:50:09.168908
2051  2023-11-03 10:50:09.200833
2052  2023-11-03 10:50:09.248662
2053  2023-11-03 10:50:09.296584
2054  2023-11-03 10:50:09.327502
2055  2023-11-03 10:50:09.374369
2056  2023-11-03 10:50:09.421247
2057  2023-11-03 10:50:09.452167
2058  2023-11-03 10:50:09.500021
2059  2023-11-03 10:50:09.547898
2060  2023-11-03 10:50:09.579809
2061  2023-11-03 10:50:09.626653
2062  2023-11-03 10:50:09.672529
2063  2023-11-03 10:50:09.704535
2064  2023-11-03 10:50:09.750470
2065  2023-11-03 10:50:09.798474
2066  2023-11-03 10:50:09.830384
2067  2023-11-03 10:50:09.878256
2068  2023-11-03 10:50:09.910138
2069  2023-11-03 10:50:09.957045
2070  2023-11-03 10:50:10.002968
2071  2023-11-03 10:50:10.033919
2072  2023-11-03 10:50:10.081760
2073  2023-11-03 10:50:10.129631
2074  2023-11-03 10:50:10.160547
2075  2023-11-03 10:50:10.207460
2076  2023-11-03 10:50:10.255334
2077  2023-11-03 10:50:10.287254
2078  2023-11-03 10:50:10.335121
2079  2023-11-03 10:50:10.367026
2080  2023-11-03 10:50:10.414947
2081  2023-11-03 10:50:10.462782
2082  2023-11-03 10:50:10.494689
2083  2023-11-03 10:50:10.542567
2084  2023-11-03 10:50:10.589401
2085  2023-11-03 10:50:10.621317
2086  2023-11-03 10:50:10.669224
2087  2023-11-03 10:50:10.701140
2088  2023-11-03 10:50:10.748974
2089  2023-11-03 10:50:10.794883
2090  2023-11-03 10:50:10.826830
2091  2023-11-03 10:50:10.874681
2092  2023-11-03 10:50:10.922557
2093  2023-11-03 10:50:10.953429
2094  2023-11-03 10:50:10.998356
2095  2023-11-03 10:50:11.045184
2096  2023-11-03 10:50:11.076102
2097  2023-11-03 10:50:11.124108
2098  2023-11-03 10:50:11.171846
2099  2023-11-03 10:50:11.203761
2100  2023-11-03 10:50:11.251662
2101  2023-11-03 10:50:11.283577
2102  2023-11-03 10:50:11.331419
2103  2023-11-03 10:50:11.379295
2104  2023-11-03 10:50:11.411316
2105  2023-11-03 10:50:11.457194
2106  2023-11-03 10:50:11.505102
2107  2023-11-03 10:50:11.536053
2108  2023-11-03 10:50:11.581891
2109  2023-11-03 10:50:11.628766
2110  2023-11-03 10:50:11.660709
2111  2023-11-03 10:50:11.708708
2112  2023-11-03 10:50:11.756588
2113  2023-11-03 10:50:11.786508
2114  2023-11-03 10:50:11.834391
2115  2023-11-03 10:50:11.882211
2116  2023-11-03 10:50:11.912162
2117  2023-11-03 10:50:11.960050
2118  2023-11-03 10:50:11.991957
2119  2023-11-03 10:50:12.039902
2120  2023-11-03 10:50:12.087870
2121  2023-11-03 10:50:12.119909
2122  2023-11-03 10:50:12.168604
2123  2023-11-03 10:50:12.216512
2124  2023-11-03 10:50:12.247441
2125  2023-11-03 10:50:12.296290
2126  2023-11-03 10:50:12.326229
2127  2023-11-03 10:50:12.373057
2128  2023-11-03 10:50:12.420963
2129  2023-11-03 10:50:12.452876
2130  2023-11-03 10:50:12.500854
2131  2023-11-03 10:50:12.548726
2132  2023-11-03 10:50:12.580641
2133  2023-11-03 10:50:12.626553
2134  2023-11-03 10:50:12.672428
2135  2023-11-03 10:50:12.704342
2136  2023-11-03 10:50:12.752183
2137  2023-11-03 10:50:12.784097
2138  2023-11-03 10:50:12.832001
2139  2023-11-03 10:50:12.879842
2140  2023-11-03 10:50:12.910791
2141  2023-11-03 10:50:12.957674
2142  2023-11-03 10:50:13.004544
2143  2023-11-03 10:50:13.035459
2144  2023-11-03 10:50:13.082332
2145  2023-11-03 10:50:13.130175
2146  2023-11-03 10:50:13.162102
2147  2023-11-03 10:50:13.210109
2148  2023-11-03 10:50:13.241966
2149  2023-11-03 10:50:13.289842
2150  2023-11-03 10:50:13.336713
2151  2023-11-03 10:50:13.368638
2152  2023-11-03 10:50:13.414973
2153  2023-11-03 10:50:13.462834
2154  2023-11-03 10:50:13.495708
2155  2023-11-03 10:50:13.540726
2156  2023-11-03 10:50:13.585754
2157  2023-11-03 10:50:13.617644
2158  2023-11-03 10:50:13.665622
2159  2023-11-03 10:50:13.713533
2160  2023-11-03 10:50:13.745409
2161  2023-11-03 10:50:13.793282
2162  2023-11-03 10:50:13.825196
2163  2023-11-03 10:50:13.873068
2164  2023-11-03 10:50:13.919943
2165  2023-11-03 10:50:13.950860
2166  2023-11-03 10:50:13.998776
2167  2023-11-03 10:50:14.046604
2168  2023-11-03 10:50:14.078521
2169  2023-11-03 10:50:14.125429
2170  2023-11-03 10:50:14.172301
2171  2023-11-03 10:50:14.203256
2172  2023-11-03 10:50:14.250134
2173  2023-11-03 10:50:14.297030
2174  2023-11-03 10:50:14.328923
2175  2023-11-03 10:50:14.376794
2176  2023-11-03 10:50:14.408711
2177  2023-11-03 10:50:14.456295
2178  2023-11-03 10:50:14.504223
2179  2023-11-03 10:50:14.536097
2180  2023-11-03 10:50:14.583017
2181  2023-11-03 10:50:14.631884
2182  2023-11-03 10:50:14.662798
2183  2023-11-03 10:50:14.711675
2184  2023-11-03 10:50:14.742546
2185  2023-11-03 10:50:14.791415
2186  2023-11-03 10:50:14.837849
2187  2023-11-03 10:50:14.869821
2188  2023-11-03 10:50:14.917704
2189  2023-11-03 10:50:14.963540
2190  2023-11-03 10:50:14.995487
2191  2023-11-03 10:50:15.043342
2192  2023-11-03 10:50:15.075241
2193  2023-11-03 10:50:15.123116
2194  2023-11-03 10:50:15.169019
2195  2023-11-03 10:50:15.214868
2196  2023-11-03 10:50:15.246782
2197  2023-11-03 10:50:15.294654
2198  2023-11-03 10:50:15.326569
2199  2023-11-03 10:50:15.374473
2200  2023-11-03 10:50:15.422313
2201  2023-11-03 10:50:15.454228
2202  2023-11-03 10:50:15.502137
2203  2023-11-03 10:50:15.534054
2204  2023-11-03 10:50:15.581887
2205  2023-11-03 10:50:15.629790
2206  2023-11-03 10:50:15.661673
2207  2023-11-03 10:50:15.709576
2208  2023-11-03 10:50:15.756579
2209  2023-11-03 10:50:15.787485
2210  2023-11-03 10:50:15.835366
2211  2023-11-03 10:50:15.867272
2212  2023-11-03 10:50:15.915111
2213  2023-11-03 10:50:15.963009
2214  2023-11-03 10:50:15.993944
2215  2023-11-03 10:50:16.041808
2216  2023-11-03 10:50:16.088685
2217  2023-11-03 10:50:16.120593
2218  2023-11-03 10:50:16.167470
2219  2023-11-03 10:50:16.214311
2220  2023-11-03 10:50:16.245233
2221  2023-11-03 10:50:16.293133
2222  2023-11-03 10:50:16.340008
2223  2023-11-03 10:50:16.371934
2224  2023-11-03 10:50:16.420790
2225  2023-11-03 10:50:16.452717
2226  2023-11-03 10:50:16.500588
2227  2023-11-03 10:50:16.548471
2228  2023-11-03 10:50:16.580393
2229  2023-11-03 10:50:16.629250
2230  2023-11-03 10:50:16.660122
2231  2023-11-03 10:50:16.708043
2232  2023-11-03 10:50:16.754053
2233  2023-11-03 10:50:16.785925
2234  2023-11-03 10:50:16.830861
2235  2023-11-03 10:50:16.878726
2236  2023-11-03 10:50:16.910622
2237  2023-11-03 10:50:16.958495
2238  2023-11-03 10:50:17.006365
2239  2023-11-03 10:50:17.038280
2240  2023-11-03 10:50:17.085164
2241  2023-11-03 10:50:17.132000
2242  2023-11-03 10:50:17.163939
2243  2023-11-03 10:50:17.211881
2244  2023-11-03 10:50:17.243366
2245  2023-11-03 10:50:17.291188
2246  2023-11-03 10:50:17.339125
2247  2023-11-03 10:50:17.371006
2248  2023-11-03 10:50:17.417881
2249  2023-11-03 10:50:17.464774
2250  2023-11-03 10:50:17.496689
2251  2023-11-03 10:50:17.544542
2252  2023-11-03 10:50:17.576486
2253  2023-11-03 10:50:17.624346
2254  2023-11-03 10:50:17.672200
2255  2023-11-03 10:50:17.704120
2256  2023-11-03 10:50:17.751989
2257  2023-11-03 10:50:17.783902
2258  2023-11-03 10:50:17.832787
2259  2023-11-03 10:50:17.879718
2260  2023-11-03 10:50:17.911660
2261  2023-11-03 10:50:17.959503
2262  2023-11-03 10:50:18.006407
2263  2023-11-03 10:50:18.038324
2264  2023-11-03 10:50:18.086206
2265  2023-11-03 10:50:18.118124
2266  2023-11-03 10:50:18.163997
2267  2023-11-03 10:50:18.212875
2268  2023-11-03 10:50:18.243787
2269  2023-11-03 10:50:18.292618
2270  2023-11-03 10:50:18.340539
2271  2023-11-03 10:50:18.372439
2272  2023-11-03 10:50:18.419302
2273  2023-11-03 10:50:18.451220
2274  2023-11-03 10:50:18.499141
2275  2023-11-03 10:50:18.546965
2276  2023-11-03 10:50:18.578884
2277  2023-11-03 10:50:18.626726
2278  2023-11-03 10:50:18.674655
2279  2023-11-03 10:50:18.704900
2280  2023-11-03 10:50:18.751814
2281  2023-11-03 10:50:18.784726
2282  2023-11-03 10:50:18.831600
2283  2023-11-03 10:50:18.879505
2284  2023-11-03 10:50:18.909428
2285  2023-11-03 10:50:18.957385
2286  2023-11-03 10:50:19.003264
2287  2023-11-03 10:50:19.035233
2288  2023-11-03 10:50:19.082051
2289  2023-11-03 10:50:19.127986
2290  2023-11-03 10:50:19.158876
2291  2023-11-03 10:50:19.204754
2292  2023-11-03 10:50:19.251600
2293  2023-11-03 10:50:19.298485
2294  2023-11-03 10:50:19.330388
2295  2023-11-03 10:50:19.378425
2296  2023-11-03 10:50:19.411357
2297  2023-11-03 10:50:19.459229
2298  2023-11-03 10:50:19.506080
2299  2023-11-03 10:50:19.538011
2300  2023-11-03 10:50:19.585861
2301  2023-11-03 10:50:19.631707
2302  2023-11-03 10:50:19.663622
2303  2023-11-03 10:50:19.709538
2304  2023-11-03 10:50:19.756374
2305  2023-11-03 10:50:19.788289
2306  2023-11-03 10:50:19.836358
2307  2023-11-03 10:50:19.868247
2308  2023-11-03 10:50:19.916118
2309  2023-11-03 10:50:19.963991
2310  2023-11-03 10:50:19.994909
2311  2023-11-03 10:50:20.042781
2312  2023-11-03 10:50:20.089730
2313  2023-11-03 10:50:20.120650
2314  2023-11-03 10:50:20.168533
2315  2023-11-03 10:50:20.215394
2316  2023-11-03 10:50:20.247312
2317  2023-11-03 10:50:20.295184
2318  2023-11-03 10:50:20.327093
2319  2023-11-03 10:50:20.374969
2320  2023-11-03 10:50:20.422809
2321  2023-11-03 10:50:20.454785
2322  2023-11-03 10:50:20.502629
2323  2023-11-03 10:50:20.534541
2324  2023-11-03 10:50:20.580441
2325  2023-11-03 10:50:20.628316
2326  2023-11-03 10:50:20.660230
2327  2023-11-03 10:50:20.707085
2328  2023-11-03 10:50:20.754662
2329  2023-11-03 10:50:20.786571
2330  2023-11-03 10:50:20.834402
2331  2023-11-03 10:50:20.881313
2332  2023-11-03 10:50:20.913222
2333  2023-11-03 10:50:20.962062
2334  2023-11-03 10:50:21.005992
2335  2023-11-03 10:50:21.037893
2336  2023-11-03 10:50:21.085731
2337  2023-11-03 10:50:21.117646
2338  2023-11-03 10:50:21.164557
2339  2023-11-03 10:50:21.212392
2340  2023-11-03 10:50:21.244356
2341  2023-11-03 10:50:21.291215
2342  2023-11-03 10:50:21.339093
2343  2023-11-03 10:50:21.371019
2344  2023-11-03 10:50:21.418895
2345  2023-11-03 10:50:21.450809
2346  2023-11-03 10:50:21.498710
2347  2023-11-03 10:50:21.546553
2348  2023-11-03 10:50:21.577471
2349  2023-11-03 10:50:21.625302
2350  2023-11-03 10:50:21.673167
2351  2023-11-03 10:50:21.704169
2352  2023-11-03 10:50:21.750980
2353  2023-11-03 10:50:21.798879
2354  2023-11-03 10:50:21.829798
2355  2023-11-03 10:50:21.876681
2356  2023-11-03 10:50:21.908599
2357  2023-11-03 10:50:21.956495
2358  2023-11-03 10:50:22.004303
2359  2023-11-03 10:50:22.036217
2360  2023-11-03 10:50:22.085118
2361  2023-11-03 10:50:22.132008
2362  2023-11-03 10:50:22.163974
2363  2023-11-03 10:50:22.209873
2364  2023-11-03 10:50:22.241831
2365  2023-11-03 10:50:22.289715
2366  2023-11-03 10:50:22.337595
2367  2023-11-03 10:50:22.368955
2368  2023-11-03 10:50:22.415777
2369  2023-11-03 10:50:22.463746
2370  2023-11-03 10:50:22.495663
2371  2023-11-03 10:50:22.543497
2372  2023-11-03 10:50:22.591370
2373  2023-11-03 10:50:22.623314
2374  2023-11-03 10:50:22.671159
2375  2023-11-03 10:50:22.701116
2376  2023-11-03 10:50:22.748948
2377  2023-11-03 10:50:22.795822
2378  2023-11-03 10:50:22.826740
2379  2023-11-03 10:50:22.872662
2380  2023-11-03 10:50:22.920523
2381  2023-11-03 10:50:22.952405
2382  2023-11-03 10:50:23.000318
2383  2023-11-03 10:50:23.048361
2384  2023-11-03 10:50:23.080107
2385  2023-11-03 10:50:23.128043
2386  2023-11-03 10:50:23.159962
2387  2023-11-03 10:50:23.208865
2388  2023-11-03 10:50:23.255706
2389  2023-11-03 10:50:23.287621
2390  2023-11-03 10:50:23.335494
2391  2023-11-03 10:50:23.367407
2392  2023-11-03 10:50:23.415277
2393  2023-11-03 10:50:23.463120
2394  2023-11-03 10:50:23.496032
2395  2023-11-03 10:50:23.543102
2396  2023-11-03 10:50:23.589879
2397  2023-11-03 10:50:23.620796
2398  2023-11-03 10:50:23.668632
2399  2023-11-03 10:50:23.700583
2400  2023-11-03 10:50:23.747596
2401  2023-11-03 10:50:23.794133
2402  2023-11-03 10:50:23.840006
2403  2023-11-03 10:50:23.871996
2404  2023-11-03 10:50:23.920903
2405  2023-11-03 10:50:23.952810
2406  2023-11-03 10:50:24.000659
2407  2023-11-03 10:50:24.047530
2408  2023-11-03 10:50:24.080451
2409  2023-11-03 10:50:24.128317
2410  2023-11-03 10:50:24.174457
2411  2023-11-03 10:50:24.206411
2412  2023-11-03 10:50:24.252283
2413  2023-11-03 10:50:24.284197
2414  2023-11-03 10:50:24.332101
2415  2023-11-03 10:50:24.379941
2416  2023-11-03 10:50:24.411024
2417  2023-11-03 10:50:24.457008
2418  2023-11-03 10:50:24.504859
2419  2023-11-03 10:50:24.536761
2420  2023-11-03 10:50:24.583634
2421  2023-11-03 10:50:24.631540
2422  2023-11-03 10:50:24.662470
2423  2023-11-03 10:50:24.710339
2424  2023-11-03 10:50:24.742317
2425  2023-11-03 10:50:24.790217
2426  2023-11-03 10:50:24.837640
2427  2023-11-03 10:50:24.869560
2428  2023-11-03 10:50:24.917402
2429  2023-11-03 10:50:24.965309
2430  2023-11-03 10:50:24.997227
2431  2023-11-03 10:50:25.045093
2432  2023-11-03 10:50:25.076997
2433  2023-11-03 10:50:25.124846
2434  2023-11-03 10:50:25.171770
2435  2023-11-03 10:50:25.202678
2436  2023-11-03 10:50:25.248742
2437  2023-11-03 10:50:25.296676
2438  2023-11-03 10:50:25.328683
2439  2023-11-03 10:50:25.373827
2440  2023-11-03 10:50:25.420453
2441  2023-11-03 10:50:25.453374
2442  2023-11-03 10:50:25.501240
2443  2023-11-03 10:50:25.549062
2444  2023-11-03 10:50:25.581045
2445  2023-11-03 10:50:25.628884
2446  2023-11-03 10:50:25.660925
2447  2023-11-03 10:50:25.708816
2448  2023-11-03 10:50:25.756669
2449  2023-11-03 10:50:25.788551
2450  2023-11-03 10:50:25.836465
2451  2023-11-03 10:50:25.868377
2452  2023-11-03 10:50:25.916260
2453  2023-11-03 10:50:25.963085
2454  2023-11-03 10:50:25.994998
2455  2023-11-03 10:50:26.041872
2456  2023-11-03 10:50:26.088778
2457  2023-11-03 10:50:26.120697
2458  2023-11-03 10:50:26.168571
2459  2023-11-03 10:50:26.200484
2460  2023-11-03 10:50:26.247323
2461  2023-11-03 10:50:26.294230
2462  2023-11-03 10:50:26.326120
2463  2023-11-03 10:50:26.373985
2464  2023-11-03 10:50:26.420892
2465  2023-11-03 10:50:26.451778
2466  2023-11-03 10:50:26.497684
2467  2023-11-03 10:50:26.544555
2468  2023-11-03 10:50:26.583428
2469  2023-11-03 10:50:26.624368
2470  2023-11-03 10:50:26.672240
2471  2023-11-03 10:50:26.704144
2472  2023-11-03 10:50:26.752018
2473  2023-11-03 10:50:26.784888
2474  2023-11-03 10:50:26.830796
2475  2023-11-03 10:50:26.878700
2476  2023-11-03 10:50:26.910716
2477  2023-11-03 10:50:26.958470
2478  2023-11-03 10:50:27.006330
2479  2023-11-03 10:50:27.038254
2480  2023-11-03 10:50:27.086058
2481  2023-11-03 10:50:27.118019
2482  2023-11-03 10:50:27.165991
2483  2023-11-03 10:50:27.211885
2484  2023-11-03 10:50:27.243790
2485  2023-11-03 10:50:27.291650
2486  2023-11-03 10:50:27.340523
2487  2023-11-03 10:50:27.372518
2488  2023-11-03 10:50:27.419415
2489  2023-11-03 10:50:27.451335
2490  2023-11-03 10:50:27.500219
2491  2023-11-03 10:50:27.547078
2492  2023-11-03 10:50:27.579991
2493  2023-11-03 10:50:27.627903
2494  2023-11-03 10:50:27.659770
2495  2023-11-03 10:50:27.704624
2496  2023-11-03 10:50:27.751498
2497  2023-11-03 10:50:27.783413
2498  2023-11-03 10:50:27.830319
2499  2023-11-03 10:50:27.878160
2500  2023-11-03 10:50:27.910076
2501  2023-11-03 10:50:27.958001
2502  2023-11-03 10:50:28.005902
2503  2023-11-03 10:50:28.037733
2504  2023-11-03 10:50:28.085805
2505  2023-11-03 10:50:28.117712
2506  2023-11-03 10:50:28.165584
2507  2023-11-03 10:50:28.212427
2508  2023-11-03 10:50:28.244341
2509  2023-11-03 10:50:28.292294
2510  2023-11-03 10:50:28.338133
2511  2023-11-03 10:50:28.370006
2512  2023-11-03 10:50:28.417913
2513  2023-11-03 10:50:28.464754
2514  2023-11-03 10:50:28.495830
2515  2023-11-03 10:50:28.541596
2516  2023-11-03 10:50:28.589457
2517  2023-11-03 10:50:28.621381
2518  2023-11-03 10:50:28.669247
2519  2023-11-03 10:50:28.701123
2520  2023-11-03 10:50:28.749036
2521  2023-11-03 10:50:28.796922
2522  2023-11-03 10:50:28.828653
2523  2023-11-03 10:50:28.876641
2524  2023-11-03 10:50:28.909550
2525  2023-11-03 10:50:28.955459
2526  2023-11-03 10:50:29.002393
2527  2023-11-03 10:50:29.035307
2528  2023-11-03 10:50:29.082215
2529  2023-11-03 10:50:29.130097
2530  2023-11-03 10:50:29.160003
2531  2023-11-03 10:50:29.207070
2532  2023-11-03 10:50:29.252977
2533  2023-11-03 10:50:29.284920
2534  2023-11-03 10:50:29.332734
2535  2023-11-03 10:50:29.380606
2536  2023-11-03 10:50:29.412520
2537  2023-11-03 10:50:29.459395
2538  2023-11-03 10:50:29.506313
2539  2023-11-03 10:50:29.537222
2540  2023-11-03 10:50:29.585098
2541  2023-11-03 10:50:29.617018
2542  2023-11-03 10:50:29.664885
2543  2023-11-03 10:50:29.710755
2544  2023-11-03 10:50:29.742664
2545  2023-11-03 10:50:29.790510
2546  2023-11-03 10:50:29.838416
2547  2023-11-03 10:50:29.870330
2548  2023-11-03 10:50:29.918170
2549  2023-11-03 10:50:29.964079
2550  2023-11-03 10:50:29.995010
2551  2023-11-03 10:50:30.041874
2552  2023-11-03 10:50:30.088744
2553  2023-11-03 10:50:30.120659
2554  2023-11-03 10:50:30.167543
2555  2023-11-03 10:50:30.216518
2556  2023-11-03 10:50:30.247402
2557  2023-11-03 10:50:30.295331
2558  2023-11-03 10:50:30.326818
2559  2023-11-03 10:50:30.374759
2560  2023-11-03 10:50:30.422663
2561  2023-11-03 10:50:30.454639
2562  2023-11-03 10:50:30.501480
2563  2023-11-03 10:50:30.548628
2564  2023-11-03 10:50:30.580543
2565  2023-11-03 10:50:30.628382
2566  2023-11-03 10:50:30.660296
2567  2023-11-03 10:50:30.708194
2568  2023-11-03 10:50:30.756041
2569  2023-11-03 10:50:30.787956
2570  2023-11-03 10:50:30.835801
2571  2023-11-03 10:50:30.867716
2572  2023-11-03 10:50:30.913628
2573  2023-11-03 10:50:30.961664
2574  2023-11-03 10:50:30.993608
2575  2023-11-03 10:50:31.041480
2576  2023-11-03 10:50:31.089474
2577  2023-11-03 10:50:31.122236
2578  2023-11-03 10:50:31.169108
2579  2023-11-03 10:50:31.201023
2580  2023-11-03 10:50:31.246932
2581  2023-11-03 10:50:31.294807
2582  2023-11-03 10:50:31.325725
2583  2023-11-03 10:50:31.372595
2584  2023-11-03 10:50:31.420467
2585  2023-11-03 10:50:31.452391
2586  2023-11-03 10:50:31.500254
2587  2023-11-03 10:50:31.548096
2588  2023-11-03 10:50:31.580057
2589  2023-11-03 10:50:31.626926
2590  2023-11-03 10:50:31.658801
2591  2023-11-03 10:50:31.707701
2592  2023-11-03 10:50:31.753551
2593  2023-11-03 10:50:31.784533
2594  2023-11-03 10:50:31.832489
2595  2023-11-03 10:50:31.879458
2596  2023-11-03 10:50:31.911441
2597  2023-11-03 10:50:31.959283
2598  2023-11-03 10:50:32.007306
2599  2023-11-03 10:50:32.040148
2600  2023-11-03 10:50:32.088067
2601  2023-11-03 10:50:32.119089
2602  2023-11-03 10:50:32.165801
2603  2023-11-03 10:50:32.213699
2604  2023-11-03 10:50:32.245614
2605  2023-11-03 10:50:32.293487
2606  2023-11-03 10:50:32.340360
2607  2023-11-03 10:50:32.371431
2608  2023-11-03 10:50:32.417772
2609  2023-11-03 10:50:32.464717
2610  2023-11-03 10:50:32.496631
2611  2023-11-03 10:50:32.544538
2612  2023-11-03 10:50:32.576546
2613  2023-11-03 10:50:32.624418
2614  2023-11-03 10:50:32.672289
2615  2023-11-03 10:50:32.703241
2616  2023-11-03 10:50:32.750081
2617  2023-11-03 10:50:32.797953
2618  2023-11-03 10:50:32.829899
2619  2023-11-03 10:50:32.876743
2620  2023-11-03 10:50:32.908875
2621  2023-11-03 10:50:32.956748
2622  2023-11-03 10:50:33.004590
2623  2023-11-03 10:50:33.036536
2624  2023-11-03 10:50:33.084423
2625  2023-11-03 10:50:33.132280
2626  2023-11-03 10:50:33.163200
2627  2023-11-03 10:50:33.210072
2628  2023-11-03 10:50:33.241998
2629  2023-11-03 10:50:33.289825
2630  2023-11-03 10:50:33.338746
2631  2023-11-03 10:50:33.370612
2632  2023-11-03 10:50:33.417530
2633  2023-11-03 10:50:33.465608
2634  2023-11-03 10:50:33.497304
2635  2023-11-03 10:50:33.545189
2636  2023-11-03 10:50:33.577132
2637  2023-11-03 10:50:33.624930
2638  2023-11-03 10:50:33.670808
2639  2023-11-03 10:50:33.702722
2640  2023-11-03 10:50:33.747602
2641  2023-11-03 10:50:33.794477
2642  2023-11-03 10:50:33.825395
2643  2023-11-03 10:50:33.872303
2644  2023-11-03 10:50:33.920167
2645  2023-11-03 10:50:33.952104
2646  2023-11-03 10:50:33.998930
2647  2023-11-03 10:50:34.045887
2648  2023-11-03 10:50:34.077767
2649  2023-11-03 10:50:34.125711
2650  2023-11-03 10:50:34.173614
2651  2023-11-03 10:50:34.204557
2652  2023-11-03 10:50:34.251428
2653  2023-11-03 10:50:34.298285
2654  2023-11-03 10:50:34.329200
2655  2023-11-03 10:50:34.377072
2656  2023-11-03 10:50:34.409018
2657  2023-11-03 10:50:34.456892
2658  2023-11-03 10:50:34.504726
2659  2023-11-03 10:50:34.536675
2660  2023-11-03 10:50:34.583536
2661  2023-11-03 10:50:34.632359
2662  2023-11-03 10:50:34.662279
2663  2023-11-03 10:50:34.710191
2664  2023-11-03 10:50:34.756069
2665  2023-11-03 10:50:34.786853
2666  2023-11-03 10:50:34.834820
2667  2023-11-03 10:50:34.866735
2668  2023-11-03 10:50:34.914656
2669  2023-11-03 10:50:34.963593
2670  2023-11-03 10:50:34.994560
2671  2023-11-03 10:50:35.042380
2672  2023-11-03 10:50:35.090366
2673  2023-11-03 10:50:35.122315
2674  2023-11-03 10:50:35.169157
2675  2023-11-03 10:50:35.200074
2676  2023-11-03 10:50:35.247945
2677  2023-11-03 10:50:35.295818
2678  2023-11-03 10:50:35.326736
2679  2023-11-03 10:50:35.374678
2680  2023-11-03 10:50:35.421570
2681  2023-11-03 10:50:35.452488
2682  2023-11-03 10:50:35.500360
2683  2023-11-03 10:50:35.548304
2684  2023-11-03 10:50:35.580197
2685  2023-11-03 10:50:35.627047
2686  2023-11-03 10:50:35.673946
2687  2023-11-03 10:50:35.705842
2688  2023-11-03 10:50:35.751760
2689  2023-11-03 10:50:35.783763
2690  2023-11-03 10:50:35.831691
2691  2023-11-03 10:50:35.879574
2692  2023-11-03 10:50:35.911478
2693  2023-11-03 10:50:35.959303
2694  2023-11-03 10:50:36.004219
2695  2023-11-03 10:50:36.036144
2696  2023-11-03 10:50:36.082005
2697  2023-11-03 10:50:36.129847
2698  2023-11-03 10:50:36.161768
2699  2023-11-03 10:50:36.209640
2700  2023-11-03 10:50:36.256514
2701  2023-11-03 10:50:36.287432
2702  2023-11-03 10:50:36.335304
2703  2023-11-03 10:50:36.367219
2704  2023-11-03 10:50:36.415138
2705  2023-11-03 10:50:36.462963
2706  2023-11-03 10:50:36.494877
2707  2023-11-03 10:50:36.541784
2708  2023-11-03 10:50:36.589624
2709  2023-11-03 10:50:36.620542
2710  2023-11-03 10:50:36.665470
2711  2023-11-03 10:50:36.713339
2712  2023-11-03 10:50:36.745210
2713  2023-11-03 10:50:36.791127
2714  2023-11-03 10:50:36.837961
2715  2023-11-03 10:50:36.869924
2716  2023-11-03 10:50:36.917748
2717  2023-11-03 10:50:36.964678
2718  2023-11-03 10:50:36.996538
2719  2023-11-03 10:50:37.043443
2720  2023-11-03 10:50:37.075369
2721  2023-11-03 10:50:37.124197
2722  2023-11-03 10:50:37.171071
2723  2023-11-03 10:50:37.205088
2724  2023-11-03 10:50:37.251895
2725  2023-11-03 10:50:37.299732
2726  2023-11-03 10:50:37.331707
2727  2023-11-03 10:50:37.375569
2728  2023-11-03 10:50:37.422399
2729  2023-11-03 10:50:37.454314
2730  2023-11-03 10:50:37.502186
2731  2023-11-03 10:50:37.534100
2732  2023-11-03 10:50:37.580038
2733  2023-11-03 10:50:37.626884
2734  2023-11-03 10:50:37.658798
2735  2023-11-03 10:50:37.704690
2736  2023-11-03 10:50:37.750556
2737  2023-11-03 10:50:37.796447
2738  2023-11-03 10:50:37.830359
2739  2023-11-03 10:50:37.874431
2740  2023-11-03 10:50:37.924060
2741  2023-11-03 10:50:37.955999
2742  2023-11-03 10:50:38.002900
2743  2023-11-03 10:50:38.034813
2744  2023-11-03 10:50:38.080672
2745  2023-11-03 10:50:38.127515
2746  2023-11-03 10:50:38.159429
2747  2023-11-03 10:50:38.205525
2748  2023-11-03 10:50:38.252196
2749  2023-11-03 10:50:38.298100
2750  2023-11-03 10:50:38.329999
2751  2023-11-03 10:50:38.377867
2752  2023-11-03 10:50:38.409822
2753  2023-11-03 10:50:38.457809
2754  2023-11-03 10:50:38.503927
2755  2023-11-03 10:50:38.535834
2756  2023-11-03 10:50:38.583698
2757  2023-11-03 10:50:38.631569
2758  2023-11-03 10:50:38.663499
2759  2023-11-03 10:50:38.711127
2760  2023-11-03 10:50:38.743072
2761  2023-11-03 10:50:38.790955
2762  2023-11-03 10:50:38.837771
2763  2023-11-03 10:50:38.868734
2764  2023-11-03 10:50:38.915712
2765  2023-11-03 10:50:38.962553
2766  2023-11-03 10:50:38.995483
2767  2023-11-03 10:50:39.042438
2768  2023-11-03 10:50:39.090313
2769  2023-11-03 10:50:39.122219
2770  2023-11-03 10:50:39.170052
2771  2023-11-03 10:50:39.214980
2772  2023-11-03 10:50:39.245879
2773  2023-11-03 10:50:39.293718
2774  2023-11-03 10:50:39.339597
2775  2023-11-03 10:50:39.371558
2776  2023-11-03 10:50:39.419382
2777  2023-11-03 10:50:39.465298
2778  2023-11-03 10:50:39.497207
2779  2023-11-03 10:50:39.545078
2780  2023-11-03 10:50:39.576994
2781  2023-11-03 10:50:39.624876
2782  2023-11-03 10:50:39.672705
2783  2023-11-03 10:50:39.704621
2784  2023-11-03 10:50:39.752492
2785  2023-11-03 10:50:39.784441
2786  2023-11-03 10:50:39.832393
2787  2023-11-03 10:50:39.880214
2788  2023-11-03 10:50:39.912173
2789  2023-11-03 10:50:39.960110
2790  2023-11-03 10:50:39.992028
2791  2023-11-03 10:50:40.040866
2792  2023-11-03 10:50:40.087770
2793  2023-11-03 10:50:40.119833
2794  2023-11-03 10:50:40.168742
2795  2023-11-03 10:50:40.215597
2796  2023-11-03 10:50:40.247499
2797  2023-11-03 10:50:40.293443
2798  2023-11-03 10:50:40.325356
2799  2023-11-03 10:50:40.372241
2800  2023-11-03 10:50:40.420104
2801  2023-11-03 10:50:40.452041
2802  2023-11-03 10:50:40.498888
2803  2023-11-03 10:50:40.545774
2804  2023-11-03 10:50:40.576685
2805  2023-11-03 10:50:40.624576
2806  2023-11-03 10:50:40.672446
2807  2023-11-03 10:50:40.704373
2808  2023-11-03 10:50:40.752216
2809  2023-11-03 10:50:40.798062
2810  2023-11-03 10:50:40.829977
2811  2023-11-03 10:50:40.875880
2812  2023-11-03 10:50:40.923726
2813  2023-11-03 10:50:40.955641
2814  2023-11-03 10:50:41.003515
2815  2023-11-03 10:50:41.035460
2816  2023-11-03 10:50:41.082308
2817  2023-11-03 10:50:41.130207
2818  2023-11-03 10:50:41.162089
2819  2023-11-03 10:50:41.209964
2820  2023-11-03 10:50:41.255885
2821  2023-11-03 10:50:41.286883
2822  2023-11-03 10:50:41.332682
2823  2023-11-03 10:50:41.380540
2824  2023-11-03 10:50:41.412453
2825  2023-11-03 10:50:41.460384
2826  2023-11-03 10:50:41.492310
2827  2023-11-03 10:50:41.539180
2828  2023-11-03 10:50:41.588077
2829  2023-11-03 10:50:41.617968
2830  2023-11-03 10:50:41.664847
2831  2023-11-03 10:50:41.713683
2832  2023-11-03 10:50:41.744632
2833  2023-11-03 10:50:41.791525
2834  2023-11-03 10:50:41.839378
2835  2023-11-03 10:50:41.871295
2836  2023-11-03 10:50:41.917170
2837  2023-11-03 10:50:41.963047
2838  2023-11-03 10:50:41.994929
2839  2023-11-03 10:50:42.042809
2840  2023-11-03 10:50:42.088679
2841  2023-11-03 10:50:42.120629
2842  2023-11-03 10:50:42.168499
2843  2023-11-03 10:50:42.200442
2844  2023-11-03 10:50:42.248254
2845  2023-11-03 10:50:42.296169
2846  2023-11-03 10:50:42.328072
2847  2023-11-03 10:50:42.376910
2848  2023-11-03 10:50:42.422826
2849  2023-11-03 10:50:42.453734
2850  2023-11-03 10:50:42.501575
2851  2023-11-03 10:50:42.533523
2852  2023-11-03 10:50:42.581362
2853  2023-11-03 10:50:42.628278
2854  2023-11-03 10:50:42.659186
2855  2023-11-03 10:50:42.707064
2856  2023-11-03 10:50:42.754934
2857  2023-11-03 10:50:42.786813
2858  2023-11-03 10:50:42.832863
2859  2023-11-03 10:50:42.880732
2860  2023-11-03 10:50:42.912615
2861  2023-11-03 10:50:42.958524
2862  2023-11-03 10:50:43.006692
2863  2023-11-03 10:50:43.038467
2864  2023-11-03 10:50:43.086319
2865  2023-11-03 10:50:43.132166
2866  2023-11-03 10:50:43.163084
2867  2023-11-03 10:50:43.210992
2868  2023-11-03 10:50:43.242912
2869  2023-11-03 10:50:43.289011
2870  2023-11-03 10:50:43.337007
2871  2023-11-03 10:50:43.368842
2872  2023-11-03 10:50:43.416639
2873  2023-11-03 10:50:43.462544
2874  2023-11-03 10:50:43.494464
2875  2023-11-03 10:50:43.542303
2876  2023-11-03 10:50:43.590348
2877  2023-11-03 10:50:43.622265
2878  2023-11-03 10:50:43.670100
2879  2023-11-03 10:50:43.702014
2880  2023-11-03 10:50:43.747919
2881  2023-11-03 10:50:43.795801
2882  2023-11-03 10:50:43.827716
2883  2023-11-03 10:50:43.875601
2884  2023-11-03 10:50:43.924421
2885  2023-11-03 10:50:43.955340
2886  2023-11-03 10:50:44.003342
2887  2023-11-03 10:50:44.035259
2888  2023-11-03 10:50:44.084126
2889  2023-11-03 10:50:44.129000
2890  2023-11-03 10:50:44.161878
2891  2023-11-03 10:50:44.208791
2892  2023-11-03 10:50:44.253666
2893  2023-11-03 10:50:44.285579
2894  2023-11-03 10:50:44.330425
2895  2023-11-03 10:50:44.378299
2896  2023-11-03 10:50:44.423238
2897  2023-11-03 10:50:44.454121
2898  2023-11-03 10:50:44.500970
2899  2023-11-03 10:50:44.548873
2900  2023-11-03 10:50:44.580756
2901  2023-11-03 10:50:44.628748
2902  2023-11-03 10:50:44.660608
2903  2023-11-03 10:50:44.708599
2904  2023-11-03 10:50:44.756439
2905  2023-11-03 10:50:44.788392
2906  2023-11-03 10:50:44.836270
2907  2023-11-03 10:50:44.868164
2908  2023-11-03 10:50:44.916013
2909  2023-11-03 10:50:44.963929
2910  2023-11-03 10:50:44.995848
2911  2023-11-03 10:50:45.043701
2912  2023-11-03 10:50:45.075614
2913  2023-11-03 10:50:45.123520
2914  2023-11-03 10:50:45.171426
2915  2023-11-03 10:50:45.203308
2916  2023-11-03 10:50:45.252182
2917  2023-11-03 10:50:45.298055
2918  2023-11-03 10:50:45.328990
2919  2023-11-03 10:50:45.376846
2920  2023-11-03 10:50:45.408856
2921  2023-11-03 10:50:45.457853
2922  2023-11-03 10:50:45.503699
2923  2023-11-03 10:50:45.534616
2924  2023-11-03 10:50:45.582544
2925  2023-11-03 10:50:45.628501
2926  2023-11-03 10:50:45.660414
2927  2023-11-03 10:50:45.708296
2928  2023-11-03 10:50:45.756178
2929  2023-11-03 10:50:45.788077
2930  2023-11-03 10:50:45.835958
2931  2023-11-03 10:50:45.867872
2932  2023-11-03 10:50:45.916697
2933  2023-11-03 10:50:45.963608
2934  2023-11-03 10:50:45.995520
2935  2023-11-03 10:50:46.040366
2936  2023-11-03 10:50:46.088278
2937  2023-11-03 10:50:46.118190
2938  2023-11-03 10:50:46.166078
2939  2023-11-03 10:50:46.210909
2940  2023-11-03 10:50:46.242576
2941  2023-11-03 10:50:46.290486
2942  2023-11-03 10:50:46.338499
2943  2023-11-03 10:50:46.370381
2944  2023-11-03 10:50:46.418256
2945  2023-11-03 10:50:46.450222
2946  2023-11-03 10:50:46.498071
2947  2023-11-03 10:50:46.544953
2948  2023-11-03 10:50:46.575863
2949  2023-11-03 10:50:46.623733
2950  2023-11-03 10:50:46.669618
2951  2023-11-03 10:50:46.701536
2952  2023-11-03 10:50:46.750366
2953  2023-11-03 10:50:46.795280
2954  2023-11-03 10:50:46.827282
2955  2023-11-03 10:50:46.875067
2956  2023-11-03 10:50:46.923904
2957  2023-11-03 10:50:46.955867
2958  2023-11-03 10:50:47.003692
2959  2023-11-03 10:50:47.034637
2960  2023-11-03 10:50:47.080685
2961  2023-11-03 10:50:47.128563
2962  2023-11-03 10:50:47.160477
2963  2023-11-03 10:50:47.208349
2964  2023-11-03 10:50:47.256205
2965  2023-11-03 10:50:47.288119
2966  2023-11-03 10:50:47.336959
2967  2023-11-03 10:50:47.368910
2968  2023-11-03 10:50:47.414751
2969  2023-11-03 10:50:47.460638
2970  2023-11-03 10:50:47.506505
2971  2023-11-03 10:50:47.537437
2972  2023-11-03 10:50:47.583301
2973  2023-11-03 10:50:47.631205
2974  2023-11-03 10:50:47.663124
2975  2023-11-03 10:50:47.710000
2976  2023-11-03 10:50:47.741909
2977  2023-11-03 10:50:47.788801
2978  2023-11-03 10:50:47.835672
2979  2023-11-03 10:50:47.868538
2980  2023-11-03 10:50:47.914447
2981  2023-11-03 10:50:47.962319
2982  2023-11-03 10:50:47.994250
2983  2023-11-03 10:50:48.043129
2984  2023-11-03 10:50:48.090987
2985  2023-11-03 10:50:48.121905
2986  2023-11-03 10:50:48.168778
2987  2023-11-03 10:50:48.214613
2988  2023-11-03 10:50:48.246528
2989  2023-11-03 10:50:48.294432
2990  2023-11-03 10:50:48.326345
2991  2023-11-03 10:50:48.373190
2992  2023-11-03 10:50:48.421102
2993  2023-11-03 10:50:48.451979
2994  2023-11-03 10:50:48.497898
2995  2023-11-03 10:50:48.545752
2996  2023-11-03 10:50:48.577686
2997  2023-11-03 10:50:48.624554
2998  2023-11-03 10:50:48.671440
2999  2023-11-03 10:50:48.703355
3000  2023-11-03 10:50:48.751209
3001  2023-11-03 10:50:48.798098
3002  2023-11-03 10:50:48.828996
3003  2023-11-03 10:50:48.876842
3004  2023-11-03 10:50:48.908790
3005  2023-11-03 10:50:48.956679
3006  2023-11-03 10:50:49.004536
3007  2023-11-03 10:50:49.036480
3008  2023-11-03 10:50:49.085342
3009  2023-11-03 10:50:49.132160
3010  2023-11-03 10:50:49.164112
3011  2023-11-03 10:50:49.211981
3012  2023-11-03 10:50:49.243894
3013  2023-11-03 10:50:49.291822
3014  2023-11-03 10:50:49.339639
3015  2023-11-03 10:50:49.371554
3016  2023-11-03 10:50:49.420390
3017  2023-11-03 10:50:49.452384
3018  2023-11-03 10:50:49.497208
3019  2023-11-03 10:50:49.545090
3020  2023-11-03 10:50:49.577010
3021  2023-11-03 10:50:49.624876
3022  2023-11-03 10:50:49.673713
3023  2023-11-03 10:50:49.704656
3024  2023-11-03 10:50:49.753519
3025  2023-11-03 10:50:49.784444
3026  2023-11-03 10:50:49.830328
3027  2023-11-03 10:50:49.878167
3028  2023-11-03 10:50:49.910083
3029  2023-11-03 10:50:49.957978
3030  2023-11-03 10:50:50.005826
3031  2023-11-03 10:50:50.037741
3032  2023-11-03 10:50:50.085780
3033  2023-11-03 10:50:50.117676
3034  2023-11-03 10:50:50.164563
3035  2023-11-03 10:50:50.210393
3036  2023-11-03 10:50:50.256308
3037  2023-11-03 10:50:50.286224
3038  2023-11-03 10:50:50.333097
3039  2023-11-03 10:50:50.379970
3040  2023-11-03 10:50:50.411885
3041  2023-11-03 10:50:50.458760
3042  2023-11-03 10:50:50.505644
3043  2023-11-03 10:50:50.538566
3044  2023-11-03 10:50:50.585427
3045  2023-11-03 10:50:50.632295
3046  2023-11-03 10:50:50.664214
3047  2023-11-03 10:50:50.710057
3048  2023-11-03 10:50:50.741972
3049  2023-11-03 10:50:50.788883
3050  2023-11-03 10:50:50.835721
3051  2023-11-03 10:50:50.882598
3052  2023-11-03 10:50:50.911911
3053  2023-11-03 10:50:50.960852
3054  2023-11-03 10:50:51.005764
3055  2023-11-03 10:50:51.037687
3056  2023-11-03 10:50:51.083567
3057  2023-11-03 10:50:51.129441
3058  2023-11-03 10:50:51.161351
3059  2023-11-03 10:50:51.211232
3060  2023-11-03 10:50:51.257093
3061  2023-11-03 10:50:51.290004
3062  2023-11-03 10:50:51.336811
3063  2023-11-03 10:50:51.367732
3064  2023-11-03 10:50:51.415567
3065  2023-11-03 10:50:51.461450
3066  2023-11-03 10:50:51.492363
3067  2023-11-03 10:50:51.540234
3068  2023-11-03 10:50:51.588107
3069  2023-11-03 10:50:51.619055
3070  2023-11-03 10:50:51.666987
3071  2023-11-03 10:50:51.715891
3072  2023-11-03 10:50:51.746774
3073  2023-11-03 10:50:51.795647
3074  2023-11-03 10:50:51.825599
3075  2023-11-03 10:50:51.871442
3076  2023-11-03 10:50:51.918392
3077  2023-11-03 10:50:51.950369
3078  2023-11-03 10:50:51.998307
3079  2023-11-03 10:50:52.046197
3080  2023-11-03 10:50:52.078113
3081  2023-11-03 10:50:52.125965
3082  2023-11-03 10:50:52.171854
3083  2023-11-03 10:50:52.203758
3084  2023-11-03 10:50:52.249662
3085  2023-11-03 10:50:52.296513
3086  2023-11-03 10:50:52.329031
3087  2023-11-03 10:50:52.377017
3088  2023-11-03 10:50:52.422885
3089  2023-11-03 10:50:52.454933
3090  2023-11-03 10:50:52.502960
3091  2023-11-03 10:50:52.534837
3092  2023-11-03 10:50:52.582709
3093  2023-11-03 10:50:52.627590
3094  2023-11-03 10:50:52.659590
3095  2023-11-03 10:50:52.705440
3096  2023-11-03 10:50:52.752348
3097  2023-11-03 10:50:52.798230
3098  2023-11-03 10:50:52.829109
3099  2023-11-03 10:50:52.877021
3100  2023-11-03 10:50:52.908950
3101  2023-11-03 10:50:52.956778
3102  2023-11-03 10:50:53.002832
3103  2023-11-03 10:50:53.034835
3104  2023-11-03 10:50:53.082636
3105  2023-11-03 10:50:53.128510
3106  2023-11-03 10:50:53.161029
3107  2023-11-03 10:50:53.209031
3108  2023-11-03 10:50:53.255884
3109  2023-11-03 10:50:53.287794
3110  2023-11-03 10:50:53.335634
3111  2023-11-03 10:50:53.367590
3112  2023-11-03 10:50:53.413463
3113  2023-11-03 10:50:53.462330
3114  2023-11-03 10:50:53.493251
3115  2023-11-03 10:50:53.542117
3116  2023-11-03 10:50:53.587062
3117  2023-11-03 10:50:53.619084
3118  2023-11-03 10:50:53.666901
3119  2023-11-03 10:50:53.713810
3120  2023-11-03 10:50:53.744694
3121  2023-11-03 10:50:53.791599
3122  2023-11-03 10:50:53.838476
3123  2023-11-03 10:50:53.870392
3124  2023-11-03 10:50:53.918295
3125  2023-11-03 10:50:53.950179
3126  2023-11-03 10:50:53.997900
3127  2023-11-03 10:50:54.045772
3128  2023-11-03 10:50:54.077769
3129  2023-11-03 10:50:54.125639
3130  2023-11-03 10:50:54.173575
3131  2023-11-03 10:50:54.205523
3132  2023-11-03 10:50:54.253487
3133  2023-11-03 10:50:54.285554
3134  2023-11-03 10:50:54.333426
3135  2023-11-03 10:50:54.379378
3136  2023-11-03 10:50:54.411305
3137  2023-11-03 10:50:54.459285
3138  2023-11-03 10:50:54.507128
3139  2023-11-03 10:50:54.539042
3140  2023-11-03 10:50:54.586943
3141  2023-11-03 10:50:54.618930
3142  2023-11-03 10:50:54.666812
3143  2023-11-03 10:50:54.714676
3144  2023-11-03 10:50:54.746591
3145  2023-11-03 10:50:54.794453
3146  2023-11-03 10:50:54.825372
3147  2023-11-03 10:50:54.872262
3148  2023-11-03 10:50:54.920089
3149  2023-11-03 10:50:54.952030
3150  2023-11-03 10:50:54.999929
3151  2023-11-03 10:50:55.045752
3152  2023-11-03 10:50:55.079692
3153  2023-11-03 10:50:55.124578
3154  2023-11-03 10:50:55.172459
3155  2023-11-03 10:50:55.204472
3156  2023-11-03 10:50:55.250370
3157  2023-11-03 10:50:55.297194
3158  2023-11-03 10:50:55.329108
3159  2023-11-03 10:50:55.376980
3160  2023-11-03 10:50:55.409050
3161  2023-11-03 10:50:55.456814
3162  2023-11-03 10:50:55.504639
3163  2023-11-03 10:50:55.536554
3164  2023-11-03 10:50:55.584493
3165  2023-11-03 10:50:55.631301
3166  2023-11-03 10:50:55.663216
3167  2023-11-03 10:50:55.711128
3168  2023-11-03 10:50:55.743002
3169  2023-11-03 10:50:55.790922
3170  2023-11-03 10:50:55.838746
3171  2023-11-03 10:50:55.868875
3172  2023-11-03 10:50:55.915588
3173  2023-11-03 10:50:55.963413
3174  2023-11-03 10:50:55.993443
3175  2023-11-03 10:50:56.041272
3176  2023-11-03 10:50:56.089270
3177  2023-11-03 10:50:56.121185
3178  2023-11-03 10:50:56.169222
3179  2023-11-03 10:50:56.200996
3180  2023-11-03 10:50:56.248802
3181  2023-11-03 10:50:56.296638
3182  2023-11-03 10:50:56.326670
3183  2023-11-03 10:50:56.374537
3184  2023-11-03 10:50:56.422410
3185  2023-11-03 10:50:56.454476
3186  2023-11-03 10:50:56.502507
3187  2023-11-03 10:50:56.534432
3188  2023-11-03 10:50:56.582312
3189  2023-11-03 10:50:56.631172
3190  2023-11-03 10:50:56.661056
3191  2023-11-03 10:50:56.707931
3192  2023-11-03 10:50:56.755872
3193  2023-11-03 10:50:56.787746
3194  2023-11-03 10:50:56.835587
3195  2023-11-03 10:50:56.882499
3196  2023-11-03 10:50:56.912450
3197  2023-11-03 10:50:56.960292
3198  2023-11-03 10:50:56.992206
3199  2023-11-03 10:50:57.039135
3200  2023-11-03 10:50:57.087041
3201  2023-11-03 10:50:57.117957
3202  2023-11-03 10:50:57.165830
3203  2023-11-03 10:50:57.211723
3204  2023-11-03 10:50:57.243623
3205  2023-11-03 10:50:57.291497
3206  2023-11-03 10:50:57.339365
3207  2023-11-03 10:50:57.371248
3208  2023-11-03 10:50:57.419155
3209  2023-11-03 10:50:57.451069
3210  2023-11-03 10:50:57.498943
3211  2023-11-03 10:50:57.546239
3212  2023-11-03 10:50:57.578198
3213  2023-11-03 10:50:57.626102
3214  2023-11-03 10:50:57.673126
3215  2023-11-03 10:50:57.704028
3216  2023-11-03 10:50:57.752032
3217  2023-11-03 10:50:57.784882
3218  2023-11-03 10:50:57.831803
3219  2023-11-03 10:50:57.879627
3220  2023-11-03 10:50:57.911588
3221  2023-11-03 10:50:57.958418
3222  2023-11-03 10:50:58.006320
3223  2023-11-03 10:50:58.038317
3224  2023-11-03 10:50:58.086324
3225  2023-11-03 10:50:58.132186
3226  2023-11-03 10:50:58.165102
3227  2023-11-03 10:50:58.212165
3228  2023-11-03 10:50:58.243906
3229  2023-11-03 10:50:58.291861
3230  2023-11-03 10:50:58.339707
3231  2023-11-03 10:50:58.371621
3232  2023-11-03 10:50:58.417497
3233  2023-11-03 10:50:58.465371
3234  2023-11-03 10:50:58.497285
3235  2023-11-03 10:50:58.545182
3236  2023-11-03 10:50:58.575043
3237  2023-11-03 10:50:58.622950
3238  2023-11-03 10:50:58.670788
3239  2023-11-03 10:50:58.702702
3240  2023-11-03 10:50:58.749612
3241  2023-11-03 10:50:58.797449
3242  2023-11-03 10:50:58.829364
3243  2023-11-03 10:50:58.875247
3244  2023-11-03 10:50:58.923147
3245  2023-11-03 10:50:58.955065
3246  2023-11-03 10:50:59.002958
3247  2023-11-03 10:50:59.033819
3248  2023-11-03 10:50:59.082689
3249  2023-11-03 10:50:59.127607
3250  2023-11-03 10:50:59.159614
3251  2023-11-03 10:50:59.208431
3252  2023-11-03 10:50:59.254384
3253  2023-11-03 10:50:59.285332
3254  2023-11-03 10:50:59.333204
3255  2023-11-03 10:50:59.381077
3256  2023-11-03 10:50:59.412992
3257  2023-11-03 10:50:59.460862
3258  2023-11-03 10:50:59.492787
3259  2023-11-03 10:50:59.540647
3260  2023-11-03 10:50:59.588525
3261  2023-11-03 10:50:59.620464
3262  2023-11-03 10:50:59.668355
3263  2023-11-03 10:50:59.700370
3264  2023-11-03 10:50:59.748190
3265  2023-11-03 10:50:59.794101
3266  2023-11-03 10:50:59.826016
3267  2023-11-03 10:50:59.873888
3268  2023-11-03 10:50:59.921771
3269  2023-11-03 10:50:59.954697
3270  2023-11-03 10:51:00.000561
3271  2023-11-03 10:51:00.048519
3272  2023-11-03 10:51:00.080477
3273  2023-11-03 10:51:00.128341
3274  2023-11-03 10:51:00.173155
3275  2023-11-03 10:51:00.205070
3276  2023-11-03 10:51:00.250984
3277  2023-11-03 10:51:00.298868
3278  2023-11-03 10:51:00.330475
3279  2023-11-03 10:51:00.378463
3280  2023-11-03 10:51:00.411332
3281  2023-11-03 10:51:00.458204
3282  2023-11-03 10:51:00.505079
3283  2023-11-03 10:51:00.536035
3284  2023-11-03 10:51:00.584891
3285  2023-11-03 10:51:00.631806
3286  2023-11-03 10:51:00.663692
3287  2023-11-03 10:51:00.712594
3288  2023-11-03 10:51:00.743478
3289  2023-11-03 10:51:00.790354
3290  2023-11-03 10:51:00.837847
3291  2023-11-03 10:51:00.869861
3292  2023-11-03 10:51:00.916733
3293  2023-11-03 10:51:00.963576
3294  2023-11-03 10:51:00.995547
3295  2023-11-03 10:51:01.042368
3296  2023-11-03 10:51:01.089275
3297  2023-11-03 10:51:01.122186
3298  2023-11-03 10:51:01.170055
3299  2023-11-03 10:51:01.214937
3300  2023-11-03 10:51:01.246852
3301  2023-11-03 10:51:01.294691
3302  2023-11-03 10:51:01.327657
3303  2023-11-03 10:51:01.375511
3304  2023-11-03 10:51:01.423395
3305  2023-11-03 10:51:01.455310
3306  2023-11-03 10:51:01.501140
3307  2023-11-03 10:51:01.548049
3308  2023-11-03 10:51:01.578933
3309  2023-11-03 10:51:01.626804
3310  2023-11-03 10:51:01.658760
3311  2023-11-03 10:51:01.706591
3312  2023-11-03 10:51:01.753561
3313  2023-11-03 10:51:01.784525
3314  2023-11-03 10:51:01.832387
3315  2023-11-03 10:51:01.881226
3316  2023-11-03 10:51:01.912184
3317  2023-11-03 10:51:01.960055
3318  2023-11-03 10:51:02.005918
3319  2023-11-03 10:51:02.036806
3320  2023-11-03 10:51:02.083946
3321  2023-11-03 10:51:02.131699
3322  2023-11-03 10:51:02.162613
3323  2023-11-03 10:51:02.209493
3324  2023-11-03 10:51:02.255384
3325  2023-11-03 10:51:02.286376
3326  2023-11-03 10:51:02.332218
3327  2023-11-03 10:51:02.378098
3328  2023-11-03 10:51:02.409045
3329  2023-11-03 10:51:02.456930
3330  2023-11-03 10:51:02.502907
3331  2023-11-03 10:51:02.534847
3332  2023-11-03 10:51:02.583764
3333  2023-11-03 10:51:02.631636
3334  2023-11-03 10:51:02.661558
3335  2023-11-03 10:51:02.708472
3336  2023-11-03 10:51:02.754401
3337  2023-11-03 10:51:02.786327
3338  2023-11-03 10:51:02.834219
3339  2023-11-03 10:51:02.882102
3340  2023-11-03 10:51:02.914153
3341  2023-11-03 10:51:02.961878
3342  2023-11-03 10:51:02.993805
3343  2023-11-03 10:51:03.040667
3344  2023-11-03 10:51:03.087539
3345  2023-11-03 10:51:03.120475
3346  2023-11-03 10:51:03.165354
3347  2023-11-03 10:51:03.210668
3348  2023-11-03 10:51:03.256534
3349  2023-11-03 10:51:03.288449
3350  2023-11-03 10:51:03.335329
3351  2023-11-03 10:51:03.382167
3352  2023-11-03 10:51:03.414082
3353  2023-11-03 10:51:03.461987
3354  2023-11-03 10:51:03.492872
3355  2023-11-03 10:51:03.540744
3356  2023-11-03 10:51:03.588663
3357  2023-11-03 10:51:03.619534
3358  2023-11-03 10:51:03.667452
3359  2023-11-03 10:51:03.714313
3360  2023-11-03 10:51:03.746228
3361  2023-11-03 10:51:03.794100
3362  2023-11-03 10:51:03.826013
3363  2023-11-03 10:51:03.873885
3364  2023-11-03 10:51:03.921757
3365  2023-11-03 10:51:03.953685
3366  2023-11-03 10:51:04.001548
3367  2023-11-03 10:51:04.047426
3368  2023-11-03 10:51:04.079338
3369  2023-11-03 10:51:04.127226
3370  2023-11-03 10:51:04.173101
3371  2023-11-03 10:51:04.205002
3372  2023-11-03 10:51:04.252866
3373  2023-11-03 10:51:04.285805
3374  2023-11-03 10:51:04.332666
3375  2023-11-03 10:51:04.381552
3376  2023-11-03 10:51:04.413413
3377  2023-11-03 10:51:04.461327
3378  2023-11-03 10:51:04.493225
3379  2023-11-03 10:51:04.541110
3380  2023-11-03 10:51:04.589083
3381  2023-11-03 10:51:04.617973
3382  2023-11-03 10:51:04.664879
3383  2023-11-03 10:51:04.711722
3384  2023-11-03 10:51:04.741665
3385  2023-11-03 10:51:04.788542
3386  2023-11-03 10:51:04.835448
3387  2023-11-03 10:51:04.882299
3388  2023-11-03 10:51:04.913237
3389  2023-11-03 10:51:04.962117
3390  2023-11-03 10:51:04.993028
3391  2023-11-03 10:51:05.040891
3392  2023-11-03 10:51:05.086783
3393  2023-11-03 10:51:05.118711
3394  2023-11-03 10:51:05.166562
3395  2023-11-03 10:51:05.215547
3396  2023-11-03 10:51:05.246399
3397  2023-11-03 10:51:05.295270
3398  2023-11-03 10:51:05.325228
3399  2023-11-03 10:51:05.372102
3400  2023-11-03 10:51:05.420995
3401  2023-11-03 10:51:05.451899
3402  2023-11-03 10:51:05.499755
3403  2023-11-03 10:51:05.548594
3404  2023-11-03 10:51:05.579556
3405  2023-11-03 10:51:05.625421
3406  2023-11-03 10:51:05.673259
3407  2023-11-03 10:51:05.705310
3408  2023-11-03 10:51:05.753182
3409  2023-11-03 10:51:05.785097
3410  2023-11-03 10:51:05.833083
3411  2023-11-03 10:51:05.880927
3412  2023-11-03 10:51:05.912876
3413  2023-11-03 10:51:05.958833
3414  2023-11-03 10:51:06.006823
3415  2023-11-03 10:51:06.038729
3416  2023-11-03 10:51:06.086572
3417  2023-11-03 10:51:06.118548
3418  2023-11-03 10:51:06.166537
3419  2023-11-03 10:51:06.212298
3420  2023-11-03 10:51:06.244213
3421  2023-11-03 10:51:06.292127
3422  2023-11-03 10:51:06.339999
3423  2023-11-03 10:51:06.371871
3424  2023-11-03 10:51:06.419746
3425  2023-11-03 10:51:06.451485
3426  2023-11-03 10:51:06.498395
3427  2023-11-03 10:51:06.546298
3428  2023-11-03 10:51:06.578226
3429  2023-11-03 10:51:06.626054
3430  2023-11-03 10:51:06.671981
3431  2023-11-03 10:51:06.703846
3432  2023-11-03 10:51:06.751766
3433  2023-11-03 10:51:06.798631
3434  2023-11-03 10:51:06.830539
3435  2023-11-03 10:51:06.878378
3436  2023-11-03 10:51:06.910341
3437  2023-11-03 10:51:06.958190
3438  2023-11-03 10:51:07.006085
3439  2023-11-03 10:51:07.037982
3440  2023-11-03 10:51:07.086022
3441  2023-11-03 10:51:07.117900
3442  2023-11-03 10:51:07.165853
3443  2023-11-03 10:51:07.213738
3444  2023-11-03 10:51:07.245604
3445  2023-11-03 10:51:07.293515
3446  2023-11-03 10:51:07.325436
3447  2023-11-03 10:51:07.373323
3448  2023-11-03 10:51:07.421169
3449  2023-11-03 10:51:07.454057
3450  2023-11-03 10:51:07.500923
3451  2023-11-03 10:51:07.548827
3452  2023-11-03 10:51:07.580757
3453  2023-11-03 10:51:07.627584
3454  2023-11-03 10:51:07.660497
3455  2023-11-03 10:51:07.707408
3456  2023-11-03 10:51:07.755242
3457  2023-11-03 10:51:07.788159
3458  2023-11-03 10:51:07.835063
3459  2023-11-03 10:51:07.866979
3460  2023-11-03 10:51:07.914851
3461  2023-11-03 10:51:07.964716
3462  2023-11-03 10:51:07.994604
3463  2023-11-03 10:51:08.044501
3464  2023-11-03 10:51:08.090348
3465  2023-11-03 10:51:08.123310
3466  2023-11-03 10:51:08.172194
3467  2023-11-03 10:51:08.201593
3468  2023-11-03 10:51:08.249528
3469  2023-11-03 10:51:08.297404
3470  2023-11-03 10:51:08.329303
3471  2023-11-03 10:51:08.377222
3472  2023-11-03 10:51:08.423141
3473  2023-11-03 10:51:08.454074
3474  2023-11-03 10:51:08.499985
3475  2023-11-03 10:51:08.547777
3476  2023-11-03 10:51:08.578696
3477  2023-11-03 10:51:08.626600
3478  2023-11-03 10:51:08.658515
3479  2023-11-03 10:51:08.705401
3480  2023-11-03 10:51:08.753230
3481  2023-11-03 10:51:08.784177
3482  2023-11-03 10:51:08.832051
3483  2023-11-03 10:51:08.879890
3484  2023-11-03 10:51:08.911804
3485  2023-11-03 10:51:08.959727
3486  2023-11-03 10:51:09.006600
3487  2023-11-03 10:51:09.037548
3488  2023-11-03 10:51:09.085426
3489  2023-11-03 10:51:09.131349
3490  2023-11-03 10:51:09.164295
3491  2023-11-03 10:51:09.209190
3492  2023-11-03 10:51:09.257059
3493  2023-11-03 10:51:09.288957
3494  2023-11-03 10:51:09.336831
3495  2023-11-03 10:51:09.368744
3496  2023-11-03 10:51:09.416622
3497  2023-11-03 10:51:09.464521
3498  2023-11-03 10:51:09.496438
3499  2023-11-03 10:51:09.544276
3500  2023-11-03 10:51:09.589157
3501  2023-11-03 10:51:09.621179
3502  2023-11-03 10:51:09.667115
3503  2023-11-03 10:51:09.713954
3504  2023-11-03 10:51:09.744874
3505  2023-11-03 10:51:09.790782
3506  2023-11-03 10:51:09.838689
3507  2023-11-03 10:51:09.870584
3508  2023-11-03 10:51:09.918487
3509  2023-11-03 10:51:09.964409
3510  2023-11-03 10:51:09.996279
3511  2023-11-03 10:51:10.044233
3512  2023-11-03 10:51:10.076153
3513  2023-11-03 10:51:10.125016
3514  2023-11-03 10:51:10.171881
3515  2023-11-03 10:51:10.203800
3516  2023-11-03 10:51:10.251663
3517  2023-11-03 10:51:10.283584
3518  2023-11-03 10:51:10.331470
3519  2023-11-03 10:51:10.379334
3520  2023-11-03 10:51:10.411250
3521  2023-11-03 10:51:10.460080
3522  2023-11-03 10:51:10.504992
3523  2023-11-03 10:51:10.536919
3524  2023-11-03 10:51:10.584745
3525  2023-11-03 10:51:10.617659
3526  2023-11-03 10:51:10.664568
3527  2023-11-03 10:51:10.714433
3528  2023-11-03 10:51:10.744320
3529  2023-11-03 10:51:10.791230
3530  2023-11-03 10:51:10.840068
3531  2023-11-03 10:51:10.873019
3532  2023-11-03 10:51:10.916858
3533  2023-11-03 10:51:10.963734
3534  2023-11-03 10:51:10.995647
3535  2023-11-03 10:51:11.043519
3536  2023-11-03 10:51:11.089973
3537  2023-11-03 10:51:11.122013
3538  2023-11-03 10:51:11.168828
3539  2023-11-03 10:51:11.214739
3540  2023-11-03 10:51:11.246659
3541  2023-11-03 10:51:11.294495
3542  2023-11-03 10:51:11.326449
3543  2023-11-03 10:51:11.374280
3544  2023-11-03 10:51:11.422195
3545  2023-11-03 10:51:11.453118
3546  2023-11-03 10:51:11.500973
3547  2023-11-03 10:51:11.548859
3548  2023-11-03 10:51:11.580762
3549  2023-11-03 10:51:11.628631
3550  2023-11-03 10:51:11.659581
3551  2023-11-03 10:51:11.706422
3552  2023-11-03 10:51:11.754312
3553  2023-11-03 10:51:11.786222
3554  2023-11-03 10:51:11.834051
3555  2023-11-03 10:51:11.881984
3556  2023-11-03 10:51:11.914901
3557  2023-11-03 10:51:11.960812
3558  2023-11-03 10:51:11.993843
3559  2023-11-03 10:51:12.040710
3560  2023-11-03 10:51:12.089637
3561  2023-11-03 10:51:12.121642
