
1  2023-10-27 11:49:29.465202
2  2023-10-27 11:49:29.496087
3  2023-10-27 11:49:29.544000
4  2023-10-27 11:49:29.591831
5  2023-10-27 11:49:29.623755
6  2023-10-27 11:49:29.671712
7  2023-10-27 11:49:29.703532
8  2023-10-27 11:49:29.751438
9  2023-10-27 11:49:29.799276
10  2023-10-27 11:49:29.831239
11  2023-10-27 11:49:29.879115
12  2023-10-27 11:49:29.926979
13  2023-10-27 11:49:29.958963
14  2023-10-27 11:49:30.006809
15  2023-10-27 11:49:30.038720
16  2023-10-27 11:49:30.086597
17  2023-10-27 11:49:30.133497
18  2023-10-27 11:49:30.164416
19  2023-10-27 11:49:30.211887
20  2023-10-27 11:49:30.257845
21  2023-10-27 11:49:30.289763
22  2023-10-27 11:49:30.336634
23  2023-10-27 11:49:30.383510
24  2023-10-27 11:49:30.414815
25  2023-10-27 11:49:30.462727
26  2023-10-27 11:49:30.508605
27  2023-10-27 11:49:30.540509
28  2023-10-27 11:49:30.588358
29  2023-10-27 11:49:30.620268
30  2023-10-27 11:49:30.666184
31  2023-10-27 11:49:30.714013
32  2023-10-27 11:49:30.745964
33  2023-10-27 11:49:30.793890
34  2023-10-27 11:49:30.841756
35  2023-10-27 11:49:30.873672
36  2023-10-27 11:49:30.920545
37  2023-10-27 11:49:30.967388
38  2023-10-27 11:49:30.999302
39  2023-10-27 11:49:31.047181
40  2023-10-27 11:49:31.079090
41  2023-10-27 11:49:31.125963
42  2023-10-27 11:49:31.172839
43  2023-10-27 11:49:31.204754
44  2023-10-27 11:49:31.252625
45  2023-10-27 11:49:31.300497
46  2023-10-27 11:49:31.332411
47  2023-10-27 11:49:31.380332
48  2023-10-27 11:49:31.412216
49  2023-10-27 11:49:31.458093
50  2023-10-27 11:49:31.505961
51  2023-10-27 11:49:31.537877
52  2023-10-27 11:49:31.585752
53  2023-10-27 11:49:31.632508
54  2023-10-27 11:49:31.664408
55  2023-10-27 11:49:31.712425
56  2023-10-27 11:49:31.760245
57  2023-10-27 11:49:31.791158
58  2023-10-27 11:49:31.837044
59  2023-10-27 11:49:31.883884
60  2023-10-27 11:49:31.914798
61  2023-10-27 11:49:31.962703
62  2023-10-27 11:49:32.010542
63  2023-10-27 11:49:32.042457
64  2023-10-27 11:49:32.089854
65  2023-10-27 11:49:32.120772
66  2023-10-27 11:49:32.167676
67  2023-10-27 11:49:32.214527
68  2023-10-27 11:49:32.245435
69  2023-10-27 11:49:32.293337
70  2023-10-27 11:49:32.341177
71  2023-10-27 11:49:32.373134
72  2023-10-27 11:49:32.420970
73  2023-10-27 11:49:32.468878
74  2023-10-27 11:49:32.500752
75  2023-10-27 11:49:32.548624
76  2023-10-27 11:49:32.581535
77  2023-10-27 11:49:32.626419
78  2023-10-27 11:49:32.673323
79  2023-10-27 11:49:32.704211
80  2023-10-27 11:49:32.750120
81  2023-10-27 11:49:32.796992
82  2023-10-27 11:49:32.842849
83  2023-10-27 11:49:32.874751
84  2023-10-27 11:49:32.921690
85  2023-10-27 11:49:32.953631
86  2023-10-27 11:49:33.001303
87  2023-10-27 11:49:33.049178
88  2023-10-27 11:49:33.081093
89  2023-10-27 11:49:33.126974
90  2023-10-27 11:49:33.174841
91  2023-10-27 11:49:33.206754
92  2023-10-27 11:49:33.254671
93  2023-10-27 11:49:33.301547
94  2023-10-27 11:49:33.332492
95  2023-10-27 11:49:33.380368
96  2023-10-27 11:49:33.412250
97  2023-10-27 11:49:33.459157
98  2023-10-27 11:49:33.506997
99  2023-10-27 11:49:33.537917
100  2023-10-27 11:49:33.584792
101  2023-10-27 11:49:33.632661
102  2023-10-27 11:49:33.664576
103  2023-10-27 11:49:33.712490
104  2023-10-27 11:49:33.760362
105  2023-10-27 11:49:33.792277
106  2023-10-27 11:49:33.840149
107  2023-10-27 11:49:33.871066
108  2023-10-27 11:49:33.917996
109  2023-10-27 11:49:33.963906
110  2023-10-27 11:49:33.995788
111  2023-10-27 11:49:34.043660
112  2023-10-27 11:49:34.091561
113  2023-10-27 11:49:34.123443
114  2023-10-27 11:49:34.169345
115  2023-10-27 11:49:34.217193
116  2023-10-27 11:49:34.249147
117  2023-10-27 11:49:34.296051
118  2023-10-27 11:49:34.342918
119  2023-10-27 11:49:34.374880
120  2023-10-27 11:49:34.422705
121  2023-10-27 11:49:34.454620
122  2023-10-27 11:49:34.502492
123  2023-10-27 11:49:34.548368
124  2023-10-27 11:49:34.579287
125  2023-10-27 11:49:34.625194
126  2023-10-27 11:49:34.670086
127  2023-10-27 11:49:34.717946
128  2023-10-27 11:49:34.748866
129  2023-10-27 11:49:34.796871
130  2023-10-27 11:49:34.842597
131  2023-10-27 11:49:34.874497
132  2023-10-27 11:49:34.920378
133  2023-10-27 11:49:34.966251
134  2023-10-27 11:49:34.998167
135  2023-10-27 11:49:35.046040
136  2023-10-27 11:49:35.093947
137  2023-10-27 11:49:35.124911
138  2023-10-27 11:49:35.172701
139  2023-10-27 11:49:35.204615
140  2023-10-27 11:49:35.252486
141  2023-10-27 11:49:35.300358
142  2023-10-27 11:49:35.332274
143  2023-10-27 11:49:35.379169
144  2023-10-27 11:49:35.427032
145  2023-10-27 11:49:35.458936
146  2023-10-27 11:49:35.506808
147  2023-10-27 11:49:35.536727
148  2023-10-27 11:49:35.584630
149  2023-10-27 11:49:35.632471
150  2023-10-27 11:49:35.664417
151  2023-10-27 11:49:35.712290
152  2023-10-27 11:49:35.758165
153  2023-10-27 11:49:35.789086
154  2023-10-27 11:49:35.836062
155  2023-10-27 11:49:35.881804
156  2023-10-27 11:49:35.912727
157  2023-10-27 11:49:35.958935
158  2023-10-27 11:49:36.006805
159  2023-10-27 11:49:36.038722
160  2023-10-27 11:49:36.085594
161  2023-10-27 11:49:36.132479
162  2023-10-27 11:49:36.163385
163  2023-10-27 11:49:36.210294
164  2023-10-27 11:49:36.257173
165  2023-10-27 11:49:36.289053
166  2023-10-27 11:49:36.336920
167  2023-10-27 11:49:36.384823
168  2023-10-27 11:49:36.416714
169  2023-10-27 11:49:36.464641
170  2023-10-27 11:49:36.509737
171  2023-10-27 11:49:36.540663
172  2023-10-27 11:49:36.588498
173  2023-10-27 11:49:36.620470
174  2023-10-27 11:49:36.667316
175  2023-10-27 11:49:36.715196
176  2023-10-27 11:49:36.747071
177  2023-10-27 11:49:36.794943
178  2023-10-27 11:49:36.842815
179  2023-10-27 11:49:36.874861
180  2023-10-27 11:49:36.922602
181  2023-10-27 11:49:36.954522
182  2023-10-27 11:49:37.002288
183  2023-10-27 11:49:37.050193
184  2023-10-27 11:49:37.082076
185  2023-10-27 11:49:37.130073
186  2023-10-27 11:49:37.161979
187  2023-10-27 11:49:37.209851
188  2023-10-27 11:49:37.257698
189  2023-10-27 11:49:37.289651
190  2023-10-27 11:49:37.337538
191  2023-10-27 11:49:37.385383
192  2023-10-27 11:49:37.417302
193  2023-10-27 11:49:37.464170
194  2023-10-27 11:49:37.495089
195  2023-10-27 11:49:37.542995
196  2023-10-27 11:49:37.590931
197  2023-10-27 11:49:37.622891
198  2023-10-27 11:49:37.669860
199  2023-10-27 11:49:37.716686
200  2023-10-27 11:49:37.749599
201  2023-10-27 11:49:37.795477
202  2023-10-27 11:49:37.842411
203  2023-10-27 11:49:37.873396
204  2023-10-27 11:49:37.920271
205  2023-10-27 11:49:37.968143
206  2023-10-27 11:49:38.000057
207  2023-10-27 11:49:38.047929
208  2023-10-27 11:49:38.079844
209  2023-10-27 11:49:38.127716
210  2023-10-27 11:49:38.175588
211  2023-10-27 11:49:38.206505
212  2023-10-27 11:49:38.253445
213  2023-10-27 11:49:38.301317
214  2023-10-27 11:49:38.333233
215  2023-10-27 11:49:38.380107
216  2023-10-27 11:49:38.426952
217  2023-10-27 11:49:38.458870
218  2023-10-27 11:49:38.506783
219  2023-10-27 11:49:38.537700
220  2023-10-27 11:49:38.584634
221  2023-10-27 11:49:38.631450
222  2023-10-27 11:49:38.662397
223  2023-10-27 11:49:38.710280
224  2023-10-27 11:49:38.757146
225  2023-10-27 11:49:38.789028
226  2023-10-27 11:49:38.836901
227  2023-10-27 11:49:38.884854
228  2023-10-27 11:49:38.916715
229  2023-10-27 11:49:38.963676
230  2023-10-27 11:49:39.010551
231  2023-10-27 11:49:39.043542
232  2023-10-27 11:49:39.088343
233  2023-10-27 11:49:39.120257
234  2023-10-27 11:49:39.168129
235  2023-10-27 11:49:39.216145
236  2023-10-27 11:49:39.249027
237  2023-10-27 11:49:39.295932
238  2023-10-27 11:49:39.343802
239  2023-10-27 11:49:39.375739
240  2023-10-27 11:49:39.421651
241  2023-10-27 11:49:39.453572
242  2023-10-27 11:49:39.501488
243  2023-10-27 11:49:39.549360
244  2023-10-27 11:49:39.581275
245  2023-10-27 11:49:39.629147
246  2023-10-27 11:49:39.677019
247  2023-10-27 11:49:39.708934
248  2023-10-27 11:49:39.756806
249  2023-10-27 11:49:39.788720
250  2023-10-27 11:49:39.834598
251  2023-10-27 11:49:39.880527
252  2023-10-27 11:49:39.912432
253  2023-10-27 11:49:39.960389
254  2023-10-27 11:49:40.008182
255  2023-10-27 11:49:40.040048
256  2023-10-27 11:49:40.087952
257  2023-10-27 11:49:40.134829
258  2023-10-27 11:49:40.166710
259  2023-10-27 11:49:40.213588
260  2023-10-27 11:49:40.260498
261  2023-10-27 11:49:40.292415
262  2023-10-27 11:49:40.340351
263  2023-10-27 11:49:40.371256
264  2023-10-27 11:49:40.418130
265  2023-10-27 11:49:40.465088
266  2023-10-27 11:49:40.509968
267  2023-10-27 11:49:40.541050
268  2023-10-27 11:49:40.587961
269  2023-10-27 11:49:40.634951
270  2023-10-27 11:49:40.666569
271  2023-10-27 11:49:40.714507
272  2023-10-27 11:49:40.746391
273  2023-10-27 11:49:40.794275
274  2023-10-27 11:49:40.842100
275  2023-10-27 11:49:40.874015
276  2023-10-27 11:49:40.921926
277  2023-10-27 11:49:40.953852
278  2023-10-27 11:49:41.001673
279  2023-10-27 11:49:41.049589
280  2023-10-27 11:49:41.081501
281  2023-10-27 11:49:41.129332
282  2023-10-27 11:49:41.177250
283  2023-10-27 11:49:41.209119
284  2023-10-27 11:49:41.257026
285  2023-10-27 11:49:41.288942
286  2023-10-27 11:49:41.336920
287  2023-10-27 11:49:41.382690
288  2023-10-27 11:49:41.414609
289  2023-10-27 11:49:41.462569
290  2023-10-27 11:49:41.510451
291  2023-10-27 11:49:41.542328
292  2023-10-27 11:49:41.590240
293  2023-10-27 11:49:41.622128
294  2023-10-27 11:49:41.670018
295  2023-10-27 11:49:41.717892
296  2023-10-27 11:49:41.749811
297  2023-10-27 11:49:41.796646
298  2023-10-27 11:49:41.842572
299  2023-10-27 11:49:41.873442
300  2023-10-27 11:49:41.920315
301  2023-10-27 11:49:41.968187
302  2023-10-27 11:49:42.000102
303  2023-10-27 11:49:42.047974
304  2023-10-27 11:49:42.080018
305  2023-10-27 11:49:42.126763
306  2023-10-27 11:49:42.173133
307  2023-10-27 11:49:42.204050
308  2023-10-27 11:49:42.250978
309  2023-10-27 11:49:42.297799
310  2023-10-27 11:49:42.328717
311  2023-10-27 11:49:42.376590
312  2023-10-27 11:49:42.424494
313  2023-10-27 11:49:42.456412
314  2023-10-27 11:49:42.504248
315  2023-10-27 11:49:42.552152
316  2023-10-27 11:49:42.584075
317  2023-10-27 11:49:42.630193
318  2023-10-27 11:49:42.662217
319  2023-10-27 11:49:42.710110
320  2023-10-27 11:49:42.756967
321  2023-10-27 11:49:42.788874
322  2023-10-27 11:49:42.836761
323  2023-10-27 11:49:42.884618
324  2023-10-27 11:49:42.915628
325  2023-10-27 11:49:42.962501
326  2023-10-27 11:49:43.010414
327  2023-10-27 11:49:43.042418
328  2023-10-27 11:49:43.090203
329  2023-10-27 11:49:43.122152
330  2023-10-27 11:49:43.168041
331  2023-10-27 11:49:43.215915
332  2023-10-27 11:49:43.247828
333  2023-10-27 11:49:43.295843
334  2023-10-27 11:49:43.341583
335  2023-10-27 11:49:43.373492
336  2023-10-27 11:49:43.420367
337  2023-10-27 11:49:43.467241
338  2023-10-27 11:49:43.498158
339  2023-10-27 11:49:43.546064
340  2023-10-27 11:49:43.593057
341  2023-10-27 11:49:43.623952
342  2023-10-27 11:49:43.672022
343  2023-10-27 11:49:43.703979
344  2023-10-27 11:49:43.751926
345  2023-10-27 11:49:43.799818
346  2023-10-27 11:49:43.831733
347  2023-10-27 11:49:43.879645
348  2023-10-27 11:49:43.926631
349  2023-10-27 11:49:43.957501
350  2023-10-27 11:49:44.005405
351  2023-10-27 11:49:44.051301
352  2023-10-27 11:49:44.083178
353  2023-10-27 11:49:44.131074
354  2023-10-27 11:49:44.163117
355  2023-10-27 11:49:44.209827
356  2023-10-27 11:49:44.256740
357  2023-10-27 11:49:44.287623
358  2023-10-27 11:49:44.334493
359  2023-10-27 11:49:44.381368
360  2023-10-27 11:49:44.412285
361  2023-10-27 11:49:44.459230
362  2023-10-27 11:49:44.505109
363  2023-10-27 11:49:44.537024
364  2023-10-27 11:49:44.584932
365  2023-10-27 11:49:44.632768
366  2023-10-27 11:49:44.664819
367  2023-10-27 11:49:44.712586
368  2023-10-27 11:49:44.760426
369  2023-10-27 11:49:44.792391
370  2023-10-27 11:49:44.840213
371  2023-10-27 11:49:44.872282
372  2023-10-27 11:49:45.031815
373  2023-10-27 11:49:45.047786
374  2023-10-27 11:49:45.079687
375  2023-10-27 11:49:45.127592
376  2023-10-27 11:49:45.175509
377  2023-10-27 11:49:45.207424
378  2023-10-27 11:49:45.255431
379  2023-10-27 11:49:45.287246
380  2023-10-27 11:49:45.335082
381  2023-10-27 11:49:45.383002
382  2023-10-27 11:49:45.414917
383  2023-10-27 11:49:45.462905
384  2023-10-27 11:49:45.509815
385  2023-10-27 11:49:45.540702
386  2023-10-27 11:49:45.588573
387  2023-10-27 11:49:45.634482
388  2023-10-27 11:49:45.666372
389  2023-10-27 11:49:45.714236
390  2023-10-27 11:49:45.746183
391  2023-10-27 11:49:45.793066
392  2023-10-27 11:49:45.839925
393  2023-10-27 11:49:45.871851
394  2023-10-27 11:49:45.919687
395  2023-10-27 11:49:45.967560
396  2023-10-27 11:49:45.999480
397  2023-10-27 11:49:46.047345
398  2023-10-27 11:49:46.093222
399  2023-10-27 11:49:46.125292
400  2023-10-27 11:49:46.171014
401  2023-10-27 11:49:46.218928
402  2023-10-27 11:49:46.248884
403  2023-10-27 11:49:46.295757
404  2023-10-27 11:49:46.341675
405  2023-10-27 11:49:46.372598
406  2023-10-27 11:49:46.418709
407  2023-10-27 11:49:46.466564
408  2023-10-27 11:49:46.498598
409  2023-10-27 11:49:46.546428
410  2023-10-27 11:49:46.578378
411  2023-10-27 11:49:46.626251
412  2023-10-27 11:49:46.672350
413  2023-10-27 11:49:46.704215
414  2023-10-27 11:49:46.751091
415  2023-10-27 11:49:46.798361
416  2023-10-27 11:49:46.830391
417  2023-10-27 11:49:46.876268
418  2023-10-27 11:49:46.924176
419  2023-10-27 11:49:46.954106
420  2023-10-27 11:49:47.001932
421  2023-10-27 11:49:47.049843
422  2023-10-27 11:49:47.081758
423  2023-10-27 11:49:47.128348
424  2023-10-27 11:49:47.176213
425  2023-10-27 11:49:47.208128
426  2023-10-27 11:49:47.256033
427  2023-10-27 11:49:47.287987
428  2023-10-27 11:49:47.335786
429  2023-10-27 11:49:47.382704
430  2023-10-27 11:49:47.414617
431  2023-10-27 11:49:47.461451
432  2023-10-27 11:49:47.508325
433  2023-10-27 11:49:47.540240
434  2023-10-27 11:49:47.588154
435  2023-10-27 11:49:47.620059
436  2023-10-27 11:49:47.667933
437  2023-10-27 11:49:47.715804
438  2023-10-27 11:49:47.747722
439  2023-10-27 11:49:47.795593
440  2023-10-27 11:49:47.843430
441  2023-10-27 11:49:47.875358
442  2023-10-27 11:49:47.923263
443  2023-10-27 11:49:47.955179
444  2023-10-27 11:49:48.002270
445  2023-10-27 11:49:48.048216
446  2023-10-27 11:49:48.079135
447  2023-10-27 11:49:48.126995
448  2023-10-27 11:49:48.174965
449  2023-10-27 11:49:48.206859
450  2023-10-27 11:49:48.254890
451  2023-10-27 11:49:48.286826
452  2023-10-27 11:49:48.333634
453  2023-10-27 11:49:48.381505
454  2023-10-27 11:49:48.412422
455  2023-10-27 11:49:48.459328
456  2023-10-27 11:49:48.507169
457  2023-10-27 11:49:48.539083
458  2023-10-27 11:49:48.585994
459  2023-10-27 11:49:48.633830
460  2023-10-27 11:49:48.665745
461  2023-10-27 11:49:48.713815
462  2023-10-27 11:49:48.745728
463  2023-10-27 11:49:48.793604
464  2023-10-27 11:49:48.841443
465  2023-10-27 11:49:48.873357
466  2023-10-27 11:49:48.919269
467  2023-10-27 11:49:48.967107
468  2023-10-27 11:49:48.999021
469  2023-10-27 11:49:49.044899
470  2023-10-27 11:49:49.092772
471  2023-10-27 11:49:49.124687
472  2023-10-27 11:49:49.170605
473  2023-10-27 11:49:49.217477
474  2023-10-27 11:49:49.247390
475  2023-10-27 11:49:49.294342
476  2023-10-27 11:49:49.342182
477  2023-10-27 11:49:49.374209
478  2023-10-27 11:49:49.420090
479  2023-10-27 11:49:49.464923
480  2023-10-27 11:49:49.495841
481  2023-10-27 11:49:49.541719
482  2023-10-27 11:49:49.588627
483  2023-10-27 11:49:49.620545
484  2023-10-27 11:49:49.668380
485  2023-10-27 11:49:49.716309
486  2023-10-27 11:49:49.748264
487  2023-10-27 11:49:49.796194
488  2023-10-27 11:49:49.843026
489  2023-10-27 11:49:49.873991
490  2023-10-27 11:49:49.921847
491  2023-10-27 11:49:49.953762
492  2023-10-27 11:49:50.001633
493  2023-10-27 11:49:50.049529
494  2023-10-27 11:49:50.081434
495  2023-10-27 11:49:50.128385
496  2023-10-27 11:49:50.175371
497  2023-10-27 11:49:50.207288
498  2023-10-27 11:49:50.255155
499  2023-10-27 11:49:50.287071
500  2023-10-27 11:49:50.334946
501  2023-10-27 11:49:50.382784
502  2023-10-27 11:49:50.413701
503  2023-10-27 11:49:50.460576
504  2023-10-27 11:49:50.508527
505  2023-10-27 11:49:50.540442
506  2023-10-27 11:49:50.587356
507  2023-10-27 11:49:50.634191
508  2023-10-27 11:49:50.666319
509  2023-10-27 11:49:50.714230
510  2023-10-27 11:49:50.746141
511  2023-10-27 11:49:50.794106
512  2023-10-27 11:49:50.841984
513  2023-10-27 11:49:50.873899
514  2023-10-27 11:49:50.921803
515  2023-10-27 11:49:50.953720
516  2023-10-27 11:49:51.001557
517  2023-10-27 11:49:51.048480
518  2023-10-27 11:49:51.080380
519  2023-10-27 11:49:51.126257
520  2023-10-27 11:49:51.174096
521  2023-10-27 11:49:51.206011
522  2023-10-27 11:49:51.251928
523  2023-10-27 11:49:51.298763
524  2023-10-27 11:49:51.330678
525  2023-10-27 11:49:51.378552
526  2023-10-27 11:49:51.426457
527  2023-10-27 11:49:51.458376
528  2023-10-27 11:49:51.504249
529  2023-10-27 11:49:51.552118
530  2023-10-27 11:49:51.584035
531  2023-10-27 11:49:51.631915
532  2023-10-27 11:49:51.663843
533  2023-10-27 11:49:51.711692
534  2023-10-27 11:49:51.759579
535  2023-10-27 11:49:51.791478
536  2023-10-27 11:49:51.838353
537  2023-10-27 11:49:51.885228
538  2023-10-27 11:49:51.916146
539  2023-10-27 11:49:51.963018
540  2023-10-27 11:49:52.008864
541  2023-10-27 11:49:52.040779
542  2023-10-27 11:49:52.088689
543  2023-10-27 11:49:52.120600
544  2023-10-27 11:49:52.168438
545  2023-10-27 11:49:52.216345
546  2023-10-27 11:49:52.248271
547  2023-10-27 11:49:52.296096
548  2023-10-27 11:49:52.343007
549  2023-10-27 11:49:52.373888
550  2023-10-27 11:49:52.421793
551  2023-10-27 11:49:52.468635
552  2023-10-27 11:49:52.500550
553  2023-10-27 11:49:52.546458
554  2023-10-27 11:49:52.593341
555  2023-10-27 11:49:52.624251
556  2023-10-27 11:49:52.672126
557  2023-10-27 11:49:52.717999
558  2023-10-27 11:49:52.749916
559  2023-10-27 11:49:52.797797
560  2023-10-27 11:49:52.829707
561  2023-10-27 11:49:52.877580
562  2023-10-27 11:49:52.925445
563  2023-10-27 11:49:52.957360
564  2023-10-27 11:49:53.005233
565  2023-10-27 11:49:53.037150
566  2023-10-27 11:49:53.085017
567  2023-10-27 11:49:53.132899
568  2023-10-27 11:49:53.164809
569  2023-10-27 11:49:53.212681
570  2023-10-27 11:49:53.260576
571  2023-10-27 11:49:53.290483
572  2023-10-27 11:49:53.338397
573  2023-10-27 11:49:53.384222
574  2023-10-27 11:49:53.416139
575  2023-10-27 11:49:53.463974
576  2023-10-27 11:49:53.495889
577  2023-10-27 11:49:53.543761
578  2023-10-27 11:49:53.591671
579  2023-10-27 11:49:53.622583
580  2023-10-27 11:49:53.670422
581  2023-10-27 11:49:53.718336
582  2023-10-27 11:49:53.750242
583  2023-10-27 11:49:53.798081
584  2023-10-27 11:49:53.828998
585  2023-10-27 11:49:53.875905
586  2023-10-27 11:49:53.923776
587  2023-10-27 11:49:53.953700
588  2023-10-27 11:49:54.001600
589  2023-10-27 11:49:54.047414
590  2023-10-27 11:49:54.078366
591  2023-10-27 11:49:54.126238
592  2023-10-27 11:49:54.172081
593  2023-10-27 11:49:54.204030
594  2023-10-27 11:49:54.251899
595  2023-10-27 11:49:54.299827
596  2023-10-27 11:49:54.331800
597  2023-10-27 11:49:54.379643
598  2023-10-27 11:49:54.426487
599  2023-10-27 11:49:54.458436
600  2023-10-27 11:49:54.506276
601  2023-10-27 11:49:54.538188
602  2023-10-27 11:49:54.586091
603  2023-10-27 11:49:54.633936
604  2023-10-27 11:49:54.664849
605  2023-10-27 11:49:54.711756
606  2023-10-27 11:49:54.758628
607  2023-10-27 11:49:54.790554
608  2023-10-27 11:49:54.837429
609  2023-10-27 11:49:54.884453
610  2023-10-27 11:49:54.916371
611  2023-10-27 11:49:54.964203
612  2023-10-27 11:49:54.995168
613  2023-10-27 11:49:55.042043
614  2023-10-27 11:49:55.088918
615  2023-10-27 11:49:55.134831
616  2023-10-27 11:49:55.165743
617  2023-10-27 11:49:55.211625
618  2023-10-27 11:49:55.258518
619  2023-10-27 11:49:55.289415
620  2023-10-27 11:49:55.337254
621  2023-10-27 11:49:55.385195
622  2023-10-27 11:49:55.417164
623  2023-10-27 11:49:55.464998
624  2023-10-27 11:49:55.625569
625  2023-10-27 11:49:55.670478
626  2023-10-27 11:49:55.717322
627  2023-10-27 11:49:55.749237
628  2023-10-27 11:49:55.797107
629  2023-10-27 11:49:55.829022
630  2023-10-27 11:49:55.876895
631  2023-10-27 11:49:55.924766
632  2023-10-27 11:49:55.956714
633  2023-10-27 11:49:56.004553
634  2023-10-27 11:49:56.051429
635  2023-10-27 11:49:56.082346
636  2023-10-27 11:49:56.129317
637  2023-10-27 11:49:56.176147
638  2023-10-27 11:49:56.208143
639  2023-10-27 11:49:56.255020
640  2023-10-27 11:49:56.287041
641  2023-10-27 11:49:56.334918
642  2023-10-27 11:49:56.382789
643  2023-10-27 11:49:56.414707
644  2023-10-27 11:49:56.462572
645  2023-10-27 11:49:56.508461
646  2023-10-27 11:49:56.540367
647  2023-10-27 11:49:56.587234
648  2023-10-27 11:49:56.633147
649  2023-10-27 11:49:56.665027
650  2023-10-27 11:49:56.713896
651  2023-10-27 11:49:56.759867
652  2023-10-27 11:49:56.790785
653  2023-10-27 11:49:56.838625
654  2023-10-27 11:49:56.870536
655  2023-10-27 11:49:56.918443
656  2023-10-27 11:49:56.964285
657  2023-10-27 11:49:56.996200
658  2023-10-27 11:49:57.044108
659  2023-10-27 11:49:57.090952
660  2023-10-27 11:49:57.121864
661  2023-10-27 11:49:57.169736
662  2023-10-27 11:49:57.217608
663  2023-10-27 11:49:57.249523
664  2023-10-27 11:49:57.297395
665  2023-10-27 11:49:57.329310
666  2023-10-27 11:49:57.375220
667  2023-10-27 11:49:57.423098
668  2023-10-27 11:49:57.455136
669  2023-10-27 11:49:57.502878
670  2023-10-27 11:49:57.550748
671  2023-10-27 11:49:57.582664
672  2023-10-27 11:49:57.630540
673  2023-10-27 11:49:57.662461
674  2023-10-27 11:49:57.710327
675  2023-10-27 11:49:57.758204
676  2023-10-27 11:49:57.790114
677  2023-10-27 11:49:57.835955
678  2023-10-27 11:49:57.882860
679  2023-10-27 11:49:57.914778
680  2023-10-27 11:49:57.961663
681  2023-10-27 11:49:58.009492
682  2023-10-27 11:49:58.040418
683  2023-10-27 11:49:58.087324
684  2023-10-27 11:49:58.134158
685  2023-10-27 11:49:58.165075
686  2023-10-27 11:49:58.211999
687  2023-10-27 11:49:58.259822
688  2023-10-27 11:49:58.291737
689  2023-10-27 11:49:58.339641
690  2023-10-27 11:49:58.371523
691  2023-10-27 11:49:58.419396
692  2023-10-27 11:49:58.467267
693  2023-10-27 11:49:58.499182
694  2023-10-27 11:49:58.547055
695  2023-10-27 11:49:58.579000
696  2023-10-27 11:49:58.626841
697  2023-10-27 11:49:58.674757
698  2023-10-27 11:49:58.705743
699  2023-10-27 11:49:58.752638
700  2023-10-27 11:49:58.800480
701  2023-10-27 11:49:58.832398
702  2023-10-27 11:49:58.880267
703  2023-10-27 11:49:58.912185
704  2023-10-27 11:49:58.960055
705  2023-10-27 11:49:59.007929
706  2023-10-27 11:49:59.039875
707  2023-10-27 11:49:59.087736
708  2023-10-27 11:49:59.135604
709  2023-10-27 11:49:59.167549
710  2023-10-27 11:49:59.214394
711  2023-10-27 11:49:59.246340
712  2023-10-27 11:49:59.293183
713  2023-10-27 11:49:59.340061
714  2023-10-27 11:49:59.372067
715  2023-10-27 11:49:59.419941
716  2023-10-27 11:49:59.467839
717  2023-10-27 11:49:59.499723
718  2023-10-27 11:49:59.547594
719  2023-10-27 11:49:59.578512
720  2023-10-27 11:49:59.624363
721  2023-10-27 11:49:59.671312
722  2023-10-27 11:49:59.718141
723  2023-10-27 11:49:59.750019
724  2023-10-27 11:49:59.797892
725  2023-10-27 11:49:59.829807
726  2023-10-27 11:49:59.877724
727  2023-10-27 11:49:59.925584
728  2023-10-27 11:49:59.957499
729  2023-10-27 11:50:00.005338
730  2023-10-27 11:50:00.037252
731  2023-10-27 11:50:00.085124
732  2023-10-27 11:50:00.131999
733  2023-10-27 11:50:00.162917
734  2023-10-27 11:50:00.209791
735  2023-10-27 11:50:00.256666
736  2023-10-27 11:50:00.288679
737  2023-10-27 11:50:00.334599
738  2023-10-27 11:50:00.382486
739  2023-10-27 11:50:00.413404
740  2023-10-27 11:50:00.459330
741  2023-10-27 11:50:00.505425
742  2023-10-27 11:50:00.551480
743  2023-10-27 11:50:00.582277
744  2023-10-27 11:50:00.630093
745  2023-10-27 11:50:00.844524
746  2023-10-27 11:50:00.883416
747  2023-10-27 11:50:00.915334
748  2023-10-27 11:50:00.963203
749  2023-10-27 11:50:00.995118
750  2023-10-27 11:50:01.042997
751  2023-10-27 11:50:01.088867
752  2023-10-27 11:50:01.134744
753  2023-10-27 11:50:01.166659
754  2023-10-27 11:50:01.214531
755  2023-10-27 11:50:01.245485
756  2023-10-27 11:50:01.292458
757  2023-10-27 11:50:01.340443
758  2023-10-27 11:50:01.372363
759  2023-10-27 11:50:01.419236
760  2023-10-27 11:50:01.467100
761  2023-10-27 11:50:01.498016
762  2023-10-27 11:50:01.544937
763  2023-10-27 11:50:01.592876
764  2023-10-27 11:50:01.624797
765  2023-10-27 11:50:01.670633
766  2023-10-27 11:50:01.718577
767  2023-10-27 11:50:01.751480
768  2023-10-27 11:50:01.798291
769  2023-10-27 11:50:01.829411
770  2023-10-27 11:50:01.877083
771  2023-10-27 11:50:01.924984
772  2023-10-27 11:50:01.956869
773  2023-10-27 11:50:02.002744
774  2023-10-27 11:50:02.050617
775  2023-10-27 11:50:02.080537
776  2023-10-27 11:50:02.126699
777  2023-10-27 11:50:02.174532
778  2023-10-27 11:50:02.206447
779  2023-10-27 11:50:02.254319
780  2023-10-27 11:50:02.302191
781  2023-10-27 11:50:02.334106
782  2023-10-27 11:50:02.382118
783  2023-10-27 11:50:02.412930
784  2023-10-27 11:50:02.459818
785  2023-10-27 11:50:02.507679
786  2023-10-27 11:50:02.539556
787  2023-10-27 11:50:02.587480
788  2023-10-27 11:50:02.635343
789  2023-10-27 11:50:02.667269
790  2023-10-27 11:50:02.715222
791  2023-10-27 11:50:02.747127
792  2023-10-27 11:50:02.795008
793  2023-10-27 11:50:02.842874
794  2023-10-27 11:50:02.874796
795  2023-10-27 11:50:02.922670
796  2023-10-27 11:50:02.954593
797  2023-10-27 11:50:03.002452
798  2023-10-27 11:50:03.050320
799  2023-10-27 11:50:03.082234
800  2023-10-27 11:50:03.130106
801  2023-10-27 11:50:03.175985
802  2023-10-27 11:50:03.207898
803  2023-10-27 11:50:03.255781
804  2023-10-27 11:50:03.287685
805  2023-10-27 11:50:03.335522
806  2023-10-27 11:50:03.383459
807  2023-10-27 11:50:03.414463
808  2023-10-27 11:50:03.461297
809  2023-10-27 11:50:03.508169
810  2023-10-27 11:50:03.539086
811  2023-10-27 11:50:03.586961
812  2023-10-27 11:50:03.634942
813  2023-10-27 11:50:03.666912
814  2023-10-27 11:50:03.714818
815  2023-10-27 11:50:03.745827
816  2023-10-27 11:50:03.792576
817  2023-10-27 11:50:03.838453
818  2023-10-27 11:50:03.885328
819  2023-10-27 11:50:03.917276
820  2023-10-27 11:50:03.965115
821  2023-10-27 11:50:03.995074
822  2023-10-27 11:50:04.042951
823  2023-10-27 11:50:04.090819
824  2023-10-27 11:50:04.121749
825  2023-10-27 11:50:04.168611
826  2023-10-27 11:50:04.215482
827  2023-10-27 11:50:04.246416
828  2023-10-27 11:50:04.294266
829  2023-10-27 11:50:04.342158
830  2023-10-27 11:50:04.374023
831  2023-10-27 11:50:04.421896
832  2023-10-27 11:50:04.453846
833  2023-10-27 11:50:04.501680
834  2023-10-27 11:50:04.549590
835  2023-10-27 11:50:04.581505
836  2023-10-27 11:50:04.629380
837  2023-10-27 11:50:04.677389
838  2023-10-27 11:50:04.708129
839  2023-10-27 11:50:04.755003
840  2023-10-27 11:50:04.786919
841  2023-10-27 11:50:04.834939
842  2023-10-27 11:50:04.883816
843  2023-10-27 11:50:04.914732
844  2023-10-27 11:50:04.961606
845  2023-10-27 11:50:05.008481
846  2023-10-27 11:50:05.040398
847  2023-10-27 11:50:05.088267
848  2023-10-27 11:50:05.120321
849  2023-10-27 11:50:05.166060
850  2023-10-27 11:50:05.213932
851  2023-10-27 11:50:05.245846
852  2023-10-27 11:50:05.293240
853  2023-10-27 11:50:05.341140
854  2023-10-27 11:50:05.373055
855  2023-10-27 11:50:05.420927
856  2023-10-27 11:50:05.468844
857  2023-10-27 11:50:05.500071
858  2023-10-27 11:50:05.547031
859  2023-10-27 11:50:05.578908
860  2023-10-27 11:50:05.626813
861  2023-10-27 11:50:05.674686
862  2023-10-27 11:50:05.706733
863  2023-10-27 11:50:05.753472
864  2023-10-27 11:50:05.800352
865  2023-10-27 11:50:05.831272
866  2023-10-27 11:50:05.878145
867  2023-10-27 11:50:05.926010
868  2023-10-27 11:50:05.957930
869  2023-10-27 11:50:06.005810
870  2023-10-27 11:50:06.050692
871  2023-10-27 11:50:06.082562
872  2023-10-27 11:50:06.129469
873  2023-10-27 11:50:06.176311
874  2023-10-27 11:50:06.208226
875  2023-10-27 11:50:06.256098
876  2023-10-27 11:50:06.288013
877  2023-10-27 11:50:06.335885
878  2023-10-27 11:50:06.383757
879  2023-10-27 11:50:06.414674
880  2023-10-27 11:50:06.461549
881  2023-10-27 11:50:06.622120
882  2023-10-27 11:50:06.633090
883  2023-10-27 11:50:06.665005
884  2023-10-27 11:50:06.710916
885  2023-10-27 11:50:06.758957
886  2023-10-27 11:50:06.791841
887  2023-10-27 11:50:06.838732
888  2023-10-27 11:50:06.870654
889  2023-10-27 11:50:06.918485
890  2023-10-27 11:50:06.964368
891  2023-10-27 11:50:06.996310
892  2023-10-27 11:50:07.044185
893  2023-10-27 11:50:07.091036
894  2023-10-27 11:50:07.122947
895  2023-10-27 11:50:07.170810
896  2023-10-27 11:50:07.218682
897  2023-10-27 11:50:07.250598
898  2023-10-27 11:50:07.298471
899  2023-10-27 11:50:07.330383
900  2023-10-27 11:50:07.378256
901  2023-10-27 11:50:07.426127
902  2023-10-27 11:50:07.458042
903  2023-10-27 11:50:07.505914
904  2023-10-27 11:50:07.536832
905  2023-10-27 11:50:07.583706
906  2023-10-27 11:50:07.631578
907  2023-10-27 11:50:07.663493
908  2023-10-27 11:50:07.710530
909  2023-10-27 11:50:07.757405
910  2023-10-27 11:50:07.789320
911  2023-10-27 11:50:07.837323
912  2023-10-27 11:50:07.885064
913  2023-10-27 11:50:07.916979
914  2023-10-27 11:50:07.963975
915  2023-10-27 11:50:08.009919
916  2023-10-27 11:50:08.040835
917  2023-10-27 11:50:08.088706
918  2023-10-27 11:50:08.135548
919  2023-10-27 11:50:08.167508
920  2023-10-27 11:50:08.215375
921  2023-10-27 11:50:08.247296
922  2023-10-27 11:50:08.295155
923  2023-10-27 11:50:08.343027
924  2023-10-27 11:50:08.374939
925  2023-10-27 11:50:08.422781
926  2023-10-27 11:50:08.454757
927  2023-10-27 11:50:08.502600
928  2023-10-27 11:50:08.549481
929  2023-10-27 11:50:08.581396
930  2023-10-27 11:50:08.628283
931  2023-10-27 11:50:08.677102
932  2023-10-27 11:50:08.709018
933  2023-10-27 11:50:08.753895
934  2023-10-27 11:50:08.801862
935  2023-10-27 11:50:08.833682
936  2023-10-27 11:50:08.881554
937  2023-10-27 11:50:08.913468
938  2023-10-27 11:50:08.961562
939  2023-10-27 11:50:09.009434
940  2023-10-27 11:50:09.041348
941  2023-10-27 11:50:09.087225
942  2023-10-27 11:50:09.135097
943  2023-10-27 11:50:09.167012
944  2023-10-27 11:50:09.214884
945  2023-10-27 11:50:09.246951
946  2023-10-27 11:50:09.293834
947  2023-10-27 11:50:09.340708
948  2023-10-27 11:50:09.372623
949  2023-10-27 11:50:09.420597
950  2023-10-27 11:50:09.468467
951  2023-10-27 11:50:09.500348
952  2023-10-27 11:50:09.548221
953  2023-10-27 11:50:09.579850
954  2023-10-27 11:50:09.627736
955  2023-10-27 11:50:09.673680
956  2023-10-27 11:50:09.705727
957  2023-10-27 11:50:09.753584
958  2023-10-27 11:50:09.800458
959  2023-10-27 11:50:09.831508
960  2023-10-27 11:50:09.879247
961  2023-10-27 11:50:09.927125
962  2023-10-27 11:50:09.959039
963  2023-10-27 11:50:10.006905
964  2023-10-27 11:50:10.038823
965  2023-10-27 11:50:10.086693
966  2023-10-27 11:50:10.133568
967  2023-10-27 11:50:10.165487
968  2023-10-27 11:50:10.212369
969  2023-10-27 11:50:10.260196
970  2023-10-27 11:50:10.292117
971  2023-10-27 11:50:10.339039
972  2023-10-27 11:50:10.384862
973  2023-10-27 11:50:10.415795
974  2023-10-27 11:50:10.461762
975  2023-10-27 11:50:10.509666
976  2023-10-27 11:50:10.541580
977  2023-10-27 11:50:10.589452
978  2023-10-27 11:50:10.621367
979  2023-10-27 11:50:10.669239
980  2023-10-27 11:50:10.716348
981  2023-10-27 11:50:10.747281
982  2023-10-27 11:50:10.793157
983  2023-10-27 11:50:10.841071
984  2023-10-27 11:50:10.870990
985  2023-10-27 11:50:10.916937
986  2023-10-27 11:50:10.964890
987  2023-10-27 11:50:10.995798
988  2023-10-27 11:50:11.043641
989  2023-10-27 11:50:11.091551
990  2023-10-27 11:50:11.122429
991  2023-10-27 11:50:11.170337
992  2023-10-27 11:50:11.217175
993  2023-10-27 11:50:11.249090
994  2023-10-27 11:50:11.295104
995  2023-10-27 11:50:11.342976
996  2023-10-27 11:50:11.374891
997  2023-10-27 11:50:11.422763
998  2023-10-27 11:50:11.453680
999  2023-10-27 11:50:11.499616
1000  2023-10-27 11:50:11.546465
1001  2023-10-27 11:50:11.578353
1002  2023-10-27 11:50:11.626390
1003  2023-10-27 11:50:11.674257
1004  2023-10-27 11:50:11.706209
1005  2023-10-27 11:50:11.754049
1006  2023-10-27 11:50:11.802039
1007  2023-10-27 11:50:11.833961
1008  2023-10-27 11:50:11.881819
1009  2023-10-27 11:50:11.913727
1010  2023-10-27 11:50:11.961605
1011  2023-10-27 11:50:12.009443
1012  2023-10-27 11:50:12.041358
1013  2023-10-27 11:50:12.087272
1014  2023-10-27 11:50:12.135141
1015  2023-10-27 11:50:12.166058
1016  2023-10-27 11:50:12.212963
1017  2023-10-27 11:50:12.245027
1018  2023-10-27 11:50:12.292920
1019  2023-10-27 11:50:12.339896
1020  2023-10-27 11:50:12.370953
1021  2023-10-27 11:50:12.417765
1022  2023-10-27 11:50:12.465669
1023  2023-10-27 11:50:12.497591
1024  2023-10-27 11:50:12.546457
1025  2023-10-27 11:50:12.593336
1026  2023-10-27 11:50:12.625244
1027  2023-10-27 11:50:12.672085
1028  2023-10-27 11:50:12.703999
1029  2023-10-27 11:50:12.750874
1030  2023-10-27 11:50:12.797749
1031  2023-10-27 11:50:12.829664
1032  2023-10-27 11:50:12.877535
1033  2023-10-27 11:50:12.925538
1034  2023-10-27 11:50:12.957322
1035  2023-10-27 11:50:13.005194
1036  2023-10-27 11:50:13.037219
1037  2023-10-27 11:50:13.085209
1038  2023-10-27 11:50:13.133081
1039  2023-10-27 11:50:13.164995
1040  2023-10-27 11:50:13.212867
1041  2023-10-27 11:50:13.259788
1042  2023-10-27 11:50:13.290690
1043  2023-10-27 11:50:13.336575
1044  2023-10-27 11:50:13.383451
1045  2023-10-27 11:50:13.415370
1046  2023-10-27 11:50:13.461252
1047  2023-10-27 11:50:13.509109
1048  2023-10-27 11:50:13.541988
1049  2023-10-27 11:50:13.588873
1050  2023-10-27 11:50:13.634753
1051  2023-10-27 11:50:13.666687
1052  2023-10-27 11:50:13.714563
1053  2023-10-27 11:50:13.746472
1054  2023-10-27 11:50:13.794313
1055  2023-10-27 11:50:13.842220
1056  2023-10-27 11:50:13.875163
1057  2023-10-27 11:50:13.921993
1058  2023-10-27 11:50:13.966852
1059  2023-10-27 11:50:13.997769
1060  2023-10-27 11:50:14.045641
1061  2023-10-27 11:50:14.092516
1062  2023-10-27 11:50:14.123433
1063  2023-10-27 11:50:14.169345
1064  2023-10-27 11:50:14.216224
1065  2023-10-27 11:50:14.247155
1066  2023-10-27 11:50:14.295175
1067  2023-10-27 11:50:14.342050
1068  2023-10-27 11:50:14.373964
1069  2023-10-27 11:50:14.421834
1070  2023-10-27 11:50:14.468675
1071  2023-10-27 11:50:14.498632
1072  2023-10-27 11:50:14.546508
1073  2023-10-27 11:50:14.578449
1074  2023-10-27 11:50:14.626292
1075  2023-10-27 11:50:14.674109
1076  2023-10-27 11:50:14.706068
1077  2023-10-27 11:50:14.753942
1078  2023-10-27 11:50:14.801799
1079  2023-10-27 11:50:14.833719
1080  2023-10-27 11:50:14.881556
1081  2023-10-27 11:50:14.912473
1082  2023-10-27 11:50:14.960397
1083  2023-10-27 11:50:15.008246
1084  2023-10-27 11:50:15.040178
1085  2023-10-27 11:50:15.087005
1086  2023-10-27 11:50:15.134911
1087  2023-10-27 11:50:15.167908
1088  2023-10-27 11:50:15.214765
1089  2023-10-27 11:50:15.247711
1090  2023-10-27 11:50:15.294551
1091  2023-10-27 11:50:15.340429
1092  2023-10-27 11:50:15.372343
1093  2023-10-27 11:50:15.420215
1094  2023-10-27 11:50:15.466127
1095  2023-10-27 11:50:15.497042
1096  2023-10-27 11:50:15.543919
1097  2023-10-27 11:50:15.590793
1098  2023-10-27 11:50:15.621711
1099  2023-10-27 11:50:15.669580
1100  2023-10-27 11:50:15.717514
1101  2023-10-27 11:50:15.749460
1102  2023-10-27 11:50:15.795349
1103  2023-10-27 11:50:15.843214
1104  2023-10-27 11:50:15.875134
1105  2023-10-27 11:50:15.923022
1106  2023-10-27 11:50:15.953881
1107  2023-10-27 11:50:16.000757
1108  2023-10-27 11:50:16.048684
1109  2023-10-27 11:50:16.080581
1110  2023-10-27 11:50:16.127466
1111  2023-10-27 11:50:16.176411
1112  2023-10-27 11:50:16.207363
1113  2023-10-27 11:50:16.255361
1114  2023-10-27 11:50:16.287255
1115  2023-10-27 11:50:16.335098
1116  2023-10-27 11:50:16.380974
1117  2023-10-27 11:50:16.412889
1118  2023-10-27 11:50:16.459813
1119  2023-10-27 11:50:16.506638
1120  2023-10-27 11:50:16.538585
1121  2023-10-27 11:50:16.586510
1122  2023-10-27 11:50:16.634384
1123  2023-10-27 11:50:16.666331
1124  2023-10-27 11:50:16.727171
1125  2023-10-27 11:50:16.746124
1126  2023-10-27 11:50:16.794049
1127  2023-10-27 11:50:16.841889
1128  2023-10-27 11:50:16.873803
1129  2023-10-27 11:50:16.919712
1130  2023-10-27 11:50:16.967750
1131  2023-10-27 11:50:16.999742
1132  2023-10-27 11:50:17.047630
1133  2023-10-27 11:50:17.079525
1134  2023-10-27 11:50:17.127397
1135  2023-10-27 11:50:17.175235
1136  2023-10-27 11:50:17.207150
1137  2023-10-27 11:50:17.255058
1138  2023-10-27 11:50:17.301897
1139  2023-10-27 11:50:17.332816
1140  2023-10-27 11:50:17.379948
1141  2023-10-27 11:50:17.425697
1142  2023-10-27 11:50:17.456611
1143  2023-10-27 11:50:17.504485
1144  2023-10-27 11:50:17.551360
1145  2023-10-27 11:50:17.582256
1146  2023-10-27 11:50:17.630131
1147  2023-10-27 11:50:17.662030
1148  2023-10-27 11:50:17.709902
1149  2023-10-27 11:50:17.755886
1150  2023-10-27 11:50:17.787789
1151  2023-10-27 11:50:17.833671
1152  2023-10-27 11:50:17.881585
1153  2023-10-27 11:50:17.913505
1154  2023-10-27 11:50:17.961462
1155  2023-10-27 11:50:18.008302
1156  2023-10-27 11:50:18.039220
1157  2023-10-27 11:50:18.086152
1158  2023-10-27 11:50:18.134001
1159  2023-10-27 11:50:18.165882
1160  2023-10-27 11:50:18.213785
1161  2023-10-27 11:50:18.245702
1162  2023-10-27 11:50:18.293574
1163  2023-10-27 11:50:18.341420
1164  2023-10-27 11:50:18.373359
1165  2023-10-27 11:50:18.420203
1166  2023-10-27 11:50:18.467121
1167  2023-10-27 11:50:18.498993
1168  2023-10-27 11:50:18.546898
1169  2023-10-27 11:50:18.578814
1170  2023-10-27 11:50:18.626687
1171  2023-10-27 11:50:18.674556
1172  2023-10-27 11:50:18.706465
1173  2023-10-27 11:50:18.753350
1174  2023-10-27 11:50:18.801216
1175  2023-10-27 11:50:18.832138
1176  2023-10-27 11:50:18.879012
1177  2023-10-27 11:50:18.926990
1178  2023-10-27 11:50:18.958953
1179  2023-10-27 11:50:19.006872
1180  2023-10-27 11:50:19.038776
1181  2023-10-27 11:50:19.085773
1182  2023-10-27 11:50:19.133491
1183  2023-10-27 11:50:19.165455
1184  2023-10-27 11:50:19.212313
1185  2023-10-27 11:50:19.259194
1186  2023-10-27 11:50:19.290113
1187  2023-10-27 11:50:19.337989
1188  2023-10-27 11:50:19.384848
1189  2023-10-27 11:50:19.415772
1190  2023-10-27 11:50:19.460617
1191  2023-10-27 11:50:19.507523
1192  2023-10-27 11:50:19.539439
1193  2023-10-27 11:50:19.587309
1194  2023-10-27 11:50:19.635314
1195  2023-10-27 11:50:19.667097
1196  2023-10-27 11:50:19.714975
1197  2023-10-27 11:50:19.745854
1198  2023-10-27 11:50:19.791761
1199  2023-10-27 11:50:19.838639
1200  2023-10-27 11:50:19.870555
1201  2023-10-27 11:50:19.918427
1202  2023-10-27 11:50:19.966295
1203  2023-10-27 11:50:19.998224
1204  2023-10-27 11:50:20.045089
1205  2023-10-27 11:50:20.092927
1206  2023-10-27 11:50:20.124996
1207  2023-10-27 11:50:20.171715
1208  2023-10-27 11:50:20.217625
1209  2023-10-27 11:50:20.247572
1210  2023-10-27 11:50:20.294388
1211  2023-10-27 11:50:20.342265
1212  2023-10-27 11:50:20.373176
1213  2023-10-27 11:50:20.420084
1214  2023-10-27 11:50:20.467923
1215  2023-10-27 11:50:20.499876
1216  2023-10-27 11:50:20.547741
1217  2023-10-27 11:50:20.579624
1218  2023-10-27 11:50:20.625543
1219  2023-10-27 11:50:20.673407
1220  2023-10-27 11:50:20.705326
1221  2023-10-27 11:50:20.752198
1222  2023-10-27 11:50:20.799078
1223  2023-10-27 11:50:20.830953
1224  2023-10-27 11:50:20.878866
1225  2023-10-27 11:50:20.925734
1226  2023-10-27 11:50:20.956617
1227  2023-10-27 11:50:21.004520
1228  2023-10-27 11:50:21.051364
1229  2023-10-27 11:50:21.082314
1230  2023-10-27 11:50:21.130354
1231  2023-10-27 11:50:21.162108
1232  2023-10-27 11:50:21.209940
1233  2023-10-27 11:50:21.257841
1234  2023-10-27 11:50:21.289772
1235  2023-10-27 11:50:21.337631
1236  2023-10-27 11:50:21.385511
1237  2023-10-27 11:50:21.417420
1238  2023-10-27 11:50:21.465427
1239  2023-10-27 11:50:21.497207
1240  2023-10-27 11:50:21.544086
1241  2023-10-27 11:50:21.590957
1242  2023-10-27 11:50:21.621874
1243  2023-10-27 11:50:21.668803
1244  2023-10-27 11:50:21.715633
1245  2023-10-27 11:50:21.747548
1246  2023-10-27 11:50:21.795419
1247  2023-10-27 11:50:21.843372
1248  2023-10-27 11:50:21.875297
1249  2023-10-27 11:50:21.923156
1250  2023-10-27 11:50:21.955193
1251  2023-10-27 11:50:22.002429
1252  2023-10-27 11:50:22.050390
1253  2023-10-27 11:50:22.083270
1254  2023-10-27 11:50:22.130232
1255  2023-10-27 11:50:22.162288
1256  2023-10-27 11:50:22.210030
1257  2023-10-27 11:50:22.256890
1258  2023-10-27 11:50:22.287808
1259  2023-10-27 11:50:22.335682
1260  2023-10-27 11:50:22.381567
1261  2023-10-27 11:50:22.413440
1262  2023-10-27 11:50:22.461349
1263  2023-10-27 11:50:22.507190
1264  2023-10-27 11:50:22.540134
1265  2023-10-27 11:50:22.587011
1266  2023-10-27 11:50:22.633889
1267  2023-10-27 11:50:22.664801
1268  2023-10-27 11:50:22.711683
1269  2023-10-27 11:50:22.758552
1270  2023-10-27 11:50:22.790465
1271  2023-10-27 11:50:22.837566
1272  2023-10-27 11:50:22.884323
1273  2023-10-27 11:50:22.916246
1274  2023-10-27 11:50:22.964112
1275  2023-10-27 11:50:22.996032
1276  2023-10-27 11:50:23.043900
1277  2023-10-27 11:50:23.091785
1278  2023-10-27 11:50:23.123690
1279  2023-10-27 11:50:23.171529
1280  2023-10-27 11:50:23.203482
1281  2023-10-27 11:50:23.251316
1282  2023-10-27 11:50:23.299190
1283  2023-10-27 11:50:23.331139
1284  2023-10-27 11:50:23.378974
1285  2023-10-27 11:50:23.426878
1286  2023-10-27 11:50:23.458762
1287  2023-10-27 11:50:23.506681
1288  2023-10-27 11:50:23.551513
1289  2023-10-27 11:50:23.582467
1290  2023-10-27 11:50:23.630338
1291  2023-10-27 11:50:23.662250
1292  2023-10-27 11:50:23.710123
1293  2023-10-27 11:50:23.756995
1294  2023-10-27 11:50:23.788911
1295  2023-10-27 11:50:23.835788
1296  2023-10-27 11:50:23.883656
1297  2023-10-27 11:50:23.915567
1298  2023-10-27 11:50:23.961454
1299  2023-10-27 11:50:24.009289
1300  2023-10-27 11:50:24.041204
1301  2023-10-27 11:50:24.089110
1302  2023-10-27 11:50:24.121024
1303  2023-10-27 11:50:24.168907
1304  2023-10-27 11:50:24.216868
1305  2023-10-27 11:50:24.248659
1306  2023-10-27 11:50:24.296530
1307  2023-10-27 11:50:24.328445
1308  2023-10-27 11:50:24.376316
1309  2023-10-27 11:50:24.424171
1310  2023-10-27 11:50:24.455087
1311  2023-10-27 11:50:24.500931
1312  2023-10-27 11:50:24.548803
1313  2023-10-27 11:50:24.580751
1314  2023-10-27 11:50:24.628589
1315  2023-10-27 11:50:24.677460
1316  2023-10-27 11:50:24.708418
1317  2023-10-27 11:50:24.754287
1318  2023-10-27 11:50:24.802162
1319  2023-10-27 11:50:24.834076
1320  2023-10-27 11:50:24.879951
1321  2023-10-27 11:50:24.911972
1322  2023-10-27 11:50:24.959742
1323  2023-10-27 11:50:25.007610
1324  2023-10-27 11:50:25.039521
1325  2023-10-27 11:50:25.087396
1326  2023-10-27 11:50:25.132274
1327  2023-10-27 11:50:25.164199
1328  2023-10-27 11:50:25.212079
1329  2023-10-27 11:50:25.259933
1330  2023-10-27 11:50:25.291857
1331  2023-10-27 11:50:25.339730
1332  2023-10-27 11:50:25.371637
1333  2023-10-27 11:50:25.419512
1334  2023-10-27 11:50:25.465386
1335  2023-10-27 11:50:25.497303
1336  2023-10-27 11:50:25.545173
1337  2023-10-27 11:50:25.593046
1338  2023-10-27 11:50:25.624958
1339  2023-10-27 11:50:25.672843
1340  2023-10-27 11:50:25.704744
1341  2023-10-27 11:50:25.752619
1342  2023-10-27 11:50:25.800489
1343  2023-10-27 11:50:25.832406
1344  2023-10-27 11:50:25.880281
1345  2023-10-27 11:50:25.912192
1346  2023-10-27 11:50:25.960064
1347  2023-10-27 11:50:26.005907
1348  2023-10-27 11:50:26.037858
1349  2023-10-27 11:50:26.085728
1350  2023-10-27 11:50:26.133601
1351  2023-10-27 11:50:26.165510
1352  2023-10-27 11:50:26.212355
1353  2023-10-27 11:50:26.260227
1354  2023-10-27 11:50:26.292176
1355  2023-10-27 11:50:26.340052
1356  2023-10-27 11:50:26.371928
1357  2023-10-27 11:50:26.418803
1358  2023-10-27 11:50:26.464717
1359  2023-10-27 11:50:26.496626
1360  2023-10-27 11:50:26.542511
1361  2023-10-27 11:50:26.590448
1362  2023-10-27 11:50:26.622364
1363  2023-10-27 11:50:26.670254
1364  2023-10-27 11:50:26.718109
1365  2023-10-27 11:50:26.750023
1366  2023-10-27 11:50:26.796897
1367  2023-10-27 11:50:26.843774
1368  2023-10-27 11:50:26.875689
1369  2023-10-27 11:50:26.923560
1370  2023-10-27 11:50:26.955651
1371  2023-10-27 11:50:27.003348
1372  2023-10-27 11:50:27.050244
1373  2023-10-27 11:50:27.082135
1374  2023-10-27 11:50:27.130006
1375  2023-10-27 11:50:27.177881
1376  2023-10-27 11:50:27.209764
1377  2023-10-27 11:50:27.256669
1378  2023-10-27 11:50:27.288603
1379  2023-10-27 11:50:27.334495
1380  2023-10-27 11:50:27.382333
1381  2023-10-27 11:50:27.414217
1382  2023-10-27 11:50:27.462117
1383  2023-10-27 11:50:27.509995
1384  2023-10-27 11:50:27.541905
1385  2023-10-27 11:50:27.587799
1386  2023-10-27 11:50:27.634658
1387  2023-10-27 11:50:27.665544
1388  2023-10-27 11:50:27.713415
1389  2023-10-27 11:50:27.745330
1390  2023-10-27 11:50:27.791240
1391  2023-10-27 11:50:27.839122
1392  2023-10-27 11:50:27.871025
1393  2023-10-27 11:50:27.916914
1394  2023-10-27 11:50:27.964787
1395  2023-10-27 11:50:27.995691
1396  2023-10-27 11:50:28.042568
1397  2023-10-27 11:50:28.090443
1398  2023-10-27 11:50:28.122355
1399  2023-10-27 11:50:28.169230
1400  2023-10-27 11:50:28.215105
1401  2023-10-27 11:50:28.247020
1402  2023-10-27 11:50:28.294891
1403  2023-10-27 11:50:28.342766
1404  2023-10-27 11:50:28.374648
1405  2023-10-27 11:50:28.422551
1406  2023-10-27 11:50:28.454466
1407  2023-10-27 11:50:28.502336
1408  2023-10-27 11:50:28.549216
1409  2023-10-27 11:50:28.581130
1410  2023-10-27 11:50:28.628005
1411  2023-10-27 11:50:28.675873
1412  2023-10-27 11:50:28.707758
1413  2023-10-27 11:50:28.755662
1414  2023-10-27 11:50:28.787581
1415  2023-10-27 11:50:28.835451
1416  2023-10-27 11:50:28.883288
1417  2023-10-27 11:50:28.914205
1418  2023-10-27 11:50:28.961080
1419  2023-10-27 11:50:29.008952
1420  2023-10-27 11:50:29.040866
1421  2023-10-27 11:50:29.088738
1422  2023-10-27 11:50:29.134647
1423  2023-10-27 11:50:29.166564
1424  2023-10-27 11:50:29.214432
1425  2023-10-27 11:50:29.246352
1426  2023-10-27 11:50:29.294224
1427  2023-10-27 11:50:29.342092
1428  2023-10-27 11:50:29.374034
1429  2023-10-27 11:50:29.421879
1430  2023-10-27 11:50:29.453799
1431  2023-10-27 11:50:29.498657
1432  2023-10-27 11:50:29.544558
1433  2023-10-27 11:50:29.592427
1434  2023-10-27 11:50:29.623344
1435  2023-10-27 11:50:29.670217
1436  2023-10-27 11:50:29.718099
1437  2023-10-27 11:50:29.750005
1438  2023-10-27 11:50:29.797874
1439  2023-10-27 11:50:29.829789
1440  2023-10-27 11:50:29.875829
1441  2023-10-27 11:50:29.923671
1442  2023-10-27 11:50:29.955629
1443  2023-10-27 11:50:30.003598
1444  2023-10-27 11:50:30.051470
1445  2023-10-27 11:50:30.083385
1446  2023-10-27 11:50:30.129261
1447  2023-10-27 11:50:30.175169
1448  2023-10-27 11:50:30.207084
1449  2023-10-27 11:50:30.251966
1450  2023-10-27 11:50:30.299844
1451  2023-10-27 11:50:30.331766
1452  2023-10-27 11:50:30.379625
1453  2023-10-27 11:50:30.426653
1454  2023-10-27 11:50:30.457419
1455  2023-10-27 11:50:30.505292
1456  2023-10-27 11:50:30.537202
1457  2023-10-27 11:50:30.583830
1458  2023-10-27 11:50:30.631706
1459  2023-10-27 11:50:30.664586
1460  2023-10-27 11:50:30.711502
1461  2023-10-27 11:50:30.759396
1462  2023-10-27 11:50:30.792279
1463  2023-10-27 11:50:30.838163
1464  2023-10-27 11:50:30.870071
1465  2023-10-27 11:50:30.917961
1466  2023-10-27 11:50:30.965812
1467  2023-10-27 11:50:30.996732
1468  2023-10-27 11:50:31.043573
1469  2023-10-27 11:50:31.089450
1470  2023-10-27 11:50:31.120367
1471  2023-10-27 11:50:31.167276
1472  2023-10-27 11:50:31.213153
1473  2023-10-27 11:50:31.245066
1474  2023-10-27 11:50:31.291941
1475  2023-10-27 11:50:31.338814
1476  2023-10-27 11:50:31.384709
1477  2023-10-27 11:50:31.416609
1478  2023-10-27 11:50:31.464478
1479  2023-10-27 11:50:31.496393
1480  2023-10-27 11:50:31.544266
1481  2023-10-27 11:50:31.592144
1482  2023-10-27 11:50:31.624022
1483  2023-10-27 11:50:31.671894
1484  2023-10-27 11:50:31.703893
1485  2023-10-27 11:50:31.749719
1486  2023-10-27 11:50:31.797590
1487  2023-10-27 11:50:31.829511
1488  2023-10-27 11:50:31.877383
1489  2023-10-27 11:50:31.925252
1490  2023-10-27 11:50:31.957246
1491  2023-10-27 11:50:32.003020
1492  2023-10-27 11:50:32.050912
1493  2023-10-27 11:50:32.082935
1494  2023-10-27 11:50:32.130823
1495  2023-10-27 11:50:32.162722
1496  2023-10-27 11:50:32.209596
1497  2023-10-27 11:50:32.256471
1498  2023-10-27 11:50:32.288385
1499  2023-10-27 11:50:32.334295
1500  2023-10-27 11:50:32.382170
1501  2023-10-27 11:50:32.413097
1502  2023-10-27 11:50:32.459957
1503  2023-10-27 11:50:32.507841
1504  2023-10-27 11:50:32.539746
1505  2023-10-27 11:50:32.587617
1506  2023-10-27 11:50:32.635492
1507  2023-10-27 11:50:32.665414
1508  2023-10-27 11:50:32.713283
1509  2023-10-27 11:50:32.745214
1510  2023-10-27 11:50:32.793070
1511  2023-10-27 11:50:32.840909
1512  2023-10-27 11:50:32.872856
1513  2023-10-27 11:50:32.920727
1514  2023-10-27 11:50:32.968598
1515  2023-10-27 11:50:33.000592
1516  2023-10-27 11:50:33.048599
1517  2023-10-27 11:50:33.080515
1518  2023-10-27 11:50:33.127394
1519  2023-10-27 11:50:33.174266
1520  2023-10-27 11:50:33.206189
1521  2023-10-27 11:50:33.254020
1522  2023-10-27 11:50:33.301923
1523  2023-10-27 11:50:33.331811
1524  2023-10-27 11:50:33.379722
1525  2023-10-27 11:50:33.426557
1526  2023-10-27 11:50:33.456476
1527  2023-10-27 11:50:33.503351
1528  2023-10-27 11:50:33.551223
1529  2023-10-27 11:50:33.583138
1530  2023-10-27 11:50:33.629061
1531  2023-10-27 11:50:33.677016
1532  2023-10-27 11:50:33.708899
1533  2023-10-27 11:50:33.756810
1534  2023-10-27 11:50:33.788685
1535  2023-10-27 11:50:33.836606
1536  2023-10-27 11:50:33.884525
1537  2023-10-27 11:50:33.915443
1538  2023-10-27 11:50:33.962884
1539  2023-10-27 11:50:34.010034
1540  2023-10-27 11:50:34.040952
1541  2023-10-27 11:50:34.088893
1542  2023-10-27 11:50:34.134814
1543  2023-10-27 11:50:34.167755
1544  2023-10-27 11:50:34.214652
1545  2023-10-27 11:50:34.259672
1546  2023-10-27 11:50:34.291550
1547  2023-10-27 11:50:34.339422
1548  2023-10-27 11:50:34.371370
1549  2023-10-27 11:50:34.419209
1550  2023-10-27 11:50:34.467084
1551  2023-10-27 11:50:34.498996
1552  2023-10-27 11:50:34.545870
1553  2023-10-27 11:50:34.592745
1554  2023-10-27 11:50:34.624659
1555  2023-10-27 11:50:34.670537
1556  2023-10-27 11:50:34.717446
1557  2023-10-27 11:50:34.748378
1558  2023-10-27 11:50:34.796243
1559  2023-10-27 11:50:34.842395
1560  2023-10-27 11:50:34.873344
1561  2023-10-27 11:50:34.920186
1562  2023-10-27 11:50:34.968101
1563  2023-10-27 11:50:35.000078
1564  2023-10-27 11:50:35.045923
1565  2023-10-27 11:50:35.093902
1566  2023-10-27 11:50:35.123784
1567  2023-10-27 11:50:35.171690
1568  2023-10-27 11:50:35.217533
1569  2023-10-27 11:50:35.249448
1570  2023-10-27 11:50:35.297479
1571  2023-10-27 11:50:35.329441
1572  2023-10-27 11:50:35.377313
1573  2023-10-27 11:50:35.425185
1574  2023-10-27 11:50:35.457100
1575  2023-10-27 11:50:35.504972
1576  2023-10-27 11:50:35.537021
1577  2023-10-27 11:50:35.584758
1578  2023-10-27 11:50:35.630635
1579  2023-10-27 11:50:35.662748
1580  2023-10-27 11:50:35.708626
1581  2023-10-27 11:50:35.756543
1582  2023-10-27 11:50:35.788413
1583  2023-10-27 11:50:35.836320
1584  2023-10-27 11:50:35.884190
1585  2023-10-27 11:50:35.916116
1586  2023-10-27 11:50:35.961990
1587  2023-10-27 11:50:36.009855
1588  2023-10-27 11:50:36.041768
1589  2023-10-27 11:50:36.089644
1590  2023-10-27 11:50:36.121555
1591  2023-10-27 11:50:36.169431
1592  2023-10-27 11:50:36.217305
1593  2023-10-27 11:50:36.249228
1594  2023-10-27 11:50:36.297087
1595  2023-10-27 11:50:36.329005
1596  2023-10-27 11:50:36.376884
1597  2023-10-27 11:50:36.424748
1598  2023-10-27 11:50:36.456788
1599  2023-10-27 11:50:36.503664
1600  2023-10-27 11:50:36.551564
1601  2023-10-27 11:50:36.582463
1602  2023-10-27 11:50:36.631335
1603  2023-10-27 11:50:36.662383
1604  2023-10-27 11:50:36.709225
1605  2023-10-27 11:50:36.757236
1606  2023-10-27 11:50:36.788128
1607  2023-10-27 11:50:36.836998
1608  2023-10-27 11:50:36.884895
1609  2023-10-27 11:50:36.914752
1610  2023-10-27 11:50:36.961627
1611  2023-10-27 11:50:37.009499
1612  2023-10-27 11:50:37.041413
1613  2023-10-27 11:50:37.089285
1614  2023-10-27 11:50:37.121200
1615  2023-10-27 11:50:37.167331
1616  2023-10-27 11:50:37.214206
1617  2023-10-27 11:50:37.245123
1618  2023-10-27 11:50:37.291998
1619  2023-10-27 11:50:37.338917
1620  2023-10-27 11:50:37.370822
1621  2023-10-27 11:50:37.418693
1622  2023-10-27 11:50:37.466566
1623  2023-10-27 11:50:37.498482
1624  2023-10-27 11:50:37.546348
1625  2023-10-27 11:50:37.578280
1626  2023-10-27 11:50:37.626144
1627  2023-10-27 11:50:37.672101
1628  2023-10-27 11:50:37.718948
1629  2023-10-27 11:50:37.748915
1630  2023-10-27 11:50:37.796737
1631  2023-10-27 11:50:37.828835
1632  2023-10-27 11:50:37.876554
1633  2023-10-27 11:50:37.924447
1634  2023-10-27 11:50:37.956424
1635  2023-10-27 11:50:38.004295
1636  2023-10-27 11:50:38.052237
1637  2023-10-27 11:50:38.083221
1638  2023-10-27 11:50:38.130093
1639  2023-10-27 11:50:38.176968
1640  2023-10-27 11:50:38.208963
1641  2023-10-27 11:50:38.254840
1642  2023-10-27 11:50:38.286755
1643  2023-10-27 11:50:38.334634
1644  2023-10-27 11:50:38.382499
1645  2023-10-27 11:50:38.414414
1646  2023-10-27 11:50:38.460291
1647  2023-10-27 11:50:38.508204
1648  2023-10-27 11:50:38.540078
1649  2023-10-27 11:50:38.587994
1650  2023-10-27 11:50:38.634864
1651  2023-10-27 11:50:38.665783
1652  2023-10-27 11:50:38.713647
1653  2023-10-27 11:50:38.745582
1654  2023-10-27 11:50:38.793441
1655  2023-10-27 11:50:38.841325
1656  2023-10-27 11:50:38.873230
1657  2023-10-27 11:50:38.920107
1658  2023-10-27 11:50:38.967976
1659  2023-10-27 11:50:38.999896
1660  2023-10-27 11:50:39.047762
1661  2023-10-27 11:50:39.079670
1662  2023-10-27 11:50:39.126442
1663  2023-10-27 11:50:39.173349
1664  2023-10-27 11:50:39.204277
1665  2023-10-27 11:50:39.252149
1666  2023-10-27 11:50:39.299979
1667  2023-10-27 11:50:39.331939
1668  2023-10-27 11:50:39.380035
1669  2023-10-27 11:50:39.425910
1670  2023-10-27 11:50:39.456827
1671  2023-10-27 11:50:39.502704
1672  2023-10-27 11:50:39.550576
1673  2023-10-27 11:50:39.582491
1674  2023-10-27 11:50:39.629534
1675  2023-10-27 11:50:39.676281
1676  2023-10-27 11:50:39.708103
1677  2023-10-27 11:50:39.755975
1678  2023-10-27 11:50:39.786892
1679  2023-10-27 11:50:39.834884
1680  2023-10-27 11:50:39.881807
1681  2023-10-27 11:50:39.911727
1682  2023-10-27 11:50:39.957686
1683  2023-10-27 11:50:40.004618
1684  2023-10-27 11:50:40.052549
1685  2023-10-27 11:50:40.081411
1686  2023-10-27 11:50:40.129283
1687  2023-10-27 11:50:40.176158
1688  2023-10-27 11:50:40.207075
1689  2023-10-27 11:50:40.255059
1690  2023-10-27 11:50:40.287044
1691  2023-10-27 11:50:40.333890
1692  2023-10-27 11:50:40.380846
1693  2023-10-27 11:50:40.412779
1694  2023-10-27 11:50:40.457610
1695  2023-10-27 11:50:40.504558
1696  2023-10-27 11:50:40.551454
1697  2023-10-27 11:50:40.583354
1698  2023-10-27 11:50:40.631226
1699  2023-10-27 11:50:40.663105
1700  2023-10-27 11:50:40.708980
1701  2023-10-27 11:50:40.756882
1702  2023-10-27 11:50:40.789765
1703  2023-10-27 11:50:40.836640
1704  2023-10-27 11:50:40.882560
1705  2023-10-27 11:50:40.915429
1706  2023-10-27 11:50:40.963364
1707  2023-10-27 11:50:41.011206
1708  2023-10-27 11:50:41.043104
1709  2023-10-27 11:50:41.087967
1710  2023-10-27 11:50:41.134842
1711  2023-10-27 11:50:41.165759
1712  2023-10-27 11:50:41.213631
1713  2023-10-27 11:50:41.245545
1714  2023-10-27 11:50:41.293418
1715  2023-10-27 11:50:41.341290
1716  2023-10-27 11:50:41.373204
1717  2023-10-27 11:50:41.421076
1718  2023-10-27 11:50:41.467996
1719  2023-10-27 11:50:41.498868
1720  2023-10-27 11:50:41.546775
1721  2023-10-27 11:50:41.593654
1722  2023-10-27 11:50:41.624572
1723  2023-10-27 11:50:41.671571
1724  2023-10-27 11:50:41.718594
1725  2023-10-27 11:50:41.750326
1726  2023-10-27 11:50:41.796366
1727  2023-10-27 11:50:41.829300
1728  2023-10-27 11:50:41.874401
1729  2023-10-27 11:50:41.921228
1730  2023-10-27 11:50:41.967105
1731  2023-10-27 11:50:41.999019
1732  2023-10-27 11:50:42.044897
1733  2023-10-27 11:50:42.092903
1734  2023-10-27 11:50:42.124198
1735  2023-10-27 11:50:42.172064
1736  2023-10-27 11:50:42.204060
1737  2023-10-27 11:50:42.251982
1738  2023-10-27 11:50:42.298829
1739  2023-10-27 11:50:42.329911
1740  2023-10-27 11:50:42.376828
1741  2023-10-27 11:50:42.423812
1742  2023-10-27 11:50:42.455813
1743  2023-10-27 11:50:42.503652
1744  2023-10-27 11:50:42.550993
1745  2023-10-27 11:50:42.582910
1746  2023-10-27 11:50:42.630802
1747  2023-10-27 11:50:42.662703
1748  2023-10-27 11:50:42.709539
1749  2023-10-27 11:50:42.756444
1750  2023-10-27 11:50:42.787368
1751  2023-10-27 11:50:42.834235
1752  2023-10-27 11:50:42.882199
1753  2023-10-27 11:50:42.912078
1754  2023-10-27 11:50:42.960218
1755  2023-10-27 11:50:43.008090
1756  2023-10-27 11:50:43.040082
1757  2023-10-27 11:50:43.088033
1758  2023-10-27 11:50:43.119947
1759  2023-10-27 11:50:43.165828
1760  2023-10-27 11:50:43.212699
1761  2023-10-27 11:50:43.259671
1762  2023-10-27 11:50:43.291768
1763  2023-10-27 11:50:43.337470
1764  2023-10-27 11:50:43.385476
1765  2023-10-27 11:50:43.417396
1766  2023-10-27 11:50:43.465262
1767  2023-10-27 11:50:43.497235
1768  2023-10-27 11:50:43.545153
1769  2023-10-27 11:50:43.592071
1770  2023-10-27 11:50:43.622986
1771  2023-10-27 11:50:43.670862
1772  2023-10-27 11:50:43.718729
1773  2023-10-27 11:50:43.749716
1774  2023-10-27 11:50:43.796654
1775  2023-10-27 11:50:43.843547
1776  2023-10-27 11:50:43.873478
1777  2023-10-27 11:50:43.921338
1778  2023-10-27 11:50:43.969224
1779  2023-10-27 11:50:44.001149
1780  2023-10-27 11:50:44.046096
1781  2023-10-27 11:50:44.091973
1782  2023-10-27 11:50:44.122945
1783  2023-10-27 11:50:44.169804
1784  2023-10-27 11:50:44.216790
1785  2023-10-27 11:50:44.247787
1786  2023-10-27 11:50:44.295657
1787  2023-10-27 11:50:44.343551
1788  2023-10-27 11:50:44.375518
1789  2023-10-27 11:50:44.423424
1790  2023-10-27 11:50:44.455336
1791  2023-10-27 11:50:44.503213
1792  2023-10-27 11:50:44.551094
1793  2023-10-27 11:50:44.582984
1794  2023-10-27 11:50:44.630857
1795  2023-10-27 11:50:44.662770
1796  2023-10-27 11:50:44.710655
1797  2023-10-27 11:50:44.757562
1798  2023-10-27 11:50:44.789762
1799  2023-10-27 11:50:44.837452
1800  2023-10-27 11:50:44.885290
1801  2023-10-27 11:50:44.917445
1802  2023-10-27 11:50:44.965276
1803  2023-10-27 11:50:44.996229
1804  2023-10-27 11:50:45.043116
1805  2023-10-27 11:50:45.090991
1806  2023-10-27 11:50:45.121888
1807  2023-10-27 11:50:45.169761
1808  2023-10-27 11:50:45.216642
1809  2023-10-27 11:50:45.248683
1810  2023-10-27 11:50:45.296526
1811  2023-10-27 11:50:45.342402
1812  2023-10-27 11:50:45.373319
1813  2023-10-27 11:50:45.420194
1814  2023-10-27 11:50:45.466071
1815  2023-10-27 11:50:45.496023
1816  2023-10-27 11:50:45.543903
1817  2023-10-27 11:50:45.591769
1818  2023-10-27 11:50:45.623686
1819  2023-10-27 11:50:45.671641
1820  2023-10-27 11:50:45.703557
1821  2023-10-27 11:50:45.751486
1822  2023-10-27 11:50:45.799481
1823  2023-10-27 11:50:45.830408
1824  2023-10-27 11:50:45.878272
1825  2023-10-27 11:50:45.924161
1826  2023-10-27 11:50:45.956068
1827  2023-10-27 11:50:46.004089
1828  2023-10-27 11:50:46.052002
1829  2023-10-27 11:50:46.083986
1830  2023-10-27 11:50:46.131967
1831  2023-10-27 11:50:46.162886
1832  2023-10-27 11:50:46.210724
1833  2023-10-27 11:50:46.257640
1834  2023-10-27 11:50:46.289552
1835  2023-10-27 11:50:46.337388
1836  2023-10-27 11:50:46.384307
1837  2023-10-27 11:50:46.414179
1838  2023-10-27 11:50:46.461054
1839  2023-10-27 11:50:46.509010
1840  2023-10-27 11:50:46.540924
1841  2023-10-27 11:50:46.588796
1842  2023-10-27 11:50:46.620903
1843  2023-10-27 11:50:46.668848
1844  2023-10-27 11:50:46.716720
1845  2023-10-27 11:50:46.748662
1846  2023-10-27 11:50:46.794544
1847  2023-10-27 11:50:46.842537
1848  2023-10-27 11:50:46.874339
1849  2023-10-27 11:50:46.922282
1850  2023-10-27 11:50:46.954196
1851  2023-10-27 11:50:47.002073
1852  2023-10-27 11:50:47.049959
1853  2023-10-27 11:50:47.081855
1854  2023-10-27 11:50:47.128694
1855  2023-10-27 11:50:47.176617
1856  2023-10-27 11:50:47.208528
1857  2023-10-27 11:50:47.255387
1858  2023-10-27 11:50:47.301234
1859  2023-10-27 11:50:47.332190
1860  2023-10-27 11:50:47.378027
1861  2023-10-27 11:50:47.425989
1862  2023-10-27 11:50:47.456848
1863  2023-10-27 11:50:47.503693
1864  2023-10-27 11:50:47.551599
1865  2023-10-27 11:50:47.583523
1866  2023-10-27 11:50:47.631458
1867  2023-10-27 11:50:47.676318
1868  2023-10-27 11:50:47.707277
1869  2023-10-27 11:50:47.755108
1870  2023-10-27 11:50:47.787055
1871  2023-10-27 11:50:47.834894
1872  2023-10-27 11:50:47.882805
1873  2023-10-27 11:50:47.914824
1874  2023-10-27 11:50:47.962656
1875  2023-10-27 11:50:48.009566
1876  2023-10-27 11:50:48.041479
1877  2023-10-27 11:50:48.087357
1878  2023-10-27 11:50:48.133235
1879  2023-10-27 11:50:48.164172
1880  2023-10-27 11:50:48.211025
1881  2023-10-27 11:50:48.256903
1882  2023-10-27 11:50:48.288823
1883  2023-10-27 11:50:48.336689
1884  2023-10-27 11:50:48.384529
1885  2023-10-27 11:50:48.416489
1886  2023-10-27 11:50:48.464363
1887  2023-10-27 11:50:48.496267
1888  2023-10-27 11:50:48.544138
1889  2023-10-27 11:50:48.591033
1890  2023-10-27 11:50:48.622922
1891  2023-10-27 11:50:48.670791
1892  2023-10-27 11:50:48.718686
1893  2023-10-27 11:50:48.750587
1894  2023-10-27 11:50:48.798465
1895  2023-10-27 11:50:48.830439
1896  2023-10-27 11:50:48.878316
1897  2023-10-27 11:50:48.924156
1898  2023-10-27 11:50:48.956070
1899  2023-10-27 11:50:49.003885
1900  2023-10-27 11:50:49.049841
1901  2023-10-27 11:50:49.081749
1902  2023-10-27 11:50:49.127594
1903  2023-10-27 11:50:49.175496
1904  2023-10-27 11:50:49.205394
1905  2023-10-27 11:50:49.253452
1906  2023-10-27 11:50:49.301334
1907  2023-10-27 11:50:49.333247
1908  2023-10-27 11:50:49.381074
1909  2023-10-27 11:50:49.413022
1910  2023-10-27 11:50:49.460893
1911  2023-10-27 11:50:49.507767
1912  2023-10-27 11:50:49.539682
1913  2023-10-27 11:50:49.587557
1914  2023-10-27 11:50:49.635436
1915  2023-10-27 11:50:49.667346
1916  2023-10-27 11:50:49.713219
1917  2023-10-27 11:50:49.745130
1918  2023-10-27 11:50:49.793006
1919  2023-10-27 11:50:49.840845
1920  2023-10-27 11:50:49.872794
1921  2023-10-27 11:50:49.920669
1922  2023-10-27 11:50:49.968539
1923  2023-10-27 11:50:50.000449
1924  2023-10-27 11:50:50.048341
1925  2023-10-27 11:50:50.080238
1926  2023-10-27 11:50:50.128108
1927  2023-10-27 11:50:50.175978
1928  2023-10-27 11:50:50.207894
1929  2023-10-27 11:50:50.255775
1930  2023-10-27 11:50:50.287683
1931  2023-10-27 11:50:50.335522
1932  2023-10-27 11:50:50.383425
1933  2023-10-27 11:50:50.415343
1934  2023-10-27 11:50:50.463181
1935  2023-10-27 11:50:50.495128
1936  2023-10-27 11:50:50.542997
1937  2023-10-27 11:50:50.591891
1938  2023-10-27 11:50:50.621831
1939  2023-10-27 11:50:50.669669
1940  2023-10-27 11:50:50.717536
1941  2023-10-27 11:50:50.748448
1942  2023-10-27 11:50:50.794329
1943  2023-10-27 11:50:50.841204
1944  2023-10-27 11:50:50.873116
1945  2023-10-27 11:50:50.920988
1946  2023-10-27 11:50:50.968860
1947  2023-10-27 11:50:51.000743
1948  2023-10-27 11:50:51.048649
1949  2023-10-27 11:50:51.080567
1950  2023-10-27 11:50:51.128402
1951  2023-10-27 11:50:51.176307
1952  2023-10-27 11:50:51.207224
1953  2023-10-27 11:50:51.255096
1954  2023-10-27 11:50:51.300974
1955  2023-10-27 11:50:51.331895
1956  2023-10-27 11:50:51.378777
1957  2023-10-27 11:50:51.426637
1958  2023-10-27 11:50:51.458691
1959  2023-10-27 11:50:51.506404
1960  2023-10-27 11:50:51.537309
1961  2023-10-27 11:50:51.584217
1962  2023-10-27 11:50:51.631092
1963  2023-10-27 11:50:51.662033
1964  2023-10-27 11:50:51.710887
1965  2023-10-27 11:50:51.758752
1966  2023-10-27 11:50:51.790671
1967  2023-10-27 11:50:51.837543
1968  2023-10-27 11:50:51.885417
1969  2023-10-27 11:50:51.917327
1970  2023-10-27 11:50:51.965197
1971  2023-10-27 11:50:51.997112
1972  2023-10-27 11:50:52.041991
1973  2023-10-27 11:50:52.089997
1974  2023-10-27 11:50:52.121912
1975  2023-10-27 11:50:52.166796
1976  2023-10-27 11:50:52.214676
1977  2023-10-27 11:50:52.259547
1978  2023-10-27 11:50:52.290460
1979  2023-10-27 11:50:52.338301
1980  2023-10-27 11:50:52.384212
1981  2023-10-27 11:50:52.415129
1982  2023-10-27 11:50:52.463008
1983  2023-10-27 11:50:52.510871
1984  2023-10-27 11:50:52.540791
1985  2023-10-27 11:50:52.586676
1986  2023-10-27 11:50:52.633511
1987  2023-10-27 11:50:52.664428
1988  2023-10-27 11:50:52.712334
1989  2023-10-27 11:50:52.760172
1990  2023-10-27 11:50:52.792129
1991  2023-10-27 11:50:52.839991
1992  2023-10-27 11:50:52.871906
1993  2023-10-27 11:50:52.917782
1994  2023-10-27 11:50:52.965659
1995  2023-10-27 11:50:52.995573
1996  2023-10-27 11:50:53.041468
1997  2023-10-27 11:50:53.089333
1998  2023-10-27 11:50:53.121242
1999  2023-10-27 11:50:53.169115
2000  2023-10-27 11:50:53.216987
2001  2023-10-27 11:50:53.246903
2002  2023-10-27 11:50:53.294778
2003  2023-10-27 11:50:53.342664
2004  2023-10-27 11:50:53.374562
2005  2023-10-27 11:50:53.421439
2006  2023-10-27 11:50:53.468357
2007  2023-10-27 11:50:53.498323
2008  2023-10-27 11:50:53.545231
2009  2023-10-27 11:50:53.593101
2010  2023-10-27 11:50:53.625021
2011  2023-10-27 11:50:53.672899
2012  2023-10-27 11:50:53.704803
2013  2023-10-27 11:50:53.752675
2014  2023-10-27 11:50:53.800515
2015  2023-10-27 11:50:53.832430
2016  2023-10-27 11:50:53.878342
2017  2023-10-27 11:50:53.925182
2018  2023-10-27 11:50:53.956130
2019  2023-10-27 11:50:54.004011
2020  2023-10-27 11:50:54.049881
2021  2023-10-27 11:50:54.081795
2022  2023-10-27 11:50:54.129699
2023  2023-10-27 11:50:54.176540
2024  2023-10-27 11:50:54.208425
2025  2023-10-27 11:50:54.256329
2026  2023-10-27 11:50:54.288246
2027  2023-10-27 11:50:54.336118
2028  2023-10-27 11:50:54.383988
2029  2023-10-27 11:50:54.415902
2030  2023-10-27 11:50:54.463796
2031  2023-10-27 11:50:54.495694
2032  2023-10-27 11:50:54.543569
2033  2023-10-27 11:50:54.591439
2034  2023-10-27 11:50:54.623348
2035  2023-10-27 11:50:54.671218
2036  2023-10-27 11:50:54.717109
2037  2023-10-27 11:50:54.749014
2038  2023-10-27 11:50:54.795894
2039  2023-10-27 11:50:54.843756
2040  2023-10-27 11:50:54.875673
2041  2023-10-27 11:50:54.923545
2042  2023-10-27 11:50:54.955457
2043  2023-10-27 11:50:55.003337
2044  2023-10-27 11:50:55.052201
2045  2023-10-27 11:50:55.084115
2046  2023-10-27 11:50:55.132001
2047  2023-10-27 11:50:55.163914
2048  2023-10-27 11:50:55.208785
2049  2023-10-27 11:50:55.256654
2050  2023-10-27 11:50:55.287550
2051  2023-10-27 11:50:55.334450
2052  2023-10-27 11:50:55.382320
2053  2023-10-27 11:50:55.414233
2054  2023-10-27 11:50:55.462080
2055  2023-10-27 11:50:55.509996
2056  2023-10-27 11:50:55.541864
2057  2023-10-27 11:50:55.589875
2058  2023-10-27 11:50:55.621752
2059  2023-10-27 11:50:55.669624
2060  2023-10-27 11:50:55.717496
2061  2023-10-27 11:50:55.748414
2062  2023-10-27 11:50:55.796339
2063  2023-10-27 11:50:55.843040
2064  2023-10-27 11:50:55.873956
2065  2023-10-27 11:50:55.920830
2066  2023-10-27 11:50:55.967706
2067  2023-10-27 11:50:55.997626
2068  2023-10-27 11:50:56.045497
2069  2023-10-27 11:50:56.092504
2070  2023-10-27 11:50:56.123290
2071  2023-10-27 11:50:56.171249
2072  2023-10-27 11:50:56.219135
2073  2023-10-27 11:50:56.249040
2074  2023-10-27 11:50:56.296881
2075  2023-10-27 11:50:56.328796
2076  2023-10-27 11:50:56.376702
2077  2023-10-27 11:50:56.424571
2078  2023-10-27 11:50:56.456484
2079  2023-10-27 11:50:56.504371
2080  2023-10-27 11:50:56.551237
2081  2023-10-27 11:50:56.582172
2082  2023-10-27 11:50:56.630068
2083  2023-10-27 11:50:56.677073
2084  2023-10-27 11:50:56.708172
2085  2023-10-27 11:50:56.756091
2086  2023-10-27 11:50:56.788039
2087  2023-10-27 11:50:56.835910
2088  2023-10-27 11:50:56.883750
2089  2023-10-27 11:50:56.915820
2090  2023-10-27 11:50:56.963536
2091  2023-10-27 11:50:56.995451
2092  2023-10-27 11:50:57.043328
2093  2023-10-27 11:50:57.091195
2094  2023-10-27 11:50:57.123109
2095  2023-10-27 11:50:57.170999
2096  2023-10-27 11:50:57.217896
2097  2023-10-27 11:50:57.248803
2098  2023-10-27 11:50:57.296676
2099  2023-10-27 11:50:57.328595
2100  2023-10-27 11:50:57.376477
2101  2023-10-27 11:50:57.424336
2102  2023-10-27 11:50:57.455258
2103  2023-10-27 11:50:57.501144
2104  2023-10-27 11:50:57.548004
2105  2023-10-27 11:50:57.579942
2106  2023-10-27 11:50:57.627857
2107  2023-10-27 11:50:57.673787
2108  2023-10-27 11:50:57.705659
2109  2023-10-27 11:50:57.751560
2110  2023-10-27 11:50:57.798443
2111  2023-10-27 11:50:57.830357
2112  2023-10-27 11:50:57.878264
2113  2023-10-27 11:50:57.926101
2114  2023-10-27 11:50:57.958016
2115  2023-10-27 11:50:58.005921
2116  2023-10-27 11:50:58.036865
2117  2023-10-27 11:50:58.083681
2118  2023-10-27 11:50:58.131554
2119  2023-10-27 11:50:58.176466
2120  2023-10-27 11:50:58.207381
2121  2023-10-27 11:50:58.255254
2122  2023-10-27 11:50:58.287166
2123  2023-10-27 11:50:58.335042
2124  2023-10-27 11:50:58.382913
2125  2023-10-27 11:50:58.414825
2126  2023-10-27 11:50:58.462700
2127  2023-10-27 11:50:58.509578
2128  2023-10-27 11:50:58.540496
2129  2023-10-27 11:50:58.588363
2130  2023-10-27 11:50:58.620279
2131  2023-10-27 11:50:58.668152
2132  2023-10-27 11:50:58.716020
2133  2023-10-27 11:50:58.747943
2134  2023-10-27 11:50:58.795830
2135  2023-10-27 11:50:58.843678
2136  2023-10-27 11:50:58.875597
2137  2023-10-27 11:50:58.923467
2138  2023-10-27 11:50:58.954384
2139  2023-10-27 11:50:59.002225
2140  2023-10-27 11:50:59.049134
2141  2023-10-27 11:50:59.081055
2142  2023-10-27 11:50:59.126891
2143  2023-10-27 11:50:59.174797
2144  2023-10-27 11:50:59.206714
2145  2023-10-27 11:50:59.253605
2146  2023-10-27 11:50:59.301456
2147  2023-10-27 11:50:59.333339
2148  2023-10-27 11:50:59.381251
2149  2023-10-27 11:50:59.413189
2150  2023-10-27 11:50:59.460001
2151  2023-10-27 11:50:59.507911
2152  2023-10-27 11:50:59.538826
2153  2023-10-27 11:50:59.584696
2154  2023-10-27 11:50:59.630575
2155  2023-10-27 11:50:59.662498
2156  2023-10-27 11:50:59.710362
2157  2023-10-27 11:50:59.756248
2158  2023-10-27 11:50:59.788153
2159  2023-10-27 11:50:59.836026
2160  2023-10-27 11:50:59.883900
2161  2023-10-27 11:50:59.915817
2162  2023-10-27 11:50:59.963654
2163  2023-10-27 11:50:59.995600
2164  2023-10-27 11:51:00.043471
2165  2023-10-27 11:51:00.091346
2166  2023-10-27 11:51:00.123260
2167  2023-10-27 11:51:00.170133
2168  2023-10-27 11:51:00.218017
2169  2023-10-27 11:51:00.248925
2170  2023-10-27 11:51:00.294769
2171  2023-10-27 11:51:00.342689
2172  2023-10-27 11:51:00.374590
2173  2023-10-27 11:51:00.421461
2174  2023-10-27 11:51:00.468158
2175  2023-10-27 11:51:00.499075
2176  2023-10-27 11:51:00.546938
2177  2023-10-27 11:51:00.578877
2178  2023-10-27 11:51:00.624932
2179  2023-10-27 11:51:00.672809
2180  2023-10-27 11:51:00.703726
2181  2023-10-27 11:51:00.751689
2182  2023-10-27 11:51:00.799546
2183  2023-10-27 11:51:00.830529
2184  2023-10-27 11:51:00.876454
2185  2023-10-27 11:51:00.923451
2186  2023-10-27 11:51:00.955376
2187  2023-10-27 11:51:01.003243
2188  2023-10-27 11:51:01.050126
2189  2023-10-27 11:51:01.080034
2190  2023-10-27 11:51:01.126876
2191  2023-10-27 11:51:01.173753
2192  2023-10-27 11:51:01.205700
2193  2023-10-27 11:51:01.253626
2194  2023-10-27 11:51:01.299503
2195  2023-10-27 11:51:01.331417
2196  2023-10-27 11:51:01.379327
2197  2023-10-27 11:51:01.427161
2198  2023-10-27 11:51:01.459076
2199  2023-10-27 11:51:01.506948
2200  2023-10-27 11:51:01.537970
2201  2023-10-27 11:51:01.584844
2202  2023-10-27 11:51:01.630722
2203  2023-10-27 11:51:01.661673
2204  2023-10-27 11:51:01.709549
2205  2023-10-27 11:51:01.757436
2206  2023-10-27 11:51:01.789511
2207  2023-10-27 11:51:01.837224
2208  2023-10-27 11:51:01.884086
2209  2023-10-27 11:51:01.914992
2210  2023-10-27 11:51:01.962870
2211  2023-10-27 11:51:02.009751
2212  2023-10-27 11:51:02.041663
2213  2023-10-27 11:51:02.089551
2214  2023-10-27 11:51:02.120448
2215  2023-10-27 11:51:02.169320
2216  2023-10-27 11:51:02.216193
2217  2023-10-27 11:51:02.249228
2218  2023-10-27 11:51:02.297100
2219  2023-10-27 11:51:02.344976
2220  2023-10-27 11:51:02.373865
2221  2023-10-27 11:51:02.419841
2222  2023-10-27 11:51:02.467838
2223  2023-10-27 11:51:02.498755
2224  2023-10-27 11:51:02.545661
2225  2023-10-27 11:51:02.593566
2226  2023-10-27 11:51:02.625481
2227  2023-10-27 11:51:02.673353
2228  2023-10-27 11:51:02.705268
2229  2023-10-27 11:51:02.753140
2230  2023-10-27 11:51:02.801012
2231  2023-10-27 11:51:02.832926
2232  2023-10-27 11:51:02.880798
2233  2023-10-27 11:51:02.912713
2234  2023-10-27 11:51:02.959588
2235  2023-10-27 11:51:03.006497
2236  2023-10-27 11:51:03.037380
2237  2023-10-27 11:51:03.085295
2238  2023-10-27 11:51:03.133176
2239  2023-10-27 11:51:03.165076
2240  2023-10-27 11:51:03.212947
2241  2023-10-27 11:51:03.259884
2242  2023-10-27 11:51:03.290022
2243  2023-10-27 11:51:03.337829
2244  2023-10-27 11:51:03.384683
2245  2023-10-27 11:51:03.417633
2246  2023-10-27 11:51:03.464287
2247  2023-10-27 11:51:03.497184
2248  2023-10-27 11:51:03.543145
2249  2023-10-27 11:51:03.591014
2250  2023-10-27 11:51:03.622945
2251  2023-10-27 11:51:03.670861
2252  2023-10-27 11:51:03.718864
2253  2023-10-27 11:51:03.748780
2254  2023-10-27 11:51:03.795613
2255  2023-10-27 11:51:03.843551
2256  2023-10-27 11:51:03.873517
2257  2023-10-27 11:51:03.920391
2258  2023-10-27 11:51:03.968263
2259  2023-10-27 11:51:04.000178
2260  2023-10-27 11:51:04.048050
2261  2023-10-27 11:51:04.092966
2262  2023-10-27 11:51:04.124885
2263  2023-10-27 11:51:04.170760
2264  2023-10-27 11:51:04.218638
2265  2023-10-27 11:51:04.250555
2266  2023-10-27 11:51:04.298380
2267  2023-10-27 11:51:04.330330
2268  2023-10-27 11:51:04.378207
2269  2023-10-27 11:51:04.426073
2270  2023-10-27 11:51:04.458005
2271  2023-10-27 11:51:04.505715
2272  2023-10-27 11:51:04.537637
2273  2023-10-27 11:51:04.585607
2274  2023-10-27 11:51:04.633488
2275  2023-10-27 11:51:04.665355
2276  2023-10-27 11:51:04.713268
2277  2023-10-27 11:51:04.745183
2278  2023-10-27 11:51:04.793046
2279  2023-10-27 11:51:04.840947
2280  2023-10-27 11:51:04.873064
2281  2023-10-27 11:51:04.918945
2282  2023-10-27 11:51:04.966804
2283  2023-10-27 11:51:04.998684
2284  2023-10-27 11:51:05.046591
2285  2023-10-27 11:51:05.091573
2286  2023-10-27 11:51:05.122422
2287  2023-10-27 11:51:05.171326
2288  2023-10-27 11:51:05.218198
2289  2023-10-27 11:51:05.249116
2290  2023-10-27 11:51:05.294993
2291  2023-10-27 11:51:05.342001
2292  2023-10-27 11:51:05.372826
2293  2023-10-27 11:51:05.420698
2294  2023-10-27 11:51:05.467572
2295  2023-10-27 11:51:05.498449
2296  2023-10-27 11:51:05.546362
2297  2023-10-27 11:51:05.578277
2298  2023-10-27 11:51:05.625157
2299  2023-10-27 11:51:05.672040
2300  2023-10-27 11:51:05.703931
2301  2023-10-27 11:51:05.752843
2302  2023-10-27 11:51:05.799684
2303  2023-10-27 11:51:05.831593
2304  2023-10-27 11:51:05.878435
2305  2023-10-27 11:51:05.927337
2306  2023-10-27 11:51:05.958297
2307  2023-10-27 11:51:06.003149
2308  2023-10-27 11:51:06.050972
2309  2023-10-27 11:51:06.081889
2310  2023-10-27 11:51:06.128764
2311  2023-10-27 11:51:06.176636
2312  2023-10-27 11:51:06.208551
2313  2023-10-27 11:51:06.256423
2314  2023-10-27 11:51:06.288337
2315  2023-10-27 11:51:06.336209
2316  2023-10-27 11:51:06.383084
2317  2023-10-27 11:51:06.413968
2318  2023-10-27 11:51:06.461041
2319  2023-10-27 11:51:06.507727
2320  2023-10-27 11:51:06.539634
2321  2023-10-27 11:51:06.587719
2322  2023-10-27 11:51:06.634590
2323  2023-10-27 11:51:06.665477
2324  2023-10-27 11:51:06.713357
2325  2023-10-27 11:51:06.745297
2326  2023-10-27 11:51:06.793171
2327  2023-10-27 11:51:06.841062
2328  2023-10-27 11:51:06.872955
2329  2023-10-27 11:51:06.920797
2330  2023-10-27 11:51:06.967709
2331  2023-10-27 11:51:06.999615
2332  2023-10-27 11:51:07.048502
2333  2023-10-27 11:51:07.079403
2334  2023-10-27 11:51:07.125281
2335  2023-10-27 11:51:07.171127
2336  2023-10-27 11:51:07.217183
2337  2023-10-27 11:51:07.249097
2338  2023-10-27 11:51:07.294975
2339  2023-10-27 11:51:07.342847
2340  2023-10-27 11:51:07.373764
2341  2023-10-27 11:51:07.421676
2342  2023-10-27 11:51:07.453596
2343  2023-10-27 11:51:07.499470
2344  2023-10-27 11:51:07.547343
2345  2023-10-27 11:51:07.578269
2346  2023-10-27 11:51:07.625127
2347  2023-10-27 11:51:07.672997
2348  2023-10-27 11:51:07.703914
2349  2023-10-27 11:51:07.750758
2350  2023-10-27 11:51:07.798681
2351  2023-10-27 11:51:07.830581
2352  2023-10-27 11:51:07.877460
2353  2023-10-27 11:51:07.924339
2354  2023-10-27 11:51:07.956252
2355  2023-10-27 11:51:08.005237
2356  2023-10-27 11:51:08.050134
2357  2023-10-27 11:51:08.082101
2358  2023-10-27 11:51:08.128975
2359  2023-10-27 11:51:08.175991
2360  2023-10-27 11:51:08.207765
2361  2023-10-27 11:51:08.255637
2362  2023-10-27 11:51:08.287588
2363  2023-10-27 11:51:08.335424
2364  2023-10-27 11:51:08.383295
2365  2023-10-27 11:51:08.414434
2366  2023-10-27 11:51:08.461205
2367  2023-10-27 11:51:08.509049
2368  2023-10-27 11:51:08.541008
2369  2023-10-27 11:51:08.588923
2370  2023-10-27 11:51:08.620829
2371  2023-10-27 11:51:08.666704
2372  2023-10-27 11:51:08.714580
2373  2023-10-27 11:51:08.746531
2374  2023-10-27 11:51:08.793516
2375  2023-10-27 11:51:08.840394
2376  2023-10-27 11:51:08.872306
2377  2023-10-27 11:51:08.920175
2378  2023-10-27 11:51:08.966101
2379  2023-10-27 11:51:08.997979
2380  2023-10-27 11:51:09.045845
2381  2023-10-27 11:51:09.092727
2382  2023-10-27 11:51:09.123638
2383  2023-10-27 11:51:09.173500
2384  2023-10-27 11:51:09.204477
2385  2023-10-27 11:51:09.252446
2386  2023-10-27 11:51:09.298288
2387  2023-10-27 11:51:09.330203
2388  2023-10-27 11:51:09.376080
2389  2023-10-27 11:51:09.423953
2390  2023-10-27 11:51:09.453911
2391  2023-10-27 11:51:09.501744
2392  2023-10-27 11:51:09.548666
2393  2023-10-27 11:51:09.579581
2394  2023-10-27 11:51:09.626454
2395  2023-10-27 11:51:09.674410
2396  2023-10-27 11:51:09.705323
2397  2023-10-27 11:51:09.752171
2398  2023-10-27 11:51:09.800079
2399  2023-10-27 11:51:09.832000
2400  2023-10-27 11:51:09.880860
2401  2023-10-27 11:51:09.911770
2402  2023-10-27 11:51:09.959651
2403  2023-10-27 11:51:10.007536
2404  2023-10-27 11:51:10.038433
2405  2023-10-27 11:51:10.085279
2406  2023-10-27 11:51:10.133151
2407  2023-10-27 11:51:10.165131
2408  2023-10-27 11:51:10.212088
2409  2023-10-27 11:51:10.259969
2410  2023-10-27 11:51:10.291869
2411  2023-10-27 11:51:10.339761
2412  2023-10-27 11:51:10.371661
2413  2023-10-27 11:51:10.419569
2414  2023-10-27 11:51:10.468498
2415  2023-10-27 11:51:10.499529
2416  2023-10-27 11:51:10.545524
2417  2023-10-27 11:51:10.590293
2418  2023-10-27 11:51:10.622209
2419  2023-10-27 11:51:10.670041
2420  2023-10-27 11:51:10.718034
2421  2023-10-27 11:51:10.747913
2422  2023-10-27 11:51:10.795868
2423  2023-10-27 11:51:10.843704
2424  2023-10-27 11:51:10.875649
2425  2023-10-27 11:51:10.923533
2426  2023-10-27 11:51:10.953455
2427  2023-10-27 11:51:11.001283
2428  2023-10-27 11:51:11.049207
2429  2023-10-27 11:51:11.081105
2430  2023-10-27 11:51:11.129064
2431  2023-10-27 11:51:11.177111
2432  2023-10-27 11:51:11.208022
2433  2023-10-27 11:51:11.255860
2434  2023-10-27 11:51:11.288773
2435  2023-10-27 11:51:11.335782
2436  2023-10-27 11:51:11.383660
2437  2023-10-27 11:51:11.414550
2438  2023-10-27 11:51:11.461451
2439  2023-10-27 11:51:11.509290
2440  2023-10-27 11:51:11.542236
2441  2023-10-27 11:51:11.590107
2442  2023-10-27 11:51:11.621047
2443  2023-10-27 11:51:11.668917
2444  2023-10-27 11:51:11.715859
2445  2023-10-27 11:51:11.746802
2446  2023-10-27 11:51:11.794679
2447  2023-10-27 11:51:11.843520
2448  2023-10-27 11:51:11.875434
2449  2023-10-27 11:51:11.921357
2450  2023-10-27 11:51:11.967284
2451  2023-10-27 11:51:11.998286
2452  2023-10-27 11:51:12.045781
2453  2023-10-27 11:51:12.093748
2454  2023-10-27 11:51:12.125726
2455  2023-10-27 11:51:12.173647
2456  2023-10-27 11:51:12.205593
2457  2023-10-27 11:51:12.253478
2458  2023-10-27 11:51:12.300546
2459  2023-10-27 11:51:12.331475
2460  2023-10-27 11:51:12.378383
2461  2023-10-27 11:51:12.425356
2462  2023-10-27 11:51:12.457257
2463  2023-10-27 11:51:12.505178
2464  2023-10-27 11:51:12.537096
2465  2023-10-27 11:51:12.584967
2466  2023-10-27 11:51:12.630931
2467  2023-10-27 11:51:12.662838
2468  2023-10-27 11:51:12.708712
2469  2023-10-27 11:51:12.755591
2470  2023-10-27 11:51:12.786638
2471  2023-10-27 11:51:12.834500
2472  2023-10-27 11:51:12.882370
2473  2023-10-27 11:51:12.914284
2474  2023-10-27 11:51:12.962241
2475  2023-10-27 11:51:13.010283
2476  2023-10-27 11:51:13.042204
2477  2023-10-27 11:51:13.090071
2478  2023-10-27 11:51:13.121990
2479  2023-10-27 11:51:13.169856
2480  2023-10-27 11:51:13.218763
2481  2023-10-27 11:51:13.250610
2482  2023-10-27 11:51:13.298595
2483  2023-10-27 11:51:13.330557
2484  2023-10-27 11:51:13.378440
2485  2023-10-27 11:51:13.426300
2486  2023-10-27 11:51:13.456187
2487  2023-10-27 11:51:13.504059
2488  2023-10-27 11:51:13.550254
2489  2023-10-27 11:51:13.581960
2490  2023-10-27 11:51:13.627838
2491  2023-10-27 11:51:13.673755
2492  2023-10-27 11:51:13.705663
2493  2023-10-27 11:51:13.753537
2494  2023-10-27 11:51:13.801373
2495  2023-10-27 11:51:13.833322
2496  2023-10-27 11:51:13.880272
2497  2023-10-27 11:51:13.926205
2498  2023-10-27 11:51:13.957120
2499  2023-10-27 11:51:14.004960
2500  2023-10-27 11:51:14.036906
2501  2023-10-27 11:51:14.084781
2502  2023-10-27 11:51:14.132650
2503  2023-10-27 11:51:14.163583
2504  2023-10-27 11:51:14.211447
2505  2023-10-27 11:51:14.258339
2506  2023-10-27 11:51:14.289245
2507  2023-10-27 11:51:14.338125
2508  2023-10-27 11:51:14.383947
2509  2023-10-27 11:51:14.417890
2510  2023-10-27 11:51:14.463734
2511  2023-10-27 11:51:14.495648
2512  2023-10-27 11:51:14.543520
2513  2023-10-27 11:51:14.589444
2514  2023-10-27 11:51:14.621347
2515  2023-10-27 11:51:14.669185
2516  2023-10-27 11:51:14.716104
2517  2023-10-27 11:51:14.748019
2518  2023-10-27 11:51:14.795876
2519  2023-10-27 11:51:14.843718
2520  2023-10-27 11:51:14.875632
2521  2023-10-27 11:51:14.923564
2522  2023-10-27 11:51:14.954537
2523  2023-10-27 11:51:15.001567
2524  2023-10-27 11:51:15.049469
2525  2023-10-27 11:51:15.080403
2526  2023-10-27 11:51:15.127265
2527  2023-10-27 11:51:15.174114
2528  2023-10-27 11:51:15.205076
2529  2023-10-27 11:51:15.252943
2530  2023-10-27 11:51:15.299810
2531  2023-10-27 11:51:15.330719
2532  2023-10-27 11:51:15.379606
2533  2023-10-27 11:51:15.426462
2534  2023-10-27 11:51:15.455369
2535  2023-10-27 11:51:15.502228
2536  2023-10-27 11:51:15.549149
2537  2023-10-27 11:51:15.581018
2538  2023-10-27 11:51:15.628918
2539  2023-10-27 11:51:15.676764
2540  2023-10-27 11:51:15.707679
2541  2023-10-27 11:51:15.753589
2542  2023-10-27 11:51:15.800431
2543  2023-10-27 11:51:15.832346
2544  2023-10-27 11:51:15.878225
2545  2023-10-27 11:51:15.925132
2546  2023-10-27 11:51:15.956047
2547  2023-10-27 11:51:16.003918
2548  2023-10-27 11:51:16.051810
2549  2023-10-27 11:51:16.084720
2550  2023-10-27 11:51:16.130585
2551  2023-10-27 11:51:16.162505
2552  2023-10-27 11:51:16.210384
2553  2023-10-27 11:51:16.258210
2554  2023-10-27 11:51:16.288173
2555  2023-10-27 11:51:16.336049
2556  2023-10-27 11:51:16.384869
2557  2023-10-27 11:51:16.414801
2558  2023-10-27 11:51:16.464702
2559  2023-10-27 11:51:16.509535
2560  2023-10-27 11:51:16.540453
2561  2023-10-27 11:51:16.588357
2562  2023-10-27 11:51:16.620272
2563  2023-10-27 11:51:16.667114
2564  2023-10-27 11:51:16.714020
2565  2023-10-27 11:51:16.745936
2566  2023-10-27 11:51:16.793811
2567  2023-10-27 11:51:16.841648
2568  2023-10-27 11:51:16.873564
2569  2023-10-27 11:51:16.920472
2570  2023-10-27 11:51:16.967347
2571  2023-10-27 11:51:16.999421
2572  2023-10-27 11:51:17.047352
2573  2023-10-27 11:51:17.079261
2574  2023-10-27 11:51:17.126128
2575  2023-10-27 11:51:17.174004
2576  2023-10-27 11:51:17.205915
2577  2023-10-27 11:51:17.253789
2578  2023-10-27 11:51:17.301586
2579  2023-10-27 11:51:17.333504
2580  2023-10-27 11:51:17.379455
2581  2023-10-27 11:51:17.426329
2582  2023-10-27 11:51:17.458257
2583  2023-10-27 11:51:17.505085
2584  2023-10-27 11:51:17.551962
2585  2023-10-27 11:51:17.583876
2586  2023-10-27 11:51:17.631748
2587  2023-10-27 11:51:17.663663
2588  2023-10-27 11:51:17.708541
2589  2023-10-27 11:51:17.754451
2590  2023-10-27 11:51:17.801436
2591  2023-10-27 11:51:17.833350
2592  2023-10-27 11:51:17.881274
2593  2023-10-27 11:51:17.927134
2594  2023-10-27 11:51:17.959012
2595  2023-10-27 11:51:18.005888
2596  2023-10-27 11:51:18.037839
2597  2023-10-27 11:51:18.085710
2598  2023-10-27 11:51:18.131594
2599  2023-10-27 11:51:18.162513
2600  2023-10-27 11:51:18.209376
2601  2023-10-27 11:51:18.257249
2602  2023-10-27 11:51:18.289232
2603  2023-10-27 11:51:18.338095
2604  2023-10-27 11:51:18.384988
2605  2023-10-27 11:51:18.417907
2606  2023-10-27 11:51:18.464789
2607  2023-10-27 11:51:18.497663
2608  2023-10-27 11:51:18.544535
2609  2023-10-27 11:51:18.591442
2610  2023-10-27 11:51:18.623365
2611  2023-10-27 11:51:18.669202
2612  2023-10-27 11:51:18.715114
2613  2023-10-27 11:51:18.746103
2614  2023-10-27 11:51:18.793018
2615  2023-10-27 11:51:18.840847
2616  2023-10-27 11:51:18.872762
2617  2023-10-27 11:51:18.920678
2618  2023-10-27 11:51:18.966666
2619  2023-10-27 11:51:18.998546
2620  2023-10-27 11:51:19.046452
2621  2023-10-27 11:51:19.078365
2622  2023-10-27 11:51:19.124379
2623  2023-10-27 11:51:19.172195
2624  2023-10-27 11:51:19.204100
2625  2023-10-27 11:51:19.251976
2626  2023-10-27 11:51:19.299876
2627  2023-10-27 11:51:19.329786
2628  2023-10-27 11:51:19.377579
2629  2023-10-27 11:51:19.425521
2630  2023-10-27 11:51:19.457516
2631  2023-10-27 11:51:19.503374
2632  2023-10-27 11:51:19.551268
2633  2023-10-27 11:51:19.583148
2634  2023-10-27 11:51:19.631053
2635  2023-10-27 11:51:19.675899
2636  2023-10-27 11:51:19.706816
2637  2023-10-27 11:51:19.754721
2638  2023-10-27 11:51:19.786657
2639  2023-10-27 11:51:19.833478
2640  2023-10-27 11:51:19.879401
2641  2023-10-27 11:51:19.926263
2642  2023-10-27 11:51:19.957179
2643  2023-10-27 11:51:20.005051
2644  2023-10-27 11:51:20.036966
2645  2023-10-27 11:51:20.085049
2646  2023-10-27 11:51:20.132739
2647  2023-10-27 11:51:20.164630
2648  2023-10-27 11:51:20.212497
2649  2023-10-27 11:51:20.260373
2650  2023-10-27 11:51:20.292286
2651  2023-10-27 11:51:20.340155
2652  2023-10-27 11:51:20.370083
2653  2023-10-27 11:51:20.417915
2654  2023-10-27 11:51:20.464834
2655  2023-10-27 11:51:20.495737
2656  2023-10-27 11:51:20.542617
2657  2023-10-27 11:51:20.590503
2658  2023-10-27 11:51:20.635334
2659  2023-10-27 11:51:20.667248
2660  2023-10-27 11:51:20.713459
2661  2023-10-27 11:51:20.758411
2662  2023-10-27 11:51:20.789294
2663  2023-10-27 11:51:20.837194
2664  2023-10-27 11:51:20.884141
2665  2023-10-27 11:51:20.916121
2666  2023-10-27 11:51:20.961983
2667  2023-10-27 11:51:21.008843
2668  2023-10-27 11:51:21.040757
2669  2023-10-27 11:51:21.088637
2670  2023-10-27 11:51:21.135467
2671  2023-10-27 11:51:21.166428
2672  2023-10-27 11:51:21.212297
2673  2023-10-27 11:51:21.259175
2674  2023-10-27 11:51:21.290125
2675  2023-10-27 11:51:21.338015
2676  2023-10-27 11:51:21.369930
2677  2023-10-27 11:51:21.417838
2678  2023-10-27 11:51:21.464676
2679  2023-10-27 11:51:21.495594
2680  2023-10-27 11:51:21.541473
2681  2023-10-27 11:51:21.588377
2682  2023-10-27 11:51:21.620294
2683  2023-10-27 11:51:21.668163
2684  2023-10-27 11:51:21.716036
2685  2023-10-27 11:51:21.747954
2686  2023-10-27 11:51:21.795833
2687  2023-10-27 11:51:21.841700
2688  2023-10-27 11:51:21.871622
2689  2023-10-27 11:51:21.919493
2690  2023-10-27 11:51:21.967369
2691  2023-10-27 11:51:21.997286
2692  2023-10-27 11:51:22.046162
2693  2023-10-27 11:51:22.091032
2694  2023-10-27 11:51:22.122948
2695  2023-10-27 11:51:22.168794
2696  2023-10-27 11:51:22.216714
2697  2023-10-27 11:51:22.248617
2698  2023-10-27 11:51:22.296453
2699  2023-10-27 11:51:22.328367
2700  2023-10-27 11:51:22.374245
2701  2023-10-27 11:51:22.422119
2702  2023-10-27 11:51:22.468037
2703  2023-10-27 11:51:22.499909
2704  2023-10-27 11:51:22.547825
2705  2023-10-27 11:51:22.579735
2706  2023-10-27 11:51:22.624614
2707  2023-10-27 11:51:22.671483
2708  2023-10-27 11:51:22.703365
2709  2023-10-27 11:51:22.751287
2710  2023-10-27 11:51:22.799110
2711  2023-10-27 11:51:22.829029
2712  2023-10-27 11:51:22.876930
2713  2023-10-27 11:51:22.925820
2714  2023-10-27 11:51:22.957728
2715  2023-10-27 11:51:23.002506
2716  2023-10-27 11:51:23.050510
2717  2023-10-27 11:51:23.082326
2718  2023-10-27 11:51:23.130165
2719  2023-10-27 11:51:23.162168
2720  2023-10-27 11:51:23.210120
2721  2023-10-27 11:51:23.257017
2722  2023-10-27 11:51:23.287935
2723  2023-10-27 11:51:23.335776
2724  2023-10-27 11:51:23.381655
2725  2023-10-27 11:51:23.413570
2726  2023-10-27 11:51:23.461440
2727  2023-10-27 11:51:23.508359
2728  2023-10-27 11:51:23.538281
2729  2023-10-27 11:51:23.585144
2730  2023-10-27 11:51:23.633015
2731  2023-10-27 11:51:23.664927
2732  2023-10-27 11:51:23.712802
2733  2023-10-27 11:51:23.759678
2734  2023-10-27 11:51:23.790606
2735  2023-10-27 11:51:23.839468
2736  2023-10-27 11:51:23.884342
2737  2023-10-27 11:51:23.916232
2738  2023-10-27 11:51:23.965103
2739  2023-10-27 11:51:23.995051
2740  2023-10-27 11:51:24.042885
2741  2023-10-27 11:51:24.088934
2742  2023-10-27 11:51:24.120850
2743  2023-10-27 11:51:24.168767
2744  2023-10-27 11:51:24.216679
2745  2023-10-27 11:51:24.247602
2746  2023-10-27 11:51:24.295553
2747  2023-10-27 11:51:24.341475
2748  2023-10-27 11:51:24.373471
2749  2023-10-27 11:51:24.421220
2750  2023-10-27 11:51:24.468127
2751  2023-10-27 11:51:24.499009
2752  2023-10-27 11:51:24.544931
2753  2023-10-27 11:51:24.591813
2754  2023-10-27 11:51:24.622680
2755  2023-10-27 11:51:24.670602
2756  2023-10-27 11:51:24.716454
2757  2023-10-27 11:51:24.748373
2758  2023-10-27 11:51:24.794646
2759  2023-10-27 11:51:24.842580
2760  2023-10-27 11:51:24.873574
2761  2023-10-27 11:51:24.919510
2762  2023-10-27 11:51:24.966351
2763  2023-10-27 11:51:24.997267
2764  2023-10-27 11:51:25.045208
2765  2023-10-27 11:51:25.093162
2766  2023-10-27 11:51:25.125079
2767  2023-10-27 11:51:25.172949
2768  2023-10-27 11:51:25.204864
2769  2023-10-27 11:51:25.252767
2770  2023-10-27 11:51:25.300608
2771  2023-10-27 11:51:25.332523
2772  2023-10-27 11:51:25.380434
2773  2023-10-27 11:51:25.412356
2774  2023-10-27 11:51:25.459185
2775  2023-10-27 11:51:25.507057
2776  2023-10-27 11:51:25.538021
2777  2023-10-27 11:51:25.584938
2778  2023-10-27 11:51:25.631808
2779  2023-10-27 11:51:25.662778
2780  2023-10-27 11:51:25.709657
2781  2023-10-27 11:51:25.755625
2782  2023-10-27 11:51:25.787548
2783  2023-10-27 11:51:25.836372
2784  2023-10-27 11:51:25.881287
2785  2023-10-27 11:51:25.913200
2786  2023-10-27 11:51:25.961067
2787  2023-10-27 11:51:26.008908
2788  2023-10-27 11:51:26.039928
2789  2023-10-27 11:51:26.085737
2790  2023-10-27 11:51:26.133575
2791  2023-10-27 11:51:26.164492
2792  2023-10-27 11:51:26.211399
2793  2023-10-27 11:51:26.259239
2794  2023-10-27 11:51:26.291154
2795  2023-10-27 11:51:26.338061
2796  2023-10-27 11:51:26.384938
2797  2023-10-27 11:51:26.416852
2798  2023-10-27 11:51:26.462740
2799  2023-10-27 11:51:26.509608
2800  2023-10-27 11:51:26.539492
2801  2023-10-27 11:51:26.587397
2802  2023-10-27 11:51:26.635263
2803  2023-10-27 11:51:26.667185
2804  2023-10-27 11:51:26.712031
2805  2023-10-27 11:51:26.758904
2806  2023-10-27 11:51:26.788825
2807  2023-10-27 11:51:26.834702
2808  2023-10-27 11:51:26.882620
2809  2023-10-27 11:51:26.915486
2810  2023-10-27 11:51:26.962407
2811  2023-10-27 11:51:27.009266
2812  2023-10-27 11:51:27.041190
2813  2023-10-27 11:51:27.089052
2814  2023-10-27 11:51:27.119981
2815  2023-10-27 11:51:27.166814
2816  2023-10-27 11:51:27.213722
2817  2023-10-27 11:51:27.245602
2818  2023-10-27 11:51:27.293511
2819  2023-10-27 11:51:27.341378
2820  2023-10-27 11:51:27.373261
2821  2023-10-27 11:51:27.421172
2822  2023-10-27 11:51:27.469048
2823  2023-10-27 11:51:27.498958
2824  2023-10-27 11:51:27.544854
2825  2023-10-27 11:51:27.592708
2826  2023-10-27 11:51:27.624629
2827  2023-10-27 11:51:27.671463
2828  2023-10-27 11:51:27.718340
2829  2023-10-27 11:51:27.750287
2830  2023-10-27 11:51:27.795164
2831  2023-10-27 11:51:27.842013
2832  2023-10-27 11:51:27.872949
2833  2023-10-27 11:51:27.919833
2834  2023-10-27 11:51:27.965719
2835  2023-10-27 11:51:27.997632
2836  2023-10-27 11:51:28.044466
2837  2023-10-27 11:51:28.092380
2838  2023-10-27 11:51:28.123295
2839  2023-10-27 11:51:28.170164
2840  2023-10-27 11:51:28.219034
2841  2023-10-27 11:51:28.250920
2842  2023-10-27 11:51:28.295794
2843  2023-10-27 11:51:28.342670
2844  2023-10-27 11:51:28.373586
2845  2023-10-27 11:51:28.420470
2846  2023-10-27 11:51:28.466371
2847  2023-10-27 11:51:28.497292
2848  2023-10-27 11:51:28.544172
2849  2023-10-27 11:51:28.590049
2850  2023-10-27 11:51:28.621956
2851  2023-10-27 11:51:28.668841
2852  2023-10-27 11:51:28.715726
2853  2023-10-27 11:51:28.747620
2854  2023-10-27 11:51:28.794496
2855  2023-10-27 11:51:28.842380
2856  2023-10-27 11:51:28.874280
2857  2023-10-27 11:51:28.920161
2858  2023-10-27 11:51:28.967997
2859  2023-10-27 11:51:28.999912
2860  2023-10-27 11:51:29.047832
2861  2023-10-27 11:51:29.079735
2862  2023-10-27 11:51:29.127607
2863  2023-10-27 11:51:29.175442
2864  2023-10-27 11:51:29.207357
2865  2023-10-27 11:51:29.255276
2866  2023-10-27 11:51:29.302104
2867  2023-10-27 11:51:29.334019
2868  2023-10-27 11:51:29.381134
2869  2023-10-27 11:51:29.411812
2870  2023-10-27 11:51:29.458719
2871  2023-10-27 11:51:29.505595
2872  2023-10-27 11:51:29.551469
2873  2023-10-27 11:51:29.582390
2874  2023-10-27 11:51:29.629271
2875  2023-10-27 11:51:29.676104
2876  2023-10-27 11:51:29.708063
2877  2023-10-27 11:51:29.755933
2878  2023-10-27 11:51:29.787845
2879  2023-10-27 11:51:29.835677
2880  2023-10-27 11:51:29.883584
2881  2023-10-27 11:51:29.915501
2882  2023-10-27 11:51:29.962369
2883  2023-10-27 11:51:30.009254
2884  2023-10-27 11:51:30.039133
2885  2023-10-27 11:51:30.086047
2886  2023-10-27 11:51:30.132883
2887  2023-10-27 11:51:30.164797
2888  2023-10-27 11:51:30.211768
2889  2023-10-27 11:51:30.258660
2890  2023-10-27 11:51:30.291603
2891  2023-10-27 11:51:30.338473
2892  2023-10-27 11:51:30.370389
2893  2023-10-27 11:51:30.419258
2894  2023-10-27 11:51:30.466137
2895  2023-10-27 11:51:30.497134
2896  2023-10-27 11:51:30.543016
2897  2023-10-27 11:51:30.589860
2898  2023-10-27 11:51:30.620806
2899  2023-10-27 11:51:30.667696
2900  2023-10-27 11:51:30.714564
2901  2023-10-27 11:51:30.745475
2902  2023-10-27 11:51:30.793352
2903  2023-10-27 11:51:30.841230
2904  2023-10-27 11:51:30.873144
2905  2023-10-27 11:51:30.921027
2906  2023-10-27 11:51:30.968881
2907  2023-10-27 11:51:31.000796
2908  2023-10-27 11:51:31.046675
2909  2023-10-27 11:51:31.093509
2910  2023-10-27 11:51:31.124426
2911  2023-10-27 11:51:31.171300
2912  2023-10-27 11:51:31.203215
2913  2023-10-27 11:51:31.251285
2914  2023-10-27 11:51:31.297086
2915  2023-10-27 11:51:31.342998
2916  2023-10-27 11:51:31.374913
2917  2023-10-27 11:51:31.420802
2918  2023-10-27 11:51:31.468629
2919  2023-10-27 11:51:31.500592
2920  2023-10-27 11:51:31.547452
2921  2023-10-27 11:51:31.578706
2922  2023-10-27 11:51:31.626657
2923  2023-10-27 11:51:31.673499
2924  2023-10-27 11:51:31.705413
2925  2023-10-27 11:51:31.753285
2926  2023-10-27 11:51:31.798166
2927  2023-10-27 11:51:31.829082
2928  2023-10-27 11:51:31.875965
2929  2023-10-27 11:51:31.922832
2930  2023-10-27 11:51:31.968709
2931  2023-10-27 11:51:32.000624
2932  2023-10-27 11:51:32.046531
2933  2023-10-27 11:51:32.093416
2934  2023-10-27 11:51:32.124461
2935  2023-10-27 11:51:32.171349
2936  2023-10-27 11:51:32.219333
2937  2023-10-27 11:51:32.250234
2938  2023-10-27 11:51:32.298192
2939  2023-10-27 11:51:32.331161
2940  2023-10-27 11:51:32.378114
2941  2023-10-27 11:51:32.424992
2942  2023-10-27 11:51:32.456884
2943  2023-10-27 11:51:32.504763
2944  2023-10-27 11:51:32.552639
2945  2023-10-27 11:51:32.582519
2946  2023-10-27 11:51:32.628549
2947  2023-10-27 11:51:32.675595
2948  2023-10-27 11:51:32.707646
2949  2023-10-27 11:51:32.753530
2950  2023-10-27 11:51:32.799407
2951  2023-10-27 11:51:32.831322
2952  2023-10-27 11:51:32.878240
2953  2023-10-27 11:51:32.925122
2954  2023-10-27 11:51:32.957020
2955  2023-10-27 11:51:33.004893
2956  2023-10-27 11:51:33.036773
2957  2023-10-27 11:51:33.083699
2958  2023-10-27 11:51:33.130567
2959  2023-10-27 11:51:33.179423
2960  2023-10-27 11:51:33.208351
2961  2023-10-27 11:51:33.253379
2962  2023-10-27 11:51:33.300204
2963  2023-10-27 11:51:33.331121
2964  2023-10-27 11:51:33.377997
2965  2023-10-27 11:51:33.423916
2966  2023-10-27 11:51:33.454827
2967  2023-10-27 11:51:33.501772
2968  2023-10-27 11:51:33.548730
2969  2023-10-27 11:51:33.579645
2970  2023-10-27 11:51:33.627523
2971  2023-10-27 11:51:33.674401
2972  2023-10-27 11:51:33.705311
2973  2023-10-27 11:51:33.752190
2974  2023-10-27 11:51:33.800064
2975  2023-10-27 11:51:33.831980
2976  2023-10-27 11:51:33.879843
2977  2023-10-27 11:51:33.927713
2978  2023-10-27 11:51:33.959646
2979  2023-10-27 11:51:34.007514
2980  2023-10-27 11:51:34.037388
2981  2023-10-27 11:51:34.082268
2982  2023-10-27 11:51:34.130141
2983  2023-10-27 11:51:34.162055
2984  2023-10-27 11:51:34.207934
2985  2023-10-27 11:51:34.255838
2986  2023-10-27 11:51:34.287757
2987  2023-10-27 11:51:34.335620
2988  2023-10-27 11:51:34.383601
2989  2023-10-27 11:51:34.415537
2990  2023-10-27 11:51:34.463409
2991  2023-10-27 11:51:34.495412
2992  2023-10-27 11:51:34.542350
2993  2023-10-27 11:51:34.587228
2994  2023-10-27 11:51:34.634098
2995  2023-10-27 11:51:34.665012
2996  2023-10-27 11:51:34.712890
2997  2023-10-27 11:51:34.759732
2998  2023-10-27 11:51:34.793669
2999  2023-10-27 11:51:34.839560
3000  2023-10-27 11:51:34.883442
3001  2023-10-27 11:51:34.914316
3002  2023-10-27 11:51:34.961189
3003  2023-10-27 11:51:35.008134
3004  2023-10-27 11:51:35.040063
3005  2023-10-27 11:51:35.087889
3006  2023-10-27 11:51:35.134764
3007  2023-10-27 11:51:35.166679
3008  2023-10-27 11:51:35.211558
3009  2023-10-27 11:51:35.258433
3010  2023-10-27 11:51:35.291345
3011  2023-10-27 11:51:35.337222
3012  2023-10-27 11:51:35.383101
3013  2023-10-27 11:51:35.415050
3014  2023-10-27 11:51:35.460892
3015  2023-10-27 11:51:35.510799
3016  2023-10-27 11:51:35.540679
3017  2023-10-27 11:51:35.586588
3018  2023-10-27 11:51:35.634428
3019  2023-10-27 11:51:35.666342
3020  2023-10-27 11:51:35.713265
3021  2023-10-27 11:51:35.759183
3022  2023-10-27 11:51:35.790092
3023  2023-10-27 11:51:35.837963
3024  2023-10-27 11:51:35.883844
3025  2023-10-27 11:51:35.915758
3026  2023-10-27 11:51:35.963625
3027  2023-10-27 11:51:35.995562
3028  2023-10-27 11:51:36.043428
3029  2023-10-27 11:51:36.091300
3030  2023-10-27 11:51:36.123207
3031  2023-10-27 11:51:36.170078
3032  2023-10-27 11:51:36.215957
3033  2023-10-27 11:51:36.248866
3034  2023-10-27 11:51:36.295743
3035  2023-10-27 11:51:36.343621
3036  2023-10-27 11:51:36.375537
3037  2023-10-27 11:51:36.423575
3038  2023-10-27 11:51:36.456487
3039  2023-10-27 11:51:36.503313
3040  2023-10-27 11:51:36.553216
3041  2023-10-27 11:51:36.582139
3042  2023-10-27 11:51:36.630023
3043  2023-10-27 11:51:36.677894
3044  2023-10-27 11:51:36.709813
3045  2023-10-27 11:51:36.755639
3046  2023-10-27 11:51:36.788585
3047  2023-10-27 11:51:36.835425
3048  2023-10-27 11:51:36.884305
3049  2023-10-27 11:51:36.915213
3050  2023-10-27 11:51:36.963083
3051  2023-10-27 11:51:36.994998
3052  2023-10-27 11:51:37.040875
3053  2023-10-27 11:51:37.088747
3054  2023-10-27 11:51:37.120662
3055  2023-10-27 11:51:37.168534
3056  2023-10-27 11:51:37.216406
3057  2023-10-27 11:51:37.248321
3058  2023-10-27 11:51:37.296238
3059  2023-10-27 11:51:37.343068
3060  2023-10-27 11:51:37.374025
3061  2023-10-27 11:51:37.421857
3062  2023-10-27 11:51:37.453808
3063  2023-10-27 11:51:37.500687
3064  2023-10-27 11:51:37.547555
3065  2023-10-27 11:51:37.579467
3066  2023-10-27 11:51:37.625157
3067  2023-10-27 11:51:37.672689
3068  2023-10-27 11:51:37.704606
3069  2023-10-27 11:51:37.753497
3070  2023-10-27 11:51:37.800342
3071  2023-10-27 11:51:37.832279
3072  2023-10-27 11:51:37.880273
3073  2023-10-27 11:51:37.912184
3074  2023-10-27 11:51:37.961006
3075  2023-10-27 11:51:38.007937
3076  2023-10-27 11:51:38.039827
3077  2023-10-27 11:51:38.086742
3078  2023-10-27 11:51:38.133662
3079  2023-10-27 11:51:38.167551
3080  2023-10-27 11:51:38.213429
3081  2023-10-27 11:51:38.245360
3082  2023-10-27 11:51:38.293232
3083  2023-10-27 11:51:38.341092
3084  2023-10-27 11:51:38.373970
3085  2023-10-27 11:51:38.418896
3086  2023-10-27 11:51:38.465723
3087  2023-10-27 11:51:38.497638
3088  2023-10-27 11:51:38.545510
3089  2023-10-27 11:51:38.593382
3090  2023-10-27 11:51:38.624299
3091  2023-10-27 11:51:38.671174
3092  2023-10-27 11:51:38.717083
3093  2023-10-27 11:51:38.748998
3094  2023-10-27 11:51:38.795888
3095  2023-10-27 11:51:38.842763
3096  2023-10-27 11:51:38.874660
3097  2023-10-27 11:51:38.922502
3098  2023-10-27 11:51:38.954466
3099  2023-10-27 11:51:39.000325
3100  2023-10-27 11:51:39.048166
3101  2023-10-27 11:51:39.080115
3102  2023-10-27 11:51:39.127993
3103  2023-10-27 11:51:39.173877
3104  2023-10-27 11:51:39.205777
3105  2023-10-27 11:51:39.254616
3106  2023-10-27 11:51:39.302541
3107  2023-10-27 11:51:39.332438
3108  2023-10-27 11:51:39.378521
3109  2023-10-27 11:51:39.424436
3110  2023-10-27 11:51:39.455354
3111  2023-10-27 11:51:39.502229
3112  2023-10-27 11:51:39.548138
3113  2023-10-27 11:51:39.580053
3114  2023-10-27 11:51:39.626987
3115  2023-10-27 11:51:39.673174
3116  2023-10-27 11:51:39.704092
3117  2023-10-27 11:51:39.752982
3118  2023-10-27 11:51:39.799845
3119  2023-10-27 11:51:39.831723
3120  2023-10-27 11:51:39.879632
3121  2023-10-27 11:51:39.911553
3122  2023-10-27 11:51:39.959426
3123  2023-10-27 11:51:40.007248
3124  2023-10-27 11:51:40.039215
3125  2023-10-27 11:51:40.086087
3126  2023-10-27 11:51:40.132912
3127  2023-10-27 11:51:40.164860
3128  2023-10-27 11:51:40.213697
3129  2023-10-27 11:51:40.260608
3130  2023-10-27 11:51:40.292520
3131  2023-10-27 11:51:40.337365
3132  2023-10-27 11:51:40.385237
3133  2023-10-27 11:51:40.417152
3134  2023-10-27 11:51:40.464075
3135  2023-10-27 11:51:40.494992
3136  2023-10-27 11:51:40.541910
3137  2023-10-27 11:51:40.588815
3138  2023-10-27 11:51:40.620741
3139  2023-10-27 11:51:40.668615
3140  2023-10-27 11:51:40.716883
3141  2023-10-27 11:51:40.748618
3142  2023-10-27 11:51:40.796491
3143  2023-10-27 11:51:40.828415
3144  2023-10-27 11:51:40.876278
3145  2023-10-27 11:51:40.924152
3146  2023-10-27 11:51:40.955069
3147  2023-10-27 11:51:41.000951
3148  2023-10-27 11:51:41.048815
3149  2023-10-27 11:51:41.078754
3150  2023-10-27 11:51:41.126730
3151  2023-10-27 11:51:41.173605
3152  2023-10-27 11:51:41.204522
3153  2023-10-27 11:51:41.252395
3154  2023-10-27 11:51:41.300267
3155  2023-10-27 11:51:41.332276
3156  2023-10-27 11:51:41.377147
3157  2023-10-27 11:51:41.424021
3158  2023-10-27 11:51:41.453943
3159  2023-10-27 11:51:41.500863
3160  2023-10-27 11:51:41.547696
3161  2023-10-27 11:51:41.579642
3162  2023-10-27 11:51:41.627605
3163  2023-10-27 11:51:41.673457
3164  2023-10-27 11:51:41.704387
3165  2023-10-27 11:51:41.752009
3166  2023-10-27 11:51:41.800017
3167  2023-10-27 11:51:41.832894
3168  2023-10-27 11:51:41.879799
3169  2023-10-27 11:51:41.925683
3170  2023-10-27 11:51:41.957608
3171  2023-10-27 11:51:42.004466
3172  2023-10-27 11:51:42.052307
3173  2023-10-27 11:51:42.084254
3174  2023-10-27 11:51:42.129136
3175  2023-10-27 11:51:42.175976
3176  2023-10-27 11:51:42.205929
3177  2023-10-27 11:51:42.252802
3178  2023-10-27 11:51:42.298681
3179  2023-10-27 11:51:42.329595
3180  2023-10-27 11:51:42.375476
3181  2023-10-27 11:51:42.423352
3182  2023-10-27 11:51:42.456270
3183  2023-10-27 11:51:42.503138
3184  2023-10-27 11:51:42.552034
3185  2023-10-27 11:51:42.582919
3186  2023-10-27 11:51:42.630812
3187  2023-10-27 11:51:42.662680
3188  2023-10-27 11:51:42.710581
3189  2023-10-27 11:51:42.758451
3190  2023-10-27 11:51:42.791408
3191  2023-10-27 11:51:42.838237
3192  2023-10-27 11:51:42.870179
3193  2023-10-27 11:51:42.915046
3194  2023-10-27 11:51:42.960878
3195  2023-10-27 11:51:43.008750
3196  2023-10-27 11:51:43.039766
3197  2023-10-27 11:51:43.086633
3198  2023-10-27 11:51:43.134567
3199  2023-10-27 11:51:43.165529
3200  2023-10-27 11:51:43.212355
3201  2023-10-27 11:51:43.260227
3202  2023-10-27 11:51:43.291144
3203  2023-10-27 11:51:43.337150
3204  2023-10-27 11:51:43.383992
3205  2023-10-27 11:51:43.415939
3206  2023-10-27 11:51:43.463887
3207  2023-10-27 11:51:43.495847
3208  2023-10-27 11:51:43.543671
3209  2023-10-27 11:51:43.591631
3210  2023-10-27 11:51:43.623451
3211  2023-10-27 11:51:43.671330
3212  2023-10-27 11:51:43.703244
3213  2023-10-27 11:51:43.751125
3214  2023-10-27 11:51:43.797960
3215  2023-10-27 11:51:43.829916
3216  2023-10-27 11:51:43.876773
3217  2023-10-27 11:51:43.922715
3218  2023-10-27 11:51:43.954640
3219  2023-10-27 11:51:44.002503
3220  2023-10-27 11:51:44.050388
3221  2023-10-27 11:51:44.082257
3222  2023-10-27 11:51:44.128250
3223  2023-10-27 11:51:44.176122
3224  2023-10-27 11:51:44.208043
3225  2023-10-27 11:51:44.254911
3226  2023-10-27 11:51:44.301827
3227  2023-10-27 11:51:44.333701
3228  2023-10-27 11:51:44.381658
3229  2023-10-27 11:51:44.413573
3230  2023-10-27 11:51:44.461418
3231  2023-10-27 11:51:44.509366
3232  2023-10-27 11:51:44.541325
3233  2023-10-27 11:51:44.589227
3234  2023-10-27 11:51:44.621309
3235  2023-10-27 11:51:44.667138
3236  2023-10-27 11:51:44.715010
3237  2023-10-27 11:51:44.746925
3238  2023-10-27 11:51:44.794873
3239  2023-10-27 11:51:44.842714
3240  2023-10-27 11:51:44.874663
3241  2023-10-27 11:51:44.922537
3242  2023-10-27 11:51:44.954446
3243  2023-10-27 11:51:45.002320
3244  2023-10-27 11:51:45.050190
3245  2023-10-27 11:51:45.081064
3246  2023-10-27 11:51:45.128886
3247  2023-10-27 11:51:45.175730
3248  2023-10-27 11:51:45.206679
3249  2023-10-27 11:51:45.253551
3250  2023-10-27 11:51:45.300397
3251  2023-10-27 11:51:45.332350
3252  2023-10-27 11:51:45.381221
3253  2023-10-27 11:51:45.428098
3254  2023-10-27 11:51:45.460014
3255  2023-10-27 11:51:45.507970
3256  2023-10-27 11:51:45.540857
3257  2023-10-27 11:51:45.588764
3258  2023-10-27 11:51:45.634633
3259  2023-10-27 11:51:45.665551
3260  2023-10-27 11:51:45.713487
3261  2023-10-27 11:51:45.761457
3262  2023-10-27 11:51:45.793489
3263  2023-10-27 11:51:45.841588
3264  2023-10-27 11:51:45.873496
3265  2023-10-27 11:51:45.919475
3266  2023-10-27 11:51:45.966421
3267  2023-10-27 11:51:45.998336
3268  2023-10-27 11:51:46.044249
3269  2023-10-27 11:51:46.091095
3270  2023-10-27 11:51:46.123041
3271  2023-10-27 11:51:46.170336
3272  2023-10-27 11:51:46.216294
3273  2023-10-27 11:51:46.248176
3274  2023-10-27 11:51:46.295051
3275  2023-10-27 11:51:46.342985
3276  2023-10-27 11:51:46.373923
3277  2023-10-27 11:51:46.419872
3278  2023-10-27 11:51:46.465764
3279  2023-10-27 11:51:46.497689
3280  2023-10-27 11:51:46.544558
3281  2023-10-27 11:51:46.590404
3282  2023-10-27 11:51:46.622319
3283  2023-10-27 11:51:46.670191
3284  2023-10-27 11:51:46.717066
3285  2023-10-27 11:51:46.748094
3286  2023-10-27 11:51:46.794228
3287  2023-10-27 11:51:46.841084
3288  2023-10-27 11:51:46.872985
3289  2023-10-27 11:51:46.920965
3290  2023-10-27 11:51:46.967840
3291  2023-10-27 11:51:46.999718
3292  2023-10-27 11:51:47.047639
3293  2023-10-27 11:51:47.079534
3294  2023-10-27 11:51:47.125413
3295  2023-10-27 11:51:47.171294
3296  2023-10-27 11:51:47.219168
3297  2023-10-27 11:51:47.251075
3298  2023-10-27 11:51:47.296963
3299  2023-10-27 11:51:47.328867
3300  2023-10-27 11:51:47.376728
3301  2023-10-27 11:51:47.424606
3302  2023-10-27 11:51:47.456486
3303  2023-10-27 11:51:47.504390
3304  2023-10-27 11:51:47.552351
3305  2023-10-27 11:51:47.584266
3306  2023-10-27 11:51:47.629221
3307  2023-10-27 11:51:47.676536
3308  2023-10-27 11:51:47.707957
3309  2023-10-27 11:51:47.755832
3310  2023-10-27 11:51:47.787817
3311  2023-10-27 11:51:47.835596
3312  2023-10-27 11:51:47.882471
3313  2023-10-27 11:51:47.913453
3314  2023-10-27 11:51:47.960755
3315  2023-10-27 11:51:48.007614
3316  2023-10-27 11:51:48.038530
3317  2023-10-27 11:51:48.086372
3318  2023-10-27 11:51:48.134275
3319  2023-10-27 11:51:48.166190
3320  2023-10-27 11:51:48.212077
3321  2023-10-27 11:51:48.259908
3322  2023-10-27 11:51:48.291856
3323  2023-10-27 11:51:48.338733
3324  2023-10-27 11:51:48.384577
3325  2023-10-27 11:51:48.416542
3326  2023-10-27 11:51:48.461402
3327  2023-10-27 11:51:48.508245
3328  2023-10-27 11:51:48.539198
3329  2023-10-27 11:51:48.586070
3330  2023-10-27 11:51:48.632946
3331  2023-10-27 11:51:48.663858
3332  2023-10-27 11:51:48.709706
3333  2023-10-27 11:51:48.756615
3334  2023-10-27 11:51:48.787498
3335  2023-10-27 11:51:48.834407
3336  2023-10-27 11:51:48.882271
3337  2023-10-27 11:51:48.914160
3338  2023-10-27 11:51:48.962058
3339  2023-10-27 11:51:49.010061
3340  2023-10-27 11:51:49.041957
3341  2023-10-27 11:51:49.089901
3342  2023-10-27 11:51:49.121912
3343  2023-10-27 11:51:49.170881
3344  2023-10-27 11:51:49.217818
3345  2023-10-27 11:51:49.247750
3346  2023-10-27 11:51:49.295621
3347  2023-10-27 11:51:49.343482
3348  2023-10-27 11:51:49.373403
3349  2023-10-27 11:51:49.420430
3350  2023-10-27 11:51:49.467512
3351  2023-10-27 11:51:49.498245
3352  2023-10-27 11:51:49.545156
3353  2023-10-27 11:51:49.590998
3354  2023-10-27 11:51:49.623001
3355  2023-10-27 11:51:49.669894
3356  2023-10-27 11:51:49.716762
3357  2023-10-27 11:51:49.748663
3358  2023-10-27 11:51:49.796533
3359  2023-10-27 11:51:49.843406
3360  2023-10-27 11:51:49.874340
3361  2023-10-27 11:51:49.922166
3362  2023-10-27 11:51:49.954164
3363  2023-10-27 11:51:50.001687
3364  2023-10-27 11:51:50.049561
3365  2023-10-27 11:51:50.081584
3366  2023-10-27 11:51:50.129367
3367  2023-10-27 11:51:50.177257
3368  2023-10-27 11:51:50.207180
3369  2023-10-27 11:51:50.255130
3370  2023-10-27 11:51:50.303054
3371  2023-10-27 11:51:50.335012
3372  2023-10-27 11:51:50.382909
3373  2023-10-27 11:51:50.412838
3374  2023-10-27 11:51:50.460708
3375  2023-10-27 11:51:50.506563
3376  2023-10-27 11:51:50.538468
3377  2023-10-27 11:51:50.586340
3378  2023-10-27 11:51:50.634213
3379  2023-10-27 11:51:50.666127
3380  2023-10-27 11:51:50.713999
3381  2023-10-27 11:51:50.745914
3382  2023-10-27 11:51:50.793818
3383  2023-10-27 11:51:50.840659
3384  2023-10-27 11:51:50.870581
3385  2023-10-27 11:51:50.917489
3386  2023-10-27 11:51:50.964331
3387  2023-10-27 11:51:50.996276
3388  2023-10-27 11:51:51.043166
3389  2023-10-27 11:51:51.090027
3390  2023-10-27 11:51:51.121959
3391  2023-10-27 11:51:51.169791
3392  2023-10-27 11:51:51.217715
3393  2023-10-27 11:51:51.249663
3394  2023-10-27 11:51:51.296535
3395  2023-10-27 11:51:51.328452
3396  2023-10-27 11:51:51.375300
3397  2023-10-27 11:51:51.422201
3398  2023-10-27 11:51:51.468138
3399  2023-10-27 11:51:51.500034
3400  2023-10-27 11:51:51.547876
3401  2023-10-27 11:51:51.579788
3402  2023-10-27 11:51:51.627734
3403  2023-10-27 11:51:51.675573
3404  2023-10-27 11:51:51.707517
3405  2023-10-27 11:51:51.755391
3406  2023-10-27 11:51:51.787310
3407  2023-10-27 11:51:51.835177
3408  2023-10-27 11:51:51.881061
3409  2023-10-27 11:51:51.912971
3410  2023-10-27 11:51:51.960844
3411  2023-10-27 11:51:52.008682
3412  2023-10-27 11:51:52.040696
3413  2023-10-27 11:51:52.086474
3414  2023-10-27 11:51:52.134381
3415  2023-10-27 11:51:52.164300
3416  2023-10-27 11:51:52.212172
3417  2023-10-27 11:51:52.260042
3418  2023-10-27 11:51:52.291966
3419  2023-10-27 11:51:52.338868
3420  2023-10-27 11:51:52.384707
3421  2023-10-27 11:51:52.414597
3422  2023-10-27 11:51:52.462501
3423  2023-10-27 11:51:52.512375
3424  2023-10-27 11:51:52.538301
3425  2023-10-27 11:51:52.584176
3426  2023-10-27 11:51:52.630059
3427  2023-10-27 11:51:52.661967
3428  2023-10-27 11:51:52.708869
3429  2023-10-27 11:51:52.755728
3430  2023-10-27 11:51:52.787655
3431  2023-10-27 11:51:52.835513
3432  2023-10-27 11:51:52.883378
3433  2023-10-27 11:51:52.915293
3434  2023-10-27 11:51:52.963165
3435  2023-10-27 11:51:53.009043
3436  2023-10-27 11:51:53.040963
3437  2023-10-27 11:51:53.087845
3438  2023-10-27 11:51:53.134706
3439  2023-10-27 11:51:53.165621
3440  2023-10-27 11:51:53.213497
3441  2023-10-27 11:51:53.262367
3442  2023-10-27 11:51:53.293280
3443  2023-10-27 11:51:53.338163
3444  2023-10-27 11:51:53.384044
3445  2023-10-27 11:51:53.415968
3446  2023-10-27 11:51:53.462828
3447  2023-10-27 11:51:53.509678
3448  2023-10-27 11:51:53.539629
3449  2023-10-27 11:51:53.587501
3450  2023-10-27 11:51:53.633376
3451  2023-10-27 11:51:53.665289
3452  2023-10-27 11:51:53.713159
3453  2023-10-27 11:51:53.745078
3454  2023-10-27 11:51:53.792949
3455  2023-10-27 11:51:53.840814
3456  2023-10-27 11:51:53.871732
3457  2023-10-27 11:51:53.917623
3458  2023-10-27 11:51:53.965509
3459  2023-10-27 11:51:53.997408
3460  2023-10-27 11:51:54.045270
3461  2023-10-27 11:51:54.091156
3462  2023-10-27 11:51:54.123030
3463  2023-10-27 11:51:54.171065
3464  2023-10-27 11:51:54.217820
3465  2023-10-27 11:51:54.248727
3466  2023-10-27 11:51:54.296604
3467  2023-10-27 11:51:54.328519
3468  2023-10-27 11:51:54.375392
3469  2023-10-27 11:51:54.422230
3470  2023-10-27 11:51:54.454176
3471  2023-10-27 11:51:54.502049
3472  2023-10-27 11:51:54.548923
3473  2023-10-27 11:51:54.579842
3474  2023-10-27 11:51:54.627744
3475  2023-10-27 11:51:54.675584
3476  2023-10-27 11:51:54.706533
3477  2023-10-27 11:51:54.755409
3478  2023-10-27 11:51:54.801281
3479  2023-10-27 11:51:54.833195
3480  2023-10-27 11:51:54.881065
3481  2023-10-27 11:51:54.911954
3482  2023-10-27 11:51:54.958858
3483  2023-10-27 11:51:55.006748
3484  2023-10-27 11:51:55.038731
3485  2023-10-27 11:51:55.085505
3486  2023-10-27 11:51:55.132414
3487  2023-10-27 11:51:55.165337
3488  2023-10-27 11:51:55.212190
3489  2023-10-27 11:51:55.257146
3490  2023-10-27 11:51:55.288056
3491  2023-10-27 11:51:55.335930
3492  2023-10-27 11:51:55.383800
3493  2023-10-27 11:51:55.415714
3494  2023-10-27 11:51:55.463591
3495  2023-10-27 11:51:55.495501
3496  2023-10-27 11:51:55.542344
3497  2023-10-27 11:51:55.589246
3498  2023-10-27 11:51:55.620139
3499  2023-10-27 11:51:55.667053
3500  2023-10-27 11:51:55.712921
3501  2023-10-27 11:51:55.759798
3502  2023-10-27 11:51:55.790727
3503  2023-10-27 11:51:55.838712
3504  2023-10-27 11:51:55.870513
3505  2023-10-27 11:51:55.918381
3506  2023-10-27 11:51:55.966255
3507  2023-10-27 11:51:56.000155
3508  2023-10-27 11:51:56.045998
3509  2023-10-27 11:51:56.092911
3510  2023-10-27 11:51:56.123835
3511  2023-10-27 11:51:56.171700
3512  2023-10-27 11:51:56.220571
3513  2023-10-27 11:51:56.252489
3514  2023-10-27 11:51:56.300359
3515  2023-10-27 11:51:56.332273
3516  2023-10-27 11:51:56.380142
3517  2023-10-27 11:51:56.428009
3518  2023-10-27 11:51:56.457930
3519  2023-10-27 11:51:56.504802
3520  2023-10-27 11:51:56.551680
3521  2023-10-27 11:51:56.581567
3522  2023-10-27 11:51:56.628484
3523  2023-10-27 11:51:56.674467
3524  2023-10-27 11:51:56.706265
3525  2023-10-27 11:51:56.752147
3526  2023-10-27 11:51:56.800016
3527  2023-10-27 11:51:56.830901
3528  2023-10-27 11:51:56.878841
3529  2023-10-27 11:51:56.925746
3530  2023-10-27 11:51:56.957634
3531  2023-10-27 11:51:57.003508
3532  2023-10-27 11:51:57.051380
3533  2023-10-27 11:51:57.083329
3534  2023-10-27 11:51:57.129208
3535  2023-10-27 11:51:57.177073
3536  2023-10-27 11:51:57.208991
3537  2023-10-27 11:51:57.256830
3538  2023-10-27 11:51:57.288748
3539  2023-10-27 11:51:57.336660
3540  2023-10-27 11:51:57.382494
3541  2023-10-27 11:51:57.414446
3542  2023-10-27 11:51:57.461283
3543  2023-10-27 11:51:57.509160
3544  2023-10-27 11:51:57.541107
3545  2023-10-27 11:51:57.587985
3546  2023-10-27 11:51:57.634858
3547  2023-10-27 11:51:57.664768
3548  2023-10-27 11:51:57.712648
3549  2023-10-27 11:51:57.759524
3550  2023-10-27 11:51:57.790404
3551  2023-10-27 11:51:57.838314
3552  2023-10-27 11:51:57.870205
3553  2023-10-27 11:51:57.916149
3554  2023-10-27 11:51:57.964026
3555  2023-10-27 11:51:57.995941
3556  2023-10-27 11:51:58.043803
3557  2023-10-27 11:51:58.093679
3558  2023-10-27 11:51:58.123604
3559  2023-10-27 11:51:58.173479
3560  2023-10-27 11:51:58.219348
3561  2023-10-27 11:51:58.251266
