
1  2023-12-05 10:44:40.128182
2  2023-12-05 10:44:40.160095
3  2023-12-05 10:44:40.207971
4  2023-12-05 10:44:40.239886
5  2023-12-05 10:44:40.271801
6  2023-12-05 10:44:40.303820
7  2023-12-05 10:44:40.336781
8  2023-12-05 10:44:40.368678
9  2023-12-05 10:44:40.400595
10  2023-12-05 10:44:40.432476
11  2023-12-05 10:44:40.464421
12  2023-12-05 10:44:40.496305
13  2023-12-05 10:44:40.528269
14  2023-12-05 10:44:40.576140
15  2023-12-05 10:44:40.608190
16  2023-12-05 10:44:40.640228
17  2023-12-05 10:44:40.672112
18  2023-12-05 10:44:40.704026
19  2023-12-05 10:44:40.735941
20  2023-12-05 10:44:40.767856
21  2023-12-05 10:44:40.800768
22  2023-12-05 10:44:40.832683
23  2023-12-05 10:44:40.864597
24  2023-12-05 10:44:40.896512
25  2023-12-05 10:44:40.928427
26  2023-12-05 10:44:40.976298
27  2023-12-05 10:44:41.008245
28  2023-12-05 10:44:41.040127
29  2023-12-05 10:44:41.072042
30  2023-12-05 10:44:41.103987
31  2023-12-05 10:44:41.135907
32  2023-12-05 10:44:41.168785
33  2023-12-05 10:44:41.200698
34  2023-12-05 10:44:41.232614
35  2023-12-05 10:44:41.264527
36  2023-12-05 10:44:41.296442
37  2023-12-05 10:44:41.328372
38  2023-12-05 10:44:41.376243
39  2023-12-05 10:44:41.408143
40  2023-12-05 10:44:41.440057
41  2023-12-05 10:44:41.471989
42  2023-12-05 10:44:41.503904
43  2023-12-05 10:44:41.536816
44  2023-12-05 10:44:41.568731
45  2023-12-05 10:44:41.600730
46  2023-12-05 10:44:41.632693
47  2023-12-05 10:44:41.664608
48  2023-12-05 10:44:41.696599
49  2023-12-05 10:44:41.728480
50  2023-12-05 10:44:41.776467
51  2023-12-05 10:44:41.808351
52  2023-12-05 10:44:41.840265
53  2023-12-05 10:44:41.872220
54  2023-12-05 10:44:41.904135
55  2023-12-05 10:44:41.936055
56  2023-12-05 10:44:41.968962
57  2023-12-05 10:44:42.000876
58  2023-12-05 10:44:42.032799
59  2023-12-05 10:44:42.064623
60  2023-12-05 10:44:42.096537
61  2023-12-05 10:44:42.128452
62  2023-12-05 10:44:42.176324
63  2023-12-05 10:44:42.208250
64  2023-12-05 10:44:42.240153
65  2023-12-05 10:44:42.272067
66  2023-12-05 10:44:42.304098
67  2023-12-05 10:44:42.336103
68  2023-12-05 10:44:42.368018
69  2023-12-05 10:44:42.400930
70  2023-12-05 10:44:42.431890
71  2023-12-05 10:44:42.464792
72  2023-12-05 10:44:42.496705
73  2023-12-05 10:44:42.528638
74  2023-12-05 10:44:42.576531
75  2023-12-05 10:44:42.608172
76  2023-12-05 10:44:42.640140
77  2023-12-05 10:44:42.672060
78  2023-12-05 10:44:42.703916
79  2023-12-05 10:44:42.736861
80  2023-12-05 10:44:42.767849
81  2023-12-05 10:44:42.800796
82  2023-12-05 10:44:42.832676
83  2023-12-05 10:44:42.864590
84  2023-12-05 10:44:42.896516
85  2023-12-05 10:44:42.928420
86  2023-12-05 10:44:42.976292
87  2023-12-05 10:44:43.008206
88  2023-12-05 10:44:43.040169
89  2023-12-05 10:44:43.072086
90  2023-12-05 10:44:43.103981
91  2023-12-05 10:44:43.135901
92  2023-12-05 10:44:43.168777
93  2023-12-05 10:44:43.200708
94  2023-12-05 10:44:43.232640
95  2023-12-05 10:44:43.264521
96  2023-12-05 10:44:43.296435
97  2023-12-05 10:44:43.328350
98  2023-12-05 10:44:43.376277
99  2023-12-05 10:44:43.408289
100  2023-12-05 10:44:43.440102
101  2023-12-05 10:44:43.472996
102  2023-12-05 10:44:43.504878
103  2023-12-05 10:44:43.536898
104  2023-12-05 10:44:43.568877
105  2023-12-05 10:44:43.600792
106  2023-12-05 10:44:43.632659
107  2023-12-05 10:44:43.664574
108  2023-12-05 10:44:43.696488
109  2023-12-05 10:44:43.728438
110  2023-12-05 10:44:43.776301
111  2023-12-05 10:44:43.808226
112  2023-12-05 10:44:43.840105
113  2023-12-05 10:44:43.872019
114  2023-12-05 10:44:43.903933
115  2023-12-05 10:44:43.935848
116  2023-12-05 10:44:43.967798
117  2023-12-05 10:44:44.000712
118  2023-12-05 10:44:44.032755
119  2023-12-05 10:44:44.064632
120  2023-12-05 10:44:44.096587
121  2023-12-05 10:44:44.128461
122  2023-12-05 10:44:44.176364
123  2023-12-05 10:44:44.208281
124  2023-12-05 10:44:44.240197
125  2023-12-05 10:44:44.272077
126  2023-12-05 10:44:44.304022
127  2023-12-05 10:44:44.335906
128  2023-12-05 10:44:44.367851
129  2023-12-05 10:44:44.399775
130  2023-12-05 10:44:44.432685
131  2023-12-05 10:44:44.464562
132  2023-12-05 10:44:44.496476
133  2023-12-05 10:44:44.544349
134  2023-12-05 10:44:44.576263
135  2023-12-05 10:44:44.608178
136  2023-12-05 10:44:44.640092
137  2023-12-05 10:44:44.672041
138  2023-12-05 10:44:44.703955
139  2023-12-05 10:44:44.735836
140  2023-12-05 10:44:44.768748
141  2023-12-05 10:44:44.800702
142  2023-12-05 10:44:44.832608
143  2023-12-05 10:44:44.864492
144  2023-12-05 10:44:44.896438
145  2023-12-05 10:44:44.944279
146  2023-12-05 10:44:44.976193
147  2023-12-05 10:44:45.008108
148  2023-12-05 10:44:45.040003
149  2023-12-05 10:44:45.071918
150  2023-12-05 10:44:45.103878
151  2023-12-05 10:44:45.135792
152  2023-12-05 10:44:45.168743
153  2023-12-05 10:44:45.200619
154  2023-12-05 10:44:45.232522
155  2023-12-05 10:44:45.264558
156  2023-12-05 10:44:45.296438
157  2023-12-05 10:44:45.344349
158  2023-12-05 10:44:45.376236
159  2023-12-05 10:44:45.408174
160  2023-12-05 10:44:45.440104
161  2023-12-05 10:44:45.472967
162  2023-12-05 10:44:45.504914
163  2023-12-05 10:44:45.536795
164  2023-12-05 10:44:45.568742
165  2023-12-05 10:44:45.600656
166  2023-12-05 10:44:45.632465
167  2023-12-05 10:44:45.664421
168  2023-12-05 10:44:45.696369
169  2023-12-05 10:44:45.744207
170  2023-12-05 10:44:45.776122
171  2023-12-05 10:44:45.808036
172  2023-12-05 10:44:45.840978
173  2023-12-05 10:44:45.871952
174  2023-12-05 10:44:45.904900
175  2023-12-05 10:44:45.935864
176  2023-12-05 10:44:45.967831
177  2023-12-05 10:44:46.000712
178  2023-12-05 10:44:46.032821
179  2023-12-05 10:44:46.064745
180  2023-12-05 10:44:46.096670
181  2023-12-05 10:44:46.144521
182  2023-12-05 10:44:46.176478
183  2023-12-05 10:44:46.207937
184  2023-12-05 10:44:46.239890
185  2023-12-05 10:44:46.271802
186  2023-12-05 10:44:46.304716
187  2023-12-05 10:44:46.336593
188  2023-12-05 10:44:46.368537
189  2023-12-05 10:44:46.400471
190  2023-12-05 10:44:46.432480
191  2023-12-05 10:44:46.464363
192  2023-12-05 10:44:46.496277
193  2023-12-05 10:44:46.544149
194  2023-12-05 10:44:46.576146
195  2023-12-05 10:44:46.608020
196  2023-12-05 10:44:46.639935
197  2023-12-05 10:44:46.671879
198  2023-12-05 10:44:46.704775
199  2023-12-05 10:44:46.736721
200  2023-12-05 10:44:46.768616
201  2023-12-05 10:44:46.800537
202  2023-12-05 10:44:46.832459
203  2023-12-05 10:44:46.864334
204  2023-12-05 10:44:46.896250
205  2023-12-05 10:44:46.944123
206  2023-12-05 10:44:46.976076
207  2023-12-05 10:44:47.007986
208  2023-12-05 10:44:47.039952
209  2023-12-05 10:44:47.071867
210  2023-12-05 10:44:47.104758
211  2023-12-05 10:44:47.136642
212  2023-12-05 10:44:47.168556
213  2023-12-05 10:44:47.200506
214  2023-12-05 10:44:47.232592
215  2023-12-05 10:44:47.264336
216  2023-12-05 10:44:47.296215
217  2023-12-05 10:44:47.344133
218  2023-12-05 10:44:47.377039
219  2023-12-05 10:44:47.407964
220  2023-12-05 10:44:47.440936
221  2023-12-05 10:44:47.472966
222  2023-12-05 10:44:47.504837
223  2023-12-05 10:44:47.536750
224  2023-12-05 10:44:47.568665
225  2023-12-05 10:44:47.600771
226  2023-12-05 10:44:47.632681
227  2023-12-05 10:44:47.664594
228  2023-12-05 10:44:47.696569
229  2023-12-05 10:44:47.744483
230  2023-12-05 10:44:47.776367
231  2023-12-05 10:44:47.808284
232  2023-12-05 10:44:47.840197
233  2023-12-05 10:44:47.872142
234  2023-12-05 10:44:47.904059
235  2023-12-05 10:44:47.935940
236  2023-12-05 10:44:47.967897
237  2023-12-05 10:44:47.999806
238  2023-12-05 10:44:48.032732
239  2023-12-05 10:44:48.064650
240  2023-12-05 10:44:48.112468
241  2023-12-05 10:44:48.144415
242  2023-12-05 10:44:48.176328
243  2023-12-05 10:44:48.208262
244  2023-12-05 10:44:48.240158
245  2023-12-05 10:44:48.272075
246  2023-12-05 10:44:48.304024
247  2023-12-05 10:44:48.335935
248  2023-12-05 10:44:48.367902
249  2023-12-05 10:44:48.399864
250  2023-12-05 10:44:48.431877
251  2023-12-05 10:44:48.463807
252  2023-12-05 10:44:48.512656
253  2023-12-05 10:44:48.544572
254  2023-12-05 10:44:48.576455
255  2023-12-05 10:44:48.608460
256  2023-12-05 10:44:48.640405
257  2023-12-05 10:44:48.672317
258  2023-12-05 10:44:48.704238
259  2023-12-05 10:44:48.736145
260  2023-12-05 10:44:48.768062
261  2023-12-05 10:44:48.800033
262  2023-12-05 10:44:48.832004
263  2023-12-05 10:44:48.863868
264  2023-12-05 10:44:48.911776
265  2023-12-05 10:44:48.944698
266  2023-12-05 10:44:48.976602
267  2023-12-05 10:44:49.008517
268  2023-12-05 10:44:49.040431
269  2023-12-05 10:44:49.072347
270  2023-12-05 10:44:49.104214
271  2023-12-05 10:44:49.136093
272  2023-12-05 10:44:49.168108
273  2023-12-05 10:44:49.200084
274  2023-12-05 10:44:49.231969
275  2023-12-05 10:44:49.263923
276  2023-12-05 10:44:49.311862
277  2023-12-05 10:44:49.343869
278  2023-12-05 10:44:49.375778
279  2023-12-05 10:44:49.408652
280  2023-12-05 10:44:49.440692
281  2023-12-05 10:44:49.472605
282  2023-12-05 10:44:49.504553
283  2023-12-05 10:44:49.536434
284  2023-12-05 10:44:49.568348
285  2023-12-05 10:44:49.600392
286  2023-12-05 10:44:49.632338
287  2023-12-05 10:44:49.664254
288  2023-12-05 10:44:49.713099
289  2023-12-05 10:44:49.744044
290  2023-12-05 10:44:49.775923
291  2023-12-05 10:44:49.808878
292  2023-12-05 10:44:49.839799
293  2023-12-05 10:44:49.871798
294  2023-12-05 10:44:49.904724
295  2023-12-05 10:44:49.936686
296  2023-12-05 10:44:49.968601
297  2023-12-05 10:44:50.000557
298  2023-12-05 10:44:50.032430
299  2023-12-05 10:44:50.064493
300  2023-12-05 10:44:50.112340
301  2023-12-05 10:44:50.144290
302  2023-12-05 10:44:50.176200
303  2023-12-05 10:44:50.208138
304  2023-12-05 10:44:50.240045
305  2023-12-05 10:44:50.271948
306  2023-12-05 10:44:50.303995
307  2023-12-05 10:44:50.335989
308  2023-12-05 10:44:50.367894
309  2023-12-05 10:44:50.399771
310  2023-12-05 10:44:50.432773
311  2023-12-05 10:44:50.464729
312  2023-12-05 10:44:50.512719
313  2023-12-05 10:44:50.544696
314  2023-12-05 10:44:50.576600
315  2023-12-05 10:44:50.608582
316  2023-12-05 10:44:50.640504
317  2023-12-05 10:44:50.672402
318  2023-12-05 10:44:50.704317
319  2023-12-05 10:44:50.736201
320  2023-12-05 10:44:50.768152
321  2023-12-05 10:44:50.800182
322  2023-12-05 10:44:50.832111
323  2023-12-05 10:44:50.864016
324  2023-12-05 10:44:50.911887
325  2023-12-05 10:44:50.943803
326  2023-12-05 10:44:50.976727
327  2023-12-05 10:44:51.008740
328  2023-12-05 10:44:51.040604
329  2023-12-05 10:44:51.072519
330  2023-12-05 10:44:51.104466
331  2023-12-05 10:44:51.136290
332  2023-12-05 10:44:51.168257
333  2023-12-05 10:44:51.200179
334  2023-12-05 10:44:51.232137
335  2023-12-05 10:44:51.264035
336  2023-12-05 10:44:51.311923
337  2023-12-05 10:44:51.343841
338  2023-12-05 10:44:51.376738
339  2023-12-05 10:44:51.408614
340  2023-12-05 10:44:51.440529
341  2023-12-05 10:44:51.472474
342  2023-12-05 10:44:51.504389
343  2023-12-05 10:44:51.536303
344  2023-12-05 10:44:51.568192
345  2023-12-05 10:44:51.600190
346  2023-12-05 10:44:51.632137
347  2023-12-05 10:44:51.664054
348  2023-12-05 10:44:51.711934
349  2023-12-05 10:44:51.743841
350  2023-12-05 10:44:51.776748
351  2023-12-05 10:44:51.808704
352  2023-12-05 10:44:51.840619
353  2023-12-05 10:44:51.872534
354  2023-12-05 10:44:51.904448
355  2023-12-05 10:44:51.936363
356  2023-12-05 10:44:51.968277
357  2023-12-05 10:44:52.000192
358  2023-12-05 10:44:52.033104
359  2023-12-05 10:44:52.080018
360  2023-12-05 10:44:52.112042
361  2023-12-05 10:44:52.143991
362  2023-12-05 10:44:52.176870
363  2023-12-05 10:44:52.208882
364  2023-12-05 10:44:52.239796
365  2023-12-05 10:44:52.272710
366  2023-12-05 10:44:52.304623
367  2023-12-05 10:44:52.336572
368  2023-12-05 10:44:52.368452
369  2023-12-05 10:44:52.400494
370  2023-12-05 10:44:52.432409
371  2023-12-05 10:44:52.480282
372  2023-12-05 10:44:52.512197
373  2023-12-05 10:44:52.544218
374  2023-12-05 10:44:52.576096
375  2023-12-05 10:44:52.608010
376  2023-12-05 10:44:52.640957
377  2023-12-05 10:44:52.672853
378  2023-12-05 10:44:52.704751
379  2023-12-05 10:44:52.736513
380  2023-12-05 10:44:52.768427
381  2023-12-05 10:44:52.800342
382  2023-12-05 10:44:52.832208
383  2023-12-05 10:44:52.880179
384  2023-12-05 10:44:52.912138
385  2023-12-05 10:44:52.944085
386  2023-12-05 10:44:52.976195
387  2023-12-05 10:44:53.008119
388  2023-12-05 10:44:53.040019
389  2023-12-05 10:44:53.072044
390  2023-12-05 10:44:53.103959
391  2023-12-05 10:44:53.135913
392  2023-12-05 10:44:53.168786
393  2023-12-05 10:44:53.200700
394  2023-12-05 10:44:53.232615
395  2023-12-05 10:44:53.280487
396  2023-12-05 10:44:53.312401
397  2023-12-05 10:44:53.344350
398  2023-12-05 10:44:53.376231
399  2023-12-05 10:44:53.408145
400  2023-12-05 10:44:53.440060
401  2023-12-05 10:44:53.472007
402  2023-12-05 10:44:53.503889
403  2023-12-05 10:44:53.535804
404  2023-12-05 10:44:53.567719
405  2023-12-05 10:44:53.600662
406  2023-12-05 10:44:53.632580
407  2023-12-05 10:44:53.680458
408  2023-12-05 10:44:53.712332
409  2023-12-05 10:44:53.744246
410  2023-12-05 10:44:53.776161
411  2023-12-05 10:44:53.808137
412  2023-12-05 10:44:53.839990
413  2023-12-05 10:44:53.871905
414  2023-12-05 10:44:53.903819
415  2023-12-05 10:44:53.936774
416  2023-12-05 10:44:53.968742
417  2023-12-05 10:44:54.000657
418  2023-12-05 10:44:54.032571
419  2023-12-05 10:44:54.080444
420  2023-12-05 10:44:54.112392
421  2023-12-05 10:44:54.144313
422  2023-12-05 10:44:54.176187
423  2023-12-05 10:44:54.208102
424  2023-12-05 10:44:54.240016
425  2023-12-05 10:44:54.271931
426  2023-12-05 10:44:54.304008
427  2023-12-05 10:44:54.335889
428  2023-12-05 10:44:54.367803
429  2023-12-05 10:44:54.400715
430  2023-12-05 10:44:54.432748
431  2023-12-05 10:44:54.480620
432  2023-12-05 10:44:54.512565
433  2023-12-05 10:44:54.544449
434  2023-12-05 10:44:54.576364
435  2023-12-05 10:44:54.608278
436  2023-12-05 10:44:54.640193
437  2023-12-05 10:44:54.672107
438  2023-12-05 10:44:54.704022
439  2023-12-05 10:44:54.735937
440  2023-12-05 10:44:54.767851
441  2023-12-05 10:44:54.799766
442  2023-12-05 10:44:54.832694
443  2023-12-05 10:44:54.880690
444  2023-12-05 10:44:54.912730
445  2023-12-05 10:44:54.944648
446  2023-12-05 10:44:54.976709
447  2023-12-05 10:44:55.008650
448  2023-12-05 10:44:55.040567
449  2023-12-05 10:44:55.072480
450  2023-12-05 10:44:55.104395
451  2023-12-05 10:44:55.136309
452  2023-12-05 10:44:55.168314
453  2023-12-05 10:44:55.200234
454  2023-12-05 10:44:55.232143
455  2023-12-05 10:44:55.280049
456  2023-12-05 10:44:55.311960
457  2023-12-05 10:44:55.344905
458  2023-12-05 10:44:55.376892
459  2023-12-05 10:44:55.407946
460  2023-12-05 10:44:55.439860
461  2023-12-05 10:44:55.472145
462  2023-12-05 10:44:55.504199
463  2023-12-05 10:44:55.536152
464  2023-12-05 10:44:55.568060
465  2023-12-05 10:44:55.599989
466  2023-12-05 10:44:55.647915
467  2023-12-05 10:44:55.680775
468  2023-12-05 10:44:55.712724
469  2023-12-05 10:44:55.744602
470  2023-12-05 10:44:55.776517
471  2023-12-05 10:44:55.808523
472  2023-12-05 10:44:55.840483
473  2023-12-05 10:44:55.872364
474  2023-12-05 10:44:55.904278
475  2023-12-05 10:44:55.936193
476  2023-12-05 10:44:55.968145
477  2023-12-05 10:44:56.000022
478  2023-12-05 10:44:56.047925
479  2023-12-05 10:44:56.079846
480  2023-12-05 10:44:56.112721
481  2023-12-05 10:44:56.144636
482  2023-12-05 10:44:56.176550
483  2023-12-05 10:44:56.208465
484  2023-12-05 10:44:56.240379
485  2023-12-05 10:44:56.272294
486  2023-12-05 10:44:56.304213
487  2023-12-05 10:44:56.336123
488  2023-12-05 10:44:56.368038
489  2023-12-05 10:44:56.399952
490  2023-12-05 10:44:56.447824
491  2023-12-05 10:44:56.480736
492  2023-12-05 10:44:56.512697
493  2023-12-05 10:44:56.544566
494  2023-12-05 10:44:56.576480
495  2023-12-05 10:44:56.608395
496  2023-12-05 10:44:56.640340
497  2023-12-05 10:44:56.672224
498  2023-12-05 10:44:56.704138
499  2023-12-05 10:44:56.736053
500  2023-12-05 10:44:56.768002
501  2023-12-05 10:44:56.799915
502  2023-12-05 10:44:56.847788
503  2023-12-05 10:44:56.880675
504  2023-12-05 10:44:56.912581
505  2023-12-05 10:44:56.944496
506  2023-12-05 10:44:56.976410
507  2023-12-05 10:44:57.008448
508  2023-12-05 10:44:57.040498
509  2023-12-05 10:44:57.072413
510  2023-12-05 10:44:57.104327
511  2023-12-05 10:44:57.136242
512  2023-12-05 10:44:57.168156
513  2023-12-05 10:44:57.200071
514  2023-12-05 10:44:57.247943
515  2023-12-05 10:44:57.280855
516  2023-12-05 10:44:57.311772
517  2023-12-05 10:44:57.344684
518  2023-12-05 10:44:57.376599
519  2023-12-05 10:44:57.408513
520  2023-12-05 10:44:57.440428
521  2023-12-05 10:44:57.472343
522  2023-12-05 10:44:57.504257
523  2023-12-05 10:44:57.536292
524  2023-12-05 10:44:57.568206
525  2023-12-05 10:44:57.600264
526  2023-12-05 10:44:57.648157
527  2023-12-05 10:44:57.680072
528  2023-12-05 10:44:57.713019
529  2023-12-05 10:44:57.744899
530  2023-12-05 10:44:57.775894
531  2023-12-05 10:44:57.808807
532  2023-12-05 10:44:57.840756
533  2023-12-05 10:44:57.872635
534  2023-12-05 10:44:57.904550
535  2023-12-05 10:44:57.936465
536  2023-12-05 10:44:57.968412
537  2023-12-05 10:44:58.000294
538  2023-12-05 10:44:58.048211
539  2023-12-05 10:44:58.080081
540  2023-12-05 10:44:58.111995
541  2023-12-05 10:44:58.143946
542  2023-12-05 10:44:58.175859
543  2023-12-05 10:44:58.207739
544  2023-12-05 10:44:58.240651
545  2023-12-05 10:44:58.272565
546  2023-12-05 10:44:58.304511
547  2023-12-05 10:44:58.336395
548  2023-12-05 10:44:58.368309
549  2023-12-05 10:44:58.400224
550  2023-12-05 10:44:58.448096
551  2023-12-05 10:44:58.480049
552  2023-12-05 10:44:58.511978
553  2023-12-05 10:44:58.543875
554  2023-12-05 10:44:58.576752
555  2023-12-05 10:44:58.608666
556  2023-12-05 10:44:58.640581
557  2023-12-05 10:44:58.672496
558  2023-12-05 10:44:58.704410
559  2023-12-05 10:44:58.736325
560  2023-12-05 10:44:58.768239
561  2023-12-05 10:44:58.800154
562  2023-12-05 10:44:58.848026
563  2023-12-05 10:44:58.879941
564  2023-12-05 10:44:58.912853
565  2023-12-05 10:44:58.943813
566  2023-12-05 10:44:58.976682
567  2023-12-05 10:44:59.008597
568  2023-12-05 10:44:59.040511
569  2023-12-05 10:44:59.072426
570  2023-12-05 10:44:59.104340
571  2023-12-05 10:44:59.136255
572  2023-12-05 10:44:59.168173
573  2023-12-05 10:44:59.200084
574  2023-12-05 10:44:59.248954
575  2023-12-05 10:44:59.279871
576  2023-12-05 10:44:59.312783
577  2023-12-05 10:44:59.344698
578  2023-12-05 10:44:59.376613
579  2023-12-05 10:44:59.408527
580  2023-12-05 10:44:59.440441
581  2023-12-05 10:44:59.472358
582  2023-12-05 10:44:59.504300
583  2023-12-05 10:44:59.536185
584  2023-12-05 10:44:59.568100
585  2023-12-05 10:44:59.615972
586  2023-12-05 10:44:59.647886
587  2023-12-05 10:44:59.679841
588  2023-12-05 10:44:59.712749
589  2023-12-05 10:44:59.744628
590  2023-12-05 10:44:59.776542
591  2023-12-05 10:44:59.808488
592  2023-12-05 10:44:59.840416
593  2023-12-05 10:44:59.872286
594  2023-12-05 10:44:59.904201
595  2023-12-05 10:44:59.936115
596  2023-12-05 10:44:59.968060
597  2023-12-05 10:45:00.015936
598  2023-12-05 10:45:00.047851
599  2023-12-05 10:45:00.080729
600  2023-12-05 10:45:00.112643
601  2023-12-05 10:45:00.144601
602  2023-12-05 10:45:00.176472
603  2023-12-05 10:45:00.208387
604  2023-12-05 10:45:00.240301
605  2023-12-05 10:45:00.272216
606  2023-12-05 10:45:00.304253
607  2023-12-05 10:45:00.336173
608  2023-12-05 10:45:00.368078
609  2023-12-05 10:45:00.415950
610  2023-12-05 10:45:00.447865
611  2023-12-05 10:45:00.480777
612  2023-12-05 10:45:00.512692
613  2023-12-05 10:45:00.544606
614  2023-12-05 10:45:00.576521
615  2023-12-05 10:45:00.608435
616  2023-12-05 10:45:00.640421
617  2023-12-05 10:45:00.672335
618  2023-12-05 10:45:00.704250
619  2023-12-05 10:45:00.736164
620  2023-12-05 10:45:00.768079
621  2023-12-05 10:45:00.815987
622  2023-12-05 10:45:00.847902
623  2023-12-05 10:45:00.879780
624  2023-12-05 10:45:00.912692
625  2023-12-05 10:45:00.944607
626  2023-12-05 10:45:00.976702
627  2023-12-05 10:45:01.008617
628  2023-12-05 10:45:01.040700
629  2023-12-05 10:45:01.072614
630  2023-12-05 10:45:01.104529
631  2023-12-05 10:45:01.136444
632  2023-12-05 10:45:01.168358
633  2023-12-05 10:45:01.216230
634  2023-12-05 10:45:01.248157
635  2023-12-05 10:45:01.280060
636  2023-12-05 10:45:01.312143
637  2023-12-05 10:45:01.344113
638  2023-12-05 10:45:01.376971
639  2023-12-05 10:45:01.407887
640  2023-12-05 10:45:01.440799
641  2023-12-05 10:45:01.472714
642  2023-12-05 10:45:01.504663
643  2023-12-05 10:45:01.536543
644  2023-12-05 10:45:01.568458
645  2023-12-05 10:45:01.616330
646  2023-12-05 10:45:01.648244
647  2023-12-05 10:45:01.680207
648  2023-12-05 10:45:01.712124
649  2023-12-05 10:45:01.744023
650  2023-12-05 10:45:01.775903
651  2023-12-05 10:45:01.807852
652  2023-12-05 10:45:01.840763
653  2023-12-05 10:45:01.872644
654  2023-12-05 10:45:01.904558
655  2023-12-05 10:45:01.936473
656  2023-12-05 10:45:01.968419
657  2023-12-05 10:45:02.016292
658  2023-12-05 10:45:02.048218
659  2023-12-05 10:45:02.080200
660  2023-12-05 10:45:02.112219
661  2023-12-05 10:45:02.144170
662  2023-12-05 10:45:02.176081
663  2023-12-05 10:45:02.207963
664  2023-12-05 10:45:02.239877
665  2023-12-05 10:45:02.272789
666  2023-12-05 10:45:02.304704
667  2023-12-05 10:45:02.336697
668  2023-12-05 10:45:02.368701
669  2023-12-05 10:45:02.416536
670  2023-12-05 10:45:02.448450
671  2023-12-05 10:45:02.480365
672  2023-12-05 10:45:02.512280
673  2023-12-05 10:45:02.544194
674  2023-12-05 10:45:02.576109
675  2023-12-05 10:45:02.608023
676  2023-12-05 10:45:02.639938
677  2023-12-05 10:45:02.672883
678  2023-12-05 10:45:02.704765
679  2023-12-05 10:45:02.736679
680  2023-12-05 10:45:02.768594
681  2023-12-05 10:45:02.816469
682  2023-12-05 10:45:02.848503
683  2023-12-05 10:45:02.880451
684  2023-12-05 10:45:02.912365
685  2023-12-05 10:45:02.944280
686  2023-12-05 10:45:02.977193
687  2023-12-05 10:45:03.009141
688  2023-12-05 10:45:03.041022
689  2023-12-05 10:45:03.072937
690  2023-12-05 10:45:03.104851
691  2023-12-05 10:45:03.136765
692  2023-12-05 10:45:03.184638
693  2023-12-05 10:45:03.216586
694  2023-12-05 10:45:03.248466
695  2023-12-05 10:45:03.280381
696  2023-12-05 10:45:03.312296
697  2023-12-05 10:45:03.344244
698  2023-12-05 10:45:03.376125
699  2023-12-05 10:45:03.409070
700  2023-12-05 10:45:03.440987
701  2023-12-05 10:45:03.471903
702  2023-12-05 10:45:03.504813
703  2023-12-05 10:45:03.536754
704  2023-12-05 10:45:03.584598
705  2023-12-05 10:45:03.616482
706  2023-12-05 10:45:03.648397
707  2023-12-05 10:45:03.680321
708  2023-12-05 10:45:03.712226
709  2023-12-05 10:45:03.744179
710  2023-12-05 10:45:03.776055
711  2023-12-05 10:45:03.809007
712  2023-12-05 10:45:03.840887
713  2023-12-05 10:45:03.872796
714  2023-12-05 10:45:03.904711
715  2023-12-05 10:45:03.936626
716  2023-12-05 10:45:03.984528
717  2023-12-05 10:45:04.016443
718  2023-12-05 10:45:04.048358
719  2023-12-05 10:45:04.080258
720  2023-12-05 10:45:04.112187
721  2023-12-05 10:45:04.144133
722  2023-12-05 10:45:04.177020
723  2023-12-05 10:45:04.208930
724  2023-12-05 10:45:04.240813
725  2023-12-05 10:45:04.272727
726  2023-12-05 10:45:04.304680
727  2023-12-05 10:45:04.336561
728  2023-12-05 10:45:04.384429
729  2023-12-05 10:45:04.416344
730  2023-12-05 10:45:04.448257
731  2023-12-05 10:45:04.480222
732  2023-12-05 10:45:04.512117
733  2023-12-05 10:45:04.544032
734  2023-12-05 10:45:04.575916
735  2023-12-05 10:45:04.608830
736  2023-12-05 10:45:04.640788
737  2023-12-05 10:45:04.672687
738  2023-12-05 10:45:04.704571
739  2023-12-05 10:45:04.736487
740  2023-12-05 10:45:04.784390
741  2023-12-05 10:45:04.816272
742  2023-12-05 10:45:04.848244
743  2023-12-05 10:45:04.880157
744  2023-12-05 10:45:04.912067
745  2023-12-05 10:45:04.943942
746  2023-12-05 10:45:04.975887
747  2023-12-05 10:45:05.008789
748  2023-12-05 10:45:05.040673
749  2023-12-05 10:45:05.072586
750  2023-12-05 10:45:05.104533
751  2023-12-05 10:45:05.136469
752  2023-12-05 10:45:05.184320
753  2023-12-05 10:45:05.216233
754  2023-12-05 10:45:05.248159
755  2023-12-05 10:45:05.280070
756  2023-12-05 10:45:05.311980
757  2023-12-05 10:45:05.343894
758  2023-12-05 10:45:05.375816
759  2023-12-05 10:45:05.408720
760  2023-12-05 10:45:05.440602
761  2023-12-05 10:45:05.472549
762  2023-12-05 10:45:05.504431
763  2023-12-05 10:45:05.536378
764  2023-12-05 10:45:05.584218
765  2023-12-05 10:45:05.616167
766  2023-12-05 10:45:05.648088
767  2023-12-05 10:45:05.680961
768  2023-12-05 10:45:05.712910
769  2023-12-05 10:45:05.743824
770  2023-12-05 10:45:05.775706
771  2023-12-05 10:45:05.808654
772  2023-12-05 10:45:05.840534
773  2023-12-05 10:45:05.872478
774  2023-12-05 10:45:05.904392
775  2023-12-05 10:45:05.936276
776  2023-12-05 10:45:05.984179
777  2023-12-05 10:45:06.017094
778  2023-12-05 10:45:06.048012
779  2023-12-05 10:45:06.079941
780  2023-12-05 10:45:06.111859
781  2023-12-05 10:45:06.144774
782  2023-12-05 10:45:06.176688
783  2023-12-05 10:45:06.208582
784  2023-12-05 10:45:06.240496
785  2023-12-05 10:45:06.272409
786  2023-12-05 10:45:06.304327
787  2023-12-05 10:45:06.336206
788  2023-12-05 10:45:06.384114
789  2023-12-05 10:45:06.416030
790  2023-12-05 10:45:06.447941
791  2023-12-05 10:45:06.479863
792  2023-12-05 10:45:06.511771
793  2023-12-05 10:45:06.544690
794  2023-12-05 10:45:06.576594
795  2023-12-05 10:45:06.608513
796  2023-12-05 10:45:06.640425
797  2023-12-05 10:45:06.672343
798  2023-12-05 10:45:06.704256
799  2023-12-05 10:45:06.736169
800  2023-12-05 10:45:06.784040
801  2023-12-05 10:45:06.815956
802  2023-12-05 10:45:06.847875
803  2023-12-05 10:45:06.879785
804  2023-12-05 10:45:06.912720
805  2023-12-05 10:45:06.944612
806  2023-12-05 10:45:06.976527
807  2023-12-05 10:45:07.008443
808  2023-12-05 10:45:07.040356
809  2023-12-05 10:45:07.072270
810  2023-12-05 10:45:07.104152
811  2023-12-05 10:45:07.152113
812  2023-12-05 10:45:07.184085
813  2023-12-05 10:45:07.215999
814  2023-12-05 10:45:07.247912
815  2023-12-05 10:45:07.279833
816  2023-12-05 10:45:07.311744
817  2023-12-05 10:45:07.344655
818  2023-12-05 10:45:07.376572
819  2023-12-05 10:45:07.408486
820  2023-12-05 10:45:07.440401
821  2023-12-05 10:45:07.472316
822  2023-12-05 10:45:07.504196
823  2023-12-05 10:45:07.552113
824  2023-12-05 10:45:07.584017
825  2023-12-05 10:45:07.615931
826  2023-12-05 10:45:07.647847
827  2023-12-05 10:45:07.680754
828  2023-12-05 10:45:07.712671
829  2023-12-05 10:45:07.744586
830  2023-12-05 10:45:07.776499
831  2023-12-05 10:45:07.808413
832  2023-12-05 10:45:07.840328
833  2023-12-05 10:45:07.872246
834  2023-12-05 10:45:07.904158
835  2023-12-05 10:45:07.952032
836  2023-12-05 10:45:07.983972
837  2023-12-05 10:45:08.015930
838  2023-12-05 10:45:08.047863
839  2023-12-05 10:45:08.079883
840  2023-12-05 10:45:08.111797
841  2023-12-05 10:45:08.144715
842  2023-12-05 10:45:08.176622
843  2023-12-05 10:45:08.208536
844  2023-12-05 10:45:08.240450
845  2023-12-05 10:45:08.272364
846  2023-12-05 10:45:08.304280
847  2023-12-05 10:45:08.352155
848  2023-12-05 10:45:08.384070
849  2023-12-05 10:45:08.416981
850  2023-12-05 10:45:08.447897
851  2023-12-05 10:45:08.479814
852  2023-12-05 10:45:08.512739
853  2023-12-05 10:45:08.544640
854  2023-12-05 10:45:08.576552
855  2023-12-05 10:45:08.608468
856  2023-12-05 10:45:08.640379
857  2023-12-05 10:45:08.672294
858  2023-12-05 10:45:08.704227
859  2023-12-05 10:45:08.752084
860  2023-12-05 10:45:08.783998
861  2023-12-05 10:45:08.815913
862  2023-12-05 10:45:08.847836
863  2023-12-05 10:45:08.879739
864  2023-12-05 10:45:08.912654
865  2023-12-05 10:45:08.944585
866  2023-12-05 10:45:08.976485
867  2023-12-05 10:45:09.008398
868  2023-12-05 10:45:09.040312
869  2023-12-05 10:45:09.072235
870  2023-12-05 10:45:09.104140
871  2023-12-05 10:45:09.152015
872  2023-12-05 10:45:09.183927
873  2023-12-05 10:45:09.215846
874  2023-12-05 10:45:09.247759
875  2023-12-05 10:45:09.280677
876  2023-12-05 10:45:09.312584
877  2023-12-05 10:45:09.344496
878  2023-12-05 10:45:09.376380
879  2023-12-05 10:45:09.408326
880  2023-12-05 10:45:09.440241
881  2023-12-05 10:45:09.472124
882  2023-12-05 10:45:09.504039
883  2023-12-05 10:45:09.551965
884  2023-12-05 10:45:09.583861
885  2023-12-05 10:45:09.616868
886  2023-12-05 10:45:09.648778
887  2023-12-05 10:45:09.680687
888  2023-12-05 10:45:09.712595
889  2023-12-05 10:45:09.744507
890  2023-12-05 10:45:09.776421
891  2023-12-05 10:45:09.808335
892  2023-12-05 10:45:09.840251
893  2023-12-05 10:45:09.872199
894  2023-12-05 10:45:09.904113
895  2023-12-05 10:45:09.952054
896  2023-12-05 10:45:09.983971
897  2023-12-05 10:45:10.016893
898  2023-12-05 10:45:10.047796
899  2023-12-05 10:45:10.080709
900  2023-12-05 10:45:10.112623
901  2023-12-05 10:45:10.144537
902  2023-12-05 10:45:10.176457
903  2023-12-05 10:45:10.208334
904  2023-12-05 10:45:10.240281
905  2023-12-05 10:45:10.272241
906  2023-12-05 10:45:10.304278
907  2023-12-05 10:45:10.352127
908  2023-12-05 10:45:10.384038
909  2023-12-05 10:45:10.415953
910  2023-12-05 10:45:10.447867
911  2023-12-05 10:45:10.479781
912  2023-12-05 10:45:10.512693
913  2023-12-05 10:45:10.544607
914  2023-12-05 10:45:10.576524
915  2023-12-05 10:45:10.608442
916  2023-12-05 10:45:10.640351
917  2023-12-05 10:45:10.672265
918  2023-12-05 10:45:10.720138
919  2023-12-05 10:45:10.752057
920  2023-12-05 10:45:10.783969
921  2023-12-05 10:45:10.816882
922  2023-12-05 10:45:10.847800
923  2023-12-05 10:45:10.880717
924  2023-12-05 10:45:10.912622
925  2023-12-05 10:45:10.944533
926  2023-12-05 10:45:10.976460
927  2023-12-05 10:45:11.008343
928  2023-12-05 10:45:11.040331
929  2023-12-05 10:45:11.072249
930  2023-12-05 10:45:11.120118
931  2023-12-05 10:45:11.152033
932  2023-12-05 10:45:11.183948
933  2023-12-05 10:45:11.216863
934  2023-12-05 10:45:11.248779
935  2023-12-05 10:45:11.280722
936  2023-12-05 10:45:11.312609
937  2023-12-05 10:45:11.344485
938  2023-12-05 10:45:11.376400
939  2023-12-05 10:45:11.408314
940  2023-12-05 10:45:11.440228
941  2023-12-05 10:45:11.472178
942  2023-12-05 10:45:11.520126
943  2023-12-05 10:45:11.552162
944  2023-12-05 10:45:11.584188
945  2023-12-05 10:45:11.617102
946  2023-12-05 10:45:11.648012
947  2023-12-05 10:45:11.679927
948  2023-12-05 10:45:11.712837
949  2023-12-05 10:45:11.744764
950  2023-12-05 10:45:11.775751
951  2023-12-05 10:45:11.808660
952  2023-12-05 10:45:11.840576
953  2023-12-05 10:45:11.872488
954  2023-12-05 10:45:11.920365
955  2023-12-05 10:45:11.952274
956  2023-12-05 10:45:11.984203
957  2023-12-05 10:45:12.016106
958  2023-12-05 10:45:12.048025
959  2023-12-05 10:45:12.079935
960  2023-12-05 10:45:12.111847
961  2023-12-05 10:45:12.144770
962  2023-12-05 10:45:12.176675
963  2023-12-05 10:45:12.208557
964  2023-12-05 10:45:12.240503
965  2023-12-05 10:45:12.272418
966  2023-12-05 10:45:12.320298
967  2023-12-05 10:45:12.352211
968  2023-12-05 10:45:12.384125
969  2023-12-05 10:45:12.416036
970  2023-12-05 10:45:12.447951
971  2023-12-05 10:45:12.479863
972  2023-12-05 10:45:12.511782
973  2023-12-05 10:45:12.544699
974  2023-12-05 10:45:12.576622
975  2023-12-05 10:45:12.608519
976  2023-12-05 10:45:12.640502
977  2023-12-05 10:45:12.672419
978  2023-12-05 10:45:12.720314
979  2023-12-05 10:45:12.752347
980  2023-12-05 10:45:12.784262
981  2023-12-05 10:45:12.816145
982  2023-12-05 10:45:12.848095
983  2023-12-05 10:45:12.880006
984  2023-12-05 10:45:12.912887
985  2023-12-05 10:45:12.943808
986  2023-12-05 10:45:12.975826
987  2023-12-05 10:45:13.008702
988  2023-12-05 10:45:13.040616
989  2023-12-05 10:45:13.072564
990  2023-12-05 10:45:13.120437
991  2023-12-05 10:45:13.152352
992  2023-12-05 10:45:13.184267
993  2023-12-05 10:45:13.216262
994  2023-12-05 10:45:13.248183
995  2023-12-05 10:45:13.280098
996  2023-12-05 10:45:13.312002
997  2023-12-05 10:45:13.344909
998  2023-12-05 10:45:13.376830
999  2023-12-05 10:45:13.407746
1000  2023-12-05 10:45:13.440709
1001  2023-12-05 10:45:13.472635
1002  2023-12-05 10:45:13.520610
1003  2023-12-05 10:45:13.552575
1004  2023-12-05 10:45:13.584473
1005  2023-12-05 10:45:13.616385
1006  2023-12-05 10:45:13.648268
1007  2023-12-05 10:45:13.680216
1008  2023-12-05 10:45:13.712135
1009  2023-12-05 10:45:13.744044
1010  2023-12-05 10:45:13.775959
1011  2023-12-05 10:45:13.807882
1012  2023-12-05 10:45:13.839755
1013  2023-12-05 10:45:13.872668
1014  2023-12-05 10:45:13.920539
1015  2023-12-05 10:45:13.952486
1016  2023-12-05 10:45:13.984410
1017  2023-12-05 10:45:14.016315
1018  2023-12-05 10:45:14.048231
1019  2023-12-05 10:45:14.080146
1020  2023-12-05 10:45:14.112059
1021  2023-12-05 10:45:14.143975
1022  2023-12-05 10:45:14.175897
1023  2023-12-05 10:45:14.207810
1024  2023-12-05 10:45:14.240683
1025  2023-12-05 10:45:14.272598
1026  2023-12-05 10:45:14.320470
1027  2023-12-05 10:45:14.352423
1028  2023-12-05 10:45:14.384334
1029  2023-12-05 10:45:14.416247
1030  2023-12-05 10:45:14.448169
1031  2023-12-05 10:45:14.480093
1032  2023-12-05 10:45:14.512011
1033  2023-12-05 10:45:14.543903
1034  2023-12-05 10:45:14.575823
1035  2023-12-05 10:45:14.608699
1036  2023-12-05 10:45:14.640613
1037  2023-12-05 10:45:14.688519
1038  2023-12-05 10:45:14.720436
1039  2023-12-05 10:45:14.752314
1040  2023-12-05 10:45:14.784697
1041  2023-12-05 10:45:14.816561
1042  2023-12-05 10:45:14.848099
1043  2023-12-05 10:45:14.880093
1044  2023-12-05 10:45:14.911976
1045  2023-12-05 10:45:14.943926
1046  2023-12-05 10:45:14.975846
1047  2023-12-05 10:45:15.008717
1048  2023-12-05 10:45:15.040643
1049  2023-12-05 10:45:15.088504
1050  2023-12-05 10:45:15.120418
1051  2023-12-05 10:45:15.152425
1052  2023-12-05 10:45:15.184360
1053  2023-12-05 10:45:15.216276
1054  2023-12-05 10:45:15.248323
1055  2023-12-05 10:45:15.280206
1056  2023-12-05 10:45:15.312120
1057  2023-12-05 10:45:15.345032
1058  2023-12-05 10:45:15.376960
1059  2023-12-05 10:45:15.408861
1060  2023-12-05 10:45:15.440776
1061  2023-12-05 10:45:15.488648
1062  2023-12-05 10:45:15.520563
1063  2023-12-05 10:45:15.552477
1064  2023-12-05 10:45:15.584392
1065  2023-12-05 10:45:15.616340
1066  2023-12-05 10:45:15.648263
1067  2023-12-05 10:45:15.680181
1068  2023-12-05 10:45:15.712050
1069  2023-12-05 10:45:15.743999
1070  2023-12-05 10:45:15.775880
1071  2023-12-05 10:45:15.807794
1072  2023-12-05 10:45:15.840706
1073  2023-12-05 10:45:15.888615
1074  2023-12-05 10:45:15.920500
1075  2023-12-05 10:45:15.952439
1076  2023-12-05 10:45:15.984387
1077  2023-12-05 10:45:16.016301
1078  2023-12-05 10:45:16.049214
1079  2023-12-05 10:45:16.080213
1080  2023-12-05 10:45:16.112130
1081  2023-12-05 10:45:16.144093
1082  2023-12-05 10:45:16.175995
1083  2023-12-05 10:45:16.207957
1084  2023-12-05 10:45:16.239871
1085  2023-12-05 10:45:16.288774
1086  2023-12-05 10:45:16.320656
1087  2023-12-05 10:45:16.352570
1088  2023-12-05 10:45:16.384518
1089  2023-12-05 10:45:16.416399
1090  2023-12-05 10:45:16.448347
1091  2023-12-05 10:45:16.480278
1092  2023-12-05 10:45:16.512182
1093  2023-12-05 10:45:16.544106
1094  2023-12-05 10:45:16.575972
1095  2023-12-05 10:45:16.607887
1096  2023-12-05 10:45:16.640834
1097  2023-12-05 10:45:16.688705
1098  2023-12-05 10:45:16.720619
1099  2023-12-05 10:45:16.752697
1100  2023-12-05 10:45:16.784734
1101  2023-12-05 10:45:16.816668
1102  2023-12-05 10:45:16.848566
1103  2023-12-05 10:45:16.880489
1104  2023-12-05 10:45:16.912396
1105  2023-12-05 10:45:16.944309
1106  2023-12-05 10:45:16.976190
1107  2023-12-05 10:45:17.008104
1108  2023-12-05 10:45:17.040019
1109  2023-12-05 10:45:17.087928
1110  2023-12-05 10:45:17.119842
1111  2023-12-05 10:45:17.152718
1112  2023-12-05 10:45:17.184632
1113  2023-12-05 10:45:17.216579
1114  2023-12-05 10:45:17.248493
1115  2023-12-05 10:45:17.280408
1116  2023-12-05 10:45:17.312322
1117  2023-12-05 10:45:17.344242
1118  2023-12-05 10:45:17.376089
1119  2023-12-05 10:45:17.408004
1120  2023-12-05 10:45:17.440009
1121  2023-12-05 10:45:17.487996
1122  2023-12-05 10:45:17.519903
1123  2023-12-05 10:45:17.551927
1124  2023-12-05 10:45:17.584841
1125  2023-12-05 10:45:17.616755
1126  2023-12-05 10:45:17.648670
1127  2023-12-05 10:45:17.680585
1128  2023-12-05 10:45:17.712500
1129  2023-12-05 10:45:17.744414
1130  2023-12-05 10:45:17.776328
1131  2023-12-05 10:45:17.808243
1132  2023-12-05 10:45:17.841187
1133  2023-12-05 10:45:17.888032
1134  2023-12-05 10:45:17.919971
1135  2023-12-05 10:45:17.952856
1136  2023-12-05 10:45:17.984772
1137  2023-12-05 10:45:18.016726
1138  2023-12-05 10:45:18.048631
1139  2023-12-05 10:45:18.080515
1140  2023-12-05 10:45:18.112429
1141  2023-12-05 10:45:18.144344
1142  2023-12-05 10:45:18.176289
1143  2023-12-05 10:45:18.208173
1144  2023-12-05 10:45:18.256082
1145  2023-12-05 10:45:18.288001
1146  2023-12-05 10:45:18.319912
1147  2023-12-05 10:45:18.351825
1148  2023-12-05 10:45:18.383740
1149  2023-12-05 10:45:18.416616
1150  2023-12-05 10:45:18.448530
1151  2023-12-05 10:45:18.480445
1152  2023-12-05 10:45:18.512424
1153  2023-12-05 10:45:18.544344
1154  2023-12-05 10:45:18.576257
1155  2023-12-05 10:45:18.608172
1156  2023-12-05 10:45:18.656103
1157  2023-12-05 10:45:18.687992
1158  2023-12-05 10:45:18.719916
1159  2023-12-05 10:45:18.751788
1160  2023-12-05 10:45:18.783736
1161  2023-12-05 10:45:18.816615
1162  2023-12-05 10:45:18.848570
1163  2023-12-05 10:45:18.880478
1164  2023-12-05 10:45:18.912358
1165  2023-12-05 10:45:18.944273
1166  2023-12-05 10:45:18.976227
1167  2023-12-05 10:45:19.008136
1168  2023-12-05 10:45:19.056016
1169  2023-12-05 10:45:19.087889
1170  2023-12-05 10:45:19.119803
1171  2023-12-05 10:45:19.151718
1172  2023-12-05 10:45:19.184675
1173  2023-12-05 10:45:19.216545
1174  2023-12-05 10:45:19.248459
1175  2023-12-05 10:45:19.280374
1176  2023-12-05 10:45:19.312328
1177  2023-12-05 10:45:19.344246
1178  2023-12-05 10:45:19.376118
1179  2023-12-05 10:45:19.408032
1180  2023-12-05 10:45:19.455943
1181  2023-12-05 10:45:19.487819
1182  2023-12-05 10:45:19.519767
1183  2023-12-05 10:45:19.552646
1184  2023-12-05 10:45:19.584560
1185  2023-12-05 10:45:19.616475
1186  2023-12-05 10:45:19.648389
1187  2023-12-05 10:45:19.680304
1188  2023-12-05 10:45:19.712219
1189  2023-12-05 10:45:19.744133
1190  2023-12-05 10:45:19.776048
1191  2023-12-05 10:45:19.807962
1192  2023-12-05 10:45:19.855872
1193  2023-12-05 10:45:19.887749
1194  2023-12-05 10:45:19.920661
1195  2023-12-05 10:45:19.952576
1196  2023-12-05 10:45:19.984533
1197  2023-12-05 10:45:20.016518
1198  2023-12-05 10:45:20.048432
1199  2023-12-05 10:45:20.080347
1200  2023-12-05 10:45:20.112359
1201  2023-12-05 10:45:20.144453
1202  2023-12-05 10:45:20.176534
1203  2023-12-05 10:45:20.208448
1204  2023-12-05 10:45:20.256354
1205  2023-12-05 10:45:20.288235
1206  2023-12-05 10:45:20.320149
1207  2023-12-05 10:45:20.352097
1208  2023-12-05 10:45:20.384014
1209  2023-12-05 10:45:20.415893
1210  2023-12-05 10:45:20.447808
1211  2023-12-05 10:45:20.480720
1212  2023-12-05 10:45:20.512694
1213  2023-12-05 10:45:20.544693
1214  2023-12-05 10:45:20.576607
1215  2023-12-05 10:45:20.608522
1216  2023-12-05 10:45:20.656394
1217  2023-12-05 10:45:20.688353
1218  2023-12-05 10:45:20.720262
1219  2023-12-05 10:45:20.752138
1220  2023-12-05 10:45:20.784065
1221  2023-12-05 10:45:20.815967
1222  2023-12-05 10:45:20.847922
1223  2023-12-05 10:45:20.879838
1224  2023-12-05 10:45:20.912708
1225  2023-12-05 10:45:20.944623
1226  2023-12-05 10:45:20.976538
1227  2023-12-05 10:45:21.008452
1228  2023-12-05 10:45:21.056367
1229  2023-12-05 10:45:21.088239
1230  2023-12-05 10:45:21.120154
1231  2023-12-05 10:45:21.152068
1232  2023-12-05 10:45:21.184023
1233  2023-12-05 10:45:21.215897
1234  2023-12-05 10:45:21.247812
1235  2023-12-05 10:45:21.279727
1236  2023-12-05 10:45:21.312639
1237  2023-12-05 10:45:21.344495
1238  2023-12-05 10:45:21.376413
1239  2023-12-05 10:45:21.408368
1240  2023-12-05 10:45:21.456240
1241  2023-12-05 10:45:21.488155
1242  2023-12-05 10:45:21.520116
1243  2023-12-05 10:45:21.552017
1244  2023-12-05 10:45:21.584035
1245  2023-12-05 10:45:21.615985
1246  2023-12-05 10:45:21.647901
1247  2023-12-05 10:45:21.679832
1248  2023-12-05 10:45:21.712813
1249  2023-12-05 10:45:21.744876
1250  2023-12-05 10:45:21.775792
1251  2023-12-05 10:45:21.808705
1252  2023-12-05 10:45:21.856577
1253  2023-12-05 10:45:21.888491
1254  2023-12-05 10:45:21.920406
1255  2023-12-05 10:45:21.952320
1256  2023-12-05 10:45:21.984235
1257  2023-12-05 10:45:22.016150
1258  2023-12-05 10:45:22.048064
1259  2023-12-05 10:45:22.079979
1260  2023-12-05 10:45:22.111894
1261  2023-12-05 10:45:22.143845
1262  2023-12-05 10:45:22.176720
1263  2023-12-05 10:45:22.224664
1264  2023-12-05 10:45:22.256616
1265  2023-12-05 10:45:22.288530
1266  2023-12-05 10:45:22.320445
1267  2023-12-05 10:45:22.352511
1268  2023-12-05 10:45:22.384440
1269  2023-12-05 10:45:22.416354
1270  2023-12-05 10:45:22.448281
1271  2023-12-05 10:45:22.480183
1272  2023-12-05 10:45:22.512098
1273  2023-12-05 10:45:22.544012
1274  2023-12-05 10:45:22.575960
1275  2023-12-05 10:45:22.623801
1276  2023-12-05 10:45:22.656711
1277  2023-12-05 10:45:22.688758
1278  2023-12-05 10:45:22.720774
1279  2023-12-05 10:45:22.752664
1280  2023-12-05 10:45:22.784576
1281  2023-12-05 10:45:22.816491
1282  2023-12-05 10:45:22.848439
1283  2023-12-05 10:45:22.880353
1284  2023-12-05 10:45:22.912235
1285  2023-12-05 10:45:22.944164
1286  2023-12-05 10:45:22.976096
1287  2023-12-05 10:45:23.023936
1288  2023-12-05 10:45:23.055884
1289  2023-12-05 10:45:23.087797
1290  2023-12-05 10:45:23.120677
1291  2023-12-05 10:45:23.152592
1292  2023-12-05 10:45:23.184540
1293  2023-12-05 10:45:23.216454
1294  2023-12-05 10:45:23.248336
1295  2023-12-05 10:45:23.280251
1296  2023-12-05 10:45:23.312185
1297  2023-12-05 10:45:23.344130
1298  2023-12-05 10:45:23.376014
1299  2023-12-05 10:45:23.423923
1300  2023-12-05 10:45:23.456797
1301  2023-12-05 10:45:23.488718
1302  2023-12-05 10:45:23.520674
1303  2023-12-05 10:45:23.552580
1304  2023-12-05 10:45:23.584456
1305  2023-12-05 10:45:23.616371
1306  2023-12-05 10:45:23.648285
1307  2023-12-05 10:45:23.680236
1308  2023-12-05 10:45:23.712147
1309  2023-12-05 10:45:23.744062
1310  2023-12-05 10:45:23.775975
1311  2023-12-05 10:45:23.824815
1312  2023-12-05 10:45:23.856729
1313  2023-12-05 10:45:23.888703
1314  2023-12-05 10:45:23.920558
1315  2023-12-05 10:45:23.952473
1316  2023-12-05 10:45:23.984388
1317  2023-12-05 10:45:24.016334
1318  2023-12-05 10:45:24.048217
1319  2023-12-05 10:45:24.080132
1320  2023-12-05 10:45:24.112046
1321  2023-12-05 10:45:24.144001
1322  2023-12-05 10:45:24.175906
1323  2023-12-05 10:45:24.223783
1324  2023-12-05 10:45:24.256659
1325  2023-12-05 10:45:24.288574
1326  2023-12-05 10:45:24.320488
1327  2023-12-05 10:45:24.352403
1328  2023-12-05 10:45:24.384356
1329  2023-12-05 10:45:24.416232
1330  2023-12-05 10:45:24.448147
1331  2023-12-05 10:45:24.480103
1332  2023-12-05 10:45:24.512014
1333  2023-12-05 10:45:24.543922
1334  2023-12-05 10:45:24.575846
1335  2023-12-05 10:45:24.623677
1336  2023-12-05 10:45:24.656590
1337  2023-12-05 10:45:24.688504
1338  2023-12-05 10:45:24.720419
1339  2023-12-05 10:45:24.752492
1340  2023-12-05 10:45:24.784407
1341  2023-12-05 10:45:24.816321
1342  2023-12-05 10:45:24.848236
1343  2023-12-05 10:45:24.881148
1344  2023-12-05 10:45:24.912067
1345  2023-12-05 10:45:24.945028
1346  2023-12-05 10:45:24.975925
1347  2023-12-05 10:45:25.024764
1348  2023-12-05 10:45:25.057708
1349  2023-12-05 10:45:25.088594
1350  2023-12-05 10:45:25.120508
1351  2023-12-05 10:45:25.153451
1352  2023-12-05 10:45:25.184381
1353  2023-12-05 10:45:25.217281
1354  2023-12-05 10:45:25.249207
1355  2023-12-05 10:45:25.281079
1356  2023-12-05 10:45:25.313024
1357  2023-12-05 10:45:25.344938
1358  2023-12-05 10:45:25.376832
1359  2023-12-05 10:45:25.424694
1360  2023-12-05 10:45:25.456616
1361  2023-12-05 10:45:25.488523
1362  2023-12-05 10:45:25.520439
1363  2023-12-05 10:45:25.552381
1364  2023-12-05 10:45:25.584267
1365  2023-12-05 10:45:25.616183
1366  2023-12-05 10:45:25.649139
1367  2023-12-05 10:45:25.681039
1368  2023-12-05 10:45:25.712957
1369  2023-12-05 10:45:25.744869
1370  2023-12-05 10:45:25.792745
1371  2023-12-05 10:45:25.824801
1372  2023-12-05 10:45:25.856820
1373  2023-12-05 10:45:25.888730
1374  2023-12-05 10:45:25.920638
1375  2023-12-05 10:45:25.952553
1376  2023-12-05 10:45:25.984465
1377  2023-12-05 10:45:26.016351
1378  2023-12-05 10:45:26.048265
1379  2023-12-05 10:45:26.080233
1380  2023-12-05 10:45:26.112135
1381  2023-12-05 10:45:26.144043
1382  2023-12-05 10:45:26.191880
1383  2023-12-05 10:45:26.223836
1384  2023-12-05 10:45:26.255753
1385  2023-12-05 10:45:26.288658
1386  2023-12-05 10:45:26.320580
1387  2023-12-05 10:45:26.352496
1388  2023-12-05 10:45:26.384407
1389  2023-12-05 10:45:26.416311
1390  2023-12-05 10:45:26.448232
1391  2023-12-05 10:45:26.480110
1392  2023-12-05 10:45:26.512055
1393  2023-12-05 10:45:26.543970
1394  2023-12-05 10:45:26.591811
1395  2023-12-05 10:45:26.623759
1396  2023-12-05 10:45:26.656680
1397  2023-12-05 10:45:26.689598
1398  2023-12-05 10:45:26.720516
1399  2023-12-05 10:45:26.752415
1400  2023-12-05 10:45:26.784331
1401  2023-12-05 10:45:26.816252
1402  2023-12-05 10:45:26.848161
1403  2023-12-05 10:45:26.880082
1404  2023-12-05 10:45:26.911994
1405  2023-12-05 10:45:26.944048
1406  2023-12-05 10:45:26.991874
1407  2023-12-05 10:45:27.024852
1408  2023-12-05 10:45:27.056701
1409  2023-12-05 10:45:27.088664
1410  2023-12-05 10:45:27.120565
1411  2023-12-05 10:45:27.152477
1412  2023-12-05 10:45:27.184396
1413  2023-12-05 10:45:27.216307
1414  2023-12-05 10:45:27.248220
1415  2023-12-05 10:45:27.280176
1416  2023-12-05 10:45:27.312085
1417  2023-12-05 10:45:27.343934
1418  2023-12-05 10:45:27.391840
1419  2023-12-05 10:45:27.424752
1420  2023-12-05 10:45:27.456679
1421  2023-12-05 10:45:27.488581
1422  2023-12-05 10:45:27.520491
1423  2023-12-05 10:45:27.552407
1424  2023-12-05 10:45:27.584331
1425  2023-12-05 10:45:27.616240
1426  2023-12-05 10:45:27.648170
1427  2023-12-05 10:45:27.680089
1428  2023-12-05 10:45:27.711984
1429  2023-12-05 10:45:27.743896
1430  2023-12-05 10:45:27.791766
1431  2023-12-05 10:45:27.824695
1432  2023-12-05 10:45:27.856596
1433  2023-12-05 10:45:27.888483
1434  2023-12-05 10:45:27.920425
1435  2023-12-05 10:45:27.952337
1436  2023-12-05 10:45:27.984251
1437  2023-12-05 10:45:28.016184
1438  2023-12-05 10:45:28.048086
1439  2023-12-05 10:45:28.079996
1440  2023-12-05 10:45:28.111909
1441  2023-12-05 10:45:28.143793
1442  2023-12-05 10:45:28.192694
1443  2023-12-05 10:45:28.224608
1444  2023-12-05 10:45:28.256531
1445  2023-12-05 10:45:28.288287
1446  2023-12-05 10:45:28.320232
1447  2023-12-05 10:45:28.352188
1448  2023-12-05 10:45:28.384102
1449  2023-12-05 10:45:28.416001
1450  2023-12-05 10:45:28.447983
1451  2023-12-05 10:45:28.479970
1452  2023-12-05 10:45:28.511876
1453  2023-12-05 10:45:28.544806
1454  2023-12-05 10:45:28.592663
1455  2023-12-05 10:45:28.624575
1456  2023-12-05 10:45:28.656487
1457  2023-12-05 10:45:28.688409
1458  2023-12-05 10:45:28.720288
1459  2023-12-05 10:45:28.752232
1460  2023-12-05 10:45:28.784148
1461  2023-12-05 10:45:28.816090
1462  2023-12-05 10:45:28.847981
1463  2023-12-05 10:45:28.879879
1464  2023-12-05 10:45:28.911801
1465  2023-12-05 10:45:28.944721
1466  2023-12-05 10:45:28.992608
1467  2023-12-05 10:45:29.024511
1468  2023-12-05 10:45:29.056430
1469  2023-12-05 10:45:29.088339
1470  2023-12-05 10:45:29.120250
1471  2023-12-05 10:45:29.152161
1472  2023-12-05 10:45:29.184089
1473  2023-12-05 10:45:29.216081
1474  2023-12-05 10:45:29.247977
1475  2023-12-05 10:45:29.280888
1476  2023-12-05 10:45:29.311803
1477  2023-12-05 10:45:29.344683
1478  2023-12-05 10:45:29.392555
1479  2023-12-05 10:45:29.424501
1480  2023-12-05 10:45:29.456417
1481  2023-12-05 10:45:29.488329
1482  2023-12-05 10:45:29.520246
1483  2023-12-05 10:45:29.552184
1484  2023-12-05 10:45:29.584083
1485  2023-12-05 10:45:29.615997
1486  2023-12-05 10:45:29.647908
1487  2023-12-05 10:45:29.680828
1488  2023-12-05 10:45:29.712730
1489  2023-12-05 10:45:29.760615
1490  2023-12-05 10:45:29.792516
1491  2023-12-05 10:45:29.824434
1492  2023-12-05 10:45:29.856351
1493  2023-12-05 10:45:29.888262
1494  2023-12-05 10:45:29.920186
1495  2023-12-05 10:45:29.952088
1496  2023-12-05 10:45:29.984005
1497  2023-12-05 10:45:30.015918
1498  2023-12-05 10:45:30.047837
1499  2023-12-05 10:45:30.080752
1500  2023-12-05 10:45:30.112674
1501  2023-12-05 10:45:30.160542
1502  2023-12-05 10:45:30.192448
1503  2023-12-05 10:45:30.224362
1504  2023-12-05 10:45:30.256276
1505  2023-12-05 10:45:30.288213
1506  2023-12-05 10:45:30.320104
1507  2023-12-05 10:45:30.352019
1508  2023-12-05 10:45:30.383934
1509  2023-12-05 10:45:30.415854
1510  2023-12-05 10:45:30.447767
1511  2023-12-05 10:45:30.480684
1512  2023-12-05 10:45:30.512590
1513  2023-12-05 10:45:30.560462
1514  2023-12-05 10:45:30.592376
1515  2023-12-05 10:45:30.624293
1516  2023-12-05 10:45:30.656208
1517  2023-12-05 10:45:30.688120
1518  2023-12-05 10:45:30.720034
1519  2023-12-05 10:45:30.751952
1520  2023-12-05 10:45:30.783889
1521  2023-12-05 10:45:30.815780
1522  2023-12-05 10:45:30.848706
1523  2023-12-05 10:45:30.880605
1524  2023-12-05 10:45:30.912526
1525  2023-12-05 10:45:30.960399
1526  2023-12-05 10:45:30.992307
1527  2023-12-05 10:45:31.024227
1528  2023-12-05 10:45:31.056145
1529  2023-12-05 10:45:31.088072
1530  2023-12-05 10:45:31.119964
1531  2023-12-05 10:45:31.151878
1532  2023-12-05 10:45:31.183795
1533  2023-12-05 10:45:31.216734
1534  2023-12-05 10:45:31.248625
1535  2023-12-05 10:45:31.280536
1536  2023-12-05 10:45:31.312452
1537  2023-12-05 10:45:31.360345
1538  2023-12-05 10:45:31.392242
1539  2023-12-05 10:45:31.424155
1540  2023-12-05 10:45:31.456075
1541  2023-12-05 10:45:31.487986
1542  2023-12-05 10:45:31.520898
1543  2023-12-05 10:45:31.552811
1544  2023-12-05 10:45:31.584723
1545  2023-12-05 10:45:31.616639
1546  2023-12-05 10:45:31.648551
1547  2023-12-05 10:45:31.680475
1548  2023-12-05 10:45:31.712349
1549  2023-12-05 10:45:31.760221
1550  2023-12-05 10:45:31.792164
1551  2023-12-05 10:45:31.825081
1552  2023-12-05 10:45:31.855995
1553  2023-12-05 10:45:31.887917
1554  2023-12-05 10:45:31.920831
1555  2023-12-05 10:45:31.952747
1556  2023-12-05 10:45:31.984654
1557  2023-12-05 10:45:32.016575
1558  2023-12-05 10:45:32.048482
1559  2023-12-05 10:45:32.080395
1560  2023-12-05 10:45:32.112313
1561  2023-12-05 10:45:32.160195
1562  2023-12-05 10:45:32.192097
1563  2023-12-05 10:45:32.225008
1564  2023-12-05 10:45:32.255933
1565  2023-12-05 10:45:32.287843
1566  2023-12-05 10:45:32.320756
1567  2023-12-05 10:45:32.352670
1568  2023-12-05 10:45:32.384589
1569  2023-12-05 10:45:32.416498
1570  2023-12-05 10:45:32.448413
1571  2023-12-05 10:45:32.480326
1572  2023-12-05 10:45:32.512246
1573  2023-12-05 10:45:32.560114
1574  2023-12-05 10:45:32.592035
1575  2023-12-05 10:45:32.624942
1576  2023-12-05 10:45:32.656871
1577  2023-12-05 10:45:32.687776
1578  2023-12-05 10:45:32.720695
1579  2023-12-05 10:45:32.752601
1580  2023-12-05 10:45:32.784515
1581  2023-12-05 10:45:32.816428
1582  2023-12-05 10:45:32.848350
1583  2023-12-05 10:45:32.880256
1584  2023-12-05 10:45:32.912173
1585  2023-12-05 10:45:32.960044
1586  2023-12-05 10:45:32.991957
1587  2023-12-05 10:45:33.024874
1588  2023-12-05 10:45:33.056787
1589  2023-12-05 10:45:33.087706
1590  2023-12-05 10:45:33.120616
1591  2023-12-05 10:45:33.152529
1592  2023-12-05 10:45:33.184443
1593  2023-12-05 10:45:33.216333
1594  2023-12-05 10:45:33.248314
1595  2023-12-05 10:45:33.280232
1596  2023-12-05 10:45:33.328069
1597  2023-12-05 10:45:33.360018
1598  2023-12-05 10:45:33.391933
1599  2023-12-05 10:45:33.424841
1600  2023-12-05 10:45:33.456758
1601  2023-12-05 10:45:33.488693
1602  2023-12-05 10:45:33.520586
1603  2023-12-05 10:45:33.552470
1604  2023-12-05 10:45:33.584416
1605  2023-12-05 10:45:33.616330
1606  2023-12-05 10:45:33.648245
1607  2023-12-05 10:45:33.680162
1608  2023-12-05 10:45:33.727999
1609  2023-12-05 10:45:33.759952
1610  2023-12-05 10:45:33.791862
1611  2023-12-05 10:45:33.824904
1612  2023-12-05 10:45:33.856794
1613  2023-12-05 10:45:33.888731
1614  2023-12-05 10:45:33.920655
1615  2023-12-05 10:45:33.952561
1616  2023-12-05 10:45:33.984476
1617  2023-12-05 10:45:34.016390
1618  2023-12-05 10:45:34.048310
1619  2023-12-05 10:45:34.080230
1620  2023-12-05 10:45:34.128105
1621  2023-12-05 10:45:34.159973
1622  2023-12-05 10:45:34.191918
1623  2023-12-05 10:45:34.224837
1624  2023-12-05 10:45:34.256752
1625  2023-12-05 10:45:34.288682
1626  2023-12-05 10:45:34.320576
1627  2023-12-05 10:45:34.352498
1628  2023-12-05 10:45:34.384406
1629  2023-12-05 10:45:34.416319
1630  2023-12-05 10:45:34.448238
1631  2023-12-05 10:45:34.480157
1632  2023-12-05 10:45:34.527988
1633  2023-12-05 10:45:34.559936
1634  2023-12-05 10:45:34.592846
1635  2023-12-05 10:45:34.624762
1636  2023-12-05 10:45:34.656690
1637  2023-12-05 10:45:34.688591
1638  2023-12-05 10:45:34.720509
1639  2023-12-05 10:45:34.752425
1640  2023-12-05 10:45:34.784335
1641  2023-12-05 10:45:34.816265
1642  2023-12-05 10:45:34.848185
1643  2023-12-05 10:45:34.880078
1644  2023-12-05 10:45:34.928037
1645  2023-12-05 10:45:34.959987
1646  2023-12-05 10:45:34.991906
1647  2023-12-05 10:45:35.023787
1648  2023-12-05 10:45:35.056695
1649  2023-12-05 10:45:35.088713
1650  2023-12-05 10:45:35.120625
1651  2023-12-05 10:45:35.152542
1652  2023-12-05 10:45:35.184464
1653  2023-12-05 10:45:35.216373
1654  2023-12-05 10:45:35.248290
1655  2023-12-05 10:45:35.280217
1656  2023-12-05 10:45:35.328053
1657  2023-12-05 10:45:35.359987
1658  2023-12-05 10:45:35.391901
1659  2023-12-05 10:45:35.424783
1660  2023-12-05 10:45:35.455733
1661  2023-12-05 10:45:35.488680
1662  2023-12-05 10:45:35.520593
1663  2023-12-05 10:45:35.552514
1664  2023-12-05 10:45:35.584421
1665  2023-12-05 10:45:35.616339
1666  2023-12-05 10:45:35.648252
1667  2023-12-05 10:45:35.680168
1668  2023-12-05 10:45:35.728005
1669  2023-12-05 10:45:35.759971
1670  2023-12-05 10:45:35.791873
1671  2023-12-05 10:45:35.823781
1672  2023-12-05 10:45:35.856698
1673  2023-12-05 10:45:35.888622
1674  2023-12-05 10:45:35.920531
1675  2023-12-05 10:45:35.952541
1676  2023-12-05 10:45:35.984454
1677  2023-12-05 10:45:36.016369
1678  2023-12-05 10:45:36.048292
1679  2023-12-05 10:45:36.080210
1680  2023-12-05 10:45:36.128045
1681  2023-12-05 10:45:36.159950
1682  2023-12-05 10:45:36.191902
1683  2023-12-05 10:45:36.223814
1684  2023-12-05 10:45:36.255731
1685  2023-12-05 10:45:36.288653
1686  2023-12-05 10:45:36.320520
1687  2023-12-05 10:45:36.352468
1688  2023-12-05 10:45:36.384381
1689  2023-12-05 10:45:36.416304
1690  2023-12-05 10:45:36.448240
1691  2023-12-05 10:45:36.480136
1692  2023-12-05 10:45:36.527999
1693  2023-12-05 10:45:36.559917
1694  2023-12-05 10:45:36.591831
1695  2023-12-05 10:45:36.623751
1696  2023-12-05 10:45:36.656668
1697  2023-12-05 10:45:36.688570
1698  2023-12-05 10:45:36.720484
1699  2023-12-05 10:45:36.752365
1700  2023-12-05 10:45:36.784325
1701  2023-12-05 10:45:36.815981
1702  2023-12-05 10:45:36.847950
1703  2023-12-05 10:45:36.879859
1704  2023-12-05 10:45:36.928694
1705  2023-12-05 10:45:36.960609
1706  2023-12-05 10:45:36.992523
1707  2023-12-05 10:45:37.024474
1708  2023-12-05 10:45:37.056424
1709  2023-12-05 10:45:37.088340
1710  2023-12-05 10:45:37.120319
1711  2023-12-05 10:45:37.152308
1712  2023-12-05 10:45:37.184254
1713  2023-12-05 10:45:37.216169
1714  2023-12-05 10:45:37.248083
1715  2023-12-05 10:45:37.295950
1716  2023-12-05 10:45:37.327903
1717  2023-12-05 10:45:37.360750
1718  2023-12-05 10:45:37.392664
1719  2023-12-05 10:45:37.424613
1720  2023-12-05 10:45:37.456527
1721  2023-12-05 10:45:37.488440
1722  2023-12-05 10:45:37.520323
1723  2023-12-05 10:45:37.552280
1724  2023-12-05 10:45:37.584193
1725  2023-12-05 10:45:37.616100
1726  2023-12-05 10:45:37.648014
1727  2023-12-05 10:45:37.695853
1728  2023-12-05 10:45:37.727768
1729  2023-12-05 10:45:37.760683
1730  2023-12-05 10:45:37.792594
1731  2023-12-05 10:45:37.824535
1732  2023-12-05 10:45:37.856455
1733  2023-12-05 10:45:37.888420
1734  2023-12-05 10:45:37.920416
1735  2023-12-05 10:45:37.952327
1736  2023-12-05 10:45:37.984245
1737  2023-12-05 10:45:38.016159
1738  2023-12-05 10:45:38.048072
1739  2023-12-05 10:45:38.095955
1740  2023-12-05 10:45:38.127827
1741  2023-12-05 10:45:38.160739
1742  2023-12-05 10:45:38.192654
1743  2023-12-05 10:45:38.224603
1744  2023-12-05 10:45:38.256634
1745  2023-12-05 10:45:38.288622
1746  2023-12-05 10:45:38.320629
1747  2023-12-05 10:45:38.352577
1748  2023-12-05 10:45:38.384556
1749  2023-12-05 10:45:38.416634
1750  2023-12-05 10:45:38.448629
1751  2023-12-05 10:45:38.496468
1752  2023-12-05 10:45:38.528382
1753  2023-12-05 10:45:38.560438
1754  2023-12-05 10:45:38.592318
1755  2023-12-05 10:45:38.624268
1756  2023-12-05 10:45:38.656211
1757  2023-12-05 10:45:38.688099
1758  2023-12-05 10:45:38.720011
1759  2023-12-05 10:45:38.751926
1760  2023-12-05 10:45:38.783842
1761  2023-12-05 10:45:38.815761
1762  2023-12-05 10:45:38.848690
1763  2023-12-05 10:45:38.896504
1764  2023-12-05 10:45:38.928419
1765  2023-12-05 10:45:38.960333
1766  2023-12-05 10:45:38.992248
1767  2023-12-05 10:45:39.024198
1768  2023-12-05 10:45:39.056119
1769  2023-12-05 10:45:39.088048
1770  2023-12-05 10:45:39.119982
1771  2023-12-05 10:45:39.151917
1772  2023-12-05 10:45:39.183868
1773  2023-12-05 10:45:39.215790
1774  2023-12-05 10:45:39.248701
1775  2023-12-05 10:45:39.296532
1776  2023-12-05 10:45:39.328447
1777  2023-12-05 10:45:39.360361
1778  2023-12-05 10:45:39.392276
1779  2023-12-05 10:45:39.424191
1780  2023-12-05 10:45:39.456146
1781  2023-12-05 10:45:39.488065
1782  2023-12-05 10:45:39.519974
1783  2023-12-05 10:45:39.551883
1784  2023-12-05 10:45:39.584761
1785  2023-12-05 10:45:39.616676
1786  2023-12-05 10:45:39.648635
1787  2023-12-05 10:45:39.696462
1788  2023-12-05 10:45:39.728377
1789  2023-12-05 10:45:39.760325
1790  2023-12-05 10:45:39.792206
1791  2023-12-05 10:45:39.824121
1792  2023-12-05 10:45:39.856069
1793  2023-12-05 10:45:39.887980
1794  2023-12-05 10:45:39.919898
1795  2023-12-05 10:45:39.951779
1796  2023-12-05 10:45:39.984691
1797  2023-12-05 10:45:40.016670
1798  2023-12-05 10:45:40.048554
1799  2023-12-05 10:45:40.096529
1800  2023-12-05 10:45:40.128416
1801  2023-12-05 10:45:40.160331
1802  2023-12-05 10:45:40.192252
1803  2023-12-05 10:45:40.224193
1804  2023-12-05 10:45:40.256114
1805  2023-12-05 10:45:40.288022
1806  2023-12-05 10:45:40.319939
1807  2023-12-05 10:45:40.351856
1808  2023-12-05 10:45:40.384762
1809  2023-12-05 10:45:40.416689
1810  2023-12-05 10:45:40.448601
1811  2023-12-05 10:45:40.496431
1812  2023-12-05 10:45:40.528346
1813  2023-12-05 10:45:40.560293
1814  2023-12-05 10:45:40.592210
1815  2023-12-05 10:45:40.624090
1816  2023-12-05 10:45:40.656040
1817  2023-12-05 10:45:40.687963
1818  2023-12-05 10:45:40.719870
1819  2023-12-05 10:45:40.751749
1820  2023-12-05 10:45:40.784661
1821  2023-12-05 10:45:40.816608
1822  2023-12-05 10:45:40.864447
1823  2023-12-05 10:45:40.896362
1824  2023-12-05 10:45:40.928276
1825  2023-12-05 10:45:40.960191
1826  2023-12-05 10:45:40.992105
1827  2023-12-05 10:45:41.024077
1828  2023-12-05 10:45:41.055967
1829  2023-12-05 10:45:41.087891
1830  2023-12-05 10:45:41.120761
1831  2023-12-05 10:45:41.151715
1832  2023-12-05 10:45:41.184591
1833  2023-12-05 10:45:41.216505
1834  2023-12-05 10:45:41.264377
1835  2023-12-05 10:45:41.296292
1836  2023-12-05 10:45:41.328206
1837  2023-12-05 10:45:41.360228
1838  2023-12-05 10:45:41.392143
1839  2023-12-05 10:45:41.424058
1840  2023-12-05 10:45:41.455973
1841  2023-12-05 10:45:41.487887
1842  2023-12-05 10:45:41.519842
1843  2023-12-05 10:45:41.552747
1844  2023-12-05 10:45:41.584662
1845  2023-12-05 10:45:41.616543
1846  2023-12-05 10:45:41.664415
1847  2023-12-05 10:45:41.696330
1848  2023-12-05 10:45:41.728260
1849  2023-12-05 10:45:41.760266
1850  2023-12-05 10:45:41.792179
1851  2023-12-05 10:45:41.824093
1852  2023-12-05 10:45:41.856008
1853  2023-12-05 10:45:41.887954
1854  2023-12-05 10:45:41.919884
1855  2023-12-05 10:45:41.951752
1856  2023-12-05 10:45:41.984664
1857  2023-12-05 10:45:42.016614
1858  2023-12-05 10:45:42.064450
1859  2023-12-05 10:45:42.096422
1860  2023-12-05 10:45:42.128205
1861  2023-12-05 10:45:42.160161
1862  2023-12-05 10:45:42.192075
1863  2023-12-05 10:45:42.224020
1864  2023-12-05 10:45:42.255950
1865  2023-12-05 10:45:42.287819
1866  2023-12-05 10:45:42.320731
1867  2023-12-05 10:45:42.352646
1868  2023-12-05 10:45:42.384595
1869  2023-12-05 10:45:42.416475
1870  2023-12-05 10:45:42.464377
1871  2023-12-05 10:45:42.496261
1872  2023-12-05 10:45:42.528176
1873  2023-12-05 10:45:42.560125
1874  2023-12-05 10:45:42.592036
1875  2023-12-05 10:45:42.623963
1876  2023-12-05 10:45:42.655835
1877  2023-12-05 10:45:42.687792
1878  2023-12-05 10:45:42.719704
1879  2023-12-05 10:45:42.752576
1880  2023-12-05 10:45:42.784490
1881  2023-12-05 10:45:42.816405
1882  2023-12-05 10:45:42.864277
1883  2023-12-05 10:45:42.896200
1884  2023-12-05 10:45:42.928106
1885  2023-12-05 10:45:42.960021
1886  2023-12-05 10:45:42.991935
1887  2023-12-05 10:45:43.023885
1888  2023-12-05 10:45:43.056762
1889  2023-12-05 10:45:43.087679
1890  2023-12-05 10:45:43.120591
1891  2023-12-05 10:45:43.152506
1892  2023-12-05 10:45:43.184420
1893  2023-12-05 10:45:43.216335
1894  2023-12-05 10:45:43.264207
1895  2023-12-05 10:45:43.296122
1896  2023-12-05 10:45:43.328124
1897  2023-12-05 10:45:43.360086
1898  2023-12-05 10:45:43.392001
1899  2023-12-05 10:45:43.424913
1900  2023-12-05 10:45:43.456909
1901  2023-12-05 10:45:43.487826
1902  2023-12-05 10:45:43.520738
1903  2023-12-05 10:45:43.552689
1904  2023-12-05 10:45:43.584594
1905  2023-12-05 10:45:43.616483
1906  2023-12-05 10:45:43.664354
1907  2023-12-05 10:45:43.696268
1908  2023-12-05 10:45:43.728291
1909  2023-12-05 10:45:43.760257
1910  2023-12-05 10:45:43.792175
1911  2023-12-05 10:45:43.824082
1912  2023-12-05 10:45:43.856029
1913  2023-12-05 10:45:43.887940
1914  2023-12-05 10:45:43.919872
1915  2023-12-05 10:45:43.952738
1916  2023-12-05 10:45:43.984653
1917  2023-12-05 10:45:44.016616
1918  2023-12-05 10:45:44.064439
1919  2023-12-05 10:45:44.096388
1920  2023-12-05 10:45:44.128304
1921  2023-12-05 10:45:44.160183
1922  2023-12-05 10:45:44.192097
1923  2023-12-05 10:45:44.224065
1924  2023-12-05 10:45:44.255963
1925  2023-12-05 10:45:44.287842
1926  2023-12-05 10:45:44.320753
1927  2023-12-05 10:45:44.352699
1928  2023-12-05 10:45:44.384623
1929  2023-12-05 10:45:44.416497
1930  2023-12-05 10:45:44.464529
1931  2023-12-05 10:45:44.496411
1932  2023-12-05 10:45:44.528326
1933  2023-12-05 10:45:44.560289
1934  2023-12-05 10:45:44.592189
1935  2023-12-05 10:45:44.624070
1936  2023-12-05 10:45:44.655984
1937  2023-12-05 10:45:44.687930
1938  2023-12-05 10:45:44.719855
1939  2023-12-05 10:45:44.751761
1940  2023-12-05 10:45:44.784640
1941  2023-12-05 10:45:44.832512
1942  2023-12-05 10:45:44.864427
1943  2023-12-05 10:45:44.896390
1944  2023-12-05 10:45:44.928256
1945  2023-12-05 10:45:44.960170
1946  2023-12-05 10:45:44.992085
1947  2023-12-05 10:45:45.024050
1948  2023-12-05 10:45:45.055914
1949  2023-12-05 10:45:45.087829
1950  2023-12-05 10:45:45.120741
1951  2023-12-05 10:45:45.152656
1952  2023-12-05 10:45:45.184570
1953  2023-12-05 10:45:45.232442
1954  2023-12-05 10:45:45.264357
1955  2023-12-05 10:45:45.296271
1956  2023-12-05 10:45:45.328186
1957  2023-12-05 10:45:45.360116
1958  2023-12-05 10:45:45.392015
1959  2023-12-05 10:45:45.423930
1960  2023-12-05 10:45:45.456844
1961  2023-12-05 10:45:45.498730
1962  2023-12-05 10:45:45.520675
1963  2023-12-05 10:45:45.552497
1964  2023-12-05 10:45:45.584495
1965  2023-12-05 10:45:45.632320
1966  2023-12-05 10:45:45.664234
1967  2023-12-05 10:45:45.696149
1968  2023-12-05 10:45:45.728064
1969  2023-12-05 10:45:45.760015
1970  2023-12-05 10:45:45.791893
1971  2023-12-05 10:45:45.823838
1972  2023-12-05 10:45:45.856720
1973  2023-12-05 10:45:45.888695
1974  2023-12-05 10:45:45.920581
1975  2023-12-05 10:45:45.952464
1976  2023-12-05 10:45:45.984378
1977  2023-12-05 10:45:46.032250
1978  2023-12-05 10:45:46.064165
1979  2023-12-05 10:45:46.096109
1980  2023-12-05 10:45:46.127994
1981  2023-12-05 10:45:46.159908
1982  2023-12-05 10:45:46.192821
1983  2023-12-05 10:45:46.223770
1984  2023-12-05 10:45:46.256714
1985  2023-12-05 10:45:46.288753
1986  2023-12-05 10:45:46.319747
1987  2023-12-05 10:45:46.352700
1988  2023-12-05 10:45:46.384583
1989  2023-12-05 10:45:46.432489
1990  2023-12-05 10:45:46.464370
1991  2023-12-05 10:45:46.496284
1992  2023-12-05 10:45:46.528199
1993  2023-12-05 10:45:46.560114
1994  2023-12-05 10:45:46.592028
1995  2023-12-05 10:45:46.623943
1996  2023-12-05 10:45:46.656855
1997  2023-12-05 10:45:46.688770
1998  2023-12-05 10:45:46.720684
1999  2023-12-05 10:45:46.752599
2000  2023-12-05 10:45:46.784513
2001  2023-12-05 10:45:46.832385
2002  2023-12-05 10:45:46.864300
2003  2023-12-05 10:45:46.896215
2004  2023-12-05 10:45:46.928129
2005  2023-12-05 10:45:46.960044
2006  2023-12-05 10:45:46.991958
2007  2023-12-05 10:45:47.023911
2008  2023-12-05 10:45:47.057819
2009  2023-12-05 10:45:47.089747
2010  2023-12-05 10:45:47.120614
2011  2023-12-05 10:45:47.152529
2012  2023-12-05 10:45:47.185472
2013  2023-12-05 10:45:47.233346
2014  2023-12-05 10:45:47.264237
2015  2023-12-05 10:45:47.296146
2016  2023-12-05 10:45:47.329090
2017  2023-12-05 10:45:47.361004
2018  2023-12-05 10:45:47.392921
2019  2023-12-05 10:45:47.424846
2020  2023-12-05 10:45:47.456763
2021  2023-12-05 10:45:47.488630
2022  2023-12-05 10:45:47.520545
2023  2023-12-05 10:45:47.553503
2024  2023-12-05 10:45:47.585403
2025  2023-12-05 10:45:47.633274
2026  2023-12-05 10:45:47.665189
2027  2023-12-05 10:45:47.697109
2028  2023-12-05 10:45:47.729024
2029  2023-12-05 10:45:47.760935
2030  2023-12-05 10:45:47.792860
2031  2023-12-05 10:45:47.824768
2032  2023-12-05 10:45:47.856678
2033  2023-12-05 10:45:47.888591
2034  2023-12-05 10:45:47.920509
2035  2023-12-05 10:45:47.952420
2036  2023-12-05 10:45:47.984304
2037  2023-12-05 10:45:48.032211
2038  2023-12-05 10:45:48.065141
2039  2023-12-05 10:45:48.097064
2040  2023-12-05 10:45:48.127919
2041  2023-12-05 10:45:48.160861
2042  2023-12-05 10:45:48.192909
2043  2023-12-05 10:45:48.224818
2044  2023-12-05 10:45:48.256728
2045  2023-12-05 10:45:48.288643
2046  2023-12-05 10:45:48.320573
2047  2023-12-05 10:45:48.352475
2048  2023-12-05 10:45:48.400354
2049  2023-12-05 10:45:48.432256
2050  2023-12-05 10:45:48.464170
2051  2023-12-05 10:45:48.496053
2052  2023-12-05 10:45:48.528018
2053  2023-12-05 10:45:48.559881
2054  2023-12-05 10:45:48.591797
2055  2023-12-05 10:45:48.624751
2056  2023-12-05 10:45:48.656653
2057  2023-12-05 10:45:48.688571
2058  2023-12-05 10:45:48.720488
2059  2023-12-05 10:45:48.752398
2060  2023-12-05 10:45:48.800270
2061  2023-12-05 10:45:48.832184
2062  2023-12-05 10:45:48.864102
2063  2023-12-05 10:45:48.896013
2064  2023-12-05 10:45:48.927930
2065  2023-12-05 10:45:48.960809
2066  2023-12-05 10:45:48.991758
2067  2023-12-05 10:45:49.024647
2068  2023-12-05 10:45:49.057597
2069  2023-12-05 10:45:49.088469
2070  2023-12-05 10:45:49.120432
2071  2023-12-05 10:45:49.152444
2072  2023-12-05 10:45:49.200308
2073  2023-12-05 10:45:49.232231
2074  2023-12-05 10:45:49.264146
2075  2023-12-05 10:45:49.296068
2076  2023-12-05 10:45:49.328975
2077  2023-12-05 10:45:49.360855
2078  2023-12-05 10:45:49.391807
2079  2023-12-05 10:45:49.424684
2080  2023-12-05 10:45:49.457637
2081  2023-12-05 10:45:49.489555
2082  2023-12-05 10:45:49.521457
2083  2023-12-05 10:45:49.552344
2084  2023-12-05 10:45:49.601242
2085  2023-12-05 10:45:49.632173
2086  2023-12-05 10:45:49.664102
2087  2023-12-05 10:45:49.696990
2088  2023-12-05 10:45:49.728905
2089  2023-12-05 10:45:49.760829
2090  2023-12-05 10:45:49.792744
2091  2023-12-05 10:45:49.824678
2092  2023-12-05 10:45:49.856574
2093  2023-12-05 10:45:49.888477
2094  2023-12-05 10:45:49.920393
2095  2023-12-05 10:45:49.952273
2096  2023-12-05 10:45:50.000144
2097  2023-12-05 10:45:50.032058
2098  2023-12-05 10:45:50.064009
2099  2023-12-05 10:45:50.096919
2100  2023-12-05 10:45:50.128834
2101  2023-12-05 10:45:50.160740
2102  2023-12-05 10:45:50.192628
2103  2023-12-05 10:45:50.224577
2104  2023-12-05 10:45:50.256488
2105  2023-12-05 10:45:50.288405
2106  2023-12-05 10:45:50.320320
2107  2023-12-05 10:45:50.352236
2108  2023-12-05 10:45:50.400109
2109  2023-12-05 10:45:50.432019
2110  2023-12-05 10:45:50.463903
2111  2023-12-05 10:45:50.495818
2112  2023-12-05 10:45:50.527732
2113  2023-12-05 10:45:50.560644
2114  2023-12-05 10:45:50.592595
2115  2023-12-05 10:45:50.624519
2116  2023-12-05 10:45:50.656425
2117  2023-12-05 10:45:50.688405
2118  2023-12-05 10:45:50.720401
2119  2023-12-05 10:45:50.752317
2120  2023-12-05 10:45:50.800181
2121  2023-12-05 10:45:50.832111
2122  2023-12-05 10:45:50.863977
2123  2023-12-05 10:45:50.895925
2124  2023-12-05 10:45:50.927809
2125  2023-12-05 10:45:50.960720
2126  2023-12-05 10:45:50.992685
2127  2023-12-05 10:45:51.024580
2128  2023-12-05 10:45:51.056494
2129  2023-12-05 10:45:51.088399
2130  2023-12-05 10:45:51.120362
2131  2023-12-05 10:45:51.152237
2132  2023-12-05 10:45:51.200122
2133  2023-12-05 10:45:51.232026
2134  2023-12-05 10:45:51.264009
2135  2023-12-05 10:45:51.295892
2136  2023-12-05 10:45:51.328841
2137  2023-12-05 10:45:51.360756
2138  2023-12-05 10:45:51.392665
2139  2023-12-05 10:45:51.424581
2140  2023-12-05 10:45:51.456494
2141  2023-12-05 10:45:51.488418
2142  2023-12-05 10:45:51.520330
2143  2023-12-05 10:45:51.552235
2144  2023-12-05 10:45:51.600135
2145  2023-12-05 10:45:51.632061
2146  2023-12-05 10:45:51.663908
2147  2023-12-05 10:45:51.695822
2148  2023-12-05 10:45:51.728775
2149  2023-12-05 10:45:51.760709
2150  2023-12-05 10:45:51.792617
2151  2023-12-05 10:45:51.824479
2152  2023-12-05 10:45:51.856451
2153  2023-12-05 10:45:51.888485
2154  2023-12-05 10:45:51.920400
2155  2023-12-05 10:45:51.952314
2156  2023-12-05 10:45:52.000219
2157  2023-12-05 10:45:52.032156
2158  2023-12-05 10:45:52.064014
2159  2023-12-05 10:45:52.095967
2160  2023-12-05 10:45:52.128874
2161  2023-12-05 10:45:52.160795
2162  2023-12-05 10:45:52.192737
2163  2023-12-05 10:45:52.224627
2164  2023-12-05 10:45:52.256539
2165  2023-12-05 10:45:52.288446
2166  2023-12-05 10:45:52.320359
2167  2023-12-05 10:45:52.368231
2168  2023-12-05 10:45:52.400152
2169  2023-12-05 10:45:52.432067
2170  2023-12-05 10:45:52.463978
2171  2023-12-05 10:45:52.495859
2172  2023-12-05 10:45:52.527807
2173  2023-12-05 10:45:52.560719
2174  2023-12-05 10:45:52.592635
2175  2023-12-05 10:45:52.624550
2176  2023-12-05 10:45:52.656465
2177  2023-12-05 10:45:52.688380
2178  2023-12-05 10:45:52.720297
2179  2023-12-05 10:45:52.768179
2180  2023-12-05 10:45:52.800077
2181  2023-12-05 10:45:52.831996
2182  2023-12-05 10:45:52.863875
2183  2023-12-05 10:45:52.895820
2184  2023-12-05 10:45:52.927734
2185  2023-12-05 10:45:52.960648
2186  2023-12-05 10:45:52.992585
2187  2023-12-05 10:45:53.024476
2188  2023-12-05 10:45:53.056392
2189  2023-12-05 10:45:53.088301
2190  2023-12-05 10:45:53.120220
2191  2023-12-05 10:45:53.168100
2192  2023-12-05 10:45:53.200009
2193  2023-12-05 10:45:53.231931
2194  2023-12-05 10:45:53.263837
2195  2023-12-05 10:45:53.296726
2196  2023-12-05 10:45:53.328631
2197  2023-12-05 10:45:53.360581
2198  2023-12-05 10:45:53.392495
2199  2023-12-05 10:45:53.424405
2200  2023-12-05 10:45:53.456328
2201  2023-12-05 10:45:53.488231
2202  2023-12-05 10:45:53.520183
2203  2023-12-05 10:45:53.568022
2204  2023-12-05 10:45:53.599938
2205  2023-12-05 10:45:53.632820
2206  2023-12-05 10:45:53.663771
2207  2023-12-05 10:45:53.695682
2208  2023-12-05 10:45:53.728596
2209  2023-12-05 10:45:53.760518
2210  2023-12-05 10:45:53.792430
2211  2023-12-05 10:45:53.824340
2212  2023-12-05 10:45:53.856253
2213  2023-12-05 10:45:53.888136
2214  2023-12-05 10:45:53.920084
2215  2023-12-05 10:45:53.967958
2216  2023-12-05 10:45:54.000869
2217  2023-12-05 10:45:54.031786
2218  2023-12-05 10:45:54.063701
2219  2023-12-05 10:45:54.096614
2220  2023-12-05 10:45:54.128525
2221  2023-12-05 10:45:54.160443
2222  2023-12-05 10:45:54.192352
2223  2023-12-05 10:45:54.224265
2224  2023-12-05 10:45:54.256193
2225  2023-12-05 10:45:54.288099
2226  2023-12-05 10:45:54.320009
2227  2023-12-05 10:45:54.367886
2228  2023-12-05 10:45:54.399799
2229  2023-12-05 10:45:54.431714
2230  2023-12-05 10:45:54.464650
2231  2023-12-05 10:45:54.496507
2232  2023-12-05 10:45:54.528422
2233  2023-12-05 10:45:54.560368
2234  2023-12-05 10:45:54.592290
2235  2023-12-05 10:45:54.624203
2236  2023-12-05 10:45:54.656117
2237  2023-12-05 10:45:54.688050
2238  2023-12-05 10:45:54.719940
2239  2023-12-05 10:45:54.767815
2240  2023-12-05 10:45:54.799734
2241  2023-12-05 10:45:54.832643
2242  2023-12-05 10:45:54.864523
2243  2023-12-05 10:45:54.896469
2244  2023-12-05 10:45:54.928352
2245  2023-12-05 10:45:54.960301
2246  2023-12-05 10:45:54.992217
2247  2023-12-05 10:45:55.024129
2248  2023-12-05 10:45:55.056050
2249  2023-12-05 10:45:55.088970
2250  2023-12-05 10:45:55.119874
2251  2023-12-05 10:45:55.168744
2252  2023-12-05 10:45:55.199666
2253  2023-12-05 10:45:55.232574
2254  2023-12-05 10:45:55.264484
2255  2023-12-05 10:45:55.296371
2256  2023-12-05 10:45:55.328282
2257  2023-12-05 10:45:55.360242
2258  2023-12-05 10:45:55.392236
2259  2023-12-05 10:45:55.424124
2260  2023-12-05 10:45:55.456066
2261  2023-12-05 10:45:55.487979
2262  2023-12-05 10:45:55.519898
2263  2023-12-05 10:45:55.567736
2264  2023-12-05 10:45:55.600650
2265  2023-12-05 10:45:55.632565
2266  2023-12-05 10:45:55.664513
2267  2023-12-05 10:45:55.696423
2268  2023-12-05 10:45:55.728347
2269  2023-12-05 10:45:55.760261
2270  2023-12-05 10:45:55.792191
2271  2023-12-05 10:45:55.824097
2272  2023-12-05 10:45:55.856001
2273  2023-12-05 10:45:55.887914
2274  2023-12-05 10:45:55.919830
2275  2023-12-05 10:45:55.967705
2276  2023-12-05 10:45:56.000578
2277  2023-12-05 10:45:56.032524
2278  2023-12-05 10:45:56.064439
2279  2023-12-05 10:45:56.096355
2280  2023-12-05 10:45:56.128236
2281  2023-12-05 10:45:56.160202
2282  2023-12-05 10:45:56.192097
2283  2023-12-05 10:45:56.224021
2284  2023-12-05 10:45:56.255929
2285  2023-12-05 10:45:56.287845
2286  2023-12-05 10:45:56.335718
2287  2023-12-05 10:45:56.368593
2288  2023-12-05 10:45:56.400544
2289  2023-12-05 10:45:56.432454
2290  2023-12-05 10:45:56.464373
2291  2023-12-05 10:45:56.496283
2292  2023-12-05 10:45:56.528166
2293  2023-12-05 10:45:56.560123
2294  2023-12-05 10:45:56.592047
2295  2023-12-05 10:45:56.623945
2296  2023-12-05 10:45:56.655866
2297  2023-12-05 10:45:56.687796
2298  2023-12-05 10:45:56.736640
2299  2023-12-05 10:45:56.768599
2300  2023-12-05 10:45:56.800514
2301  2023-12-05 10:45:56.832507
2302  2023-12-05 10:45:56.864426
2303  2023-12-05 10:45:56.896339
2304  2023-12-05 10:45:56.928350
2305  2023-12-05 10:45:56.960373
2306  2023-12-05 10:45:56.992318
2307  2023-12-05 10:45:57.024233
2308  2023-12-05 10:45:57.056167
2309  2023-12-05 10:45:57.088069
2310  2023-12-05 10:45:57.135904
2311  2023-12-05 10:45:57.167935
2312  2023-12-05 10:45:57.199848
2313  2023-12-05 10:45:57.231833
2314  2023-12-05 10:45:57.264808
2315  2023-12-05 10:45:57.295830
2316  2023-12-05 10:45:57.328742
2317  2023-12-05 10:45:57.360627
2318  2023-12-05 10:45:57.392671
2319  2023-12-05 10:45:57.424622
2320  2023-12-05 10:45:57.456598
2321  2023-12-05 10:45:57.488580
2322  2023-12-05 10:45:57.536446
2323  2023-12-05 10:45:57.568328
2324  2023-12-05 10:45:57.600288
2325  2023-12-05 10:45:57.632199
2326  2023-12-05 10:45:57.664114
2327  2023-12-05 10:45:57.696029
2328  2023-12-05 10:45:57.727934
2329  2023-12-05 10:45:57.760847
2330  2023-12-05 10:45:57.791765
2331  2023-12-05 10:45:57.824677
2332  2023-12-05 10:45:57.856605
2333  2023-12-05 10:45:57.888506
2334  2023-12-05 10:45:57.936376
2335  2023-12-05 10:45:57.968291
2336  2023-12-05 10:45:58.000292
2337  2023-12-05 10:45:58.032206
2338  2023-12-05 10:45:58.064124
2339  2023-12-05 10:45:58.096049
2340  2023-12-05 10:45:58.127928
2341  2023-12-05 10:45:58.160828
2342  2023-12-05 10:45:58.191781
2343  2023-12-05 10:45:58.224694
2344  2023-12-05 10:45:58.255781
2345  2023-12-05 10:45:58.288707
2346  2023-12-05 10:45:58.336578
2347  2023-12-05 10:45:58.368444
2348  2023-12-05 10:45:58.400359
2349  2023-12-05 10:45:58.432398
2350  2023-12-05 10:45:58.464319
2351  2023-12-05 10:45:58.496312
2352  2023-12-05 10:45:58.528318
2353  2023-12-05 10:45:58.560271
2354  2023-12-05 10:45:58.592186
2355  2023-12-05 10:45:58.624094
2356  2023-12-05 10:45:58.656018
2357  2023-12-05 10:45:58.687925
2358  2023-12-05 10:45:58.735799
2359  2023-12-05 10:45:58.767947
2360  2023-12-05 10:45:58.799816
2361  2023-12-05 10:45:58.831731
2362  2023-12-05 10:45:58.864670
2363  2023-12-05 10:45:58.896610
2364  2023-12-05 10:45:58.928503
2365  2023-12-05 10:45:58.960387
2366  2023-12-05 10:45:58.992301
2367  2023-12-05 10:45:59.024253
2368  2023-12-05 10:45:59.056175
2369  2023-12-05 10:45:59.088087
2370  2023-12-05 10:45:59.135952
2371  2023-12-05 10:45:59.167867
2372  2023-12-05 10:45:59.199746
2373  2023-12-05 10:45:59.232658
2374  2023-12-05 10:45:59.264616
2375  2023-12-05 10:45:59.296519
2376  2023-12-05 10:45:59.328453
2377  2023-12-05 10:45:59.360435
2378  2023-12-05 10:45:59.392350
2379  2023-12-05 10:45:59.424272
2380  2023-12-05 10:45:59.456223
2381  2023-12-05 10:45:59.488127
2382  2023-12-05 10:45:59.535999
2383  2023-12-05 10:45:59.567914
2384  2023-12-05 10:45:59.599827
2385  2023-12-05 10:45:59.631744
2386  2023-12-05 10:45:59.664621
2387  2023-12-05 10:45:59.696568
2388  2023-12-05 10:45:59.728463
2389  2023-12-05 10:45:59.760396
2390  2023-12-05 10:45:59.792280
2391  2023-12-05 10:45:59.824197
2392  2023-12-05 10:45:59.856138
2393  2023-12-05 10:45:59.904015
2394  2023-12-05 10:45:59.935931
2395  2023-12-05 10:45:59.967841
2396  2023-12-05 10:45:59.999725
2397  2023-12-05 10:46:00.032637
2398  2023-12-05 10:46:00.064584
2399  2023-12-05 10:46:00.096513
2400  2023-12-05 10:46:00.128409
2401  2023-12-05 10:46:00.160295
2402  2023-12-05 10:46:00.192210
2403  2023-12-05 10:46:00.224171
2404  2023-12-05 10:46:00.256072
2405  2023-12-05 10:46:00.303956
2406  2023-12-05 10:46:00.335862
2407  2023-12-05 10:46:00.368738
2408  2023-12-05 10:46:00.400660
2409  2023-12-05 10:46:00.432571
2410  2023-12-05 10:46:00.464482
2411  2023-12-05 10:46:00.496512
2412  2023-12-05 10:46:00.528427
2413  2023-12-05 10:46:00.560341
2414  2023-12-05 10:46:00.592256
2415  2023-12-05 10:46:00.624223
2416  2023-12-05 10:46:00.656118
2417  2023-12-05 10:46:00.703959
2418  2023-12-05 10:46:00.735873
2419  2023-12-05 10:46:00.767787
2420  2023-12-05 10:46:00.799702
2421  2023-12-05 10:46:00.832614
2422  2023-12-05 10:46:00.864529
2423  2023-12-05 10:46:00.896443
2424  2023-12-05 10:46:00.928423
2425  2023-12-05 10:46:00.960271
2426  2023-12-05 10:46:00.992186
2427  2023-12-05 10:46:01.024147
2428  2023-12-05 10:46:01.056047
2429  2023-12-05 10:46:01.103887
2430  2023-12-05 10:46:01.136836
2431  2023-12-05 10:46:01.168908
2432  2023-12-05 10:46:01.199788
2433  2023-12-05 10:46:01.232700
2434  2023-12-05 10:46:01.264646
2435  2023-12-05 10:46:01.296559
2436  2023-12-05 10:46:01.328444
2437  2023-12-05 10:46:01.360358
2438  2023-12-05 10:46:01.392300
2439  2023-12-05 10:46:01.424219
2440  2023-12-05 10:46:01.456138
2441  2023-12-05 10:46:01.504009
2442  2023-12-05 10:46:01.535925
2443  2023-12-05 10:46:01.568801
2444  2023-12-05 10:46:01.599750
2445  2023-12-05 10:46:01.631670
2446  2023-12-05 10:46:01.664545
2447  2023-12-05 10:46:01.696459
2448  2023-12-05 10:46:01.728408
2449  2023-12-05 10:46:01.760320
2450  2023-12-05 10:46:01.792312
2451  2023-12-05 10:46:01.824261
2452  2023-12-05 10:46:01.856296
2453  2023-12-05 10:46:01.904131
2454  2023-12-05 10:46:01.936080
2455  2023-12-05 10:46:01.967996
2456  2023-12-05 10:46:01.999875
2457  2023-12-05 10:46:02.031789
2458  2023-12-05 10:46:02.063739
2459  2023-12-05 10:46:02.096676
2460  2023-12-05 10:46:02.128531
2461  2023-12-05 10:46:02.160445
2462  2023-12-05 10:46:02.192360
2463  2023-12-05 10:46:02.224308
2464  2023-12-05 10:46:02.256228
2465  2023-12-05 10:46:02.304061
2466  2023-12-05 10:46:02.335976
2467  2023-12-05 10:46:02.367890
2468  2023-12-05 10:46:02.399805
2469  2023-12-05 10:46:02.431720
2470  2023-12-05 10:46:02.464632
2471  2023-12-05 10:46:02.496546
2472  2023-12-05 10:46:02.528461
2473  2023-12-05 10:46:02.560375
2474  2023-12-05 10:46:02.592377
2475  2023-12-05 10:46:02.624399
2476  2023-12-05 10:46:02.656349
2477  2023-12-05 10:46:02.704185
2478  2023-12-05 10:46:02.736236
2479  2023-12-05 10:46:02.768220
2480  2023-12-05 10:46:02.800134
2481  2023-12-05 10:46:02.832049
2482  2023-12-05 10:46:02.863963
2483  2023-12-05 10:46:02.895878
2484  2023-12-05 10:46:02.927793
2485  2023-12-05 10:46:02.959707
2486  2023-12-05 10:46:02.992620
2487  2023-12-05 10:46:03.024534
2488  2023-12-05 10:46:03.056520
2489  2023-12-05 10:46:03.104439
2490  2023-12-05 10:46:03.136354
2491  2023-12-05 10:46:03.168270
2492  2023-12-05 10:46:03.200183
2493  2023-12-05 10:46:03.232098
2494  2023-12-05 10:46:03.265011
2495  2023-12-05 10:46:03.296048
2496  2023-12-05 10:46:03.327928
2497  2023-12-05 10:46:03.359915
2498  2023-12-05 10:46:03.391909
2499  2023-12-05 10:46:03.423823
2500  2023-12-05 10:46:03.455782
2501  2023-12-05 10:46:03.503698
2502  2023-12-05 10:46:03.536610
2503  2023-12-05 10:46:03.568654
2504  2023-12-05 10:46:03.600613
2505  2023-12-05 10:46:03.632526
2506  2023-12-05 10:46:03.664398
2507  2023-12-05 10:46:03.696312
2508  2023-12-05 10:46:03.728265
2509  2023-12-05 10:46:03.760179
2510  2023-12-05 10:46:03.792185
2511  2023-12-05 10:46:03.824100
2512  2023-12-05 10:46:03.871971
2513  2023-12-05 10:46:03.903886
2514  2023-12-05 10:46:03.935839
2515  2023-12-05 10:46:03.967715
2516  2023-12-05 10:46:03.999630
2517  2023-12-05 10:46:04.032542
2518  2023-12-05 10:46:04.064457
2519  2023-12-05 10:46:04.096371
2520  2023-12-05 10:46:04.128285
2521  2023-12-05 10:46:04.160200
2522  2023-12-05 10:46:04.192115
2523  2023-12-05 10:46:04.224030
2524  2023-12-05 10:46:04.272048
2525  2023-12-05 10:46:04.303962
2526  2023-12-05 10:46:04.335877
2527  2023-12-05 10:46:04.367791
2528  2023-12-05 10:46:04.399706
2529  2023-12-05 10:46:04.431621
2530  2023-12-05 10:46:04.464533
2531  2023-12-05 10:46:04.496447
2532  2023-12-05 10:46:04.528362
2533  2023-12-05 10:46:04.560277
2534  2023-12-05 10:46:04.592191
2535  2023-12-05 10:46:04.624106
2536  2023-12-05 10:46:04.671978
2537  2023-12-05 10:46:04.703892
2538  2023-12-05 10:46:04.735807
2539  2023-12-05 10:46:04.767847
2540  2023-12-05 10:46:04.799795
2541  2023-12-05 10:46:04.832674
2542  2023-12-05 10:46:04.864589
2543  2023-12-05 10:46:04.896503
2544  2023-12-05 10:46:04.928457
2545  2023-12-05 10:46:04.960332
2546  2023-12-05 10:46:04.992247
2547  2023-12-05 10:46:05.024162
2548  2023-12-05 10:46:05.072034
2549  2023-12-05 10:46:05.103957
2550  2023-12-05 10:46:05.135899
2551  2023-12-05 10:46:05.167777
2552  2023-12-05 10:46:05.200689
2553  2023-12-05 10:46:05.232604
2554  2023-12-05 10:46:05.264566
2555  2023-12-05 10:46:05.296433
2556  2023-12-05 10:46:05.328350
2557  2023-12-05 10:46:05.360263
2558  2023-12-05 10:46:05.392209
2559  2023-12-05 10:46:05.424147
2560  2023-12-05 10:46:05.471964
2561  2023-12-05 10:46:05.503878
2562  2023-12-05 10:46:05.535793
2563  2023-12-05 10:46:05.567708
2564  2023-12-05 10:46:05.600620
2565  2023-12-05 10:46:05.632534
2566  2023-12-05 10:46:05.664449
2567  2023-12-05 10:46:05.696363
2568  2023-12-05 10:46:05.728278
2569  2023-12-05 10:46:05.760193
2570  2023-12-05 10:46:05.792107
2571  2023-12-05 10:46:05.824054
2572  2023-12-05 10:46:05.871894
2573  2023-12-05 10:46:05.903808
2574  2023-12-05 10:46:05.935723
2575  2023-12-05 10:46:05.968635
2576  2023-12-05 10:46:06.000550
2577  2023-12-05 10:46:06.032535
2578  2023-12-05 10:46:06.064518
2579  2023-12-05 10:46:06.096432
2580  2023-12-05 10:46:06.128347
2581  2023-12-05 10:46:06.160262
2582  2023-12-05 10:46:06.192176
2583  2023-12-05 10:46:06.224122
2584  2023-12-05 10:46:06.271963
2585  2023-12-05 10:46:06.303877
2586  2023-12-05 10:46:06.335792
2587  2023-12-05 10:46:06.368704
2588  2023-12-05 10:46:06.400619
2589  2023-12-05 10:46:06.432533
2590  2023-12-05 10:46:06.464448
2591  2023-12-05 10:46:06.496363
2592  2023-12-05 10:46:06.528277
2593  2023-12-05 10:46:06.560192
2594  2023-12-05 10:46:06.592113
2595  2023-12-05 10:46:06.624021
2596  2023-12-05 10:46:06.671893
2597  2023-12-05 10:46:06.704805
2598  2023-12-05 10:46:06.735722
2599  2023-12-05 10:46:06.767732
2600  2023-12-05 10:46:06.800644
2601  2023-12-05 10:46:06.832538
2602  2023-12-05 10:46:06.864453
2603  2023-12-05 10:46:06.896367
2604  2023-12-05 10:46:06.928282
2605  2023-12-05 10:46:06.961209
2606  2023-12-05 10:46:06.992111
2607  2023-12-05 10:46:07.024028
2608  2023-12-05 10:46:07.071898
2609  2023-12-05 10:46:07.103812
2610  2023-12-05 10:46:07.136757
2611  2023-12-05 10:46:07.168639
2612  2023-12-05 10:46:07.200553
2613  2023-12-05 10:46:07.232468
2614  2023-12-05 10:46:07.264420
2615  2023-12-05 10:46:07.296338
2616  2023-12-05 10:46:07.328212
2617  2023-12-05 10:46:07.360127
2618  2023-12-05 10:46:07.392077
2619  2023-12-05 10:46:07.439913
2620  2023-12-05 10:46:07.471868
2621  2023-12-05 10:46:07.503742
2622  2023-12-05 10:46:07.536655
2623  2023-12-05 10:46:07.568583
2624  2023-12-05 10:46:07.600519
2625  2023-12-05 10:46:07.632434
2626  2023-12-05 10:46:07.664313
2627  2023-12-05 10:46:07.696228
2628  2023-12-05 10:46:07.728145
2629  2023-12-05 10:46:07.760057
2630  2023-12-05 10:46:07.791971
2631  2023-12-05 10:46:07.839843
2632  2023-12-05 10:46:07.871758
2633  2023-12-05 10:46:07.904670
2634  2023-12-05 10:46:07.936585
2635  2023-12-05 10:46:07.968499
2636  2023-12-05 10:46:08.000414
2637  2023-12-05 10:46:08.032328
2638  2023-12-05 10:46:08.064243
2639  2023-12-05 10:46:08.096168
2640  2023-12-05 10:46:08.128072
2641  2023-12-05 10:46:08.159987
2642  2023-12-05 10:46:08.191902
2643  2023-12-05 10:46:08.239773
2644  2023-12-05 10:46:08.271688
2645  2023-12-05 10:46:08.304600
2646  2023-12-05 10:46:08.336515
2647  2023-12-05 10:46:08.368429
2648  2023-12-05 10:46:08.400345
2649  2023-12-05 10:46:08.432260
2650  2023-12-05 10:46:08.465172
2651  2023-12-05 10:46:08.496091
2652  2023-12-05 10:46:08.528010
2653  2023-12-05 10:46:08.559918
2654  2023-12-05 10:46:08.592830
2655  2023-12-05 10:46:08.639736
2656  2023-12-05 10:46:08.672731
2657  2023-12-05 10:46:08.703648
2658  2023-12-05 10:46:08.736560
2659  2023-12-05 10:46:08.768475
2660  2023-12-05 10:46:08.800391
2661  2023-12-05 10:46:08.832304
2662  2023-12-05 10:46:08.864219
2663  2023-12-05 10:46:08.896133
2664  2023-12-05 10:46:08.928080
2665  2023-12-05 10:46:08.959963
2666  2023-12-05 10:46:08.991877
2667  2023-12-05 10:46:09.039828
2668  2023-12-05 10:46:09.072740
2669  2023-12-05 10:46:09.104669
2670  2023-12-05 10:46:09.136569
2671  2023-12-05 10:46:09.168525
2672  2023-12-05 10:46:09.200429
2673  2023-12-05 10:46:09.232343
2674  2023-12-05 10:46:09.264339
2675  2023-12-05 10:46:09.296214
2676  2023-12-05 10:46:09.329252
2677  2023-12-05 10:46:09.361129
2678  2023-12-05 10:46:09.392120
2679  2023-12-05 10:46:09.440980
2680  2023-12-05 10:46:09.471898
2681  2023-12-05 10:46:09.505814
2682  2023-12-05 10:46:09.537724
2683  2023-12-05 10:46:09.569636
2684  2023-12-05 10:46:09.601551
2685  2023-12-05 10:46:09.633474
2686  2023-12-05 10:46:09.665386
2687  2023-12-05 10:46:09.697298
2688  2023-12-05 10:46:09.729210
2689  2023-12-05 10:46:09.761128
2690  2023-12-05 10:46:09.793046
2691  2023-12-05 10:46:09.840910
2692  2023-12-05 10:46:09.872826
2693  2023-12-05 10:46:09.904759
2694  2023-12-05 10:46:09.936624
2695  2023-12-05 10:46:09.968573
2696  2023-12-05 10:46:10.001483
2697  2023-12-05 10:46:10.033394
2698  2023-12-05 10:46:10.065310
2699  2023-12-05 10:46:10.097226
2700  2023-12-05 10:46:10.129152
2701  2023-12-05 10:46:10.161060
2702  2023-12-05 10:46:10.192966
2703  2023-12-05 10:46:10.240852
2704  2023-12-05 10:46:10.272894
2705  2023-12-05 10:46:10.304811
2706  2023-12-05 10:46:10.336738
2707  2023-12-05 10:46:10.368641
2708  2023-12-05 10:46:10.400556
2709  2023-12-05 10:46:10.432470
2710  2023-12-05 10:46:10.464384
2711  2023-12-05 10:46:10.496300
2712  2023-12-05 10:46:10.528181
2713  2023-12-05 10:46:10.561140
2714  2023-12-05 10:46:10.592011
2715  2023-12-05 10:46:10.640914
2716  2023-12-05 10:46:10.672829
2717  2023-12-05 10:46:10.704744
2718  2023-12-05 10:46:10.736666
2719  2023-12-05 10:46:10.768578
2720  2023-12-05 10:46:10.801498
2721  2023-12-05 10:46:10.832401
2722  2023-12-05 10:46:10.864315
2723  2023-12-05 10:46:10.896248
2724  2023-12-05 10:46:10.929158
2725  2023-12-05 10:46:10.960059
2726  2023-12-05 10:46:10.991977
2727  2023-12-05 10:46:11.040858
2728  2023-12-05 10:46:11.071727
2729  2023-12-05 10:46:11.104670
2730  2023-12-05 10:46:11.136584
2731  2023-12-05 10:46:11.168501
2732  2023-12-05 10:46:11.200415
2733  2023-12-05 10:46:11.232324
2734  2023-12-05 10:46:11.264242
2735  2023-12-05 10:46:11.296163
2736  2023-12-05 10:46:11.328072
2737  2023-12-05 10:46:11.360041
2738  2023-12-05 10:46:11.407898
2739  2023-12-05 10:46:11.439775
2740  2023-12-05 10:46:11.472754
2741  2023-12-05 10:46:11.503760
2742  2023-12-05 10:46:11.536626
2743  2023-12-05 10:46:11.569569
2744  2023-12-05 10:46:11.600491
2745  2023-12-05 10:46:11.632380
2746  2023-12-05 10:46:11.664283
2747  2023-12-05 10:46:11.696237
2748  2023-12-05 10:46:11.728168
2749  2023-12-05 10:46:11.760074
2750  2023-12-05 10:46:11.808930
2751  2023-12-05 10:46:11.841846
2752  2023-12-05 10:46:11.871761
2753  2023-12-05 10:46:11.904640
2754  2023-12-05 10:46:11.937583
2755  2023-12-05 10:46:11.969506
2756  2023-12-05 10:46:12.001437
2757  2023-12-05 10:46:12.032300
2758  2023-12-05 10:46:12.064214
2759  2023-12-05 10:46:12.097170
2760  2023-12-05 10:46:12.129072
2761  2023-12-05 10:46:12.160988
2762  2023-12-05 10:46:12.208857
2763  2023-12-05 10:46:12.240774
2764  2023-12-05 10:46:12.271691
2765  2023-12-05 10:46:12.304614
2766  2023-12-05 10:46:12.336517
2767  2023-12-05 10:46:12.368433
2768  2023-12-05 10:46:12.401353
2769  2023-12-05 10:46:12.433259
2770  2023-12-05 10:46:12.464143
2771  2023-12-05 10:46:12.496058
2772  2023-12-05 10:46:12.529007
2773  2023-12-05 10:46:12.560919
2774  2023-12-05 10:46:12.608795
2775  2023-12-05 10:46:12.640707
2776  2023-12-05 10:46:12.672621
2777  2023-12-05 10:46:12.704500
2778  2023-12-05 10:46:12.736599
2779  2023-12-05 10:46:12.768498
2780  2023-12-05 10:46:12.801422
2781  2023-12-05 10:46:12.832326
2782  2023-12-05 10:46:12.864242
2783  2023-12-05 10:46:12.896124
2784  2023-12-05 10:46:12.929067
2785  2023-12-05 10:46:12.960981
2786  2023-12-05 10:46:13.008856
2787  2023-12-05 10:46:13.040780
2788  2023-12-05 10:46:13.072686
2789  2023-12-05 10:46:13.104607
2790  2023-12-05 10:46:13.136512
2791  2023-12-05 10:46:13.168420
2792  2023-12-05 10:46:13.200336
2793  2023-12-05 10:46:13.232250
2794  2023-12-05 10:46:13.264069
2795  2023-12-05 10:46:13.296026
2796  2023-12-05 10:46:13.327984
2797  2023-12-05 10:46:13.360027
2798  2023-12-05 10:46:13.407915
2799  2023-12-05 10:46:13.440813
2800  2023-12-05 10:46:13.472697
2801  2023-12-05 10:46:13.504608
2802  2023-12-05 10:46:13.536557
2803  2023-12-05 10:46:13.568463
2804  2023-12-05 10:46:13.600384
2805  2023-12-05 10:46:13.632297
2806  2023-12-05 10:46:13.664181
2807  2023-12-05 10:46:13.696096
2808  2023-12-05 10:46:13.728048
2809  2023-12-05 10:46:13.759958
2810  2023-12-05 10:46:13.807837
2811  2023-12-05 10:46:13.840710
2812  2023-12-05 10:46:13.872657
2813  2023-12-05 10:46:13.904538
2814  2023-12-05 10:46:13.936489
2815  2023-12-05 10:46:13.968401
2816  2023-12-05 10:46:14.000316
2817  2023-12-05 10:46:14.032229
2818  2023-12-05 10:46:14.064157
2819  2023-12-05 10:46:14.096061
2820  2023-12-05 10:46:14.127972
2821  2023-12-05 10:46:14.159891
2822  2023-12-05 10:46:14.207763
2823  2023-12-05 10:46:14.240797
2824  2023-12-05 10:46:14.271684
2825  2023-12-05 10:46:14.304615
2826  2023-12-05 10:46:14.336478
2827  2023-12-05 10:46:14.368423
2828  2023-12-05 10:46:14.400317
2829  2023-12-05 10:46:14.432271
2830  2023-12-05 10:46:14.464136
2831  2023-12-05 10:46:14.496051
2832  2023-12-05 10:46:14.527988
2833  2023-12-05 10:46:14.559914
2834  2023-12-05 10:46:14.608782
2835  2023-12-05 10:46:14.640735
2836  2023-12-05 10:46:14.672615
2837  2023-12-05 10:46:14.704526
2838  2023-12-05 10:46:14.736408
2839  2023-12-05 10:46:14.768356
2840  2023-12-05 10:46:14.800275
2841  2023-12-05 10:46:14.832154
2842  2023-12-05 10:46:14.864083
2843  2023-12-05 10:46:14.895983
2844  2023-12-05 10:46:14.928895
2845  2023-12-05 10:46:14.975812
2846  2023-12-05 10:46:15.008742
2847  2023-12-05 10:46:15.040607
2848  2023-12-05 10:46:15.072547
2849  2023-12-05 10:46:15.104424
2850  2023-12-05 10:46:15.136340
2851  2023-12-05 10:46:15.168285
2852  2023-12-05 10:46:15.200198
2853  2023-12-05 10:46:15.232119
2854  2023-12-05 10:46:15.263999
2855  2023-12-05 10:46:15.295943
2856  2023-12-05 10:46:15.327826
2857  2023-12-05 10:46:15.375734
2858  2023-12-05 10:46:15.407862
2859  2023-12-05 10:46:15.439828
2860  2023-12-05 10:46:15.471877
2861  2023-12-05 10:46:15.504758
2862  2023-12-05 10:46:15.536678
2863  2023-12-05 10:46:15.568623
2864  2023-12-05 10:46:15.600498
2865  2023-12-05 10:46:15.632413
2866  2023-12-05 10:46:15.664326
2867  2023-12-05 10:46:15.696262
2868  2023-12-05 10:46:15.728167
2869  2023-12-05 10:46:15.776031
2870  2023-12-05 10:46:15.807949
2871  2023-12-05 10:46:15.839860
2872  2023-12-05 10:46:15.871777
2873  2023-12-05 10:46:15.903692
2874  2023-12-05 10:46:15.936626
2875  2023-12-05 10:46:15.968482
2876  2023-12-05 10:46:16.000431
2877  2023-12-05 10:46:16.032346
2878  2023-12-05 10:46:16.064269
2879  2023-12-05 10:46:16.096176
2880  2023-12-05 10:46:16.128055
2881  2023-12-05 10:46:16.175960
2882  2023-12-05 10:46:16.208839
2883  2023-12-05 10:46:16.239791
2884  2023-12-05 10:46:16.271705
2885  2023-12-05 10:46:16.304630
2886  2023-12-05 10:46:16.336595
2887  2023-12-05 10:46:16.368412
2888  2023-12-05 10:46:16.400357
2889  2023-12-05 10:46:16.432273
2890  2023-12-05 10:46:16.464191
2891  2023-12-05 10:46:16.496070
2892  2023-12-05 10:46:16.528016
2893  2023-12-05 10:46:16.575891
2894  2023-12-05 10:46:16.607805
2895  2023-12-05 10:46:16.639719
2896  2023-12-05 10:46:16.672599
2897  2023-12-05 10:46:16.704545
2898  2023-12-05 10:46:16.736461
2899  2023-12-05 10:46:16.768373
2900  2023-12-05 10:46:16.800257
2901  2023-12-05 10:46:16.832206
2902  2023-12-05 10:46:16.864121
2903  2023-12-05 10:46:16.896034
2904  2023-12-05 10:46:16.928951
2905  2023-12-05 10:46:16.975818
2906  2023-12-05 10:46:17.008714
2907  2023-12-05 10:46:17.039836
2908  2023-12-05 10:46:17.071754
2909  2023-12-05 10:46:17.103669
2910  2023-12-05 10:46:17.136584
2911  2023-12-05 10:46:17.168545
2912  2023-12-05 10:46:17.200491
2913  2023-12-05 10:46:17.232407
2914  2023-12-05 10:46:17.264319
2915  2023-12-05 10:46:17.296203
2916  2023-12-05 10:46:17.328118
2917  2023-12-05 10:46:17.376023
2918  2023-12-05 10:46:17.407904
2919  2023-12-05 10:46:17.439858
2920  2023-12-05 10:46:17.471868
2921  2023-12-05 10:46:17.503908
2922  2023-12-05 10:46:17.535794
2923  2023-12-05 10:46:17.568703
2924  2023-12-05 10:46:17.599654
2925  2023-12-05 10:46:17.632565
2926  2023-12-05 10:46:17.664477
2927  2023-12-05 10:46:17.696391
2928  2023-12-05 10:46:17.728310
2929  2023-12-05 10:46:17.776180
2930  2023-12-05 10:46:17.808096
2931  2023-12-05 10:46:17.840022
2932  2023-12-05 10:46:17.871922
2933  2023-12-05 10:46:17.903840
2934  2023-12-05 10:46:17.935753
2935  2023-12-05 10:46:17.968632
2936  2023-12-05 10:46:18.000649
2937  2023-12-05 10:46:18.031693
2938  2023-12-05 10:46:18.064605
2939  2023-12-05 10:46:18.096509
2940  2023-12-05 10:46:18.128390
2941  2023-12-05 10:46:18.176293
2942  2023-12-05 10:46:18.208176
2943  2023-12-05 10:46:18.240091
2944  2023-12-05 10:46:18.272037
2945  2023-12-05 10:46:18.303955
2946  2023-12-05 10:46:18.335869
2947  2023-12-05 10:46:18.367783
2948  2023-12-05 10:46:18.400699
2949  2023-12-05 10:46:18.432629
2950  2023-12-05 10:46:18.464521
2951  2023-12-05 10:46:18.496442
2952  2023-12-05 10:46:18.528352
2953  2023-12-05 10:46:18.576228
2954  2023-12-05 10:46:18.608157
2955  2023-12-05 10:46:18.640067
2956  2023-12-05 10:46:18.672935
2957  2023-12-05 10:46:18.704885
2958  2023-12-05 10:46:18.735807
2959  2023-12-05 10:46:18.767715
2960  2023-12-05 10:46:18.800640
2961  2023-12-05 10:46:18.831707
2962  2023-12-05 10:46:18.864610
2963  2023-12-05 10:46:18.896524
2964  2023-12-05 10:46:18.944394
2965  2023-12-05 10:46:18.976311
2966  2023-12-05 10:46:19.008224
2967  2023-12-05 10:46:19.040141
2968  2023-12-05 10:46:19.072051
2969  2023-12-05 10:46:19.103984
2970  2023-12-05 10:46:19.136062
2971  2023-12-05 10:46:19.167906
2972  2023-12-05 10:46:19.199856
2973  2023-12-05 10:46:19.231768
2974  2023-12-05 10:46:19.264684
2975  2023-12-05 10:46:19.296597
2976  2023-12-05 10:46:19.344480
2977  2023-12-05 10:46:19.376386
2978  2023-12-05 10:46:19.408298
2979  2023-12-05 10:46:19.440304
2980  2023-12-05 10:46:19.472249
2981  2023-12-05 10:46:19.504288
2982  2023-12-05 10:46:19.536215
2983  2023-12-05 10:46:19.568124
2984  2023-12-05 10:46:19.600165
2985  2023-12-05 10:46:19.632055
2986  2023-12-05 10:46:19.663967
2987  2023-12-05 10:46:19.695895
2988  2023-12-05 10:46:19.743770
2989  2023-12-05 10:46:19.776681
2990  2023-12-05 10:46:19.808586
2991  2023-12-05 10:46:19.840463
2992  2023-12-05 10:46:19.872519
2993  2023-12-05 10:46:19.904442
2994  2023-12-05 10:46:19.936416
2995  2023-12-05 10:46:19.968307
2996  2023-12-05 10:46:20.000255
2997  2023-12-05 10:46:20.032167
2998  2023-12-05 10:46:20.064220
2999  2023-12-05 10:46:20.096209
3000  2023-12-05 10:46:20.144084
3001  2023-12-05 10:46:20.175995
3002  2023-12-05 10:46:20.208021
3003  2023-12-05 10:46:20.239926
3004  2023-12-05 10:46:20.271807
3005  2023-12-05 10:46:20.303792
3006  2023-12-05 10:46:20.336702
3007  2023-12-05 10:46:20.368637
3008  2023-12-05 10:46:20.400590
3009  2023-12-05 10:46:20.432536
3010  2023-12-05 10:46:20.464450
3011  2023-12-05 10:46:20.496364
3012  2023-12-05 10:46:20.544236
3013  2023-12-05 10:46:20.576152
3014  2023-12-05 10:46:20.608080
3015  2023-12-05 10:46:20.639982
3016  2023-12-05 10:46:20.671899
3017  2023-12-05 10:46:20.703816
3018  2023-12-05 10:46:20.736735
3019  2023-12-05 10:46:20.768641
3020  2023-12-05 10:46:20.800520
3021  2023-12-05 10:46:20.832434
3022  2023-12-05 10:46:20.864402
3023  2023-12-05 10:46:20.896301
3024  2023-12-05 10:46:20.944282
3025  2023-12-05 10:46:20.976212
3026  2023-12-05 10:46:21.008111
3027  2023-12-05 10:46:21.039999
3028  2023-12-05 10:46:21.071908
3029  2023-12-05 10:46:21.103853
3030  2023-12-05 10:46:21.136735
3031  2023-12-05 10:46:21.168692
3032  2023-12-05 10:46:21.200569
3033  2023-12-05 10:46:21.232478
3034  2023-12-05 10:46:21.264429
3035  2023-12-05 10:46:21.296348
3036  2023-12-05 10:46:21.344187
3037  2023-12-05 10:46:21.376127
3038  2023-12-05 10:46:21.408042
3039  2023-12-05 10:46:21.439923
3040  2023-12-05 10:46:21.471870
3041  2023-12-05 10:46:21.503784
3042  2023-12-05 10:46:21.535702
3043  2023-12-05 10:46:21.568627
3044  2023-12-05 10:46:21.600529
3045  2023-12-05 10:46:21.632409
3046  2023-12-05 10:46:21.664353
3047  2023-12-05 10:46:21.696280
3048  2023-12-05 10:46:21.744150
3049  2023-12-05 10:46:21.776057
3050  2023-12-05 10:46:21.807971
3051  2023-12-05 10:46:21.839888
3052  2023-12-05 10:46:21.871768
3053  2023-12-05 10:46:21.903716
3054  2023-12-05 10:46:21.936650
3055  2023-12-05 10:46:21.968544
3056  2023-12-05 10:46:22.000424
3057  2023-12-05 10:46:22.032338
3058  2023-12-05 10:46:22.064290
3059  2023-12-05 10:46:22.096203
3060  2023-12-05 10:46:22.144076
3061  2023-12-05 10:46:22.175986
3062  2023-12-05 10:46:22.208866
3063  2023-12-05 10:46:22.239783
3064  2023-12-05 10:46:22.271736
3065  2023-12-05 10:46:22.303649
3066  2023-12-05 10:46:22.335684
3067  2023-12-05 10:46:22.368616
3068  2023-12-05 10:46:22.400475
3069  2023-12-05 10:46:22.432391
3070  2023-12-05 10:46:22.464337
3071  2023-12-05 10:46:22.512219
3072  2023-12-05 10:46:22.544299
3073  2023-12-05 10:46:22.576218
3074  2023-12-05 10:46:22.608145
3075  2023-12-05 10:46:22.640155
3076  2023-12-05 10:46:22.672070
3077  2023-12-05 10:46:22.704018
3078  2023-12-05 10:46:22.735931
3079  2023-12-05 10:46:22.767845
3080  2023-12-05 10:46:22.800726
3081  2023-12-05 10:46:22.832641
3082  2023-12-05 10:46:22.864555
3083  2023-12-05 10:46:22.912467
3084  2023-12-05 10:46:22.944381
3085  2023-12-05 10:46:22.976296
3086  2023-12-05 10:46:23.008208
3087  2023-12-05 10:46:23.040086
3088  2023-12-05 10:46:23.072000
3089  2023-12-05 10:46:23.103946
3090  2023-12-05 10:46:23.136827
3091  2023-12-05 10:46:23.168776
3092  2023-12-05 10:46:23.200656
3093  2023-12-05 10:46:23.232571
3094  2023-12-05 10:46:23.264520
3095  2023-12-05 10:46:23.312389
3096  2023-12-05 10:46:23.344325
3097  2023-12-05 10:46:23.376224
3098  2023-12-05 10:46:23.408101
3099  2023-12-05 10:46:23.440016
3100  2023-12-05 10:46:23.471969
3101  2023-12-05 10:46:23.504017
3102  2023-12-05 10:46:23.535899
3103  2023-12-05 10:46:23.567847
3104  2023-12-05 10:46:23.599764
3105  2023-12-05 10:46:23.632672
3106  2023-12-05 10:46:23.664555
3107  2023-12-05 10:46:23.712467
3108  2023-12-05 10:46:23.744373
3109  2023-12-05 10:46:23.776312
3110  2023-12-05 10:46:23.808211
3111  2023-12-05 10:46:23.840127
3112  2023-12-05 10:46:23.872000
3113  2023-12-05 10:46:23.903914
3114  2023-12-05 10:46:23.935866
3115  2023-12-05 10:46:23.967786
3116  2023-12-05 10:46:23.999659
3117  2023-12-05 10:46:24.032570
3118  2023-12-05 10:46:24.064485
3119  2023-12-05 10:46:24.112389
3120  2023-12-05 10:46:24.144314
3121  2023-12-05 10:46:24.176219
3122  2023-12-05 10:46:24.208101
3123  2023-12-05 10:46:24.240016
3124  2023-12-05 10:46:24.271930
3125  2023-12-05 10:46:24.303845
3126  2023-12-05 10:46:24.335759
3127  2023-12-05 10:46:24.368671
3128  2023-12-05 10:46:24.400586
3129  2023-12-05 10:46:24.432501
3130  2023-12-05 10:46:24.464415
3131  2023-12-05 10:46:24.512350
3132  2023-12-05 10:46:24.544308
3133  2023-12-05 10:46:24.576323
3134  2023-12-05 10:46:24.608205
3135  2023-12-05 10:46:24.640120
3136  2023-12-05 10:46:24.672034
3137  2023-12-05 10:46:24.704069
3138  2023-12-05 10:46:24.735983
3139  2023-12-05 10:46:24.767990
3140  2023-12-05 10:46:24.800024
3141  2023-12-05 10:46:24.832011
3142  2023-12-05 10:46:24.863926
3143  2023-12-05 10:46:24.911880
3144  2023-12-05 10:46:24.943791
3145  2023-12-05 10:46:24.975741
3146  2023-12-05 10:46:25.008619
3147  2023-12-05 10:46:25.040568
3148  2023-12-05 10:46:25.072550
3149  2023-12-05 10:46:25.104464
3150  2023-12-05 10:46:25.136411
3151  2023-12-05 10:46:25.168296
3152  2023-12-05 10:46:25.200329
3153  2023-12-05 10:46:25.232261
3154  2023-12-05 10:46:25.264214
3155  2023-12-05 10:46:25.312091
3156  2023-12-05 10:46:25.344002
3157  2023-12-05 10:46:25.375955
3158  2023-12-05 10:46:25.407829
3159  2023-12-05 10:46:25.439744
3160  2023-12-05 10:46:25.472689
3161  2023-12-05 10:46:25.504603
3162  2023-12-05 10:46:25.536485
3163  2023-12-05 10:46:25.568536
3164  2023-12-05 10:46:25.600664
3165  2023-12-05 10:46:25.632543
3166  2023-12-05 10:46:25.664427
3167  2023-12-05 10:46:25.712299
3168  2023-12-05 10:46:25.744245
3169  2023-12-05 10:46:25.776161
3170  2023-12-05 10:46:25.808217
3171  2023-12-05 10:46:25.840147
3172  2023-12-05 10:46:25.872008
3173  2023-12-05 10:46:25.903922
3174  2023-12-05 10:46:25.935953
3175  2023-12-05 10:46:25.967868
3176  2023-12-05 10:46:25.999876
3177  2023-12-05 10:46:26.031790
3178  2023-12-05 10:46:26.063759
3179  2023-12-05 10:46:26.112628
3180  2023-12-05 10:46:26.144601
3181  2023-12-05 10:46:26.176491
3182  2023-12-05 10:46:26.208438
3183  2023-12-05 10:46:26.240353
3184  2023-12-05 10:46:26.272267
3185  2023-12-05 10:46:26.304182
3186  2023-12-05 10:46:26.336096
3187  2023-12-05 10:46:26.368011
3188  2023-12-05 10:46:26.399926
3189  2023-12-05 10:46:26.431846
3190  2023-12-05 10:46:26.479746
3191  2023-12-05 10:46:26.512678
3192  2023-12-05 10:46:26.544539
3193  2023-12-05 10:46:26.576454
3194  2023-12-05 10:46:26.608368
3195  2023-12-05 10:46:26.640283
3196  2023-12-05 10:46:26.673196
3197  2023-12-05 10:46:26.704112
3198  2023-12-05 10:46:26.736027
3199  2023-12-05 10:46:26.767941
3200  2023-12-05 10:46:26.799868
3201  2023-12-05 10:46:26.831770
3202  2023-12-05 10:46:26.880674
3203  2023-12-05 10:46:26.912586
3204  2023-12-05 10:46:26.944469
3205  2023-12-05 10:46:26.976424
3206  2023-12-05 10:46:27.008333
3207  2023-12-05 10:46:27.040213
3208  2023-12-05 10:46:27.072128
3209  2023-12-05 10:46:27.104076
3210  2023-12-05 10:46:27.135990
3211  2023-12-05 10:46:27.167871
3212  2023-12-05 10:46:27.199786
3213  2023-12-05 10:46:27.232700
3214  2023-12-05 10:46:27.280570
3215  2023-12-05 10:46:27.312485
3216  2023-12-05 10:46:27.344435
3217  2023-12-05 10:46:27.376314
3218  2023-12-05 10:46:27.408228
3219  2023-12-05 10:46:27.440143
3220  2023-12-05 10:46:27.472092
3221  2023-12-05 10:46:27.503972
3222  2023-12-05 10:46:27.535887
3223  2023-12-05 10:46:27.567801
3224  2023-12-05 10:46:27.599752
3225  2023-12-05 10:46:27.632663
3226  2023-12-05 10:46:27.680555
3227  2023-12-05 10:46:27.712415
3228  2023-12-05 10:46:27.744329
3229  2023-12-05 10:46:27.776244
3230  2023-12-05 10:46:27.808191
3231  2023-12-05 10:46:27.840073
3232  2023-12-05 10:46:27.871988
3233  2023-12-05 10:46:27.903902
3234  2023-12-05 10:46:27.935853
3235  2023-12-05 10:46:27.967782
3236  2023-12-05 10:46:28.000644
3237  2023-12-05 10:46:28.032558
3238  2023-12-05 10:46:28.080430
3239  2023-12-05 10:46:28.112345
3240  2023-12-05 10:46:28.144296
3241  2023-12-05 10:46:28.176209
3242  2023-12-05 10:46:28.208089
3243  2023-12-05 10:46:28.240003
3244  2023-12-05 10:46:28.271918
3245  2023-12-05 10:46:28.303832
3246  2023-12-05 10:46:28.335747
3247  2023-12-05 10:46:28.368659
3248  2023-12-05 10:46:28.399720
3249  2023-12-05 10:46:28.432631
3250  2023-12-05 10:46:28.480543
3251  2023-12-05 10:46:28.512418
3252  2023-12-05 10:46:28.544372
3253  2023-12-05 10:46:28.576351
3254  2023-12-05 10:46:28.608266
3255  2023-12-05 10:46:28.640180
3256  2023-12-05 10:46:28.673126
3257  2023-12-05 10:46:28.704010
3258  2023-12-05 10:46:28.735924
3259  2023-12-05 10:46:28.767839
3260  2023-12-05 10:46:28.799812
3261  2023-12-05 10:46:28.831846
3262  2023-12-05 10:46:28.880720
3263  2023-12-05 10:46:28.912630
3264  2023-12-05 10:46:28.944545
3265  2023-12-05 10:46:28.976459
3266  2023-12-05 10:46:29.008407
3267  2023-12-05 10:46:29.040288
3268  2023-12-05 10:46:29.072203
3269  2023-12-05 10:46:29.104118
3270  2023-12-05 10:46:29.136099
3271  2023-12-05 10:46:29.167992
3272  2023-12-05 10:46:29.199862
3273  2023-12-05 10:46:29.231776
3274  2023-12-05 10:46:29.280646
3275  2023-12-05 10:46:29.312560
3276  2023-12-05 10:46:29.344513
3277  2023-12-05 10:46:29.376390
3278  2023-12-05 10:46:29.408304
3279  2023-12-05 10:46:29.440219
3280  2023-12-05 10:46:29.472165
3281  2023-12-05 10:46:29.504084
3282  2023-12-05 10:46:29.535962
3283  2023-12-05 10:46:29.567877
3284  2023-12-05 10:46:29.599823
3285  2023-12-05 10:46:29.631743
3286  2023-12-05 10:46:29.679615
3287  2023-12-05 10:46:29.712490
3288  2023-12-05 10:46:29.744405
3289  2023-12-05 10:46:29.776356
3290  2023-12-05 10:46:29.808235
3291  2023-12-05 10:46:29.840150
3292  2023-12-05 10:46:29.872066
3293  2023-12-05 10:46:29.903979
3294  2023-12-05 10:46:29.935894
3295  2023-12-05 10:46:29.967807
3296  2023-12-05 10:46:29.999722
3297  2023-12-05 10:46:30.048591
3298  2023-12-05 10:46:30.080506
3299  2023-12-05 10:46:30.112421
3300  2023-12-05 10:46:30.144370
3301  2023-12-05 10:46:30.176250
3302  2023-12-05 10:46:30.208164
3303  2023-12-05 10:46:30.240083
3304  2023-12-05 10:46:30.271993
3305  2023-12-05 10:46:30.304022
3306  2023-12-05 10:46:30.336934
3307  2023-12-05 10:46:30.367852
3308  2023-12-05 10:46:30.399766
3309  2023-12-05 10:46:30.448636
3310  2023-12-05 10:46:30.480551
3311  2023-12-05 10:46:30.512465
3312  2023-12-05 10:46:30.544380
3313  2023-12-05 10:46:30.576294
3314  2023-12-05 10:46:30.608209
3315  2023-12-05 10:46:30.640123
3316  2023-12-05 10:46:30.672038
3317  2023-12-05 10:46:30.703953
3318  2023-12-05 10:46:30.736865
3319  2023-12-05 10:46:30.767782
3320  2023-12-05 10:46:30.800788
3321  2023-12-05 10:46:30.848644
3322  2023-12-05 10:46:30.880615
3323  2023-12-05 10:46:30.912482
3324  2023-12-05 10:46:30.944390
3325  2023-12-05 10:46:30.976335
3326  2023-12-05 10:46:31.008248
3327  2023-12-05 10:46:31.040131
3328  2023-12-05 10:46:31.072051
3329  2023-12-05 10:46:31.103960
3330  2023-12-05 10:46:31.137917
3331  2023-12-05 10:46:31.167789
3332  2023-12-05 10:46:31.199704
3333  2023-12-05 10:46:31.249618
3334  2023-12-05 10:46:31.281521
3335  2023-12-05 10:46:31.313435
3336  2023-12-05 10:46:31.345347
3337  2023-12-05 10:46:31.377267
3338  2023-12-05 10:46:31.409181
3339  2023-12-05 10:46:31.441089
3340  2023-12-05 10:46:31.474030
3341  2023-12-05 10:46:31.505921
3342  2023-12-05 10:46:31.537876
3343  2023-12-05 10:46:31.569801
3344  2023-12-05 10:46:31.601707
3345  2023-12-05 10:46:31.649660
3346  2023-12-05 10:46:31.681575
3347  2023-12-05 10:46:31.713487
3348  2023-12-05 10:46:31.745404
3349  2023-12-05 10:46:31.777324
3350  2023-12-05 10:46:31.809230
3351  2023-12-05 10:46:31.841146
3352  2023-12-05 10:46:31.873062
3353  2023-12-05 10:46:31.904977
3354  2023-12-05 10:46:31.936892
3355  2023-12-05 10:46:31.968807
3356  2023-12-05 10:46:32.000730
3357  2023-12-05 10:46:32.049598
3358  2023-12-05 10:46:32.081510
3359  2023-12-05 10:46:32.113410
3360  2023-12-05 10:46:32.145337
3361  2023-12-05 10:46:32.177240
3362  2023-12-05 10:46:32.209157
3363  2023-12-05 10:46:32.241207
3364  2023-12-05 10:46:32.273106
3365  2023-12-05 10:46:32.305037
3366  2023-12-05 10:46:32.336951
3367  2023-12-05 10:46:32.368864
3368  2023-12-05 10:46:32.400865
3369  2023-12-05 10:46:32.448741
3370  2023-12-05 10:46:32.480717
3371  2023-12-05 10:46:32.513713
3372  2023-12-05 10:46:32.544632
3373  2023-12-05 10:46:32.576549
3374  2023-12-05 10:46:32.608465
3375  2023-12-05 10:46:32.640382
3376  2023-12-05 10:46:32.673285
3377  2023-12-05 10:46:32.704203
3378  2023-12-05 10:46:32.736119
3379  2023-12-05 10:46:32.769039
3380  2023-12-05 10:46:32.800955
3381  2023-12-05 10:46:32.848821
3382  2023-12-05 10:46:32.880731
3383  2023-12-05 10:46:32.912649
3384  2023-12-05 10:46:32.944584
3385  2023-12-05 10:46:32.976475
3386  2023-12-05 10:46:33.008404
3387  2023-12-05 10:46:33.040308
3388  2023-12-05 10:46:33.072226
3389  2023-12-05 10:46:33.104136
3390  2023-12-05 10:46:33.136049
3391  2023-12-05 10:46:33.167993
3392  2023-12-05 10:46:33.199891
3393  2023-12-05 10:46:33.248813
3394  2023-12-05 10:46:33.280730
3395  2023-12-05 10:46:33.311725
3396  2023-12-05 10:46:33.344657
3397  2023-12-05 10:46:33.376554
3398  2023-12-05 10:46:33.408479
3399  2023-12-05 10:46:33.440387
3400  2023-12-05 10:46:33.472289
3401  2023-12-05 10:46:33.504210
3402  2023-12-05 10:46:33.536123
3403  2023-12-05 10:46:33.568052
3404  2023-12-05 10:46:33.600078
3405  2023-12-05 10:46:33.647933
3406  2023-12-05 10:46:33.679849
3407  2023-12-05 10:46:33.711768
3408  2023-12-05 10:46:33.743688
3409  2023-12-05 10:46:33.776609
3410  2023-12-05 10:46:33.808537
3411  2023-12-05 10:46:33.841416
3412  2023-12-05 10:46:33.872302
3413  2023-12-05 10:46:33.904347
3414  2023-12-05 10:46:33.937262
3415  2023-12-05 10:46:33.970178
3416  2023-12-05 10:46:34.016157
3417  2023-12-05 10:46:34.048075
3418  2023-12-05 10:46:34.080001
3419  2023-12-05 10:46:34.112892
3420  2023-12-05 10:46:34.143818
3421  2023-12-05 10:46:34.176738
3422  2023-12-05 10:46:34.209638
3423  2023-12-05 10:46:34.241550
3424  2023-12-05 10:46:34.272431
3425  2023-12-05 10:46:34.304345
3426  2023-12-05 10:46:34.337279
3427  2023-12-05 10:46:34.369202
3428  2023-12-05 10:46:34.418083
3429  2023-12-05 10:46:34.450006
3430  2023-12-05 10:46:34.482043
3431  2023-12-05 10:46:34.511954
3432  2023-12-05 10:46:34.544835
3433  2023-12-05 10:46:34.575790
3434  2023-12-05 10:46:34.608706
3435  2023-12-05 10:46:34.640578
3436  2023-12-05 10:46:34.672492
3437  2023-12-05 10:46:34.704438
3438  2023-12-05 10:46:34.736352
3439  2023-12-05 10:46:34.769268
3440  2023-12-05 10:46:34.816265
3441  2023-12-05 10:46:34.850184
3442  2023-12-05 10:46:34.882088
3443  2023-12-05 10:46:34.913012
3444  2023-12-05 10:46:34.943893
3445  2023-12-05 10:46:34.975848
3446  2023-12-05 10:46:35.009753
3447  2023-12-05 10:46:35.040692
3448  2023-12-05 10:46:35.072592
3449  2023-12-05 10:46:35.104462
3450  2023-12-05 10:46:35.136415
3451  2023-12-05 10:46:35.168326
3452  2023-12-05 10:46:35.216199
3453  2023-12-05 10:46:35.249116
3454  2023-12-05 10:46:35.281020
3455  2023-12-05 10:46:35.312937
3456  2023-12-05 10:46:35.343854
3457  2023-12-05 10:46:35.375769
3458  2023-12-05 10:46:35.408697
3459  2023-12-05 10:46:35.440594
3460  2023-12-05 10:46:35.472510
3461  2023-12-05 10:46:35.504424
3462  2023-12-05 10:46:35.536337
3463  2023-12-05 10:46:35.568253
3464  2023-12-05 10:46:35.616131
3465  2023-12-05 10:46:35.649067
3466  2023-12-05 10:46:35.680960
3467  2023-12-05 10:46:35.712866
3468  2023-12-05 10:46:35.744782
3469  2023-12-05 10:46:35.776697
3470  2023-12-05 10:46:35.808644
3471  2023-12-05 10:46:35.840527
3472  2023-12-05 10:46:35.872439
3473  2023-12-05 10:46:35.904322
3474  2023-12-05 10:46:35.936277
3475  2023-12-05 10:46:35.968182
3476  2023-12-05 10:46:36.016059
3477  2023-12-05 10:46:36.047984
3478  2023-12-05 10:46:36.080904
3479  2023-12-05 10:46:36.112807
3480  2023-12-05 10:46:36.143716
3481  2023-12-05 10:46:36.176627
3482  2023-12-05 10:46:36.208578
3483  2023-12-05 10:46:36.240455
3484  2023-12-05 10:46:36.272389
3485  2023-12-05 10:46:36.304286
3486  2023-12-05 10:46:36.336200
3487  2023-12-05 10:46:36.368083
3488  2023-12-05 10:46:36.415955
3489  2023-12-05 10:46:36.448867
3490  2023-12-05 10:46:36.479829
3491  2023-12-05 10:46:36.512727
3492  2023-12-05 10:46:36.543643
3493  2023-12-05 10:46:36.576560
3494  2023-12-05 10:46:36.608474
3495  2023-12-05 10:46:36.640384
3496  2023-12-05 10:46:36.672269
3497  2023-12-05 10:46:36.704182
3498  2023-12-05 10:46:36.736097
3499  2023-12-05 10:46:36.768044
3500  2023-12-05 10:46:36.815916
3501  2023-12-05 10:46:36.848796
3502  2023-12-05 10:46:36.880753
3503  2023-12-05 10:46:36.912667
3504  2023-12-05 10:46:36.944598
3505  2023-12-05 10:46:36.976489
3506  2023-12-05 10:46:37.008400
3507  2023-12-05 10:46:37.040314
3508  2023-12-05 10:46:37.072234
3509  2023-12-05 10:46:37.104152
3510  2023-12-05 10:46:37.136069
3511  2023-12-05 10:46:37.167996
3512  2023-12-05 10:46:37.215849
3513  2023-12-05 10:46:37.247763
3514  2023-12-05 10:46:37.279677
3515  2023-12-05 10:46:37.312587
3516  2023-12-05 10:46:37.344507
3517  2023-12-05 10:46:37.376425
3518  2023-12-05 10:46:37.408299
3519  2023-12-05 10:46:37.440245
3520  2023-12-05 10:46:37.472162
3521  2023-12-05 10:46:37.504099
3522  2023-12-05 10:46:37.536052
3523  2023-12-05 10:46:37.583964
3524  2023-12-05 10:46:37.615873
3525  2023-12-05 10:46:37.647785
3526  2023-12-05 10:46:37.680725
3527  2023-12-05 10:46:37.712616
3528  2023-12-05 10:46:37.744533
3529  2023-12-05 10:46:37.776445
3530  2023-12-05 10:46:37.808364
3531  2023-12-05 10:46:37.840275
3532  2023-12-05 10:46:37.872184
3533  2023-12-05 10:46:37.904108
3534  2023-12-05 10:46:37.936015
3535  2023-12-05 10:46:37.983890
3536  2023-12-05 10:46:38.015805
3537  2023-12-05 10:46:38.047724
3538  2023-12-05 10:46:38.080628
3539  2023-12-05 10:46:38.112545
3540  2023-12-05 10:46:38.144457
3541  2023-12-05 10:46:38.176373
3542  2023-12-05 10:46:38.208254
3543  2023-12-05 10:46:38.240201
3544  2023-12-05 10:46:38.272135
3545  2023-12-05 10:46:38.304030
3546  2023-12-05 10:46:38.335912
3547  2023-12-05 10:46:38.384874
3548  2023-12-05 10:46:38.416821
3549  2023-12-05 10:46:38.448737
3550  2023-12-05 10:46:38.480648
3551  2023-12-05 10:46:38.512532
3552  2023-12-05 10:46:38.544447
3553  2023-12-05 10:46:38.576394
3554  2023-12-05 10:46:38.608307
3555  2023-12-05 10:46:38.640227
3556  2023-12-05 10:46:38.672138
3557  2023-12-05 10:46:38.704069
3558  2023-12-05 10:46:38.735986
3559  2023-12-05 10:46:38.783851
3560  2023-12-05 10:46:38.815757
3561  2023-12-05 10:46:38.848684
