
1  2023-10-18 14:58:26.947692
2  2023-10-18 14:58:26.979606
3  2023-10-18 14:58:27.011521
4  2023-10-18 14:58:27.044436
5  2023-10-18 14:58:27.075350
6  2023-10-18 14:58:27.108262
7  2023-10-18 14:58:27.140177
8  2023-10-18 14:58:27.172091
9  2023-10-18 14:58:27.204006
10  2023-10-18 14:58:27.235921
11  2023-10-18 14:58:27.267835
12  2023-10-18 14:58:27.315707
13  2023-10-18 14:58:27.347622
14  2023-10-18 14:58:27.379536
15  2023-10-18 14:58:27.411451
16  2023-10-18 14:58:27.444369
17  2023-10-18 14:58:27.476277
18  2023-10-18 14:58:27.508194
19  2023-10-18 14:58:27.540109
20  2023-10-18 14:58:27.572022
21  2023-10-18 14:58:27.603937
22  2023-10-18 14:58:27.635852
23  2023-10-18 14:58:27.667767
24  2023-10-18 14:58:27.715638
25  2023-10-18 14:58:27.747553
26  2023-10-18 14:58:27.779467
27  2023-10-18 14:58:27.811381
28  2023-10-18 14:58:27.844294
29  2023-10-18 14:58:27.876209
30  2023-10-18 14:58:27.908123
31  2023-10-18 14:58:27.940039
32  2023-10-18 14:58:27.971957
33  2023-10-18 14:58:28.003867
34  2023-10-18 14:58:28.035781
35  2023-10-18 14:58:28.067696
36  2023-10-18 14:58:28.115571
37  2023-10-18 14:58:28.147482
38  2023-10-18 14:58:28.179397
39  2023-10-18 14:58:28.212309
40  2023-10-18 14:58:28.244223
41  2023-10-18 14:58:28.276139
42  2023-10-18 14:58:28.308054
43  2023-10-18 14:58:28.339967
44  2023-10-18 14:58:28.371882
45  2023-10-18 14:58:28.403797
46  2023-10-18 14:58:28.435714
47  2023-10-18 14:58:28.467627
48  2023-10-18 14:58:28.515498
49  2023-10-18 14:58:28.547412
50  2023-10-18 14:58:28.579327
51  2023-10-18 14:58:28.612241
52  2023-10-18 14:58:28.644155
53  2023-10-18 14:58:28.676069
54  2023-10-18 14:58:28.707983
55  2023-10-18 14:58:28.739898
56  2023-10-18 14:58:28.771812
57  2023-10-18 14:58:28.803728
58  2023-10-18 14:58:28.835641
59  2023-10-18 14:58:28.867556
60  2023-10-18 14:58:28.915428
61  2023-10-18 14:58:28.947342
62  2023-10-18 14:58:28.980256
63  2023-10-18 14:58:29.012170
64  2023-10-18 14:58:29.044085
65  2023-10-18 14:58:29.075999
66  2023-10-18 14:58:29.107914
67  2023-10-18 14:58:29.139829
68  2023-10-18 14:58:29.171743
69  2023-10-18 14:58:29.204657
70  2023-10-18 14:58:29.235573
71  2023-10-18 14:58:29.267487
72  2023-10-18 14:58:29.315357
73  2023-10-18 14:58:29.348269
74  2023-10-18 14:58:29.380184
75  2023-10-18 14:58:29.412100
76  2023-10-18 14:58:29.444013
77  2023-10-18 14:58:29.475928
78  2023-10-18 14:58:29.507844
79  2023-10-18 14:58:29.539757
80  2023-10-18 14:58:29.571672
81  2023-10-18 14:58:29.603586
82  2023-10-18 14:58:29.635502
83  2023-10-18 14:58:29.667415
84  2023-10-18 14:58:29.716285
85  2023-10-18 14:58:29.748199
86  2023-10-18 14:58:29.780114
87  2023-10-18 14:58:29.812029
88  2023-10-18 14:58:29.843943
89  2023-10-18 14:58:29.875859
90  2023-10-18 14:58:29.907814
91  2023-10-18 14:58:29.939687
92  2023-10-18 14:58:29.971601
93  2023-10-18 14:58:30.003517
94  2023-10-18 14:58:30.035431
95  2023-10-18 14:58:30.067345
96  2023-10-18 14:58:30.116216
97  2023-10-18 14:58:30.148130
98  2023-10-18 14:58:30.180044
99  2023-10-18 14:58:30.211960
100  2023-10-18 14:58:30.243905
101  2023-10-18 14:58:30.275788
102  2023-10-18 14:58:30.307744
103  2023-10-18 14:58:30.339617
104  2023-10-18 14:58:30.371533
105  2023-10-18 14:58:30.403447
106  2023-10-18 14:58:30.435361
107  2023-10-18 14:58:30.468273
108  2023-10-18 14:58:30.516146
109  2023-10-18 14:58:30.548060
110  2023-10-18 14:58:30.580015
111  2023-10-18 14:58:30.611930
112  2023-10-18 14:58:30.643804
113  2023-10-18 14:58:30.675719
114  2023-10-18 14:58:30.707636
115  2023-10-18 14:58:30.739584
116  2023-10-18 14:58:30.771462
117  2023-10-18 14:58:30.803377
118  2023-10-18 14:58:30.836317
119  2023-10-18 14:58:30.868244
120  2023-10-18 14:58:30.916113
121  2023-10-18 14:58:30.948020
122  2023-10-18 14:58:30.979945
123  2023-10-18 14:58:31.011848
124  2023-10-18 14:58:31.043734
125  2023-10-18 14:58:31.075678
126  2023-10-18 14:58:31.107564
127  2023-10-18 14:58:31.139507
128  2023-10-18 14:58:31.171392
129  2023-10-18 14:58:31.204306
130  2023-10-18 14:58:31.236261
131  2023-10-18 14:58:31.268135
132  2023-10-18 14:58:31.316006
133  2023-10-18 14:58:31.347920
134  2023-10-18 14:58:31.379835
135  2023-10-18 14:58:31.411787
136  2023-10-18 14:58:31.443664
137  2023-10-18 14:58:31.475581
138  2023-10-18 14:58:31.507493
139  2023-10-18 14:58:31.539438
140  2023-10-18 14:58:31.572321
141  2023-10-18 14:58:31.604236
142  2023-10-18 14:58:31.636149
143  2023-10-18 14:58:31.668064
144  2023-10-18 14:58:31.715936
145  2023-10-18 14:58:31.747851
146  2023-10-18 14:58:31.779765
147  2023-10-18 14:58:31.811727
148  2023-10-18 14:58:31.843595
149  2023-10-18 14:58:31.875509
150  2023-10-18 14:58:31.908421
151  2023-10-18 14:58:31.939367
152  2023-10-18 14:58:31.972287
153  2023-10-18 14:58:32.004193
154  2023-10-18 14:58:32.036120
155  2023-10-18 14:58:32.068021
156  2023-10-18 14:58:32.115866
157  2023-10-18 14:58:32.147781
158  2023-10-18 14:58:32.179696
159  2023-10-18 14:58:32.211610
160  2023-10-18 14:58:32.243525
161  2023-10-18 14:58:32.275440
162  2023-10-18 14:58:32.307356
163  2023-10-18 14:58:32.340273
164  2023-10-18 14:58:32.372215
165  2023-10-18 14:58:32.404095
166  2023-10-18 14:58:32.436009
167  2023-10-18 14:58:32.467925
168  2023-10-18 14:58:32.515797
169  2023-10-18 14:58:32.547746
170  2023-10-18 14:58:32.579626
171  2023-10-18 14:58:32.611540
172  2023-10-18 14:58:32.644452
173  2023-10-18 14:58:33.154092
174  2023-10-18 14:58:33.172041
175  2023-10-18 14:58:33.203955
176  2023-10-18 14:58:33.235870
177  2023-10-18 14:58:33.267784
178  2023-10-18 14:58:33.315656
179  2023-10-18 14:58:33.347607
180  2023-10-18 14:58:33.379486
181  2023-10-18 14:58:33.412398
182  2023-10-18 14:58:33.444314
183  2023-10-18 14:58:33.476256
184  2023-10-18 14:58:33.508169
185  2023-10-18 14:58:33.540057
186  2023-10-18 14:58:33.571972
187  2023-10-18 14:58:33.603886
188  2023-10-18 14:58:33.635851
189  2023-10-18 14:58:33.667749
190  2023-10-18 14:58:33.715626
191  2023-10-18 14:58:33.747529
192  2023-10-18 14:58:33.779444
193  2023-10-18 14:58:33.811330
194  2023-10-18 14:58:33.844244
195  2023-10-18 14:58:33.876194
196  2023-10-18 14:58:33.908099
197  2023-10-18 14:58:33.939987
198  2023-10-18 14:58:33.971946
199  2023-10-18 14:58:34.003857
200  2023-10-18 14:58:34.035771
201  2023-10-18 14:58:34.067679
202  2023-10-18 14:58:34.115548
203  2023-10-18 14:58:34.147462
204  2023-10-18 14:58:34.179390
205  2023-10-18 14:58:34.212291
206  2023-10-18 14:58:34.244213
207  2023-10-18 14:58:34.276114
208  2023-10-18 14:58:34.308034
209  2023-10-18 14:58:34.339959
210  2023-10-18 14:58:34.371873
211  2023-10-18 14:58:34.403785
212  2023-10-18 14:58:34.435700
213  2023-10-18 14:58:34.467611
214  2023-10-18 14:58:34.515452
215  2023-10-18 14:58:34.547391
216  2023-10-18 14:58:34.580307
217  2023-10-18 14:58:34.612189
218  2023-10-18 14:58:34.644158
219  2023-10-18 14:58:34.676019
220  2023-10-18 14:58:34.707979
221  2023-10-18 14:58:34.739882
222  2023-10-18 14:58:34.771810
223  2023-10-18 14:58:34.803705
224  2023-10-18 14:58:34.835592
225  2023-10-18 14:58:34.867535
226  2023-10-18 14:58:34.916376
227  2023-10-18 14:58:34.948326
228  2023-10-18 14:58:34.980242
229  2023-10-18 14:58:35.012118
230  2023-10-18 14:58:35.044061
231  2023-10-18 14:58:35.075948
232  2023-10-18 14:58:35.107900
233  2023-10-18 14:58:35.139814
234  2023-10-18 14:58:35.171730
235  2023-10-18 14:58:35.203637
236  2023-10-18 14:58:35.235571
237  2023-10-18 14:58:35.267470
238  2023-10-18 14:58:35.316340
239  2023-10-18 14:58:35.348254
240  2023-10-18 14:58:35.380174
241  2023-10-18 14:58:35.412082
242  2023-10-18 14:58:35.444000
243  2023-10-18 14:58:35.475878
244  2023-10-18 14:58:35.507827
245  2023-10-18 14:58:35.539758
246  2023-10-18 14:58:35.571622
247  2023-10-18 14:58:35.603542
248  2023-10-18 14:58:35.635488
249  2023-10-18 14:58:35.667370
250  2023-10-18 14:58:35.716313
251  2023-10-18 14:58:35.748192
252  2023-10-18 14:58:35.780092
253  2023-10-18 14:58:35.812021
254  2023-10-18 14:58:35.843923
255  2023-10-18 14:58:35.875848
256  2023-10-18 14:58:35.907767
257  2023-10-18 14:58:35.939697
258  2023-10-18 14:58:35.971582
259  2023-10-18 14:58:36.003504
260  2023-10-18 14:58:36.035411
261  2023-10-18 14:58:36.067324
262  2023-10-18 14:58:36.116166
263  2023-10-18 14:58:36.148107
264  2023-10-18 14:58:36.180030
265  2023-10-18 14:58:36.211951
266  2023-10-18 14:58:36.243859
267  2023-10-18 14:58:36.275789
268  2023-10-18 14:58:36.307710
269  2023-10-18 14:58:36.339605
270  2023-10-18 14:58:36.371528
271  2023-10-18 14:58:36.403425
272  2023-10-18 14:58:36.435345
273  2023-10-18 14:58:36.468252
274  2023-10-18 14:58:36.516134
275  2023-10-18 14:58:36.548051
276  2023-10-18 14:58:36.579959
277  2023-10-18 14:58:36.611876
278  2023-10-18 14:58:36.643790
279  2023-10-18 14:58:36.675671
280  2023-10-18 14:58:36.707636
281  2023-10-18 14:58:36.739533
282  2023-10-18 14:58:36.771450
283  2023-10-18 14:58:36.803364
284  2023-10-18 14:58:36.836283
285  2023-10-18 14:58:36.868181
286  2023-10-18 14:58:36.916074
287  2023-10-18 14:58:36.947982
288  2023-10-18 14:58:36.979892
289  2023-10-18 14:58:37.011816
290  2023-10-18 14:58:37.043721
291  2023-10-18 14:58:37.075645
292  2023-10-18 14:58:37.107560
293  2023-10-18 14:58:37.139429
294  2023-10-18 14:58:37.171343
295  2023-10-18 14:58:37.203293
296  2023-10-18 14:58:37.236222
297  2023-10-18 14:58:37.268129
298  2023-10-18 14:58:37.315994
299  2023-10-18 14:58:37.347902
300  2023-10-18 14:58:37.379823
301  2023-10-18 14:58:37.411735
302  2023-10-18 14:58:37.443655
303  2023-10-18 14:58:37.475581
304  2023-10-18 14:58:37.507485
305  2023-10-18 14:58:37.539401
306  2023-10-18 14:58:37.571316
307  2023-10-18 14:58:37.604213
308  2023-10-18 14:58:37.636149
309  2023-10-18 14:58:37.668016
310  2023-10-18 14:58:37.715917
311  2023-10-18 14:58:37.747803
312  2023-10-18 14:58:37.779761
313  2023-10-18 14:58:37.811680
314  2023-10-18 14:58:37.843589
315  2023-10-18 14:58:37.875507
316  2023-10-18 14:58:37.907409
317  2023-10-18 14:58:37.940327
318  2023-10-18 14:58:37.972253
319  2023-10-18 14:58:38.004228
320  2023-10-18 14:58:38.036153
321  2023-10-18 14:58:38.068017
322  2023-10-18 14:58:38.115925
323  2023-10-18 14:58:38.147833
324  2023-10-18 14:58:38.179717
325  2023-10-18 14:58:38.211632
326  2023-10-18 14:58:38.244544
327  2023-10-18 14:58:38.891813
328  2023-10-18 14:58:38.915749
329  2023-10-18 14:58:38.947697
330  2023-10-18 14:58:38.979639
331  2023-10-18 14:58:39.011544
332  2023-10-18 14:58:39.043406
333  2023-10-18 14:58:39.075350
334  2023-10-18 14:58:39.108276
335  2023-10-18 14:58:39.140149
336  2023-10-18 14:58:39.172103
337  2023-10-18 14:58:39.203977
338  2023-10-18 14:58:39.235962
339  2023-10-18 14:58:39.267854
340  2023-10-18 14:58:39.315710
341  2023-10-18 14:58:39.347643
342  2023-10-18 14:58:39.379548
343  2023-10-18 14:58:39.411423
344  2023-10-18 14:58:39.443364
345  2023-10-18 14:58:39.476290
346  2023-10-18 14:58:39.508200
347  2023-10-18 14:58:39.540080
348  2023-10-18 14:58:39.571994
349  2023-10-18 14:58:39.603943
350  2023-10-18 14:58:39.635868
351  2023-10-18 14:58:39.667769
352  2023-10-18 14:58:39.715657
353  2023-10-18 14:58:39.747563
354  2023-10-18 14:58:39.779487
355  2023-10-18 14:58:39.811354
356  2023-10-18 14:58:39.844311
357  2023-10-18 14:58:39.876179
358  2023-10-18 14:58:39.908139
359  2023-10-18 14:58:39.940042
360  2023-10-18 14:58:39.971957
361  2023-10-18 14:58:40.003866
362  2023-10-18 14:58:40.035793
363  2023-10-18 14:58:40.067695
364  2023-10-18 14:58:40.115583
365  2023-10-18 14:58:40.147499
366  2023-10-18 14:58:40.180378
367  2023-10-18 14:58:40.211319
368  2023-10-18 14:58:40.244196
369  2023-10-18 14:58:40.276143
370  2023-10-18 14:58:40.308057
371  2023-10-18 14:58:40.339977
372  2023-10-18 14:58:40.371855
373  2023-10-18 14:58:40.403827
374  2023-10-18 14:58:40.435712
375  2023-10-18 14:58:40.467648
376  2023-10-18 14:58:40.515469
377  2023-10-18 14:58:40.547421
378  2023-10-18 14:58:40.579329
379  2023-10-18 14:58:40.612212
380  2023-10-18 14:58:40.644170
381  2023-10-18 14:58:40.676078
382  2023-10-18 14:58:40.707981
383  2023-10-18 14:58:40.739912
384  2023-10-18 14:58:40.771785
385  2023-10-18 14:58:40.803739
386  2023-10-18 14:58:40.835652
387  2023-10-18 14:58:40.867568
388  2023-10-18 14:58:40.915434
389  2023-10-18 14:58:40.947379
390  2023-10-18 14:58:40.980262
391  2023-10-18 14:58:41.012196
392  2023-10-18 14:58:41.044057
393  2023-10-18 14:58:41.076008
394  2023-10-18 14:58:41.107911
395  2023-10-18 14:58:41.139855
396  2023-10-18 14:58:41.171767
397  2023-10-18 14:58:41.203658
398  2023-10-18 14:58:41.235584
399  2023-10-18 14:58:41.267516
400  2023-10-18 14:58:41.315359
401  2023-10-18 14:58:41.347293
402  2023-10-18 14:58:41.380200
403  2023-10-18 14:58:41.412099
404  2023-10-18 14:58:41.443987
405  2023-10-18 14:58:41.475938
406  2023-10-18 14:58:41.507815
407  2023-10-18 14:58:41.539805
408  2023-10-18 14:58:41.571645
409  2023-10-18 14:58:41.603564
410  2023-10-18 14:58:41.635503
411  2023-10-18 14:58:41.667389
412  2023-10-18 14:58:41.716293
413  2023-10-18 14:58:41.748173
414  2023-10-18 14:58:41.780123
415  2023-10-18 14:58:41.812002
416  2023-10-18 14:58:41.843945
417  2023-10-18 14:58:41.875866
418  2023-10-18 14:58:41.907775
419  2023-10-18 14:58:41.939696
420  2023-10-18 14:58:41.971610
421  2023-10-18 14:58:42.003516
422  2023-10-18 14:58:42.035409
423  2023-10-18 14:58:42.067354
424  2023-10-18 14:58:42.116228
425  2023-10-18 14:58:42.148139
426  2023-10-18 14:58:42.180044
427  2023-10-18 14:58:42.211975
428  2023-10-18 14:58:42.243847
429  2023-10-18 14:58:42.275787
430  2023-10-18 14:58:42.307722
431  2023-10-18 14:58:42.339638
432  2023-10-18 14:58:42.371506
433  2023-10-18 14:58:42.403461
434  2023-10-18 14:58:42.436333
435  2023-10-18 14:58:42.468289
436  2023-10-18 14:58:42.516158
437  2023-10-18 14:58:42.548068
438  2023-10-18 14:58:42.579985
439  2023-10-18 14:58:42.611901
440  2023-10-18 14:58:42.643814
441  2023-10-18 14:58:42.675737
442  2023-10-18 14:58:42.707645
443  2023-10-18 14:58:42.739550
444  2023-10-18 14:58:42.771474
445  2023-10-18 14:58:42.803379
446  2023-10-18 14:58:42.836320
447  2023-10-18 14:58:42.868214
448  2023-10-18 14:58:42.916075
449  2023-10-18 14:58:42.947992
450  2023-10-18 14:58:42.979914
451  2023-10-18 14:58:43.011838
452  2023-10-18 14:58:43.043748
453  2023-10-18 14:58:43.075676
454  2023-10-18 14:58:43.107567
455  2023-10-18 14:58:43.139482
456  2023-10-18 14:58:43.171404
457  2023-10-18 14:58:43.204326
458  2023-10-18 14:58:43.236193
459  2023-10-18 14:58:43.268144
460  2023-10-18 14:58:43.315979
461  2023-10-18 14:58:43.347937
462  2023-10-18 14:58:43.379834
463  2023-10-18 14:58:43.411761
464  2023-10-18 14:58:43.443638
465  2023-10-18 14:58:43.475582
466  2023-10-18 14:58:43.507467
467  2023-10-18 14:58:43.540378
468  2023-10-18 14:58:43.572334
469  2023-10-18 14:58:43.604258
470  2023-10-18 14:58:43.636169
471  2023-10-18 14:58:43.668065
472  2023-10-18 14:58:43.715910
473  2023-10-18 14:58:43.747823
474  2023-10-18 14:58:43.779778
475  2023-10-18 14:58:43.811701
476  2023-10-18 14:58:43.843569
477  2023-10-18 14:58:44.238511
478  2023-10-18 14:58:44.244497
479  2023-10-18 14:58:44.275413
480  2023-10-18 14:58:44.307362
481  2023-10-18 14:58:44.340272
482  2023-10-18 14:58:44.372184
483  2023-10-18 14:58:44.404105
484  2023-10-18 14:58:44.436016
485  2023-10-18 14:58:44.467899
486  2023-10-18 14:58:44.515816
487  2023-10-18 14:58:44.547722
488  2023-10-18 14:58:44.579635
489  2023-10-18 14:58:44.611560
490  2023-10-18 14:58:44.643474
491  2023-10-18 14:58:44.675383
492  2023-10-18 14:58:44.708293
493  2023-10-18 14:58:44.740221
494  2023-10-18 14:58:44.772110
495  2023-10-18 14:58:44.804043
496  2023-10-18 14:58:44.835915
497  2023-10-18 14:58:44.867880
498  2023-10-18 14:58:44.915762
499  2023-10-18 14:58:44.947651
500  2023-10-18 14:58:44.979571
501  2023-10-18 14:58:45.011481
502  2023-10-18 14:58:45.043394
503  2023-10-18 14:58:45.075312
504  2023-10-18 14:58:45.108212
505  2023-10-18 14:58:45.140137
506  2023-10-18 14:58:45.172021
507  2023-10-18 14:58:45.203966
508  2023-10-18 14:58:45.235870
509  2023-10-18 14:58:45.267762
510  2023-10-18 14:58:45.315676
511  2023-10-18 14:58:45.347591
512  2023-10-18 14:58:45.379460
513  2023-10-18 14:58:45.411416
514  2023-10-18 14:58:45.444327
515  2023-10-18 14:58:45.476201
516  2023-10-18 14:58:45.508150
517  2023-10-18 14:58:45.540058
518  2023-10-18 14:58:45.571979
519  2023-10-18 14:58:45.603863
520  2023-10-18 14:58:45.635815
521  2023-10-18 14:58:45.667735
522  2023-10-18 14:58:45.715586
523  2023-10-18 14:58:45.747532
524  2023-10-18 14:58:45.779431
525  2023-10-18 14:58:45.811338
526  2023-10-18 14:58:45.844271
527  2023-10-18 14:58:45.876177
528  2023-10-18 14:58:45.908069
529  2023-10-18 14:58:45.939960
530  2023-10-18 14:58:45.971911
531  2023-10-18 14:58:46.003845
532  2023-10-18 14:58:46.035731
533  2023-10-18 14:58:46.067658
534  2023-10-18 14:58:46.115564
535  2023-10-18 14:58:46.147405
536  2023-10-18 14:58:46.179349
537  2023-10-18 14:58:46.212275
538  2023-10-18 14:58:46.244163
539  2023-10-18 14:58:46.276105
540  2023-10-18 14:58:46.308019
541  2023-10-18 14:58:46.339917
542  2023-10-18 14:58:46.371843
543  2023-10-18 14:58:46.403749
544  2023-10-18 14:58:46.435679
545  2023-10-18 14:58:46.467553
546  2023-10-18 14:58:46.515470
547  2023-10-18 14:58:46.547362
548  2023-10-18 14:58:46.580301
549  2023-10-18 14:58:46.612197
550  2023-10-18 14:58:46.644107
551  2023-10-18 14:58:46.676025
552  2023-10-18 14:58:46.707954
553  2023-10-18 14:58:46.739847
554  2023-10-18 14:58:46.771766
555  2023-10-18 14:58:46.803691
556  2023-10-18 14:58:46.835609
557  2023-10-18 14:58:46.867516
558  2023-10-18 14:58:46.916386
559  2023-10-18 14:58:46.948296
560  2023-10-18 14:58:46.980213
561  2023-10-18 14:58:47.012092
562  2023-10-18 14:58:47.044045
563  2023-10-18 14:58:47.075964
564  2023-10-18 14:58:47.107866
565  2023-10-18 14:58:47.139784
566  2023-10-18 14:58:47.171669
567  2023-10-18 14:58:47.203620
568  2023-10-18 14:58:47.235523
569  2023-10-18 14:58:47.267449
570  2023-10-18 14:58:47.315311
571  2023-10-18 14:58:47.348231
572  2023-10-18 14:58:47.380155
573  2023-10-18 14:58:47.412052
574  2023-10-18 14:58:47.443963
575  2023-10-18 14:58:47.475907
576  2023-10-18 14:58:47.507804
577  2023-10-18 14:58:47.539721
578  2023-10-18 14:58:47.571631
579  2023-10-18 14:58:47.603540
580  2023-10-18 14:58:47.635454
581  2023-10-18 14:58:47.667381
582  2023-10-18 14:58:47.716263
583  2023-10-18 14:58:47.748172
584  2023-10-18 14:58:47.780075
585  2023-10-18 14:58:47.811989
586  2023-10-18 14:58:47.843913
587  2023-10-18 14:58:47.875821
588  2023-10-18 14:58:47.907727
589  2023-10-18 14:58:47.939646
590  2023-10-18 14:58:47.971569
591  2023-10-18 14:58:48.003467
592  2023-10-18 14:58:48.035396
593  2023-10-18 14:58:48.068272
594  2023-10-18 14:58:48.116176
595  2023-10-18 14:58:48.148088
596  2023-10-18 14:58:48.179999
597  2023-10-18 14:58:48.211924
598  2023-10-18 14:58:48.243852
599  2023-10-18 14:58:48.275752
600  2023-10-18 14:58:48.307657
601  2023-10-18 14:58:48.339570
602  2023-10-18 14:58:48.371498
603  2023-10-18 14:58:48.403405
604  2023-10-18 14:58:48.435312
605  2023-10-18 14:58:48.468201
606  2023-10-18 14:58:48.516103
607  2023-10-18 14:58:48.548039
608  2023-10-18 14:58:48.579934
609  2023-10-18 14:58:48.611841
610  2023-10-18 14:58:48.643728
611  2023-10-18 14:58:48.675687
612  2023-10-18 14:58:48.707592
613  2023-10-18 14:58:48.739510
614  2023-10-18 14:58:48.771441
615  2023-10-18 14:58:48.804304
616  2023-10-18 14:58:48.836248
617  2023-10-18 14:58:48.868171
618  2023-10-18 14:58:48.916039
619  2023-10-18 14:58:48.947949
620  2023-10-18 14:58:48.979860
621  2023-10-18 14:58:49.011783
622  2023-10-18 14:58:49.043687
623  2023-10-18 14:58:49.075629
624  2023-10-18 14:58:49.107522
625  2023-10-18 14:58:49.139433
626  2023-10-18 14:58:49.171344
627  2023-10-18 14:58:49.204232
628  2023-10-18 14:58:49.236178
629  2023-10-18 14:58:49.268100
630  2023-10-18 14:58:49.300010
631  2023-10-18 14:58:49.347897
632  2023-10-18 14:58:49.379829
633  2023-10-18 14:58:49.411716
634  2023-10-18 14:58:49.443619
635  2023-10-18 14:58:49.475539
636  2023-10-18 14:58:49.508464
637  2023-10-18 14:58:49.540367
638  2023-10-18 14:58:49.572283
639  2023-10-18 14:58:49.604186
640  2023-10-18 14:58:49.636101
641  2023-10-18 14:58:49.668024
642  2023-10-18 14:58:49.699943
643  2023-10-18 14:58:49.747778
644  2023-10-18 14:58:49.779718
645  2023-10-18 14:58:49.811646
646  2023-10-18 14:58:49.843518
647  2023-10-18 14:58:50.188597
648  2023-10-18 14:58:50.212532
649  2023-10-18 14:58:50.243496
650  2023-10-18 14:58:50.275364
651  2023-10-18 14:58:50.307312
652  2023-10-18 14:58:50.340228
653  2023-10-18 14:58:50.372105
654  2023-10-18 14:58:50.404049
655  2023-10-18 14:58:50.435968
656  2023-10-18 14:58:50.467850
657  2023-10-18 14:58:50.499764
658  2023-10-18 14:58:50.547634
659  2023-10-18 14:58:50.579550
660  2023-10-18 14:58:50.611523
661  2023-10-18 14:58:50.643417
662  2023-10-18 14:58:50.675320
663  2023-10-18 14:58:50.708243
664  2023-10-18 14:58:50.740147
665  2023-10-18 14:58:50.772035
666  2023-10-18 14:58:50.803954
667  2023-10-18 14:58:50.835872
668  2023-10-18 14:58:50.867833
669  2023-10-18 14:58:50.899731
670  2023-10-18 14:58:50.947614
671  2023-10-18 14:58:50.979546
672  2023-10-18 14:58:51.011432
673  2023-10-18 14:58:51.043350
674  2023-10-18 14:58:51.076263
675  2023-10-18 14:58:51.108173
676  2023-10-18 14:58:51.140080
677  2023-10-18 14:58:51.171992
678  2023-10-18 14:58:51.203919
679  2023-10-18 14:58:51.235844
680  2023-10-18 14:58:51.267751
681  2023-10-18 14:58:51.299652
682  2023-10-18 14:58:51.347536
683  2023-10-18 14:58:51.379410
684  2023-10-18 14:58:51.411359
685  2023-10-18 14:58:51.444271
686  2023-10-18 14:58:51.476184
687  2023-10-18 14:58:51.508100
688  2023-10-18 14:58:51.540022
689  2023-10-18 14:58:51.571926
690  2023-10-18 14:58:51.603842
691  2023-10-18 14:58:51.635755
692  2023-10-18 14:58:51.667688
693  2023-10-18 14:58:51.699603
694  2023-10-18 14:58:51.747475
695  2023-10-18 14:58:51.780373
696  2023-10-18 14:58:51.812312
697  2023-10-18 14:58:51.844210
698  2023-10-18 14:58:51.876117
699  2023-10-18 14:58:51.908029
700  2023-10-18 14:58:51.939946
701  2023-10-18 14:58:51.971856
702  2023-10-18 14:58:52.004737
703  2023-10-18 14:58:52.035693
704  2023-10-18 14:58:52.067608
705  2023-10-18 14:58:52.099514
706  2023-10-18 14:58:52.147399
707  2023-10-18 14:58:52.180308
708  2023-10-18 14:58:52.212225
709  2023-10-18 14:58:52.244142
710  2023-10-18 14:58:52.276049
711  2023-10-18 14:58:52.307965
712  2023-10-18 14:58:52.339842
713  2023-10-18 14:58:52.371766
714  2023-10-18 14:58:52.403713
715  2023-10-18 14:58:52.435622
716  2023-10-18 14:58:52.467501
717  2023-10-18 14:58:52.499444
718  2023-10-18 14:58:52.547312
719  2023-10-18 14:58:52.580249
720  2023-10-18 14:58:52.612164
721  2023-10-18 14:58:52.644061
722  2023-10-18 14:58:52.675983
723  2023-10-18 14:58:52.707884
724  2023-10-18 14:58:52.739812
725  2023-10-18 14:58:52.771719
726  2023-10-18 14:58:52.803605
727  2023-10-18 14:58:52.835551
728  2023-10-18 14:58:52.867435
729  2023-10-18 14:58:52.899373
730  2023-10-18 14:58:52.948278
731  2023-10-18 14:58:52.980129
732  2023-10-18 14:58:53.012044
733  2023-10-18 14:58:53.043999
734  2023-10-18 14:58:53.075914
735  2023-10-18 14:58:53.107820
736  2023-10-18 14:58:53.139733
737  2023-10-18 14:58:53.171621
738  2023-10-18 14:58:53.203580
739  2023-10-18 14:58:53.235498
740  2023-10-18 14:58:53.267416
741  2023-10-18 14:58:53.300276
742  2023-10-18 14:58:53.348181
743  2023-10-18 14:58:53.380093
744  2023-10-18 14:58:53.412016
745  2023-10-18 14:58:53.443930
746  2023-10-18 14:58:53.475846
747  2023-10-18 14:58:53.507774
748  2023-10-18 14:58:53.539668
749  2023-10-18 14:58:53.571573
750  2023-10-18 14:58:53.603500
751  2023-10-18 14:58:53.635403
752  2023-10-18 14:58:53.668289
753  2023-10-18 14:58:53.700236
754  2023-10-18 14:58:53.748100
755  2023-10-18 14:58:53.780023
756  2023-10-18 14:58:53.811940
757  2023-10-18 14:58:53.843844
758  2023-10-18 14:58:53.875771
759  2023-10-18 14:58:53.907686
760  2023-10-18 14:58:53.939601
761  2023-10-18 14:58:53.971480
762  2023-10-18 14:58:54.003422
763  2023-10-18 14:58:54.035336
764  2023-10-18 14:58:54.068245
765  2023-10-18 14:58:54.100160
766  2023-10-18 14:58:54.148031
767  2023-10-18 14:58:54.179960
768  2023-10-18 14:58:54.211897
769  2023-10-18 14:58:54.243787
770  2023-10-18 14:58:54.275714
771  2023-10-18 14:58:54.307619
772  2023-10-18 14:58:54.339555
773  2023-10-18 14:58:54.371452
774  2023-10-18 14:58:54.404366
775  2023-10-18 14:58:54.436263
776  2023-10-18 14:58:54.468175
777  2023-10-18 14:58:54.500063
778  2023-10-18 14:58:54.547963
779  2023-10-18 14:58:54.579850
780  2023-10-18 14:58:54.611765
781  2023-10-18 14:58:54.643725
782  2023-10-18 14:58:54.675622
783  2023-10-18 14:58:54.707548
784  2023-10-18 14:58:54.739461
785  2023-10-18 14:58:54.771372
786  2023-10-18 14:58:54.804276
787  2023-10-18 14:58:54.836164
788  2023-10-18 14:58:54.868078
789  2023-10-18 14:58:54.900030
790  2023-10-18 14:58:54.947864
791  2023-10-18 14:58:54.979780
792  2023-10-18 14:58:55.011739
793  2023-10-18 14:58:55.043646
794  2023-10-18 14:58:55.075562
795  2023-10-18 14:58:55.107470
796  2023-10-18 14:58:55.139382
797  2023-10-18 14:58:55.172265
798  2023-10-18 14:58:55.204209
799  2023-10-18 14:58:55.236140
800  2023-10-18 14:58:55.268035
801  2023-10-18 14:58:55.299956
802  2023-10-18 14:58:55.347822
803  2023-10-18 14:58:55.379736
804  2023-10-18 14:58:55.411623
805  2023-10-18 14:58:55.443538
806  2023-10-18 14:58:55.627110
807  2023-10-18 14:58:55.636024
808  2023-10-18 14:58:55.667938
809  2023-10-18 14:58:55.699893
810  2023-10-18 14:58:55.747725
811  2023-10-18 14:58:55.779639
812  2023-10-18 14:58:55.811554
813  2023-10-18 14:58:55.843468
814  2023-10-18 14:58:55.875416
815  2023-10-18 14:58:55.908329
816  2023-10-18 14:58:55.940210
817  2023-10-18 14:58:55.972168
818  2023-10-18 14:58:56.004075
819  2023-10-18 14:58:56.035989
820  2023-10-18 14:58:56.067910
821  2023-10-18 14:58:56.099861
822  2023-10-18 14:58:56.147655
823  2023-10-18 14:58:56.179569
824  2023-10-18 14:58:56.211484
825  2023-10-18 14:58:56.243399
826  2023-10-18 14:58:56.275341
827  2023-10-18 14:58:56.308263
828  2023-10-18 14:58:56.340142
829  2023-10-18 14:58:56.372094
830  2023-10-18 14:58:56.403999
831  2023-10-18 14:58:56.435922
832  2023-10-18 14:58:56.467831
833  2023-10-18 14:58:56.499762
834  2023-10-18 14:58:56.547587
835  2023-10-18 14:58:56.579500
836  2023-10-18 14:58:56.611414
837  2023-10-18 14:58:56.643329
838  2023-10-18 14:58:56.676242
839  2023-10-18 14:58:56.708157
840  2023-10-18 14:58:56.740072
841  2023-10-18 14:58:56.772022
842  2023-10-18 14:58:56.803910
843  2023-10-18 14:58:56.835861
844  2023-10-18 14:58:56.867766
845  2023-10-18 14:58:56.899677
846  2023-10-18 14:58:56.947519
847  2023-10-18 14:58:56.979430
848  2023-10-18 14:58:57.012342
849  2023-10-18 14:58:57.044256
850  2023-10-18 14:58:57.076211
851  2023-10-18 14:58:57.108087
852  2023-10-18 14:58:57.140039
853  2023-10-18 14:58:57.171943
854  2023-10-18 14:58:57.203869
855  2023-10-18 14:58:57.235793
856  2023-10-18 14:58:57.267714
857  2023-10-18 14:58:57.299615
858  2023-10-18 14:58:57.347445
859  2023-10-18 14:58:57.379360
860  2023-10-18 14:58:57.412277
861  2023-10-18 14:58:57.444187
862  2023-10-18 14:58:57.476148
863  2023-10-18 14:58:57.508043
864  2023-10-18 14:58:57.539965
865  2023-10-18 14:58:57.571874
866  2023-10-18 14:58:57.603794
867  2023-10-18 14:58:57.635713
868  2023-10-18 14:58:57.667642
869  2023-10-18 14:58:57.699533
870  2023-10-18 14:58:57.748374
871  2023-10-18 14:58:57.779290
872  2023-10-18 14:58:57.812202
873  2023-10-18 14:58:57.844155
874  2023-10-18 14:58:57.876060
875  2023-10-18 14:58:57.907994
876  2023-10-18 14:58:57.939861
877  2023-10-18 14:58:57.971810
878  2023-10-18 14:58:58.003719
879  2023-10-18 14:58:58.035633
880  2023-10-18 14:58:58.067521
881  2023-10-18 14:58:58.099464
882  2023-10-18 14:58:58.147306
883  2023-10-18 14:58:58.180258
884  2023-10-18 14:58:58.212162
885  2023-10-18 14:58:58.244047
886  2023-10-18 14:58:58.275992
887  2023-10-18 14:58:58.307877
888  2023-10-18 14:58:58.339828
889  2023-10-18 14:58:58.371772
890  2023-10-18 14:58:58.403665
891  2023-10-18 14:58:58.435542
892  2023-10-18 14:58:58.467456
893  2023-10-18 14:58:58.499364
894  2023-10-18 14:58:58.548236
895  2023-10-18 14:58:58.580148
896  2023-10-18 14:58:58.612063
897  2023-10-18 14:58:58.644005
898  2023-10-18 14:58:58.675928
899  2023-10-18 14:58:58.707834
900  2023-10-18 14:58:58.739751
901  2023-10-18 14:58:58.771672
902  2023-10-18 14:58:58.803596
903  2023-10-18 14:58:58.835495
904  2023-10-18 14:58:58.867380
905  2023-10-18 14:58:58.900320
906  2023-10-18 14:58:58.948164
907  2023-10-18 14:58:58.980078
908  2023-10-18 14:58:59.011993
909  2023-10-18 14:58:59.043916
910  2023-10-18 14:58:59.075860
911  2023-10-18 14:58:59.107738
912  2023-10-18 14:58:59.139681
913  2023-10-18 14:58:59.171611
914  2023-10-18 14:58:59.204480
915  2023-10-18 14:58:59.235426
916  2023-10-18 14:58:59.268341
917  2023-10-18 14:58:59.300224
918  2023-10-18 14:58:59.348095
919  2023-10-18 14:58:59.380036
920  2023-10-18 14:58:59.411923
921  2023-10-18 14:58:59.443865
922  2023-10-18 14:58:59.475810
923  2023-10-18 14:58:59.507718
924  2023-10-18 14:58:59.539641
925  2023-10-18 14:58:59.571563
926  2023-10-18 14:58:59.603442
927  2023-10-18 14:58:59.636328
928  2023-10-18 14:58:59.668266
929  2023-10-18 14:58:59.700202
930  2023-10-18 14:58:59.748024
931  2023-10-18 14:58:59.779939
932  2023-10-18 14:58:59.811853
933  2023-10-18 14:58:59.843797
934  2023-10-18 14:58:59.875725
935  2023-10-18 14:58:59.907625
936  2023-10-18 14:58:59.939551
937  2023-10-18 14:58:59.971471
938  2023-10-18 14:59:00.003392
939  2023-10-18 14:59:00.036294
940  2023-10-18 14:59:00.068210
941  2023-10-18 14:59:00.100083
942  2023-10-18 14:59:00.147991
943  2023-10-18 14:59:00.179872
944  2023-10-18 14:59:00.211785
945  2023-10-18 14:59:00.243755
946  2023-10-18 14:59:00.275644
947  2023-10-18 14:59:00.307567
948  2023-10-18 14:59:00.339470
949  2023-10-18 14:59:00.371394
950  2023-10-18 14:59:00.403311
951  2023-10-18 14:59:00.436223
952  2023-10-18 14:59:00.468134
953  2023-10-18 14:59:00.500014
954  2023-10-18 14:59:00.547886
955  2023-10-18 14:59:00.579844
956  2023-10-18 14:59:00.611715
957  2023-10-18 14:59:00.643631
958  2023-10-18 14:59:00.675544
959  2023-10-18 14:59:00.707500
960  2023-10-18 14:59:00.739402
961  2023-10-18 14:59:00.771329
962  2023-10-18 14:59:00.804239
963  2023-10-18 14:59:00.836140
964  2023-10-18 14:59:00.868057
965  2023-10-18 14:59:00.900002
966  2023-10-18 14:59:00.947816
967  2023-10-18 14:59:00.979731
968  2023-10-18 14:59:01.011645
969  2023-10-18 14:59:01.043600
970  2023-10-18 14:59:01.075503
971  2023-10-18 14:59:01.107415
972  2023-10-18 14:59:01.139331
973  2023-10-18 14:59:01.172261
974  2023-10-18 14:59:01.204131
975  2023-10-18 14:59:01.236082
976  2023-10-18 14:59:01.267986
977  2023-10-18 14:59:01.299907
978  2023-10-18 14:59:01.347747
979  2023-10-18 14:59:01.379661
980  2023-10-18 14:59:01.411576
981  2023-10-18 14:59:01.443542
982  2023-10-18 14:59:01.475431
983  2023-10-18 14:59:01.507373
984  2023-10-18 14:59:01.540262
985  2023-10-18 14:59:01.572182
986  2023-10-18 14:59:01.604099
987  2023-10-18 14:59:01.636002
988  2023-10-18 14:59:01.667889
989  2023-10-18 14:59:01.699806
990  2023-10-18 14:59:01.748676
991  2023-10-18 14:59:01.779591
992  2023-10-18 14:59:01.811506
993  2023-10-18 14:59:01.843421
994  2023-10-18 14:59:01.875369
995  2023-10-18 14:59:01.908284
996  2023-10-18 14:59:01.940190
997  2023-10-18 14:59:01.972110
998  2023-10-18 14:59:02.004018
999  2023-10-18 14:59:02.035932
1000  2023-10-18 14:59:02.067846
1001  2023-10-18 14:59:02.099764
1002  2023-10-18 14:59:02.147607
1003  2023-10-18 14:59:02.179522
1004  2023-10-18 14:59:02.211436
1005  2023-10-18 14:59:02.243392
1006  2023-10-18 14:59:02.275325
1007  2023-10-18 14:59:02.308177
1008  2023-10-18 14:59:02.340129
1009  2023-10-18 14:59:02.372040
1010  2023-10-18 14:59:02.403921
1011  2023-10-18 14:59:02.435873
1012  2023-10-18 14:59:02.467787
1013  2023-10-18 14:59:02.499702
1014  2023-10-18 14:59:02.547537
1015  2023-10-18 14:59:02.579452
1016  2023-10-18 14:59:02.611395
1017  2023-10-18 14:59:02.643319
1018  2023-10-18 14:59:02.676237
1019  2023-10-18 14:59:02.708141
1020  2023-10-18 14:59:02.740058
1021  2023-10-18 14:59:02.771964
1022  2023-10-18 14:59:02.803900
1023  2023-10-18 14:59:02.835811
1024  2023-10-18 14:59:02.867714
1025  2023-10-18 14:59:02.899641
1026  2023-10-18 14:59:02.947467
1027  2023-10-18 14:59:02.979382
1028  2023-10-18 14:59:03.011338
1029  2023-10-18 14:59:03.044240
1030  2023-10-18 14:59:03.076123
1031  2023-10-18 14:59:03.108038
1032  2023-10-18 14:59:03.139993
1033  2023-10-18 14:59:03.171870
1034  2023-10-18 14:59:03.203817
1035  2023-10-18 14:59:03.235728
1036  2023-10-18 14:59:03.267648
1037  2023-10-18 14:59:03.299554
1038  2023-10-18 14:59:03.347398
1039  2023-10-18 14:59:03.379356
1040  2023-10-18 14:59:03.412256
1041  2023-10-18 14:59:03.444174
1042  2023-10-18 14:59:03.476101
1043  2023-10-18 14:59:03.508006
1044  2023-10-18 14:59:03.539910
1045  2023-10-18 14:59:03.571797
1046  2023-10-18 14:59:03.603749
1047  2023-10-18 14:59:03.635630
1048  2023-10-18 14:59:03.667569
1049  2023-10-18 14:59:03.699495
1050  2023-10-18 14:59:03.747328
1051  2023-10-18 14:59:03.780240
1052  2023-10-18 14:59:03.812184
1053  2023-10-18 14:59:03.844095
1054  2023-10-18 14:59:03.875990
1055  2023-10-18 14:59:03.907948
1056  2023-10-18 14:59:03.939844
1057  2023-10-18 14:59:03.971754
1058  2023-10-18 14:59:04.003672
1059  2023-10-18 14:59:04.035583
1060  2023-10-18 14:59:04.067523
1061  2023-10-18 14:59:04.099416
1062  2023-10-18 14:59:04.148256
1063  2023-10-18 14:59:04.180170
1064  2023-10-18 14:59:04.212121
1065  2023-10-18 14:59:04.244027
1066  2023-10-18 14:59:04.275952
1067  2023-10-18 14:59:04.307877
1068  2023-10-18 14:59:04.339800
1069  2023-10-18 14:59:04.371685
1070  2023-10-18 14:59:04.403601
1071  2023-10-18 14:59:04.435514
1072  2023-10-18 14:59:04.467402
1073  2023-10-18 14:59:04.499348
1074  2023-10-18 14:59:04.548186
1075  2023-10-18 14:59:04.580101
1076  2023-10-18 14:59:04.612059
1077  2023-10-18 14:59:04.643956
1078  2023-10-18 14:59:04.675875
1079  2023-10-18 14:59:04.707813
1080  2023-10-18 14:59:04.739709
1081  2023-10-18 14:59:04.771617
1082  2023-10-18 14:59:04.803532
1083  2023-10-18 14:59:04.836452
1084  2023-10-18 14:59:04.867358
1085  2023-10-18 14:59:04.899284
1086  2023-10-18 14:59:04.948116
1087  2023-10-18 14:59:04.980031
1088  2023-10-18 14:59:05.011945
1089  2023-10-18 14:59:05.043861
1090  2023-10-18 14:59:05.075819
1091  2023-10-18 14:59:05.107730
1092  2023-10-18 14:59:05.139634
1093  2023-10-18 14:59:05.171564
1094  2023-10-18 14:59:05.203433
1095  2023-10-18 14:59:05.235346
1096  2023-10-18 14:59:05.268259
1097  2023-10-18 14:59:05.300176
1098  2023-10-18 14:59:05.348045
1099  2023-10-18 14:59:05.379988
1100  2023-10-18 14:59:05.411902
1101  2023-10-18 14:59:05.443828
1102  2023-10-18 14:59:05.475746
1103  2023-10-18 14:59:05.507647
1104  2023-10-18 14:59:05.539567
1105  2023-10-18 14:59:05.571481
1106  2023-10-18 14:59:05.604360
1107  2023-10-18 14:59:05.636306
1108  2023-10-18 14:59:05.668194
1109  2023-10-18 14:59:05.700141
1110  2023-10-18 14:59:05.748018
1111  2023-10-18 14:59:05.779933
1112  2023-10-18 14:59:05.811843
1113  2023-10-18 14:59:05.843749
1114  2023-10-18 14:59:05.875685
1115  2023-10-18 14:59:05.907589
1116  2023-10-18 14:59:05.939500
1117  2023-10-18 14:59:05.971417
1118  2023-10-18 14:59:06.003335
1119  2023-10-18 14:59:06.036246
1120  2023-10-18 14:59:06.068120
1121  2023-10-18 14:59:06.100079
1122  2023-10-18 14:59:06.147946
1123  2023-10-18 14:59:06.179857
1124  2023-10-18 14:59:06.211736
1125  2023-10-18 14:59:06.243652
1126  2023-10-18 14:59:06.298504
1127  2023-10-18 14:59:06.308482
1128  2023-10-18 14:59:06.340429
1129  2023-10-18 14:59:06.372344
1130  2023-10-18 14:59:06.404266
1131  2023-10-18 14:59:06.436135
1132  2023-10-18 14:59:06.468049
1133  2023-10-18 14:59:06.499965
1134  2023-10-18 14:59:06.547853
1135  2023-10-18 14:59:06.579799
1136  2023-10-18 14:59:06.611665
1137  2023-10-18 14:59:06.643609
1138  2023-10-18 14:59:06.676493
1139  2023-10-18 14:59:06.708434
1140  2023-10-18 14:59:06.739360
1141  2023-10-18 14:59:06.772275
1142  2023-10-18 14:59:06.804183
1143  2023-10-18 14:59:06.836105
1144  2023-10-18 14:59:06.868016
1145  2023-10-18 14:59:06.899921
1146  2023-10-18 14:59:06.947835
1147  2023-10-18 14:59:06.979723
1148  2023-10-18 14:59:07.011628
1149  2023-10-18 14:59:07.043543
1150  2023-10-18 14:59:07.075460
1151  2023-10-18 14:59:07.107389
1152  2023-10-18 14:59:07.140252
1153  2023-10-18 14:59:07.172219
1154  2023-10-18 14:59:07.204081
1155  2023-10-18 14:59:07.235997
1156  2023-10-18 14:59:07.267962
1157  2023-10-18 14:59:07.299829
1158  2023-10-18 14:59:07.347743
1159  2023-10-18 14:59:07.379651
1160  2023-10-18 14:59:07.411570
1161  2023-10-18 14:59:07.444465
1162  2023-10-18 14:59:07.475398
1163  2023-10-18 14:59:07.507308
1164  2023-10-18 14:59:07.540218
1165  2023-10-18 14:59:07.572133
1166  2023-10-18 14:59:07.604038
1167  2023-10-18 14:59:07.635962
1168  2023-10-18 14:59:07.667887
1169  2023-10-18 14:59:07.699794
1170  2023-10-18 14:59:07.747660
1171  2023-10-18 14:59:07.779587
1172  2023-10-18 14:59:07.811493
1173  2023-10-18 14:59:07.843402
1174  2023-10-18 14:59:07.875322
1175  2023-10-18 14:59:07.908239
1176  2023-10-18 14:59:07.940152
1177  2023-10-18 14:59:07.972061
1178  2023-10-18 14:59:08.003993
1179  2023-10-18 14:59:08.035883
1180  2023-10-18 14:59:08.067806
1181  2023-10-18 14:59:08.099729
1182  2023-10-18 14:59:08.147606
1183  2023-10-18 14:59:08.179511
1184  2023-10-18 14:59:08.212385
1185  2023-10-18 14:59:08.244299
1186  2023-10-18 14:59:08.276241
1187  2023-10-18 14:59:08.308164
1188  2023-10-18 14:59:08.340045
1189  2023-10-18 14:59:08.371957
1190  2023-10-18 14:59:08.403900
1191  2023-10-18 14:59:08.435815
1192  2023-10-18 14:59:08.467702
1193  2023-10-18 14:59:08.499667
1194  2023-10-18 14:59:08.547522
1195  2023-10-18 14:59:08.579403
1196  2023-10-18 14:59:08.611354
1197  2023-10-18 14:59:08.644264
1198  2023-10-18 14:59:08.676144
1199  2023-10-18 14:59:08.708092
1200  2023-10-18 14:59:08.740006
1201  2023-10-18 14:59:08.771917
1202  2023-10-18 14:59:08.803846
1203  2023-10-18 14:59:08.835746
1204  2023-10-18 14:59:08.867686
1205  2023-10-18 14:59:08.899584
1206  2023-10-18 14:59:08.947459
1207  2023-10-18 14:59:08.979360
1208  2023-10-18 14:59:09.012273
1209  2023-10-18 14:59:09.044198
1210  2023-10-18 14:59:09.076102
1211  2023-10-18 14:59:09.108024
1212  2023-10-18 14:59:09.139929
1213  2023-10-18 14:59:09.171821
1214  2023-10-18 14:59:09.203780
1215  2023-10-18 14:59:09.235688
1216  2023-10-18 14:59:09.267609
1217  2023-10-18 14:59:09.299524
1218  2023-10-18 14:59:09.347382
1219  2023-10-18 14:59:09.380288
1220  2023-10-18 14:59:09.412216
1221  2023-10-18 14:59:09.444115
1222  2023-10-18 14:59:09.476032
1223  2023-10-18 14:59:09.507953
1224  2023-10-18 14:59:09.539866
1225  2023-10-18 14:59:09.571776
1226  2023-10-18 14:59:09.603699
1227  2023-10-18 14:59:09.635581
1228  2023-10-18 14:59:09.667523
1229  2023-10-18 14:59:09.699446
1230  2023-10-18 14:59:09.747319
1231  2023-10-18 14:59:09.780243
1232  2023-10-18 14:59:09.812152
1233  2023-10-18 14:59:09.844052
1234  2023-10-18 14:59:09.875985
1235  2023-10-18 14:59:09.907850
1236  2023-10-18 14:59:09.939817
1237  2023-10-18 14:59:09.971714
1238  2023-10-18 14:59:10.003594
1239  2023-10-18 14:59:10.035534
1240  2023-10-18 14:59:10.067463
1241  2023-10-18 14:59:10.099342
1242  2023-10-18 14:59:10.148233
1243  2023-10-18 14:59:10.180147
1244  2023-10-18 14:59:10.212063
1245  2023-10-18 14:59:10.243983
1246  2023-10-18 14:59:10.275901
1247  2023-10-18 14:59:10.307823
1248  2023-10-18 14:59:10.339731
1249  2023-10-18 14:59:10.371660
1250  2023-10-18 14:59:10.403560
1251  2023-10-18 14:59:10.435465
1252  2023-10-18 14:59:10.467387
1253  2023-10-18 14:59:10.499323
1254  2023-10-18 14:59:10.548171
1255  2023-10-18 14:59:10.580087
1256  2023-10-18 14:59:10.611992
1257  2023-10-18 14:59:10.643908
1258  2023-10-18 14:59:10.675831
1259  2023-10-18 14:59:10.707738
1260  2023-10-18 14:59:10.739666
1261  2023-10-18 14:59:10.771592
1262  2023-10-18 14:59:10.803481
1263  2023-10-18 14:59:10.835373
1264  2023-10-18 14:59:10.867337
1265  2023-10-18 14:59:10.900194
1266  2023-10-18 14:59:10.948093
1267  2023-10-18 14:59:10.980023
1268  2023-10-18 14:59:11.011897
1269  2023-10-18 14:59:11.043839
1270  2023-10-18 14:59:11.075759
1271  2023-10-18 14:59:11.107683
1272  2023-10-18 14:59:11.139599
1273  2023-10-18 14:59:11.171509
1274  2023-10-18 14:59:11.203411
1275  2023-10-18 14:59:11.235325
1276  2023-10-18 14:59:11.268255
1277  2023-10-18 14:59:11.300125
1278  2023-10-18 14:59:11.348038
1279  2023-10-18 14:59:11.379939
1280  2023-10-18 14:59:11.411856
1281  2023-10-18 14:59:11.443792
1282  2023-10-18 14:59:11.475685
1283  2023-10-18 14:59:11.507611
1284  2023-10-18 14:59:11.539486
1285  2023-10-18 14:59:11.571427
1286  2023-10-18 14:59:11.603357
1287  2023-10-18 14:59:11.636265
1288  2023-10-18 14:59:11.668191
1289  2023-10-18 14:59:11.700054
1290  2023-10-18 14:59:11.747970
1291  2023-10-18 14:59:11.779887
1292  2023-10-18 14:59:11.812792
1293  2023-10-18 14:59:11.844705
1294  2023-10-18 14:59:11.876622
1295  2023-10-18 14:59:11.908499
1296  2023-10-18 14:59:11.940412
1297  2023-10-18 14:59:11.972327
1298  2023-10-18 14:59:12.004242
1299  2023-10-18 14:59:12.036155
1300  2023-10-18 14:59:12.068072
1301  2023-10-18 14:59:12.099986
1302  2023-10-18 14:59:12.147887
1303  2023-10-18 14:59:12.180795
1304  2023-10-18 14:59:12.212712
1305  2023-10-18 14:59:12.244643
1306  2023-10-18 14:59:12.276513
1307  2023-10-18 14:59:12.308454
1308  2023-10-18 14:59:12.340343
1309  2023-10-18 14:59:12.372257
1310  2023-10-18 14:59:12.404211
1311  2023-10-18 14:59:12.436085
1312  2023-10-18 14:59:12.468001
1313  2023-10-18 14:59:12.499948
1314  2023-10-18 14:59:12.548790
1315  2023-10-18 14:59:12.579754
1316  2023-10-18 14:59:12.612619
1317  2023-10-18 14:59:12.644564
1318  2023-10-18 14:59:12.676470
1319  2023-10-18 14:59:12.708364
1320  2023-10-18 14:59:12.740273
1321  2023-10-18 14:59:12.772220
1322  2023-10-18 14:59:12.804102
1323  2023-10-18 14:59:12.836017
1324  2023-10-18 14:59:12.867931
1325  2023-10-18 14:59:12.899847
1326  2023-10-18 14:59:12.947771
1327  2023-10-18 14:59:12.980668
1328  2023-10-18 14:59:13.012599
1329  2023-10-18 14:59:13.044486
1330  2023-10-18 14:59:13.076405
1331  2023-10-18 14:59:13.108289
1332  2023-10-18 14:59:13.140203
1333  2023-10-18 14:59:13.172118
1334  2023-10-18 14:59:13.204059
1335  2023-10-18 14:59:13.235947
1336  2023-10-18 14:59:13.267862
1337  2023-10-18 14:59:13.299775
1338  2023-10-18 14:59:13.347662
1339  2023-10-18 14:59:13.379597
1340  2023-10-18 14:59:13.411531
1341  2023-10-18 14:59:13.444390
1342  2023-10-18 14:59:13.476350
1343  2023-10-18 14:59:13.508264
1344  2023-10-18 14:59:13.540173
1345  2023-10-18 14:59:13.572083
1346  2023-10-18 14:59:13.603963
1347  2023-10-18 14:59:13.635882
1348  2023-10-18 14:59:13.667791
1349  2023-10-18 14:59:13.699742
1350  2023-10-18 14:59:13.748581
1351  2023-10-18 14:59:13.779522
1352  2023-10-18 14:59:13.811435
1353  2023-10-18 14:59:13.844355
1354  2023-10-18 14:59:13.876287
1355  2023-10-18 14:59:13.908195
1356  2023-10-18 14:59:13.940064
1357  2023-10-18 14:59:13.972014
1358  2023-10-18 14:59:14.003893
1359  2023-10-18 14:59:14.035834
1360  2023-10-18 14:59:14.067722
1361  2023-10-18 14:59:14.099665
1362  2023-10-18 14:59:14.147510
1363  2023-10-18 14:59:14.179455
1364  2023-10-18 14:59:14.211364
1365  2023-10-18 14:59:14.244250
1366  2023-10-18 14:59:14.276219
1367  2023-10-18 14:59:14.308105
1368  2023-10-18 14:59:14.340056
1369  2023-10-18 14:59:14.371948
1370  2023-10-18 14:59:14.403852
1371  2023-10-18 14:59:14.435773
1372  2023-10-18 14:59:14.467682
1373  2023-10-18 14:59:14.499613
1374  2023-10-18 14:59:14.547464
1375  2023-10-18 14:59:14.580351
1376  2023-10-18 14:59:14.612265
1377  2023-10-18 14:59:14.644180
1378  2023-10-18 14:59:14.676094
1379  2023-10-18 14:59:14.708008
1380  2023-10-18 14:59:14.739970
1381  2023-10-18 14:59:14.771875
1382  2023-10-18 14:59:14.804799
1383  2023-10-18 14:59:14.836666
1384  2023-10-18 14:59:14.867583
1385  2023-10-18 14:59:14.899533
1386  2023-10-18 14:59:14.947369
1387  2023-10-18 14:59:14.979319
1388  2023-10-18 14:59:15.012195
1389  2023-10-18 14:59:15.044122
1390  2023-10-18 14:59:15.076025
1391  2023-10-18 14:59:15.107951
1392  2023-10-18 14:59:15.139901
1393  2023-10-18 14:59:15.172766
1394  2023-10-18 14:59:15.204739
1395  2023-10-18 14:59:15.236631
1396  2023-10-18 14:59:15.267541
1397  2023-10-18 14:59:15.299456
1398  2023-10-18 14:59:15.347333
1399  2023-10-18 14:59:15.380212
1400  2023-10-18 14:59:15.412126
1401  2023-10-18 14:59:15.444041
1402  2023-10-18 14:59:15.475955
1403  2023-10-18 14:59:15.507923
1404  2023-10-18 14:59:15.539783
1405  2023-10-18 14:59:15.571765
1406  2023-10-18 14:59:15.604617
1407  2023-10-18 14:59:15.636555
1408  2023-10-18 14:59:15.667473
1409  2023-10-18 14:59:15.699387
1410  2023-10-18 14:59:15.748256
1411  2023-10-18 14:59:15.780142
1412  2023-10-18 14:59:15.812056
1413  2023-10-18 14:59:15.843970
1414  2023-10-18 14:59:15.875885
1415  2023-10-18 14:59:15.907801
1416  2023-10-18 14:59:15.939755
1417  2023-10-18 14:59:15.971664
1418  2023-10-18 14:59:16.004572
1419  2023-10-18 14:59:16.036498
1420  2023-10-18 14:59:16.067399
1421  2023-10-18 14:59:16.100286
1422  2023-10-18 14:59:16.148194
1423  2023-10-18 14:59:16.180072
1424  2023-10-18 14:59:16.211987
1425  2023-10-18 14:59:16.243901
1426  2023-10-18 14:59:16.275856
1427  2023-10-18 14:59:16.307764
1428  2023-10-18 14:59:16.339644
1429  2023-10-18 14:59:16.371559
1430  2023-10-18 14:59:16.403477
1431  2023-10-18 14:59:16.436386
1432  2023-10-18 14:59:16.468335
1433  2023-10-18 14:59:16.500247
1434  2023-10-18 14:59:16.548134
1435  2023-10-18 14:59:16.580045
1436  2023-10-18 14:59:16.611942
1437  2023-10-18 14:59:16.643860
1438  2023-10-18 14:59:16.675778
1439  2023-10-18 14:59:16.707660
1440  2023-10-18 14:59:16.739575
1441  2023-10-18 14:59:16.771521
1442  2023-10-18 14:59:16.803403
1443  2023-10-18 14:59:16.836317
1444  2023-10-18 14:59:16.868265
1445  2023-10-18 14:59:16.900144
1446  2023-10-18 14:59:16.948048
1447  2023-10-18 14:59:16.979972
1448  2023-10-18 14:59:17.011851
1449  2023-10-18 14:59:17.043788
1450  2023-10-18 14:59:17.075727
1451  2023-10-18 14:59:17.107627
1452  2023-10-18 14:59:17.139536
1453  2023-10-18 14:59:17.171452
1454  2023-10-18 14:59:17.203358
1455  2023-10-18 14:59:17.236304
1456  2023-10-18 14:59:17.268162
1457  2023-10-18 14:59:17.300104
1458  2023-10-18 14:59:17.347976
1459  2023-10-18 14:59:17.379892
1460  2023-10-18 14:59:17.411810
1461  2023-10-18 14:59:17.443722
1462  2023-10-18 14:59:17.476604
1463  2023-10-18 14:59:17.527469
1464  2023-10-18 14:59:17.539436
1465  2023-10-18 14:59:17.571386
1466  2023-10-18 14:59:17.604262
1467  2023-10-18 14:59:17.636198
1468  2023-10-18 14:59:17.668091
1469  2023-10-18 14:59:17.700005
1470  2023-10-18 14:59:17.747924
1471  2023-10-18 14:59:17.779838
1472  2023-10-18 14:59:17.811739
1473  2023-10-18 14:59:17.843664
1474  2023-10-18 14:59:17.875573
1475  2023-10-18 14:59:17.907494
1476  2023-10-18 14:59:17.939408
1477  2023-10-18 14:59:17.971314
1478  2023-10-18 14:59:18.004241
1479  2023-10-18 14:59:18.036107
1480  2023-10-18 14:59:18.068023
1481  2023-10-18 14:59:18.099973
1482  2023-10-18 14:59:18.147850
1483  2023-10-18 14:59:18.179752
1484  2023-10-18 14:59:18.212634
1485  2023-10-18 14:59:18.243611
1486  2023-10-18 14:59:18.275493
1487  2023-10-18 14:59:18.307419
1488  2023-10-18 14:59:18.340328
1489  2023-10-18 14:59:18.372259
1490  2023-10-18 14:59:18.404164
1491  2023-10-18 14:59:18.436066
1492  2023-10-18 14:59:18.467990
1493  2023-10-18 14:59:18.499905
1494  2023-10-18 14:59:18.547779
1495  2023-10-18 14:59:18.579702
1496  2023-10-18 14:59:18.611567
1497  2023-10-18 14:59:18.643519
1498  2023-10-18 14:59:18.676395
1499  2023-10-18 14:59:18.707312
1500  2023-10-18 14:59:18.740260
1501  2023-10-18 14:59:18.772179
1502  2023-10-18 14:59:18.804090
1503  2023-10-18 14:59:18.836031
1504  2023-10-18 14:59:18.867882
1505  2023-10-18 14:59:18.899795
1506  2023-10-18 14:59:18.947669
1507  2023-10-18 14:59:18.979622
1508  2023-10-18 14:59:19.011530
1509  2023-10-18 14:59:19.043439
1510  2023-10-18 14:59:19.075366
1511  2023-10-18 14:59:19.108278
1512  2023-10-18 14:59:19.140188
1513  2023-10-18 14:59:19.172072
1514  2023-10-18 14:59:19.204024
1515  2023-10-18 14:59:19.235942
1516  2023-10-18 14:59:19.267848
1517  2023-10-18 14:59:19.299726
1518  2023-10-18 14:59:19.347599
1519  2023-10-18 14:59:19.379570
1520  2023-10-18 14:59:19.411465
1521  2023-10-18 14:59:19.443388
1522  2023-10-18 14:59:19.476304
1523  2023-10-18 14:59:19.508203
1524  2023-10-18 14:59:19.540084
1525  2023-10-18 14:59:19.572026
1526  2023-10-18 14:59:19.603913
1527  2023-10-18 14:59:19.635827
1528  2023-10-18 14:59:19.667743
1529  2023-10-18 14:59:19.699656
1530  2023-10-18 14:59:19.747541
1531  2023-10-18 14:59:19.779491
1532  2023-10-18 14:59:19.811396
1533  2023-10-18 14:59:19.844307
1534  2023-10-18 14:59:19.876221
1535  2023-10-18 14:59:19.908140
1536  2023-10-18 14:59:19.940073
1537  2023-10-18 14:59:19.971971
1538  2023-10-18 14:59:20.003844
1539  2023-10-18 14:59:20.035758
1540  2023-10-18 14:59:20.067712
1541  2023-10-18 14:59:20.099586
1542  2023-10-18 14:59:20.147504
1543  2023-10-18 14:59:20.179409
1544  2023-10-18 14:59:20.212285
1545  2023-10-18 14:59:20.244245
1546  2023-10-18 14:59:20.276190
1547  2023-10-18 14:59:20.308057
1548  2023-10-18 14:59:20.339978
1549  2023-10-18 14:59:20.371900
1550  2023-10-18 14:59:20.403812
1551  2023-10-18 14:59:20.435725
1552  2023-10-18 14:59:20.467644
1553  2023-10-18 14:59:20.499546
1554  2023-10-18 14:59:20.547431
1555  2023-10-18 14:59:20.579350
1556  2023-10-18 14:59:20.612216
1557  2023-10-18 14:59:20.644136
1558  2023-10-18 14:59:20.676045
1559  2023-10-18 14:59:20.708003
1560  2023-10-18 14:59:20.739876
1561  2023-10-18 14:59:20.771791
1562  2023-10-18 14:59:20.803704
1563  2023-10-18 14:59:20.835660
1564  2023-10-18 14:59:20.867566
1565  2023-10-18 14:59:20.899474
1566  2023-10-18 14:59:20.947346
1567  2023-10-18 14:59:20.980258
1568  2023-10-18 14:59:21.012179
1569  2023-10-18 14:59:21.044101
1570  2023-10-18 14:59:21.076014
1571  2023-10-18 14:59:21.107925
1572  2023-10-18 14:59:21.139841
1573  2023-10-18 14:59:21.171753
1574  2023-10-18 14:59:21.203707
1575  2023-10-18 14:59:21.235549
1576  2023-10-18 14:59:21.267503
1577  2023-10-18 14:59:21.299415
1578  2023-10-18 14:59:21.347278
1579  2023-10-18 14:59:21.380199
1580  2023-10-18 14:59:21.412110
1581  2023-10-18 14:59:21.444027
1582  2023-10-18 14:59:21.475947
1583  2023-10-18 14:59:21.507822
1584  2023-10-18 14:59:21.539772
1585  2023-10-18 14:59:21.571692
1586  2023-10-18 14:59:21.603622
1587  2023-10-18 14:59:21.635517
1588  2023-10-18 14:59:21.667422
1589  2023-10-18 14:59:21.699343
1590  2023-10-18 14:59:21.748223
1591  2023-10-18 14:59:21.780128
1592  2023-10-18 14:59:21.812063
1593  2023-10-18 14:59:21.843957
1594  2023-10-18 14:59:21.875875
1595  2023-10-18 14:59:21.907794
1596  2023-10-18 14:59:21.939708
1597  2023-10-18 14:59:21.971637
1598  2023-10-18 14:59:22.003552
1599  2023-10-18 14:59:22.035447
1600  2023-10-18 14:59:22.067377
1601  2023-10-18 14:59:22.100270
1602  2023-10-18 14:59:22.148145
1603  2023-10-18 14:59:22.180054
1604  2023-10-18 14:59:22.211967
1605  2023-10-18 14:59:22.243887
1606  2023-10-18 14:59:22.275824
1607  2023-10-18 14:59:22.307723
1608  2023-10-18 14:59:22.339648
1609  2023-10-18 14:59:22.371545
1610  2023-10-18 14:59:22.403453
1611  2023-10-18 14:59:22.435376
1612  2023-10-18 14:59:22.468283
1613  2023-10-18 14:59:22.500202
1614  2023-10-18 14:59:22.548074
1615  2023-10-18 14:59:22.579997
1616  2023-10-18 14:59:22.611895
1617  2023-10-18 14:59:22.643819
1618  2023-10-18 14:59:22.675736
1619  2023-10-18 14:59:22.707650
1620  2023-10-18 14:59:22.739573
1621  2023-10-18 14:59:22.771469
1622  2023-10-18 14:59:22.803359
1623  2023-10-18 14:59:22.835302
1624  2023-10-18 14:59:22.868214
1625  2023-10-18 14:59:22.900129
1626  2023-10-18 14:59:22.948008
1627  2023-10-18 14:59:22.979929
1628  2023-10-18 14:59:23.011840
1629  2023-10-18 14:59:23.043748
1630  2023-10-18 14:59:23.075669
1631  2023-10-18 14:59:23.107585
1632  2023-10-18 14:59:23.140491
1633  2023-10-18 14:59:23.171402
1634  2023-10-18 14:59:23.203314
1635  2023-10-18 14:59:23.236224
1636  2023-10-18 14:59:23.268149
1637  2023-10-18 14:59:23.300056
1638  2023-10-18 14:59:23.347937
1639  2023-10-18 14:59:23.379859
1640  2023-10-18 14:59:23.411761
1641  2023-10-18 14:59:23.443676
1642  2023-10-18 14:59:23.475557
1643  2023-10-18 14:59:23.507509
1644  2023-10-18 14:59:23.539435
1645  2023-10-18 14:59:23.572327
1646  2023-10-18 14:59:23.604245
1647  2023-10-18 14:59:23.636170
1648  2023-10-18 14:59:23.668043
1649  2023-10-18 14:59:23.699986
1650  2023-10-18 14:59:23.747864
1651  2023-10-18 14:59:23.779785
1652  2023-10-18 14:59:23.811695
1653  2023-10-18 14:59:23.843614
1654  2023-10-18 14:59:23.876525
1655  2023-10-18 14:59:23.907438
1656  2023-10-18 14:59:23.939370
1657  2023-10-18 14:59:23.972266
1658  2023-10-18 14:59:24.004142
1659  2023-10-18 14:59:24.036090
1660  2023-10-18 14:59:24.068020
1661  2023-10-18 14:59:24.099926
1662  2023-10-18 14:59:24.147797
1663  2023-10-18 14:59:24.179721
1664  2023-10-18 14:59:24.211617
1665  2023-10-18 14:59:24.243529
1666  2023-10-18 14:59:24.275460
1667  2023-10-18 14:59:24.307371
1668  2023-10-18 14:59:24.339284
1669  2023-10-18 14:59:24.372197
1670  2023-10-18 14:59:24.404100
1671  2023-10-18 14:59:24.436026
1672  2023-10-18 14:59:24.467945
1673  2023-10-18 14:59:24.499855
1674  2023-10-18 14:59:24.547718
1675  2023-10-18 14:59:24.579633
1676  2023-10-18 14:59:24.611575
1677  2023-10-18 14:59:24.643475
1678  2023-10-18 14:59:24.675348
1679  2023-10-18 14:59:24.707297
1680  2023-10-18 14:59:24.740202
1681  2023-10-18 14:59:24.772128
1682  2023-10-18 14:59:24.804038
1683  2023-10-18 14:59:24.835958
1684  2023-10-18 14:59:24.867868
1685  2023-10-18 14:59:24.899780
1686  2023-10-18 14:59:24.947669
1687  2023-10-18 14:59:24.979571
1688  2023-10-18 14:59:25.011489
1689  2023-10-18 14:59:25.043363
1690  2023-10-18 14:59:25.076312
1691  2023-10-18 14:59:25.108191
1692  2023-10-18 14:59:25.140155
1693  2023-10-18 14:59:25.172019
1694  2023-10-18 14:59:25.203935
1695  2023-10-18 14:59:25.235886
1696  2023-10-18 14:59:25.267807
1697  2023-10-18 14:59:25.299720
1698  2023-10-18 14:59:25.347583
1699  2023-10-18 14:59:25.379464
1700  2023-10-18 14:59:25.411416
1701  2023-10-18 14:59:25.443342
1702  2023-10-18 14:59:25.476242
1703  2023-10-18 14:59:25.508164
1704  2023-10-18 14:59:25.540036
1705  2023-10-18 14:59:25.571976
1706  2023-10-18 14:59:25.603892
1707  2023-10-18 14:59:25.635814
1708  2023-10-18 14:59:25.667692
1709  2023-10-18 14:59:25.699681
1710  2023-10-18 14:59:25.747547
1711  2023-10-18 14:59:25.779437
1712  2023-10-18 14:59:25.811337
1713  2023-10-18 14:59:25.844280
1714  2023-10-18 14:59:25.876165
1715  2023-10-18 14:59:25.908093
1716  2023-10-18 14:59:25.939965
1717  2023-10-18 14:59:25.971880
1718  2023-10-18 14:59:26.003822
1719  2023-10-18 14:59:26.035746
1720  2023-10-18 14:59:26.067652
1721  2023-10-18 14:59:26.099578
1722  2023-10-18 14:59:26.147436
1723  2023-10-18 14:59:26.179381
1724  2023-10-18 14:59:26.212236
1725  2023-10-18 14:59:26.244217
1726  2023-10-18 14:59:26.276110
1727  2023-10-18 14:59:26.308026
1728  2023-10-18 14:59:26.339899
1729  2023-10-18 14:59:26.371860
1730  2023-10-18 14:59:26.403725
1731  2023-10-18 14:59:26.435674
1732  2023-10-18 14:59:26.467591
1733  2023-10-18 14:59:26.499503
1734  2023-10-18 14:59:26.547395
1735  2023-10-18 14:59:26.580296
1736  2023-10-18 14:59:26.612200
1737  2023-10-18 14:59:26.644127
1738  2023-10-18 14:59:26.676001
1739  2023-10-18 14:59:26.707911
1740  2023-10-18 14:59:26.739824
1741  2023-10-18 14:59:26.771785
1742  2023-10-18 14:59:26.803655
1743  2023-10-18 14:59:26.835612
1744  2023-10-18 14:59:26.867514
1745  2023-10-18 14:59:26.899466
1746  2023-10-18 14:59:26.947316
1747  2023-10-18 14:59:26.980226
1748  2023-10-18 14:59:27.012098
1749  2023-10-18 14:59:27.044015
1750  2023-10-18 14:59:27.075953
1751  2023-10-18 14:59:27.107846
1752  2023-10-18 14:59:27.139756
1753  2023-10-18 14:59:27.171671
1754  2023-10-18 14:59:27.203628
1755  2023-10-18 14:59:27.235542
1756  2023-10-18 14:59:27.267413
1757  2023-10-18 14:59:27.299328
1758  2023-10-18 14:59:27.348230
1759  2023-10-18 14:59:27.380114
1760  2023-10-18 14:59:27.412063
1761  2023-10-18 14:59:27.443986
1762  2023-10-18 14:59:27.475894
1763  2023-10-18 14:59:27.507801
1764  2023-10-18 14:59:27.539714
1765  2023-10-18 14:59:27.571627
1766  2023-10-18 14:59:27.603543
1767  2023-10-18 14:59:27.635476
1768  2023-10-18 14:59:27.667374
1769  2023-10-18 14:59:27.699299
1770  2023-10-18 14:59:27.748172
1771  2023-10-18 14:59:27.780091
1772  2023-10-18 14:59:27.812003
1773  2023-10-18 14:59:27.843871
1774  2023-10-18 14:59:27.875832
1775  2023-10-18 14:59:27.907742
1776  2023-10-18 14:59:27.939652
1777  2023-10-18 14:59:27.971566
1778  2023-10-18 14:59:28.003484
1779  2023-10-18 14:59:28.035397
1780  2023-10-18 14:59:28.067315
1781  2023-10-18 14:59:28.100231
1782  2023-10-18 14:59:28.148097
1783  2023-10-18 14:59:28.208896
1784  2023-10-18 14:59:28.217873
1785  2023-10-18 14:59:28.243833
1786  2023-10-18 14:59:28.275760
1787  2023-10-18 14:59:28.307680
1788  2023-10-18 14:59:28.339546
1789  2023-10-18 14:59:28.372458
1790  2023-10-18 14:59:28.403445
1791  2023-10-18 14:59:28.435324
1792  2023-10-18 14:59:28.468203
1793  2023-10-18 14:59:28.500117
1794  2023-10-18 14:59:28.547990
1795  2023-10-18 14:59:28.579904
1796  2023-10-18 14:59:28.611879
1797  2023-10-18 14:59:28.643778
1798  2023-10-18 14:59:28.675684
1799  2023-10-18 14:59:28.708560
1800  2023-10-18 14:59:28.739514
1801  2023-10-18 14:59:28.771421
1802  2023-10-18 14:59:28.803332
1803  2023-10-18 14:59:28.836247
1804  2023-10-18 14:59:28.868165
1805  2023-10-18 14:59:28.900046
1806  2023-10-18 14:59:28.947923
1807  2023-10-18 14:59:28.979837
1808  2023-10-18 14:59:29.011785
1809  2023-10-18 14:59:29.043666
1810  2023-10-18 14:59:29.075618
1811  2023-10-18 14:59:29.107528
1812  2023-10-18 14:59:29.139464
1813  2023-10-18 14:59:29.171364
1814  2023-10-18 14:59:29.204272
1815  2023-10-18 14:59:29.236179
1816  2023-10-18 14:59:29.268092
1817  2023-10-18 14:59:29.300038
1818  2023-10-18 14:59:29.347889
1819  2023-10-18 14:59:29.379802
1820  2023-10-18 14:59:29.411679
1821  2023-10-18 14:59:29.443593
1822  2023-10-18 14:59:29.475546
1823  2023-10-18 14:59:29.507459
1824  2023-10-18 14:59:29.539364
1825  2023-10-18 14:59:29.572283
1826  2023-10-18 14:59:29.604168
1827  2023-10-18 14:59:29.636124
1828  2023-10-18 14:59:29.668032
1829  2023-10-18 14:59:29.699951
1830  2023-10-18 14:59:29.747779
1831  2023-10-18 14:59:29.779732
1832  2023-10-18 14:59:29.811648
1833  2023-10-18 14:59:29.843562
1834  2023-10-18 14:59:29.875439
1835  2023-10-18 14:59:29.907389
1836  2023-10-18 14:59:29.940269
1837  2023-10-18 14:59:29.972178
1838  2023-10-18 14:59:30.004095
1839  2023-10-18 14:59:30.036048
1840  2023-10-18 14:59:30.067962
1841  2023-10-18 14:59:30.099896
1842  2023-10-18 14:59:30.147766
1843  2023-10-18 14:59:30.179663
1844  2023-10-18 14:59:30.211540
1845  2023-10-18 14:59:30.243495
1846  2023-10-18 14:59:30.275395
1847  2023-10-18 14:59:30.307319
1848  2023-10-18 14:59:30.340243
1849  2023-10-18 14:59:30.372144
1850  2023-10-18 14:59:30.404070
1851  2023-10-18 14:59:30.435965
1852  2023-10-18 14:59:30.467888
1853  2023-10-18 14:59:30.499767
1854  2023-10-18 14:59:30.547678
1855  2023-10-18 14:59:30.579593
1856  2023-10-18 14:59:30.611499
1857  2023-10-18 14:59:30.643439
1858  2023-10-18 14:59:30.675346
1859  2023-10-18 14:59:30.708243
1860  2023-10-18 14:59:30.740156
1861  2023-10-18 14:59:30.772091
1862  2023-10-18 14:59:30.803988
1863  2023-10-18 14:59:30.835917
1864  2023-10-18 14:59:30.867784
1865  2023-10-18 14:59:30.899728
1866  2023-10-18 14:59:30.947609
1867  2023-10-18 14:59:30.979515
1868  2023-10-18 14:59:31.011436
1869  2023-10-18 14:59:31.043313
1870  2023-10-18 14:59:31.076283
1871  2023-10-18 14:59:31.108206
1872  2023-10-18 14:59:31.140093
1873  2023-10-18 14:59:31.171970
1874  2023-10-18 14:59:31.203920
1875  2023-10-18 14:59:31.235831
1876  2023-10-18 14:59:31.267751
1877  2023-10-18 14:59:31.299661
1878  2023-10-18 14:59:31.347529
1879  2023-10-18 14:59:31.380413
1880  2023-10-18 14:59:31.411367
1881  2023-10-18 14:59:31.443282
1882  2023-10-18 14:59:31.476183
1883  2023-10-18 14:59:31.508073
1884  2023-10-18 14:59:31.540015
1885  2023-10-18 14:59:31.571940
1886  2023-10-18 14:59:31.603814
1887  2023-10-18 14:59:31.635775
1888  2023-10-18 14:59:31.667700
1889  2023-10-18 14:59:31.699587
1890  2023-10-18 14:59:31.747457
1891  2023-10-18 14:59:31.779380
1892  2023-10-18 14:59:31.811299
1893  2023-10-18 14:59:31.844211
1894  2023-10-18 14:59:31.876123
1895  2023-10-18 14:59:31.908034
1896  2023-10-18 14:59:31.939956
1897  2023-10-18 14:59:31.971870
1898  2023-10-18 14:59:32.003782
1899  2023-10-18 14:59:32.035703
1900  2023-10-18 14:59:32.067602
1901  2023-10-18 14:59:32.099495
1902  2023-10-18 14:59:32.147361
1903  2023-10-18 14:59:32.180277
1904  2023-10-18 14:59:32.212235
1905  2023-10-18 14:59:32.244128
1906  2023-10-18 14:59:32.276054
1907  2023-10-18 14:59:32.307930
1908  2023-10-18 14:59:32.339847
1909  2023-10-18 14:59:32.371763
1910  2023-10-18 14:59:32.403713
1911  2023-10-18 14:59:32.435616
1912  2023-10-18 14:59:32.467536
1913  2023-10-18 14:59:32.500456
1914  2023-10-18 14:59:32.548324
1915  2023-10-18 14:59:32.580239
1916  2023-10-18 14:59:32.612169
1917  2023-10-18 14:59:32.644083
1918  2023-10-18 14:59:32.675947
1919  2023-10-18 14:59:32.707862
1920  2023-10-18 14:59:32.739816
1921  2023-10-18 14:59:32.771720
1922  2023-10-18 14:59:32.803657
1923  2023-10-18 14:59:32.835558
1924  2023-10-18 14:59:32.867465
1925  2023-10-18 14:59:32.899378
1926  2023-10-18 14:59:32.948257
1927  2023-10-18 14:59:32.980175
1928  2023-10-18 14:59:33.012088
1929  2023-10-18 14:59:33.044000
1930  2023-10-18 14:59:33.075918
1931  2023-10-18 14:59:33.107833
1932  2023-10-18 14:59:33.139747
1933  2023-10-18 14:59:33.171648
1934  2023-10-18 14:59:33.203591
1935  2023-10-18 14:59:33.235488
1936  2023-10-18 14:59:33.267364
1937  2023-10-18 14:59:33.300278
1938  2023-10-18 14:59:33.348177
1939  2023-10-18 14:59:33.380103
1940  2023-10-18 14:59:33.412023
1941  2023-10-18 14:59:33.443933
1942  2023-10-18 14:59:33.475836
1943  2023-10-18 14:59:33.507767
1944  2023-10-18 14:59:33.539681
1945  2023-10-18 14:59:33.571589
1946  2023-10-18 14:59:33.603494
1947  2023-10-18 14:59:33.635418
1948  2023-10-18 14:59:33.668294
1949  2023-10-18 14:59:33.700236
1950  2023-10-18 14:59:33.748080
1951  2023-10-18 14:59:33.779994
1952  2023-10-18 14:59:33.811908
1953  2023-10-18 14:59:33.843857
1954  2023-10-18 14:59:33.875778
1955  2023-10-18 14:59:33.907681
1956  2023-10-18 14:59:33.939605
1957  2023-10-18 14:59:33.971531
1958  2023-10-18 14:59:34.004394
1959  2023-10-18 14:59:34.036344
1960  2023-10-18 14:59:34.068224
1961  2023-10-18 14:59:34.100138
1962  2023-10-18 14:59:34.148010
1963  2023-10-18 14:59:34.179964
1964  2023-10-18 14:59:34.211886
1965  2023-10-18 14:59:34.243781
1966  2023-10-18 14:59:34.275704
1967  2023-10-18 14:59:34.307609
1968  2023-10-18 14:59:34.339541
1969  2023-10-18 14:59:34.371412
1970  2023-10-18 14:59:34.403370
1971  2023-10-18 14:59:34.436276
1972  2023-10-18 14:59:34.468194
1973  2023-10-18 14:59:34.500102
1974  2023-10-18 14:59:34.547986
1975  2023-10-18 14:59:34.579885
1976  2023-10-18 14:59:34.611810
1977  2023-10-18 14:59:34.643721
1978  2023-10-18 14:59:34.675626
1979  2023-10-18 14:59:34.707550
1980  2023-10-18 14:59:34.739472
1981  2023-10-18 14:59:34.771395
1982  2023-10-18 14:59:34.803283
1983  2023-10-18 14:59:34.836209
1984  2023-10-18 14:59:34.868082
1985  2023-10-18 14:59:34.899997
1986  2023-10-18 14:59:34.947900
1987  2023-10-18 14:59:34.979847
1988  2023-10-18 14:59:35.011754
1989  2023-10-18 14:59:35.043649
1990  2023-10-18 14:59:35.075569
1991  2023-10-18 14:59:35.107474
1992  2023-10-18 14:59:35.139408
1993  2023-10-18 14:59:35.171340
1994  2023-10-18 14:59:35.204229
1995  2023-10-18 14:59:35.236140
1996  2023-10-18 14:59:35.268049
1997  2023-10-18 14:59:35.299961
1998  2023-10-18 14:59:35.347848
1999  2023-10-18 14:59:35.379755
2000  2023-10-18 14:59:35.411628
2001  2023-10-18 14:59:35.443550
2002  2023-10-18 14:59:35.475463
2003  2023-10-18 14:59:35.508370
2004  2023-10-18 14:59:35.540286
2005  2023-10-18 14:59:35.571264
2006  2023-10-18 14:59:35.604146
2007  2023-10-18 14:59:35.636071
2008  2023-10-18 14:59:35.667972
2009  2023-10-18 14:59:35.699859
2010  2023-10-18 14:59:35.747730
2011  2023-10-18 14:59:35.779682
2012  2023-10-18 14:59:35.811595
2013  2023-10-18 14:59:35.844472
2014  2023-10-18 14:59:35.875390
2015  2023-10-18 14:59:35.907338
2016  2023-10-18 14:59:35.940215
2017  2023-10-18 14:59:35.972184
2018  2023-10-18 14:59:36.004050
2019  2023-10-18 14:59:36.036001
2020  2023-10-18 14:59:36.067910
2021  2023-10-18 14:59:36.099828
2022  2023-10-18 14:59:36.147694
2023  2023-10-18 14:59:36.179579
2024  2023-10-18 14:59:36.211517
2025  2023-10-18 14:59:36.243442
2026  2023-10-18 14:59:36.275369
2027  2023-10-18 14:59:36.308259
2028  2023-10-18 14:59:36.340192
2029  2023-10-18 14:59:36.372102
2030  2023-10-18 14:59:36.404044
2031  2023-10-18 14:59:36.435931
2032  2023-10-18 14:59:36.467803
2033  2023-10-18 14:59:36.499718
2034  2023-10-18 14:59:36.547645
2035  2023-10-18 14:59:36.579544
2036  2023-10-18 14:59:36.611457
2037  2023-10-18 14:59:36.643369
2038  2023-10-18 14:59:36.676272
2039  2023-10-18 14:59:36.708193
2040  2023-10-18 14:59:36.740119
2041  2023-10-18 14:59:36.772035
2042  2023-10-18 14:59:36.803944
2043  2023-10-18 14:59:36.835859
2044  2023-10-18 14:59:36.867777
2045  2023-10-18 14:59:36.899715
2046  2023-10-18 14:59:36.947550
2047  2023-10-18 14:59:36.979436
2048  2023-10-18 14:59:37.011349
2049  2023-10-18 14:59:37.044284
2050  2023-10-18 14:59:37.076206
2051  2023-10-18 14:59:37.108132
2052  2023-10-18 14:59:37.140045
2053  2023-10-18 14:59:37.171967
2054  2023-10-18 14:59:37.203837
2055  2023-10-18 14:59:37.235799
2056  2023-10-18 14:59:37.267707
2057  2023-10-18 14:59:37.299580
2058  2023-10-18 14:59:37.347488
2059  2023-10-18 14:59:37.379367
2060  2023-10-18 14:59:37.411324
2061  2023-10-18 14:59:37.444233
2062  2023-10-18 14:59:37.476144
2063  2023-10-18 14:59:37.508068
2064  2023-10-18 14:59:37.539935
2065  2023-10-18 14:59:37.571850
2066  2023-10-18 14:59:37.603826
2067  2023-10-18 14:59:37.635710
2068  2023-10-18 14:59:37.667631
2069  2023-10-18 14:59:37.699556
2070  2023-10-18 14:59:37.747408
2071  2023-10-18 14:59:37.779344
2072  2023-10-18 14:59:37.812252
2073  2023-10-18 14:59:37.844160
2074  2023-10-18 14:59:37.876077
2075  2023-10-18 14:59:37.907953
2076  2023-10-18 14:59:37.939928
2077  2023-10-18 14:59:37.971820
2078  2023-10-18 14:59:38.003734
2079  2023-10-18 14:59:38.035645
2080  2023-10-18 14:59:38.067524
2081  2023-10-18 14:59:38.099439
2082  2023-10-18 14:59:38.147311
2083  2023-10-18 14:59:38.179264
2084  2023-10-18 14:59:38.212175
2085  2023-10-18 14:59:38.244089
2086  2023-10-18 14:59:38.275995
2087  2023-10-18 14:59:38.307881
2088  2023-10-18 14:59:38.339796
2089  2023-10-18 14:59:38.371711
2090  2023-10-18 14:59:38.403625
2091  2023-10-18 14:59:38.435540
2092  2023-10-18 14:59:38.467454
2093  2023-10-18 14:59:38.500369
2094  2023-10-18 14:59:38.548241
2095  2023-10-18 14:59:38.580155
2096  2023-10-18 14:59:38.612101
2097  2023-10-18 14:59:38.643984
2098  2023-10-18 14:59:38.675899
2099  2023-10-18 14:59:38.707842
2100  2023-10-18 14:59:38.739726
2101  2023-10-18 14:59:38.771641
2102  2023-10-18 14:59:38.803609
2103  2023-10-18 14:59:38.835507
2104  2023-10-18 14:59:38.867384
2105  2023-10-18 14:59:38.899299
2106  2023-10-18 14:59:38.948201
2107  2023-10-18 14:59:38.980084
2108  2023-10-18 14:59:39.012025
2109  2023-10-18 14:59:39.043954
2110  2023-10-18 14:59:39.075857
2111  2023-10-18 14:59:39.107742
2112  2023-10-18 14:59:39.139690
2113  2023-10-18 14:59:39.171604
2114  2023-10-18 14:59:39.203486
2115  2023-10-18 14:59:39.235435
2116  2023-10-18 14:59:39.267315
2117  2023-10-18 14:59:39.300227
2118  2023-10-18 14:59:39.348134
2119  2023-10-18 14:59:39.380041
2120  2023-10-18 14:59:39.411933
2121  2023-10-18 14:59:39.443890
2122  2023-10-18 14:59:39.475798
2123  2023-10-18 14:59:39.507672
2124  2023-10-18 14:59:39.539586
2125  2023-10-18 14:59:39.571501
2126  2023-10-18 14:59:39.603416
2127  2023-10-18 14:59:39.635331
2128  2023-10-18 14:59:39.667245
2129  2023-10-18 14:59:39.700158
2130  2023-10-18 14:59:39.748085
2131  2023-10-18 14:59:39.779983
2132  2023-10-18 14:59:39.811896
2133  2023-10-18 14:59:39.843823
2134  2023-10-18 14:59:39.875688
2135  2023-10-18 14:59:39.907602
2136  2023-10-18 14:59:39.939517
2137  2023-10-18 14:59:39.971432
2138  2023-10-18 14:59:40.003348
2139  2023-10-18 14:59:40.036258
2140  2023-10-18 14:59:40.068172
2141  2023-10-18 14:59:40.100087
2142  2023-10-18 14:59:40.147989
2143  2023-10-18 14:59:40.179901
2144  2023-10-18 14:59:40.211827
2145  2023-10-18 14:59:40.243748
2146  2023-10-18 14:59:40.275618
2147  2023-10-18 14:59:40.307532
2148  2023-10-18 14:59:40.339485
2149  2023-10-18 14:59:40.371362
2150  2023-10-18 14:59:40.403276
2151  2023-10-18 14:59:40.436229
2152  2023-10-18 14:59:40.468131
2153  2023-10-18 14:59:40.500051
2154  2023-10-18 14:59:40.547940
2155  2023-10-18 14:59:40.579837
2156  2023-10-18 14:59:40.611753
2157  2023-10-18 14:59:40.643662
2158  2023-10-18 14:59:40.675584
2159  2023-10-18 14:59:40.707490
2160  2023-10-18 14:59:40.739377
2161  2023-10-18 14:59:40.771292
2162  2023-10-18 14:59:40.804242
2163  2023-10-18 14:59:40.836118
2164  2023-10-18 14:59:40.868033
2165  2023-10-18 14:59:40.899948
2166  2023-10-18 14:59:40.947855
2167  2023-10-18 14:59:40.979768
2168  2023-10-18 14:59:41.011716
2169  2023-10-18 14:59:41.043599
2170  2023-10-18 14:59:41.075478
2171  2023-10-18 14:59:41.108390
2172  2023-10-18 14:59:41.139307
2173  2023-10-18 14:59:41.172219
2174  2023-10-18 14:59:41.204134
2175  2023-10-18 14:59:41.236049
2176  2023-10-18 14:59:41.267963
2177  2023-10-18 14:59:41.299878
2178  2023-10-18 14:59:41.347781
2179  2023-10-18 14:59:41.379704
2180  2023-10-18 14:59:41.411609
2181  2023-10-18 14:59:41.443537
2182  2023-10-18 14:59:41.475408
2183  2023-10-18 14:59:41.507364
2184  2023-10-18 14:59:41.540235
2185  2023-10-18 14:59:41.572150
2186  2023-10-18 14:59:41.604064
2187  2023-10-18 14:59:41.636009
2188  2023-10-18 14:59:41.667933
2189  2023-10-18 14:59:41.699808
2190  2023-10-18 14:59:41.747726
2191  2023-10-18 14:59:41.779624
2192  2023-10-18 14:59:41.811537
2193  2023-10-18 14:59:41.843452
2194  2023-10-18 14:59:41.875379
2195  2023-10-18 14:59:41.908251
2196  2023-10-18 14:59:41.940165
2197  2023-10-18 14:59:41.972111
2198  2023-10-18 14:59:42.003995
2199  2023-10-18 14:59:42.035909
2200  2023-10-18 14:59:42.067824
2201  2023-10-18 14:59:42.099739
2202  2023-10-18 14:59:42.147650
2203  2023-10-18 14:59:42.179557
2204  2023-10-18 14:59:42.211478
2205  2023-10-18 14:59:42.243419
2206  2023-10-18 14:59:42.276266
2207  2023-10-18 14:59:42.308181
2208  2023-10-18 14:59:42.340095
2209  2023-10-18 14:59:42.372010
2210  2023-10-18 14:59:42.403925
2211  2023-10-18 14:59:42.435839
2212  2023-10-18 14:59:42.467754
2213  2023-10-18 14:59:42.500668
2214  2023-10-18 14:59:42.547579
2215  2023-10-18 14:59:42.580484
2216  2023-10-18 14:59:42.611410
2217  2023-10-18 14:59:42.643326
2218  2023-10-18 14:59:42.676248
2219  2023-10-18 14:59:42.708139
2220  2023-10-18 14:59:42.740026
2221  2023-10-18 14:59:42.771940
2222  2023-10-18 14:59:42.803885
2223  2023-10-18 14:59:42.835819
2224  2023-10-18 14:59:42.867684
2225  2023-10-18 14:59:42.899599
2226  2023-10-18 14:59:42.947504
2227  2023-10-18 14:59:42.979421
2228  2023-10-18 14:59:43.011300
2229  2023-10-18 14:59:43.043260
2230  2023-10-18 14:59:43.076127
2231  2023-10-18 14:59:43.108041
2232  2023-10-18 14:59:43.139956
2233  2023-10-18 14:59:43.171870
2234  2023-10-18 14:59:43.203785
2235  2023-10-18 14:59:43.235700
2236  2023-10-18 14:59:43.267616
2237  2023-10-18 14:59:43.299529
2238  2023-10-18 14:59:43.347439
2239  2023-10-18 14:59:43.379354
2240  2023-10-18 14:59:43.412275
2241  2023-10-18 14:59:43.444178
2242  2023-10-18 14:59:43.476057
2243  2023-10-18 14:59:43.507971
2244  2023-10-18 14:59:43.539888
2245  2023-10-18 14:59:43.571801
2246  2023-10-18 14:59:43.603715
2247  2023-10-18 14:59:43.635630
2248  2023-10-18 14:59:43.667545
2249  2023-10-18 14:59:43.699460
2250  2023-10-18 14:59:43.748356
2251  2023-10-18 14:59:43.779277
2252  2023-10-18 14:59:43.812199
2253  2023-10-18 14:59:43.844074
2254  2023-10-18 14:59:43.875988
2255  2023-10-18 14:59:43.907903
2256  2023-10-18 14:59:43.939818
2257  2023-10-18 14:59:43.971732
2258  2023-10-18 14:59:44.003647
2259  2023-10-18 14:59:44.035562
2260  2023-10-18 14:59:44.067475
2261  2023-10-18 14:59:44.099390
2262  2023-10-18 14:59:44.147295
2263  2023-10-18 14:59:44.180208
2264  2023-10-18 14:59:44.212090
2265  2023-10-18 14:59:44.244005
2266  2023-10-18 14:59:44.275919
2267  2023-10-18 14:59:44.307833
2268  2023-10-18 14:59:44.339749
2269  2023-10-18 14:59:44.371709
2270  2023-10-18 14:59:44.403577
2271  2023-10-18 14:59:44.435492
2272  2023-10-18 14:59:44.467407
2273  2023-10-18 14:59:44.500350
2274  2023-10-18 14:59:44.548225
2275  2023-10-18 14:59:44.580106
2276  2023-10-18 14:59:44.612065
2277  2023-10-18 14:59:44.643934
2278  2023-10-18 14:59:44.675885
2279  2023-10-18 14:59:44.707791
2280  2023-10-18 14:59:44.739678
2281  2023-10-18 14:59:44.771593
2282  2023-10-18 14:59:44.803507
2283  2023-10-18 14:59:44.835458
2284  2023-10-18 14:59:44.867337
2285  2023-10-18 14:59:44.900250
2286  2023-10-18 14:59:44.948172
2287  2023-10-18 14:59:44.980087
2288  2023-10-18 14:59:45.011951
2289  2023-10-18 14:59:45.077775
2290  2023-10-18 14:59:45.107694
2291  2023-10-18 14:59:45.139619
2292  2023-10-18 14:59:45.171523
2293  2023-10-18 14:59:45.203476
2294  2023-10-18 14:59:45.235352
2295  2023-10-18 14:59:45.268265
2296  2023-10-18 14:59:45.300179
2297  2023-10-18 14:59:45.348112
2298  2023-10-18 14:59:45.379999
2299  2023-10-18 14:59:45.411909
2300  2023-10-18 14:59:45.443795
2301  2023-10-18 14:59:45.475751
2302  2023-10-18 14:59:45.507624
2303  2023-10-18 14:59:45.539539
2304  2023-10-18 14:59:45.571453
2305  2023-10-18 14:59:45.603368
2306  2023-10-18 14:59:45.635283
2307  2023-10-18 14:59:45.668196
2308  2023-10-18 14:59:45.700108
2309  2023-10-18 14:59:45.748013
2310  2023-10-18 14:59:45.779896
2311  2023-10-18 14:59:45.811840
2312  2023-10-18 14:59:45.843725
2313  2023-10-18 14:59:45.875641
2314  2023-10-18 14:59:45.907555
2315  2023-10-18 14:59:45.939470
2316  2023-10-18 14:59:45.972382
2317  2023-10-18 14:59:46.004296
2318  2023-10-18 14:59:46.036210
2319  2023-10-18 14:59:46.068125
2320  2023-10-18 14:59:46.100040
2321  2023-10-18 14:59:46.147965
2322  2023-10-18 14:59:46.179858
2323  2023-10-18 14:59:46.211774
2324  2023-10-18 14:59:46.243655
2325  2023-10-18 14:59:46.275571
2326  2023-10-18 14:59:46.307485
2327  2023-10-18 14:59:46.339445
2328  2023-10-18 14:59:46.372311
2329  2023-10-18 14:59:46.404227
2330  2023-10-18 14:59:46.436141
2331  2023-10-18 14:59:46.468087
2332  2023-10-18 14:59:46.500028
2333  2023-10-18 14:59:46.547878
2334  2023-10-18 14:59:46.579786
2335  2023-10-18 14:59:46.611724
2336  2023-10-18 14:59:46.643586
2337  2023-10-18 14:59:46.675504
2338  2023-10-18 14:59:46.707416
2339  2023-10-18 14:59:46.739330
2340  2023-10-18 14:59:46.771321
2341  2023-10-18 14:59:46.804155
2342  2023-10-18 14:59:46.836071
2343  2023-10-18 14:59:46.867985
2344  2023-10-18 14:59:46.899901
2345  2023-10-18 14:59:46.947805
2346  2023-10-18 14:59:46.979736
2347  2023-10-18 14:59:47.011632
2348  2023-10-18 14:59:47.043516
2349  2023-10-18 14:59:47.075430
2350  2023-10-18 14:59:47.107345
2351  2023-10-18 14:59:47.140258
2352  2023-10-18 14:59:47.172172
2353  2023-10-18 14:59:47.204086
2354  2023-10-18 14:59:47.236002
2355  2023-10-18 14:59:47.267959
2356  2023-10-18 14:59:47.299831
2357  2023-10-18 14:59:47.347701
2358  2023-10-18 14:59:47.379615
2359  2023-10-18 14:59:47.411558
2360  2023-10-18 14:59:47.443446
2361  2023-10-18 14:59:47.475361
2362  2023-10-18 14:59:47.508273
2363  2023-10-18 14:59:47.540240
2364  2023-10-18 14:59:47.572103
2365  2023-10-18 14:59:47.604017
2366  2023-10-18 14:59:47.635933
2367  2023-10-18 14:59:47.667846
2368  2023-10-18 14:59:47.699762
2369  2023-10-18 14:59:47.747670
2370  2023-10-18 14:59:47.779573
2371  2023-10-18 14:59:47.811462
2372  2023-10-18 14:59:47.843377
2373  2023-10-18 14:59:47.875290
2374  2023-10-18 14:59:47.908202
2375  2023-10-18 14:59:47.940118
2376  2023-10-18 14:59:47.972033
2377  2023-10-18 14:59:48.003973
2378  2023-10-18 14:59:48.035861
2379  2023-10-18 14:59:48.067776
2380  2023-10-18 14:59:48.099691
2381  2023-10-18 14:59:48.147594
2382  2023-10-18 14:59:48.179514
2383  2023-10-18 14:59:48.211417
2384  2023-10-18 14:59:48.243306
2385  2023-10-18 14:59:48.276219
2386  2023-10-18 14:59:48.308133
2387  2023-10-18 14:59:48.340048
2388  2023-10-18 14:59:48.371962
2389  2023-10-18 14:59:48.403877
2390  2023-10-18 14:59:48.435792
2391  2023-10-18 14:59:48.467706
2392  2023-10-18 14:59:48.499621
2393  2023-10-18 14:59:48.547530
2394  2023-10-18 14:59:48.579433
2395  2023-10-18 14:59:48.611322
2396  2023-10-18 14:59:48.644235
2397  2023-10-18 14:59:48.676181
2398  2023-10-18 14:59:48.708063
2399  2023-10-18 14:59:48.739978
2400  2023-10-18 14:59:48.771893
2401  2023-10-18 14:59:48.803807
2402  2023-10-18 14:59:48.835722
2403  2023-10-18 14:59:48.867636
2404  2023-10-18 14:59:48.899551
2405  2023-10-18 14:59:48.947461
2406  2023-10-18 14:59:48.979363
2407  2023-10-18 14:59:49.011253
2408  2023-10-18 14:59:49.044164
2409  2023-10-18 14:59:49.076079
2410  2023-10-18 14:59:49.107994
2411  2023-10-18 14:59:49.139908
2412  2023-10-18 14:59:49.171825
2413  2023-10-18 14:59:49.203739
2414  2023-10-18 14:59:49.235652
2415  2023-10-18 14:59:49.267567
2416  2023-10-18 14:59:49.300479
2417  2023-10-18 14:59:49.347398
2418  2023-10-18 14:59:49.380265
2419  2023-10-18 14:59:49.412180
2420  2023-10-18 14:59:49.444095
2421  2023-10-18 14:59:49.476010
2422  2023-10-18 14:59:49.507962
2423  2023-10-18 14:59:49.539837
2424  2023-10-18 14:59:49.571798
2425  2023-10-18 14:59:49.603708
2426  2023-10-18 14:59:49.635616
2427  2023-10-18 14:59:49.667497
2428  2023-10-18 14:59:49.699410
2429  2023-10-18 14:59:49.747283
2430  2023-10-18 14:59:49.780195
2431  2023-10-18 14:59:49.812148
2432  2023-10-18 14:59:49.844067
2433  2023-10-18 14:59:49.875977
2434  2023-10-18 14:59:49.907912
2435  2023-10-18 14:59:49.939811
2436  2023-10-18 14:59:49.971737
2437  2023-10-18 14:59:50.003656
2438  2023-10-18 14:59:50.035572
2439  2023-10-18 14:59:50.067426
2440  2023-10-18 14:59:50.099342
2441  2023-10-18 14:59:50.148253
2442  2023-10-18 14:59:50.180164
2443  2023-10-18 14:59:50.212078
2444  2023-10-18 14:59:50.244002
2445  2023-10-18 14:59:50.275915
2446  2023-10-18 14:59:50.307797
2447  2023-10-18 14:59:50.339737
2448  2023-10-18 14:59:50.371615
2449  2023-10-18 14:59:50.403589
2450  2023-10-18 14:59:50.435477
2451  2023-10-18 14:59:50.467357
2452  2023-10-18 14:59:50.500308
2453  2023-10-18 14:59:50.548177
2454  2023-10-18 14:59:50.580057
2455  2023-10-18 14:59:50.611969
2456  2023-10-18 14:59:50.643920
2457  2023-10-18 14:59:50.675836
2458  2023-10-18 14:59:50.707744
2459  2023-10-18 14:59:50.739698
2460  2023-10-18 14:59:50.771578
2461  2023-10-18 14:59:50.803492
2462  2023-10-18 14:59:50.835408
2463  2023-10-18 14:59:50.867330
2464  2023-10-18 14:59:50.900244
2465  2023-10-18 14:59:50.948108
2466  2023-10-18 14:59:50.980018
2467  2023-10-18 14:59:51.011948
2468  2023-10-18 14:59:51.043865
2469  2023-10-18 14:59:51.075782
2470  2023-10-18 14:59:51.107692
2471  2023-10-18 14:59:51.139558
2472  2023-10-18 14:59:51.171472
2473  2023-10-18 14:59:51.203442
2474  2023-10-18 14:59:51.235347
2475  2023-10-18 14:59:51.268219
2476  2023-10-18 14:59:51.300130
2477  2023-10-18 14:59:51.348028
2478  2023-10-18 14:59:51.379955
2479  2023-10-18 14:59:51.411882
2480  2023-10-18 14:59:51.443788
2481  2023-10-18 14:59:51.475694
2482  2023-10-18 14:59:51.507607
2483  2023-10-18 14:59:51.539542
2484  2023-10-18 14:59:51.571464
2485  2023-10-18 14:59:51.603352
2486  2023-10-18 14:59:51.635273
2487  2023-10-18 14:59:51.668146
2488  2023-10-18 14:59:51.700060
2489  2023-10-18 14:59:51.747934
2490  2023-10-18 14:59:51.779902
2491  2023-10-18 14:59:51.811796
2492  2023-10-18 14:59:51.843739
2493  2023-10-18 14:59:51.875590
2494  2023-10-18 14:59:51.907553
2495  2023-10-18 14:59:51.939451
2496  2023-10-18 14:59:51.971370
2497  2023-10-18 14:59:52.003292
2498  2023-10-18 14:59:52.036213
2499  2023-10-18 14:59:52.068126
2500  2023-10-18 14:59:52.100060
2501  2023-10-18 14:59:52.147891
2502  2023-10-18 14:59:52.179818
2503  2023-10-18 14:59:52.211691
2504  2023-10-18 14:59:52.243605
2505  2023-10-18 14:59:52.275521
2506  2023-10-18 14:59:52.307473
2507  2023-10-18 14:59:52.339378
2508  2023-10-18 14:59:52.371263
2509  2023-10-18 14:59:52.404225
2510  2023-10-18 14:59:52.436148
2511  2023-10-18 14:59:52.468032
2512  2023-10-18 14:59:52.499920
2513  2023-10-18 14:59:52.547831
2514  2023-10-18 14:59:52.579771
2515  2023-10-18 14:59:52.611655
2516  2023-10-18 14:59:52.643576
2517  2023-10-18 14:59:52.675491
2518  2023-10-18 14:59:52.707406
2519  2023-10-18 14:59:52.739310
2520  2023-10-18 14:59:52.771246
2521  2023-10-18 14:59:52.804108
2522  2023-10-18 14:59:52.836058
2523  2023-10-18 14:59:52.867968
2524  2023-10-18 14:59:52.899883
2525  2023-10-18 14:59:52.947764
2526  2023-10-18 14:59:52.979677
2527  2023-10-18 14:59:53.011596
2528  2023-10-18 14:59:53.043498
2529  2023-10-18 14:59:53.076420
2530  2023-10-18 14:59:53.107344
2531  2023-10-18 14:59:53.139247
2532  2023-10-18 14:59:53.172156
2533  2023-10-18 14:59:53.204086
2534  2023-10-18 14:59:53.235952
2535  2023-10-18 14:59:53.267909
2536  2023-10-18 14:59:53.299825
2537  2023-10-18 14:59:53.347656
2538  2023-10-18 14:59:53.379569
2539  2023-10-18 14:59:53.411483
2540  2023-10-18 14:59:53.443422
2541  2023-10-18 14:59:53.475369
2542  2023-10-18 14:59:53.507263
2543  2023-10-18 14:59:53.540164
2544  2023-10-18 14:59:53.572099
2545  2023-10-18 14:59:53.604022
2546  2023-10-18 14:59:53.635881
2547  2023-10-18 14:59:53.667827
2548  2023-10-18 14:59:53.699764
2549  2023-10-18 14:59:53.747588
2550  2023-10-18 14:59:53.779555
2551  2023-10-18 14:59:53.811411
2552  2023-10-18 14:59:53.843330
2553  2023-10-18 14:59:53.876239
2554  2023-10-18 14:59:53.908153
2555  2023-10-18 14:59:53.940104
2556  2023-10-18 14:59:53.972014
2557  2023-10-18 14:59:54.003935
2558  2023-10-18 14:59:54.035852
2559  2023-10-18 14:59:54.067770
2560  2023-10-18 14:59:54.099681
2561  2023-10-18 14:59:54.147558
2562  2023-10-18 14:59:54.179487
2563  2023-10-18 14:59:54.211390
2564  2023-10-18 14:59:54.243298
2565  2023-10-18 14:59:54.276170
2566  2023-10-18 14:59:54.308119
2567  2023-10-18 14:59:54.340040
2568  2023-10-18 14:59:54.371963
2569  2023-10-18 14:59:54.403860
2570  2023-10-18 14:59:54.435741
2571  2023-10-18 14:59:54.467656
2572  2023-10-18 14:59:54.499617
2573  2023-10-18 14:59:54.548443
2574  2023-10-18 14:59:54.580356
2575  2023-10-18 14:59:54.611331
2576  2023-10-18 14:59:54.644187
2577  2023-10-18 14:59:54.676101
2578  2023-10-18 14:59:54.708014
2579  2023-10-18 14:59:54.739967
2580  2023-10-18 14:59:54.771881
2581  2023-10-18 14:59:54.803792
2582  2023-10-18 14:59:54.835711
2583  2023-10-18 14:59:54.867637
2584  2023-10-18 14:59:54.899536
2585  2023-10-18 14:59:54.947399
2586  2023-10-18 14:59:54.979330
2587  2023-10-18 14:59:55.011203
2588  2023-10-18 14:59:55.044116
2589  2023-10-18 14:59:55.076072
2590  2023-10-18 14:59:55.107983
2591  2023-10-18 14:59:55.139898
2592  2023-10-18 14:59:55.171774
2593  2023-10-18 14:59:55.203727
2594  2023-10-18 14:59:55.235645
2595  2023-10-18 14:59:55.267552
2596  2023-10-18 14:59:55.299478
2597  2023-10-18 14:59:55.347346
2598  2023-10-18 14:59:55.379258
2599  2023-10-18 14:59:55.412175
2600  2023-10-18 14:59:55.444079
2601  2023-10-18 14:59:55.475960
2602  2023-10-18 14:59:55.507913
2603  2023-10-18 14:59:55.539788
2604  2023-10-18 14:59:55.571761
2605  2023-10-18 14:59:55.603678
2606  2023-10-18 14:59:55.635563
2607  2023-10-18 14:59:55.667475
2608  2023-10-18 14:59:55.700361
2609  2023-10-18 14:59:55.759228
2610  2023-10-18 14:59:55.780150
2611  2023-10-18 14:59:55.812109
2612  2023-10-18 14:59:55.844003
2613  2023-10-18 14:59:55.875925
2614  2023-10-18 14:59:55.907850
2615  2023-10-18 14:59:55.939786
2616  2023-10-18 14:59:55.971662
2617  2023-10-18 14:59:56.003576
2618  2023-10-18 14:59:56.035496
2619  2023-10-18 14:59:56.067377
2620  2023-10-18 14:59:56.099291
2621  2023-10-18 14:59:56.148197
2622  2023-10-18 14:59:56.180132
2623  2023-10-18 14:59:56.212035
2624  2023-10-18 14:59:56.243954
2625  2023-10-18 14:59:56.275862
2626  2023-10-18 14:59:56.307770
2627  2023-10-18 14:59:56.339684
2628  2023-10-18 14:59:56.371564
2629  2023-10-18 14:59:56.405511
2630  2023-10-18 14:59:56.437390
2631  2023-10-18 14:59:56.469348
2632  2023-10-18 14:59:56.501245
2633  2023-10-18 14:59:56.548093
2634  2023-10-18 14:59:56.581051
2635  2023-10-18 14:59:56.612984
2636  2023-10-18 14:59:56.644874
2637  2023-10-18 14:59:56.676749
2638  2023-10-18 14:59:56.708706
2639  2023-10-18 14:59:56.740606
2640  2023-10-18 14:59:56.772523
2641  2023-10-18 14:59:56.804407
2642  2023-10-18 14:59:56.837358
2643  2023-10-18 14:59:56.869270
2644  2023-10-18 14:59:56.901148
2645  2023-10-18 14:59:56.949053
2646  2023-10-18 14:59:56.980976
2647  2023-10-18 14:59:57.012919
2648  2023-10-18 14:59:57.044804
2649  2023-10-18 14:59:57.076724
2650  2023-10-18 14:59:57.108627
2651  2023-10-18 14:59:57.140543
2652  2023-10-18 14:59:57.173418
2653  2023-10-18 14:59:57.205333
2654  2023-10-18 14:59:57.237288
2655  2023-10-18 14:59:57.269191
2656  2023-10-18 14:59:57.301144
2657  2023-10-18 14:59:57.348983
2658  2023-10-18 14:59:57.380904
2659  2023-10-18 14:59:57.412835
2660  2023-10-18 14:59:57.444693
2661  2023-10-18 14:59:57.476643
2662  2023-10-18 14:59:57.508553
2663  2023-10-18 14:59:57.540438
2664  2023-10-18 14:59:57.572386
2665  2023-10-18 14:59:57.604268
2666  2023-10-18 14:59:57.636212
2667  2023-10-18 14:59:57.669134
2668  2023-10-18 14:59:57.701058
2669  2023-10-18 14:59:57.748908
2670  2023-10-18 14:59:57.780824
2671  2023-10-18 14:59:57.812738
2672  2023-10-18 14:59:57.844650
2673  2023-10-18 14:59:57.876567
2674  2023-10-18 14:59:57.908490
2675  2023-10-18 14:59:57.940402
2676  2023-10-18 14:59:57.972326
2677  2023-10-18 14:59:58.004234
2678  2023-10-18 14:59:58.036143
2679  2023-10-18 14:59:58.069050
2680  2023-10-18 14:59:58.100989
2681  2023-10-18 14:59:58.148848
2682  2023-10-18 14:59:58.180769
2683  2023-10-18 14:59:58.212678
2684  2023-10-18 14:59:58.244587
2685  2023-10-18 14:59:58.276501
2686  2023-10-18 14:59:58.308382
2687  2023-10-18 14:59:58.340338
2688  2023-10-18 14:59:58.372240
2689  2023-10-18 14:59:58.404165
2690  2023-10-18 14:59:58.437040
2691  2023-10-18 14:59:58.467987
2692  2023-10-18 14:59:58.500898
2693  2023-10-18 14:59:58.548787
2694  2023-10-18 14:59:58.580705
2695  2023-10-18 14:59:58.612598
2696  2023-10-18 14:59:58.644524
2697  2023-10-18 14:59:58.676426
2698  2023-10-18 14:59:58.708340
2699  2023-10-18 14:59:58.740229
2700  2023-10-18 14:59:58.772191
2701  2023-10-18 14:59:58.804092
2702  2023-10-18 14:59:58.835971
2703  2023-10-18 14:59:58.868924
2704  2023-10-18 14:59:58.900836
2705  2023-10-18 14:59:58.948711
2706  2023-10-18 14:59:58.980615
2707  2023-10-18 14:59:59.012537
2708  2023-10-18 14:59:59.044442
2709  2023-10-18 14:59:59.076363
2710  2023-10-18 14:59:59.108299
2711  2023-10-18 14:59:59.140198
2712  2023-10-18 14:59:59.172111
2713  2023-10-18 14:59:59.203988
2714  2023-10-18 14:59:59.235935
2715  2023-10-18 14:59:59.267845
2716  2023-10-18 14:59:59.299769
2717  2023-10-18 14:59:59.348629
2718  2023-10-18 14:59:59.380515
2719  2023-10-18 14:59:59.412431
2720  2023-10-18 14:59:59.444380
2721  2023-10-18 14:59:59.476288
2722  2023-10-18 14:59:59.508202
2723  2023-10-18 14:59:59.540089
2724  2023-10-18 14:59:59.572046
2725  2023-10-18 14:59:59.603952
2726  2023-10-18 14:59:59.635876
2727  2023-10-18 14:59:59.667749
2728  2023-10-18 14:59:59.699693
2729  2023-10-18 14:59:59.747568
2730  2023-10-18 14:59:59.779476
2731  2023-10-18 14:59:59.812402
2732  2023-10-18 14:59:59.844307
2733  2023-10-18 14:59:59.876217
2734  2023-10-18 14:59:59.908103
2735  2023-10-18 14:59:59.940020
2736  2023-10-18 14:59:59.971989
2737  2023-10-18 15:00:00.003881
2738  2023-10-18 15:00:00.035798
2739  2023-10-18 15:00:00.067742
2740  2023-10-18 15:00:00.099640
2741  2023-10-18 15:00:00.147492
2742  2023-10-18 15:00:00.180414
2743  2023-10-18 15:00:00.212325
2744  2023-10-18 15:00:00.244237
2745  2023-10-18 15:00:00.276149
2746  2023-10-18 15:00:00.308065
2747  2023-10-18 15:00:00.339994
2748  2023-10-18 15:00:00.371904
2749  2023-10-18 15:00:00.403838
2750  2023-10-18 15:00:00.435733
2751  2023-10-18 15:00:00.467656
2752  2023-10-18 15:00:00.499550
2753  2023-10-18 15:00:00.547441
2754  2023-10-18 15:00:00.579342
2755  2023-10-18 15:00:00.612273
2756  2023-10-18 15:00:00.644189
2757  2023-10-18 15:00:00.676091
2758  2023-10-18 15:00:00.708003
2759  2023-10-18 15:00:00.739918
2760  2023-10-18 15:00:00.771802
2761  2023-10-18 15:00:00.803759
2762  2023-10-18 15:00:00.835624
2763  2023-10-18 15:00:00.867574
2764  2023-10-18 15:00:00.899492
2765  2023-10-18 15:00:00.947355
2766  2023-10-18 15:00:00.979238
2767  2023-10-18 15:00:01.012152
2768  2023-10-18 15:00:01.044065
2769  2023-10-18 15:00:01.076022
2770  2023-10-18 15:00:01.107948
2771  2023-10-18 15:00:01.139838
2772  2023-10-18 15:00:01.171767
2773  2023-10-18 15:00:01.203682
2774  2023-10-18 15:00:01.235599
2775  2023-10-18 15:00:01.267497
2776  2023-10-18 15:00:01.300416
2777  2023-10-18 15:00:01.347289
2778  2023-10-18 15:00:01.380167
2779  2023-10-18 15:00:01.412080
2780  2023-10-18 15:00:01.443995
2781  2023-10-18 15:00:01.475940
2782  2023-10-18 15:00:01.507856
2783  2023-10-18 15:00:01.539775
2784  2023-10-18 15:00:01.571654
2785  2023-10-18 15:00:01.603573
2786  2023-10-18 15:00:01.635524
2787  2023-10-18 15:00:01.668424
2788  2023-10-18 15:00:01.699341
2789  2023-10-18 15:00:01.748183
2790  2023-10-18 15:00:01.780134
2791  2023-10-18 15:00:01.812013
2792  2023-10-18 15:00:01.843926
2793  2023-10-18 15:00:01.875886
2794  2023-10-18 15:00:01.907755
2795  2023-10-18 15:00:01.939712
2796  2023-10-18 15:00:01.971624
2797  2023-10-18 15:00:02.003527
2798  2023-10-18 15:00:02.037443
2799  2023-10-18 15:00:02.067358
2800  2023-10-18 15:00:02.099242
2801  2023-10-18 15:00:02.148140
2802  2023-10-18 15:00:02.180027
2803  2023-10-18 15:00:02.211941
2804  2023-10-18 15:00:02.244893
2805  2023-10-18 15:00:02.276808
2806  2023-10-18 15:00:02.308729
2807  2023-10-18 15:00:02.339648
2808  2023-10-18 15:00:02.371541
2809  2023-10-18 15:00:02.404463
2810  2023-10-18 15:00:02.436369
2811  2023-10-18 15:00:02.469292
2812  2023-10-18 15:00:02.500170
2813  2023-10-18 15:00:02.549087
2814  2023-10-18 15:00:02.579957
2815  2023-10-18 15:00:02.611871
2816  2023-10-18 15:00:02.644819
2817  2023-10-18 15:00:02.676745
2818  2023-10-18 15:00:02.708661
2819  2023-10-18 15:00:02.739530
2820  2023-10-18 15:00:02.771497
2821  2023-10-18 15:00:02.804385
2822  2023-10-18 15:00:02.837307
2823  2023-10-18 15:00:02.869219
2824  2023-10-18 15:00:02.900100
2825  2023-10-18 15:00:02.949008
2826  2023-10-18 15:00:02.979887
2827  2023-10-18 15:00:03.011840
2828  2023-10-18 15:00:03.044758
2829  2023-10-18 15:00:03.076658
2830  2023-10-18 15:00:03.108570
2831  2023-10-18 15:00:03.139462
2832  2023-10-18 15:00:03.171375
2833  2023-10-18 15:00:03.204288
2834  2023-10-18 15:00:03.237239
2835  2023-10-18 15:00:03.269150
2836  2023-10-18 15:00:03.300033
2837  2023-10-18 15:00:03.348932
2838  2023-10-18 15:00:03.379852
2839  2023-10-18 15:00:03.411774
2840  2023-10-18 15:00:03.444673
2841  2023-10-18 15:00:03.476587
2842  2023-10-18 15:00:03.507475
2843  2023-10-18 15:00:03.539391
2844  2023-10-18 15:00:03.571306
2845  2023-10-18 15:00:03.604244
2846  2023-10-18 15:00:03.637166
2847  2023-10-18 15:00:03.668050
2848  2023-10-18 15:00:03.699994
2849  2023-10-18 15:00:03.749868
2850  2023-10-18 15:00:03.779747
2851  2023-10-18 15:00:03.811690
2852  2023-10-18 15:00:03.844613
2853  2023-10-18 15:00:03.876528
2854  2023-10-18 15:00:03.908433
2855  2023-10-18 15:00:03.939320
2856  2023-10-18 15:00:03.971236
2857  2023-10-18 15:00:04.004183
2858  2023-10-18 15:00:04.036092
2859  2023-10-18 15:00:04.069020
2860  2023-10-18 15:00:04.099894
2861  2023-10-18 15:00:04.148791
2862  2023-10-18 15:00:04.179678
2863  2023-10-18 15:00:04.211622
2864  2023-10-18 15:00:04.244536
2865  2023-10-18 15:00:04.276419
2866  2023-10-18 15:00:04.308372
2867  2023-10-18 15:00:04.339282
2868  2023-10-18 15:00:04.372198
2869  2023-10-18 15:00:04.404117
2870  2023-10-18 15:00:04.436034
2871  2023-10-18 15:00:04.467958
2872  2023-10-18 15:00:04.499858
2873  2023-10-18 15:00:04.547727
2874  2023-10-18 15:00:04.579608
2875  2023-10-18 15:00:04.611522
2876  2023-10-18 15:00:04.644466
2877  2023-10-18 15:00:04.676383
2878  2023-10-18 15:00:04.708305
2879  2023-10-18 15:00:04.740178
2880  2023-10-18 15:00:04.772093
2881  2023-10-18 15:00:04.804049
2882  2023-10-18 15:00:04.835960
2883  2023-10-18 15:00:04.867838
2884  2023-10-18 15:00:04.899752
2885  2023-10-18 15:00:04.947624
2886  2023-10-18 15:00:04.979538
2887  2023-10-18 15:00:05.011482
2888  2023-10-18 15:00:05.045390
2889  2023-10-18 15:00:05.076309
2890  2023-10-18 15:00:05.108242
2891  2023-10-18 15:00:05.140108
2892  2023-10-18 15:00:05.172051
2893  2023-10-18 15:00:05.203973
2894  2023-10-18 15:00:05.235883
2895  2023-10-18 15:00:05.267809
2896  2023-10-18 15:00:05.299720
2897  2023-10-18 15:00:05.347602
2898  2023-10-18 15:00:05.379508
2899  2023-10-18 15:00:05.411420
2900  2023-10-18 15:00:05.443334
2901  2023-10-18 15:00:05.476241
2902  2023-10-18 15:00:05.508181
2903  2023-10-18 15:00:05.540089
2904  2023-10-18 15:00:05.571992
2905  2023-10-18 15:00:05.603913
2906  2023-10-18 15:00:05.635835
2907  2023-10-18 15:00:05.667726
2908  2023-10-18 15:00:05.699650
2909  2023-10-18 15:00:05.747534
2910  2023-10-18 15:00:05.779401
2911  2023-10-18 15:00:05.811340
2912  2023-10-18 15:00:05.844225
2913  2023-10-18 15:00:05.876173
2914  2023-10-18 15:00:05.908054
2915  2023-10-18 15:00:05.940010
2916  2023-10-18 15:00:05.971921
2917  2023-10-18 15:00:06.003800
2918  2023-10-18 15:00:06.035754
2919  2023-10-18 15:00:06.067658
2920  2023-10-18 15:00:06.099586
2921  2023-10-18 15:00:06.148457
2922  2023-10-18 15:00:06.179376
2923  2023-10-18 15:00:06.212277
2924  2023-10-18 15:00:06.244191
2925  2023-10-18 15:00:06.276097
2926  2023-10-18 15:00:06.308017
2927  2023-10-18 15:00:06.339938
2928  2023-10-18 15:00:06.371813
2929  2023-10-18 15:00:06.403728
2930  2023-10-18 15:00:06.470551
2931  2023-10-18 15:00:06.499517
2932  2023-10-18 15:00:06.547382
2933  2023-10-18 15:00:06.579288
2934  2023-10-18 15:00:06.612170
2935  2023-10-18 15:00:06.644087
2936  2023-10-18 15:00:06.676028
2937  2023-10-18 15:00:06.707947
2938  2023-10-18 15:00:06.739829
2939  2023-10-18 15:00:06.771773
2940  2023-10-18 15:00:06.803688
2941  2023-10-18 15:00:06.835614
2942  2023-10-18 15:00:06.867527
2943  2023-10-18 15:00:06.899431
2944  2023-10-18 15:00:06.948308
2945  2023-10-18 15:00:06.979226
2946  2023-10-18 15:00:07.012102
2947  2023-10-18 15:00:07.044058
2948  2023-10-18 15:00:07.075966
2949  2023-10-18 15:00:07.107846
2950  2023-10-18 15:00:07.139789
2951  2023-10-18 15:00:07.171674
2952  2023-10-18 15:00:07.203633
2953  2023-10-18 15:00:07.235536
2954  2023-10-18 15:00:07.268445
2955  2023-10-18 15:00:07.299383
2956  2023-10-18 15:00:07.348206
2957  2023-10-18 15:00:07.380118
2958  2023-10-18 15:00:07.412032
2959  2023-10-18 15:00:07.443988
2960  2023-10-18 15:00:07.475861
2961  2023-10-18 15:00:07.507803
2962  2023-10-18 15:00:07.539692
2963  2023-10-18 15:00:07.571634
2964  2023-10-18 15:00:07.603546
2965  2023-10-18 15:00:07.635462
2966  2023-10-18 15:00:07.668374
2967  2023-10-18 15:00:07.699304
2968  2023-10-18 15:00:07.748160
2969  2023-10-18 15:00:07.780048
2970  2023-10-18 15:00:07.811963
2971  2023-10-18 15:00:07.843904
2972  2023-10-18 15:00:07.875835
2973  2023-10-18 15:00:07.907734
2974  2023-10-18 15:00:07.939655
2975  2023-10-18 15:00:07.971565
2976  2023-10-18 15:00:08.003454
2977  2023-10-18 15:00:08.035391
2978  2023-10-18 15:00:08.067279
2979  2023-10-18 15:00:08.100190
2980  2023-10-18 15:00:08.148074
2981  2023-10-18 15:00:08.180015
2982  2023-10-18 15:00:08.211923
2983  2023-10-18 15:00:08.243837
2984  2023-10-18 15:00:08.275748
2985  2023-10-18 15:00:08.307693
2986  2023-10-18 15:00:08.339617
2987  2023-10-18 15:00:08.371493
2988  2023-10-18 15:00:08.403418
2989  2023-10-18 15:00:08.435330
2990  2023-10-18 15:00:08.468263
2991  2023-10-18 15:00:08.500123
2992  2023-10-18 15:00:08.548024
2993  2023-10-18 15:00:08.579946
2994  2023-10-18 15:00:08.611823
2995  2023-10-18 15:00:08.643737
2996  2023-10-18 15:00:08.675652
2997  2023-10-18 15:00:08.707607
2998  2023-10-18 15:00:08.739482
2999  2023-10-18 15:00:08.771396
3000  2023-10-18 15:00:08.803337
3001  2023-10-18 15:00:08.836277
3002  2023-10-18 15:00:08.868139
3003  2023-10-18 15:00:08.900052
3004  2023-10-18 15:00:08.947962
3005  2023-10-18 15:00:08.979839
3006  2023-10-18 15:00:09.011818
3007  2023-10-18 15:00:09.043719
3008  2023-10-18 15:00:09.075627
3009  2023-10-18 15:00:09.107497
3010  2023-10-18 15:00:09.139410
3011  2023-10-18 15:00:09.171325
3012  2023-10-18 15:00:09.204239
3013  2023-10-18 15:00:09.236192
3014  2023-10-18 15:00:09.268104
3015  2023-10-18 15:00:09.299981
3016  2023-10-18 15:00:09.347898
3017  2023-10-18 15:00:09.379810
3018  2023-10-18 15:00:09.411720
3019  2023-10-18 15:00:09.443626
3020  2023-10-18 15:00:09.475539
3021  2023-10-18 15:00:09.507469
3022  2023-10-18 15:00:09.539394
3023  2023-10-18 15:00:09.571257
3024  2023-10-18 15:00:09.604195
3025  2023-10-18 15:00:09.636121
3026  2023-10-18 15:00:09.667997
3027  2023-10-18 15:00:09.700909
3028  2023-10-18 15:00:09.747783
3029  2023-10-18 15:00:09.779701
3030  2023-10-18 15:00:09.811613
3031  2023-10-18 15:00:09.843583
3032  2023-10-18 15:00:09.876441
3033  2023-10-18 15:00:09.907411
3034  2023-10-18 15:00:09.939272
3035  2023-10-18 15:00:09.972219
3036  2023-10-18 15:00:10.004136
3037  2023-10-18 15:00:10.036055
3038  2023-10-18 15:00:10.067978
3039  2023-10-18 15:00:10.099883
3040  2023-10-18 15:00:10.147743
3041  2023-10-18 15:00:10.179664
3042  2023-10-18 15:00:10.211574
3043  2023-10-18 15:00:10.243459
3044  2023-10-18 15:00:10.275401
3045  2023-10-18 15:00:10.307288
3046  2023-10-18 15:00:10.340216
3047  2023-10-18 15:00:10.372167
3048  2023-10-18 15:00:10.404055
3049  2023-10-18 15:00:10.435980
3050  2023-10-18 15:00:10.467858
3051  2023-10-18 15:00:10.499773
3052  2023-10-18 15:00:10.547645
3053  2023-10-18 15:00:10.579561
3054  2023-10-18 15:00:10.611476
3055  2023-10-18 15:00:10.643440
3056  2023-10-18 15:00:10.675305
3057  2023-10-18 15:00:10.707240
3058  2023-10-18 15:00:10.740172
3059  2023-10-18 15:00:10.772074
3060  2023-10-18 15:00:10.803958
3061  2023-10-18 15:00:10.835917
3062  2023-10-18 15:00:10.867815
3063  2023-10-18 15:00:10.899705
3064  2023-10-18 15:00:10.947604
3065  2023-10-18 15:00:10.979530
3066  2023-10-18 15:00:11.011468
3067  2023-10-18 15:00:11.043320
3068  2023-10-18 15:00:11.075273
3069  2023-10-18 15:00:11.108180
3070  2023-10-18 15:00:11.140095
3071  2023-10-18 15:00:11.172010
3072  2023-10-18 15:00:11.203922
3073  2023-10-18 15:00:11.235806
3074  2023-10-18 15:00:11.267764
3075  2023-10-18 15:00:11.299633
3076  2023-10-18 15:00:11.347533
3077  2023-10-18 15:00:11.379454
3078  2023-10-18 15:00:11.411369
3079  2023-10-18 15:00:11.444247
3080  2023-10-18 15:00:11.476191
3081  2023-10-18 15:00:11.508116
3082  2023-10-18 15:00:11.540019
3083  2023-10-18 15:00:11.571940
3084  2023-10-18 15:00:11.603849
3085  2023-10-18 15:00:11.635736
3086  2023-10-18 15:00:11.668674
3087  2023-10-18 15:00:11.699564
3088  2023-10-18 15:00:11.748475
3089  2023-10-18 15:00:11.779385
3090  2023-10-18 15:00:11.811264
3091  2023-10-18 15:00:11.844230
3092  2023-10-18 15:00:11.876134
3093  2023-10-18 15:00:11.908007
3094  2023-10-18 15:00:11.939921
3095  2023-10-18 15:00:11.971874
3096  2023-10-18 15:00:12.003750
3097  2023-10-18 15:00:12.035666
3098  2023-10-18 15:00:12.067610
3099  2023-10-18 15:00:12.101488
3100  2023-10-18 15:00:12.147402
3101  2023-10-18 15:00:12.179331
3102  2023-10-18 15:00:12.212236
3103  2023-10-18 15:00:12.244142
3104  2023-10-18 15:00:12.276059
3105  2023-10-18 15:00:12.307968
3106  2023-10-18 15:00:12.339890
3107  2023-10-18 15:00:12.371766
3108  2023-10-18 15:00:12.403723
3109  2023-10-18 15:00:12.435596
3110  2023-10-18 15:00:12.467578
3111  2023-10-18 15:00:12.499425
3112  2023-10-18 15:00:12.547323
3113  2023-10-18 15:00:12.579251
3114  2023-10-18 15:00:12.612149
3115  2023-10-18 15:00:12.644038
3116  2023-10-18 15:00:12.675993
3117  2023-10-18 15:00:12.707902
3118  2023-10-18 15:00:12.739829
3119  2023-10-18 15:00:12.771733
3120  2023-10-18 15:00:12.803609
3121  2023-10-18 15:00:12.835568
3122  2023-10-18 15:00:12.867483
3123  2023-10-18 15:00:12.899392
3124  2023-10-18 15:00:12.947258
3125  2023-10-18 15:00:12.980164
3126  2023-10-18 15:00:13.012080
3127  2023-10-18 15:00:13.043968
3128  2023-10-18 15:00:13.075917
3129  2023-10-18 15:00:13.107825
3130  2023-10-18 15:00:13.139717
3131  2023-10-18 15:00:13.171662
3132  2023-10-18 15:00:13.204539
3133  2023-10-18 15:00:13.236452
3134  2023-10-18 15:00:13.268368
3135  2023-10-18 15:00:13.300281
3136  2023-10-18 15:00:13.348197
3137  2023-10-18 15:00:13.380069
3138  2023-10-18 15:00:13.412018
3139  2023-10-18 15:00:13.443927
3140  2023-10-18 15:00:13.475849
3141  2023-10-18 15:00:13.507727
3142  2023-10-18 15:00:13.539676
3143  2023-10-18 15:00:13.571557
3144  2023-10-18 15:00:13.603476
3145  2023-10-18 15:00:13.635412
3146  2023-10-18 15:00:13.668298
3147  2023-10-18 15:00:13.700212
3148  2023-10-18 15:00:13.748137
3149  2023-10-18 15:00:13.780052
3150  2023-10-18 15:00:13.811958
3151  2023-10-18 15:00:13.843881
3152  2023-10-18 15:00:13.875785
3153  2023-10-18 15:00:13.907700
3154  2023-10-18 15:00:13.939598
3155  2023-10-18 15:00:13.971490
3156  2023-10-18 15:00:14.003400
3157  2023-10-18 15:00:14.035316
3158  2023-10-18 15:00:14.068229
3159  2023-10-18 15:00:14.100144
3160  2023-10-18 15:00:14.148015
3161  2023-10-18 15:00:14.179930
3162  2023-10-18 15:00:14.211843
3163  2023-10-18 15:00:14.243799
3164  2023-10-18 15:00:14.275713
3165  2023-10-18 15:00:14.307626
3166  2023-10-18 15:00:14.339539
3167  2023-10-18 15:00:14.371453
3168  2023-10-18 15:00:14.403360
3169  2023-10-18 15:00:14.435247
3170  2023-10-18 15:00:14.468200
3171  2023-10-18 15:00:14.500074
3172  2023-10-18 15:00:14.547995
3173  2023-10-18 15:00:14.579897
3174  2023-10-18 15:00:14.611802
3175  2023-10-18 15:00:14.643728
3176  2023-10-18 15:00:14.675604
3177  2023-10-18 15:00:14.707554
3178  2023-10-18 15:00:14.739461
3179  2023-10-18 15:00:14.771398
3180  2023-10-18 15:00:14.804260
3181  2023-10-18 15:00:14.836173
3182  2023-10-18 15:00:14.868129
3183  2023-10-18 15:00:14.900003
3184  2023-10-18 15:00:14.947901
3185  2023-10-18 15:00:14.979840
3186  2023-10-18 15:00:15.011733
3187  2023-10-18 15:00:15.043671
3188  2023-10-18 15:00:15.075586
3189  2023-10-18 15:00:15.107486
3190  2023-10-18 15:00:15.139410
3191  2023-10-18 15:00:15.171278
3192  2023-10-18 15:00:15.204190
3193  2023-10-18 15:00:15.236132
3194  2023-10-18 15:00:15.268055
3195  2023-10-18 15:00:15.299935
3196  2023-10-18 15:00:15.347843
3197  2023-10-18 15:00:15.379749
3198  2023-10-18 15:00:15.411669
3199  2023-10-18 15:00:15.443578
3200  2023-10-18 15:00:15.475494
3201  2023-10-18 15:00:15.507378
3202  2023-10-18 15:00:15.539322
3203  2023-10-18 15:00:15.571260
3204  2023-10-18 15:00:15.604155
3205  2023-10-18 15:00:15.636035
3206  2023-10-18 15:00:15.667950
3207  2023-10-18 15:00:15.699900
3208  2023-10-18 15:00:15.747738
3209  2023-10-18 15:00:15.779654
3210  2023-10-18 15:00:15.811603
3211  2023-10-18 15:00:15.843480
3212  2023-10-18 15:00:15.875395
3213  2023-10-18 15:00:15.907315
3214  2023-10-18 15:00:15.939259
3215  2023-10-18 15:00:15.972136
3216  2023-10-18 15:00:16.004086
3217  2023-10-18 15:00:16.036006
3218  2023-10-18 15:00:16.067921
3219  2023-10-18 15:00:16.099823
3220  2023-10-18 15:00:16.147712
3221  2023-10-18 15:00:16.179629
3222  2023-10-18 15:00:16.211537
3223  2023-10-18 15:00:16.243459
3224  2023-10-18 15:00:16.275324
3225  2023-10-18 15:00:16.307240
3226  2023-10-18 15:00:16.340184
3227  2023-10-18 15:00:16.372100
3228  2023-10-18 15:00:16.404016
3229  2023-10-18 15:00:16.435932
3230  2023-10-18 15:00:16.467856
3231  2023-10-18 15:00:16.499754
3232  2023-10-18 15:00:16.547632
3233  2023-10-18 15:00:16.579555
3234  2023-10-18 15:00:16.611459
3235  2023-10-18 15:00:16.643371
3236  2023-10-18 15:00:16.675296
3237  2023-10-18 15:00:16.708201
3238  2023-10-18 15:00:16.740126
3239  2023-10-18 15:00:16.772048
3240  2023-10-18 15:00:16.803944
3241  2023-10-18 15:00:16.835827
3242  2023-10-18 15:00:16.867742
3243  2023-10-18 15:00:16.899654
3244  2023-10-18 15:00:16.947570
3245  2023-10-18 15:00:16.979497
3246  2023-10-18 15:00:17.011381
3247  2023-10-18 15:00:17.043305
3248  2023-10-18 15:00:17.075226
3249  2023-10-18 15:00:17.108163
3250  2023-10-18 15:00:17.140053
3251  2023-10-18 15:00:17.171963
3252  2023-10-18 15:00:17.203880
3253  2023-10-18 15:00:17.235811
3254  2023-10-18 15:00:17.267707
3255  2023-10-18 15:00:17.299626
3256  2023-10-18 15:00:17.347456
3257  2023-10-18 15:00:17.380370
3258  2023-10-18 15:00:17.412323
3259  2023-10-18 15:00:17.444236
3260  2023-10-18 15:00:17.476138
3261  2023-10-18 15:00:17.508027
3262  2023-10-18 15:00:17.539942
3263  2023-10-18 15:00:17.571899
3264  2023-10-18 15:00:17.603806
3265  2023-10-18 15:00:17.635731
3266  2023-10-18 15:00:17.667636
3267  2023-10-18 15:00:17.748432
3268  2023-10-18 15:00:17.779340
3269  2023-10-18 15:00:17.811250
3270  2023-10-18 15:00:17.844128
3271  2023-10-18 15:00:17.876043
3272  2023-10-18 15:00:17.907957
3273  2023-10-18 15:00:17.939872
3274  2023-10-18 15:00:17.971836
3275  2023-10-18 15:00:18.003703
3276  2023-10-18 15:00:18.035654
3277  2023-10-18 15:00:18.067576
3278  2023-10-18 15:00:18.099476
3279  2023-10-18 15:00:18.147347
3280  2023-10-18 15:00:18.179231
3281  2023-10-18 15:00:18.212175
3282  2023-10-18 15:00:18.244103
3283  2023-10-18 15:00:18.276003
3284  2023-10-18 15:00:18.307931
3285  2023-10-18 15:00:18.339844
3286  2023-10-18 15:00:18.371766
3287  2023-10-18 15:00:18.403686
3288  2023-10-18 15:00:18.435574
3289  2023-10-18 15:00:18.467461
3290  2023-10-18 15:00:18.499374
3291  2023-10-18 15:00:18.547247
3292  2023-10-18 15:00:18.580211
3293  2023-10-18 15:00:18.612106
3294  2023-10-18 15:00:18.644014
3295  2023-10-18 15:00:18.675940
3296  2023-10-18 15:00:18.707855
3297  2023-10-18 15:00:18.739771
3298  2023-10-18 15:00:18.771647
3299  2023-10-18 15:00:18.803588
3300  2023-10-18 15:00:18.835476
3301  2023-10-18 15:00:18.867429
3302  2023-10-18 15:00:18.899310
3303  2023-10-18 15:00:18.948200
3304  2023-10-18 15:00:18.980131
3305  2023-10-18 15:00:19.012004
3306  2023-10-18 15:00:19.043945
3307  2023-10-18 15:00:19.075861
3308  2023-10-18 15:00:19.107784
3309  2023-10-18 15:00:19.139701
3310  2023-10-18 15:00:19.171613
3311  2023-10-18 15:00:19.203538
3312  2023-10-18 15:00:19.235443
3313  2023-10-18 15:00:19.267365
3314  2023-10-18 15:00:19.299272
3315  2023-10-18 15:00:19.348146
3316  2023-10-18 15:00:19.380057
3317  2023-10-18 15:00:19.411963
3318  2023-10-18 15:00:19.443888
3319  2023-10-18 15:00:19.475802
3320  2023-10-18 15:00:19.507715
3321  2023-10-18 15:00:19.539593
3322  2023-10-18 15:00:19.571508
3323  2023-10-18 15:00:19.603462
3324  2023-10-18 15:00:19.635371
3325  2023-10-18 15:00:19.667298
3326  2023-10-18 15:00:19.700213
3327  2023-10-18 15:00:19.748077
3328  2023-10-18 15:00:19.779984
3329  2023-10-18 15:00:19.811910
3330  2023-10-18 15:00:19.843807
3331  2023-10-18 15:00:19.875730
3332  2023-10-18 15:00:19.907664
3333  2023-10-18 15:00:19.939565
3334  2023-10-18 15:00:19.971437
3335  2023-10-18 15:00:20.004351
3336  2023-10-18 15:00:20.035310
3337  2023-10-18 15:00:20.068180
3338  2023-10-18 15:00:20.100095
3339  2023-10-18 15:00:20.148014
3340  2023-10-18 15:00:20.179921
3341  2023-10-18 15:00:20.211823
3342  2023-10-18 15:00:20.243749
3343  2023-10-18 15:00:20.275660
3344  2023-10-18 15:00:20.307572
3345  2023-10-18 15:00:20.339497
3346  2023-10-18 15:00:20.371409
3347  2023-10-18 15:00:20.403321
3348  2023-10-18 15:00:20.435237
3349  2023-10-18 15:00:20.468144
3350  2023-10-18 15:00:20.500050
3351  2023-10-18 15:00:20.547933
3352  2023-10-18 15:00:20.579867
3353  2023-10-18 15:00:20.611762
3354  2023-10-18 15:00:20.643640
3355  2023-10-18 15:00:20.675582
3356  2023-10-18 15:00:20.707522
3357  2023-10-18 15:00:20.739418
3358  2023-10-18 15:00:20.771332
3359  2023-10-18 15:00:20.803214
3360  2023-10-18 15:00:20.836172
3361  2023-10-18 15:00:20.868082
3362  2023-10-18 15:00:20.899954
3363  2023-10-18 15:00:20.947826
3364  2023-10-18 15:00:20.979746
3365  2023-10-18 15:00:21.011656
3366  2023-10-18 15:00:21.043570
3367  2023-10-18 15:00:21.075522
3368  2023-10-18 15:00:21.107448
3369  2023-10-18 15:00:21.139314
3370  2023-10-18 15:00:21.172227
3371  2023-10-18 15:00:21.204141
3372  2023-10-18 15:00:21.236082
3373  2023-10-18 15:00:21.268001
3374  2023-10-18 15:00:21.299886
3375  2023-10-18 15:00:21.347802
3376  2023-10-18 15:00:21.379707
3377  2023-10-18 15:00:21.411616
3378  2023-10-18 15:00:21.443537
3379  2023-10-18 15:00:21.475473
3380  2023-10-18 15:00:21.507355
3381  2023-10-18 15:00:21.539288
3382  2023-10-18 15:00:21.572210
3383  2023-10-18 15:00:21.604116
3384  2023-10-18 15:00:21.636030
3385  2023-10-18 15:00:21.667937
3386  2023-10-18 15:00:21.699840
3387  2023-10-18 15:00:21.747721
3388  2023-10-18 15:00:21.779648
3389  2023-10-18 15:00:21.811550
3390  2023-10-18 15:00:21.843467
3391  2023-10-18 15:00:21.875345
3392  2023-10-18 15:00:21.907309
3393  2023-10-18 15:00:21.940171
3394  2023-10-18 15:00:21.972128
3395  2023-10-18 15:00:22.004036
3396  2023-10-18 15:00:22.035916
3397  2023-10-18 15:00:22.067863
3398  2023-10-18 15:00:22.099744
3399  2023-10-18 15:00:22.147663
3400  2023-10-18 15:00:22.179578
3401  2023-10-18 15:00:22.211484
3402  2023-10-18 15:00:22.243361
3403  2023-10-18 15:00:22.276273
3404  2023-10-18 15:00:22.307231
3405  2023-10-18 15:00:22.340135
3406  2023-10-18 15:00:22.372043
3407  2023-10-18 15:00:22.403967
3408  2023-10-18 15:00:22.435882
3409  2023-10-18 15:00:22.467798
3410  2023-10-18 15:00:22.499716
3411  2023-10-18 15:00:22.547547
3412  2023-10-18 15:00:22.579461
3413  2023-10-18 15:00:22.611408
3414  2023-10-18 15:00:22.643319
3415  2023-10-18 15:00:22.675231
3416  2023-10-18 15:00:22.708157
3417  2023-10-18 15:00:22.740074
3418  2023-10-18 15:00:22.771988
3419  2023-10-18 15:00:22.803863
3420  2023-10-18 15:00:22.835806
3421  2023-10-18 15:00:22.867718
3422  2023-10-18 15:00:22.899605
3423  2023-10-18 15:00:22.947519
3424  2023-10-18 15:00:22.979395
3425  2023-10-18 15:00:23.011311
3426  2023-10-18 15:00:23.043224
3427  2023-10-18 15:00:23.076171
3428  2023-10-18 15:00:23.108078
3429  2023-10-18 15:00:23.139990
3430  2023-10-18 15:00:23.171906
3431  2023-10-18 15:00:23.203846
3432  2023-10-18 15:00:23.235750
3433  2023-10-18 15:00:23.267619
3434  2023-10-18 15:00:23.300533
3435  2023-10-18 15:00:23.347407
3436  2023-10-18 15:00:23.379322
3437  2023-10-18 15:00:23.411274
3438  2023-10-18 15:00:23.444175
3439  2023-10-18 15:00:23.476095
3440  2023-10-18 15:00:23.508019
3441  2023-10-18 15:00:23.539931
3442  2023-10-18 15:00:23.571839
3443  2023-10-18 15:00:23.603750
3444  2023-10-18 15:00:23.635673
3445  2023-10-18 15:00:23.667594
3446  2023-10-18 15:00:23.699501
3447  2023-10-18 15:00:23.748336
3448  2023-10-18 15:00:23.780252
3449  2023-10-18 15:00:23.812192
3450  2023-10-18 15:00:23.844079
3451  2023-10-18 15:00:23.875992
3452  2023-10-18 15:00:23.907908
3453  2023-10-18 15:00:23.939823
3454  2023-10-18 15:00:23.971737
3455  2023-10-18 15:00:24.003695
3456  2023-10-18 15:00:24.035609
3457  2023-10-18 15:00:24.067508
3458  2023-10-18 15:00:24.099399
3459  2023-10-18 15:00:24.147302
3460  2023-10-18 15:00:24.180213
3461  2023-10-18 15:00:24.212132
3462  2023-10-18 15:00:24.244058
3463  2023-10-18 15:00:24.275955
3464  2023-10-18 15:00:24.307886
3465  2023-10-18 15:00:24.339799
3466  2023-10-18 15:00:24.371668
3467  2023-10-18 15:00:24.403617
3468  2023-10-18 15:00:24.435511
3469  2023-10-18 15:00:24.467412
3470  2023-10-18 15:00:24.500323
3471  2023-10-18 15:00:24.548241
3472  2023-10-18 15:00:24.580160
3473  2023-10-18 15:00:24.612069
3474  2023-10-18 15:00:24.643991
3475  2023-10-18 15:00:24.675853
3476  2023-10-18 15:00:24.707790
3477  2023-10-18 15:00:24.739686
3478  2023-10-18 15:00:24.771625
3479  2023-10-18 15:00:24.803512
3480  2023-10-18 15:00:24.835427
3481  2023-10-18 15:00:24.867372
3482  2023-10-18 15:00:24.899306
3483  2023-10-18 15:00:24.948126
3484  2023-10-18 15:00:24.980074
3485  2023-10-18 15:00:25.011955
3486  2023-10-18 15:00:25.043907
3487  2023-10-18 15:00:25.075784
3488  2023-10-18 15:00:25.107749
3489  2023-10-18 15:00:25.139623
3490  2023-10-18 15:00:25.171555
3491  2023-10-18 15:00:25.203488
3492  2023-10-18 15:00:25.235394
3493  2023-10-18 15:00:25.267308
3494  2023-10-18 15:00:25.300223
3495  2023-10-18 15:00:25.348097
3496  2023-10-18 15:00:25.380013
3497  2023-10-18 15:00:25.411923
3498  2023-10-18 15:00:25.443835
3499  2023-10-18 15:00:25.475743
3500  2023-10-18 15:00:25.507690
3501  2023-10-18 15:00:25.539544
3502  2023-10-18 15:00:25.571490
3503  2023-10-18 15:00:25.603402
3504  2023-10-18 15:00:25.635323
3505  2023-10-18 15:00:25.667236
3506  2023-10-18 15:00:25.700157
3507  2023-10-18 15:00:25.747985
3508  2023-10-18 15:00:25.779899
3509  2023-10-18 15:00:25.811855
3510  2023-10-18 15:00:25.843786
3511  2023-10-18 15:00:25.875687
3512  2023-10-18 15:00:25.907592
3513  2023-10-18 15:00:25.939506
3514  2023-10-18 15:00:25.971388
3515  2023-10-18 15:00:26.004301
3516  2023-10-18 15:00:26.035244
3517  2023-10-18 15:00:26.068188
3518  2023-10-18 15:00:26.100045
3519  2023-10-18 15:00:26.147915
3520  2023-10-18 15:00:26.179829
3521  2023-10-18 15:00:26.211788
3522  2023-10-18 15:00:26.243700
3523  2023-10-18 15:00:26.275616
3524  2023-10-18 15:00:26.307527
3525  2023-10-18 15:00:26.339430
3526  2023-10-18 15:00:26.371358
3527  2023-10-18 15:00:26.403273
3528  2023-10-18 15:00:26.436174
3529  2023-10-18 15:00:26.468097
3530  2023-10-18 15:00:26.500004
3531  2023-10-18 15:00:26.547878
3532  2023-10-18 15:00:26.579759
3533  2023-10-18 15:00:26.611720
3534  2023-10-18 15:00:26.643591
3535  2023-10-18 15:00:26.675505
3536  2023-10-18 15:00:26.707472
3537  2023-10-18 15:00:26.739360
3538  2023-10-18 15:00:26.771308
3539  2023-10-18 15:00:26.804222
3540  2023-10-18 15:00:26.836101
3541  2023-10-18 15:00:26.868029
3542  2023-10-18 15:00:26.899942
3543  2023-10-18 15:00:26.947775
3544  2023-10-18 15:00:26.979690
3545  2023-10-18 15:00:27.011605
3546  2023-10-18 15:00:27.043563
3547  2023-10-18 15:00:27.075472
3548  2023-10-18 15:00:27.107376
3549  2023-10-18 15:00:27.139313
3550  2023-10-18 15:00:27.172179
3551  2023-10-18 15:00:27.204092
3552  2023-10-18 15:00:27.236005
3553  2023-10-18 15:00:27.267924
3554  2023-10-18 15:00:27.299836
3555  2023-10-18 15:00:27.347705
3556  2023-10-18 15:00:27.379656
3557  2023-10-18 15:00:27.411535
3558  2023-10-18 15:00:27.443480
3559  2023-10-18 15:00:27.475411
3560  2023-10-18 15:00:27.507307
3561  2023-10-18 15:00:27.539223
