
1  2023-12-01 12:06:48.732709
2  2023-12-01 12:06:48.764763
3  2023-12-01 12:06:48.796587
4  2023-12-01 12:06:48.829241
5  2023-12-01 12:06:48.877492
6  2023-12-01 12:06:48.909478
7  2023-12-01 12:06:48.941461
8  2023-12-01 12:06:48.972548
9  2023-12-01 12:06:49.005522
10  2023-12-01 12:06:49.037006
11  2023-12-01 12:06:49.069468
12  2023-12-01 12:06:49.101495
13  2023-12-01 12:06:49.133468
14  2023-12-01 12:06:49.165492
15  2023-12-01 12:06:49.196832
16  2023-12-01 12:06:49.229696
17  2023-12-01 12:06:49.277480
18  2023-12-01 12:06:49.309370
19  2023-12-01 12:06:49.341495
20  2023-12-01 12:06:49.372466
21  2023-12-01 12:06:49.404439
22  2023-12-01 12:06:49.437468
23  2023-12-01 12:06:49.468468
24  2023-12-01 12:06:49.500460
25  2023-12-01 12:06:49.532578
26  2023-12-01 12:06:49.565434
27  2023-12-01 12:06:49.597394
28  2023-12-01 12:06:49.629486
29  2023-12-01 12:06:49.677458
30  2023-12-01 12:06:49.709660
31  2023-12-01 12:06:49.740796
32  2023-12-01 12:06:49.772743
33  2023-12-01 12:06:49.804888
34  2023-12-01 12:06:49.836483
35  2023-12-01 12:06:49.868363
36  2023-12-01 12:06:49.900892
37  2023-12-01 12:06:49.933145
38  2023-12-01 12:06:49.965688
39  2023-12-01 12:06:49.996639
40  2023-12-01 12:06:50.029048
41  2023-12-01 12:06:50.076476
42  2023-12-01 12:06:50.108259
43  2023-12-01 12:06:50.141464
44  2023-12-01 12:06:50.173495
45  2023-12-01 12:06:50.205263
46  2023-12-01 12:06:50.237464
47  2023-12-01 12:06:50.268542
48  2023-12-01 12:06:50.300536
49  2023-12-01 12:06:50.332168
50  2023-12-01 12:06:50.365169
51  2023-12-01 12:06:50.396406
52  2023-12-01 12:06:50.429362
53  2023-12-01 12:06:50.477486
54  2023-12-01 12:06:50.509379
55  2023-12-01 12:06:50.540530
56  2023-12-01 12:06:50.573509
57  2023-12-01 12:06:50.605516
58  2023-12-01 12:06:50.637472
59  2023-12-01 12:06:50.668913
60  2023-12-01 12:06:50.701352
61  2023-12-01 12:06:50.733824
62  2023-12-01 12:06:50.764938
63  2023-12-01 12:06:50.797433
64  2023-12-01 12:06:50.828440
65  2023-12-01 12:06:50.876486
66  2023-12-01 12:06:50.908875
67  2023-12-01 12:06:50.941469
68  2023-12-01 12:06:50.972811
69  2023-12-01 12:06:51.005239
70  2023-12-01 12:06:51.037289
71  2023-12-01 12:06:51.068574
72  2023-12-01 12:06:51.101535
73  2023-12-01 12:06:51.133457
74  2023-12-01 12:06:51.164921
75  2023-12-01 12:06:51.197496
76  2023-12-01 12:06:51.230166
77  2023-12-01 12:06:51.277383
78  2023-12-01 12:06:51.308816
79  2023-12-01 12:06:51.340622
80  2023-12-01 12:06:51.372556
81  2023-12-01 12:06:51.405205
82  2023-12-01 12:06:51.436496
83  2023-12-01 12:06:51.469490
84  2023-12-01 12:06:51.501496
85  2023-12-01 12:06:51.532484
86  2023-12-01 12:06:51.565483
87  2023-12-01 12:06:51.597120
88  2023-12-01 12:06:51.629812
89  2023-12-01 12:06:51.677669
90  2023-12-01 12:06:51.708428
91  2023-12-01 12:06:51.740486
92  2023-12-01 12:06:51.773331
93  2023-12-01 12:06:51.805500
94  2023-12-01 12:06:51.837462
95  2023-12-01 12:06:51.869204
96  2023-12-01 12:06:51.901165
97  2023-12-01 12:06:51.933048
98  2023-12-01 12:06:51.964569
99  2023-12-01 12:06:51.997294
100  2023-12-01 12:06:52.029474
101  2023-12-01 12:06:52.077276
102  2023-12-01 12:06:52.109421
103  2023-12-01 12:06:52.141085
104  2023-12-01 12:06:52.173453
105  2023-12-01 12:06:52.205169
106  2023-12-01 12:06:52.237306
107  2023-12-01 12:06:52.269361
108  2023-12-01 12:06:52.301538
109  2023-12-01 12:06:52.333140
110  2023-12-01 12:06:52.365161
111  2023-12-01 12:06:52.397163
112  2023-12-01 12:06:52.428961
113  2023-12-01 12:06:52.477796
114  2023-12-01 12:06:52.509496
115  2023-12-01 12:06:52.541460
116  2023-12-01 12:06:52.572470
117  2023-12-01 12:06:52.605555
118  2023-12-01 12:06:52.637506
119  2023-12-01 12:06:52.669376
120  2023-12-01 12:06:52.700472
121  2023-12-01 12:06:52.733091
122  2023-12-01 12:06:52.765103
123  2023-12-01 12:06:52.796812
124  2023-12-01 12:06:52.829104
125  2023-12-01 12:06:52.877471
126  2023-12-01 12:06:52.909493
127  2023-12-01 12:06:52.941147
128  2023-12-01 12:06:52.973048
129  2023-12-01 12:06:53.005549
130  2023-12-01 12:06:53.037512
131  2023-12-01 12:06:53.069347
132  2023-12-01 12:06:53.101671
133  2023-12-01 12:06:53.133475
134  2023-12-01 12:06:53.165498
135  2023-12-01 12:06:53.197520
136  2023-12-01 12:06:53.231443
137  2023-12-01 12:06:53.277828
138  2023-12-01 12:06:53.309307
139  2023-12-01 12:06:53.341170
140  2023-12-01 12:06:53.373529
141  2023-12-01 12:06:53.405454
142  2023-12-01 12:06:53.436573
143  2023-12-01 12:06:53.469441
144  2023-12-01 12:06:53.500597
145  2023-12-01 12:06:53.532645
146  2023-12-01 12:06:53.564492
147  2023-12-01 12:06:53.597497
148  2023-12-01 12:06:53.630336
149  2023-12-01 12:06:53.677615
150  2023-12-01 12:06:53.709466
151  2023-12-01 12:06:53.740490
152  2023-12-01 12:06:53.772846
153  2023-12-01 12:06:53.805059
154  2023-12-01 12:06:53.837346
155  2023-12-01 12:06:53.868352
156  2023-12-01 12:06:53.900507
157  2023-12-01 12:06:53.933490
158  2023-12-01 12:06:53.965513
159  2023-12-01 12:06:53.997499
160  2023-12-01 12:06:54.029015
161  2023-12-01 12:06:54.077115
162  2023-12-01 12:06:54.108461
163  2023-12-01 12:06:54.141462
164  2023-12-01 12:06:54.173621
165  2023-12-01 12:06:54.205675
166  2023-12-01 12:06:54.237466
167  2023-12-01 12:06:54.268444
168  2023-12-01 12:06:54.301598
169  2023-12-01 12:06:54.332911
170  2023-12-01 12:06:54.365300
171  2023-12-01 12:06:54.397935
172  2023-12-01 12:06:54.429498
173  2023-12-01 12:06:54.477158
174  2023-12-01 12:06:54.508444
175  2023-12-01 12:06:54.540554
176  2023-12-01 12:06:54.572516
177  2023-12-01 12:06:54.605274
178  2023-12-01 12:06:54.637475
179  2023-12-01 12:06:54.668494
180  2023-12-01 12:06:54.701185
181  2023-12-01 12:06:54.733461
182  2023-12-01 12:06:54.765530
183  2023-12-01 12:06:54.797509
184  2023-12-01 12:06:54.829495
185  2023-12-01 12:06:54.877510
186  2023-12-01 12:06:54.908469
187  2023-12-01 12:06:54.941411
188  2023-12-01 12:06:54.972726
189  2023-12-01 12:06:55.005652
190  2023-12-01 12:06:55.037482
191  2023-12-01 12:06:55.068498
192  2023-12-01 12:06:55.100394
193  2023-12-01 12:06:55.132639
194  2023-12-01 12:06:55.164496
195  2023-12-01 12:06:55.197497
196  2023-12-01 12:06:55.229659
197  2023-12-01 12:06:55.277207
198  2023-12-01 12:06:55.309448
199  2023-12-01 12:06:55.341464
200  2023-12-01 12:06:55.372654
201  2023-12-01 12:06:55.406331
202  2023-12-01 12:06:55.437032
203  2023-12-01 12:06:55.469474
204  2023-12-01 12:06:55.501462
205  2023-12-01 12:06:55.533012
206  2023-12-01 12:06:55.565345
207  2023-12-01 12:06:55.597492
208  2023-12-01 12:06:55.628910
209  2023-12-01 12:06:55.676353
210  2023-12-01 12:06:55.709462
211  2023-12-01 12:06:55.740813
212  2023-12-01 12:06:55.773115
213  2023-12-01 12:06:55.805496
214  2023-12-01 12:06:55.837948
215  2023-12-01 12:06:55.868464
216  2023-12-01 12:06:55.901491
217  2023-12-01 12:06:55.933506
218  2023-12-01 12:06:55.965489
219  2023-12-01 12:06:55.997882
220  2023-12-01 12:06:56.029813
221  2023-12-01 12:06:56.077725
222  2023-12-01 12:06:56.108386
223  2023-12-01 12:06:56.141040
224  2023-12-01 12:06:56.172973
225  2023-12-01 12:06:56.205067
226  2023-12-01 12:06:56.236443
227  2023-12-01 12:06:56.268521
228  2023-12-01 12:06:56.301519
229  2023-12-01 12:06:56.333502
230  2023-12-01 12:06:56.365513
231  2023-12-01 12:06:56.398472
232  2023-12-01 12:06:56.429825
233  2023-12-01 12:06:56.477693
234  2023-12-01 12:06:56.509371
235  2023-12-01 12:06:56.540533
236  2023-12-01 12:06:56.573053
237  2023-12-01 12:06:56.605549
238  2023-12-01 12:06:56.637507
239  2023-12-01 12:06:56.669525
240  2023-12-01 12:06:56.700811
241  2023-12-01 12:06:56.732239
242  2023-12-01 12:06:56.765551
243  2023-12-01 12:06:56.797493
244  2023-12-01 12:06:56.829972
245  2023-12-01 12:06:56.877575
246  2023-12-01 12:06:56.908357
247  2023-12-01 12:06:56.940465
248  2023-12-01 12:06:56.973522
249  2023-12-01 12:06:57.005496
250  2023-12-01 12:06:57.037517
251  2023-12-01 12:06:57.069345
252  2023-12-01 12:06:57.101178
253  2023-12-01 12:06:57.133472
254  2023-12-01 12:06:57.165494
255  2023-12-01 12:06:57.197002
256  2023-12-01 12:06:57.228969
257  2023-12-01 12:06:57.277055
258  2023-12-01 12:06:57.309522
259  2023-12-01 12:06:57.340552
260  2023-12-01 12:06:57.373487
261  2023-12-01 12:06:57.404681
262  2023-12-01 12:06:57.437479
263  2023-12-01 12:06:57.469475
264  2023-12-01 12:06:57.500717
265  2023-12-01 12:06:57.533471
266  2023-12-01 12:06:57.565218
267  2023-12-01 12:06:57.598426
268  2023-12-01 12:06:57.629171
269  2023-12-01 12:06:57.677456
270  2023-12-01 12:06:57.708468
271  2023-12-01 12:06:57.740343
272  2023-12-01 12:06:57.772432
273  2023-12-01 12:06:57.804313
274  2023-12-01 12:06:57.836769
275  2023-12-01 12:06:57.869482
276  2023-12-01 12:06:57.900479
277  2023-12-01 12:06:57.933488
278  2023-12-01 12:06:57.965608
279  2023-12-01 12:06:57.997497
280  2023-12-01 12:06:58.029468
281  2023-12-01 12:06:58.077160
282  2023-12-01 12:06:58.109250
283  2023-12-01 12:06:58.140411
284  2023-12-01 12:06:58.172458
285  2023-12-01 12:06:58.204355
286  2023-12-01 12:06:58.237451
287  2023-12-01 12:06:58.269003
288  2023-12-01 12:06:58.301465
289  2023-12-01 12:06:58.332182
290  2023-12-01 12:06:58.365064
291  2023-12-01 12:06:58.397471
292  2023-12-01 12:06:58.428661
293  2023-12-01 12:06:58.476572
294  2023-12-01 12:06:58.508494
295  2023-12-01 12:06:58.540362
296  2023-12-01 12:06:58.572308
297  2023-12-01 12:06:58.604538
298  2023-12-01 12:06:58.636856
299  2023-12-01 12:06:58.668313
300  2023-12-01 12:06:58.701508
301  2023-12-01 12:06:58.732986
302  2023-12-01 12:06:58.765593
303  2023-12-01 12:06:58.796512
304  2023-12-01 12:06:58.858346
305  2023-12-01 12:06:58.896244
306  2023-12-01 12:06:58.909211
307  2023-12-01 12:06:58.945115
308  2023-12-01 12:06:58.973038
309  2023-12-01 12:06:59.004953
310  2023-12-01 12:06:59.036722
311  2023-12-01 12:06:59.068638
312  2023-12-01 12:06:59.100552
313  2023-12-01 12:06:59.132440
314  2023-12-01 12:06:59.165500
315  2023-12-01 12:06:59.197509
316  2023-12-01 12:06:59.229485
317  2023-12-01 12:06:59.276895
318  2023-12-01 12:06:59.308857
319  2023-12-01 12:06:59.340868
320  2023-12-01 12:06:59.373093
321  2023-12-01 12:06:59.404879
322  2023-12-01 12:06:59.437249
323  2023-12-01 12:06:59.468257
324  2023-12-01 12:06:59.501319
325  2023-12-01 12:06:59.533093
326  2023-12-01 12:06:59.565503
327  2023-12-01 12:06:59.596405
328  2023-12-01 12:06:59.628741
329  2023-12-01 12:06:59.677442
330  2023-12-01 12:06:59.709472
331  2023-12-01 12:06:59.740656
332  2023-12-01 12:06:59.773516
333  2023-12-01 12:06:59.805497
334  2023-12-01 12:06:59.837227
335  2023-12-01 12:06:59.868530
336  2023-12-01 12:06:59.901362
337  2023-12-01 12:06:59.933887
338  2023-12-01 12:06:59.964857
339  2023-12-01 12:06:59.997502
340  2023-12-01 12:07:00.028599
341  2023-12-01 12:07:00.076481
342  2023-12-01 12:07:00.109441
343  2023-12-01 12:07:00.141517
344  2023-12-01 12:07:00.173506
345  2023-12-01 12:07:00.204884
346  2023-12-01 12:07:00.236487
347  2023-12-01 12:07:00.269498
348  2023-12-01 12:07:00.301552
349  2023-12-01 12:07:00.333506
350  2023-12-01 12:07:00.365501
351  2023-12-01 12:07:00.397497
352  2023-12-01 12:07:00.428793
353  2023-12-01 12:07:00.477195
354  2023-12-01 12:07:00.509232
355  2023-12-01 12:07:00.540498
356  2023-12-01 12:07:00.573692
357  2023-12-01 12:07:00.605382
358  2023-12-01 12:07:00.637499
359  2023-12-01 12:07:00.668481
360  2023-12-01 12:07:00.700654
361  2023-12-01 12:07:00.733163
362  2023-12-01 12:07:00.765508
363  2023-12-01 12:07:00.797504
364  2023-12-01 12:07:00.829439
365  2023-12-01 12:07:00.877495
366  2023-12-01 12:07:00.909607
367  2023-12-01 12:07:00.941493
368  2023-12-01 12:07:00.973381
369  2023-12-01 12:07:01.005233
370  2023-12-01 12:07:01.037145
371  2023-12-01 12:07:01.068951
372  2023-12-01 12:07:01.101231
373  2023-12-01 12:07:01.133183
374  2023-12-01 12:07:01.165507
375  2023-12-01 12:07:01.197397
376  2023-12-01 12:07:01.228586
377  2023-12-01 12:07:01.276656
378  2023-12-01 12:07:01.309766
379  2023-12-01 12:07:01.343598
380  2023-12-01 12:07:01.372522
381  2023-12-01 12:07:01.404145
382  2023-12-01 12:07:01.436961
383  2023-12-01 12:07:01.468611
384  2023-12-01 12:07:01.500527
385  2023-12-01 12:07:01.532662
386  2023-12-01 12:07:01.564307
387  2023-12-01 12:07:01.597496
388  2023-12-01 12:07:01.629439
389  2023-12-01 12:07:01.677468
390  2023-12-01 12:07:01.709584
391  2023-12-01 12:07:01.740588
392  2023-12-01 12:07:01.773150
393  2023-12-01 12:07:01.804420
394  2023-12-01 12:07:01.837059
395  2023-12-01 12:07:01.868639
396  2023-12-01 12:07:01.900503
397  2023-12-01 12:07:01.932414
398  2023-12-01 12:07:01.965752
399  2023-12-01 12:07:01.997503
400  2023-12-01 12:07:02.029560
401  2023-12-01 12:07:02.077248
402  2023-12-01 12:07:02.108620
403  2023-12-01 12:07:02.141135
404  2023-12-01 12:07:02.172543
405  2023-12-01 12:07:02.204516
406  2023-12-01 12:07:02.237374
407  2023-12-01 12:07:02.269281
408  2023-12-01 12:07:02.300657
409  2023-12-01 12:07:02.334051
410  2023-12-01 12:07:02.365662
411  2023-12-01 12:07:02.396935
412  2023-12-01 12:07:02.428670
413  2023-12-01 12:07:02.477336
414  2023-12-01 12:07:02.509616
415  2023-12-01 12:07:02.541505
416  2023-12-01 12:07:02.573435
417  2023-12-01 12:07:02.604668
418  2023-12-01 12:07:02.636664
419  2023-12-01 12:07:02.669175
420  2023-12-01 12:07:02.701121
421  2023-12-01 12:07:02.732622
422  2023-12-01 12:07:02.764965
423  2023-12-01 12:07:02.796614
424  2023-12-01 12:07:02.829313
425  2023-12-01 12:07:02.877475
426  2023-12-01 12:07:02.909496
427  2023-12-01 12:07:02.941504
428  2023-12-01 12:07:02.973784
429  2023-12-01 12:07:03.004815
430  2023-12-01 12:07:03.037505
431  2023-12-01 12:07:03.068739
432  2023-12-01 12:07:03.100679
433  2023-12-01 12:07:03.133253
434  2023-12-01 12:07:03.165423
435  2023-12-01 12:07:03.196584
436  2023-12-01 12:07:03.228343
437  2023-12-01 12:07:03.276461
438  2023-12-01 12:07:03.309506
439  2023-12-01 12:07:03.340634
440  2023-12-01 12:07:03.372559
441  2023-12-01 12:07:03.405506
442  2023-12-01 12:07:03.437557
443  2023-12-01 12:07:03.468473
444  2023-12-01 12:07:03.501521
445  2023-12-01 12:07:03.532621
446  2023-12-01 12:07:03.565894
447  2023-12-01 12:07:03.597138
448  2023-12-01 12:07:03.630418
449  2023-12-01 12:07:03.677439
450  2023-12-01 12:07:03.709384
451  2023-12-01 12:07:03.740468
452  2023-12-01 12:07:03.772549
453  2023-12-01 12:07:03.805471
454  2023-12-01 12:07:03.837524
455  2023-12-01 12:07:03.868637
456  2023-12-01 12:07:03.901256
457  2023-12-01 12:07:03.933459
458  2023-12-01 12:07:03.965651
459  2023-12-01 12:07:03.997474
460  2023-12-01 12:07:04.029688
461  2023-12-01 12:07:04.076603
462  2023-12-01 12:07:04.109359
463  2023-12-01 12:07:04.141473
464  2023-12-01 12:07:04.173737
465  2023-12-01 12:07:04.205359
466  2023-12-01 12:07:04.236862
467  2023-12-01 12:07:04.270146
468  2023-12-01 12:07:04.300713
469  2023-12-01 12:07:04.333463
470  2023-12-01 12:07:04.365374
471  2023-12-01 12:07:04.396484
472  2023-12-01 12:07:04.429465
473  2023-12-01 12:07:04.476656
474  2023-12-01 12:07:04.509233
475  2023-12-01 12:07:04.541470
476  2023-12-01 12:07:04.573478
477  2023-12-01 12:07:04.605462
478  2023-12-01 12:07:04.638277
479  2023-12-01 12:07:04.669475
480  2023-12-01 12:07:04.700897
481  2023-12-01 12:07:04.734663
482  2023-12-01 12:07:04.766838
483  2023-12-01 12:07:04.798417
484  2023-12-01 12:07:04.829269
485  2023-12-01 12:07:04.876473
486  2023-12-01 12:07:04.909684
487  2023-12-01 12:07:04.940494
488  2023-12-01 12:07:04.973465
489  2023-12-01 12:07:05.004484
490  2023-12-01 12:07:05.036480
491  2023-12-01 12:07:05.068839
492  2023-12-01 12:07:05.100538
493  2023-12-01 12:07:05.135165
494  2023-12-01 12:07:05.165714
495  2023-12-01 12:07:05.198491
496  2023-12-01 12:07:05.230108
497  2023-12-01 12:07:05.277380
498  2023-12-01 12:07:05.308839
499  2023-12-01 12:07:05.341437
500  2023-12-01 12:07:05.372385
501  2023-12-01 12:07:05.404997
502  2023-12-01 12:07:05.436678
503  2023-12-01 12:07:05.469495
504  2023-12-01 12:07:05.501489
505  2023-12-01 12:07:05.533483
506  2023-12-01 12:07:05.565505
507  2023-12-01 12:07:05.598509
508  2023-12-01 12:07:05.630468
509  2023-12-01 12:07:05.677602
510  2023-12-01 12:07:05.709659
511  2023-12-01 12:07:05.741417
512  2023-12-01 12:07:05.773278
513  2023-12-01 12:07:05.806105
514  2023-12-01 12:07:05.837496
515  2023-12-01 12:07:05.868591
516  2023-12-01 12:07:05.900580
517  2023-12-01 12:07:05.932922
518  2023-12-01 12:07:05.965659
519  2023-12-01 12:07:05.997461
520  2023-12-01 12:07:06.029530
521  2023-12-01 12:07:06.078468
522  2023-12-01 12:07:06.109000
523  2023-12-01 12:07:06.141027
524  2023-12-01 12:07:06.173614
525  2023-12-01 12:07:06.205498
526  2023-12-01 12:07:06.237471
527  2023-12-01 12:07:06.269496
528  2023-12-01 12:07:06.301531
529  2023-12-01 12:07:06.333503
530  2023-12-01 12:07:06.365541
531  2023-12-01 12:07:06.397618
532  2023-12-01 12:07:06.428610
533  2023-12-01 12:07:06.477332
534  2023-12-01 12:07:06.508473
535  2023-12-01 12:07:06.540540
536  2023-12-01 12:07:06.573596
537  2023-12-01 12:07:06.605491
538  2023-12-01 12:07:06.637501
539  2023-12-01 12:07:06.669409
540  2023-12-01 12:07:06.701415
541  2023-12-01 12:07:06.733231
542  2023-12-01 12:07:06.765433
543  2023-12-01 12:07:06.797434
544  2023-12-01 12:07:06.829232
545  2023-12-01 12:07:06.877440
546  2023-12-01 12:07:06.909597
547  2023-12-01 12:07:06.941795
548  2023-12-01 12:07:06.973204
549  2023-12-01 12:07:07.004903
550  2023-12-01 12:07:07.037271
551  2023-12-01 12:07:07.068693
552  2023-12-01 12:07:07.100815
553  2023-12-01 12:07:07.133054
554  2023-12-01 12:07:07.165309
555  2023-12-01 12:07:07.197407
556  2023-12-01 12:07:07.229390
557  2023-12-01 12:07:07.277431
558  2023-12-01 12:07:07.309699
559  2023-12-01 12:07:07.341447
560  2023-12-01 12:07:07.373457
561  2023-12-01 12:07:07.405228
562  2023-12-01 12:07:07.438393
563  2023-12-01 12:07:07.468935
564  2023-12-01 12:07:07.501886
565  2023-12-01 12:07:07.532789
566  2023-12-01 12:07:07.564542
567  2023-12-01 12:07:07.597254
568  2023-12-01 12:07:07.629626
569  2023-12-01 12:07:07.677475
570  2023-12-01 12:07:07.708738
571  2023-12-01 12:07:07.740331
572  2023-12-01 12:07:07.772629
573  2023-12-01 12:07:07.805429
574  2023-12-01 12:07:07.837408
575  2023-12-01 12:07:07.869059
576  2023-12-01 12:07:07.901412
577  2023-12-01 12:07:07.933391
578  2023-12-01 12:07:07.966405
579  2023-12-01 12:07:07.997038
580  2023-12-01 12:07:08.029355
581  2023-12-01 12:07:08.076516
582  2023-12-01 12:07:08.108691
583  2023-12-01 12:07:08.140444
584  2023-12-01 12:07:08.173199
585  2023-12-01 12:07:08.205145
586  2023-12-01 12:07:08.237440
587  2023-12-01 12:07:08.269400
588  2023-12-01 12:07:08.302169
589  2023-12-01 12:07:08.332906
590  2023-12-01 12:07:08.365304
591  2023-12-01 12:07:08.397179
592  2023-12-01 12:07:08.429362
593  2023-12-01 12:07:08.477518
594  2023-12-01 12:07:08.508758
595  2023-12-01 12:07:08.541245
596  2023-12-01 12:07:08.573048
597  2023-12-01 12:07:08.605059
598  2023-12-01 12:07:08.637085
599  2023-12-01 12:07:08.668624
600  2023-12-01 12:07:08.701744
601  2023-12-01 12:07:08.733862
602  2023-12-01 12:07:08.765043
603  2023-12-01 12:07:08.797046
604  2023-12-01 12:07:08.829925
605  2023-12-01 12:07:08.876849
606  2023-12-01 12:07:08.908691
607  2023-12-01 12:07:08.940811
608  2023-12-01 12:07:08.973520
609  2023-12-01 12:07:09.006180
610  2023-12-01 12:07:09.036894
611  2023-12-01 12:07:09.069763
612  2023-12-01 12:07:09.101669
613  2023-12-01 12:07:09.132811
614  2023-12-01 12:07:09.164750
615  2023-12-01 12:07:09.196974
616  2023-12-01 12:07:09.230561
617  2023-12-01 12:07:09.277441
618  2023-12-01 12:07:09.309442
619  2023-12-01 12:07:09.341441
620  2023-12-01 12:07:09.373098
621  2023-12-01 12:07:09.405884
622  2023-12-01 12:07:09.436684
623  2023-12-01 12:07:09.469965
624  2023-12-01 12:07:09.501505
625  2023-12-01 12:07:09.533543
626  2023-12-01 12:07:09.564259
627  2023-12-01 12:07:09.598300
628  2023-12-01 12:07:09.629658
629  2023-12-01 12:07:09.676722
630  2023-12-01 12:07:09.708555
631  2023-12-01 12:07:09.741421
632  2023-12-01 12:07:09.773464
633  2023-12-01 12:07:09.805499
634  2023-12-01 12:07:09.837514
635  2023-12-01 12:07:09.870401
636  2023-12-01 12:07:09.900929
637  2023-12-01 12:07:09.933481
638  2023-12-01 12:07:09.964599
639  2023-12-01 12:07:09.997584
640  2023-12-01 12:07:10.028505
641  2023-12-01 12:07:10.077063
642  2023-12-01 12:07:10.109427
643  2023-12-01 12:07:10.141613
644  2023-12-01 12:07:10.173630
645  2023-12-01 12:07:10.204291
646  2023-12-01 12:07:10.237099
647  2023-12-01 12:07:10.269272
648  2023-12-01 12:07:10.301518
649  2023-12-01 12:07:10.333594
650  2023-12-01 12:07:10.366255
651  2023-12-01 12:07:10.398166
652  2023-12-01 12:07:10.429342
653  2023-12-01 12:07:10.477471
654  2023-12-01 12:07:10.509315
655  2023-12-01 12:07:10.541456
656  2023-12-01 12:07:10.572639
657  2023-12-01 12:07:10.604240
658  2023-12-01 12:07:10.637350
659  2023-12-01 12:07:10.670354
660  2023-12-01 12:07:10.701397
661  2023-12-01 12:07:10.733299
662  2023-12-01 12:07:10.764215
663  2023-12-01 12:07:10.797080
664  2023-12-01 12:07:10.829794
665  2023-12-01 12:07:10.877522
666  2023-12-01 12:07:10.909394
667  2023-12-01 12:07:10.940712
668  2023-12-01 12:07:10.973714
669  2023-12-01 12:07:11.004857
670  2023-12-01 12:07:11.036968
671  2023-12-01 12:07:11.069259
672  2023-12-01 12:07:11.102583
673  2023-12-01 12:07:11.133509
674  2023-12-01 12:07:11.165052
675  2023-12-01 12:07:11.197047
676  2023-12-01 12:07:11.228972
677  2023-12-01 12:07:11.276959
678  2023-12-01 12:07:11.308392
679  2023-12-01 12:07:11.340747
680  2023-12-01 12:07:11.373487
681  2023-12-01 12:07:11.405336
682  2023-12-01 12:07:11.437537
683  2023-12-01 12:07:11.470527
684  2023-12-01 12:07:11.501505
685  2023-12-01 12:07:11.532478
686  2023-12-01 12:07:11.565819
687  2023-12-01 12:07:11.597061
688  2023-12-01 12:07:11.629655
689  2023-12-01 12:07:11.677622
690  2023-12-01 12:07:11.709411
691  2023-12-01 12:07:11.740469
692  2023-12-01 12:07:11.772516
693  2023-12-01 12:07:11.805807
694  2023-12-01 12:07:11.836845
695  2023-12-01 12:07:11.869118
696  2023-12-01 12:07:11.901468
697  2023-12-01 12:07:11.933912
698  2023-12-01 12:07:11.964815
699  2023-12-01 12:07:11.996748
700  2023-12-01 12:07:12.029698
701  2023-12-01 12:07:12.076672
702  2023-12-01 12:07:12.110441
703  2023-12-01 12:07:12.141166
704  2023-12-01 12:07:12.173506
705  2023-12-01 12:07:12.204453
706  2023-12-01 12:07:12.237667
707  2023-12-01 12:07:12.269100
708  2023-12-01 12:07:12.301510
709  2023-12-01 12:07:12.333513
710  2023-12-01 12:07:12.364999
711  2023-12-01 12:07:12.397174
712  2023-12-01 12:07:12.429636
713  2023-12-01 12:07:12.477446
714  2023-12-01 12:07:12.509658
715  2023-12-01 12:07:12.541515
716  2023-12-01 12:07:12.572511
717  2023-12-01 12:07:12.605598
718  2023-12-01 12:07:12.637444
719  2023-12-01 12:07:12.669243
720  2023-12-01 12:07:12.701065
721  2023-12-01 12:07:12.732845
722  2023-12-01 12:07:12.765469
723  2023-12-01 12:07:12.797614
724  2023-12-01 12:07:12.829583
725  2023-12-01 12:07:12.877481
726  2023-12-01 12:07:12.908483
727  2023-12-01 12:07:12.940667
728  2023-12-01 12:07:12.972797
729  2023-12-01 12:07:13.005411
730  2023-12-01 12:07:13.037395
731  2023-12-01 12:07:13.069408
732  2023-12-01 12:07:13.101396
733  2023-12-01 12:07:13.133058
734  2023-12-01 12:07:13.165470
735  2023-12-01 12:07:13.197124
736  2023-12-01 12:07:13.228720
737  2023-12-01 12:07:13.278467
738  2023-12-01 12:07:13.309353
739  2023-12-01 12:07:13.340489
740  2023-12-01 12:07:13.373298
741  2023-12-01 12:07:13.405177
742  2023-12-01 12:07:13.436667
743  2023-12-01 12:07:13.468595
744  2023-12-01 12:07:13.501648
745  2023-12-01 12:07:13.533507
746  2023-12-01 12:07:13.565444
747  2023-12-01 12:07:13.597303
748  2023-12-01 12:07:13.628859
749  2023-12-01 12:07:13.676922
750  2023-12-01 12:07:13.709481
751  2023-12-01 12:07:13.741270
752  2023-12-01 12:07:13.773253
753  2023-12-01 12:07:13.805520
754  2023-12-01 12:07:13.837609
755  2023-12-01 12:07:13.868490
756  2023-12-01 12:07:13.900480
757  2023-12-01 12:07:13.933503
758  2023-12-01 12:07:13.965505
759  2023-12-01 12:07:13.996469
760  2023-12-01 12:07:14.029197
761  2023-12-01 12:07:14.076851
762  2023-12-01 12:07:14.109771
763  2023-12-01 12:07:14.141158
764  2023-12-01 12:07:14.173512
765  2023-12-01 12:07:14.204495
766  2023-12-01 12:07:14.237131
767  2023-12-01 12:07:14.269019
768  2023-12-01 12:07:14.301732
769  2023-12-01 12:07:14.332645
770  2023-12-01 12:07:14.364495
771  2023-12-01 12:07:14.397395
772  2023-12-01 12:07:14.429852
773  2023-12-01 12:07:14.477358
774  2023-12-01 12:07:14.508613
775  2023-12-01 12:07:14.540621
776  2023-12-01 12:07:14.572523
777  2023-12-01 12:07:14.604533
778  2023-12-01 12:07:14.637360
779  2023-12-01 12:07:14.669483
780  2023-12-01 12:07:14.701481
781  2023-12-01 12:07:14.732599
782  2023-12-01 12:07:14.765515
783  2023-12-01 12:07:14.796425
784  2023-12-01 12:07:14.829337
785  2023-12-01 12:07:14.876458
786  2023-12-01 12:07:14.908994
787  2023-12-01 12:07:14.941438
788  2023-12-01 12:07:14.973500
789  2023-12-01 12:07:15.005496
790  2023-12-01 12:07:15.037512
791  2023-12-01 12:07:15.068318
792  2023-12-01 12:07:15.101167
793  2023-12-01 12:07:15.133514
794  2023-12-01 12:07:15.165853
795  2023-12-01 12:07:15.197281
796  2023-12-01 12:07:15.228952
797  2023-12-01 12:07:15.277354
798  2023-12-01 12:07:15.308855
799  2023-12-01 12:07:15.341488
800  2023-12-01 12:07:15.372135
801  2023-12-01 12:07:15.405496
802  2023-12-01 12:07:15.437610
803  2023-12-01 12:07:15.469412
804  2023-12-01 12:07:15.501756
805  2023-12-01 12:07:15.533266
806  2023-12-01 12:07:15.565493
807  2023-12-01 12:07:15.596472
808  2023-12-01 12:07:15.628187
809  2023-12-01 12:07:15.677432
810  2023-12-01 12:07:15.709114
811  2023-12-01 12:07:15.741467
812  2023-12-01 12:07:15.773582
813  2023-12-01 12:07:15.805509
814  2023-12-01 12:07:15.837514
815  2023-12-01 12:07:15.869506
816  2023-12-01 12:07:15.901348
817  2023-12-01 12:07:15.933497
818  2023-12-01 12:07:15.965514
819  2023-12-01 12:07:15.997029
820  2023-12-01 12:07:16.029193
821  2023-12-01 12:07:16.077120
822  2023-12-01 12:07:16.108999
823  2023-12-01 12:07:16.140780
824  2023-12-01 12:07:16.173172
825  2023-12-01 12:07:16.204510
826  2023-12-01 12:07:16.237315
827  2023-12-01 12:07:16.268594
828  2023-12-01 12:07:16.301520
829  2023-12-01 12:07:16.333517
830  2023-12-01 12:07:16.365195
831  2023-12-01 12:07:16.397437
832  2023-12-01 12:07:16.429557
833  2023-12-01 12:07:16.476459
834  2023-12-01 12:07:16.508978
835  2023-12-01 12:07:16.540496
836  2023-12-01 12:07:16.572500
837  2023-12-01 12:07:16.604486
838  2023-12-01 12:07:16.636982
839  2023-12-01 12:07:16.668643
840  2023-12-01 12:07:16.701194
841  2023-12-01 12:07:16.733179
842  2023-12-01 12:07:16.764373
843  2023-12-01 12:07:16.797264
844  2023-12-01 12:07:16.829802
845  2023-12-01 12:07:16.876615
846  2023-12-01 12:07:16.909477
847  2023-12-01 12:07:16.941170
848  2023-12-01 12:07:16.973507
849  2023-12-01 12:07:17.004901
850  2023-12-01 12:07:17.037514
851  2023-12-01 12:07:17.068730
852  2023-12-01 12:07:17.102147
853  2023-12-01 12:07:17.133540
854  2023-12-01 12:07:17.165148
855  2023-12-01 12:07:17.197480
856  2023-12-01 12:07:17.229395
857  2023-12-01 12:07:17.277287
858  2023-12-01 12:07:17.308614
859  2023-12-01 12:07:17.341268
860  2023-12-01 12:07:17.373497
861  2023-12-01 12:07:17.405528
862  2023-12-01 12:07:17.438015
863  2023-12-01 12:07:17.469508
864  2023-12-01 12:07:17.501350
865  2023-12-01 12:07:17.532740
866  2023-12-01 12:07:17.565541
867  2023-12-01 12:07:17.597640
868  2023-12-01 12:07:17.628517
869  2023-12-01 12:07:17.676612
870  2023-12-01 12:07:17.708987
871  2023-12-01 12:07:17.740621
872  2023-12-01 12:07:17.772623
873  2023-12-01 12:07:17.804724
874  2023-12-01 12:07:17.836435
875  2023-12-01 12:07:17.869480
876  2023-12-01 12:07:17.900747
877  2023-12-01 12:07:17.933037
878  2023-12-01 12:07:17.965449
879  2023-12-01 12:07:17.997236
880  2023-12-01 12:07:18.029490
881  2023-12-01 12:07:18.076505
882  2023-12-01 12:07:18.108682
883  2023-12-01 12:07:18.141445
884  2023-12-01 12:07:18.173619
885  2023-12-01 12:07:18.205378
886  2023-12-01 12:07:18.237321
887  2023-12-01 12:07:18.269261
888  2023-12-01 12:07:18.301344
889  2023-12-01 12:07:18.332748
890  2023-12-01 12:07:18.365136
891  2023-12-01 12:07:18.397189
892  2023-12-01 12:07:18.429444
893  2023-12-01 12:07:18.476755
894  2023-12-01 12:07:18.508476
895  2023-12-01 12:07:18.541648
896  2023-12-01 12:07:18.573484
897  2023-12-01 12:07:18.605511
898  2023-12-01 12:07:18.637504
899  2023-12-01 12:07:18.669176
900  2023-12-01 12:07:18.701171
901  2023-12-01 12:07:18.733725
902  2023-12-01 12:07:18.766263
903  2023-12-01 12:07:18.797337
904  2023-12-01 12:07:18.829178
905  2023-12-01 12:07:18.876652
906  2023-12-01 12:07:18.908566
907  2023-12-01 12:07:18.940683
908  2023-12-01 12:07:18.972976
909  2023-12-01 12:07:19.004930
910  2023-12-01 12:07:19.037508
911  2023-12-01 12:07:19.069006
912  2023-12-01 12:07:19.101514
913  2023-12-01 12:07:19.133441
914  2023-12-01 12:07:19.165172
915  2023-12-01 12:07:19.197749
916  2023-12-01 12:07:19.229889
917  2023-12-01 12:07:19.276567
918  2023-12-01 12:07:19.308998
919  2023-12-01 12:07:19.341476
920  2023-12-01 12:07:19.373107
921  2023-12-01 12:07:19.405661
922  2023-12-01 12:07:19.436754
923  2023-12-01 12:07:19.468458
924  2023-12-01 12:07:19.500747
925  2023-12-01 12:07:19.533448
926  2023-12-01 12:07:19.565529
927  2023-12-01 12:07:19.597424
928  2023-12-01 12:07:19.629513
929  2023-12-01 12:07:19.676455
930  2023-12-01 12:07:19.709063
931  2023-12-01 12:07:19.740456
932  2023-12-01 12:07:19.773437
933  2023-12-01 12:07:19.804596
934  2023-12-01 12:07:19.837514
935  2023-12-01 12:07:19.869509
936  2023-12-01 12:07:19.900499
937  2023-12-01 12:07:19.933504
938  2023-12-01 12:07:19.965252
939  2023-12-01 12:07:19.996904
940  2023-12-01 12:07:20.028550
941  2023-12-01 12:07:20.077370
942  2023-12-01 12:07:20.109450
943  2023-12-01 12:07:20.141307
944  2023-12-01 12:07:20.173002
945  2023-12-01 12:07:20.205149
946  2023-12-01 12:07:20.237145
947  2023-12-01 12:07:20.269527
948  2023-12-01 12:07:20.301288
949  2023-12-01 12:07:20.333409
950  2023-12-01 12:07:20.365516
951  2023-12-01 12:07:20.397364
952  2023-12-01 12:07:20.429485
953  2023-12-01 12:07:20.477483
954  2023-12-01 12:07:20.508487
955  2023-12-01 12:07:20.541070
956  2023-12-01 12:07:20.573343
957  2023-12-01 12:07:20.605560
958  2023-12-01 12:07:20.637510
959  2023-12-01 12:07:20.668894
960  2023-12-01 12:07:20.701551
961  2023-12-01 12:07:20.733594
962  2023-12-01 12:07:20.765596
963  2023-12-01 12:07:20.797537
964  2023-12-01 12:07:20.829205
965  2023-12-01 12:07:20.877356
966  2023-12-01 12:07:20.909077
967  2023-12-01 12:07:20.941661
968  2023-12-01 12:07:20.974224
969  2023-12-01 12:07:21.006297
970  2023-12-01 12:07:21.036230
971  2023-12-01 12:07:21.068984
972  2023-12-01 12:07:21.101054
973  2023-12-01 12:07:21.133637
974  2023-12-01 12:07:21.165518
975  2023-12-01 12:07:21.196243
976  2023-12-01 12:07:21.229783
977  2023-12-01 12:07:21.276451
978  2023-12-01 12:07:21.309058
979  2023-12-01 12:07:21.340612
980  2023-12-01 12:07:21.373487
981  2023-12-01 12:07:21.405561
982  2023-12-01 12:07:21.437508
983  2023-12-01 12:07:21.469312
984  2023-12-01 12:07:21.501587
985  2023-12-01 12:07:21.533064
986  2023-12-01 12:07:21.565047
987  2023-12-01 12:07:21.596494
988  2023-12-01 12:07:21.628984
989  2023-12-01 12:07:21.676506
990  2023-12-01 12:07:21.709040
991  2023-12-01 12:07:21.741447
992  2023-12-01 12:07:21.773551
993  2023-12-01 12:07:21.805510
994  2023-12-01 12:07:21.837971
995  2023-12-01 12:07:21.869490
996  2023-12-01 12:07:21.900737
997  2023-12-01 12:07:21.933557
998  2023-12-01 12:07:21.965666
999  2023-12-01 12:07:21.996711
1000  2023-12-01 12:07:22.029496
1001  2023-12-01 12:07:22.077329
1002  2023-12-01 12:07:22.108484
1003  2023-12-01 12:07:22.141079
1004  2023-12-01 12:07:22.173656
1005  2023-12-01 12:07:22.205508
1006  2023-12-01 12:07:22.237522
1007  2023-12-01 12:07:22.268694
1008  2023-12-01 12:07:22.301516
1009  2023-12-01 12:07:22.333508
1010  2023-12-01 12:07:22.365522
1011  2023-12-01 12:07:22.397814
1012  2023-12-01 12:07:22.429499
1013  2023-12-01 12:07:22.477624
1014  2023-12-01 12:07:22.509341
1015  2023-12-01 12:07:22.541496
1016  2023-12-01 12:07:22.573518
1017  2023-12-01 12:07:22.606422
1018  2023-12-01 12:07:22.637595
1019  2023-12-01 12:07:22.668750
1020  2023-12-01 12:07:22.700626
1021  2023-12-01 12:07:22.733057
1022  2023-12-01 12:07:22.764485
1023  2023-12-01 12:07:22.797305
1024  2023-12-01 12:07:22.829401
1025  2023-12-01 12:07:22.876906
1026  2023-12-01 12:07:22.909173
1027  2023-12-01 12:07:22.941029
1028  2023-12-01 12:07:22.973524
1029  2023-12-01 12:07:23.005504
1030  2023-12-01 12:07:23.038073
1031  2023-12-01 12:07:23.069389
1032  2023-12-01 12:07:23.101282
1033  2023-12-01 12:07:23.133216
1034  2023-12-01 12:07:23.165138
1035  2023-12-01 12:07:23.196655
1036  2023-12-01 12:07:23.228162
1037  2023-12-01 12:07:23.276468
1038  2023-12-01 12:07:23.308676
1039  2023-12-01 12:07:23.341480
1040  2023-12-01 12:07:23.373518
1041  2023-12-01 12:07:23.405514
1042  2023-12-01 12:07:23.438482
1043  2023-12-01 12:07:23.469288
1044  2023-12-01 12:07:23.501538
1045  2023-12-01 12:07:23.533523
1046  2023-12-01 12:07:23.565949
1047  2023-12-01 12:07:23.597341
1048  2023-12-01 12:07:23.628911
1049  2023-12-01 12:07:23.677772
1050  2023-12-01 12:07:23.709145
1051  2023-12-01 12:07:23.740633
1052  2023-12-01 12:07:23.773068
1053  2023-12-01 12:07:23.805522
1054  2023-12-01 12:07:23.837513
1055  2023-12-01 12:07:23.869370
1056  2023-12-01 12:07:23.900869
1057  2023-12-01 12:07:23.932413
1058  2023-12-01 12:07:23.965470
1059  2023-12-01 12:07:23.997991
1060  2023-12-01 12:07:24.029514
1061  2023-12-01 12:07:24.077462
1062  2023-12-01 12:07:24.108781
1063  2023-12-01 12:07:24.141444
1064  2023-12-01 12:07:24.173518
1065  2023-12-01 12:07:24.205520
1066  2023-12-01 12:07:24.237434
1067  2023-12-01 12:07:24.269264
1068  2023-12-01 12:07:24.300769
1069  2023-12-01 12:07:24.333156
1070  2023-12-01 12:07:24.364540
1071  2023-12-01 12:07:24.397398
1072  2023-12-01 12:07:24.429570
1073  2023-12-01 12:07:24.477455
1074  2023-12-01 12:07:24.509164
1075  2023-12-01 12:07:24.541479
1076  2023-12-01 12:07:24.573500
1077  2023-12-01 12:07:24.605514
1078  2023-12-01 12:07:24.637748
1079  2023-12-01 12:07:24.669296
1080  2023-12-01 12:07:24.701520
1081  2023-12-01 12:07:24.733152
1082  2023-12-01 12:07:24.765516
1083  2023-12-01 12:07:24.797476
1084  2023-12-01 12:07:24.828262
1085  2023-12-01 12:07:24.877288
1086  2023-12-01 12:07:24.908373
1087  2023-12-01 12:07:24.941497
1088  2023-12-01 12:07:24.973521
1089  2023-12-01 12:07:25.005488
1090  2023-12-01 12:07:25.037488
1091  2023-12-01 12:07:25.068616
1092  2023-12-01 12:07:25.101430
1093  2023-12-01 12:07:25.133512
1094  2023-12-01 12:07:25.165552
1095  2023-12-01 12:07:25.196708
1096  2023-12-01 12:07:25.230066
1097  2023-12-01 12:07:25.277457
1098  2023-12-01 12:07:25.308915
1099  2023-12-01 12:07:25.341202
1100  2023-12-01 12:07:25.372191
1101  2023-12-01 12:07:25.405376
1102  2023-12-01 12:07:25.437539
1103  2023-12-01 12:07:25.468513
1104  2023-12-01 12:07:25.501542
1105  2023-12-01 12:07:25.532491
1106  2023-12-01 12:07:25.564508
1107  2023-12-01 12:07:25.597695
1108  2023-12-01 12:07:25.630196
1109  2023-12-01 12:07:25.676866
1110  2023-12-01 12:07:25.709153
1111  2023-12-01 12:07:25.740559
1112  2023-12-01 12:07:25.773210
1113  2023-12-01 12:07:25.805234
1114  2023-12-01 12:07:25.837388
1115  2023-12-01 12:07:25.868479
1116  2023-12-01 12:07:25.900460
1117  2023-12-01 12:07:25.932518
1118  2023-12-01 12:07:25.965158
1119  2023-12-01 12:07:25.997418
1120  2023-12-01 12:07:26.029513
1121  2023-12-01 12:07:26.077131
1122  2023-12-01 12:07:26.109038
1123  2023-12-01 12:07:26.141478
1124  2023-12-01 12:07:26.173532
1125  2023-12-01 12:07:26.204956
1126  2023-12-01 12:07:26.237018
1127  2023-12-01 12:07:26.269781
1128  2023-12-01 12:07:26.301110
1129  2023-12-01 12:07:26.333185
1130  2023-12-01 12:07:26.365711
1131  2023-12-01 12:07:26.397063
1132  2023-12-01 12:07:26.429519
1133  2023-12-01 12:07:26.476460
1134  2023-12-01 12:07:26.508465
1135  2023-12-01 12:07:26.540720
1136  2023-12-01 12:07:26.573533
1137  2023-12-01 12:07:26.605518
1138  2023-12-01 12:07:26.637690
1139  2023-12-01 12:07:26.669521
1140  2023-12-01 12:07:26.701444
1141  2023-12-01 12:07:26.733503
1142  2023-12-01 12:07:26.765191
1143  2023-12-01 12:07:26.797867
1144  2023-12-01 12:07:26.828869
1145  2023-12-01 12:07:26.877516
1146  2023-12-01 12:07:26.909191
1147  2023-12-01 12:07:26.940388
1148  2023-12-01 12:07:26.973519
1149  2023-12-01 12:07:27.005536
1150  2023-12-01 12:07:27.036540
1151  2023-12-01 12:07:27.068361
1152  2023-12-01 12:07:27.100764
1153  2023-12-01 12:07:27.132327
1154  2023-12-01 12:07:27.165307
1155  2023-12-01 12:07:27.197557
1156  2023-12-01 12:07:27.230251
1157  2023-12-01 12:07:27.276901
1158  2023-12-01 12:07:27.309000
1159  2023-12-01 12:07:27.341494
1160  2023-12-01 12:07:27.373531
1161  2023-12-01 12:07:27.404795
1162  2023-12-01 12:07:27.437659
1163  2023-12-01 12:07:27.469606
1164  2023-12-01 12:07:27.501481
1165  2023-12-01 12:07:27.532499
1166  2023-12-01 12:07:27.564430
1167  2023-12-01 12:07:27.596529
1168  2023-12-01 12:07:27.629521
1169  2023-12-01 12:07:27.676512
1170  2023-12-01 12:07:27.709217
1171  2023-12-01 12:07:27.741494
1172  2023-12-01 12:07:27.772595
1173  2023-12-01 12:07:27.805522
1174  2023-12-01 12:07:27.837352
1175  2023-12-01 12:07:27.869497
1176  2023-12-01 12:07:27.901137
1177  2023-12-01 12:07:27.932602
1178  2023-12-01 12:07:27.965254
1179  2023-12-01 12:07:27.997248
1180  2023-12-01 12:07:28.029101
1181  2023-12-01 12:07:28.076541
1182  2023-12-01 12:07:28.108747
1183  2023-12-01 12:07:28.140558
1184  2023-12-01 12:07:28.173537
1185  2023-12-01 12:07:28.204444
1186  2023-12-01 12:07:28.237574
1187  2023-12-01 12:07:28.269512
1188  2023-12-01 12:07:28.301609
1189  2023-12-01 12:07:28.333440
1190  2023-12-01 12:07:28.365508
1191  2023-12-01 12:07:28.397547
1192  2023-12-01 12:07:28.429761
1193  2023-12-01 12:07:28.477622
1194  2023-12-01 12:07:28.509242
1195  2023-12-01 12:07:28.541295
1196  2023-12-01 12:07:28.573645
1197  2023-12-01 12:07:28.604371
1198  2023-12-01 12:07:28.636896
1199  2023-12-01 12:07:28.669124
1200  2023-12-01 12:07:28.701367
1201  2023-12-01 12:07:28.732989
1202  2023-12-01 12:07:28.764627
1203  2023-12-01 12:07:28.796644
1204  2023-12-01 12:07:28.829678
1205  2023-12-01 12:07:28.877505
1206  2023-12-01 12:07:28.909292
1207  2023-12-01 12:07:28.940506
1208  2023-12-01 12:07:28.973642
1209  2023-12-01 12:07:29.005523
1210  2023-12-01 12:07:29.037477
1211  2023-12-01 12:07:29.068680
1212  2023-12-01 12:07:29.100492
1213  2023-12-01 12:07:29.133188
1214  2023-12-01 12:07:29.164494
1215  2023-12-01 12:07:29.196395
1216  2023-12-01 12:07:29.228659
1217  2023-12-01 12:07:29.277227
1218  2023-12-01 12:07:29.308871
1219  2023-12-01 12:07:29.341860
1220  2023-12-01 12:07:29.373072
1221  2023-12-01 12:07:29.404762
1222  2023-12-01 12:07:29.437768
1223  2023-12-01 12:07:29.469537
1224  2023-12-01 12:07:29.501457
1225  2023-12-01 12:07:29.533466
1226  2023-12-01 12:07:29.565409
1227  2023-12-01 12:07:29.596571
1228  2023-12-01 12:07:29.629487
1229  2023-12-01 12:07:29.677469
1230  2023-12-01 12:07:29.708581
1231  2023-12-01 12:07:29.740382
1232  2023-12-01 12:07:29.773015
1233  2023-12-01 12:07:29.805521
1234  2023-12-01 12:07:29.837279
1235  2023-12-01 12:07:29.869913
1236  2023-12-01 12:07:29.901379
1237  2023-12-01 12:07:29.932469
1238  2023-12-01 12:07:29.965155
1239  2023-12-01 12:07:29.997310
1240  2023-12-01 12:07:30.029080
1241  2023-12-01 12:07:30.077311
1242  2023-12-01 12:07:30.109092
1243  2023-12-01 12:07:30.141529
1244  2023-12-01 12:07:30.172722
1245  2023-12-01 12:07:30.205526
1246  2023-12-01 12:07:30.237996
1247  2023-12-01 12:07:30.269568
1248  2023-12-01 12:07:30.300979
1249  2023-12-01 12:07:30.333152
1250  2023-12-01 12:07:30.365488
1251  2023-12-01 12:07:30.397789
1252  2023-12-01 12:07:30.429513
1253  2023-12-01 12:07:30.477314
1254  2023-12-01 12:07:30.509185
1255  2023-12-01 12:07:30.541542
1256  2023-12-01 12:07:30.573517
1257  2023-12-01 12:07:30.605714
1258  2023-12-01 12:07:30.637141
1259  2023-12-01 12:07:30.669508
1260  2023-12-01 12:07:30.701489
1261  2023-12-01 12:07:30.733521
1262  2023-12-01 12:07:30.765783
1263  2023-12-01 12:07:30.797636
1264  2023-12-01 12:07:30.828729
1265  2023-12-01 12:07:30.876869
1266  2023-12-01 12:07:30.908329
1267  2023-12-01 12:07:30.941497
1268  2023-12-01 12:07:30.972514
1269  2023-12-01 12:07:31.005124
1270  2023-12-01 12:07:31.037215
1271  2023-12-01 12:07:31.069917
1272  2023-12-01 12:07:31.101171
1273  2023-12-01 12:07:31.133491
1274  2023-12-01 12:07:31.165857
1275  2023-12-01 12:07:31.197510
1276  2023-12-01 12:07:31.229727
1277  2023-12-01 12:07:31.277489
1278  2023-12-01 12:07:31.309277
1279  2023-12-01 12:07:31.341761
1280  2023-12-01 12:07:31.373010
1281  2023-12-01 12:07:31.404929
1282  2023-12-01 12:07:31.436691
1283  2023-12-01 12:07:31.469697
1284  2023-12-01 12:07:31.501916
1285  2023-12-01 12:07:31.533425
1286  2023-12-01 12:07:31.564894
1287  2023-12-01 12:07:31.597608
1288  2023-12-01 12:07:31.629740
1289  2023-12-01 12:07:31.677489
1290  2023-12-01 12:07:31.709711
1291  2023-12-01 12:07:31.741408
1292  2023-12-01 12:07:31.773495
1293  2023-12-01 12:07:31.805440
1294  2023-12-01 12:07:31.836494
1295  2023-12-01 12:07:31.869327
1296  2023-12-01 12:07:31.901231
1297  2023-12-01 12:07:31.932631
1298  2023-12-01 12:07:31.965106
1299  2023-12-01 12:07:31.996567
1300  2023-12-01 12:07:32.028698
1301  2023-12-01 12:07:32.076937
1302  2023-12-01 12:07:32.109241
1303  2023-12-01 12:07:32.141346
1304  2023-12-01 12:07:32.173513
1305  2023-12-01 12:07:32.204497
1306  2023-12-01 12:07:32.237503
1307  2023-12-01 12:07:32.269476
1308  2023-12-01 12:07:32.300484
1309  2023-12-01 12:07:32.332701
1310  2023-12-01 12:07:32.364510
1311  2023-12-01 12:07:32.397280
1312  2023-12-01 12:07:32.428511
1313  2023-12-01 12:07:32.476777
1314  2023-12-01 12:07:32.508654
1315  2023-12-01 12:07:32.540565
1316  2023-12-01 12:07:32.573882
1317  2023-12-01 12:07:32.605554
1318  2023-12-01 12:07:32.637561
1319  2023-12-01 12:07:32.669553
1320  2023-12-01 12:07:32.701770
1321  2023-12-01 12:07:32.733536
1322  2023-12-01 12:07:32.765229
1323  2023-12-01 12:07:32.797396
1324  2023-12-01 12:07:32.829597
1325  2023-12-01 12:07:32.877136
1326  2023-12-01 12:07:32.909343
1327  2023-12-01 12:07:32.941514
1328  2023-12-01 12:07:32.973188
1329  2023-12-01 12:07:33.005533
1330  2023-12-01 12:07:33.037566
1331  2023-12-01 12:07:33.069017
1332  2023-12-01 12:07:33.101151
1333  2023-12-01 12:07:33.133167
1334  2023-12-01 12:07:33.165674
1335  2023-12-01 12:07:33.197520
1336  2023-12-01 12:07:33.230125
1337  2023-12-01 12:07:33.277990
1338  2023-12-01 12:07:33.310451
1339  2023-12-01 12:07:33.341277
1340  2023-12-01 12:07:33.373538
1341  2023-12-01 12:07:33.404504
1342  2023-12-01 12:07:33.437499
1343  2023-12-01 12:07:33.469542
1344  2023-12-01 12:07:33.501530
1345  2023-12-01 12:07:33.532715
1346  2023-12-01 12:07:33.565538
1347  2023-12-01 12:07:33.597479
1348  2023-12-01 12:07:33.629172
1349  2023-12-01 12:07:33.677529
1350  2023-12-01 12:07:33.709749
1351  2023-12-01 12:07:33.741160
1352  2023-12-01 12:07:33.773743
1353  2023-12-01 12:07:33.805354
1354  2023-12-01 12:07:33.836957
1355  2023-12-01 12:07:33.869528
1356  2023-12-01 12:07:33.901201
1357  2023-12-01 12:07:33.933549
1358  2023-12-01 12:07:33.964766
1359  2023-12-01 12:07:33.997738
1360  2023-12-01 12:07:34.028669
1361  2023-12-01 12:07:34.077428
1362  2023-12-01 12:07:34.109388
1363  2023-12-01 12:07:34.141537
1364  2023-12-01 12:07:34.172447
1365  2023-12-01 12:07:34.204567
1366  2023-12-01 12:07:34.237519
1367  2023-12-01 12:07:34.269524
1368  2023-12-01 12:07:34.302504
1369  2023-12-01 12:07:34.333740
1370  2023-12-01 12:07:34.365520
1371  2023-12-01 12:07:34.397463
1372  2023-12-01 12:07:34.429454
1373  2023-12-01 12:07:34.478011
1374  2023-12-01 12:07:34.509391
1375  2023-12-01 12:07:34.541541
1376  2023-12-01 12:07:34.573108
1377  2023-12-01 12:07:34.605495
1378  2023-12-01 12:07:34.637528
1379  2023-12-01 12:07:34.669527
1380  2023-12-01 12:07:34.701168
1381  2023-12-01 12:07:34.732245
1382  2023-12-01 12:07:34.764711
1383  2023-12-01 12:07:34.797163
1384  2023-12-01 12:07:34.829523
1385  2023-12-01 12:07:34.877490
1386  2023-12-01 12:07:34.909255
1387  2023-12-01 12:07:34.941950
1388  2023-12-01 12:07:34.974623
1389  2023-12-01 12:07:35.005534
1390  2023-12-01 12:07:35.037158
1391  2023-12-01 12:07:35.068983
1392  2023-12-01 12:07:35.101540
1393  2023-12-01 12:07:35.133679
1394  2023-12-01 12:07:35.165202
1395  2023-12-01 12:07:35.197577
1396  2023-12-01 12:07:35.228470
1397  2023-12-01 12:07:35.277436
1398  2023-12-01 12:07:35.309392
1399  2023-12-01 12:07:35.341539
1400  2023-12-01 12:07:35.373539
1401  2023-12-01 12:07:35.405557
1402  2023-12-01 12:07:35.437721
1403  2023-12-01 12:07:35.469771
1404  2023-12-01 12:07:35.501535
1405  2023-12-01 12:07:35.533518
1406  2023-12-01 12:07:35.565556
1407  2023-12-01 12:07:35.597508
1408  2023-12-01 12:07:35.629763
1409  2023-12-01 12:07:35.677352
1410  2023-12-01 12:07:35.709342
1411  2023-12-01 12:07:35.741150
1412  2023-12-01 12:07:35.772214
1413  2023-12-01 12:07:35.805451
1414  2023-12-01 12:07:35.837520
1415  2023-12-01 12:07:35.869076
1416  2023-12-01 12:07:35.901546
1417  2023-12-01 12:07:35.933534
1418  2023-12-01 12:07:35.965531
1419  2023-12-01 12:07:35.997345
1420  2023-12-01 12:07:36.029409
1421  2023-12-01 12:07:36.077092
1422  2023-12-01 12:07:36.108838
1423  2023-12-01 12:07:36.141591
1424  2023-12-01 12:07:36.173479
1425  2023-12-01 12:07:36.205304
1426  2023-12-01 12:07:36.237074
1427  2023-12-01 12:07:36.269629
1428  2023-12-01 12:07:36.301034
1429  2023-12-01 12:07:36.333202
1430  2023-12-01 12:07:36.365218
1431  2023-12-01 12:07:36.397272
1432  2023-12-01 12:07:36.429491
1433  2023-12-01 12:07:36.477528
1434  2023-12-01 12:07:36.509399
1435  2023-12-01 12:07:36.541532
1436  2023-12-01 12:07:36.573655
1437  2023-12-01 12:07:36.605538
1438  2023-12-01 12:07:36.637589
1439  2023-12-01 12:07:36.669724
1440  2023-12-01 12:07:36.701079
1441  2023-12-01 12:07:36.733303
1442  2023-12-01 12:07:36.765601
1443  2023-12-01 12:07:36.797310
1444  2023-12-01 12:07:36.828391
1445  2023-12-01 12:07:36.877353
1446  2023-12-01 12:07:36.909044
1447  2023-12-01 12:07:36.940555
1448  2023-12-01 12:07:36.973535
1449  2023-12-01 12:07:37.005568
1450  2023-12-01 12:07:37.036634
1451  2023-12-01 12:07:37.068577
1452  2023-12-01 12:07:37.100503
1453  2023-12-01 12:07:37.132407
1454  2023-12-01 12:07:37.164814
1455  2023-12-01 12:07:37.196728
1456  2023-12-01 12:07:37.228642
1457  2023-12-01 12:07:37.277288
1458  2023-12-01 12:07:37.309417
1459  2023-12-01 12:07:37.341555
1460  2023-12-01 12:07:37.372460
1461  2023-12-01 12:07:37.404585
1462  2023-12-01 12:07:37.437552
1463  2023-12-01 12:07:37.469705
1464  2023-12-01 12:07:37.501601
1465  2023-12-01 12:07:37.533519
1466  2023-12-01 12:07:37.564903
1467  2023-12-01 12:07:37.596786
1468  2023-12-01 12:07:37.629001
1469  2023-12-01 12:07:37.677483
1470  2023-12-01 12:07:37.709450
1471  2023-12-01 12:07:37.741307
1472  2023-12-01 12:07:37.773485
1473  2023-12-01 12:07:37.805527
1474  2023-12-01 12:07:37.837186
1475  2023-12-01 12:07:37.869497
1476  2023-12-01 12:07:37.901707
1477  2023-12-01 12:07:37.932784
1478  2023-12-01 12:07:37.965163
1479  2023-12-01 12:07:37.996642
1480  2023-12-01 12:07:38.028597
1481  2023-12-01 12:07:38.077535
1482  2023-12-01 12:07:38.109442
1483  2023-12-01 12:07:38.142135
1484  2023-12-01 12:07:38.173526
1485  2023-12-01 12:07:38.205532
1486  2023-12-01 12:07:38.237580
1487  2023-12-01 12:07:38.268499
1488  2023-12-01 12:07:38.301534
1489  2023-12-01 12:07:38.333664
1490  2023-12-01 12:07:38.364857
1491  2023-12-01 12:07:38.397264
1492  2023-12-01 12:07:38.429143
1493  2023-12-01 12:07:38.476838
1494  2023-12-01 12:07:38.508753
1495  2023-12-01 12:07:38.541485
1496  2023-12-01 12:07:38.573528
1497  2023-12-01 12:07:38.605702
1498  2023-12-01 12:07:38.636783
1499  2023-12-01 12:07:38.669092
1500  2023-12-01 12:07:38.701483
1501  2023-12-01 12:07:38.733837
1502  2023-12-01 12:07:38.765070
1503  2023-12-01 12:07:38.797493
1504  2023-12-01 12:07:38.829204
1505  2023-12-01 12:07:38.877495
1506  2023-12-01 12:07:38.908448
1507  2023-12-01 12:07:38.940507
1508  2023-12-01 12:07:38.973538
1509  2023-12-01 12:07:39.005529
1510  2023-12-01 12:07:39.036269
1511  2023-12-01 12:07:39.069157
1512  2023-12-01 12:07:39.101610
1513  2023-12-01 12:07:39.133311
1514  2023-12-01 12:07:39.164535
1515  2023-12-01 12:07:39.197506
1516  2023-12-01 12:07:39.228604
1517  2023-12-01 12:07:39.277136
1518  2023-12-01 12:07:39.309001
1519  2023-12-01 12:07:39.341037
1520  2023-12-01 12:07:39.373529
1521  2023-12-01 12:07:39.405494
1522  2023-12-01 12:07:39.436506
1523  2023-12-01 12:07:39.469520
1524  2023-12-01 12:07:39.501705
1525  2023-12-01 12:07:39.532678
1526  2023-12-01 12:07:39.564677
1527  2023-12-01 12:07:39.596682
1528  2023-12-01 12:07:39.628536
1529  2023-12-01 12:07:39.677533
1530  2023-12-01 12:07:39.709566
1531  2023-12-01 12:07:39.741267
1532  2023-12-01 12:07:39.773828
1533  2023-12-01 12:07:39.805284
1534  2023-12-01 12:07:39.837223
1535  2023-12-01 12:07:39.869475
1536  2023-12-01 12:07:39.900470
1537  2023-12-01 12:07:39.933359
1538  2023-12-01 12:07:39.965498
1539  2023-12-01 12:07:39.996518
1540  2023-12-01 12:07:40.029160
1541  2023-12-01 12:07:40.077489
1542  2023-12-01 12:07:40.108782
1543  2023-12-01 12:07:40.141097
1544  2023-12-01 12:07:40.173540
1545  2023-12-01 12:07:40.205529
1546  2023-12-01 12:07:40.237556
1547  2023-12-01 12:07:40.269460
1548  2023-12-01 12:07:40.301545
1549  2023-12-01 12:07:40.333291
1550  2023-12-01 12:07:40.365400
1551  2023-12-01 12:07:40.397455
1552  2023-12-01 12:07:40.429470
1553  2023-12-01 12:07:40.477495
1554  2023-12-01 12:07:40.509577
1555  2023-12-01 12:07:40.541700
1556  2023-12-01 12:07:40.572667
1557  2023-12-01 12:07:40.605530
1558  2023-12-01 12:07:40.637687
1559  2023-12-01 12:07:40.668377
1560  2023-12-01 12:07:40.700292
1561  2023-12-01 12:07:40.732659
1562  2023-12-01 12:07:40.765551
1563  2023-12-01 12:07:40.797442
1564  2023-12-01 12:07:40.828582
1565  2023-12-01 12:07:40.877223
1566  2023-12-01 12:07:40.909528
1567  2023-12-01 12:07:40.941596
1568  2023-12-01 12:07:40.973495
1569  2023-12-01 12:07:41.005456
1570  2023-12-01 12:07:41.037598
1571  2023-12-01 12:07:41.068496
1572  2023-12-01 12:07:41.100808
1573  2023-12-01 12:07:41.133462
1574  2023-12-01 12:07:41.165690
1575  2023-12-01 12:07:41.197662
1576  2023-12-01 12:07:41.228739
1577  2023-12-01 12:07:41.277260
1578  2023-12-01 12:07:41.309514
1579  2023-12-01 12:07:41.341507
1580  2023-12-01 12:07:41.373095
1581  2023-12-01 12:07:41.405263
1582  2023-12-01 12:07:41.437295
1583  2023-12-01 12:07:41.468650
1584  2023-12-01 12:07:41.501538
1585  2023-12-01 12:07:41.533549
1586  2023-12-01 12:07:41.566072
1587  2023-12-01 12:07:41.597515
1588  2023-12-01 12:07:41.628444
1589  2023-12-01 12:07:41.677509
1590  2023-12-01 12:07:41.709612
1591  2023-12-01 12:07:41.740568
1592  2023-12-01 12:07:41.772919
1593  2023-12-01 12:07:41.804838
1594  2023-12-01 12:07:41.837523
1595  2023-12-01 12:07:41.868736
1596  2023-12-01 12:07:41.901533
1597  2023-12-01 12:07:41.933551
1598  2023-12-01 12:07:41.965538
1599  2023-12-01 12:07:41.997667
1600  2023-12-01 12:07:42.029384
1601  2023-12-01 12:07:42.077376
1602  2023-12-01 12:07:42.109457
1603  2023-12-01 12:07:42.141530
1604  2023-12-01 12:07:42.173520
1605  2023-12-01 12:07:42.205489
1606  2023-12-01 12:07:42.237539
1607  2023-12-01 12:07:42.269668
1608  2023-12-01 12:07:42.301489
1609  2023-12-01 12:07:42.332433
1610  2023-12-01 12:07:42.364567
1611  2023-12-01 12:07:42.397379
1612  2023-12-01 12:07:42.429378
1613  2023-12-01 12:07:42.477533
1614  2023-12-01 12:07:42.510186
1615  2023-12-01 12:07:42.541241
1616  2023-12-01 12:07:42.573190
1617  2023-12-01 12:07:42.604471
1618  2023-12-01 12:07:42.637207
1619  2023-12-01 12:07:42.669499
1620  2023-12-01 12:07:42.700627
1621  2023-12-01 12:07:42.733473
1622  2023-12-01 12:07:42.765528
1623  2023-12-01 12:07:42.797209
1624  2023-12-01 12:07:42.829541
1625  2023-12-01 12:07:42.876339
1626  2023-12-01 12:07:42.908813
1627  2023-12-01 12:07:42.941320
1628  2023-12-01 12:07:42.972576
1629  2023-12-01 12:07:43.005523
1630  2023-12-01 12:07:43.037551
1631  2023-12-01 12:07:43.069701
1632  2023-12-01 12:07:43.101819
1633  2023-12-01 12:07:43.133713
1634  2023-12-01 12:07:43.165731
1635  2023-12-01 12:07:43.196440
1636  2023-12-01 12:07:43.229600
1637  2023-12-01 12:07:43.277116
1638  2023-12-01 12:07:43.309402
1639  2023-12-01 12:07:43.341218
1640  2023-12-01 12:07:43.373555
1641  2023-12-01 12:07:43.405508
1642  2023-12-01 12:07:43.436460
1643  2023-12-01 12:07:43.468570
1644  2023-12-01 12:07:43.501421
1645  2023-12-01 12:07:43.533736
1646  2023-12-01 12:07:43.564720
1647  2023-12-01 12:07:43.596658
1648  2023-12-01 12:07:43.629515
1649  2023-12-01 12:07:43.676423
1650  2023-12-01 12:07:43.709611
1651  2023-12-01 12:07:43.741771
1652  2023-12-01 12:07:43.772697
1653  2023-12-01 12:07:43.805460
1654  2023-12-01 12:07:43.837496
1655  2023-12-01 12:07:43.869800
1656  2023-12-01 12:07:43.901508
1657  2023-12-01 12:07:43.933687
1658  2023-12-01 12:07:43.964742
1659  2023-12-01 12:07:43.996752
1660  2023-12-01 12:07:44.029046
1661  2023-12-01 12:07:44.077411
1662  2023-12-01 12:07:44.112453
1663  2023-12-01 12:07:44.141759
1664  2023-12-01 12:07:44.175806
1665  2023-12-01 12:07:44.205465
1666  2023-12-01 12:07:44.239525
1667  2023-12-01 12:07:44.268970
1668  2023-12-01 12:07:44.301539
1669  2023-12-01 12:07:44.333706
1670  2023-12-01 12:07:44.364575
1671  2023-12-01 12:07:44.396680
1672  2023-12-01 12:07:44.429479
1673  2023-12-01 12:07:44.479685
1674  2023-12-01 12:07:44.508557
1675  2023-12-01 12:07:44.540472
1676  2023-12-01 12:07:44.572575
1677  2023-12-01 12:07:44.606791
1678  2023-12-01 12:07:44.639540
1679  2023-12-01 12:07:44.671752
1680  2023-12-01 12:07:44.703443
1681  2023-12-01 12:07:44.736063
1682  2023-12-01 12:07:44.767470
1683  2023-12-01 12:07:44.797565
1684  2023-12-01 12:07:44.828356
1685  2023-12-01 12:07:44.878975
1686  2023-12-01 12:07:44.908569
1687  2023-12-01 12:07:44.940515
1688  2023-12-01 12:07:44.975398
1689  2023-12-01 12:07:45.007529
1690  2023-12-01 12:07:45.039534
1691  2023-12-01 12:07:45.068152
1692  2023-12-01 12:07:45.101064
1693  2023-12-01 12:07:45.134805
1694  2023-12-01 12:07:45.166539
1695  2023-12-01 12:07:45.198501
1696  2023-12-01 12:07:45.229251
1697  2023-12-01 12:07:45.279628
1698  2023-12-01 12:07:45.310744
1699  2023-12-01 12:07:45.343527
1700  2023-12-01 12:07:45.373600
1701  2023-12-01 12:07:45.406527
1702  2023-12-01 12:07:45.438522
1703  2023-12-01 12:07:45.470793
1704  2023-12-01 12:07:45.502513
1705  2023-12-01 12:07:45.533741
1706  2023-12-01 12:07:45.567523
1707  2023-12-01 12:07:45.597860
1708  2023-12-01 12:07:45.628828
1709  2023-12-01 12:07:45.679258
1710  2023-12-01 12:07:45.710860
1711  2023-12-01 12:07:45.742293
1712  2023-12-01 12:07:45.774580
1713  2023-12-01 12:07:45.806536
1714  2023-12-01 12:07:45.838550
1715  2023-12-01 12:07:45.870527
1716  2023-12-01 12:07:45.902527
1717  2023-12-01 12:07:45.934531
1718  2023-12-01 12:07:45.966730
1719  2023-12-01 12:07:45.998518
1720  2023-12-01 12:07:46.030546
1721  2023-12-01 12:07:46.079271
1722  2023-12-01 12:07:46.110511
1723  2023-12-01 12:07:46.141496
1724  2023-12-01 12:07:46.173860
1725  2023-12-01 12:07:46.206430
1726  2023-12-01 12:07:46.237575
1727  2023-12-01 12:07:46.270366
1728  2023-12-01 12:07:46.302479
1729  2023-12-01 12:07:46.333441
1730  2023-12-01 12:07:46.366458
1731  2023-12-01 12:07:46.397450
1732  2023-12-01 12:07:46.429694
1733  2023-12-01 12:07:46.478467
1734  2023-12-01 12:07:46.509395
1735  2023-12-01 12:07:46.540741
1736  2023-12-01 12:07:46.573249
1737  2023-12-01 12:07:46.607386
1738  2023-12-01 12:07:46.638440
1739  2023-12-01 12:07:46.669821
1740  2023-12-01 12:07:46.700548
1741  2023-12-01 12:07:46.733494
1742  2023-12-01 12:07:46.765660
1743  2023-12-01 12:07:46.797495
1744  2023-12-01 12:07:46.830287
1745  2023-12-01 12:07:46.878322
1746  2023-12-01 12:07:46.910239
1747  2023-12-01 12:07:46.942188
1748  2023-12-01 12:07:46.974205
1749  2023-12-01 12:07:47.007251
1750  2023-12-01 12:07:47.038442
1751  2023-12-01 12:07:47.070234
1752  2023-12-01 12:07:47.101881
1753  2023-12-01 12:07:47.133737
1754  2023-12-01 12:07:47.165128
1755  2023-12-01 12:07:47.196963
1756  2023-12-01 12:07:47.229191
1757  2023-12-01 12:07:47.276501
1758  2023-12-01 12:07:47.309442
1759  2023-12-01 12:07:47.342120
1760  2023-12-01 12:07:47.374413
1761  2023-12-01 12:07:47.406080
1762  2023-12-01 12:07:47.438050
1763  2023-12-01 12:07:47.469233
1764  2023-12-01 12:07:47.501250
1765  2023-12-01 12:07:47.534022
1766  2023-12-01 12:07:47.565226
1767  2023-12-01 12:07:47.597957
1768  2023-12-01 12:07:47.628975
1769  2023-12-01 12:07:47.679034
1770  2023-12-01 12:07:47.709450
1771  2023-12-01 12:07:47.740598
1772  2023-12-01 12:07:47.773615
1773  2023-12-01 12:07:47.804527
1774  2023-12-01 12:07:47.837135
1775  2023-12-01 12:07:47.869716
1776  2023-12-01 12:07:47.900826
1777  2023-12-01 12:07:47.934147
1778  2023-12-01 12:07:47.965187
1779  2023-12-01 12:07:47.997069
1780  2023-12-01 12:07:48.029003
1781  2023-12-01 12:07:48.078347
1782  2023-12-01 12:07:48.108797
1783  2023-12-01 12:07:48.141843
1784  2023-12-01 12:07:48.173033
1785  2023-12-01 12:07:48.205996
1786  2023-12-01 12:07:48.238175
1787  2023-12-01 12:07:48.270475
1788  2023-12-01 12:07:48.301360
1789  2023-12-01 12:07:48.333026
1790  2023-12-01 12:07:48.364667
1791  2023-12-01 12:07:48.397265
1792  2023-12-01 12:07:48.429301
1793  2023-12-01 12:07:48.477174
1794  2023-12-01 12:07:48.508711
1795  2023-12-01 12:07:48.540911
1796  2023-12-01 12:07:48.572919
1797  2023-12-01 12:07:48.606059
1798  2023-12-01 12:07:48.637643
1799  2023-12-01 12:07:48.670661
1800  2023-12-01 12:07:48.701067
1801  2023-12-01 12:07:48.732886
1802  2023-12-01 12:07:48.765699
1803  2023-12-01 12:07:48.797651
1804  2023-12-01 12:07:48.828593
1805  2023-12-01 12:07:48.876975
1806  2023-12-01 12:07:48.908739
1807  2023-12-01 12:07:48.942610
1808  2023-12-01 12:07:48.973088
1809  2023-12-01 12:07:49.004724
1810  2023-12-01 12:07:49.036754
1811  2023-12-01 12:07:49.069430
1812  2023-12-01 12:07:49.101709
1813  2023-12-01 12:07:49.133406
1814  2023-12-01 12:07:49.164717
1815  2023-12-01 12:07:49.196638
1816  2023-12-01 12:07:49.228656
1817  2023-12-01 12:07:49.278258
1818  2023-12-01 12:07:49.309865
1819  2023-12-01 12:07:49.341741
1820  2023-12-01 12:07:49.374606
1821  2023-12-01 12:07:49.405710
1822  2023-12-01 12:07:49.437201
1823  2023-12-01 12:07:49.469523
1824  2023-12-01 12:07:49.501261
1825  2023-12-01 12:07:49.532958
1826  2023-12-01 12:07:49.565646
1827  2023-12-01 12:07:49.597553
1828  2023-12-01 12:07:49.629484
1829  2023-12-01 12:07:49.678250
1830  2023-12-01 12:07:49.710341
1831  2023-12-01 12:07:49.741208
1832  2023-12-01 12:07:49.774245
1833  2023-12-01 12:07:49.805511
1834  2023-12-01 12:07:49.837519
1835  2023-12-01 12:07:49.869438
1836  2023-12-01 12:07:49.901157
1837  2023-12-01 12:07:49.934023
1838  2023-12-01 12:07:49.965012
1839  2023-12-01 12:07:49.997099
1840  2023-12-01 12:07:50.028432
1841  2023-12-01 12:07:50.077347
1842  2023-12-01 12:07:50.108746
1843  2023-12-01 12:07:50.141428
1844  2023-12-01 12:07:50.173048
1845  2023-12-01 12:07:50.205051
1846  2023-12-01 12:07:50.238346
1847  2023-12-01 12:07:50.269882
1848  2023-12-01 12:07:50.301389
1849  2023-12-01 12:07:50.333527
1850  2023-12-01 12:07:50.364911
1851  2023-12-01 12:07:50.397351
1852  2023-12-01 12:07:50.429209
1853  2023-12-01 12:07:50.477993
1854  2023-12-01 12:07:50.508940
1855  2023-12-01 12:07:50.540974
1856  2023-12-01 12:07:50.572905
1857  2023-12-01 12:07:50.605761
1858  2023-12-01 12:07:50.637764
1859  2023-12-01 12:07:50.669117
1860  2023-12-01 12:07:50.701433
1861  2023-12-01 12:07:50.733231
1862  2023-12-01 12:07:50.766711
1863  2023-12-01 12:07:50.797047
1864  2023-12-01 12:07:50.828473
1865  2023-12-01 12:07:50.878163
1866  2023-12-01 12:07:50.909816
1867  2023-12-01 12:07:50.941773
1868  2023-12-01 12:07:50.973149
1869  2023-12-01 12:07:51.005114
1870  2023-12-01 12:07:51.038483
1871  2023-12-01 12:07:51.069421
1872  2023-12-01 12:07:51.100985
1873  2023-12-01 12:07:51.132471
1874  2023-12-01 12:07:51.165506
1875  2023-12-01 12:07:51.196991
1876  2023-12-01 12:07:51.228816
1877  2023-12-01 12:07:51.277541
1878  2023-12-01 12:07:51.309780
1879  2023-12-01 12:07:51.341291
1880  2023-12-01 12:07:51.373658
1881  2023-12-01 12:07:51.405929
1882  2023-12-01 12:07:51.436888
1883  2023-12-01 12:07:51.469727
1884  2023-12-01 12:07:51.501909
1885  2023-12-01 12:07:51.532693
1886  2023-12-01 12:07:51.566473
1887  2023-12-01 12:07:51.597026
1888  2023-12-01 12:07:51.628966
1889  2023-12-01 12:07:51.678012
1890  2023-12-01 12:07:51.710490
1891  2023-12-01 12:07:51.740922
1892  2023-12-01 12:07:51.773087
1893  2023-12-01 12:07:51.805662
1894  2023-12-01 12:07:51.837632
1895  2023-12-01 12:07:51.868656
1896  2023-12-01 12:07:51.901288
1897  2023-12-01 12:07:51.933235
1898  2023-12-01 12:07:51.965465
1899  2023-12-01 12:07:51.997571
1900  2023-12-01 12:07:52.029652
1901  2023-12-01 12:07:52.077711
1902  2023-12-01 12:07:52.109265
1903  2023-12-01 12:07:52.140229
1904  2023-12-01 12:07:52.172734
1905  2023-12-01 12:07:52.206506
1906  2023-12-01 12:07:52.237185
1907  2023-12-01 12:07:52.268844
1908  2023-12-01 12:07:52.301216
1909  2023-12-01 12:07:52.332635
1910  2023-12-01 12:07:52.364234
1911  2023-12-01 12:07:52.396629
1912  2023-12-01 12:07:52.428448
1913  2023-12-01 12:07:52.478156
1914  2023-12-01 12:07:52.508376
1915  2023-12-01 12:07:52.541078
1916  2023-12-01 12:07:52.573100
1917  2023-12-01 12:07:52.605094
1918  2023-12-01 12:07:52.638348
1919  2023-12-01 12:07:52.670407
1920  2023-12-01 12:07:52.701135
1921  2023-12-01 12:07:52.733211
1922  2023-12-01 12:07:52.765304
1923  2023-12-01 12:07:52.796498
1924  2023-12-01 12:07:52.829330
1925  2023-12-01 12:07:52.878196
1926  2023-12-01 12:07:52.910956
1927  2023-12-01 12:07:52.941511
1928  2023-12-01 12:07:52.973570
1929  2023-12-01 12:07:53.005522
1930  2023-12-01 12:07:53.037067
1931  2023-12-01 12:07:53.070296
1932  2023-12-01 12:07:53.101202
1933  2023-12-01 12:07:53.133289
1934  2023-12-01 12:07:53.164511
1935  2023-12-01 12:07:53.197027
1936  2023-12-01 12:07:53.228488
1937  2023-12-01 12:07:53.278304
1938  2023-12-01 12:07:53.310924
1939  2023-12-01 12:07:53.343087
1940  2023-12-01 12:07:53.372513
1941  2023-12-01 12:07:53.405765
1942  2023-12-01 12:07:53.436878
1943  2023-12-01 12:07:53.470072
1944  2023-12-01 12:07:53.501988
1945  2023-12-01 12:07:53.533206
1946  2023-12-01 12:07:53.564665
1947  2023-12-01 12:07:53.596596
1948  2023-12-01 12:07:53.629155
1949  2023-12-01 12:07:53.677251
1950  2023-12-01 12:07:53.710661
1951  2023-12-01 12:07:53.741696
1952  2023-12-01 12:07:53.772623
1953  2023-12-01 12:07:53.804546
1954  2023-12-01 12:07:53.838973
1955  2023-12-01 12:07:53.869731
1956  2023-12-01 12:07:53.901946
1957  2023-12-01 12:07:53.932734
1958  2023-12-01 12:07:53.964521
1959  2023-12-01 12:07:53.996498
1960  2023-12-01 12:07:54.028802
1961  2023-12-01 12:07:54.076762
1962  2023-12-01 12:07:54.109687
1963  2023-12-01 12:07:54.140903
1964  2023-12-01 12:07:54.172513
1965  2023-12-01 12:07:54.204845
1966  2023-12-01 12:07:54.236468
1967  2023-12-01 12:07:54.269595
1968  2023-12-01 12:07:54.300479
1969  2023-12-01 12:07:54.332267
1970  2023-12-01 12:07:54.364419
1971  2023-12-01 12:07:54.397480
1972  2023-12-01 12:07:54.429550
1973  2023-12-01 12:07:54.479462
1974  2023-12-01 12:07:54.509235
1975  2023-12-01 12:07:54.541253
1976  2023-12-01 12:07:54.573511
1977  2023-12-01 12:07:54.604815
1978  2023-12-01 12:07:54.636981
1979  2023-12-01 12:07:54.668671
1980  2023-12-01 12:07:54.702515
1981  2023-12-01 12:07:54.732671
1982  2023-12-01 12:07:54.765165
1983  2023-12-01 12:07:54.796704
1984  2023-12-01 12:07:54.829342
1985  2023-12-01 12:07:54.876590
1986  2023-12-01 12:07:54.909338
1987  2023-12-01 12:07:54.942265
1988  2023-12-01 12:07:54.973186
1989  2023-12-01 12:07:55.005157
1990  2023-12-01 12:07:55.036822
1991  2023-12-01 12:07:55.069865
1992  2023-12-01 12:07:55.100553
1993  2023-12-01 12:07:55.132508
1994  2023-12-01 12:07:55.164664
1995  2023-12-01 12:07:55.197756
1996  2023-12-01 12:07:55.229735
1997  2023-12-01 12:07:55.277148
1998  2023-12-01 12:07:55.309309
1999  2023-12-01 12:07:55.341780
2000  2023-12-01 12:07:55.372542
2001  2023-12-01 12:07:55.404559
2002  2023-12-01 12:07:55.437202
2003  2023-12-01 12:07:55.469326
2004  2023-12-01 12:07:55.501245
2005  2023-12-01 12:07:55.532437
2006  2023-12-01 12:07:55.565471
2007  2023-12-01 12:07:55.596409
2008  2023-12-01 12:07:55.629277
2009  2023-12-01 12:07:55.677439
2010  2023-12-01 12:07:55.709188
2011  2023-12-01 12:07:55.740644
2012  2023-12-01 12:07:55.773517
2013  2023-12-01 12:07:55.804509
2014  2023-12-01 12:07:55.837432
2015  2023-12-01 12:07:55.869068
2016  2023-12-01 12:07:55.900709
2017  2023-12-01 12:07:55.932671
2018  2023-12-01 12:07:55.964726
2019  2023-12-01 12:07:55.996734
2020  2023-12-01 12:07:56.029285
2021  2023-12-01 12:07:56.077097
2022  2023-12-01 12:07:56.110738
2023  2023-12-01 12:07:56.142909
2024  2023-12-01 12:07:56.172492
2025  2023-12-01 12:07:56.204539
2026  2023-12-01 12:07:56.237389
2027  2023-12-01 12:07:56.269147
2028  2023-12-01 12:07:56.301196
2029  2023-12-01 12:07:56.333248
2030  2023-12-01 12:07:56.364534
2031  2023-12-01 12:07:56.396500
2032  2023-12-01 12:07:56.428525
2033  2023-12-01 12:07:56.476363
2034  2023-12-01 12:07:56.509199
2035  2023-12-01 12:07:56.540861
2036  2023-12-01 12:07:56.573352
2037  2023-12-01 12:07:56.605594
2038  2023-12-01 12:07:56.636807
2039  2023-12-01 12:07:56.669359
2040  2023-12-01 12:07:56.701176
2041  2023-12-01 12:07:56.732467
2042  2023-12-01 12:07:56.765301
2043  2023-12-01 12:07:56.796782
2044  2023-12-01 12:07:56.828487
2045  2023-12-01 12:07:56.877344
2046  2023-12-01 12:07:56.909679
2047  2023-12-01 12:07:56.940710
2048  2023-12-01 12:07:56.973542
2049  2023-12-01 12:07:57.004660
2050  2023-12-01 12:07:57.036994
2051  2023-12-01 12:07:57.069408
2052  2023-12-01 12:07:57.101461
2053  2023-12-01 12:07:57.132874
2054  2023-12-01 12:07:57.165246
2055  2023-12-01 12:07:57.197241
2056  2023-12-01 12:07:57.229684
2057  2023-12-01 12:07:57.278686
2058  2023-12-01 12:07:57.309537
2059  2023-12-01 12:07:57.341486
2060  2023-12-01 12:07:57.372513
2061  2023-12-01 12:07:57.404520
2062  2023-12-01 12:07:57.436617
2063  2023-12-01 12:07:57.469285
2064  2023-12-01 12:07:57.500780
2065  2023-12-01 12:07:57.532880
2066  2023-12-01 12:07:57.564840
2067  2023-12-01 12:07:57.596684
2068  2023-12-01 12:07:57.628529
2069  2023-12-01 12:07:57.677096
2070  2023-12-01 12:07:57.709142
2071  2023-12-01 12:07:57.741592
2072  2023-12-01 12:07:57.773634
2073  2023-12-01 12:07:57.805509
2074  2023-12-01 12:07:57.836753
2075  2023-12-01 12:07:57.869290
2076  2023-12-01 12:07:57.901376
2077  2023-12-01 12:07:57.933506
2078  2023-12-01 12:07:57.965290
2079  2023-12-01 12:07:57.996733
2080  2023-12-01 12:07:58.028420
2081  2023-12-01 12:07:58.076616
2082  2023-12-01 12:07:58.108583
2083  2023-12-01 12:07:58.140519
2084  2023-12-01 12:07:58.173240
2085  2023-12-01 12:07:58.204917
2086  2023-12-01 12:07:58.236879
2087  2023-12-01 12:07:58.268600
2088  2023-12-01 12:07:58.301472
2089  2023-12-01 12:07:58.333208
2090  2023-12-01 12:07:58.365092
2091  2023-12-01 12:07:58.397244
2092  2023-12-01 12:07:58.428596
2093  2023-12-01 12:07:58.476451
2094  2023-12-01 12:07:58.508845
2095  2023-12-01 12:07:58.541299
2096  2023-12-01 12:07:58.573091
2097  2023-12-01 12:07:58.604590
2098  2023-12-01 12:07:58.636898
2099  2023-12-01 12:07:58.668813
2100  2023-12-01 12:07:58.701057
2101  2023-12-01 12:07:58.733479
2102  2023-12-01 12:07:58.764928
2103  2023-12-01 12:07:58.796684
2104  2023-12-01 12:07:58.828395
2105  2023-12-01 12:07:58.876547
2106  2023-12-01 12:07:58.908913
2107  2023-12-01 12:07:58.941191
2108  2023-12-01 12:07:58.973345
2109  2023-12-01 12:07:59.005515
2110  2023-12-01 12:07:59.036503
2111  2023-12-01 12:07:59.068812
2112  2023-12-01 12:07:59.101442
2113  2023-12-01 12:07:59.133746
2114  2023-12-01 12:07:59.164882
2115  2023-12-01 12:07:59.197032
2116  2023-12-01 12:07:59.229016
2117  2023-12-01 12:07:59.277586
2118  2023-12-01 12:07:59.309421
2119  2023-12-01 12:07:59.340991
2120  2023-12-01 12:07:59.372520
2121  2023-12-01 12:07:59.404508
2122  2023-12-01 12:07:59.436508
2123  2023-12-01 12:07:59.469507
2124  2023-12-01 12:07:59.500592
2125  2023-12-01 12:07:59.533080
2126  2023-12-01 12:07:59.565481
2127  2023-12-01 12:07:59.597335
2128  2023-12-01 12:07:59.629402
2129  2023-12-01 12:07:59.677315
2130  2023-12-01 12:07:59.708518
2131  2023-12-01 12:07:59.740853
2132  2023-12-01 12:07:59.772886
2133  2023-12-01 12:07:59.804872
2134  2023-12-01 12:07:59.837400
2135  2023-12-01 12:07:59.869518
2136  2023-12-01 12:07:59.901642
2137  2023-12-01 12:07:59.932675
2138  2023-12-01 12:07:59.965532
2139  2023-12-01 12:07:59.997540
2140  2023-12-01 12:08:00.028545
2141  2023-12-01 12:08:00.076579
2142  2023-12-01 12:08:00.108538
2143  2023-12-01 12:08:00.141581
2144  2023-12-01 12:08:00.173609
2145  2023-12-01 12:08:00.205519
2146  2023-12-01 12:08:00.237260
2147  2023-12-01 12:08:00.268533
2148  2023-12-01 12:08:00.300336
2149  2023-12-01 12:08:00.333213
2150  2023-12-01 12:08:00.364608
2151  2023-12-01 12:08:00.396264
2152  2023-12-01 12:08:00.428498
2153  2023-12-01 12:08:00.477672
2154  2023-12-01 12:08:00.508527
2155  2023-12-01 12:08:00.540755
2156  2023-12-01 12:08:00.572549
2157  2023-12-01 12:08:00.604509
2158  2023-12-01 12:08:00.637508
2159  2023-12-01 12:08:00.668527
2160  2023-12-01 12:08:00.700566
2161  2023-12-01 12:08:00.732714
2162  2023-12-01 12:08:00.765527
2163  2023-12-01 12:08:00.796970
2164  2023-12-01 12:08:00.828883
2165  2023-12-01 12:08:00.876832
2166  2023-12-01 12:08:00.908828
2167  2023-12-01 12:08:00.941230
2168  2023-12-01 12:08:00.973220
2169  2023-12-01 12:08:01.004187
2170  2023-12-01 12:08:01.036531
2171  2023-12-01 12:08:01.069484
2172  2023-12-01 12:08:01.100547
2173  2023-12-01 12:08:01.133484
2174  2023-12-01 12:08:01.165324
2175  2023-12-01 12:08:01.196645
2176  2023-12-01 12:08:01.230792
2177  2023-12-01 12:08:01.277740
2178  2023-12-01 12:08:01.308544
2179  2023-12-01 12:08:01.340513
2180  2023-12-01 12:08:01.373268
2181  2023-12-01 12:08:01.404472
2182  2023-12-01 12:08:01.436433
2183  2023-12-01 12:08:01.469217
2184  2023-12-01 12:08:01.500537
2185  2023-12-01 12:08:01.532666
2186  2023-12-01 12:08:01.564688
2187  2023-12-01 12:08:01.596682
2188  2023-12-01 12:08:01.628538
2189  2023-12-01 12:08:01.677586
2190  2023-12-01 12:08:01.708536
2191  2023-12-01 12:08:01.740516
2192  2023-12-01 12:08:01.772777
2193  2023-12-01 12:08:01.805511
2194  2023-12-01 12:08:01.836581
2195  2023-12-01 12:08:01.869187
2196  2023-12-01 12:08:01.900444
2197  2023-12-01 12:08:01.932695
2198  2023-12-01 12:08:01.964814
2199  2023-12-01 12:08:01.997207
2200  2023-12-01 12:08:02.029241
2201  2023-12-01 12:08:02.076518
2202  2023-12-01 12:08:02.108669
2203  2023-12-01 12:08:02.141496
2204  2023-12-01 12:08:02.172528
2205  2023-12-01 12:08:02.205721
2206  2023-12-01 12:08:02.237262
2207  2023-12-01 12:08:02.268742
2208  2023-12-01 12:08:02.301216
2209  2023-12-01 12:08:02.333364
2210  2023-12-01 12:08:02.364647
2211  2023-12-01 12:08:02.396935
2212  2023-12-01 12:08:02.429525
2213  2023-12-01 12:08:02.476521
2214  2023-12-01 12:08:02.508404
2215  2023-12-01 12:08:02.540594
2216  2023-12-01 12:08:02.572539
2217  2023-12-01 12:08:02.605601
2218  2023-12-01 12:08:02.637543
2219  2023-12-01 12:08:02.669166
2220  2023-12-01 12:08:02.700402
2221  2023-12-01 12:08:02.732735
2222  2023-12-01 12:08:02.764590
2223  2023-12-01 12:08:02.797384
2224  2023-12-01 12:08:02.828588
2225  2023-12-01 12:08:02.877181
2226  2023-12-01 12:08:02.908689
2227  2023-12-01 12:08:02.941071
2228  2023-12-01 12:08:02.973224
2229  2023-12-01 12:08:03.005518
2230  2023-12-01 12:08:03.036443
2231  2023-12-01 12:08:03.068389
2232  2023-12-01 12:08:03.101205
2233  2023-12-01 12:08:03.133192
2234  2023-12-01 12:08:03.164522
2235  2023-12-01 12:08:03.196669
2236  2023-12-01 12:08:03.228720
2237  2023-12-01 12:08:03.277542
2238  2023-12-01 12:08:03.308529
2239  2023-12-01 12:08:03.340900
2240  2023-12-01 12:08:03.373001
2241  2023-12-01 12:08:03.404528
2242  2023-12-01 12:08:03.436665
2243  2023-12-01 12:08:03.469277
2244  2023-12-01 12:08:03.500579
2245  2023-12-01 12:08:03.534897
2246  2023-12-01 12:08:03.564667
2247  2023-12-01 12:08:03.596745
2248  2023-12-01 12:08:03.628569
2249  2023-12-01 12:08:03.676567
2250  2023-12-01 12:08:03.709765
2251  2023-12-01 12:08:03.740543
2252  2023-12-01 12:08:03.772530
2253  2023-12-01 12:08:03.804536
2254  2023-12-01 12:08:03.836522
2255  2023-12-01 12:08:03.868678
2256  2023-12-01 12:08:03.900492
2257  2023-12-01 12:08:03.932736
2258  2023-12-01 12:08:03.964344
2259  2023-12-01 12:08:03.997160
2260  2023-12-01 12:08:04.028959
2261  2023-12-01 12:08:04.076826
2262  2023-12-01 12:08:04.109662
2263  2023-12-01 12:08:04.140899
2264  2023-12-01 12:08:04.172734
2265  2023-12-01 12:08:04.204214
2266  2023-12-01 12:08:04.236399
2267  2023-12-01 12:08:04.269116
2268  2023-12-01 12:08:04.300681
2269  2023-12-01 12:08:04.332573
2270  2023-12-01 12:08:04.365503
2271  2023-12-01 12:08:04.397264
2272  2023-12-01 12:08:04.429503
2273  2023-12-01 12:08:04.477566
2274  2023-12-01 12:08:04.509544
2275  2023-12-01 12:08:04.541020
2276  2023-12-01 12:08:04.572481
2277  2023-12-01 12:08:04.604444
2278  2023-12-01 12:08:04.636516
2279  2023-12-01 12:08:04.668789
2280  2023-12-01 12:08:04.701247
2281  2023-12-01 12:08:04.732266
2282  2023-12-01 12:08:04.764579
2283  2023-12-01 12:08:04.796549
2284  2023-12-01 12:08:04.829300
2285  2023-12-01 12:08:04.876507
2286  2023-12-01 12:08:04.908936
2287  2023-12-01 12:08:04.940786
2288  2023-12-01 12:08:04.972470
2289  2023-12-01 12:08:05.004516
2290  2023-12-01 12:08:05.037515
2291  2023-12-01 12:08:05.068511
2292  2023-12-01 12:08:05.101507
2293  2023-12-01 12:08:05.132905
2294  2023-12-01 12:08:05.164492
2295  2023-12-01 12:08:05.196724
2296  2023-12-01 12:08:05.228816
2297  2023-12-01 12:08:05.276547
2298  2023-12-01 12:08:05.308540
2299  2023-12-01 12:08:05.341407
2300  2023-12-01 12:08:05.372586
2301  2023-12-01 12:08:05.405660
2302  2023-12-01 12:08:05.436512
2303  2023-12-01 12:08:05.469629
2304  2023-12-01 12:08:05.501303
2305  2023-12-01 12:08:05.533452
2306  2023-12-01 12:08:05.565007
2307  2023-12-01 12:08:05.596706
2308  2023-12-01 12:08:05.629514
2309  2023-12-01 12:08:05.676722
2310  2023-12-01 12:08:05.709501
2311  2023-12-01 12:08:05.741439
2312  2023-12-01 12:08:05.773102
2313  2023-12-01 12:08:05.804317
2314  2023-12-01 12:08:05.836872
2315  2023-12-01 12:08:05.868580
2316  2023-12-01 12:08:05.900574
2317  2023-12-01 12:08:05.933696
2318  2023-12-01 12:08:05.964557
2319  2023-12-01 12:08:05.997463
2320  2023-12-01 12:08:06.028956
2321  2023-12-01 12:08:06.076512
2322  2023-12-01 12:08:06.108839
2323  2023-12-01 12:08:06.140544
2324  2023-12-01 12:08:06.173357
2325  2023-12-01 12:08:06.204712
2326  2023-12-01 12:08:06.236530
2327  2023-12-01 12:08:06.268730
2328  2023-12-01 12:08:06.301225
2329  2023-12-01 12:08:06.333500
2330  2023-12-01 12:08:06.364912
2331  2023-12-01 12:08:06.396827
2332  2023-12-01 12:08:06.429082
2333  2023-12-01 12:08:06.477484
2334  2023-12-01 12:08:06.509547
2335  2023-12-01 12:08:06.540548
2336  2023-12-01 12:08:06.573348
2337  2023-12-01 12:08:06.604670
2338  2023-12-01 12:08:06.636528
2339  2023-12-01 12:08:06.668514
2340  2023-12-01 12:08:06.701198
2341  2023-12-01 12:08:06.732798
2342  2023-12-01 12:08:06.764503
2343  2023-12-01 12:08:06.797100
2344  2023-12-01 12:08:06.829493
2345  2023-12-01 12:08:06.877081
2346  2023-12-01 12:08:06.908864
2347  2023-12-01 12:08:06.940872
2348  2023-12-01 12:08:06.972812
2349  2023-12-01 12:08:07.004741
2350  2023-12-01 12:08:07.037198
2351  2023-12-01 12:08:07.068796
2352  2023-12-01 12:08:07.100281
2353  2023-12-01 12:08:07.132752
2354  2023-12-01 12:08:07.165274
2355  2023-12-01 12:08:07.196520
2356  2023-12-01 12:08:07.229350
2357  2023-12-01 12:08:07.277289
2358  2023-12-01 12:08:07.309537
2359  2023-12-01 12:08:07.341199
2360  2023-12-01 12:08:07.373360
2361  2023-12-01 12:08:07.405410
2362  2023-12-01 12:08:07.436416
2363  2023-12-01 12:08:07.469379
2364  2023-12-01 12:08:07.500732
2365  2023-12-01 12:08:07.532495
2366  2023-12-01 12:08:07.565504
2367  2023-12-01 12:08:07.597333
2368  2023-12-01 12:08:07.629377
2369  2023-12-01 12:08:07.676771
2370  2023-12-01 12:08:07.708719
2371  2023-12-01 12:08:07.740663
2372  2023-12-01 12:08:07.772587
2373  2023-12-01 12:08:07.805528
2374  2023-12-01 12:08:07.837562
2375  2023-12-01 12:08:07.869517
2376  2023-12-01 12:08:07.900527
2377  2023-12-01 12:08:07.932586
2378  2023-12-01 12:08:07.964772
2379  2023-12-01 12:08:07.996494
2380  2023-12-01 12:08:08.029408
2381  2023-12-01 12:08:08.077340
2382  2023-12-01 12:08:08.109203
2383  2023-12-01 12:08:08.140548
2384  2023-12-01 12:08:08.172694
2385  2023-12-01 12:08:08.204566
2386  2023-12-01 12:08:08.237258
2387  2023-12-01 12:08:08.268588
2388  2023-12-01 12:08:08.300563
2389  2023-12-01 12:08:08.332531
2390  2023-12-01 12:08:08.365207
2391  2023-12-01 12:08:08.397269
2392  2023-12-01 12:08:08.428683
2393  2023-12-01 12:08:08.476525
2394  2023-12-01 12:08:08.509558
2395  2023-12-01 12:08:08.541013
2396  2023-12-01 12:08:08.573120
2397  2023-12-01 12:08:08.604965
2398  2023-12-01 12:08:08.636989
2399  2023-12-01 12:08:08.668564
2400  2023-12-01 12:08:08.700543
2401  2023-12-01 12:08:08.732841
2402  2023-12-01 12:08:08.764530
2403  2023-12-01 12:08:08.796746
2404  2023-12-01 12:08:08.828526
2405  2023-12-01 12:08:08.876525
2406  2023-12-01 12:08:08.909517
2407  2023-12-01 12:08:08.941517
2408  2023-12-01 12:08:08.973224
2409  2023-12-01 12:08:09.004483
2410  2023-12-01 12:08:09.036777
2411  2023-12-01 12:08:09.069646
2412  2023-12-01 12:08:09.100716
2413  2023-12-01 12:08:09.132447
2414  2023-12-01 12:08:09.165246
2415  2023-12-01 12:08:09.197330
2416  2023-12-01 12:08:09.228333
2417  2023-12-01 12:08:09.276924
2418  2023-12-01 12:08:09.308738
2419  2023-12-01 12:08:09.341571
2420  2023-12-01 12:08:09.372449
2421  2023-12-01 12:08:09.404487
2422  2023-12-01 12:08:09.437263
2423  2023-12-01 12:08:09.468809
2424  2023-12-01 12:08:09.501542
2425  2023-12-01 12:08:09.532531
2426  2023-12-01 12:08:09.564750
2427  2023-12-01 12:08:09.597208
2428  2023-12-01 12:08:09.628822
2429  2023-12-01 12:08:09.677192
2430  2023-12-01 12:08:09.708877
2431  2023-12-01 12:08:09.741579
2432  2023-12-01 12:08:09.772504
2433  2023-12-01 12:08:09.804791
2434  2023-12-01 12:08:09.836573
2435  2023-12-01 12:08:09.868468
2436  2023-12-01 12:08:09.900508
2437  2023-12-01 12:08:09.933556
2438  2023-12-01 12:08:09.965350
2439  2023-12-01 12:08:09.997418
2440  2023-12-01 12:08:10.028702
2441  2023-12-01 12:08:10.076935
2442  2023-12-01 12:08:10.109521
2443  2023-12-01 12:08:10.141558
2444  2023-12-01 12:08:10.173237
2445  2023-12-01 12:08:10.204488
2446  2023-12-01 12:08:10.236671
2447  2023-12-01 12:08:10.268468
2448  2023-12-01 12:08:10.301551
2449  2023-12-01 12:08:10.333343
2450  2023-12-01 12:08:10.364285
2451  2023-12-01 12:08:10.397234
2452  2023-12-01 12:08:10.428639
2453  2023-12-01 12:08:10.476501
2454  2023-12-01 12:08:10.509534
2455  2023-12-01 12:08:10.541581
2456  2023-12-01 12:08:10.573144
2457  2023-12-01 12:08:10.604599
2458  2023-12-01 12:08:10.636520
2459  2023-12-01 12:08:10.669541
2460  2023-12-01 12:08:10.700963
2461  2023-12-01 12:08:10.732777
2462  2023-12-01 12:08:10.765203
2463  2023-12-01 12:08:10.797164
2464  2023-12-01 12:08:10.829063
2465  2023-12-01 12:08:10.876924
2466  2023-12-01 12:08:10.909525
2467  2023-12-01 12:08:10.941527
2468  2023-12-01 12:08:10.972491
2469  2023-12-01 12:08:11.005323
2470  2023-12-01 12:08:11.037337
2471  2023-12-01 12:08:11.068700
2472  2023-12-01 12:08:11.101489
2473  2023-12-01 12:08:11.133408
2474  2023-12-01 12:08:11.164460
2475  2023-12-01 12:08:11.196530
2476  2023-12-01 12:08:11.229304
2477  2023-12-01 12:08:11.276432
2478  2023-12-01 12:08:11.309295
2479  2023-12-01 12:08:11.341207
2480  2023-12-01 12:08:11.372605
2481  2023-12-01 12:08:11.405481
2482  2023-12-01 12:08:11.436571
2483  2023-12-01 12:08:11.468536
2484  2023-12-01 12:08:11.500547
2485  2023-12-01 12:08:11.532959
2486  2023-12-01 12:08:11.565184
2487  2023-12-01 12:08:11.597185
2488  2023-12-01 12:08:11.629532
2489  2023-12-01 12:08:11.677011
2490  2023-12-01 12:08:11.709498
2491  2023-12-01 12:08:11.741027
2492  2023-12-01 12:08:11.773498
2493  2023-12-01 12:08:11.805522
2494  2023-12-01 12:08:11.836691
2495  2023-12-01 12:08:11.868750
2496  2023-12-01 12:08:11.901166
2497  2023-12-01 12:08:11.933393
2498  2023-12-01 12:08:11.965263
2499  2023-12-01 12:08:11.997313
2500  2023-12-01 12:08:12.029213
2501  2023-12-01 12:08:12.077346
2502  2023-12-01 12:08:12.109547
2503  2023-12-01 12:08:12.141565
2504  2023-12-01 12:08:12.172591
2505  2023-12-01 12:08:12.204551
2506  2023-12-01 12:08:12.237217
2507  2023-12-01 12:08:12.269816
2508  2023-12-01 12:08:12.301309
2509  2023-12-01 12:08:12.333385
2510  2023-12-01 12:08:12.365301
2511  2023-12-01 12:08:12.397306
2512  2023-12-01 12:08:12.428400
2513  2023-12-01 12:08:12.477311
2514  2023-12-01 12:08:12.508527
2515  2023-12-01 12:08:12.541546
2516  2023-12-01 12:08:12.572575
2517  2023-12-01 12:08:12.604561
2518  2023-12-01 12:08:12.636682
2519  2023-12-01 12:08:12.669570
2520  2023-12-01 12:08:12.700832
2521  2023-12-01 12:08:12.732493
2522  2023-12-01 12:08:12.764726
2523  2023-12-01 12:08:12.796258
2524  2023-12-01 12:08:12.829150
2525  2023-12-01 12:08:12.876978
2526  2023-12-01 12:08:12.909470
2527  2023-12-01 12:08:12.940603
2528  2023-12-01 12:08:12.972842
2529  2023-12-01 12:08:13.004725
2530  2023-12-01 12:08:13.037387
2531  2023-12-01 12:08:13.069333
2532  2023-12-01 12:08:13.101564
2533  2023-12-01 12:08:13.132481
2534  2023-12-01 12:08:13.164693
2535  2023-12-01 12:08:13.197241
2536  2023-12-01 12:08:13.228362
2537  2023-12-01 12:08:13.276956
2538  2023-12-01 12:08:13.308466
2539  2023-12-01 12:08:13.341498
2540  2023-12-01 12:08:13.373300
2541  2023-12-01 12:08:13.404343
2542  2023-12-01 12:08:13.436809
2543  2023-12-01 12:08:13.469347
2544  2023-12-01 12:08:13.500161
2545  2023-12-01 12:08:13.533150
2546  2023-12-01 12:08:13.565138
2547  2023-12-01 12:08:13.597352
2548  2023-12-01 12:08:13.629362
2549  2023-12-01 12:08:13.677272
2550  2023-12-01 12:08:13.709543
2551  2023-12-01 12:08:13.740561
2552  2023-12-01 12:08:13.772549
2553  2023-12-01 12:08:13.805046
2554  2023-12-01 12:08:13.836535
2555  2023-12-01 12:08:13.868557
2556  2023-12-01 12:08:13.900740
2557  2023-12-01 12:08:13.933376
2558  2023-12-01 12:08:13.965352
2559  2023-12-01 12:08:13.997247
2560  2023-12-01 12:08:14.029224
2561  2023-12-01 12:08:14.076229
2562  2023-12-01 12:08:14.109172
2563  2023-12-01 12:08:14.141504
2564  2023-12-01 12:08:14.173360
2565  2023-12-01 12:08:14.204545
2566  2023-12-01 12:08:14.236576
2567  2023-12-01 12:08:14.268522
2568  2023-12-01 12:08:14.301433
2569  2023-12-01 12:08:14.332745
2570  2023-12-01 12:08:14.365375
2571  2023-12-01 12:08:14.396556
2572  2023-12-01 12:08:14.429519
2573  2023-12-01 12:08:14.476993
2574  2023-12-01 12:08:14.509569
2575  2023-12-01 12:08:14.540346
2576  2023-12-01 12:08:14.572588
2577  2023-12-01 12:08:14.604558
2578  2023-12-01 12:08:14.636399
2579  2023-12-01 12:08:14.668319
2580  2023-12-01 12:08:14.700667
2581  2023-12-01 12:08:14.732685
2582  2023-12-01 12:08:14.765346
2583  2023-12-01 12:08:14.797464
2584  2023-12-01 12:08:14.828443
2585  2023-12-01 12:08:14.876709
2586  2023-12-01 12:08:14.908495
2587  2023-12-01 12:08:14.940708
2588  2023-12-01 12:08:14.972560
2589  2023-12-01 12:08:15.004522
2590  2023-12-01 12:08:15.037298
2591  2023-12-01 12:08:15.068592
2592  2023-12-01 12:08:15.100544
2593  2023-12-01 12:08:15.133266
2594  2023-12-01 12:08:15.165073
2595  2023-12-01 12:08:15.196590
2596  2023-12-01 12:08:15.228676
2597  2023-12-01 12:08:15.277969
2598  2023-12-01 12:08:15.308988
2599  2023-12-01 12:08:15.340779
2600  2023-12-01 12:08:15.373514
2601  2023-12-01 12:08:15.404590
2602  2023-12-01 12:08:15.437094
2603  2023-12-01 12:08:15.468558
2604  2023-12-01 12:08:15.500540
2605  2023-12-01 12:08:15.532894
2606  2023-12-01 12:08:15.564537
2607  2023-12-01 12:08:15.596690
2608  2023-12-01 12:08:15.629306
2609  2023-12-01 12:08:15.676995
2610  2023-12-01 12:08:15.708608
2611  2023-12-01 12:08:15.740651
2612  2023-12-01 12:08:15.773403
2613  2023-12-01 12:08:15.804577
2614  2023-12-01 12:08:15.837082
2615  2023-12-01 12:08:15.868692
2616  2023-12-01 12:08:15.901204
2617  2023-12-01 12:08:15.933539
2618  2023-12-01 12:08:15.965219
2619  2023-12-01 12:08:15.997194
2620  2023-12-01 12:08:16.028865
2621  2023-12-01 12:08:16.077056
2622  2023-12-01 12:08:16.109724
2623  2023-12-01 12:08:16.141546
2624  2023-12-01 12:08:16.173529
2625  2023-12-01 12:08:16.204237
2626  2023-12-01 12:08:16.236931
2627  2023-12-01 12:08:16.269127
2628  2023-12-01 12:08:16.301183
2629  2023-12-01 12:08:16.332338
2630  2023-12-01 12:08:16.365075
2631  2023-12-01 12:08:16.396740
2632  2023-12-01 12:08:16.428554
2633  2023-12-01 12:08:16.477053
2634  2023-12-01 12:08:16.508560
2635  2023-12-01 12:08:16.540549
2636  2023-12-01 12:08:16.573313
2637  2023-12-01 12:08:16.604462
2638  2023-12-01 12:08:16.637520
2639  2023-12-01 12:08:16.669204
2640  2023-12-01 12:08:16.700671
2641  2023-12-01 12:08:16.733542
2642  2023-12-01 12:08:16.764548
2643  2023-12-01 12:08:16.796588
2644  2023-12-01 12:08:16.828347
2645  2023-12-01 12:08:16.877304
2646  2023-12-01 12:08:16.908433
2647  2023-12-01 12:08:16.941364
2648  2023-12-01 12:08:16.973268
2649  2023-12-01 12:08:17.005388
2650  2023-12-01 12:08:17.036548
2651  2023-12-01 12:08:17.068382
2652  2023-12-01 12:08:17.101470
2653  2023-12-01 12:08:17.133377
2654  2023-12-01 12:08:17.165426
2655  2023-12-01 12:08:17.197307
2656  2023-12-01 12:08:17.228620
2657  2023-12-01 12:08:17.277042
2658  2023-12-01 12:08:17.308602
2659  2023-12-01 12:08:17.340549
2660  2023-12-01 12:08:17.372587
2661  2023-12-01 12:08:17.404756
2662  2023-12-01 12:08:17.436823
2663  2023-12-01 12:08:17.469438
2664  2023-12-01 12:08:17.500832
2665  2023-12-01 12:08:17.533537
2666  2023-12-01 12:08:17.564739
2667  2023-12-01 12:08:17.597391
2668  2023-12-01 12:08:17.629255
2669  2023-12-01 12:08:17.677086
2670  2023-12-01 12:08:17.708789
2671  2023-12-01 12:08:17.740531
2672  2023-12-01 12:08:17.772567
2673  2023-12-01 12:08:17.804708
2674  2023-12-01 12:08:17.836758
2675  2023-12-01 12:08:17.868318
2676  2023-12-01 12:08:17.900394
2677  2023-12-01 12:08:17.932812
2678  2023-12-01 12:08:17.964662
2679  2023-12-01 12:08:17.997334
2680  2023-12-01 12:08:18.029085
2681  2023-12-01 12:08:18.077048
2682  2023-12-01 12:08:18.108536
2683  2023-12-01 12:08:18.140535
2684  2023-12-01 12:08:18.172537
2685  2023-12-01 12:08:18.205292
2686  2023-12-01 12:08:18.236501
2687  2023-12-01 12:08:18.268488
2688  2023-12-01 12:08:18.300556
2689  2023-12-01 12:08:18.333203
2690  2023-12-01 12:08:18.365413
2691  2023-12-01 12:08:18.396512
2692  2023-12-01 12:08:18.428506
2693  2023-12-01 12:08:18.476999
2694  2023-12-01 12:08:18.508703
2695  2023-12-01 12:08:18.541238
2696  2023-12-01 12:08:18.572563
2697  2023-12-01 12:08:18.604596
2698  2023-12-01 12:08:18.637206
2699  2023-12-01 12:08:18.668556
2700  2023-12-01 12:08:18.700537
2701  2023-12-01 12:08:18.733338
2702  2023-12-01 12:08:18.765438
2703  2023-12-01 12:08:18.796479
2704  2023-12-01 12:08:18.828508
2705  2023-12-01 12:08:18.877254
2706  2023-12-01 12:08:18.908588
2707  2023-12-01 12:08:18.941455
2708  2023-12-01 12:08:18.972825
2709  2023-12-01 12:08:19.004450
2710  2023-12-01 12:08:19.036315
2711  2023-12-01 12:08:19.069145
2712  2023-12-01 12:08:19.101211
2713  2023-12-01 12:08:19.133507
2714  2023-12-01 12:08:19.165353
2715  2023-12-01 12:08:19.197188
2716  2023-12-01 12:08:19.228605
2717  2023-12-01 12:08:19.277075
2718  2023-12-01 12:08:19.309544
2719  2023-12-01 12:08:19.340546
2720  2023-12-01 12:08:19.373264
2721  2023-12-01 12:08:19.404558
2722  2023-12-01 12:08:19.437342
2723  2023-12-01 12:08:19.468663
2724  2023-12-01 12:08:19.500957
2725  2023-12-01 12:08:19.532813
2726  2023-12-01 12:08:19.565801
2727  2023-12-01 12:08:19.597214
2728  2023-12-01 12:08:19.628766
2729  2023-12-01 12:08:19.677333
2730  2023-12-01 12:08:19.709537
2731  2023-12-01 12:08:19.740584
2732  2023-12-01 12:08:19.772541
2733  2023-12-01 12:08:19.804464
2734  2023-12-01 12:08:19.837496
2735  2023-12-01 12:08:19.868556
2736  2023-12-01 12:08:19.900495
2737  2023-12-01 12:08:19.933543
2738  2023-12-01 12:08:19.964848
2739  2023-12-01 12:08:19.996820
2740  2023-12-01 12:08:20.029343
2741  2023-12-01 12:08:20.076355
2742  2023-12-01 12:08:20.108497
2743  2023-12-01 12:08:20.141559
2744  2023-12-01 12:08:20.173553
2745  2023-12-01 12:08:20.205082
2746  2023-12-01 12:08:20.237300
2747  2023-12-01 12:08:20.268683
2748  2023-12-01 12:08:20.301735
2749  2023-12-01 12:08:20.332571
2750  2023-12-01 12:08:20.365325
2751  2023-12-01 12:08:20.397378
2752  2023-12-01 12:08:20.429333
2753  2023-12-01 12:08:20.476421
2754  2023-12-01 12:08:20.508558
2755  2023-12-01 12:08:20.540547
2756  2023-12-01 12:08:20.572679
2757  2023-12-01 12:08:20.604676
2758  2023-12-01 12:08:20.637208
2759  2023-12-01 12:08:20.669447
2760  2023-12-01 12:08:20.700557
2761  2023-12-01 12:08:20.733329
2762  2023-12-01 12:08:20.765304
2763  2023-12-01 12:08:20.797225
2764  2023-12-01 12:08:20.829311
2765  2023-12-01 12:08:20.876559
2766  2023-12-01 12:08:20.909278
2767  2023-12-01 12:08:20.940968
2768  2023-12-01 12:08:20.972572
2769  2023-12-01 12:08:21.005548
2770  2023-12-01 12:08:21.036551
2771  2023-12-01 12:08:21.069620
2772  2023-12-01 12:08:21.101386
2773  2023-12-01 12:08:21.132355
2774  2023-12-01 12:08:21.165219
2775  2023-12-01 12:08:21.196377
2776  2023-12-01 12:08:21.228547
2777  2023-12-01 12:08:21.277190
2778  2023-12-01 12:08:21.308501
2779  2023-12-01 12:08:21.341338
2780  2023-12-01 12:08:21.372556
2781  2023-12-01 12:08:21.404699
2782  2023-12-01 12:08:21.437560
2783  2023-12-01 12:08:21.469531
2784  2023-12-01 12:08:21.500592
2785  2023-12-01 12:08:21.532593
2786  2023-12-01 12:08:21.565362
2787  2023-12-01 12:08:21.597422
2788  2023-12-01 12:08:21.628770
2789  2023-12-01 12:08:21.676445
2790  2023-12-01 12:08:21.709204
2791  2023-12-01 12:08:21.740598
2792  2023-12-01 12:08:21.773211
2793  2023-12-01 12:08:21.805384
2794  2023-12-01 12:08:21.837269
2795  2023-12-01 12:08:21.869350
2796  2023-12-01 12:08:21.901421
2797  2023-12-01 12:08:21.933395
2798  2023-12-01 12:08:21.965336
2799  2023-12-01 12:08:21.997192
2800  2023-12-01 12:08:22.029424
2801  2023-12-01 12:08:22.077047
2802  2023-12-01 12:08:22.109846
2803  2023-12-01 12:08:22.141261
2804  2023-12-01 12:08:22.172785
2805  2023-12-01 12:08:22.204837
2806  2023-12-01 12:08:22.236738
2807  2023-12-01 12:08:22.268496
2808  2023-12-01 12:08:22.301382
2809  2023-12-01 12:08:22.332438
2810  2023-12-01 12:08:22.365214
2811  2023-12-01 12:08:22.397230
2812  2023-12-01 12:08:22.428557
2813  2023-12-01 12:08:22.476718
2814  2023-12-01 12:08:22.509495
2815  2023-12-01 12:08:22.541446
2816  2023-12-01 12:08:22.573492
2817  2023-12-01 12:08:22.605410
2818  2023-12-01 12:08:22.637449
2819  2023-12-01 12:08:22.669557
2820  2023-12-01 12:08:22.701080
2821  2023-12-01 12:08:22.733257
2822  2023-12-01 12:08:22.765154
2823  2023-12-01 12:08:22.796905
2824  2023-12-01 12:08:22.829275
2825  2023-12-01 12:08:22.877189
2826  2023-12-01 12:08:22.908557
2827  2023-12-01 12:08:22.940610
2828  2023-12-01 12:08:22.973222
2829  2023-12-01 12:08:23.004536
2830  2023-12-01 12:08:23.037195
2831  2023-12-01 12:08:23.068517
2832  2023-12-01 12:08:23.101543
2833  2023-12-01 12:08:23.133408
2834  2023-12-01 12:08:23.164774
2835  2023-12-01 12:08:23.196781
2836  2023-12-01 12:08:23.229148
2837  2023-12-01 12:08:23.276901
2838  2023-12-01 12:08:23.308827
2839  2023-12-01 12:08:23.341354
2840  2023-12-01 12:08:23.372598
2841  2023-12-01 12:08:23.405365
2842  2023-12-01 12:08:23.437423
2843  2023-12-01 12:08:23.468496
2844  2023-12-01 12:08:23.500570
2845  2023-12-01 12:08:23.533216
2846  2023-12-01 12:08:23.564597
2847  2023-12-01 12:08:23.596987
2848  2023-12-01 12:08:23.628599
2849  2023-12-01 12:08:23.677151
2850  2023-12-01 12:08:23.708841
2851  2023-12-01 12:08:23.740946
2852  2023-12-01 12:08:23.773262
2853  2023-12-01 12:08:23.805436
2854  2023-12-01 12:08:23.836223
2855  2023-12-01 12:08:23.868792
2856  2023-12-01 12:08:23.901274
2857  2023-12-01 12:08:23.933353
2858  2023-12-01 12:08:23.965352
2859  2023-12-01 12:08:23.997297
2860  2023-12-01 12:08:24.029546
2861  2023-12-01 12:08:24.077186
2862  2023-12-01 12:08:24.108595
2863  2023-12-01 12:08:24.141394
2864  2023-12-01 12:08:24.172546
2865  2023-12-01 12:08:24.204714
2866  2023-12-01 12:08:24.236788
2867  2023-12-01 12:08:24.269594
2868  2023-12-01 12:08:24.301537
2869  2023-12-01 12:08:24.333272
2870  2023-12-01 12:08:24.365486
2871  2023-12-01 12:08:24.397018
2872  2023-12-01 12:08:24.428596
2873  2023-12-01 12:08:24.477188
2874  2023-12-01 12:08:24.509403
2875  2023-12-01 12:08:24.541481
2876  2023-12-01 12:08:24.573381
2877  2023-12-01 12:08:24.605430
2878  2023-12-01 12:08:24.637550
2879  2023-12-01 12:08:24.668813
2880  2023-12-01 12:08:24.701450
2881  2023-12-01 12:08:24.732753
2882  2023-12-01 12:08:24.764782
2883  2023-12-01 12:08:24.796729
2884  2023-12-01 12:08:24.829834
2885  2023-12-01 12:08:24.877381
2886  2023-12-01 12:08:24.908773
2887  2023-12-01 12:08:24.941049
2888  2023-12-01 12:08:24.972962
2889  2023-12-01 12:08:25.004571
2890  2023-12-01 12:08:25.036770
2891  2023-12-01 12:08:25.068593
2892  2023-12-01 12:08:25.100782
2893  2023-12-01 12:08:25.132754
2894  2023-12-01 12:08:25.164705
2895  2023-12-01 12:08:25.196736
2896  2023-12-01 12:08:25.229513
2897  2023-12-01 12:08:25.277215
2898  2023-12-01 12:08:25.308826
2899  2023-12-01 12:08:25.340556
2900  2023-12-01 12:08:25.372757
2901  2023-12-01 12:08:25.404437
2902  2023-12-01 12:08:25.437168
2903  2023-12-01 12:08:25.468402
2904  2023-12-01 12:08:25.500401
2905  2023-12-01 12:08:25.532575
2906  2023-12-01 12:08:25.565381
2907  2023-12-01 12:08:25.596752
2908  2023-12-01 12:08:25.628864
2909  2023-12-01 12:08:25.677214
2910  2023-12-01 12:08:25.708782
2911  2023-12-01 12:08:25.742579
2912  2023-12-01 12:08:25.772723
2913  2023-12-01 12:08:25.807547
2914  2023-12-01 12:08:25.836747
2915  2023-12-01 12:08:25.868597
2916  2023-12-01 12:08:25.902791
2917  2023-12-01 12:08:25.932729
2918  2023-12-01 12:08:25.966778
2919  2023-12-01 12:08:25.996809
2920  2023-12-01 12:08:26.030448
2921  2023-12-01 12:08:26.078223
2922  2023-12-01 12:08:26.109018
2923  2023-12-01 12:08:26.142637
2924  2023-12-01 12:08:26.174930
2925  2023-12-01 12:08:26.206499
2926  2023-12-01 12:08:26.239569
2927  2023-12-01 12:08:26.270574
2928  2023-12-01 12:08:26.302756
2929  2023-12-01 12:08:26.332620
2930  2023-12-01 12:08:26.367574
2931  2023-12-01 12:08:26.398693
2932  2023-12-01 12:08:26.431464
2933  2023-12-01 12:08:26.478293
2934  2023-12-01 12:08:26.511568
2935  2023-12-01 12:08:26.542982
2936  2023-12-01 12:08:26.574214
2937  2023-12-01 12:08:26.606147
2938  2023-12-01 12:08:26.638413
2939  2023-12-01 12:08:26.670774
2940  2023-12-01 12:08:26.702748
2941  2023-12-01 12:08:26.733666
2942  2023-12-01 12:08:26.765792
2943  2023-12-01 12:08:26.797778
2944  2023-12-01 12:08:26.830692
2945  2023-12-01 12:08:26.879187
2946  2023-12-01 12:08:26.910534
2947  2023-12-01 12:08:26.942640
2948  2023-12-01 12:08:26.974581
2949  2023-12-01 12:08:27.005625
2950  2023-12-01 12:08:27.037818
2951  2023-12-01 12:08:27.070717
2952  2023-12-01 12:08:27.102696
2953  2023-12-01 12:08:27.133630
2954  2023-12-01 12:08:27.165720
2955  2023-12-01 12:08:27.198507
2956  2023-12-01 12:08:27.230641
2957  2023-12-01 12:08:27.278260
2958  2023-12-01 12:08:27.311467
2959  2023-12-01 12:08:27.341678
2960  2023-12-01 12:08:27.374507
2961  2023-12-01 12:08:27.406269
2962  2023-12-01 12:08:27.438364
2963  2023-12-01 12:08:27.470069
2964  2023-12-01 12:08:27.502528
2965  2023-12-01 12:08:27.533525
2966  2023-12-01 12:08:27.565215
2967  2023-12-01 12:08:27.598515
2968  2023-12-01 12:08:27.630690
2969  2023-12-01 12:08:27.677897
2970  2023-12-01 12:08:27.710738
2971  2023-12-01 12:08:27.741447
2972  2023-12-01 12:08:27.773548
2973  2023-12-01 12:08:27.807538
2974  2023-12-01 12:08:27.838515
2975  2023-12-01 12:08:27.870378
2976  2023-12-01 12:08:27.901490
2977  2023-12-01 12:08:27.933483
2978  2023-12-01 12:08:27.965468
2979  2023-12-01 12:08:27.997759
2980  2023-12-01 12:08:28.030833
2981  2023-12-01 12:08:28.079146
2982  2023-12-01 12:08:28.109980
2983  2023-12-01 12:08:28.141624
2984  2023-12-01 12:08:28.174471
2985  2023-12-01 12:08:28.205887
2986  2023-12-01 12:08:28.237275
2987  2023-12-01 12:08:28.269976
2988  2023-12-01 12:08:28.301516
2989  2023-12-01 12:08:28.334204
2990  2023-12-01 12:08:28.365423
2991  2023-12-01 12:08:28.398765
2992  2023-12-01 12:08:28.430452
2993  2023-12-01 12:08:28.478167
2994  2023-12-01 12:08:28.510521
2995  2023-12-01 12:08:28.542460
2996  2023-12-01 12:08:28.574201
2997  2023-12-01 12:08:28.605335
2998  2023-12-01 12:08:28.637359
2999  2023-12-01 12:08:28.669974
3000  2023-12-01 12:08:28.702072
3001  2023-12-01 12:08:28.734082
3002  2023-12-01 12:08:28.765243
3003  2023-12-01 12:08:28.798373
3004  2023-12-01 12:08:28.830822
3005  2023-12-01 12:08:28.878192
3006  2023-12-01 12:08:28.909202
3007  2023-12-01 12:08:28.941390
3008  2023-12-01 12:08:28.974312
3009  2023-12-01 12:08:29.005997
3010  2023-12-01 12:08:29.037160
3011  2023-12-01 12:08:29.070033
3012  2023-12-01 12:08:29.101110
3013  2023-12-01 12:08:29.134173
3014  2023-12-01 12:08:29.166128
3015  2023-12-01 12:08:29.198800
3016  2023-12-01 12:08:29.231515
3017  2023-12-01 12:08:29.276856
3018  2023-12-01 12:08:29.308869
3019  2023-12-01 12:08:29.341043
3020  2023-12-01 12:08:29.373773
3021  2023-12-01 12:08:29.404908
3022  2023-12-01 12:08:29.437297
3023  2023-12-01 12:08:29.468914
3024  2023-12-01 12:08:29.501866
3025  2023-12-01 12:08:29.532915
3026  2023-12-01 12:08:29.564656
3027  2023-12-01 12:08:29.598980
3028  2023-12-01 12:08:29.629952
3029  2023-12-01 12:08:29.677994
3030  2023-12-01 12:08:29.709939
3031  2023-12-01 12:08:29.741035
3032  2023-12-01 12:08:29.773702
3033  2023-12-01 12:08:29.804933
3034  2023-12-01 12:08:29.836848
3035  2023-12-01 12:08:29.869966
3036  2023-12-01 12:08:29.901230
3037  2023-12-01 12:08:29.933825
3038  2023-12-01 12:08:29.964867
3039  2023-12-01 12:08:29.996337
3040  2023-12-01 12:08:30.030179
3041  2023-12-01 12:08:30.076503
3042  2023-12-01 12:08:30.109705
3043  2023-12-01 12:08:30.140692
3044  2023-12-01 12:08:30.173247
3045  2023-12-01 12:08:30.204674
3046  2023-12-01 12:08:30.236706
3047  2023-12-01 12:08:30.268633
3048  2023-12-01 12:08:30.300664
3049  2023-12-01 12:08:30.332918
3050  2023-12-01 12:08:30.364892
3051  2023-12-01 12:08:30.398399
3052  2023-12-01 12:08:30.430346
3053  2023-12-01 12:08:30.476347
3054  2023-12-01 12:08:30.508780
3055  2023-12-01 12:08:30.541272
3056  2023-12-01 12:08:30.573112
3057  2023-12-01 12:08:30.604281
3058  2023-12-01 12:08:30.637471
3059  2023-12-01 12:08:30.669188
3060  2023-12-01 12:08:30.700886
3061  2023-12-01 12:08:30.733146
3062  2023-12-01 12:08:30.765146
3063  2023-12-01 12:08:30.798162
3064  2023-12-01 12:08:30.829477
3065  2023-12-01 12:08:30.877485
3066  2023-12-01 12:08:30.908555
3067  2023-12-01 12:08:30.941377
3068  2023-12-01 12:08:30.972422
3069  2023-12-01 12:08:31.004410
3070  2023-12-01 12:08:31.037252
3071  2023-12-01 12:08:31.069144
3072  2023-12-01 12:08:31.101317
3073  2023-12-01 12:08:31.132743
3074  2023-12-01 12:08:31.165208
3075  2023-12-01 12:08:31.196955
3076  2023-12-01 12:08:31.230331
3077  2023-12-01 12:08:31.277327
3078  2023-12-01 12:08:31.309201
3079  2023-12-01 12:08:31.341149
3080  2023-12-01 12:08:31.372952
3081  2023-12-01 12:08:31.404801
3082  2023-12-01 12:08:31.436789
3083  2023-12-01 12:08:31.469921
3084  2023-12-01 12:08:31.500932
3085  2023-12-01 12:08:31.533544
3086  2023-12-01 12:08:31.565673
3087  2023-12-01 12:08:31.597387
3088  2023-12-01 12:08:31.630349
3089  2023-12-01 12:08:31.678039
3090  2023-12-01 12:08:31.709878
3091  2023-12-01 12:08:31.741017
3092  2023-12-01 12:08:31.773477
3093  2023-12-01 12:08:31.804947
3094  2023-12-01 12:08:31.837551
3095  2023-12-01 12:08:31.868676
3096  2023-12-01 12:08:31.901274
3097  2023-12-01 12:08:31.932979
3098  2023-12-01 12:08:31.966013
3099  2023-12-01 12:08:31.997944
3100  2023-12-01 12:08:32.029208
3101  2023-12-01 12:08:32.077857
3102  2023-12-01 12:08:32.109937
3103  2023-12-01 12:08:32.141186
3104  2023-12-01 12:08:32.173336
3105  2023-12-01 12:08:32.206749
3106  2023-12-01 12:08:32.236590
3107  2023-12-01 12:08:32.269742
3108  2023-12-01 12:08:32.300772
3109  2023-12-01 12:08:32.332713
3110  2023-12-01 12:08:32.364848
3111  2023-12-01 12:08:32.397670
3112  2023-12-01 12:08:32.429585
3113  2023-12-01 12:08:32.478128
3114  2023-12-01 12:08:32.510070
3115  2023-12-01 12:08:32.541160
3116  2023-12-01 12:08:32.572510
3117  2023-12-01 12:08:32.606918
3118  2023-12-01 12:08:32.638632
3119  2023-12-01 12:08:32.670624
3120  2023-12-01 12:08:32.700527
3121  2023-12-01 12:08:32.732492
3122  2023-12-01 12:08:32.766683
3123  2023-12-01 12:08:32.796623
3124  2023-12-01 12:08:32.830353
3125  2023-12-01 12:08:32.877348
3126  2023-12-01 12:08:32.909484
3127  2023-12-01 12:08:32.940326
3128  2023-12-01 12:08:32.972548
3129  2023-12-01 12:08:33.006490
3130  2023-12-01 12:08:33.038404
3131  2023-12-01 12:08:33.069379
3132  2023-12-01 12:08:33.100337
3133  2023-12-01 12:08:33.132709
3134  2023-12-01 12:08:33.165360
3135  2023-12-01 12:08:33.197797
3136  2023-12-01 12:08:33.229213
3137  2023-12-01 12:08:33.277516
3138  2023-12-01 12:08:33.309439
3139  2023-12-01 12:08:33.342297
3140  2023-12-01 12:08:33.372497
3141  2023-12-01 12:08:33.405133
3142  2023-12-01 12:08:33.438296
3143  2023-12-01 12:08:33.469274
3144  2023-12-01 12:08:33.501203
3145  2023-12-01 12:08:33.533270
3146  2023-12-01 12:08:33.565045
3147  2023-12-01 12:08:33.599279
3148  2023-12-01 12:08:33.629168
3149  2023-12-01 12:08:33.678146
3150  2023-12-01 12:08:33.709053
3151  2023-12-01 12:08:33.742198
3152  2023-12-01 12:08:33.772394
3153  2023-12-01 12:08:33.805226
3154  2023-12-01 12:08:33.837790
3155  2023-12-01 12:08:33.870549
3156  2023-12-01 12:08:33.901214
3157  2023-12-01 12:08:33.933244
3158  2023-12-01 12:08:33.965066
3159  2023-12-01 12:08:33.998086
3160  2023-12-01 12:08:34.029039
3161  2023-12-01 12:08:34.077034
3162  2023-12-01 12:08:34.109759
3163  2023-12-01 12:08:34.142013
3164  2023-12-01 12:08:34.172954
3165  2023-12-01 12:08:34.204712
3166  2023-12-01 12:08:34.236807
3167  2023-12-01 12:08:34.270739
3168  2023-12-01 12:08:34.301908
3169  2023-12-01 12:08:34.333040
3170  2023-12-01 12:08:34.365025
3171  2023-12-01 12:08:34.397596
3172  2023-12-01 12:08:34.429721
3173  2023-12-01 12:08:34.476852
3174  2023-12-01 12:08:34.510347
3175  2023-12-01 12:08:34.540899
3176  2023-12-01 12:08:34.572589
3177  2023-12-01 12:08:34.604646
3178  2023-12-01 12:08:34.637816
3179  2023-12-01 12:08:34.670796
3180  2023-12-01 12:08:34.700875
3181  2023-12-01 12:08:34.732584
3182  2023-12-01 12:08:34.765815
3183  2023-12-01 12:08:34.798418
3184  2023-12-01 12:08:34.830193
3185  2023-12-01 12:08:34.876707
3186  2023-12-01 12:08:34.909688
3187  2023-12-01 12:08:34.940909
3188  2023-12-01 12:08:34.973420
3189  2023-12-01 12:08:35.005284
3190  2023-12-01 12:08:35.036682
3191  2023-12-01 12:08:35.069632
3192  2023-12-01 12:08:35.100578
3193  2023-12-01 12:08:35.133353
3194  2023-12-01 12:08:35.165611
3195  2023-12-01 12:08:35.197071
3196  2023-12-01 12:08:35.229763
3197  2023-12-01 12:08:35.276639
3198  2023-12-01 12:08:35.308557
3199  2023-12-01 12:08:35.341260
3200  2023-12-01 12:08:35.372627
3201  2023-12-01 12:08:35.404604
3202  2023-12-01 12:08:35.437421
3203  2023-12-01 12:08:35.469030
3204  2023-12-01 12:08:35.500589
3205  2023-12-01 12:08:35.532594
3206  2023-12-01 12:08:35.565457
3207  2023-12-01 12:08:35.597131
3208  2023-12-01 12:08:35.629631
3209  2023-12-01 12:08:35.676572
3210  2023-12-01 12:08:35.708542
3211  2023-12-01 12:08:35.741278
3212  2023-12-01 12:08:35.772606
3213  2023-12-01 12:08:35.804499
3214  2023-12-01 12:08:35.836350
3215  2023-12-01 12:08:35.869241
3216  2023-12-01 12:08:35.901088
3217  2023-12-01 12:08:35.933361
3218  2023-12-01 12:08:35.964554
3219  2023-12-01 12:08:35.997106
3220  2023-12-01 12:08:36.030154
3221  2023-12-01 12:08:36.077361
3222  2023-12-01 12:08:36.109619
3223  2023-12-01 12:08:36.141545
3224  2023-12-01 12:08:36.172716
3225  2023-12-01 12:08:36.205293
3226  2023-12-01 12:08:36.236669
3227  2023-12-01 12:08:36.268863
3228  2023-12-01 12:08:36.302186
3229  2023-12-01 12:08:36.332450
3230  2023-12-01 12:08:36.364606
3231  2023-12-01 12:08:36.397948
3232  2023-12-01 12:08:36.429917
3233  2023-12-01 12:08:36.476759
3234  2023-12-01 12:08:36.508329
3235  2023-12-01 12:08:36.540942
3236  2023-12-01 12:08:36.573161
3237  2023-12-01 12:08:36.604513
3238  2023-12-01 12:08:36.637223
3239  2023-12-01 12:08:36.669537
3240  2023-12-01 12:08:36.700811
3241  2023-12-01 12:08:36.733133
3242  2023-12-01 12:08:36.764623
3243  2023-12-01 12:08:36.797342
3244  2023-12-01 12:08:36.828926
3245  2023-12-01 12:08:36.876963
3246  2023-12-01 12:08:36.908969
3247  2023-12-01 12:08:36.940905
3248  2023-12-01 12:08:36.972544
3249  2023-12-01 12:08:37.005137
3250  2023-12-01 12:08:37.037639
3251  2023-12-01 12:08:37.070342
3252  2023-12-01 12:08:37.101225
3253  2023-12-01 12:08:37.133512
3254  2023-12-01 12:08:37.164503
3255  2023-12-01 12:08:37.197614
3256  2023-12-01 12:08:37.228801
3257  2023-12-01 12:08:37.276762
3258  2023-12-01 12:08:37.308493
3259  2023-12-01 12:08:37.341265
3260  2023-12-01 12:08:37.373282
3261  2023-12-01 12:08:37.404943
3262  2023-12-01 12:08:37.437155
3263  2023-12-01 12:08:37.469159
3264  2023-12-01 12:08:37.500597
3265  2023-12-01 12:08:37.532533
3266  2023-12-01 12:08:37.565549
3267  2023-12-01 12:08:37.597591
3268  2023-12-01 12:08:37.628622
3269  2023-12-01 12:08:37.676572
3270  2023-12-01 12:08:37.709346
3271  2023-12-01 12:08:37.741253
3272  2023-12-01 12:08:37.773209
3273  2023-12-01 12:08:37.805256
3274  2023-12-01 12:08:37.837361
3275  2023-12-01 12:08:37.869164
3276  2023-12-01 12:08:37.900550
3277  2023-12-01 12:08:37.932697
3278  2023-12-01 12:08:37.965444
3279  2023-12-01 12:08:37.997222
3280  2023-12-01 12:08:38.028476
3281  2023-12-01 12:08:38.077156
3282  2023-12-01 12:08:38.109186
3283  2023-12-01 12:08:38.141235
3284  2023-12-01 12:08:38.173316
3285  2023-12-01 12:08:38.204603
3286  2023-12-01 12:08:38.237023
3287  2023-12-01 12:08:38.268924
3288  2023-12-01 12:08:38.301283
3289  2023-12-01 12:08:38.332789
3290  2023-12-01 12:08:38.365235
3291  2023-12-01 12:08:38.397492
3292  2023-12-01 12:08:38.429190
3293  2023-12-01 12:08:38.476869
3294  2023-12-01 12:08:38.509517
3295  2023-12-01 12:08:38.541330
3296  2023-12-01 12:08:38.572814
3297  2023-12-01 12:08:38.605238
3298  2023-12-01 12:08:38.637291
3299  2023-12-01 12:08:38.669244
3300  2023-12-01 12:08:38.700598
3301  2023-12-01 12:08:38.735276
3302  2023-12-01 12:08:38.764681
3303  2023-12-01 12:08:38.796564
3304  2023-12-01 12:08:38.828871
3305  2023-12-01 12:08:38.876535
3306  2023-12-01 12:08:38.908592
3307  2023-12-01 12:08:38.941157
3308  2023-12-01 12:08:38.972599
3309  2023-12-01 12:08:39.004527
3310  2023-12-01 12:08:39.036723
3311  2023-12-01 12:08:39.068834
3312  2023-12-01 12:08:39.101059
3313  2023-12-01 12:08:39.132809
3314  2023-12-01 12:08:39.165291
3315  2023-12-01 12:08:39.196711
3316  2023-12-01 12:08:39.228611
3317  2023-12-01 12:08:39.276553
3318  2023-12-01 12:08:39.308896
3319  2023-12-01 12:08:39.341168
3320  2023-12-01 12:08:39.372669
3321  2023-12-01 12:08:39.404271
3322  2023-12-01 12:08:39.436530
3323  2023-12-01 12:08:39.469141
3324  2023-12-01 12:08:39.502054
3325  2023-12-01 12:08:39.532291
3326  2023-12-01 12:08:39.565215
3327  2023-12-01 12:08:39.596637
3328  2023-12-01 12:08:39.629370
3329  2023-12-01 12:08:39.677509
3330  2023-12-01 12:08:39.708556
3331  2023-12-01 12:08:39.740508
3332  2023-12-01 12:08:39.772509
3333  2023-12-01 12:08:39.804741
3334  2023-12-01 12:08:39.836393
3335  2023-12-01 12:08:39.868757
3336  2023-12-01 12:08:39.901500
3337  2023-12-01 12:08:39.933719
3338  2023-12-01 12:08:39.965377
3339  2023-12-01 12:08:39.997281
3340  2023-12-01 12:08:40.029576
3341  2023-12-01 12:08:40.076403
3342  2023-12-01 12:08:40.108626
3343  2023-12-01 12:08:40.140572
3344  2023-12-01 12:08:40.172618
3345  2023-12-01 12:08:40.205449
3346  2023-12-01 12:08:40.236605
3347  2023-12-01 12:08:40.268624
3348  2023-12-01 12:08:40.301575
3349  2023-12-01 12:08:40.333243
3350  2023-12-01 12:08:40.364536
3351  2023-12-01 12:08:40.397709
3352  2023-12-01 12:08:40.429669
3353  2023-12-01 12:08:40.477234
3354  2023-12-01 12:08:40.509416
3355  2023-12-01 12:08:40.540565
3356  2023-12-01 12:08:40.572590
3357  2023-12-01 12:08:40.605246
3358  2023-12-01 12:08:40.636379
3359  2023-12-01 12:08:40.669241
3360  2023-12-01 12:08:40.700574
3361  2023-12-01 12:08:40.732585
3362  2023-12-01 12:08:40.765246
3363  2023-12-01 12:08:40.797465
3364  2023-12-01 12:08:40.829107
3365  2023-12-01 12:08:40.876546
3366  2023-12-01 12:08:40.908923
3367  2023-12-01 12:08:40.940439
3368  2023-12-01 12:08:40.973244
3369  2023-12-01 12:08:41.004588
3370  2023-12-01 12:08:41.036562
3371  2023-12-01 12:08:41.069586
3372  2023-12-01 12:08:41.101000
3373  2023-12-01 12:08:41.132523
3374  2023-12-01 12:08:41.164797
3375  2023-12-01 12:08:41.197244
3376  2023-12-01 12:08:41.228676
3377  2023-12-01 12:08:41.277462
3378  2023-12-01 12:08:41.308602
3379  2023-12-01 12:08:41.340910
3380  2023-12-01 12:08:41.372574
3381  2023-12-01 12:08:41.405361
3382  2023-12-01 12:08:41.436431
3383  2023-12-01 12:08:41.468735
3384  2023-12-01 12:08:41.501299
3385  2023-12-01 12:08:41.533095
3386  2023-12-01 12:08:41.564892
3387  2023-12-01 12:08:41.597276
3388  2023-12-01 12:08:41.628650
3389  2023-12-01 12:08:41.676806
3390  2023-12-01 12:08:41.708304
3391  2023-12-01 12:08:41.741148
3392  2023-12-01 12:08:41.772472
3393  2023-12-01 12:08:41.804563
3394  2023-12-01 12:08:41.836886
3395  2023-12-01 12:08:41.868764
3396  2023-12-01 12:08:41.900931
3397  2023-12-01 12:08:41.932545
3398  2023-12-01 12:08:41.964329
3399  2023-12-01 12:08:41.996696
3400  2023-12-01 12:08:42.028722
3401  2023-12-01 12:08:42.077276
3402  2023-12-01 12:08:42.109133
3403  2023-12-01 12:08:42.140615
3404  2023-12-01 12:08:42.172620
3405  2023-12-01 12:08:42.204612
3406  2023-12-01 12:08:42.236506
3407  2023-12-01 12:08:42.269376
3408  2023-12-01 12:08:42.301237
3409  2023-12-01 12:08:42.333490
3410  2023-12-01 12:08:42.365264
3411  2023-12-01 12:08:42.397362
3412  2023-12-01 12:08:42.429190
3413  2023-12-01 12:08:42.476581
3414  2023-12-01 12:08:42.508780
3415  2023-12-01 12:08:42.540727
3416  2023-12-01 12:08:42.573261
3417  2023-12-01 12:08:42.605116
3418  2023-12-01 12:08:42.636544
3419  2023-12-01 12:08:42.668476
3420  2023-12-01 12:08:42.701198
3421  2023-12-01 12:08:42.734642
3422  2023-12-01 12:08:42.764712
3423  2023-12-01 12:08:42.797032
3424  2023-12-01 12:08:42.828559
3425  2023-12-01 12:08:42.877555
3426  2023-12-01 12:08:42.908571
3427  2023-12-01 12:08:42.940504
3428  2023-12-01 12:08:42.974503
3429  2023-12-01 12:08:43.005233
3430  2023-12-01 12:08:43.036579
3431  2023-12-01 12:08:43.069314
3432  2023-12-01 12:08:43.101209
3433  2023-12-01 12:08:43.133323
3434  2023-12-01 12:08:43.164767
3435  2023-12-01 12:08:43.196591
3436  2023-12-01 12:08:43.228489
3437  2023-12-01 12:08:43.276870
3438  2023-12-01 12:08:43.308949
3439  2023-12-01 12:08:43.340864
3440  2023-12-01 12:08:43.373226
3441  2023-12-01 12:08:43.404605
3442  2023-12-01 12:08:43.436582
3443  2023-12-01 12:08:43.469557
3444  2023-12-01 12:08:43.500620
3445  2023-12-01 12:08:43.532591
3446  2023-12-01 12:08:43.565125
3447  2023-12-01 12:08:43.596740
3448  2023-12-01 12:08:43.628603
3449  2023-12-01 12:08:43.676541
3450  2023-12-01 12:08:43.709208
3451  2023-12-01 12:08:43.740610
3452  2023-12-01 12:08:43.772541
3453  2023-12-01 12:08:43.804582
3454  2023-12-01 12:08:43.836578
3455  2023-12-01 12:08:43.868995
3456  2023-12-01 12:08:43.900449
3457  2023-12-01 12:08:43.933551
3458  2023-12-01 12:08:43.965213
3459  2023-12-01 12:08:43.997454
3460  2023-12-01 12:08:44.029160
3461  2023-12-01 12:08:44.076747
3462  2023-12-01 12:08:44.108581
3463  2023-12-01 12:08:44.141165
3464  2023-12-01 12:08:44.172617
3465  2023-12-01 12:08:44.204517
3466  2023-12-01 12:08:44.236583
3467  2023-12-01 12:08:44.269269
3468  2023-12-01 12:08:44.301286
3469  2023-12-01 12:08:44.332611
3470  2023-12-01 12:08:44.364486
3471  2023-12-01 12:08:44.396437
3472  2023-12-01 12:08:44.428752
3473  2023-12-01 12:08:44.476605
3474  2023-12-01 12:08:44.508486
3475  2023-12-01 12:08:44.540595
3476  2023-12-01 12:08:44.573630
3477  2023-12-01 12:08:44.604627
3478  2023-12-01 12:08:44.636568
3479  2023-12-01 12:08:44.669222
3480  2023-12-01 12:08:44.701270
3481  2023-12-01 12:08:44.733125
3482  2023-12-01 12:08:44.765088
3483  2023-12-01 12:08:44.797310
3484  2023-12-01 12:08:44.829451
3485  2023-12-01 12:08:44.877241
3486  2023-12-01 12:08:44.909211
3487  2023-12-01 12:08:44.940452
3488  2023-12-01 12:08:44.973208
3489  2023-12-01 12:08:45.004694
3490  2023-12-01 12:08:45.037348
3491  2023-12-01 12:08:45.068556
3492  2023-12-01 12:08:45.100574
3493  2023-12-01 12:08:45.132384
3494  2023-12-01 12:08:45.165123
3495  2023-12-01 12:08:45.196567
3496  2023-12-01 12:08:45.229385
3497  2023-12-01 12:08:45.276606
3498  2023-12-01 12:08:45.309389
3499  2023-12-01 12:08:45.341028
3500  2023-12-01 12:08:45.372516
3501  2023-12-01 12:08:45.405496
3502  2023-12-01 12:08:45.436580
3503  2023-12-01 12:08:45.468662
3504  2023-12-01 12:08:45.500581
3505  2023-12-01 12:08:45.532590
3506  2023-12-01 12:08:45.564932
3507  2023-12-01 12:08:45.597464
3508  2023-12-01 12:08:45.629410
3509  2023-12-01 12:08:45.676544
3510  2023-12-01 12:08:45.709505
3511  2023-12-01 12:08:45.740763
3512  2023-12-01 12:08:45.772562
3513  2023-12-01 12:08:45.804767
3514  2023-12-01 12:08:45.836545
3515  2023-12-01 12:08:45.868716
3516  2023-12-01 12:08:45.902139
3517  2023-12-01 12:08:45.933196
3518  2023-12-01 12:08:45.965204
3519  2023-12-01 12:08:45.997255
3520  2023-12-01 12:08:46.028969
3521  2023-12-01 12:08:46.076595
3522  2023-12-01 12:08:46.108463
3523  2023-12-01 12:08:46.141279
3524  2023-12-01 12:08:46.172897
3525  2023-12-01 12:08:46.204590
3526  2023-12-01 12:08:46.237576
3527  2023-12-01 12:08:46.269245
3528  2023-12-01 12:08:46.301213
3529  2023-12-01 12:08:46.333546
3530  2023-12-01 12:08:46.364927
3531  2023-12-01 12:08:46.397354
3532  2023-12-01 12:08:46.429395
3533  2023-12-01 12:08:46.476607
3534  2023-12-01 12:08:46.509570
3535  2023-12-01 12:08:46.540775
3536  2023-12-01 12:08:46.573191
3537  2023-12-01 12:08:46.605193
3538  2023-12-01 12:08:46.637507
3539  2023-12-01 12:08:46.669464
3540  2023-12-01 12:08:46.701231
3541  2023-12-01 12:08:46.732913
3542  2023-12-01 12:08:46.765261
3543  2023-12-01 12:08:46.796705
3544  2023-12-01 12:08:46.829275
3545  2023-12-01 12:08:46.876538
3546  2023-12-01 12:08:46.908611
3547  2023-12-01 12:08:46.940545
3548  2023-12-01 12:08:46.972435
3549  2023-12-01 12:08:47.005159
3550  2023-12-01 12:08:47.037408
3551  2023-12-01 12:08:47.069186
3552  2023-12-01 12:08:47.101299
3553  2023-12-01 12:08:47.132558
3554  2023-12-01 12:08:47.165235
3555  2023-12-01 12:08:47.197295
3556  2023-12-01 12:08:47.229307
3557  2023-12-01 12:08:47.276529
3558  2023-12-01 12:08:47.309242
3559  2023-12-01 12:08:47.341232
3560  2023-12-01 12:08:47.373443
3561  2023-12-01 12:08:47.404374
