
1  2023-10-20 10:54:33.219951
2  2023-10-20 10:54:33.250871
3  2023-10-20 10:54:33.297750
4  2023-10-20 10:54:33.344587
5  2023-10-20 10:54:33.390492
6  2023-10-20 10:54:33.422407
7  2023-10-20 10:54:33.470280
8  2023-10-20 10:54:33.502193
9  2023-10-20 10:54:33.550030
10  2023-10-20 10:54:33.597902
11  2023-10-20 10:54:33.629855
12  2023-10-20 10:54:33.677826
13  2023-10-20 10:54:33.709603
14  2023-10-20 10:54:33.757468
15  2023-10-20 10:54:33.805343
16  2023-10-20 10:54:33.837283
17  2023-10-20 10:54:33.883801
18  2023-10-20 10:54:33.931750
19  2023-10-20 10:54:33.962666
20  2023-10-20 10:54:34.008577
21  2023-10-20 10:54:34.054425
22  2023-10-20 10:54:34.086331
23  2023-10-20 10:54:34.133205
24  2023-10-20 10:54:34.180078
25  2023-10-20 10:54:34.211992
26  2023-10-20 10:54:34.259862
27  2023-10-20 10:54:34.306736
28  2023-10-20 10:54:34.337653
29  2023-10-20 10:54:34.384524
30  2023-10-20 10:54:34.430400
31  2023-10-20 10:54:34.462217
32  2023-10-20 10:54:34.510088
33  2023-10-20 10:54:34.557924
34  2023-10-20 10:54:34.589878
35  2023-10-20 10:54:34.637843
36  2023-10-20 10:54:34.669893
37  2023-10-20 10:54:34.717821
38  2023-10-20 10:54:34.765653
39  2023-10-20 10:54:34.797588
40  2023-10-20 10:54:34.845534
41  2023-10-20 10:54:34.877442
42  2023-10-20 10:54:34.925300
43  2023-10-20 10:54:34.973137
44  2023-10-20 10:54:35.005051
45  2023-10-20 10:54:35.052921
46  2023-10-20 10:54:35.084515
47  2023-10-20 10:54:35.131447
48  2023-10-20 10:54:35.178314
49  2023-10-20 10:54:35.210198
50  2023-10-20 10:54:35.256105
51  2023-10-20 10:54:35.302987
52  2023-10-20 10:54:35.334893
53  2023-10-20 10:54:35.382731
54  2023-10-20 10:54:35.430649
55  2023-10-20 10:54:35.462515
56  2023-10-20 10:54:35.508472
57  2023-10-20 10:54:35.556555
58  2023-10-20 10:54:35.588270
59  2023-10-20 10:54:35.636222
60  2023-10-20 10:54:35.668102
61  2023-10-20 10:54:35.716017
62  2023-10-20 10:54:35.763886
63  2023-10-20 10:54:35.795757
64  2023-10-20 10:54:35.843818
65  2023-10-20 10:54:35.890658
66  2023-10-20 10:54:35.922570
67  2023-10-20 10:54:35.970441
68  2023-10-20 10:54:36.003385
69  2023-10-20 10:54:36.050225
70  2023-10-20 10:54:36.098095
71  2023-10-20 10:54:36.130009
72  2023-10-20 10:54:36.177929
73  2023-10-20 10:54:36.209883
74  2023-10-20 10:54:36.257713
75  2023-10-20 10:54:36.305584
76  2023-10-20 10:54:36.337525
77  2023-10-20 10:54:36.383404
78  2023-10-20 10:54:36.431274
79  2023-10-20 10:54:36.463185
80  2023-10-20 10:54:36.510997
81  2023-10-20 10:54:36.543001
82  2023-10-20 10:54:36.590880
83  2023-10-20 10:54:36.638751
84  2023-10-20 10:54:36.670666
85  2023-10-20 10:54:36.718532
86  2023-10-20 10:54:36.765377
87  2023-10-20 10:54:36.797328
88  2023-10-20 10:54:36.845160
89  2023-10-20 10:54:36.877110
90  2023-10-20 10:54:36.925094
91  2023-10-20 10:54:36.972847
92  2023-10-20 10:54:37.003765
93  2023-10-20 10:54:37.051602
94  2023-10-20 10:54:37.098554
95  2023-10-20 10:54:37.130464
96  2023-10-20 10:54:37.178343
97  2023-10-20 10:54:37.209357
98  2023-10-20 10:54:37.257124
99  2023-10-20 10:54:37.305007
100  2023-10-20 10:54:37.335923
101  2023-10-20 10:54:37.382797
102  2023-10-20 10:54:37.429247
103  2023-10-20 10:54:37.461115
104  2023-10-20 10:54:37.508990
105  2023-10-20 10:54:37.557061
106  2023-10-20 10:54:37.588863
107  2023-10-20 10:54:37.636683
108  2023-10-20 10:54:37.668625
109  2023-10-20 10:54:37.715471
110  2023-10-20 10:54:37.762395
111  2023-10-20 10:54:37.793300
112  2023-10-20 10:54:37.841161
113  2023-10-20 10:54:37.889012
114  2023-10-20 10:54:37.920914
115  2023-10-20 10:54:37.968786
116  2023-10-20 10:54:38.000756
117  2023-10-20 10:54:38.048569
118  2023-10-20 10:54:38.096452
119  2023-10-20 10:54:38.128525
120  2023-10-20 10:54:38.176386
121  2023-10-20 10:54:38.223259
122  2023-10-20 10:54:38.253178
123  2023-10-20 10:54:38.301049
124  2023-10-20 10:54:38.348966
125  2023-10-20 10:54:38.380885
126  2023-10-20 10:54:38.428258
127  2023-10-20 10:54:38.460172
128  2023-10-20 10:54:38.508042
129  2023-10-20 10:54:38.555943
130  2023-10-20 10:54:38.586877
131  2023-10-20 10:54:38.633702
132  2023-10-20 10:54:38.680619
133  2023-10-20 10:54:38.711549
134  2023-10-20 10:54:38.758365
135  2023-10-20 10:54:38.805277
136  2023-10-20 10:54:38.837152
137  2023-10-20 10:54:38.883083
138  2023-10-20 10:54:38.930898
139  2023-10-20 10:54:38.962812
140  2023-10-20 10:54:39.010712
141  2023-10-20 10:54:39.043635
142  2023-10-20 10:54:39.090500
143  2023-10-20 10:54:39.138337
144  2023-10-20 10:54:39.170253
145  2023-10-20 10:54:39.218121
146  2023-10-20 10:54:39.266120
147  2023-10-20 10:54:39.297942
148  2023-10-20 10:54:39.345602
149  2023-10-20 10:54:39.377561
150  2023-10-20 10:54:39.425425
151  2023-10-20 10:54:39.472294
152  2023-10-20 10:54:39.504173
153  2023-10-20 10:54:39.552074
154  2023-10-20 10:54:39.583993
155  2023-10-20 10:54:39.631827
156  2023-10-20 10:54:39.679734
157  2023-10-20 10:54:39.711611
158  2023-10-20 10:54:39.758485
159  2023-10-20 10:54:39.806483
160  2023-10-20 10:54:39.838413
161  2023-10-20 10:54:39.885333
162  2023-10-20 10:54:39.932159
163  2023-10-20 10:54:39.964073
164  2023-10-20 10:54:40.012120
165  2023-10-20 10:54:40.042987
166  2023-10-20 10:54:40.090857
167  2023-10-20 10:54:40.136732
168  2023-10-20 10:54:40.167649
169  2023-10-20 10:54:40.214554
170  2023-10-20 10:54:40.262393
171  2023-10-20 10:54:40.294306
172  2023-10-20 10:54:40.342207
173  2023-10-20 10:54:40.389018
174  2023-10-20 10:54:40.419970
175  2023-10-20 10:54:40.467800
176  2023-10-20 10:54:40.515761
177  2023-10-20 10:54:40.548671
178  2023-10-20 10:54:40.595544
179  2023-10-20 10:54:40.626427
180  2023-10-20 10:54:40.672433
181  2023-10-20 10:54:40.720508
182  2023-10-20 10:54:40.752379
183  2023-10-20 10:54:40.800304
184  2023-10-20 10:54:40.848150
185  2023-10-20 10:54:40.880033
186  2023-10-20 10:54:40.927943
187  2023-10-20 10:54:40.959848
188  2023-10-20 10:54:41.007688
189  2023-10-20 10:54:41.054860
190  2023-10-20 10:54:41.085818
191  2023-10-20 10:54:41.132691
192  2023-10-20 10:54:41.178499
193  2023-10-20 10:54:41.210444
194  2023-10-20 10:54:41.256195
195  2023-10-20 10:54:41.304107
196  2023-10-20 10:54:41.335979
197  2023-10-20 10:54:41.383528
198  2023-10-20 10:54:41.431444
199  2023-10-20 10:54:41.463358
200  2023-10-20 10:54:41.511229
201  2023-10-20 10:54:41.543149
202  2023-10-20 10:54:41.591012
203  2023-10-20 10:54:41.639916
204  2023-10-20 10:54:41.669800
205  2023-10-20 10:54:41.717671
206  2023-10-20 10:54:41.765541
207  2023-10-20 10:54:41.797536
208  2023-10-20 10:54:41.845460
209  2023-10-20 10:54:41.877283
210  2023-10-20 10:54:41.925182
211  2023-10-20 10:54:41.973024
212  2023-10-20 10:54:42.004937
213  2023-10-20 10:54:42.052325
214  2023-10-20 10:54:42.084244
215  2023-10-20 10:54:42.132141
216  2023-10-20 10:54:42.179717
217  2023-10-20 10:54:42.211636
218  2023-10-20 10:54:42.259509
219  2023-10-20 10:54:42.307377
220  2023-10-20 10:54:42.339296
221  2023-10-20 10:54:42.387121
222  2023-10-20 10:54:42.419037
223  2023-10-20 10:54:42.466905
224  2023-10-20 10:54:42.514817
225  2023-10-20 10:54:42.547687
226  2023-10-20 10:54:42.594591
227  2023-10-20 10:54:42.626509
228  2023-10-20 10:54:42.674345
229  2023-10-20 10:54:42.721247
230  2023-10-20 10:54:42.752167
231  2023-10-20 10:54:42.799047
232  2023-10-20 10:54:42.845923
233  2023-10-20 10:54:42.877831
234  2023-10-20 10:54:42.925664
235  2023-10-20 10:54:42.973535
236  2023-10-20 10:54:43.005511
237  2023-10-20 10:54:43.052976
238  2023-10-20 10:54:43.085040
239  2023-10-20 10:54:43.132981
240  2023-10-20 10:54:43.179951
241  2023-10-20 10:54:43.211872
242  2023-10-20 10:54:43.258704
243  2023-10-20 10:54:43.305694
244  2023-10-20 10:54:43.336611
245  2023-10-20 10:54:43.382694
246  2023-10-20 10:54:43.429360
247  2023-10-20 10:54:43.461215
248  2023-10-20 10:54:43.509060
249  2023-10-20 10:54:43.557009
250  2023-10-20 10:54:43.588922
251  2023-10-20 10:54:43.636793
252  2023-10-20 10:54:43.668707
253  2023-10-20 10:54:43.716609
254  2023-10-20 10:54:43.763450
255  2023-10-20 10:54:43.795364
256  2023-10-20 10:54:43.843277
257  2023-10-20 10:54:43.890143
258  2023-10-20 10:54:43.921056
259  2023-10-20 10:54:43.968928
260  2023-10-20 10:54:44.015768
261  2023-10-20 10:54:44.047730
262  2023-10-20 10:54:44.095584
263  2023-10-20 10:54:44.127574
264  2023-10-20 10:54:44.175477
265  2023-10-20 10:54:44.223355
266  2023-10-20 10:54:44.255304
267  2023-10-20 10:54:44.303255
268  2023-10-20 10:54:44.335173
269  2023-10-20 10:54:44.383077
270  2023-10-20 10:54:44.431063
271  2023-10-20 10:54:44.462940
272  2023-10-20 10:54:44.510851
273  2023-10-20 10:54:44.542724
274  2023-10-20 10:54:44.590595
275  2023-10-20 10:54:44.638506
276  2023-10-20 10:54:44.670420
277  2023-10-20 10:54:44.718291
278  2023-10-20 10:54:44.766120
279  2023-10-20 10:54:44.798207
280  2023-10-20 10:54:44.846232
281  2023-10-20 10:54:44.878143
282  2023-10-20 10:54:44.926004
283  2023-10-20 10:54:44.973845
284  2023-10-20 10:54:45.005802
285  2023-10-20 10:54:45.052631
286  2023-10-20 10:54:45.084585
287  2023-10-20 10:54:45.132468
288  2023-10-20 10:54:45.179341
289  2023-10-20 10:54:45.211371
290  2023-10-20 10:54:45.259324
291  2023-10-20 10:54:45.305198
292  2023-10-20 10:54:45.337183
293  2023-10-20 10:54:45.385125
294  2023-10-20 10:54:45.430040
295  2023-10-20 10:54:45.460970
296  2023-10-20 10:54:45.508842
297  2023-10-20 10:54:45.555715
298  2023-10-20 10:54:45.586631
299  2023-10-20 10:54:45.634660
300  2023-10-20 10:54:45.682532
301  2023-10-20 10:54:45.714491
302  2023-10-20 10:54:45.762314
303  2023-10-20 10:54:45.794167
304  2023-10-20 10:54:45.842068
305  2023-10-20 10:54:45.889939
306  2023-10-20 10:54:45.921852
307  2023-10-20 10:54:45.969723
308  2023-10-20 10:54:46.001636
309  2023-10-20 10:54:46.048841
310  2023-10-20 10:54:46.095683
311  2023-10-20 10:54:46.127627
312  2023-10-20 10:54:46.173514
313  2023-10-20 10:54:46.221373
314  2023-10-20 10:54:46.253295
315  2023-10-20 10:54:46.301166
316  2023-10-20 10:54:46.349045
317  2023-10-20 10:54:46.380953
318  2023-10-20 10:54:46.428823
319  2023-10-20 10:54:46.460729
320  2023-10-20 10:54:46.506572
321  2023-10-20 10:54:46.554500
322  2023-10-20 10:54:46.586394
323  2023-10-20 10:54:46.632231
324  2023-10-20 10:54:46.680136
325  2023-10-20 10:54:46.712048
326  2023-10-20 10:54:46.759887
327  2023-10-20 10:54:46.807791
328  2023-10-20 10:54:46.839705
329  2023-10-20 10:54:46.887573
330  2023-10-20 10:54:46.919455
331  2023-10-20 10:54:46.965330
332  2023-10-20 10:54:47.013233
333  2023-10-20 10:54:47.044425
334  2023-10-20 10:54:47.091381
335  2023-10-20 10:54:47.139292
336  2023-10-20 10:54:47.171165
337  2023-10-20 10:54:47.219067
338  2023-10-20 10:54:47.250950
339  2023-10-20 10:54:47.298921
340  2023-10-20 10:54:47.346691
341  2023-10-20 10:54:47.378648
342  2023-10-20 10:54:47.426475
343  2023-10-20 10:54:47.474347
344  2023-10-20 10:54:47.506435
345  2023-10-20 10:54:47.554129
346  2023-10-20 10:54:47.586044
347  2023-10-20 10:54:47.633913
348  2023-10-20 10:54:47.681825
349  2023-10-20 10:54:47.713699
350  2023-10-20 10:54:47.761568
351  2023-10-20 10:54:47.792486
352  2023-10-20 10:54:47.839386
353  2023-10-20 10:54:47.885259
354  2023-10-20 10:54:47.932148
355  2023-10-20 10:54:47.963063
356  2023-10-20 10:54:48.009943
357  2023-10-20 10:54:48.056336
358  2023-10-20 10:54:48.088326
359  2023-10-20 10:54:48.136160
360  2023-10-20 10:54:48.168073
361  2023-10-20 10:54:48.215985
362  2023-10-20 10:54:48.263814
363  2023-10-20 10:54:48.295728
364  2023-10-20 10:54:48.341611
365  2023-10-20 10:54:48.389476
366  2023-10-20 10:54:48.421388
367  2023-10-20 10:54:48.469259
368  2023-10-20 10:54:48.501172
369  2023-10-20 10:54:48.550041
370  2023-10-20 10:54:48.596913
371  2023-10-20 10:54:48.628827
372  2023-10-20 10:54:48.677696
373  2023-10-20 10:54:48.722573
374  2023-10-20 10:54:48.754488
375  2023-10-20 10:54:48.802357
376  2023-10-20 10:54:48.834271
377  2023-10-20 10:54:48.882144
378  2023-10-20 10:54:48.930046
379  2023-10-20 10:54:48.961925
380  2023-10-20 10:54:49.009800
381  2023-10-20 10:54:49.057206
382  2023-10-20 10:54:49.089120
383  2023-10-20 10:54:49.136990
384  2023-10-20 10:54:49.168904
385  2023-10-20 10:54:49.214945
386  2023-10-20 10:54:49.262678
387  2023-10-20 10:54:49.294597
388  2023-10-20 10:54:49.342474
389  2023-10-20 10:54:49.390408
390  2023-10-20 10:54:49.422320
391  2023-10-20 10:54:49.470201
392  2023-10-20 10:54:49.502074
393  2023-10-20 10:54:49.550064
394  2023-10-20 10:54:49.597904
395  2023-10-20 10:54:49.629849
396  2023-10-20 10:54:49.677729
397  2023-10-20 10:54:49.709643
398  2023-10-20 10:54:49.757514
399  2023-10-20 10:54:49.805343
400  2023-10-20 10:54:49.836301
401  2023-10-20 10:54:49.883163
402  2023-10-20 10:54:49.929039
403  2023-10-20 10:54:49.960922
404  2023-10-20 10:54:50.008795
405  2023-10-20 10:54:50.056708
406  2023-10-20 10:54:50.088617
407  2023-10-20 10:54:50.136739
408  2023-10-20 10:54:50.167478
409  2023-10-20 10:54:50.215344
410  2023-10-20 10:54:50.263215
411  2023-10-20 10:54:50.294131
412  2023-10-20 10:54:50.341004
413  2023-10-20 10:54:50.388918
414  2023-10-20 10:54:50.419848
415  2023-10-20 10:54:50.466664
416  2023-10-20 10:54:50.514567
417  2023-10-20 10:54:50.546450
418  2023-10-20 10:54:50.594564
419  2023-10-20 10:54:50.626314
420  2023-10-20 10:54:50.674221
421  2023-10-20 10:54:50.721058
422  2023-10-20 10:54:50.752972
423  2023-10-20 10:54:50.800842
424  2023-10-20 10:54:50.848713
425  2023-10-20 10:54:50.880670
426  2023-10-20 10:54:50.928497
427  2023-10-20 10:54:50.960410
428  2023-10-20 10:54:51.008281
429  2023-10-20 10:54:51.054192
430  2023-10-20 10:54:51.086071
431  2023-10-20 10:54:51.133995
432  2023-10-20 10:54:51.181859
433  2023-10-20 10:54:51.213778
434  2023-10-20 10:54:51.261630
435  2023-10-20 10:54:51.293546
436  2023-10-20 10:54:51.341421
437  2023-10-20 10:54:51.389372
438  2023-10-20 10:54:51.420198
439  2023-10-20 10:54:51.467079
440  2023-10-20 10:54:51.514950
441  2023-10-20 10:54:51.546863
442  2023-10-20 10:54:51.594735
443  2023-10-20 10:54:51.626636
444  2023-10-20 10:54:51.674520
445  2023-10-20 10:54:51.722392
446  2023-10-20 10:54:51.754302
447  2023-10-20 10:54:51.802133
448  2023-10-20 10:54:51.834088
449  2023-10-20 10:54:51.881957
450  2023-10-20 10:54:51.927834
451  2023-10-20 10:54:51.959758
452  2023-10-20 10:54:52.007618
453  2023-10-20 10:54:52.053227
454  2023-10-20 10:54:52.085245
455  2023-10-20 10:54:52.133089
456  2023-10-20 10:54:52.180979
457  2023-10-20 10:54:52.212870
458  2023-10-20 10:54:52.260866
459  2023-10-20 10:54:52.292777
460  2023-10-20 10:54:52.340648
461  2023-10-20 10:54:52.387971
462  2023-10-20 10:54:52.418568
463  2023-10-20 10:54:52.466560
464  2023-10-20 10:54:52.514465
465  2023-10-20 10:54:52.546345
466  2023-10-20 10:54:52.594214
467  2023-10-20 10:54:52.626128
468  2023-10-20 10:54:52.673999
469  2023-10-20 10:54:52.721992
470  2023-10-20 10:54:52.753994
471  2023-10-20 10:54:52.801743
472  2023-10-20 10:54:52.847619
473  2023-10-20 10:54:52.879532
474  2023-10-20 10:54:52.927402
475  2023-10-20 10:54:52.959316
476  2023-10-20 10:54:53.007189
477  2023-10-20 10:54:53.053101
478  2023-10-20 10:54:53.085025
479  2023-10-20 10:54:53.130898
480  2023-10-20 10:54:53.187699
481  2023-10-20 10:54:53.225598
482  2023-10-20 10:54:53.254518
483  2023-10-20 10:54:53.310368
484  2023-10-20 10:54:53.336297
485  2023-10-20 10:54:53.382272
486  2023-10-20 10:54:53.430042
487  2023-10-20 10:54:53.461958
488  2023-10-20 10:54:53.508830
489  2023-10-20 10:54:53.553708
490  2023-10-20 10:54:53.585623
491  2023-10-20 10:54:53.633518
492  2023-10-20 10:54:53.681362
493  2023-10-20 10:54:53.713307
494  2023-10-20 10:54:53.761146
495  2023-10-20 10:54:53.793060
496  2023-10-20 10:54:53.840966
497  2023-10-20 10:54:53.888801
498  2023-10-20 10:54:53.920851
499  2023-10-20 10:54:53.966590
500  2023-10-20 10:54:54.014523
501  2023-10-20 10:54:54.046507
502  2023-10-20 10:54:54.094395
503  2023-10-20 10:54:54.126309
504  2023-10-20 10:54:54.174179
505  2023-10-20 10:54:54.222184
506  2023-10-20 10:54:54.253964
507  2023-10-20 10:54:54.301949
508  2023-10-20 10:54:54.347895
509  2023-10-20 10:54:54.379809
510  2023-10-20 10:54:54.427720
511  2023-10-20 10:54:54.459802
512  2023-10-20 10:54:54.505678
513  2023-10-20 10:54:54.552583
514  2023-10-20 10:54:54.599542
515  2023-10-20 10:54:54.631408
516  2023-10-20 10:54:54.678476
517  2023-10-20 10:54:54.709355
518  2023-10-20 10:54:54.756273
519  2023-10-20 10:54:54.804150
520  2023-10-20 10:54:54.836011
521  2023-10-20 10:54:54.881888
522  2023-10-20 10:54:54.927763
523  2023-10-20 10:54:54.959677
524  2023-10-20 10:54:55.005835
525  2023-10-20 10:54:55.053753
526  2023-10-20 10:54:55.085666
527  2023-10-20 10:54:55.133490
528  2023-10-20 10:54:55.179705
529  2023-10-20 10:54:55.211765
530  2023-10-20 10:54:55.258448
531  2023-10-20 10:54:55.305371
532  2023-10-20 10:54:55.336393
533  2023-10-20 10:54:55.384217
534  2023-10-20 10:54:55.432128
535  2023-10-20 10:54:55.464000
536  2023-10-20 10:54:55.511910
537  2023-10-20 10:54:55.543825
538  2023-10-20 10:54:55.591702
539  2023-10-20 10:54:55.639570
540  2023-10-20 10:54:55.671442
541  2023-10-20 10:54:55.719527
542  2023-10-20 10:54:55.751412
543  2023-10-20 10:54:55.799275
544  2023-10-20 10:54:55.846260
545  2023-10-20 10:54:55.876182
546  2023-10-20 10:54:55.923022
547  2023-10-20 10:54:55.970891
548  2023-10-20 10:54:56.002811
549  2023-10-20 10:54:56.050713
550  2023-10-20 10:54:56.098715
551  2023-10-20 10:54:56.130634
552  2023-10-20 10:54:56.178678
553  2023-10-20 10:54:56.210414
554  2023-10-20 10:54:56.258283
555  2023-10-20 10:54:56.304159
556  2023-10-20 10:54:56.335075
557  2023-10-20 10:54:56.382080
558  2023-10-20 10:54:56.429950
559  2023-10-20 10:54:56.460164
560  2023-10-20 10:54:56.506004
561  2023-10-20 10:54:56.553278
562  2023-10-20 10:54:56.599207
563  2023-10-20 10:54:56.631093
564  2023-10-20 10:54:56.679074
565  2023-10-20 10:54:56.711147
566  2023-10-20 10:54:56.759026
567  2023-10-20 10:54:56.805884
568  2023-10-20 10:54:56.837732
569  2023-10-20 10:54:56.885607
570  2023-10-20 10:54:56.917489
571  2023-10-20 10:54:56.965384
572  2023-10-20 10:54:57.013265
573  2023-10-20 10:54:57.045187
574  2023-10-20 10:54:57.093046
575  2023-10-20 10:54:57.140991
576  2023-10-20 10:54:57.171957
577  2023-10-20 10:54:57.218888
578  2023-10-20 10:54:57.250786
579  2023-10-20 10:54:57.297617
580  2023-10-20 10:54:57.345488
581  2023-10-20 10:54:57.378567
582  2023-10-20 10:54:57.425400
583  2023-10-20 10:54:57.471276
584  2023-10-20 10:54:57.502192
585  2023-10-20 10:54:57.549188
586  2023-10-20 10:54:57.597146
587  2023-10-20 10:54:57.629051
588  2023-10-20 10:54:57.675966
589  2023-10-20 10:54:57.723845
590  2023-10-20 10:54:57.755756
591  2023-10-20 10:54:57.803579
592  2023-10-20 10:54:57.834643
593  2023-10-20 10:54:57.881409
594  2023-10-20 10:54:57.929271
595  2023-10-20 10:54:57.961287
596  2023-10-20 10:54:58.009191
597  2023-10-20 10:54:58.057203
598  2023-10-20 10:54:58.088121
599  2023-10-20 10:54:58.135062
600  2023-10-20 10:54:58.181996
601  2023-10-20 10:54:58.213083
602  2023-10-20 10:54:58.260953
603  2023-10-20 10:54:58.292870
604  2023-10-20 10:54:58.340733
605  2023-10-20 10:54:58.388610
606  2023-10-20 10:54:58.420526
607  2023-10-20 10:54:58.468382
608  2023-10-20 10:54:58.515260
609  2023-10-20 10:54:58.547171
610  2023-10-20 10:54:58.595044
611  2023-10-20 10:54:58.626954
612  2023-10-20 10:54:58.674839
613  2023-10-20 10:54:58.721704
614  2023-10-20 10:54:58.753585
615  2023-10-20 10:54:58.801449
616  2023-10-20 10:54:58.849319
617  2023-10-20 10:54:58.881237
618  2023-10-20 10:54:58.929102
619  2023-10-20 10:54:58.960019
620  2023-10-20 10:54:59.006893
621  2023-10-20 10:54:59.053765
622  2023-10-20 10:54:59.085679
623  2023-10-20 10:54:59.133549
624  2023-10-20 10:54:59.181420
625  2023-10-20 10:54:59.212737
626  2023-10-20 10:54:59.260735
627  2023-10-20 10:54:59.292650
628  2023-10-20 10:54:59.340520
629  2023-10-20 10:54:59.386428
630  2023-10-20 10:54:59.418367
631  2023-10-20 10:54:59.464947
632  2023-10-20 10:54:59.512859
633  2023-10-20 10:54:59.544767
634  2023-10-20 10:54:59.592648
635  2023-10-20 10:54:59.640506
636  2023-10-20 10:54:59.672417
637  2023-10-20 10:54:59.720302
638  2023-10-20 10:54:59.752210
639  2023-10-20 10:54:59.800040
640  2023-10-20 10:54:59.848047
641  2023-10-20 10:54:59.879991
642  2023-10-20 10:54:59.926912
643  2023-10-20 10:54:59.972753
644  2023-10-20 10:55:00.003669
645  2023-10-20 10:55:00.051587
646  2023-10-20 10:55:00.099458
647  2023-10-20 10:55:00.131371
648  2023-10-20 10:55:00.179235
649  2023-10-20 10:55:00.211332
650  2023-10-20 10:55:00.258981
651  2023-10-20 10:55:00.306895
652  2023-10-20 10:55:00.338799
653  2023-10-20 10:55:00.385679
654  2023-10-20 10:55:00.432510
655  2023-10-20 10:55:00.463425
656  2023-10-20 10:55:00.511296
657  2023-10-20 10:55:00.557208
658  2023-10-20 10:55:00.588134
659  2023-10-20 10:55:00.636100
660  2023-10-20 10:55:00.668014
661  2023-10-20 10:55:00.716013
662  2023-10-20 10:55:00.763842
663  2023-10-20 10:55:00.795756
664  2023-10-20 10:55:00.843667
665  2023-10-20 10:55:00.890500
666  2023-10-20 10:55:00.921464
667  2023-10-20 10:55:00.969287
668  2023-10-20 10:55:01.001283
669  2023-10-20 10:55:01.049194
670  2023-10-20 10:55:01.097080
671  2023-10-20 10:55:01.128994
672  2023-10-20 10:55:01.175946
673  2023-10-20 10:55:01.222858
674  2023-10-20 10:55:01.254769
675  2023-10-20 10:55:01.302647
676  2023-10-20 10:55:01.334523
677  2023-10-20 10:55:01.382445
678  2023-10-20 10:55:01.430302
679  2023-10-20 10:55:01.462208
680  2023-10-20 10:55:01.510090
681  2023-10-20 10:55:01.556944
682  2023-10-20 10:55:01.587868
683  2023-10-20 10:55:01.635706
684  2023-10-20 10:55:01.667664
685  2023-10-20 10:55:01.715685
686  2023-10-20 10:55:01.763403
687  2023-10-20 10:55:01.795307
688  2023-10-20 10:55:01.843145
689  2023-10-20 10:55:01.889323
690  2023-10-20 10:55:01.921309
691  2023-10-20 10:55:01.969188
692  2023-10-20 10:55:02.015026
693  2023-10-20 10:55:02.045940
694  2023-10-20 10:55:02.092815
695  2023-10-20 10:55:02.140684
696  2023-10-20 10:55:02.172666
697  2023-10-20 10:55:02.220577
698  2023-10-20 10:55:02.252490
699  2023-10-20 10:55:02.300321
700  2023-10-20 10:55:02.348219
701  2023-10-20 10:55:02.380248
702  2023-10-20 10:55:02.428090
703  2023-10-20 10:55:02.460087
704  2023-10-20 10:55:02.507957
705  2023-10-20 10:55:02.553985
706  2023-10-20 10:55:02.585908
707  2023-10-20 10:55:02.633815
708  2023-10-20 10:55:02.681720
709  2023-10-20 10:55:02.713599
710  2023-10-20 10:55:02.761469
711  2023-10-20 10:55:02.793470
712  2023-10-20 10:55:02.841402
713  2023-10-20 10:55:02.889233
714  2023-10-20 10:55:02.921187
715  2023-10-20 10:55:02.969018
716  2023-10-20 10:55:03.000931
717  2023-10-20 10:55:03.048844
718  2023-10-20 10:55:03.096672
719  2023-10-20 10:55:03.128586
720  2023-10-20 10:55:03.176497
721  2023-10-20 10:55:03.224338
722  2023-10-20 10:55:03.256271
723  2023-10-20 10:55:03.304111
724  2023-10-20 10:55:03.336114
725  2023-10-20 10:55:03.381942
726  2023-10-20 10:55:03.429771
727  2023-10-20 10:55:03.461692
728  2023-10-20 10:55:03.507568
729  2023-10-20 10:55:03.555525
730  2023-10-20 10:55:03.587425
731  2023-10-20 10:55:03.635308
732  2023-10-20 10:55:03.682170
733  2023-10-20 10:55:03.713055
734  2023-10-20 10:55:03.760962
735  2023-10-20 10:55:03.792869
736  2023-10-20 10:55:03.840710
737  2023-10-20 10:55:03.888611
738  2023-10-20 10:55:03.920522
739  2023-10-20 10:55:03.966412
740  2023-10-20 10:55:04.014372
741  2023-10-20 10:55:04.046197
742  2023-10-20 10:55:04.092030
743  2023-10-20 10:55:04.138904
744  2023-10-20 10:55:04.169819
745  2023-10-20 10:55:04.217738
746  2023-10-20 10:55:04.265561
747  2023-10-20 10:55:04.296477
748  2023-10-20 10:55:04.343377
749  2023-10-20 10:55:04.390256
750  2023-10-20 10:55:04.422170
751  2023-10-20 10:55:04.468013
752  2023-10-20 10:55:04.515912
753  2023-10-20 10:55:04.547841
754  2023-10-20 10:55:04.595668
755  2023-10-20 10:55:04.627613
756  2023-10-20 10:55:04.675575
757  2023-10-20 10:55:04.723362
758  2023-10-20 10:55:04.753266
759  2023-10-20 10:55:04.801153
760  2023-10-20 10:55:04.849013
761  2023-10-20 10:55:04.879933
762  2023-10-20 10:55:04.926814
763  2023-10-20 10:55:04.973646
764  2023-10-20 10:55:05.005559
765  2023-10-20 10:55:05.053474
766  2023-10-20 10:55:05.084346
767  2023-10-20 10:55:05.132217
768  2023-10-20 10:55:05.180138
769  2023-10-20 10:55:05.212041
770  2023-10-20 10:55:05.260899
771  2023-10-20 10:55:05.306743
772  2023-10-20 10:55:05.337828
773  2023-10-20 10:55:05.384735
774  2023-10-20 10:55:05.432572
775  2023-10-20 10:55:05.464488
776  2023-10-20 10:55:05.512389
777  2023-10-20 10:55:05.544270
778  2023-10-20 10:55:05.592165
779  2023-10-20 10:55:05.638159
780  2023-10-20 10:55:05.670087
781  2023-10-20 10:55:05.717988
782  2023-10-20 10:55:05.765828
783  2023-10-20 10:55:05.797741
784  2023-10-20 10:55:05.845612
785  2023-10-20 10:55:05.877525
786  2023-10-20 10:55:05.925436
787  2023-10-20 10:55:05.973266
788  2023-10-20 10:55:06.005180
789  2023-10-20 10:55:06.051097
790  2023-10-20 10:55:06.098966
791  2023-10-20 10:55:06.130871
792  2023-10-20 10:55:06.178745
793  2023-10-20 10:55:06.210664
794  2023-10-20 10:55:06.258528
795  2023-10-20 10:55:06.306366
796  2023-10-20 10:55:06.338311
797  2023-10-20 10:55:06.386150
798  2023-10-20 10:55:06.418063
799  2023-10-20 10:55:06.465934
800  2023-10-20 10:55:06.513804
801  2023-10-20 10:55:06.545724
802  2023-10-20 10:55:06.593621
803  2023-10-20 10:55:06.640545
804  2023-10-20 10:55:06.671457
805  2023-10-20 10:55:06.719488
806  2023-10-20 10:55:06.751242
807  2023-10-20 10:55:06.799113
808  2023-10-20 10:55:06.846991
809  2023-10-20 10:55:06.878902
810  2023-10-20 10:55:06.925778
811  2023-10-20 10:55:06.973610
812  2023-10-20 10:55:07.004606
813  2023-10-20 10:55:07.052547
814  2023-10-20 10:55:07.084480
815  2023-10-20 10:55:07.132346
816  2023-10-20 10:55:07.180198
817  2023-10-20 10:55:07.211124
818  2023-10-20 10:55:07.257957
819  2023-10-20 10:55:07.303833
820  2023-10-20 10:55:07.335747
821  2023-10-20 10:55:07.383653
822  2023-10-20 10:55:07.431488
823  2023-10-20 10:55:07.463444
824  2023-10-20 10:55:07.511304
825  2023-10-20 10:55:07.543372
826  2023-10-20 10:55:07.591237
827  2023-10-20 10:55:07.639217
828  2023-10-20 10:55:07.669137
829  2023-10-20 10:55:07.716043
830  2023-10-20 10:55:07.761907
831  2023-10-20 10:55:07.793798
832  2023-10-20 10:55:07.841700
833  2023-10-20 10:55:07.889539
834  2023-10-20 10:55:07.921485
835  2023-10-20 10:55:07.969351
836  2023-10-20 10:55:08.001239
837  2023-10-20 10:55:08.049138
838  2023-10-20 10:55:08.096976
839  2023-10-20 10:55:08.128921
840  2023-10-20 10:55:08.176800
841  2023-10-20 10:55:08.223661
842  2023-10-20 10:55:08.254573
843  2023-10-20 10:55:08.302447
844  2023-10-20 10:55:08.334366
845  2023-10-20 10:55:08.381232
846  2023-10-20 10:55:08.429107
847  2023-10-20 10:55:08.461020
848  2023-10-20 10:55:08.508900
849  2023-10-20 10:55:08.555767
850  2023-10-20 10:55:08.586686
851  2023-10-20 10:55:08.632527
852  2023-10-20 10:55:08.680438
853  2023-10-20 10:55:08.712350
854  2023-10-20 10:55:08.760313
855  2023-10-20 10:55:08.806057
856  2023-10-20 10:55:08.836975
857  2023-10-20 10:55:08.883873
858  2023-10-20 10:55:08.930720
859  2023-10-20 10:55:08.962633
860  2023-10-20 10:55:09.010504
861  2023-10-20 10:55:09.056381
862  2023-10-20 10:55:09.088326
863  2023-10-20 10:55:09.136194
864  2023-10-20 10:55:09.168108
865  2023-10-20 10:55:09.215992
866  2023-10-20 10:55:09.261958
867  2023-10-20 10:55:09.293872
868  2023-10-20 10:55:09.341710
869  2023-10-20 10:55:09.388627
870  2023-10-20 10:55:09.419533
871  2023-10-20 10:55:09.467402
872  2023-10-20 10:55:09.515274
873  2023-10-20 10:55:09.547156
874  2023-10-20 10:55:09.595056
875  2023-10-20 10:55:09.626969
876  2023-10-20 10:55:09.674854
877  2023-10-20 10:55:09.722719
878  2023-10-20 10:55:09.754631
879  2023-10-20 10:55:09.802505
880  2023-10-20 10:55:09.834408
881  2023-10-20 10:55:09.881304
882  2023-10-20 10:55:09.928156
883  2023-10-20 10:55:09.959851
884  2023-10-20 10:55:10.006963
885  2023-10-20 10:55:10.053926
886  2023-10-20 10:55:10.085858
887  2023-10-20 10:55:10.132683
888  2023-10-20 10:55:10.180639
889  2023-10-20 10:55:10.210472
890  2023-10-20 10:55:10.258373
891  2023-10-20 10:55:10.306213
892  2023-10-20 10:55:10.338127
893  2023-10-20 10:55:10.386000
894  2023-10-20 10:55:10.417914
895  2023-10-20 10:55:10.465782
896  2023-10-20 10:55:10.513655
897  2023-10-20 10:55:10.546568
898  2023-10-20 10:55:10.593437
899  2023-10-20 10:55:10.640309
900  2023-10-20 10:55:10.671257
901  2023-10-20 10:55:10.719121
902  2023-10-20 10:55:10.751035
903  2023-10-20 10:55:10.798911
904  2023-10-20 10:55:10.846780
905  2023-10-20 10:55:10.878700
906  2023-10-20 10:55:10.925570
907  2023-10-20 10:55:10.972411
908  2023-10-20 10:55:11.004324
909  2023-10-20 10:55:11.052228
910  2023-10-20 10:55:11.084111
911  2023-10-20 10:55:11.132012
912  2023-10-20 10:55:11.179893
913  2023-10-20 10:55:11.211806
914  2023-10-20 10:55:11.258107
915  2023-10-20 10:55:11.305054
916  2023-10-20 10:55:11.335936
917  2023-10-20 10:55:11.382810
918  2023-10-20 10:55:11.429715
919  2023-10-20 10:55:11.460634
920  2023-10-20 10:55:11.507546
921  2023-10-20 10:55:11.555451
922  2023-10-20 10:55:11.587372
923  2023-10-20 10:55:11.635200
924  2023-10-20 10:55:11.682074
925  2023-10-20 10:55:11.712990
926  2023-10-20 10:55:11.760893
927  2023-10-20 10:55:11.792810
928  2023-10-20 10:55:11.840644
929  2023-10-20 10:55:11.888549
930  2023-10-20 10:55:11.920462
931  2023-10-20 10:55:11.968299
932  2023-10-20 10:55:12.016202
933  2023-10-20 10:55:12.048169
934  2023-10-20 10:55:12.095954
935  2023-10-20 10:55:12.127867
936  2023-10-20 10:55:12.175738
937  2023-10-20 10:55:12.222644
938  2023-10-20 10:55:12.253562
939  2023-10-20 10:55:12.300440
940  2023-10-20 10:55:12.347304
941  2023-10-20 10:55:12.379234
942  2023-10-20 10:55:12.426098
943  2023-10-20 10:55:12.473978
944  2023-10-20 10:55:12.505888
945  2023-10-20 10:55:12.552755
946  2023-10-20 10:55:12.598650
947  2023-10-20 10:55:12.630541
948  2023-10-20 10:55:12.678451
949  2023-10-20 10:55:12.710363
950  2023-10-20 10:55:12.758238
951  2023-10-20 10:55:12.805149
952  2023-10-20 10:55:12.836065
953  2023-10-20 10:55:12.883970
954  2023-10-20 10:55:12.931806
955  2023-10-20 10:55:12.963762
956  2023-10-20 10:55:13.011590
957  2023-10-20 10:55:13.043504
958  2023-10-20 10:55:13.091414
959  2023-10-20 10:55:13.139245
960  2023-10-20 10:55:13.171158
961  2023-10-20 10:55:13.219068
962  2023-10-20 10:55:13.250982
963  2023-10-20 10:55:13.298813
964  2023-10-20 10:55:13.346684
965  2023-10-20 10:55:13.378597
966  2023-10-20 10:55:13.426511
967  2023-10-20 10:55:13.474338
968  2023-10-20 10:55:13.506252
969  2023-10-20 10:55:13.554161
970  2023-10-20 10:55:13.586072
971  2023-10-20 10:55:13.633906
972  2023-10-20 10:55:13.681778
973  2023-10-20 10:55:13.711696
974  2023-10-20 10:55:13.757572
975  2023-10-20 10:55:13.804484
976  2023-10-20 10:55:13.836395
977  2023-10-20 10:55:13.884280
978  2023-10-20 10:55:13.932140
979  2023-10-20 10:55:13.964037
980  2023-10-20 10:55:14.011932
981  2023-10-20 10:55:14.043844
982  2023-10-20 10:55:14.091700
983  2023-10-20 10:55:14.139584
984  2023-10-20 10:55:14.171484
985  2023-10-20 10:55:14.219364
986  2023-10-20 10:55:14.251284
987  2023-10-20 10:55:14.299238
988  2023-10-20 10:55:14.347023
989  2023-10-20 10:55:14.377934
990  2023-10-20 10:55:14.425804
991  2023-10-20 10:55:14.473624
992  2023-10-20 10:55:14.503605
993  2023-10-20 10:55:14.551461
994  2023-10-20 10:55:14.598898
995  2023-10-20 10:55:14.629930
996  2023-10-20 10:55:14.676809
997  2023-10-20 10:55:14.723689
998  2023-10-20 10:55:14.755479
999  2023-10-20 10:55:14.801444
1000  2023-10-20 10:55:14.849372
1001  2023-10-20 10:55:14.881232
1002  2023-10-20 10:55:14.929099
1003  2023-10-20 10:55:14.961012
1004  2023-10-20 10:55:15.008882
1005  2023-10-20 10:55:15.056857
1006  2023-10-20 10:55:15.088812
1007  2023-10-20 10:55:15.135581
1008  2023-10-20 10:55:15.182454
1009  2023-10-20 10:55:15.214368
1010  2023-10-20 10:55:15.262238
1011  2023-10-20 10:55:15.294152
1012  2023-10-20 10:55:15.342022
1013  2023-10-20 10:55:15.387940
1014  2023-10-20 10:55:15.419843
1015  2023-10-20 10:55:15.467716
1016  2023-10-20 10:55:15.513598
1017  2023-10-20 10:55:15.545508
1018  2023-10-20 10:55:15.591383
1019  2023-10-20 10:55:15.639260
1020  2023-10-20 10:55:15.671193
1021  2023-10-20 10:55:15.719014
1022  2023-10-20 10:55:15.750952
1023  2023-10-20 10:55:15.798842
1024  2023-10-20 10:55:15.847668
1025  2023-10-20 10:55:15.879611
1026  2023-10-20 10:55:15.926604
1027  2023-10-20 10:55:15.974346
1028  2023-10-20 10:55:16.006259
1029  2023-10-20 10:55:16.054125
1030  2023-10-20 10:55:16.086048
1031  2023-10-20 10:55:16.133921
1032  2023-10-20 10:55:16.181788
1033  2023-10-20 10:55:16.211677
1034  2023-10-20 10:55:16.258590
1035  2023-10-20 10:55:16.306413
1036  2023-10-20 10:55:16.338326
1037  2023-10-20 10:55:16.385230
1038  2023-10-20 10:55:16.432073
1039  2023-10-20 10:55:16.462989
1040  2023-10-20 10:55:16.509530
1041  2023-10-20 10:55:16.557468
1042  2023-10-20 10:55:16.588398
1043  2023-10-20 10:55:16.636205
1044  2023-10-20 10:55:16.668119
1045  2023-10-20 10:55:16.716102
1046  2023-10-20 10:55:16.763941
1047  2023-10-20 10:55:16.795896
1048  2023-10-20 10:55:16.843209
1049  2023-10-20 10:55:16.891080
1050  2023-10-20 10:55:16.922964
1051  2023-10-20 10:55:16.970937
1052  2023-10-20 10:55:17.002854
1053  2023-10-20 10:55:17.050728
1054  2023-10-20 10:55:17.097603
1055  2023-10-20 10:55:17.128510
1056  2023-10-20 10:55:17.176394
1057  2023-10-20 10:55:17.224267
1058  2023-10-20 10:55:17.256166
1059  2023-10-20 10:55:17.304049
1060  2023-10-20 10:55:17.335962
1061  2023-10-20 10:55:17.383956
1062  2023-10-20 10:55:17.431709
1063  2023-10-20 10:55:17.463608
1064  2023-10-20 10:55:17.511480
1065  2023-10-20 10:55:17.543393
1066  2023-10-20 10:55:17.589273
1067  2023-10-20 10:55:17.637130
1068  2023-10-20 10:55:17.669076
1069  2023-10-20 10:55:17.716913
1070  2023-10-20 10:55:17.764937
1071  2023-10-20 10:55:17.796712
1072  2023-10-20 10:55:17.844543
1073  2023-10-20 10:55:17.877510
1074  2023-10-20 10:55:17.924359
1075  2023-10-20 10:55:17.972243
1076  2023-10-20 10:55:18.006106
1077  2023-10-20 10:55:18.049987
1078  2023-10-20 10:55:18.095863
1079  2023-10-20 10:55:18.127777
1080  2023-10-20 10:55:18.175647
1081  2023-10-20 10:55:18.223517
1082  2023-10-20 10:55:18.254434
1083  2023-10-20 10:55:18.301306
1084  2023-10-20 10:55:18.349177
1085  2023-10-20 10:55:18.381130
1086  2023-10-20 10:55:18.428961
1087  2023-10-20 10:55:18.460875
1088  2023-10-20 10:55:18.508745
1089  2023-10-20 10:55:18.556648
1090  2023-10-20 10:55:18.588570
1091  2023-10-20 10:55:18.636400
1092  2023-10-20 10:55:18.668314
1093  2023-10-20 10:55:18.716219
1094  2023-10-20 10:55:18.763502
1095  2023-10-20 10:55:18.795526
1096  2023-10-20 10:55:18.843486
1097  2023-10-20 10:55:18.890367
1098  2023-10-20 10:55:18.921294
1099  2023-10-20 10:55:18.968158
1100  2023-10-20 10:55:19.016170
1101  2023-10-20 10:55:19.048096
1102  2023-10-20 10:55:19.094948
1103  2023-10-20 10:55:19.125873
1104  2023-10-20 10:55:19.173745
1105  2023-10-20 10:55:19.219619
1106  2023-10-20 10:55:19.251542
1107  2023-10-20 10:55:19.299420
1108  2023-10-20 10:55:19.348239
1109  2023-10-20 10:55:19.379165
1110  2023-10-20 10:55:19.427059
1111  2023-10-20 10:55:19.458969
1112  2023-10-20 10:55:19.506809
1113  2023-10-20 10:55:19.552853
1114  2023-10-20 10:55:19.584734
1115  2023-10-20 10:55:19.632604
1116  2023-10-20 10:55:19.679477
1117  2023-10-20 10:55:19.711391
1118  2023-10-20 10:55:19.759261
1119  2023-10-20 10:55:19.807132
1120  2023-10-20 10:55:19.839045
1121  2023-10-20 10:55:19.886916
1122  2023-10-20 10:55:19.918830
1123  2023-10-20 10:55:19.965663
1124  2023-10-20 10:55:20.012084
1125  2023-10-20 10:55:20.043815
1126  2023-10-20 10:55:20.091639
1127  2023-10-20 10:55:20.139510
1128  2023-10-20 10:55:20.171423
1129  2023-10-20 10:55:20.217328
1130  2023-10-20 10:55:20.265338
1131  2023-10-20 10:55:20.296288
1132  2023-10-20 10:55:20.344158
1133  2023-10-20 10:55:20.376100
1134  2023-10-20 10:55:20.422952
1135  2023-10-20 10:55:20.470797
1136  2023-10-20 10:55:20.501736
1137  2023-10-20 10:55:20.547625
1138  2023-10-20 10:55:20.595497
1139  2023-10-20 10:55:20.627391
1140  2023-10-20 10:55:20.673396
1141  2023-10-20 10:55:20.721106
1142  2023-10-20 10:55:20.754063
1143  2023-10-20 10:55:20.801926
1144  2023-10-20 10:55:20.849957
1145  2023-10-20 10:55:20.881869
1146  2023-10-20 10:55:20.929746
1147  2023-10-20 10:55:20.973584
1148  2023-10-20 10:55:21.004500
1149  2023-10-20 10:55:21.052412
1150  2023-10-20 10:55:21.084309
1151  2023-10-20 10:55:21.132155
1152  2023-10-20 10:55:21.180057
1153  2023-10-20 10:55:21.211980
1154  2023-10-20 10:55:21.259810
1155  2023-10-20 10:55:21.306683
1156  2023-10-20 10:55:21.337599
1157  2023-10-20 10:55:21.383491
1158  2023-10-20 10:55:21.431360
1159  2023-10-20 10:55:21.461361
1160  2023-10-20 10:55:21.509226
1161  2023-10-20 10:55:21.557114
1162  2023-10-20 10:55:21.589203
1163  2023-10-20 10:55:21.636391
1164  2023-10-20 10:55:21.668294
1165  2023-10-20 10:55:21.716165
1166  2023-10-20 10:55:21.764043
1167  2023-10-20 10:55:21.795969
1168  2023-10-20 10:55:21.843797
1169  2023-10-20 10:55:21.875735
1170  2023-10-20 10:55:21.922605
1171  2023-10-20 10:55:21.970483
1172  2023-10-20 10:55:22.001360
1173  2023-10-20 10:55:22.049231
1174  2023-10-20 10:55:22.098152
1175  2023-10-20 10:55:22.129140
1176  2023-10-20 10:55:22.178007
1177  2023-10-20 10:55:22.208932
1178  2023-10-20 10:55:22.256954
1179  2023-10-20 10:55:22.304856
1180  2023-10-20 10:55:22.337013
1181  2023-10-20 10:55:22.384731
1182  2023-10-20 10:55:22.432821
1183  2023-10-20 10:55:22.465756
1184  2023-10-20 10:55:22.512605
1185  2023-10-20 10:55:22.544532
1186  2023-10-20 10:55:22.592405
1187  2023-10-20 10:55:22.640275
1188  2023-10-20 10:55:22.672142
1189  2023-10-20 10:55:22.721160
1190  2023-10-20 10:55:22.753079
1191  2023-10-20 10:55:22.800189
1192  2023-10-20 10:55:22.848030
1193  2023-10-20 10:55:22.880055
1194  2023-10-20 10:55:22.928934
1195  2023-10-20 10:55:22.960855
1196  2023-10-20 10:55:23.005666
1197  2023-10-20 10:55:23.052570
1198  2023-10-20 10:55:23.099412
1199  2023-10-20 10:55:23.131326
1200  2023-10-20 10:55:23.178301
1201  2023-10-20 10:55:23.209223
1202  2023-10-20 10:55:23.255140
1203  2023-10-20 10:55:23.303099
1204  2023-10-20 10:55:23.334003
1205  2023-10-20 10:55:23.381850
1206  2023-10-20 10:55:23.427748
1207  2023-10-20 10:55:23.459661
1208  2023-10-20 10:55:23.507535
1209  2023-10-20 10:55:23.555418
1210  2023-10-20 10:55:23.587325
1211  2023-10-20 10:55:23.635187
1212  2023-10-20 10:55:23.682070
1213  2023-10-20 10:55:23.712991
1214  2023-10-20 10:55:23.760848
1215  2023-10-20 10:55:23.793790
1216  2023-10-20 10:55:23.839649
1217  2023-10-20 10:55:23.886475
1218  2023-10-20 10:55:23.918388
1219  2023-10-20 10:55:23.964570
1220  2023-10-20 10:55:24.012484
1221  2023-10-20 10:55:24.044379
1222  2023-10-20 10:55:24.092381
1223  2023-10-20 10:55:24.140284
1224  2023-10-20 10:55:24.171168
1225  2023-10-20 10:55:24.219072
1226  2023-10-20 10:55:24.250997
1227  2023-10-20 10:55:24.298982
1228  2023-10-20 10:55:24.346896
1229  2023-10-20 10:55:24.378816
1230  2023-10-20 10:55:24.426637
1231  2023-10-20 10:55:24.473543
1232  2023-10-20 10:55:24.504471
1233  2023-10-20 10:55:24.552328
1234  2023-10-20 10:55:24.584245
1235  2023-10-20 10:55:24.632117
1236  2023-10-20 10:55:24.679951
1237  2023-10-20 10:55:24.711905
1238  2023-10-20 10:55:24.758768
1239  2023-10-20 10:55:24.805611
1240  2023-10-20 10:55:24.837525
1241  2023-10-20 10:55:24.885395
1242  2023-10-20 10:55:24.917346
1243  2023-10-20 10:55:24.965220
1244  2023-10-20 10:55:25.011090
1245  2023-10-20 10:55:25.042969
1246  2023-10-20 10:55:25.090870
1247  2023-10-20 10:55:25.138750
1248  2023-10-20 10:55:25.170663
1249  2023-10-20 10:55:25.218494
1250  2023-10-20 10:55:25.265416
1251  2023-10-20 10:55:25.296320
1252  2023-10-20 10:55:25.343206
1253  2023-10-20 10:55:25.390152
1254  2023-10-20 10:55:25.422066
1255  2023-10-20 10:55:25.467941
1256  2023-10-20 10:55:25.515843
1257  2023-10-20 10:55:25.547749
1258  2023-10-20 10:55:25.593601
1259  2023-10-20 10:55:25.640514
1260  2023-10-20 10:55:25.672428
1261  2023-10-20 10:55:25.720299
1262  2023-10-20 10:55:25.752174
1263  2023-10-20 10:55:25.800042
1264  2023-10-20 10:55:25.847959
1265  2023-10-20 10:55:25.879934
1266  2023-10-20 10:55:25.927838
1267  2023-10-20 10:55:25.973749
1268  2023-10-20 10:55:26.004631
1269  2023-10-20 10:55:26.051543
1270  2023-10-20 10:55:26.099414
1271  2023-10-20 10:55:26.131319
1272  2023-10-20 10:55:26.179188
1273  2023-10-20 10:55:26.211102
1274  2023-10-20 10:55:26.258985
1275  2023-10-20 10:55:26.304859
1276  2023-10-20 10:55:26.336758
1277  2023-10-20 10:55:26.382633
1278  2023-10-20 10:55:26.430511
1279  2023-10-20 10:55:26.462393
1280  2023-10-20 10:55:26.510262
1281  2023-10-20 10:55:26.557136
1282  2023-10-20 10:55:26.588083
1283  2023-10-20 10:55:26.635922
1284  2023-10-20 10:55:26.667836
1285  2023-10-20 10:55:26.715736
1286  2023-10-20 10:55:26.763577
1287  2023-10-20 10:55:26.795490
1288  2023-10-20 10:55:26.843412
1289  2023-10-20 10:55:26.890234
1290  2023-10-20 10:55:26.921207
1291  2023-10-20 10:55:26.968024
1292  2023-10-20 10:55:27.015936
1293  2023-10-20 10:55:27.047839
1294  2023-10-20 10:55:27.095712
1295  2023-10-20 10:55:27.127592
1296  2023-10-20 10:55:27.175497
1297  2023-10-20 10:55:27.221446
1298  2023-10-20 10:55:27.251394
1299  2023-10-20 10:55:27.299305
1300  2023-10-20 10:55:27.347217
1301  2023-10-20 10:55:27.378146
1302  2023-10-20 10:55:27.426079
1303  2023-10-20 10:55:27.473916
1304  2023-10-20 10:55:27.505830
1305  2023-10-20 10:55:27.552732
1306  2023-10-20 10:55:27.598622
1307  2023-10-20 10:55:27.629537
1308  2023-10-20 10:55:27.678410
1309  2023-10-20 10:55:27.709282
1310  2023-10-20 10:55:27.758175
1311  2023-10-20 10:55:27.805197
1312  2023-10-20 10:55:27.835081
1313  2023-10-20 10:55:27.882983
1314  2023-10-20 10:55:27.930858
1315  2023-10-20 10:55:27.962735
1316  2023-10-20 10:55:28.010639
1317  2023-10-20 10:55:28.042559
1318  2023-10-20 10:55:28.090390
1319  2023-10-20 10:55:28.138261
1320  2023-10-20 10:55:28.169177
1321  2023-10-20 10:55:28.216128
1322  2023-10-20 10:55:28.263969
1323  2023-10-20 10:55:28.295939
1324  2023-10-20 10:55:28.343840
1325  2023-10-20 10:55:28.389715
1326  2023-10-20 10:55:28.420602
1327  2023-10-20 10:55:28.467512
1328  2023-10-20 10:55:28.515345
1329  2023-10-20 10:55:28.547259
1330  2023-10-20 10:55:28.595154
1331  2023-10-20 10:55:28.627075
1332  2023-10-20 10:55:28.674913
1333  2023-10-20 10:55:28.720789
1334  2023-10-20 10:55:28.752736
1335  2023-10-20 10:55:28.800615
1336  2023-10-20 10:55:28.848477
1337  2023-10-20 10:55:28.879391
1338  2023-10-20 10:55:28.926285
1339  2023-10-20 10:55:28.974137
1340  2023-10-20 10:55:29.006057
1341  2023-10-20 10:55:29.053919
1342  2023-10-20 10:55:29.085838
1343  2023-10-20 10:55:29.133719
1344  2023-10-20 10:55:29.180580
1345  2023-10-20 10:55:29.212488
1346  2023-10-20 10:55:29.260330
1347  2023-10-20 10:55:29.292244
1348  2023-10-20 10:55:29.340114
1349  2023-10-20 10:55:29.388016
1350  2023-10-20 10:55:29.419899
1351  2023-10-20 10:55:29.467802
1352  2023-10-20 10:55:29.515670
1353  2023-10-20 10:55:29.545558
1354  2023-10-20 10:55:29.593428
1355  2023-10-20 10:55:29.639338
1356  2023-10-20 10:55:29.671259
1357  2023-10-20 10:55:29.718124
1358  2023-10-20 10:55:29.766011
1359  2023-10-20 10:55:29.797908
1360  2023-10-20 10:55:29.845745
1361  2023-10-20 10:55:29.877661
1362  2023-10-20 10:55:29.925563
1363  2023-10-20 10:55:29.971405
1364  2023-10-20 10:55:30.003319
1365  2023-10-20 10:55:30.050225
1366  2023-10-20 10:55:30.098068
1367  2023-10-20 10:55:30.130025
1368  2023-10-20 10:55:30.177847
1369  2023-10-20 10:55:30.209795
1370  2023-10-20 10:55:30.257663
1371  2023-10-20 10:55:30.305501
1372  2023-10-20 10:55:30.337415
1373  2023-10-20 10:55:30.384320
1374  2023-10-20 10:55:30.430211
1375  2023-10-20 10:55:30.462078
1376  2023-10-20 10:55:30.509991
1377  2023-10-20 10:55:30.556851
1378  2023-10-20 10:55:30.587771
1379  2023-10-20 10:55:30.635642
1380  2023-10-20 10:55:30.668551
1381  2023-10-20 10:55:30.715423
1382  2023-10-20 10:55:30.762298
1383  2023-10-20 10:55:30.793183
1384  2023-10-20 10:55:30.841053
1385  2023-10-20 10:55:30.888924
1386  2023-10-20 10:55:30.918844
1387  2023-10-20 10:55:30.966714
1388  2023-10-20 10:55:31.013587
1389  2023-10-20 10:55:31.044502
1390  2023-10-20 10:55:31.091410
1391  2023-10-20 10:55:31.139245
1392  2023-10-20 10:55:31.171159
1393  2023-10-20 10:55:31.219030
1394  2023-10-20 10:55:31.250943
1395  2023-10-20 10:55:31.297850
1396  2023-10-20 10:55:31.344690
1397  2023-10-20 10:55:31.376603
1398  2023-10-20 10:55:31.424498
1399  2023-10-20 10:55:31.472375
1400  2023-10-20 10:55:31.504289
1401  2023-10-20 10:55:31.552161
1402  2023-10-20 10:55:31.584074
1403  2023-10-20 10:55:31.631943
1404  2023-10-20 10:55:31.678785
1405  2023-10-20 10:55:31.709742
1406  2023-10-20 10:55:31.755612
1407  2023-10-20 10:55:31.803507
1408  2023-10-20 10:55:31.834748
1409  2023-10-20 10:55:31.881817
1410  2023-10-20 10:55:31.929543
1411  2023-10-20 10:55:31.960435
1412  2023-10-20 10:55:32.008356
1413  2023-10-20 10:55:32.056176
1414  2023-10-20 10:55:32.088090
1415  2023-10-20 10:55:32.135960
1416  2023-10-20 10:55:32.167874
1417  2023-10-20 10:55:32.215744
1418  2023-10-20 10:55:32.263615
1419  2023-10-20 10:55:32.295673
1420  2023-10-20 10:55:32.342403
1421  2023-10-20 10:55:32.389275
1422  2023-10-20 10:55:32.421274
1423  2023-10-20 10:55:32.469212
1424  2023-10-20 10:55:32.501127
1425  2023-10-20 10:55:32.549096
1426  2023-10-20 10:55:32.596993
1427  2023-10-20 10:55:32.628449
1428  2023-10-20 10:55:32.676388
1429  2023-10-20 10:55:32.724297
1430  2023-10-20 10:55:32.756204
1431  2023-10-20 10:55:32.804086
1432  2023-10-20 10:55:32.834992
1433  2023-10-20 10:55:32.881831
1434  2023-10-20 10:55:32.928710
1435  2023-10-20 10:55:32.973614
1436  2023-10-20 10:55:33.005592
1437  2023-10-20 10:55:33.052469
1438  2023-10-20 10:55:33.099350
1439  2023-10-20 10:55:33.131263
1440  2023-10-20 10:55:33.178128
1441  2023-10-20 10:55:33.209084
1442  2023-10-20 10:55:33.256929
1443  2023-10-20 10:55:33.303758
1444  2023-10-20 10:55:33.335672
1445  2023-10-20 10:55:33.383585
1446  2023-10-20 10:55:33.431413
1447  2023-10-20 10:55:33.463352
1448  2023-10-20 10:55:33.511226
1449  2023-10-20 10:55:33.543141
1450  2023-10-20 10:55:33.590981
1451  2023-10-20 10:55:33.638915
1452  2023-10-20 10:55:33.670792
1453  2023-10-20 10:55:33.717673
1454  2023-10-20 10:55:33.765544
1455  2023-10-20 10:55:33.797457
1456  2023-10-20 10:55:33.845293
1457  2023-10-20 10:55:33.877207
1458  2023-10-20 10:55:33.925101
1459  2023-10-20 10:55:33.971951
1460  2023-10-20 10:55:34.002900
1461  2023-10-20 10:55:34.050737
1462  2023-10-20 10:55:34.097643
1463  2023-10-20 10:55:34.129570
1464  2023-10-20 10:55:34.176397
1465  2023-10-20 10:55:34.224303
1466  2023-10-20 10:55:34.255184
1467  2023-10-20 10:55:34.302090
1468  2023-10-20 10:55:34.334007
1469  2023-10-20 10:55:34.381885
1470  2023-10-20 10:55:34.429744
1471  2023-10-20 10:55:34.461666
1472  2023-10-20 10:55:34.509535
1473  2023-10-20 10:55:34.556405
1474  2023-10-20 10:55:34.588319
1475  2023-10-20 10:55:34.636184
1476  2023-10-20 10:55:34.668112
1477  2023-10-20 10:55:34.713978
1478  2023-10-20 10:55:34.761855
1479  2023-10-20 10:55:34.793903
1480  2023-10-20 10:55:34.841767
1481  2023-10-20 10:55:34.889604
1482  2023-10-20 10:55:34.920561
1483  2023-10-20 10:55:34.968426
1484  2023-10-20 10:55:35.015429
1485  2023-10-20 10:55:35.046218
1486  2023-10-20 10:55:35.094082
1487  2023-10-20 10:55:35.125996
1488  2023-10-20 10:55:35.173923
1489  2023-10-20 10:55:35.221850
1490  2023-10-20 10:55:35.253764
1491  2023-10-20 10:55:35.299677
1492  2023-10-20 10:55:35.346513
1493  2023-10-20 10:55:35.378427
1494  2023-10-20 10:55:35.426331
1495  2023-10-20 10:55:35.474168
1496  2023-10-20 10:55:35.506081
1497  2023-10-20 10:55:35.552087
1498  2023-10-20 10:55:35.599844
1499  2023-10-20 10:55:35.629779
1500  2023-10-20 10:55:35.677650
1501  2023-10-20 10:55:35.709569
1502  2023-10-20 10:55:35.757435
1503  2023-10-20 10:55:35.805305
1504  2023-10-20 10:55:35.837220
1505  2023-10-20 10:55:35.883105
1506  2023-10-20 10:55:35.931079
1507  2023-10-20 10:55:35.963106
1508  2023-10-20 10:55:36.010952
1509  2023-10-20 10:55:36.042835
1510  2023-10-20 10:55:36.090815
1511  2023-10-20 10:55:36.138802
1512  2023-10-20 10:55:36.169717
1513  2023-10-20 10:55:36.217585
1514  2023-10-20 10:55:36.265454
1515  2023-10-20 10:55:36.297377
1516  2023-10-20 10:55:36.345243
1517  2023-10-20 10:55:36.377331
1518  2023-10-20 10:55:36.425022
1519  2023-10-20 10:55:36.472896
1520  2023-10-20 10:55:36.504811
1521  2023-10-20 10:55:36.551680
1522  2023-10-20 10:55:36.598545
1523  2023-10-20 10:55:36.630467
1524  2023-10-20 10:55:36.679336
1525  2023-10-20 10:55:36.710220
1526  2023-10-20 10:55:36.756094
1527  2023-10-20 10:55:36.803997
1528  2023-10-20 10:55:36.835912
1529  2023-10-20 10:55:36.883748
1530  2023-10-20 10:55:36.931902
1531  2023-10-20 10:55:36.963583
1532  2023-10-20 10:55:37.011403
1533  2023-10-20 10:55:37.043317
1534  2023-10-20 10:55:37.091330
1535  2023-10-20 10:55:37.139168
1536  2023-10-20 10:55:37.170133
1537  2023-10-20 10:55:37.218216
1538  2023-10-20 10:55:37.266083
1539  2023-10-20 10:55:37.298005
1540  2023-10-20 10:55:37.345835
1541  2023-10-20 10:55:37.377748
1542  2023-10-20 10:55:37.425660
1543  2023-10-20 10:55:37.472942
1544  2023-10-20 10:55:37.503974
1545  2023-10-20 10:55:37.551729
1546  2023-10-20 10:55:37.598602
1547  2023-10-20 10:55:37.629519
1548  2023-10-20 10:55:37.676432
1549  2023-10-20 10:55:37.723295
1550  2023-10-20 10:55:37.755223
1551  2023-10-20 10:55:37.803079
1552  2023-10-20 10:55:37.834997
1553  2023-10-20 10:55:37.882875
1554  2023-10-20 10:55:37.929759
1555  2023-10-20 10:55:37.961715
1556  2023-10-20 10:55:38.009542
1557  2023-10-20 10:55:38.057404
1558  2023-10-20 10:55:38.089312
1559  2023-10-20 10:55:38.137254
1560  2023-10-20 10:55:38.167434
1561  2023-10-20 10:55:38.215268
1562  2023-10-20 10:55:38.262235
1563  2023-10-20 10:55:38.293151
1564  2023-10-20 10:55:38.339036
1565  2023-10-20 10:55:38.387127
1566  2023-10-20 10:55:38.419041
1567  2023-10-20 10:55:38.466957
1568  2023-10-20 10:55:38.514783
1569  2023-10-20 10:55:38.546697
1570  2023-10-20 10:55:38.594608
1571  2023-10-20 10:55:38.626527
1572  2023-10-20 10:55:38.674351
1573  2023-10-20 10:55:38.722222
1574  2023-10-20 10:55:38.753139
1575  2023-10-20 10:55:38.800013
1576  2023-10-20 10:55:38.847984
1577  2023-10-20 10:55:38.878901
1578  2023-10-20 10:55:38.925774
1579  2023-10-20 10:55:38.971697
1580  2023-10-20 10:55:39.003708
1581  2023-10-20 10:55:39.051579
1582  2023-10-20 10:55:39.099537
1583  2023-10-20 10:55:39.131370
1584  2023-10-20 10:55:39.179230
1585  2023-10-20 10:55:39.211140
1586  2023-10-20 10:55:39.259022
1587  2023-10-20 10:55:39.306875
1588  2023-10-20 10:55:39.338796
1589  2023-10-20 10:55:39.386684
1590  2023-10-20 10:55:39.418598
1591  2023-10-20 10:55:39.466452
1592  2023-10-20 10:55:39.513332
1593  2023-10-20 10:55:39.544254
1594  2023-10-20 10:55:39.592119
1595  2023-10-20 10:55:39.639996
1596  2023-10-20 10:55:39.671902
1597  2023-10-20 10:55:39.719774
1598  2023-10-20 10:55:39.751691
1599  2023-10-20 10:55:39.799552
1600  2023-10-20 10:55:39.847453
1601  2023-10-20 10:55:39.879336
1602  2023-10-20 10:55:39.927211
1603  2023-10-20 10:55:39.959127
1604  2023-10-20 10:55:40.005998
1605  2023-10-20 10:55:40.053862
1606  2023-10-20 10:55:40.084783
1607  2023-10-20 10:55:40.133114
1608  2023-10-20 10:55:40.181080
1609  2023-10-20 10:55:40.212055
1610  2023-10-20 10:55:40.259910
1611  2023-10-20 10:55:40.307897
1612  2023-10-20 10:55:40.337858
1613  2023-10-20 10:55:40.385719
1614  2023-10-20 10:55:40.417776
1615  2023-10-20 10:55:40.465834
1616  2023-10-20 10:55:40.513517
1617  2023-10-20 10:55:40.544433
1618  2023-10-20 10:55:40.591307
1619  2023-10-20 10:55:40.639177
1620  2023-10-20 10:55:40.671174
1621  2023-10-20 10:55:40.719045
1622  2023-10-20 10:55:40.750958
1623  2023-10-20 10:55:40.797832
1624  2023-10-20 10:55:40.844741
1625  2023-10-20 10:55:40.876619
1626  2023-10-20 10:55:40.924523
1627  2023-10-20 10:55:40.972360
1628  2023-10-20 10:55:41.004273
1629  2023-10-20 10:55:41.051404
1630  2023-10-20 10:55:41.099017
1631  2023-10-20 10:55:41.130978
1632  2023-10-20 10:55:41.178842
1633  2023-10-20 10:55:41.210745
1634  2023-10-20 10:55:41.258632
1635  2023-10-20 10:55:41.305458
1636  2023-10-20 10:55:41.336407
1637  2023-10-20 10:55:41.383293
1638  2023-10-20 10:55:41.431070
1639  2023-10-20 10:55:41.462954
1640  2023-10-20 10:55:41.510832
1641  2023-10-20 10:55:41.542828
1642  2023-10-20 10:55:41.590700
1643  2023-10-20 10:55:41.638748
1644  2023-10-20 10:55:41.670648
1645  2023-10-20 10:55:41.718524
1646  2023-10-20 10:55:41.765395
1647  2023-10-20 10:55:41.797302
1648  2023-10-20 10:55:41.844172
1649  2023-10-20 10:55:41.876086
1650  2023-10-20 10:55:41.923960
1651  2023-10-20 10:55:41.971021
1652  2023-10-20 10:55:42.002900
1653  2023-10-20 10:55:42.050814
1654  2023-10-20 10:55:42.098672
1655  2023-10-20 10:55:42.130604
1656  2023-10-20 10:55:42.178454
1657  2023-10-20 10:55:42.209351
1658  2023-10-20 10:55:42.257241
1659  2023-10-20 10:55:42.305119
1660  2023-10-20 10:55:42.337033
1661  2023-10-20 10:55:42.384865
1662  2023-10-20 10:55:42.432735
1663  2023-10-20 10:55:42.464649
1664  2023-10-20 10:55:42.512519
1665  2023-10-20 10:55:42.543436
1666  2023-10-20 10:55:42.590116
1667  2023-10-20 10:55:42.637986
1668  2023-10-20 10:55:42.669900
1669  2023-10-20 10:55:42.717155
1670  2023-10-20 10:55:42.765152
1671  2023-10-20 10:55:42.797200
1672  2023-10-20 10:55:42.845138
1673  2023-10-20 10:55:42.877106
1674  2023-10-20 10:55:42.924031
1675  2023-10-20 10:55:42.970853
1676  2023-10-20 10:55:43.002766
1677  2023-10-20 10:55:43.050519
1678  2023-10-20 10:55:43.097966
1679  2023-10-20 10:55:43.129920
1680  2023-10-20 10:55:43.177837
1681  2023-10-20 10:55:43.209756
1682  2023-10-20 10:55:43.257574
1683  2023-10-20 10:55:43.304580
1684  2023-10-20 10:55:43.335688
1685  2023-10-20 10:55:43.383565
1686  2023-10-20 10:55:43.431449
1687  2023-10-20 10:55:43.462341
1688  2023-10-20 10:55:43.509215
1689  2023-10-20 10:55:43.557085
1690  2023-10-20 10:55:43.589004
1691  2023-10-20 10:55:43.636869
1692  2023-10-20 10:55:43.668750
1693  2023-10-20 10:55:43.716776
1694  2023-10-20 10:55:43.764531
1695  2023-10-20 10:55:43.796439
1696  2023-10-20 10:55:43.844251
1697  2023-10-20 10:55:43.890135
1698  2023-10-20 10:55:43.923043
1699  2023-10-20 10:55:43.969874
1700  2023-10-20 10:55:44.001788
1701  2023-10-20 10:55:44.049791
1702  2023-10-20 10:55:44.095624
1703  2023-10-20 10:55:44.127539
1704  2023-10-20 10:55:44.175444
1705  2023-10-20 10:55:44.223333
1706  2023-10-20 10:55:44.255193
1707  2023-10-20 10:55:44.303100
1708  2023-10-20 10:55:44.334977
1709  2023-10-20 10:55:44.382847
1710  2023-10-20 10:55:44.430717
1711  2023-10-20 10:55:44.462631
1712  2023-10-20 10:55:44.508608
1713  2023-10-20 10:55:44.556479
1714  2023-10-20 10:55:44.587395
1715  2023-10-20 10:55:44.634268
1716  2023-10-20 10:55:44.681269
1717  2023-10-20 10:55:44.712143
1718  2023-10-20 10:55:44.760057
1719  2023-10-20 10:55:44.806998
1720  2023-10-20 10:55:44.838047
1721  2023-10-20 10:55:44.885744
1722  2023-10-20 10:55:44.917695
1723  2023-10-20 10:55:44.965571
1724  2023-10-20 10:55:45.013418
1725  2023-10-20 10:55:45.046317
1726  2023-10-20 10:55:45.093156
1727  2023-10-20 10:55:45.142057
1728  2023-10-20 10:55:45.173114
1729  2023-10-20 10:55:45.220716
1730  2023-10-20 10:55:45.252634
1731  2023-10-20 10:55:45.300536
1732  2023-10-20 10:55:45.348407
1733  2023-10-20 10:55:45.380323
1734  2023-10-20 10:55:45.428190
1735  2023-10-20 10:55:45.459108
1736  2023-10-20 10:55:45.504953
1737  2023-10-20 10:55:45.551856
1738  2023-10-20 10:55:45.599707
1739  2023-10-20 10:55:45.629615
1740  2023-10-20 10:55:45.677450
1741  2023-10-20 10:55:45.709364
1742  2023-10-20 10:55:45.757235
1743  2023-10-20 10:55:45.805105
1744  2023-10-20 10:55:45.836021
1745  2023-10-20 10:55:45.882941
1746  2023-10-20 10:55:45.930765
1747  2023-10-20 10:55:45.962678
1748  2023-10-20 10:55:46.010601
1749  2023-10-20 10:55:46.042510
1750  2023-10-20 10:55:46.090333
1751  2023-10-20 10:55:46.138348
1752  2023-10-20 10:55:46.170262
1753  2023-10-20 10:55:46.218173
1754  2023-10-20 10:55:46.266003
1755  2023-10-20 10:55:46.297917
1756  2023-10-20 10:55:46.345915
1757  2023-10-20 10:55:46.377840
1758  2023-10-20 10:55:46.425667
1759  2023-10-20 10:55:46.473581
1760  2023-10-20 10:55:46.505452
1761  2023-10-20 10:55:46.551360
1762  2023-10-20 10:55:46.599231
1763  2023-10-20 10:55:46.631142
1764  2023-10-20 10:55:46.679014
1765  2023-10-20 10:55:46.710929
1766  2023-10-20 10:55:46.756802
1767  2023-10-20 10:55:46.802683
1768  2023-10-20 10:55:46.834562
1769  2023-10-20 10:55:46.881476
1770  2023-10-20 10:55:46.928316
1771  2023-10-20 10:55:46.960225
1772  2023-10-20 10:55:47.007127
1773  2023-10-20 10:55:47.055001
1774  2023-10-20 10:55:47.085950
1775  2023-10-20 10:55:47.132931
1776  2023-10-20 10:55:47.180801
1777  2023-10-20 10:55:47.212715
1778  2023-10-20 10:55:47.259660
1779  2023-10-20 10:55:47.306653
1780  2023-10-20 10:55:47.338566
1781  2023-10-20 10:55:47.384485
1782  2023-10-20 10:55:47.432367
1783  2023-10-20 10:55:47.464365
1784  2023-10-20 10:55:47.512276
1785  2023-10-20 10:55:47.544191
1786  2023-10-20 10:55:47.592108
1787  2023-10-20 10:55:47.639014
1788  2023-10-20 10:55:47.669899
1789  2023-10-20 10:55:47.717794
1790  2023-10-20 10:55:47.765669
1791  2023-10-20 10:55:47.797582
1792  2023-10-20 10:55:47.845519
1793  2023-10-20 10:55:47.877354
1794  2023-10-20 10:55:47.925207
1795  2023-10-20 10:55:47.973079
1796  2023-10-20 10:55:48.003994
1797  2023-10-20 10:55:48.050910
1798  2023-10-20 10:55:48.096781
1799  2023-10-20 10:55:48.128692
1800  2023-10-20 10:55:48.176567
1801  2023-10-20 10:55:48.224427
1802  2023-10-20 10:55:48.256491
1803  2023-10-20 10:55:48.304214
1804  2023-10-20 10:55:48.336096
1805  2023-10-20 10:55:48.384000
1806  2023-10-20 10:55:48.429878
1807  2023-10-20 10:55:48.461789
1808  2023-10-20 10:55:48.509658
1809  2023-10-20 10:55:48.558495
1810  2023-10-20 10:55:48.589410
1811  2023-10-20 10:55:48.635285
1812  2023-10-20 10:55:48.681935
1813  2023-10-20 10:55:48.712979
1814  2023-10-20 10:55:48.759749
1815  2023-10-20 10:55:48.807657
1816  2023-10-20 10:55:48.839570
1817  2023-10-20 10:55:48.887404
1818  2023-10-20 10:55:48.919351
1819  2023-10-20 10:55:48.967226
1820  2023-10-20 10:55:49.015092
1821  2023-10-20 10:55:49.047005
1822  2023-10-20 10:55:49.092878
1823  2023-10-20 10:55:49.138763
1824  2023-10-20 10:55:49.170680
1825  2023-10-20 10:55:49.218538
1826  2023-10-20 10:55:49.265383
1827  2023-10-20 10:55:49.296339
1828  2023-10-20 10:55:49.344206
1829  2023-10-20 10:55:49.376121
1830  2023-10-20 10:55:49.423984
1831  2023-10-20 10:55:49.471858
1832  2023-10-20 10:55:49.503771
1833  2023-10-20 10:55:49.551638
1834  2023-10-20 10:55:49.599479
1835  2023-10-20 10:55:49.629432
1836  2023-10-20 10:55:49.677301
1837  2023-10-20 10:55:49.709206
1838  2023-10-20 10:55:49.757096
1839  2023-10-20 10:55:49.804956
1840  2023-10-20 10:55:49.834842
1841  2023-10-20 10:55:49.881751
1842  2023-10-20 10:55:49.928588
1843  2023-10-20 10:55:49.959504
1844  2023-10-20 10:55:50.007559
1845  2023-10-20 10:55:50.055245
1846  2023-10-20 10:55:50.087159
1847  2023-10-20 10:55:50.135055
1848  2023-10-20 10:55:50.181938
1849  2023-10-20 10:55:50.212848
1850  2023-10-20 10:55:50.258724
1851  2023-10-20 10:55:50.306765
1852  2023-10-20 10:55:50.338515
1853  2023-10-20 10:55:50.386381
1854  2023-10-20 10:55:50.418294
1855  2023-10-20 10:55:50.466144
1856  2023-10-20 10:55:50.514034
1857  2023-10-20 10:55:50.545918
1858  2023-10-20 10:55:50.593817
1859  2023-10-20 10:55:50.625731
1860  2023-10-20 10:55:50.673615
1861  2023-10-20 10:55:50.721473
1862  2023-10-20 10:55:50.751397
1863  2023-10-20 10:55:50.799271
1864  2023-10-20 10:55:50.847138
1865  2023-10-20 10:55:50.879187
1866  2023-10-20 10:55:50.927184
1867  2023-10-20 10:55:50.958982
1868  2023-10-20 10:55:51.005849
1869  2023-10-20 10:55:51.053715
1870  2023-10-20 10:55:51.085639
1871  2023-10-20 10:55:51.133523
1872  2023-10-20 10:55:51.180375
1873  2023-10-20 10:55:51.213284
1874  2023-10-20 10:55:51.260124
1875  2023-10-20 10:55:51.308024
1876  2023-10-20 10:55:51.337913
1877  2023-10-20 10:55:51.384818
1878  2023-10-20 10:55:51.432657
1879  2023-10-20 10:55:51.464570
1880  2023-10-20 10:55:51.510480
1881  2023-10-20 10:55:51.542392
1882  2023-10-20 10:55:51.590230
1883  2023-10-20 10:55:51.638131
1884  2023-10-20 10:55:51.669199
1885  2023-10-20 10:55:51.716028
1886  2023-10-20 10:55:51.761947
1887  2023-10-20 10:55:51.793847
1888  2023-10-20 10:55:51.841696
1889  2023-10-20 10:55:51.889638
1890  2023-10-20 10:55:51.921555
1891  2023-10-20 10:55:51.969422
1892  2023-10-20 10:55:52.001350
1893  2023-10-20 10:55:52.049209
1894  2023-10-20 10:55:52.097124
1895  2023-10-20 10:55:52.129036
1896  2023-10-20 10:55:52.176941
1897  2023-10-20 10:55:52.223815
1898  2023-10-20 10:55:52.254789
1899  2023-10-20 10:55:52.302665
1900  2023-10-20 10:55:52.334581
1901  2023-10-20 10:55:52.382447
1902  2023-10-20 10:55:52.429286
1903  2023-10-20 10:55:52.461200
1904  2023-10-20 10:55:52.508107
1905  2023-10-20 10:55:52.554981
1906  2023-10-20 10:55:52.586891
1907  2023-10-20 10:55:52.634755
1908  2023-10-20 10:55:52.680640
1909  2023-10-20 10:55:52.712556
1910  2023-10-20 10:55:52.758633
1911  2023-10-20 10:55:52.806545
1912  2023-10-20 10:55:52.838451
1913  2023-10-20 10:55:52.886288
1914  2023-10-20 10:55:52.918203
1915  2023-10-20 10:55:52.966106
1916  2023-10-20 10:55:53.012977
1917  2023-10-20 10:55:53.045864
1918  2023-10-20 10:55:53.092776
1919  2023-10-20 10:55:53.140690
1920  2023-10-20 10:55:53.172672
1921  2023-10-20 10:55:53.220510
1922  2023-10-20 10:55:53.252424
1923  2023-10-20 10:55:53.300329
1924  2023-10-20 10:55:53.348165
1925  2023-10-20 10:55:53.378658
1926  2023-10-20 10:55:53.426530
1927  2023-10-20 10:55:53.474448
1928  2023-10-20 10:55:53.506363
1929  2023-10-20 10:55:53.554234
1930  2023-10-20 10:55:53.586115
1931  2023-10-20 10:55:53.634026
1932  2023-10-20 10:55:53.681908
1933  2023-10-20 10:55:53.713800
1934  2023-10-20 10:55:53.761672
1935  2023-10-20 10:55:53.793585
1936  2023-10-20 10:55:53.839466
1937  2023-10-20 10:55:53.887345
1938  2023-10-20 10:55:53.919246
1939  2023-10-20 10:55:53.967119
1940  2023-10-20 10:55:54.014988
1941  2023-10-20 10:55:54.046902
1942  2023-10-20 10:55:54.094882
1943  2023-10-20 10:55:54.126685
1944  2023-10-20 10:55:54.174556
1945  2023-10-20 10:55:54.222427
1946  2023-10-20 10:55:54.254343
1947  2023-10-20 10:55:54.302178
1948  2023-10-20 10:55:54.335090
1949  2023-10-20 10:55:54.381994
1950  2023-10-20 10:55:54.429994
1951  2023-10-20 10:55:54.461746
1952  2023-10-20 10:55:54.509659
1953  2023-10-20 10:55:54.557524
1954  2023-10-20 10:55:54.589457
1955  2023-10-20 10:55:54.635414
1956  2023-10-20 10:55:54.667291
1957  2023-10-20 10:55:54.715213
1958  2023-10-20 10:55:54.763068
1959  2023-10-20 10:55:54.794976
1960  2023-10-20 10:55:54.842863
1961  2023-10-20 10:55:54.890776
1962  2023-10-20 10:55:54.922691
1963  2023-10-20 10:55:54.969594
1964  2023-10-20 10:55:55.015477
1965  2023-10-20 10:55:55.046389
1966  2023-10-20 10:55:55.094225
1967  2023-10-20 10:55:55.126139
1968  2023-10-20 10:55:55.174043
1969  2023-10-20 10:55:55.221610
1970  2023-10-20 10:55:55.253523
1971  2023-10-20 10:55:55.301424
1972  2023-10-20 10:55:55.349337
1973  2023-10-20 10:55:55.381251
1974  2023-10-20 10:55:55.429120
1975  2023-10-20 10:55:55.461152
1976  2023-10-20 10:55:55.507944
1977  2023-10-20 10:55:55.553783
1978  2023-10-20 10:55:55.585696
1979  2023-10-20 10:55:55.633614
1980  2023-10-20 10:55:55.681438
1981  2023-10-20 10:55:55.712402
1982  2023-10-20 10:55:55.759266
1983  2023-10-20 10:55:55.807109
1984  2023-10-20 10:55:55.839050
1985  2023-10-20 10:55:55.886917
1986  2023-10-20 10:55:55.918831
1987  2023-10-20 10:55:55.966709
1988  2023-10-20 10:55:56.014566
1989  2023-10-20 10:55:56.046487
1990  2023-10-20 10:55:56.092364
1991  2023-10-20 10:55:56.139224
1992  2023-10-20 10:55:56.170149
1993  2023-10-20 10:55:56.216031
1994  2023-10-20 10:55:56.263863
1995  2023-10-20 10:55:56.293781
1996  2023-10-20 10:55:56.341685
1997  2023-10-20 10:55:56.389522
1998  2023-10-20 10:55:56.420438
1999  2023-10-20 10:55:56.467498
2000  2023-10-20 10:55:56.515338
2001  2023-10-20 10:55:56.547250
2002  2023-10-20 10:55:56.595120
2003  2023-10-20 10:55:56.626037
2004  2023-10-20 10:55:56.672947
2005  2023-10-20 10:55:56.720781
2006  2023-10-20 10:55:56.752694
2007  2023-10-20 10:55:56.799602
2008  2023-10-20 10:55:56.846513
2009  2023-10-20 10:55:56.878431
2010  2023-10-20 10:55:56.927381
2011  2023-10-20 10:55:56.973344
2012  2023-10-20 10:55:57.004174
2013  2023-10-20 10:55:57.052046
2014  2023-10-20 10:55:57.083954
2015  2023-10-20 10:55:57.131793
2016  2023-10-20 10:55:57.179700
2017  2023-10-20 10:55:57.211578
2018  2023-10-20 10:55:57.259486
2019  2023-10-20 10:55:57.307352
2020  2023-10-20 10:55:57.339269
2021  2023-10-20 10:55:57.385153
2022  2023-10-20 10:55:57.433005
2023  2023-10-20 10:55:57.463928
2024  2023-10-20 10:55:57.512798
2025  2023-10-20 10:55:57.543711
2026  2023-10-20 10:55:57.591582
2027  2023-10-20 10:55:57.639459
2028  2023-10-20 10:55:57.671366
2029  2023-10-20 10:55:57.719236
2030  2023-10-20 10:55:57.751152
2031  2023-10-20 10:55:57.799021
2032  2023-10-20 10:55:57.846901
2033  2023-10-20 10:55:57.878798
2034  2023-10-20 10:55:57.926800
2035  2023-10-20 10:55:57.973677
2036  2023-10-20 10:55:58.004592
2037  2023-10-20 10:55:58.051429
2038  2023-10-20 10:55:58.098335
2039  2023-10-20 10:55:58.130218
2040  2023-10-20 10:55:58.178088
2041  2023-10-20 10:55:58.210002
2042  2023-10-20 10:55:58.257872
2043  2023-10-20 10:55:58.303787
2044  2023-10-20 10:55:58.336661
2045  2023-10-20 10:55:58.383531
2046  2023-10-20 10:55:58.431437
2047  2023-10-20 10:55:58.463350
2048  2023-10-20 10:55:58.510232
2049  2023-10-20 10:55:58.557098
2050  2023-10-20 10:55:58.589012
2051  2023-10-20 10:55:58.637014
2052  2023-10-20 10:55:58.667793
2053  2023-10-20 10:55:58.713672
2054  2023-10-20 10:55:58.760511
2055  2023-10-20 10:55:58.792424
2056  2023-10-20 10:55:58.840328
2057  2023-10-20 10:55:58.888165
2058  2023-10-20 10:55:58.920143
2059  2023-10-20 10:55:58.968078
2060  2023-10-20 10:55:59.015984
2061  2023-10-20 10:55:59.046898
2062  2023-10-20 10:55:59.094773
2063  2023-10-20 10:55:59.126680
2064  2023-10-20 10:55:59.174558
2065  2023-10-20 10:55:59.222426
2066  2023-10-20 10:55:59.254337
2067  2023-10-20 10:55:59.299355
2068  2023-10-20 10:55:59.347053
2069  2023-10-20 10:55:59.379003
2070  2023-10-20 10:55:59.426837
2071  2023-10-20 10:55:59.473742
2072  2023-10-20 10:55:59.504661
2073  2023-10-20 10:55:59.552497
2074  2023-10-20 10:55:59.584456
2075  2023-10-20 10:55:59.632281
2076  2023-10-20 10:55:59.680151
2077  2023-10-20 10:55:59.712183
2078  2023-10-20 10:55:59.760054
2079  2023-10-20 10:55:59.806935
2080  2023-10-20 10:55:59.837843
2081  2023-10-20 10:55:59.883753
2082  2023-10-20 10:55:59.931631
2083  2023-10-20 10:55:59.963503
2084  2023-10-20 10:56:00.011556
2085  2023-10-20 10:56:00.043464
2086  2023-10-20 10:56:00.091430
2087  2023-10-20 10:56:00.139298
2088  2023-10-20 10:56:00.171208
2089  2023-10-20 10:56:00.219250
2090  2023-10-20 10:56:00.251173
2091  2023-10-20 10:56:00.299037
2092  2023-10-20 10:56:00.345030
2093  2023-10-20 10:56:00.376826
2094  2023-10-20 10:56:00.424534
2095  2023-10-20 10:56:00.472376
2096  2023-10-20 10:56:00.503288
2097  2023-10-20 10:56:00.551230
2098  2023-10-20 10:56:00.597139
2099  2023-10-20 10:56:00.629049
2100  2023-10-20 10:56:00.675926
2101  2023-10-20 10:56:00.722928
2102  2023-10-20 10:56:00.754841
2103  2023-10-20 10:56:00.803748
2104  2023-10-20 10:56:00.834662
2105  2023-10-20 10:56:00.882496
2106  2023-10-20 10:56:00.930366
2107  2023-10-20 10:56:00.962407
2108  2023-10-20 10:56:01.010380
2109  2023-10-20 10:56:01.042218
2110  2023-10-20 10:56:01.089066
2111  2023-10-20 10:56:01.136968
2112  2023-10-20 10:56:01.168850
2113  2023-10-20 10:56:01.216720
2114  2023-10-20 10:56:01.264757
2115  2023-10-20 10:56:01.296672
2116  2023-10-20 10:56:01.342549
2117  2023-10-20 10:56:01.388462
2118  2023-10-20 10:56:01.420372
2119  2023-10-20 10:56:01.468330
2120  2023-10-20 10:56:01.515200
2121  2023-10-20 10:56:01.547078
2122  2023-10-20 10:56:01.594947
2123  2023-10-20 10:56:01.626896
2124  2023-10-20 10:56:01.674764
2125  2023-10-20 10:56:01.720643
2126  2023-10-20 10:56:01.752583
2127  2023-10-20 10:56:01.800486
2128  2023-10-20 10:56:01.848591
2129  2023-10-20 10:56:01.880320
2130  2023-10-20 10:56:01.926195
2131  2023-10-20 10:56:01.975072
2132  2023-10-20 10:56:02.006983
2133  2023-10-20 10:56:02.052804
2134  2023-10-20 10:56:02.098938
2135  2023-10-20 10:56:02.130846
2136  2023-10-20 10:56:02.179776
2137  2023-10-20 10:56:02.210807
2138  2023-10-20 10:56:02.258639
2139  2023-10-20 10:56:02.306541
2140  2023-10-20 10:56:02.338461
2141  2023-10-20 10:56:02.386293
2142  2023-10-20 10:56:02.418207
2143  2023-10-20 10:56:02.466110
2144  2023-10-20 10:56:02.512951
2145  2023-10-20 10:56:02.543867
2146  2023-10-20 10:56:02.589743
2147  2023-10-20 10:56:02.636616
2148  2023-10-20 10:56:02.667532
2149  2023-10-20 10:56:02.714445
2150  2023-10-20 10:56:02.761318
2151  2023-10-20 10:56:02.793192
2152  2023-10-20 10:56:02.841094
2153  2023-10-20 10:56:02.888975
2154  2023-10-20 10:56:02.920479
2155  2023-10-20 10:56:02.968520
2156  2023-10-20 10:56:03.015375
2157  2023-10-20 10:56:03.046310
2158  2023-10-20 10:56:03.093292
2159  2023-10-20 10:56:03.140126
2160  2023-10-20 10:56:03.172051
2161  2023-10-20 10:56:03.219908
2162  2023-10-20 10:56:03.252851
2163  2023-10-20 10:56:03.299847
2164  2023-10-20 10:56:03.347762
2165  2023-10-20 10:56:03.379674
2166  2023-10-20 10:56:03.427525
2167  2023-10-20 10:56:03.475412
2168  2023-10-20 10:56:03.505333
2169  2023-10-20 10:56:03.552389
2170  2023-10-20 10:56:03.599263
2171  2023-10-20 10:56:03.631176
2172  2023-10-20 10:56:03.679046
2173  2023-10-20 10:56:03.709962
2174  2023-10-20 10:56:03.757916
2175  2023-10-20 10:56:03.805622
2176  2023-10-20 10:56:03.837536
2177  2023-10-20 10:56:03.884450
2178  2023-10-20 10:56:03.932279
2179  2023-10-20 10:56:03.964193
2180  2023-10-20 10:56:04.012105
2181  2023-10-20 10:56:04.044009
2182  2023-10-20 10:56:04.090886
2183  2023-10-20 10:56:04.137771
2184  2023-10-20 10:56:04.169780
2185  2023-10-20 10:56:04.217689
2186  2023-10-20 10:56:04.265559
2187  2023-10-20 10:56:04.297564
2188  2023-10-20 10:56:04.345514
2189  2023-10-20 10:56:04.377427
2190  2023-10-20 10:56:04.425268
2191  2023-10-20 10:56:04.473190
2192  2023-10-20 10:56:04.505091
2193  2023-10-20 10:56:04.552952
2194  2023-10-20 10:56:04.584879
2195  2023-10-20 10:56:04.632707
2196  2023-10-20 10:56:04.678746
2197  2023-10-20 10:56:04.710665
2198  2023-10-20 10:56:04.758540
2199  2023-10-20 10:56:04.805371
2200  2023-10-20 10:56:04.837325
2201  2023-10-20 10:56:04.884340
2202  2023-10-20 10:56:04.932210
2203  2023-10-20 10:56:04.963852
2204  2023-10-20 10:56:05.011723
2205  2023-10-20 10:56:05.044583
2206  2023-10-20 10:56:05.090519
2207  2023-10-20 10:56:05.138372
2208  2023-10-20 10:56:05.170265
2209  2023-10-20 10:56:05.218157
2210  2023-10-20 10:56:05.263986
2211  2023-10-20 10:56:05.295900
2212  2023-10-20 10:56:05.343804
2213  2023-10-20 10:56:05.375684
2214  2023-10-20 10:56:05.423554
2215  2023-10-20 10:56:05.469430
2216  2023-10-20 10:56:05.501344
2217  2023-10-20 10:56:05.548217
2218  2023-10-20 10:56:05.596087
2219  2023-10-20 10:56:05.628001
2220  2023-10-20 10:56:05.675920
2221  2023-10-20 10:56:05.721811
2222  2023-10-20 10:56:05.753699
2223  2023-10-20 10:56:05.801574
2224  2023-10-20 10:56:05.849437
2225  2023-10-20 10:56:05.881440
2226  2023-10-20 10:56:05.929219
2227  2023-10-20 10:56:05.960137
2228  2023-10-20 10:56:06.006014
2229  2023-10-20 10:56:06.052887
2230  2023-10-20 10:56:06.084798
2231  2023-10-20 10:56:06.132679
2232  2023-10-20 10:56:06.180537
2233  2023-10-20 10:56:06.211460
2234  2023-10-20 10:56:06.258296
2235  2023-10-20 10:56:06.307205
2236  2023-10-20 10:56:06.338096
2237  2023-10-20 10:56:06.386986
2238  2023-10-20 10:56:06.417865
2239  2023-10-20 10:56:06.465736
2240  2023-10-20 10:56:06.513670
2241  2023-10-20 10:56:06.546518
2242  2023-10-20 10:56:06.595390
2243  2023-10-20 10:56:06.639296
2244  2023-10-20 10:56:06.669184
2245  2023-10-20 10:56:06.717055
2246  2023-10-20 10:56:06.764925
2247  2023-10-20 10:56:06.796839
2248  2023-10-20 10:56:06.843879
2249  2023-10-20 10:56:06.890585
2250  2023-10-20 10:56:06.922548
2251  2023-10-20 10:56:06.970604
2252  2023-10-20 10:56:07.002552
2253  2023-10-20 10:56:07.050560
2254  2023-10-20 10:56:07.097401
2255  2023-10-20 10:56:07.128380
2256  2023-10-20 10:56:07.176315
2257  2023-10-20 10:56:07.224152
2258  2023-10-20 10:56:07.256066
2259  2023-10-20 10:56:07.304043
2260  2023-10-20 10:56:07.335850
2261  2023-10-20 10:56:07.383755
2262  2023-10-20 10:56:07.431623
2263  2023-10-20 10:56:07.463505
2264  2023-10-20 10:56:07.511375
2265  2023-10-20 10:56:07.543290
2266  2023-10-20 10:56:07.591193
2267  2023-10-20 10:56:07.640907
2268  2023-10-20 10:56:07.669826
2269  2023-10-20 10:56:07.717752
2270  2023-10-20 10:56:07.762733
2271  2023-10-20 10:56:07.793666
2272  2023-10-20 10:56:07.841495
2273  2023-10-20 10:56:07.888362
2274  2023-10-20 10:56:07.920275
2275  2023-10-20 10:56:07.968146
2276  2023-10-20 10:56:08.014065
2277  2023-10-20 10:56:08.045934
2278  2023-10-20 10:56:08.091810
2279  2023-10-20 10:56:08.139680
2280  2023-10-20 10:56:08.171728
2281  2023-10-20 10:56:08.219598
2282  2023-10-20 10:56:08.250548
2283  2023-10-20 10:56:08.297526
2284  2023-10-20 10:56:08.345431
2285  2023-10-20 10:56:08.377340
2286  2023-10-20 10:56:08.425315
2287  2023-10-20 10:56:08.473222
2288  2023-10-20 10:56:08.504102
2289  2023-10-20 10:56:08.549979
2290  2023-10-20 10:56:08.596887
2291  2023-10-20 10:56:08.628799
2292  2023-10-20 10:56:08.676669
2293  2023-10-20 10:56:08.723544
2294  2023-10-20 10:56:08.755113
2295  2023-10-20 10:56:08.803019
2296  2023-10-20 10:56:08.835041
2297  2023-10-20 10:56:08.882770
2298  2023-10-20 10:56:08.928650
2299  2023-10-20 10:56:08.959562
2300  2023-10-20 10:56:09.008409
2301  2023-10-20 10:56:09.055319
2302  2023-10-20 10:56:09.087327
2303  2023-10-20 10:56:09.136107
2304  2023-10-20 10:56:09.182974
2305  2023-10-20 10:56:09.213842
2306  2023-10-20 10:56:09.262743
2307  2023-10-20 10:56:09.293626
2308  2023-10-20 10:56:09.342688
2309  2023-10-20 10:56:09.390794
2310  2023-10-20 10:56:09.422701
2311  2023-10-20 10:56:09.468547
2312  2023-10-20 10:56:09.514473
2313  2023-10-20 10:56:09.546367
2314  2023-10-20 10:56:09.592212
2315  2023-10-20 10:56:09.640089
2316  2023-10-20 10:56:09.671995
2317  2023-10-20 10:56:09.719871
2318  2023-10-20 10:56:09.751809
2319  2023-10-20 10:56:09.799613
2320  2023-10-20 10:56:09.847524
2321  2023-10-20 10:56:09.879436
2322  2023-10-20 10:56:09.927268
2323  2023-10-20 10:56:09.959182
2324  2023-10-20 10:56:10.007234
2325  2023-10-20 10:56:10.055072
2326  2023-10-20 10:56:10.087018
2327  2023-10-20 10:56:10.132894
2328  2023-10-20 10:56:10.180780
2329  2023-10-20 10:56:10.212682
2330  2023-10-20 10:56:10.259614
2331  2023-10-20 10:56:10.306574
2332  2023-10-20 10:56:10.338486
2333  2023-10-20 10:56:10.386352
2334  2023-10-20 10:56:10.418409
2335  2023-10-20 10:56:10.466280
2336  2023-10-20 10:56:10.515121
2337  2023-10-20 10:56:10.546034
2338  2023-10-20 10:56:10.592941
2339  2023-10-20 10:56:10.639826
2340  2023-10-20 10:56:10.671748
2341  2023-10-20 10:56:10.718638
2342  2023-10-20 10:56:10.751511
2343  2023-10-20 10:56:10.796356
2344  2023-10-20 10:56:10.844226
2345  2023-10-20 10:56:10.876140
2346  2023-10-20 10:56:10.925008
2347  2023-10-20 10:56:10.969886
2348  2023-10-20 10:56:11.000802
2349  2023-10-20 10:56:11.047848
2350  2023-10-20 10:56:11.095683
2351  2023-10-20 10:56:11.127596
2352  2023-10-20 10:56:11.175503
2353  2023-10-20 10:56:11.223337
2354  2023-10-20 10:56:11.254215
2355  2023-10-20 10:56:11.301121
2356  2023-10-20 10:56:11.346966
2357  2023-10-20 10:56:11.378912
2358  2023-10-20 10:56:11.426784
2359  2023-10-20 10:56:11.473654
2360  2023-10-20 10:56:11.504589
2361  2023-10-20 10:56:11.552570
2362  2023-10-20 10:56:11.584480
2363  2023-10-20 10:56:11.632375
2364  2023-10-20 10:56:11.679233
2365  2023-10-20 10:56:11.711134
2366  2023-10-20 10:56:11.759003
2367  2023-10-20 10:56:11.807844
2368  2023-10-20 10:56:11.837794
2369  2023-10-20 10:56:11.883671
2370  2023-10-20 10:56:11.930509
2371  2023-10-20 10:56:11.961425
2372  2023-10-20 10:56:12.009334
2373  2023-10-20 10:56:12.057166
2374  2023-10-20 10:56:12.089080
2375  2023-10-20 10:56:12.135953
2376  2023-10-20 10:56:12.181868
2377  2023-10-20 10:56:12.212788
2378  2023-10-20 10:56:12.260664
2379  2023-10-20 10:56:12.292560
2380  2023-10-20 10:56:12.341669
2381  2023-10-20 10:56:12.388525
2382  2023-10-20 10:56:12.420456
2383  2023-10-20 10:56:12.468311
2384  2023-10-20 10:56:12.515196
2385  2023-10-20 10:56:12.546103
2386  2023-10-20 10:56:12.593969
2387  2023-10-20 10:56:12.625884
2388  2023-10-20 10:56:12.673754
2389  2023-10-20 10:56:12.720628
2390  2023-10-20 10:56:12.751547
2391  2023-10-20 10:56:12.799417
2392  2023-10-20 10:56:12.847255
2393  2023-10-20 10:56:12.879196
2394  2023-10-20 10:56:12.926065
2395  2023-10-20 10:56:12.972925
2396  2023-10-20 10:56:13.006824
2397  2023-10-20 10:56:13.052743
2398  2023-10-20 10:56:13.085641
2399  2023-10-20 10:56:13.132506
2400  2023-10-20 10:56:13.180368
2401  2023-10-20 10:56:13.212568
2402  2023-10-20 10:56:13.260286
2403  2023-10-20 10:56:13.292262
2404  2023-10-20 10:56:13.340140
2405  2023-10-20 10:56:13.388008
2406  2023-10-20 10:56:13.419991
2407  2023-10-20 10:56:13.467861
2408  2023-10-20 10:56:13.512759
2409  2023-10-20 10:56:13.544655
2410  2023-10-20 10:56:13.592491
2411  2023-10-20 10:56:13.639399
2412  2023-10-20 10:56:13.671311
2413  2023-10-20 10:56:13.719181
2414  2023-10-20 10:56:13.751097
2415  2023-10-20 10:56:13.798933
2416  2023-10-20 10:56:13.846835
2417  2023-10-20 10:56:13.878751
2418  2023-10-20 10:56:13.926587
2419  2023-10-20 10:56:13.973462
2420  2023-10-20 10:56:14.004412
2421  2023-10-20 10:56:14.052282
2422  2023-10-20 10:56:14.098154
2423  2023-10-20 10:56:14.130067
2424  2023-10-20 10:56:14.175944
2425  2023-10-20 10:56:14.223815
2426  2023-10-20 10:56:14.255732
2427  2023-10-20 10:56:14.303604
2428  2023-10-20 10:56:14.335515
2429  2023-10-20 10:56:14.383385
2430  2023-10-20 10:56:14.431222
2431  2023-10-20 10:56:14.463136
2432  2023-10-20 10:56:14.511039
2433  2023-10-20 10:56:14.543953
2434  2023-10-20 10:56:14.588827
2435  2023-10-20 10:56:14.636701
2436  2023-10-20 10:56:14.668580
2437  2023-10-20 10:56:14.717479
2438  2023-10-20 10:56:14.765351
2439  2023-10-20 10:56:14.797273
2440  2023-10-20 10:56:14.843139
2441  2023-10-20 10:56:14.891010
2442  2023-10-20 10:56:14.923929
2443  2023-10-20 10:56:14.971760
2444  2023-10-20 10:56:15.002724
2445  2023-10-20 10:56:15.050640
2446  2023-10-20 10:56:15.098591
2447  2023-10-20 10:56:15.130489
2448  2023-10-20 10:56:15.176370
2449  2023-10-20 10:56:15.224278
2450  2023-10-20 10:56:15.256191
2451  2023-10-20 10:56:15.303542
2452  2023-10-20 10:56:15.334458
2453  2023-10-20 10:56:15.381369
2454  2023-10-20 10:56:15.429202
2455  2023-10-20 10:56:15.461123
2456  2023-10-20 10:56:15.507022
2457  2023-10-20 10:56:15.554862
2458  2023-10-20 10:56:15.586776
2459  2023-10-20 10:56:15.634648
2460  2023-10-20 10:56:15.681550
2461  2023-10-20 10:56:15.712437
2462  2023-10-20 10:56:15.760339
2463  2023-10-20 10:56:15.792250
2464  2023-10-20 10:56:15.840129
2465  2023-10-20 10:56:15.885968
2466  2023-10-20 10:56:15.931873
2467  2023-10-20 10:56:15.962795
2468  2023-10-20 10:56:16.010667
2469  2023-10-20 10:56:16.058533
2470  2023-10-20 10:56:16.090447
2471  2023-10-20 10:56:16.138319
2472  2023-10-20 10:56:16.170232
2473  2023-10-20 10:56:16.216103
2474  2023-10-20 10:56:16.263944
2475  2023-10-20 10:56:16.295857
2476  2023-10-20 10:56:16.343759
2477  2023-10-20 10:56:16.375671
2478  2023-10-20 10:56:16.422515
2479  2023-10-20 10:56:16.469423
2480  2023-10-20 10:56:16.501301
2481  2023-10-20 10:56:16.547208
2482  2023-10-20 10:56:16.595047
2483  2023-10-20 10:56:16.626961
2484  2023-10-20 10:56:16.674863
2485  2023-10-20 10:56:16.722702
2486  2023-10-20 10:56:16.754616
2487  2023-10-20 10:56:16.801523
2488  2023-10-20 10:56:16.848468
2489  2023-10-20 10:56:16.879348
2490  2023-10-20 10:56:16.927179
2491  2023-10-20 10:56:16.959094
2492  2023-10-20 10:56:17.006966
2493  2023-10-20 10:56:17.054833
2494  2023-10-20 10:56:17.084754
2495  2023-10-20 10:56:17.132593
2496  2023-10-20 10:56:17.180494
2497  2023-10-20 10:56:17.212410
2498  2023-10-20 10:56:17.260267
2499  2023-10-20 10:56:17.307152
2500  2023-10-20 10:56:17.339066
2501  2023-10-20 10:56:17.386938
2502  2023-10-20 10:56:17.418853
2503  2023-10-20 10:56:17.466721
2504  2023-10-20 10:56:17.512597
2505  2023-10-20 10:56:17.545509
2506  2023-10-20 10:56:17.592383
2507  2023-10-20 10:56:17.641272
2508  2023-10-20 10:56:17.673165
2509  2023-10-20 10:56:17.721033
2510  2023-10-20 10:56:17.765880
2511  2023-10-20 10:56:17.797793
2512  2023-10-20 10:56:17.845704
2513  2023-10-20 10:56:17.877612
2514  2023-10-20 10:56:17.923585
2515  2023-10-20 10:56:17.971488
2516  2023-10-20 10:56:18.003370
2517  2023-10-20 10:56:18.051387
2518  2023-10-20 10:56:18.098359
2519  2023-10-20 10:56:18.130144
2520  2023-10-20 10:56:18.177051
2521  2023-10-20 10:56:18.222928
2522  2023-10-20 10:56:18.254838
2523  2023-10-20 10:56:18.302678
2524  2023-10-20 10:56:18.334627
2525  2023-10-20 10:56:18.382495
2526  2023-10-20 10:56:18.428370
2527  2023-10-20 10:56:18.460281
2528  2023-10-20 10:56:18.508156
2529  2023-10-20 10:56:18.556025
2530  2023-10-20 10:56:18.587940
2531  2023-10-20 10:56:18.635924
2532  2023-10-20 10:56:18.681669
2533  2023-10-20 10:56:18.713619
2534  2023-10-20 10:56:18.760603
2535  2023-10-20 10:56:18.805572
2536  2023-10-20 10:56:18.837430
2537  2023-10-20 10:56:18.883306
2538  2023-10-20 10:56:18.931175
2539  2023-10-20 10:56:18.963089
2540  2023-10-20 10:56:19.010004
2541  2023-10-20 10:56:19.056835
2542  2023-10-20 10:56:19.087785
2543  2023-10-20 10:56:19.134625
2544  2023-10-20 10:56:19.181538
2545  2023-10-20 10:56:19.214442
2546  2023-10-20 10:56:19.261243
2547  2023-10-20 10:56:19.293160
2548  2023-10-20 10:56:19.340991
2549  2023-10-20 10:56:19.388896
2550  2023-10-20 10:56:19.420806
2551  2023-10-20 10:56:19.468682
2552  2023-10-20 10:56:19.500560
2553  2023-10-20 10:56:19.548470
2554  2023-10-20 10:56:19.596337
2555  2023-10-20 10:56:19.628253
2556  2023-10-20 10:56:19.675124
2557  2023-10-20 10:56:19.723021
2558  2023-10-20 10:56:19.754913
2559  2023-10-20 10:56:19.802742
2560  2023-10-20 10:56:19.848661
2561  2023-10-20 10:56:19.880568
2562  2023-10-20 10:56:19.928470
2563  2023-10-20 10:56:19.960360
2564  2023-10-20 10:56:20.007221
2565  2023-10-20 10:56:20.055060
2566  2023-10-20 10:56:20.087006
2567  2023-10-20 10:56:20.134876
2568  2023-10-20 10:56:20.182778
2569  2023-10-20 10:56:20.214806
2570  2023-10-20 10:56:20.262670
2571  2023-10-20 10:56:20.292557
2572  2023-10-20 10:56:20.339460
2573  2023-10-20 10:56:20.385345
2574  2023-10-20 10:56:20.417330
2575  2023-10-20 10:56:20.465308
2576  2023-10-20 10:56:20.513214
2577  2023-10-20 10:56:20.546124
2578  2023-10-20 10:56:20.591966
2579  2023-10-20 10:56:20.638897
2580  2023-10-20 10:56:20.670805
2581  2023-10-20 10:56:20.717661
2582  2023-10-20 10:56:20.765496
2583  2023-10-20 10:56:20.796444
2584  2023-10-20 10:56:20.843312
2585  2023-10-20 10:56:20.890193
2586  2023-10-20 10:56:20.921110
2587  2023-10-20 10:56:20.967981
2588  2023-10-20 10:56:21.015898
2589  2023-10-20 10:56:21.047880
2590  2023-10-20 10:56:21.095753
2591  2023-10-20 10:56:21.127653
2592  2023-10-20 10:56:21.176481
2593  2023-10-20 10:56:21.222417
2594  2023-10-20 10:56:21.254337
2595  2023-10-20 10:56:21.302209
2596  2023-10-20 10:56:21.350080
2597  2023-10-20 10:56:21.381996
2598  2023-10-20 10:56:21.429861
2599  2023-10-20 10:56:21.461785
2600  2023-10-20 10:56:21.509855
2601  2023-10-20 10:56:21.557929
2602  2023-10-20 10:56:21.589845
2603  2023-10-20 10:56:21.638677
2604  2023-10-20 10:56:21.668596
2605  2023-10-20 10:56:21.716467
2606  2023-10-20 10:56:21.764335
2607  2023-10-20 10:56:21.795252
2608  2023-10-20 10:56:21.842179
2609  2023-10-20 10:56:21.889995
2610  2023-10-20 10:56:21.921909
2611  2023-10-20 10:56:21.969779
2612  2023-10-20 10:56:22.002690
2613  2023-10-20 10:56:22.049606
2614  2023-10-20 10:56:22.097434
2615  2023-10-20 10:56:22.129473
2616  2023-10-20 10:56:22.176381
2617  2023-10-20 10:56:22.222358
2618  2023-10-20 10:56:22.253139
2619  2023-10-20 10:56:22.301039
2620  2023-10-20 10:56:22.347996
2621  2023-10-20 10:56:22.378877
2622  2023-10-20 10:56:22.426831
2623  2023-10-20 10:56:22.472702
2624  2023-10-20 10:56:22.504620
2625  2023-10-20 10:56:22.552494
2626  2023-10-20 10:56:22.584406
2627  2023-10-20 10:56:22.632240
2628  2023-10-20 10:56:22.680153
2629  2023-10-20 10:56:22.711064
2630  2023-10-20 10:56:22.758898
2631  2023-10-20 10:56:22.805772
2632  2023-10-20 10:56:22.836719
2633  2023-10-20 10:56:22.882736
2634  2023-10-20 10:56:22.930556
2635  2023-10-20 10:56:22.962470
2636  2023-10-20 10:56:23.010394
2637  2023-10-20 10:56:23.042289
2638  2023-10-20 10:56:23.089252
2639  2023-10-20 10:56:23.136163
2640  2023-10-20 10:56:23.168038
2641  2023-10-20 10:56:23.216095
2642  2023-10-20 10:56:23.263779
2643  2023-10-20 10:56:23.295129
2644  2023-10-20 10:56:23.343000
2645  2023-10-20 10:56:23.390870
2646  2023-10-20 10:56:23.422784
2647  2023-10-20 10:56:23.468695
2648  2023-10-20 10:56:23.500606
2649  2023-10-20 10:56:23.548490
2650  2023-10-20 10:56:23.596314
2651  2023-10-20 10:56:23.628264
2652  2023-10-20 10:56:23.676099
2653  2023-10-20 10:56:23.724011
2654  2023-10-20 10:56:23.755928
2655  2023-10-20 10:56:23.803753
2656  2023-10-20 10:56:23.835667
2657  2023-10-20 10:56:23.883567
2658  2023-10-20 10:56:23.931442
2659  2023-10-20 10:56:23.963322
2660  2023-10-20 10:56:24.011227
2661  2023-10-20 10:56:24.043141
2662  2023-10-20 10:56:24.090992
2663  2023-10-20 10:56:24.138868
2664  2023-10-20 10:56:24.170782
2665  2023-10-20 10:56:24.218647
2666  2023-10-20 10:56:24.250690
2667  2023-10-20 10:56:24.298438
2668  2023-10-20 10:56:24.346301
2669  2023-10-20 10:56:24.378219
2670  2023-10-20 10:56:24.426052
2671  2023-10-20 10:56:24.471960
2672  2023-10-20 10:56:24.503875
2673  2023-10-20 10:56:24.549753
2674  2023-10-20 10:56:24.597587
2675  2023-10-20 10:56:24.629501
2676  2023-10-20 10:56:24.677372
2677  2023-10-20 10:56:24.709324
2678  2023-10-20 10:56:24.757190
2679  2023-10-20 10:56:24.805028
2680  2023-10-20 10:56:24.835989
2681  2023-10-20 10:56:24.883876
2682  2023-10-20 10:56:24.929821
2683  2023-10-20 10:56:24.961735
2684  2023-10-20 10:56:25.009113
2685  2023-10-20 10:56:25.056082
2686  2023-10-20 10:56:25.086998
2687  2023-10-20 10:56:25.134016
2688  2023-10-20 10:56:25.180926
2689  2023-10-20 10:56:25.211845
2690  2023-10-20 10:56:25.259724
2691  2023-10-20 10:56:25.307547
2692  2023-10-20 10:56:25.339494
2693  2023-10-20 10:56:25.387367
2694  2023-10-20 10:56:25.419295
2695  2023-10-20 10:56:25.467115
2696  2023-10-20 10:56:25.515011
2697  2023-10-20 10:56:25.546944
2698  2023-10-20 10:56:25.592815
2699  2023-10-20 10:56:25.640678
2700  2023-10-20 10:56:25.672592
2701  2023-10-20 10:56:25.719445
2702  2023-10-20 10:56:25.765381
2703  2023-10-20 10:56:25.797261
2704  2023-10-20 10:56:25.843132
2705  2023-10-20 10:56:25.891015
2706  2023-10-20 10:56:25.923089
2707  2023-10-20 10:56:25.969001
2708  2023-10-20 10:56:26.000915
2709  2023-10-20 10:56:26.048816
2710  2023-10-20 10:56:26.096656
2711  2023-10-20 10:56:26.126575
2712  2023-10-20 10:56:26.174446
2713  2023-10-20 10:56:26.222316
2714  2023-10-20 10:56:26.254293
2715  2023-10-20 10:56:26.302440
2716  2023-10-20 10:56:26.334152
2717  2023-10-20 10:56:26.382054
2718  2023-10-20 10:56:26.429893
2719  2023-10-20 10:56:26.460810
2720  2023-10-20 10:56:26.506685
2721  2023-10-20 10:56:26.553561
2722  2023-10-20 10:56:26.585516
2723  2023-10-20 10:56:26.632345
2724  2023-10-20 10:56:26.679270
2725  2023-10-20 10:56:26.711166
2726  2023-10-20 10:56:26.757038
2727  2023-10-20 10:56:26.804891
2728  2023-10-20 10:56:26.836827
2729  2023-10-20 10:56:26.884719
2730  2023-10-20 10:56:26.932712
2731  2023-10-20 10:56:26.964480
2732  2023-10-20 10:56:27.013317
2733  2023-10-20 10:56:27.045268
2734  2023-10-20 10:56:27.092173
2735  2023-10-20 10:56:27.140010
2736  2023-10-20 10:56:27.171935
2737  2023-10-20 10:56:27.218789
2738  2023-10-20 10:56:27.265678
2739  2023-10-20 10:56:27.297697
2740  2023-10-20 10:56:27.346539
2741  2023-10-20 10:56:27.378498
2742  2023-10-20 10:56:27.425354
2743  2023-10-20 10:56:27.474223
2744  2023-10-20 10:56:27.504107
2745  2023-10-20 10:56:27.551055
2746  2023-10-20 10:56:27.597940
2747  2023-10-20 10:56:27.628856
2748  2023-10-20 10:56:27.675729
2749  2023-10-20 10:56:27.721644
2750  2023-10-20 10:56:27.752555
2751  2023-10-20 10:56:27.800227
2752  2023-10-20 10:56:27.848237
2753  2023-10-20 10:56:27.880017
2754  2023-10-20 10:56:27.927880
2755  2023-10-20 10:56:27.959801
2756  2023-10-20 10:56:28.006688
2757  2023-10-20 10:56:28.053540
2758  2023-10-20 10:56:28.085459
2759  2023-10-20 10:56:28.133333
2760  2023-10-20 10:56:28.181171
2761  2023-10-20 10:56:28.213076
2762  2023-10-20 10:56:28.260980
2763  2023-10-20 10:56:28.292860
2764  2023-10-20 10:56:28.340769
2765  2023-10-20 10:56:28.388640
2766  2023-10-20 10:56:28.420551
2767  2023-10-20 10:56:28.467420
2768  2023-10-20 10:56:28.515295
2769  2023-10-20 10:56:28.547172
2770  2023-10-20 10:56:28.593074
2771  2023-10-20 10:56:28.642081
2772  2023-10-20 10:56:28.672950
2773  2023-10-20 10:56:28.720871
2774  2023-10-20 10:56:28.765846
2775  2023-10-20 10:56:28.797612
2776  2023-10-20 10:56:28.846538
2777  2023-10-20 10:56:28.877397
2778  2023-10-20 10:56:28.925272
2779  2023-10-20 10:56:28.974174
2780  2023-10-20 10:56:29.005056
2781  2023-10-20 10:56:29.052995
2782  2023-10-20 10:56:29.084952
2783  2023-10-20 10:56:29.132822
2784  2023-10-20 10:56:29.180726
2785  2023-10-20 10:56:29.212606
2786  2023-10-20 10:56:29.260479
2787  2023-10-20 10:56:29.306352
2788  2023-10-20 10:56:29.338266
2789  2023-10-20 10:56:29.386316
2790  2023-10-20 10:56:29.418232
2791  2023-10-20 10:56:29.466067
2792  2023-10-20 10:56:29.513972
2793  2023-10-20 10:56:29.544882
2794  2023-10-20 10:56:29.591803
2795  2023-10-20 10:56:29.639631
2796  2023-10-20 10:56:29.671560
2797  2023-10-20 10:56:29.719425
2798  2023-10-20 10:56:29.751328
2799  2023-10-20 10:56:29.799199
2800  2023-10-20 10:56:29.847092
2801  2023-10-20 10:56:29.878990
2802  2023-10-20 10:56:29.926862
2803  2023-10-20 10:56:29.972741
2804  2023-10-20 10:56:30.004645
2805  2023-10-20 10:56:30.052510
2806  2023-10-20 10:56:30.084428
2807  2023-10-20 10:56:30.132301
2808  2023-10-20 10:56:30.180118
2809  2023-10-20 10:56:30.212118
2810  2023-10-20 10:56:30.259981
2811  2023-10-20 10:56:30.307816
2812  2023-10-20 10:56:30.338734
2813  2023-10-20 10:56:30.386635
2814  2023-10-20 10:56:30.418553
2815  2023-10-20 10:56:30.467419
2816  2023-10-20 10:56:30.514258
2817  2023-10-20 10:56:30.545175
2818  2023-10-20 10:56:30.592087
2819  2023-10-20 10:56:30.636959
2820  2023-10-20 10:56:30.668850
2821  2023-10-20 10:56:30.715712
2822  2023-10-20 10:56:30.762585
2823  2023-10-20 10:56:30.794499
2824  2023-10-20 10:56:30.842409
2825  2023-10-20 10:56:30.889244
2826  2023-10-20 10:56:30.920198
2827  2023-10-20 10:56:30.968099
2828  2023-10-20 10:56:31.016004
2829  2023-10-20 10:56:31.047916
2830  2023-10-20 10:56:31.095754
2831  2023-10-20 10:56:31.127668
2832  2023-10-20 10:56:31.175576
2833  2023-10-20 10:56:31.223448
2834  2023-10-20 10:56:31.255322
2835  2023-10-20 10:56:31.303119
2836  2023-10-20 10:56:31.335083
2837  2023-10-20 10:56:31.383000
2838  2023-10-20 10:56:31.430656
2839  2023-10-20 10:56:31.462538
2840  2023-10-20 10:56:31.509105
2841  2023-10-20 10:56:31.556977
2842  2023-10-20 10:56:31.586896
2843  2023-10-20 10:56:31.634795
2844  2023-10-20 10:56:31.680645
2845  2023-10-20 10:56:31.711560
2846  2023-10-20 10:56:31.759433
2847  2023-10-20 10:56:31.807298
2848  2023-10-20 10:56:31.839180
2849  2023-10-20 10:56:31.885056
2850  2023-10-20 10:56:31.931929
2851  2023-10-20 10:56:31.963843
2852  2023-10-20 10:56:32.009750
2853  2023-10-20 10:56:32.056730
2854  2023-10-20 10:56:32.087541
2855  2023-10-20 10:56:32.135379
2856  2023-10-20 10:56:32.167292
2857  2023-10-20 10:56:32.215199
2858  2023-10-20 10:56:32.263192
2859  2023-10-20 10:56:32.294983
2860  2023-10-20 10:56:32.342850
2861  2023-10-20 10:56:32.390723
2862  2023-10-20 10:56:32.422640
2863  2023-10-20 10:56:32.470690
2864  2023-10-20 10:56:32.502419
2865  2023-10-20 10:56:32.550289
2866  2023-10-20 10:56:32.597171
2867  2023-10-20 10:56:32.628078
2868  2023-10-20 10:56:32.676953
2869  2023-10-20 10:56:32.723817
2870  2023-10-20 10:56:32.754742
2871  2023-10-20 10:56:32.802603
2872  2023-10-20 10:56:32.834533
2873  2023-10-20 10:56:32.882391
2874  2023-10-20 10:56:32.930259
2875  2023-10-20 10:56:32.962171
2876  2023-10-20 10:56:33.010047
2877  2023-10-20 10:56:33.056915
2878  2023-10-20 10:56:33.088719
2879  2023-10-20 10:56:33.136630
2880  2023-10-20 10:56:33.168580
2881  2023-10-20 10:56:33.216481
2882  2023-10-20 10:56:33.264351
2883  2023-10-20 10:56:33.296266
2884  2023-10-20 10:56:33.345105
2885  2023-10-20 10:56:33.377061
2886  2023-10-20 10:56:33.423939
2887  2023-10-20 10:56:33.471808
2888  2023-10-20 10:56:33.503704
2889  2023-10-20 10:56:33.552541
2890  2023-10-20 10:56:33.598554
2891  2023-10-20 10:56:33.629468
2892  2023-10-20 10:56:33.675381
2893  2023-10-20 10:56:33.723257
2894  2023-10-20 10:56:33.755165
2895  2023-10-20 10:56:33.803032
2896  2023-10-20 10:56:33.834947
2897  2023-10-20 10:56:33.882872
2898  2023-10-20 10:56:33.930742
2899  2023-10-20 10:56:33.962656
2900  2023-10-20 10:56:34.010560
2901  2023-10-20 10:56:34.042474
2902  2023-10-20 10:56:34.088315
2903  2023-10-20 10:56:34.136186
2904  2023-10-20 10:56:34.168218
2905  2023-10-20 10:56:34.215127
2906  2023-10-20 10:56:34.262961
2907  2023-10-20 10:56:34.294911
2908  2023-10-20 10:56:34.342777
2909  2023-10-20 10:56:34.390653
2910  2023-10-20 10:56:34.422563
2911  2023-10-20 10:56:34.470430
2912  2023-10-20 10:56:34.502314
2913  2023-10-20 10:56:34.550215
2914  2023-10-20 10:56:34.598054
2915  2023-10-20 10:56:34.629968
2916  2023-10-20 10:56:34.675876
2917  2023-10-20 10:56:34.722719
2918  2023-10-20 10:56:34.752665
2919  2023-10-20 10:56:34.799553
2920  2023-10-20 10:56:34.846416
2921  2023-10-20 10:56:34.878330
2922  2023-10-20 10:56:34.926201
2923  2023-10-20 10:56:34.974070
2924  2023-10-20 10:56:35.006981
2925  2023-10-20 10:56:35.054863
2926  2023-10-20 10:56:35.086763
2927  2023-10-20 10:56:35.134650
2928  2023-10-20 10:56:35.180510
2929  2023-10-20 10:56:35.212424
2930  2023-10-20 10:56:35.259934
2931  2023-10-20 10:56:35.307840
2932  2023-10-20 10:56:35.337796
2933  2023-10-20 10:56:35.385701
2934  2023-10-20 10:56:35.417612
2935  2023-10-20 10:56:35.465450
2936  2023-10-20 10:56:35.513358
2937  2023-10-20 10:56:35.545266
2938  2023-10-20 10:56:35.593219
2939  2023-10-20 10:56:35.640270
2940  2023-10-20 10:56:35.671229
2941  2023-10-20 10:56:35.719100
2942  2023-10-20 10:56:35.751012
2943  2023-10-20 10:56:35.798885
2944  2023-10-20 10:56:35.846764
2945  2023-10-20 10:56:35.878719
2946  2023-10-20 10:56:35.926558
2947  2023-10-20 10:56:35.972435
2948  2023-10-20 10:56:36.003390
2949  2023-10-20 10:56:36.050258
2950  2023-10-20 10:56:36.098125
2951  2023-10-20 10:56:36.130040
2952  2023-10-20 10:56:36.178908
2953  2023-10-20 10:56:36.210822
2954  2023-10-20 10:56:36.257702
2955  2023-10-20 10:56:36.306568
2956  2023-10-20 10:56:36.338478
2957  2023-10-20 10:56:36.385442
2958  2023-10-20 10:56:36.417394
2959  2023-10-20 10:56:36.464864
2960  2023-10-20 10:56:36.512733
2961  2023-10-20 10:56:36.544665
2962  2023-10-20 10:56:36.592647
2963  2023-10-20 10:56:36.640389
2964  2023-10-20 10:56:36.672303
2965  2023-10-20 10:56:36.720175
2966  2023-10-20 10:56:36.751093
2967  2023-10-20 10:56:36.797931
2968  2023-10-20 10:56:36.845836
2969  2023-10-20 10:56:36.877755
2970  2023-10-20 10:56:36.925639
2971  2023-10-20 10:56:36.972489
2972  2023-10-20 10:56:37.005402
2973  2023-10-20 10:56:37.051285
2974  2023-10-20 10:56:37.099149
2975  2023-10-20 10:56:37.131062
2976  2023-10-20 10:56:37.176938
2977  2023-10-20 10:56:37.210845
2978  2023-10-20 10:56:37.255693
2979  2023-10-20 10:56:37.302566
2980  2023-10-20 10:56:37.334479
2981  2023-10-20 10:56:37.382381
2982  2023-10-20 10:56:37.430221
2983  2023-10-20 10:56:37.461167
2984  2023-10-20 10:56:37.508013
2985  2023-10-20 10:56:37.555881
2986  2023-10-20 10:56:37.587830
2987  2023-10-20 10:56:37.635698
2988  2023-10-20 10:56:37.667742
2989  2023-10-20 10:56:37.713617
2990  2023-10-20 10:56:37.761490
2991  2023-10-20 10:56:37.793369
2992  2023-10-20 10:56:37.841271
2993  2023-10-20 10:56:37.889191
2994  2023-10-20 10:56:37.921147
2995  2023-10-20 10:56:37.969055
2996  2023-10-20 10:56:38.000961
2997  2023-10-20 10:56:38.048830
2998  2023-10-20 10:56:38.097703
2999  2023-10-20 10:56:38.128624
3000  2023-10-20 10:56:38.176498
3001  2023-10-20 10:56:38.224356
3002  2023-10-20 10:56:38.255277
3003  2023-10-20 10:56:38.302321
3004  2023-10-20 10:56:38.334057
3005  2023-10-20 10:56:38.381928
3006  2023-10-20 10:56:38.427806
3007  2023-10-20 10:56:38.459732
3008  2023-10-20 10:56:38.506561
3009  2023-10-20 10:56:38.553472
3010  2023-10-20 10:56:38.585384
3011  2023-10-20 10:56:38.634266
3012  2023-10-20 10:56:38.678126
3013  2023-10-20 10:56:38.709044
3014  2023-10-20 10:56:38.755922
3015  2023-10-20 10:56:38.802792
3016  2023-10-20 10:56:38.834852
3017  2023-10-20 10:56:38.879748
3018  2023-10-20 10:56:38.927607
3019  2023-10-20 10:56:38.972480
3020  2023-10-20 10:56:39.003402
3021  2023-10-20 10:56:39.052268
3022  2023-10-20 10:56:39.099136
3023  2023-10-20 10:56:39.132056
3024  2023-10-20 10:56:39.178921
3025  2023-10-20 10:56:39.211834
3026  2023-10-20 10:56:39.258706
3027  2023-10-20 10:56:39.306579
3028  2023-10-20 10:56:39.338489
3029  2023-10-20 10:56:39.386361
3030  2023-10-20 10:56:39.418273
3031  2023-10-20 10:56:39.466147
3032  2023-10-20 10:56:39.514040
3033  2023-10-20 10:56:39.545944
3034  2023-10-20 10:56:39.593812
3035  2023-10-20 10:56:39.641674
3036  2023-10-20 10:56:39.669596
3037  2023-10-20 10:56:39.717477
3038  2023-10-20 10:56:39.765303
3039  2023-10-20 10:56:39.797217
3040  2023-10-20 10:56:39.843117
3041  2023-10-20 10:56:39.890996
3042  2023-10-20 10:56:39.922910
3043  2023-10-20 10:56:39.970778
3044  2023-10-20 10:56:40.000698
3045  2023-10-20 10:56:40.047574
3046  2023-10-20 10:56:40.093445
3047  2023-10-20 10:56:40.140289
3048  2023-10-20 10:56:40.172202
3049  2023-10-20 10:56:40.218115
3050  2023-10-20 10:56:40.266978
3051  2023-10-20 10:56:40.297897
3052  2023-10-20 10:56:40.346772
3053  2023-10-20 10:56:40.377679
3054  2023-10-20 10:56:40.426545
3055  2023-10-20 10:56:40.474423
3056  2023-10-20 10:56:40.506334
3057  2023-10-20 10:56:40.555208
3058  2023-10-20 10:56:40.586133
3059  2023-10-20 10:56:40.634989
3060  2023-10-20 10:56:40.681865
3061  2023-10-20 10:56:40.712774
3062  2023-10-20 10:56:40.760660
3063  2023-10-20 10:56:40.804523
3064  2023-10-20 10:56:40.835440
3065  2023-10-20 10:56:40.883308
3066  2023-10-20 10:56:40.931149
3067  2023-10-20 10:56:40.963062
3068  2023-10-20 10:56:41.010964
3069  2023-10-20 10:56:41.042882
3070  2023-10-20 10:56:41.088754
3071  2023-10-20 10:56:41.136593
3072  2023-10-20 10:56:41.167542
3073  2023-10-20 10:56:41.214414
3074  2023-10-20 10:56:41.262283
3075  2023-10-20 10:56:41.294315
3076  2023-10-20 10:56:41.341232
3077  2023-10-20 10:56:41.388140
3078  2023-10-20 10:56:41.420052
3079  2023-10-20 10:56:41.467921
3080  2023-10-20 10:56:41.515795
3081  2023-10-20 10:56:41.546710
3082  2023-10-20 10:56:41.594596
3083  2023-10-20 10:56:41.641450
3084  2023-10-20 10:56:41.671372
3085  2023-10-20 10:56:41.716217
3086  2023-10-20 10:56:41.763089
3087  2023-10-20 10:56:41.794005
3088  2023-10-20 10:56:41.841029
3089  2023-10-20 10:56:41.887903
3090  2023-10-20 10:56:41.919856
3091  2023-10-20 10:56:41.966721
3092  2023-10-20 10:56:42.013596
3093  2023-10-20 10:56:42.045510
3094  2023-10-20 10:56:42.093379
3095  2023-10-20 10:56:42.140220
3096  2023-10-20 10:56:42.172133
3097  2023-10-20 10:56:42.220230
3098  2023-10-20 10:56:42.251968
3099  2023-10-20 10:56:42.299819
3100  2023-10-20 10:56:42.347698
3101  2023-10-20 10:56:42.380571
3102  2023-10-20 10:56:42.426480
3103  2023-10-20 10:56:42.474359
3104  2023-10-20 10:56:42.503267
3105  2023-10-20 10:56:42.551150
3106  2023-10-20 10:56:42.599011
3107  2023-10-20 10:56:42.630923
3108  2023-10-20 10:56:42.678801
3109  2023-10-20 10:56:42.710710
3110  2023-10-20 10:56:42.758729
3111  2023-10-20 10:56:42.803604
3112  2023-10-20 10:56:42.835487
3113  2023-10-20 10:56:42.883387
3114  2023-10-20 10:56:42.931220
3115  2023-10-20 10:56:42.963238
3116  2023-10-20 10:56:43.010997
3117  2023-10-20 10:56:43.042944
3118  2023-10-20 10:56:43.090811
3119  2023-10-20 10:56:43.138682
3120  2023-10-20 10:56:43.170566
3121  2023-10-20 10:56:43.217475
3122  2023-10-20 10:56:43.266417
3123  2023-10-20 10:56:43.297368
3124  2023-10-20 10:56:43.346278
3125  2023-10-20 10:56:43.377152
3126  2023-10-20 10:56:43.425103
3127  2023-10-20 10:56:43.471974
3128  2023-10-20 10:56:43.503860
3129  2023-10-20 10:56:43.550730
3130  2023-10-20 10:56:43.596636
3131  2023-10-20 10:56:43.628522
3132  2023-10-20 10:56:43.676393
3133  2023-10-20 10:56:43.724296
3134  2023-10-20 10:56:43.756212
3135  2023-10-20 10:56:43.804044
3136  2023-10-20 10:56:43.834965
3137  2023-10-20 10:56:43.882951
3138  2023-10-20 10:56:43.930826
3139  2023-10-20 10:56:43.962771
3140  2023-10-20 10:56:44.009608
3141  2023-10-20 10:56:44.056501
3142  2023-10-20 10:56:44.087404
3143  2023-10-20 10:56:44.135268
3144  2023-10-20 10:56:44.167151
3145  2023-10-20 10:56:44.214058
3146  2023-10-20 10:56:44.261929
3147  2023-10-20 10:56:44.293842
3148  2023-10-20 10:56:44.341717
3149  2023-10-20 10:56:44.389583
3150  2023-10-20 10:56:44.421499
3151  2023-10-20 10:56:44.469504
3152  2023-10-20 10:56:44.514439
3153  2023-10-20 10:56:44.546385
3154  2023-10-20 10:56:44.593227
3155  2023-10-20 10:56:44.640240
3156  2023-10-20 10:56:44.672154
3157  2023-10-20 10:56:44.720057
3158  2023-10-20 10:56:44.751973
3159  2023-10-20 10:56:44.799809
3160  2023-10-20 10:56:44.847681
3161  2023-10-20 10:56:44.879595
3162  2023-10-20 10:56:44.925470
3163  2023-10-20 10:56:44.973340
3164  2023-10-20 10:56:45.004257
3165  2023-10-20 10:56:45.051130
3166  2023-10-20 10:56:45.099000
3167  2023-10-20 10:56:45.130943
3168  2023-10-20 10:56:45.176823
3169  2023-10-20 10:56:45.223701
3170  2023-10-20 10:56:45.255609
3171  2023-10-20 10:56:45.301496
3172  2023-10-20 10:56:45.348478
3173  2023-10-20 10:56:45.380389
3174  2023-10-20 10:56:45.425303
3175  2023-10-20 10:56:45.473245
3176  2023-10-20 10:56:45.506190
3177  2023-10-20 10:56:45.551049
3178  2023-10-20 10:56:45.597907
3179  2023-10-20 10:56:45.629829
3180  2023-10-20 10:56:45.675697
3181  2023-10-20 10:56:45.723597
3182  2023-10-20 10:56:45.754520
3183  2023-10-20 10:56:45.801387
3184  2023-10-20 10:56:45.849259
3185  2023-10-20 10:56:45.881171
3186  2023-10-20 10:56:45.929044
3187  2023-10-20 10:56:45.960966
3188  2023-10-20 10:56:46.007833
3189  2023-10-20 10:56:46.052715
3190  2023-10-20 10:56:46.084630
3191  2023-10-20 10:56:46.132495
3192  2023-10-20 10:56:46.180369
3193  2023-10-20 10:56:46.212405
3194  2023-10-20 10:56:46.260147
3195  2023-10-20 10:56:46.308022
3196  2023-10-20 10:56:46.339933
3197  2023-10-20 10:56:46.387784
3198  2023-10-20 10:56:46.420773
3199  2023-10-20 10:56:46.465615
3200  2023-10-20 10:56:46.512519
3201  2023-10-20 10:56:46.545399
3202  2023-10-20 10:56:46.592312
3203  2023-10-20 10:56:46.640143
3204  2023-10-20 10:56:46.672057
3205  2023-10-20 10:56:46.719958
3206  2023-10-20 10:56:46.751841
3207  2023-10-20 10:56:46.799711
3208  2023-10-20 10:56:46.847582
3209  2023-10-20 10:56:46.879496
3210  2023-10-20 10:56:46.927366
3211  2023-10-20 10:56:46.973243
3212  2023-10-20 10:56:47.005155
3213  2023-10-20 10:56:47.054056
3214  2023-10-20 10:56:47.098936
3215  2023-10-20 10:56:47.129849
3216  2023-10-20 10:56:47.175731
3217  2023-10-20 10:56:47.221603
3218  2023-10-20 10:56:47.251541
3219  2023-10-20 10:56:47.299392
3220  2023-10-20 10:56:47.348259
3221  2023-10-20 10:56:47.378184
3222  2023-10-20 10:56:47.427058
3223  2023-10-20 10:56:47.476051
3224  2023-10-20 10:56:47.505933
3225  2023-10-20 10:56:47.555834
3226  2023-10-20 10:56:47.587746
3227  2023-10-20 10:56:47.633586
3228  2023-10-20 10:56:47.683545
3229  2023-10-20 10:56:47.713466
3230  2023-10-20 10:56:47.761438
3231  2023-10-20 10:56:47.807278
3232  2023-10-20 10:56:47.839223
3233  2023-10-20 10:56:47.885067
3234  2023-10-20 10:56:47.931940
3235  2023-10-20 10:56:47.961922
3236  2023-10-20 10:56:48.007667
3237  2023-10-20 10:56:48.053543
3238  2023-10-20 10:56:48.099419
3239  2023-10-20 10:56:48.129339
3240  2023-10-20 10:56:48.180287
3241  2023-10-20 10:56:48.209169
3242  2023-10-20 10:56:48.259066
3243  2023-10-20 10:56:48.304910
3244  2023-10-20 10:56:48.336823
3245  2023-10-20 10:56:48.386739
3246  2023-10-20 10:56:48.432564
3247  2023-10-20 10:56:48.464478
3248  2023-10-20 10:56:48.513379
3249  2023-10-20 10:56:48.545260
3250  2023-10-20 10:56:48.592171
3251  2023-10-20 10:56:48.640003
3252  2023-10-20 10:56:48.670919
3253  2023-10-20 10:56:48.717874
3254  2023-10-20 10:56:48.764777
3255  2023-10-20 10:56:48.795672
3256  2023-10-20 10:56:48.843576
3257  2023-10-20 10:56:48.875494
3258  2023-10-20 10:56:48.923329
3259  2023-10-20 10:56:48.971261
3260  2023-10-20 10:56:49.003213
3261  2023-10-20 10:56:49.050118
3262  2023-10-20 10:56:49.097992
3263  2023-10-20 10:56:49.129906
3264  2023-10-20 10:56:49.175781
3265  2023-10-20 10:56:49.223649
3266  2023-10-20 10:56:49.253568
3267  2023-10-20 10:56:49.301596
3268  2023-10-20 10:56:49.348468
3269  2023-10-20 10:56:49.379381
3270  2023-10-20 10:56:49.426662
3271  2023-10-20 10:56:49.473531
3272  2023-10-20 10:56:49.506491
3273  2023-10-20 10:56:49.554443
3274  2023-10-20 10:56:49.586348
3275  2023-10-20 10:56:49.631192
3276  2023-10-20 10:56:49.678099
3277  2023-10-20 10:56:49.709980
3278  2023-10-20 10:56:49.757989
3279  2023-10-20 10:56:49.805822
3280  2023-10-20 10:56:49.837735
3281  2023-10-20 10:56:49.885655
3282  2023-10-20 10:56:49.917769
3283  2023-10-20 10:56:49.965606
3284  2023-10-20 10:56:50.013521
3285  2023-10-20 10:56:50.045426
3286  2023-10-20 10:56:50.091266
3287  2023-10-20 10:56:50.139137
3288  2023-10-20 10:56:50.170104
3289  2023-10-20 10:56:50.216977
3290  2023-10-20 10:56:50.264847
3291  2023-10-20 10:56:50.294766
3292  2023-10-20 10:56:50.342706
3293  2023-10-20 10:56:50.389581
3294  2023-10-20 10:56:50.420495
3295  2023-10-20 10:56:50.468343
3296  2023-10-20 10:56:50.516244
3297  2023-10-20 10:56:50.546123
3298  2023-10-20 10:56:50.596026
3299  2023-10-20 10:56:50.625932
3300  2023-10-20 10:56:50.673779
3301  2023-10-20 10:56:50.721684
3302  2023-10-20 10:56:50.753599
3303  2023-10-20 10:56:50.801460
3304  2023-10-20 10:56:50.849338
3305  2023-10-20 10:56:50.879224
3306  2023-10-20 10:56:50.927122
3307  2023-10-20 10:56:50.959181
3308  2023-10-20 10:56:51.007152
3309  2023-10-20 10:56:51.054884
3310  2023-10-20 10:56:51.086797
3311  2023-10-20 10:56:51.133670
3312  2023-10-20 10:56:51.181574
3313  2023-10-20 10:56:51.212496
3314  2023-10-20 10:56:51.260328
3315  2023-10-20 10:56:51.292241
3316  2023-10-20 10:56:51.340112
3317  2023-10-20 10:56:51.387982
3318  2023-10-20 10:56:51.419897
3319  2023-10-20 10:56:51.467766
3320  2023-10-20 10:56:51.513681
3321  2023-10-20 10:56:51.545588
3322  2023-10-20 10:56:51.593463
3323  2023-10-20 10:56:51.640349
3324  2023-10-20 10:56:51.671810
3325  2023-10-20 10:56:51.719805
3326  2023-10-20 10:56:51.751706
3327  2023-10-20 10:56:51.797583
3328  2023-10-20 10:56:51.845452
3329  2023-10-20 10:56:51.877366
3330  2023-10-20 10:56:51.924237
3331  2023-10-20 10:56:51.971106
3332  2023-10-20 10:56:52.004079
3333  2023-10-20 10:56:52.050862
3334  2023-10-20 10:56:52.098775
3335  2023-10-20 10:56:52.130647
3336  2023-10-20 10:56:52.178517
3337  2023-10-20 10:56:52.210446
3338  2023-10-20 10:56:52.258170
3339  2023-10-20 10:56:52.307100
3340  2023-10-20 10:56:52.338021
3341  2023-10-20 10:56:52.386888
3342  2023-10-20 10:56:52.417792
3343  2023-10-20 10:56:52.466657
3344  2023-10-20 10:56:52.514531
3345  2023-10-20 10:56:52.546449
3346  2023-10-20 10:56:52.595310
3347  2023-10-20 10:56:52.642231
3348  2023-10-20 10:56:52.672149
3349  2023-10-20 10:56:52.720020
3350  2023-10-20 10:56:52.764944
3351  2023-10-20 10:56:52.795860
3352  2023-10-20 10:56:52.842836
3353  2023-10-20 10:56:52.890753
3354  2023-10-20 10:56:52.922709
3355  2023-10-20 10:56:52.970537
3356  2023-10-20 10:56:53.002484
3357  2023-10-20 10:56:53.050356
3358  2023-10-20 10:56:53.096197
3359  2023-10-20 10:56:53.128155
3360  2023-10-20 10:56:53.175017
3361  2023-10-20 10:56:53.222855
3362  2023-10-20 10:56:53.253771
3363  2023-10-20 10:56:53.300689
3364  2023-10-20 10:56:53.348548
3365  2023-10-20 10:56:53.380555
3366  2023-10-20 10:56:53.428426
3367  2023-10-20 10:56:53.460340
3368  2023-10-20 10:56:53.508136
3369  2023-10-20 10:56:53.556006
3370  2023-10-20 10:56:53.587856
3371  2023-10-20 10:56:53.635729
3372  2023-10-20 10:56:53.667638
3373  2023-10-20 10:56:53.715506
3374  2023-10-20 10:56:53.763345
3375  2023-10-20 10:56:53.795260
3376  2023-10-20 10:56:53.841180
3377  2023-10-20 10:56:53.888056
3378  2023-10-20 10:56:53.920063
3379  2023-10-20 10:56:53.967933
3380  2023-10-20 10:56:54.015852
3381  2023-10-20 10:56:54.048716
3382  2023-10-20 10:56:54.095629
3383  2023-10-20 10:56:54.127555
3384  2023-10-20 10:56:54.172510
3385  2023-10-20 10:56:54.219383
3386  2023-10-20 10:56:54.251307
3387  2023-10-20 10:56:54.299167
3388  2023-10-20 10:56:54.347042
3389  2023-10-20 10:56:54.378953
3390  2023-10-20 10:56:54.426822
3391  2023-10-20 10:56:54.473730
3392  2023-10-20 10:56:54.505643
3393  2023-10-20 10:56:54.553633
3394  2023-10-20 10:56:54.585540
3395  2023-10-20 10:56:54.633380
3396  2023-10-20 10:56:54.679292
3397  2023-10-20 10:56:54.711209
3398  2023-10-20 10:56:54.759079
3399  2023-10-20 10:56:54.806950
3400  2023-10-20 10:56:54.838859
3401  2023-10-20 10:56:54.886695
3402  2023-10-20 10:56:54.918380
3403  2023-10-20 10:56:54.966300
3404  2023-10-20 10:56:55.014167
3405  2023-10-20 10:56:55.046084
3406  2023-10-20 10:56:55.093955
3407  2023-10-20 10:56:55.125863
3408  2023-10-20 10:56:55.173734
3409  2023-10-20 10:56:55.219611
3410  2023-10-20 10:56:55.251529
3411  2023-10-20 10:56:55.299368
3412  2023-10-20 10:56:55.347269
3413  2023-10-20 10:56:55.380197
3414  2023-10-20 10:56:55.426021
3415  2023-10-20 10:56:55.472927
3416  2023-10-20 10:56:55.504808
3417  2023-10-20 10:56:55.553713
3418  2023-10-20 10:56:55.598594
3419  2023-10-20 10:56:55.629510
3420  2023-10-20 10:56:55.677390
3421  2023-10-20 10:56:55.709286
3422  2023-10-20 10:56:55.758276
3423  2023-10-20 10:56:55.806145
3424  2023-10-20 10:56:55.838060
3425  2023-10-20 10:56:55.881942
3426  2023-10-20 10:56:55.929778
3427  2023-10-20 10:56:55.961764
3428  2023-10-20 10:56:56.009602
3429  2023-10-20 10:56:56.057520
3430  2023-10-20 10:56:56.089559
3431  2023-10-20 10:56:56.137567
3432  2023-10-20 10:56:56.169556
3433  2023-10-20 10:56:56.217460
3434  2023-10-20 10:56:56.265293
3435  2023-10-20 10:56:56.297300
3436  2023-10-20 10:56:56.345203
3437  2023-10-20 10:56:56.377117
3438  2023-10-20 10:56:56.425059
3439  2023-10-20 10:56:56.472972
3440  2023-10-20 10:56:56.504886
3441  2023-10-20 10:56:56.550769
3442  2023-10-20 10:56:56.598633
3443  2023-10-20 10:56:56.630542
3444  2023-10-20 10:56:56.678609
3445  2023-10-20 10:56:56.710525
3446  2023-10-20 10:56:56.758343
3447  2023-10-20 10:56:56.806470
3448  2023-10-20 10:56:56.836308
3449  2023-10-20 10:56:56.884146
3450  2023-10-20 10:56:56.932047
3451  2023-10-20 10:56:56.963965
3452  2023-10-20 10:56:57.011801
3453  2023-10-20 10:56:57.044713
3454  2023-10-20 10:56:57.090106
3455  2023-10-20 10:56:57.138009
3456  2023-10-20 10:56:57.168896
3457  2023-10-20 10:56:57.215901
3458  2023-10-20 10:56:57.262756
3459  2023-10-20 10:56:57.294670
3460  2023-10-20 10:56:57.342547
3461  2023-10-20 10:56:57.388417
3462  2023-10-20 10:56:57.420331
3463  2023-10-20 10:56:57.468201
3464  2023-10-20 10:56:57.516072
3465  2023-10-20 10:56:57.548993
3466  2023-10-20 10:56:57.596821
3467  2023-10-20 10:56:57.628772
3468  2023-10-20 10:56:57.676638
3469  2023-10-20 10:56:57.720612
3470  2023-10-20 10:56:57.752558
3471  2023-10-20 10:56:57.800396
3472  2023-10-20 10:56:57.848301
3473  2023-10-20 10:56:57.880215
3474  2023-10-20 10:56:57.927053
3475  2023-10-20 10:56:57.973961
3476  2023-10-20 10:56:58.005874
3477  2023-10-20 10:56:58.051752
3478  2023-10-20 10:56:58.098626
3479  2023-10-20 10:56:58.129540
3480  2023-10-20 10:56:58.175383
3481  2023-10-20 10:56:58.223285
3482  2023-10-20 10:56:58.256197
3483  2023-10-20 10:56:58.303072
3484  2023-10-20 10:56:58.334988
3485  2023-10-20 10:56:58.382821
3486  2023-10-20 10:56:58.430723
3487  2023-10-20 10:56:58.461638
3488  2023-10-20 10:56:58.507514
3489  2023-10-20 10:56:58.555385
3490  2023-10-20 10:56:58.587300
3491  2023-10-20 10:56:58.635170
3492  2023-10-20 10:56:58.684063
3493  2023-10-20 10:56:58.715953
3494  2023-10-20 10:56:58.760797
3495  2023-10-20 10:56:58.792711
3496  2023-10-20 10:56:58.840611
3497  2023-10-20 10:56:58.886457
3498  2023-10-20 10:56:58.917374
3499  2023-10-20 10:56:58.965272
3500  2023-10-20 10:56:59.013148
3501  2023-10-20 10:56:59.045061
3502  2023-10-20 10:56:59.091109
3503  2023-10-20 10:56:59.139937
3504  2023-10-20 10:56:59.169872
3505  2023-10-20 10:56:59.215765
3506  2023-10-20 10:56:59.262606
3507  2023-10-20 10:56:59.294553
3508  2023-10-20 10:56:59.342419
3509  2023-10-20 10:56:59.390295
3510  2023-10-20 10:56:59.421208
3511  2023-10-20 10:56:59.468081
3512  2023-10-20 10:56:59.515951
3513  2023-10-20 10:56:59.547871
3514  2023-10-20 10:56:59.595733
3515  2023-10-20 10:56:59.627650
3516  2023-10-20 10:56:59.675539
3517  2023-10-20 10:56:59.725403
3518  2023-10-20 10:56:59.756314
3519  2023-10-20 10:56:59.802180
3520  2023-10-20 10:56:59.847061
3521  2023-10-20 10:56:59.877976
3522  2023-10-20 10:56:59.925866
3523  2023-10-20 10:56:59.973717
3524  2023-10-20 10:57:00.005632
3525  2023-10-20 10:57:00.053465
3526  2023-10-20 10:57:00.085379
3527  2023-10-20 10:57:00.133300
3528  2023-10-20 10:57:00.180153
3529  2023-10-20 10:57:00.212037
3530  2023-10-20 10:57:00.257948
3531  2023-10-20 10:57:00.305813
3532  2023-10-20 10:57:00.335736
3533  2023-10-20 10:57:00.383606
3534  2023-10-20 10:57:00.431475
3535  2023-10-20 10:57:00.463405
3536  2023-10-20 10:57:00.510444
3537  2023-10-20 10:57:00.542177
3538  2023-10-20 10:57:00.590046
3539  2023-10-20 10:57:00.637914
3540  2023-10-20 10:57:00.669828
3541  2023-10-20 10:57:00.716707
3542  2023-10-20 10:57:00.764572
3543  2023-10-20 10:57:00.796494
3544  2023-10-20 10:57:00.844362
3545  2023-10-20 10:57:00.892231
3546  2023-10-20 10:57:00.922155
3547  2023-10-20 10:57:00.970019
3548  2023-10-20 10:57:01.017889
3549  2023-10-20 10:57:01.047803
3550  2023-10-20 10:57:01.095753
3551  2023-10-20 10:57:01.127659
3552  2023-10-20 10:57:01.175624
3553  2023-10-20 10:57:01.222454
3554  2023-10-20 10:57:01.252370
3555  2023-10-20 10:57:01.299255
3556  2023-10-20 10:57:01.345120
3557  2023-10-20 10:57:01.376037
3558  2023-10-20 10:57:01.423911
3559  2023-10-20 10:57:01.471816
3560  2023-10-20 10:57:01.502731
3561  2023-10-20 10:57:01.549604
