
1  2023-11-08 11:37:32.771401
2  2023-11-08 11:37:32.817278
3  2023-11-08 11:37:32.849266
4  2023-11-08 11:37:32.897107
5  2023-11-08 11:37:32.929059
6  2023-11-08 11:37:32.976893
7  2023-11-08 11:37:33.024805
8  2023-11-08 11:37:33.056776
9  2023-11-08 11:37:33.104632
10  2023-11-08 11:37:33.136519
11  2023-11-08 11:37:33.184417
12  2023-11-08 11:37:33.232263
13  2023-11-08 11:37:33.264178
14  2023-11-08 11:37:33.312050
15  2023-11-08 11:37:33.359924
16  2023-11-08 11:37:33.391836
17  2023-11-08 11:37:33.439708
18  2023-11-08 11:37:33.471623
19  2023-11-08 11:37:33.519503
20  2023-11-08 11:37:33.567374
21  2023-11-08 11:37:33.598284
22  2023-11-08 11:37:33.646306
23  2023-11-08 11:37:33.678071
24  2023-11-08 11:37:33.723948
25  2023-11-08 11:37:33.771820
26  2023-11-08 11:37:33.817736
27  2023-11-08 11:37:33.849613
28  2023-11-08 11:37:33.897485
29  2023-11-08 11:37:33.929399
30  2023-11-08 11:37:33.977271
31  2023-11-08 11:37:34.025144
32  2023-11-08 11:37:34.056060
33  2023-11-08 11:37:34.103240
34  2023-11-08 11:37:34.151088
35  2023-11-08 11:37:34.183004
36  2023-11-08 11:37:34.230874
37  2023-11-08 11:37:34.262077
38  2023-11-08 11:37:34.307959
39  2023-11-08 11:37:34.354881
40  2023-11-08 11:37:34.386747
41  2023-11-08 11:37:34.432622
42  2023-11-08 11:37:34.480493
43  2023-11-08 11:37:34.512407
44  2023-11-08 11:37:34.560280
45  2023-11-08 11:37:34.608193
46  2023-11-08 11:37:34.640149
47  2023-11-08 11:37:34.688025
48  2023-11-08 11:37:34.734860
49  2023-11-08 11:37:34.766782
50  2023-11-08 11:37:34.814605
51  2023-11-08 11:37:34.845522
52  2023-11-08 11:37:34.893425
53  2023-11-08 11:37:34.941266
54  2023-11-08 11:37:34.973181
55  2023-11-08 11:37:35.021053
56  2023-11-08 11:37:35.052968
57  2023-11-08 11:37:35.100840
58  2023-11-08 11:37:35.148712
59  2023-11-08 11:37:35.180626
60  2023-11-08 11:37:35.228338
61  2023-11-08 11:37:35.275585
62  2023-11-08 11:37:35.307499
63  2023-11-08 11:37:35.354375
64  2023-11-08 11:37:35.401249
65  2023-11-08 11:37:35.432740
66  2023-11-08 11:37:35.480681
67  2023-11-08 11:37:35.512584
68  2023-11-08 11:37:35.560456
69  2023-11-08 11:37:35.607377
70  2023-11-08 11:37:35.638293
71  2023-11-08 11:37:35.685123
72  2023-11-08 11:37:35.733035
73  2023-11-08 11:37:35.764950
74  2023-11-08 11:37:35.812782
75  2023-11-08 11:37:35.844696
76  2023-11-08 11:37:35.892568
77  2023-11-08 11:37:35.940473
78  2023-11-08 11:37:35.972366
79  2023-11-08 11:37:36.020133
80  2023-11-08 11:37:36.067065
81  2023-11-08 11:37:36.098011
82  2023-11-08 11:37:36.146106
83  2023-11-08 11:37:36.177999
84  2023-11-08 11:37:36.223874
85  2023-11-08 11:37:36.271754
86  2023-11-08 11:37:36.303641
87  2023-11-08 11:37:36.351501
88  2023-11-08 11:37:36.399406
89  2023-11-08 11:37:36.431319
90  2023-11-08 11:37:36.479160
91  2023-11-08 11:37:36.526034
92  2023-11-08 11:37:36.556963
93  2023-11-08 11:37:36.603832
94  2023-11-08 11:37:36.649705
95  2023-11-08 11:37:36.681650
96  2023-11-08 11:37:36.729522
97  2023-11-08 11:37:36.761445
98  2023-11-08 11:37:36.809309
99  2023-11-08 11:37:36.857181
100  2023-11-08 11:37:36.889102
101  2023-11-08 11:37:36.937124
102  2023-11-08 11:37:36.985072
103  2023-11-08 11:37:37.017021
104  2023-11-08 11:37:37.062896
105  2023-11-08 11:37:37.094778
106  2023-11-08 11:37:37.142690
107  2023-11-08 11:37:37.190522
108  2023-11-08 11:37:37.222437
109  2023-11-08 11:37:37.269349
110  2023-11-08 11:37:37.317183
111  2023-11-08 11:37:37.349098
112  2023-11-08 11:37:37.396970
113  2023-11-08 11:37:37.428920
114  2023-11-08 11:37:37.476757
115  2023-11-08 11:37:37.524629
116  2023-11-08 11:37:37.556551
117  2023-11-08 11:37:37.604454
118  2023-11-08 11:37:37.636368
119  2023-11-08 11:37:37.683205
120  2023-11-08 11:37:37.731119
121  2023-11-08 11:37:37.776066
122  2023-11-08 11:37:37.807035
123  2023-11-08 11:37:37.853913
124  2023-11-08 11:37:37.900764
125  2023-11-08 11:37:37.931712
126  2023-11-08 11:37:37.979538
127  2023-11-08 11:37:38.011452
128  2023-11-08 11:37:38.058327
129  2023-11-08 11:37:38.106016
130  2023-11-08 11:37:38.137929
131  2023-11-08 11:37:38.183807
132  2023-11-08 11:37:38.231679
133  2023-11-08 11:37:38.262685
134  2023-11-08 11:37:38.309518
135  2023-11-08 11:37:38.357391
136  2023-11-08 11:37:38.389305
137  2023-11-08 11:37:38.435251
138  2023-11-08 11:37:38.483166
139  2023-11-08 11:37:38.515090
140  2023-11-08 11:37:38.562962
141  2023-11-08 11:37:38.595072
142  2023-11-08 11:37:38.642891
143  2023-11-08 11:37:38.690763
144  2023-11-08 11:37:38.722678
145  2023-11-08 11:37:38.770585
146  2023-11-08 11:37:38.818422
147  2023-11-08 11:37:38.850337
148  2023-11-08 11:37:38.898270
149  2023-11-08 11:37:38.930231
150  2023-11-08 11:37:38.978056
151  2023-11-08 11:37:39.023977
152  2023-11-08 11:37:39.054883
153  2023-11-08 11:37:39.101726
154  2023-11-08 11:37:39.147649
155  2023-11-08 11:37:39.179552
156  2023-11-08 11:37:39.227390
157  2023-11-08 11:37:39.274385
158  2023-11-08 11:37:39.306179
159  2023-11-08 11:37:39.354163
160  2023-11-08 11:37:39.400992
161  2023-11-08 11:37:39.432907
162  2023-11-08 11:37:39.480792
163  2023-11-08 11:37:39.512693
164  2023-11-08 11:37:39.560565
165  2023-11-08 11:37:39.608437
166  2023-11-08 11:37:39.640352
167  2023-11-08 11:37:39.688231
168  2023-11-08 11:37:39.720139
169  2023-11-08 11:37:39.768109
170  2023-11-08 11:37:39.816083
171  2023-11-08 11:37:39.847896
172  2023-11-08 11:37:39.893901
173  2023-11-08 11:37:39.941813
174  2023-11-08 11:37:39.973733
175  2023-11-08 11:37:40.019565
176  2023-11-08 11:37:40.067481
177  2023-11-08 11:37:40.099565
178  2023-11-08 11:37:40.147308
179  2023-11-08 11:37:40.179223
180  2023-11-08 11:37:40.227138
181  2023-11-08 11:37:40.275085
182  2023-11-08 11:37:40.307039
183  2023-11-08 11:37:40.354869
184  2023-11-08 11:37:40.400778
185  2023-11-08 11:37:40.432659
186  2023-11-08 11:37:40.480531
187  2023-11-08 11:37:40.512446
188  2023-11-08 11:37:40.560330
189  2023-11-08 11:37:40.608190
190  2023-11-08 11:37:40.640105
191  2023-11-08 11:37:40.687015
192  2023-11-08 11:37:40.734883
193  2023-11-08 11:37:40.766797
194  2023-11-08 11:37:40.814675
195  2023-11-08 11:37:40.846553
196  2023-11-08 11:37:40.894455
197  2023-11-08 11:37:40.942334
198  2023-11-08 11:37:40.974212
199  2023-11-08 11:37:41.022124
200  2023-11-08 11:37:41.054034
201  2023-11-08 11:37:41.101870
202  2023-11-08 11:37:41.149742
203  2023-11-08 11:37:41.181689
204  2023-11-08 11:37:41.229701
205  2023-11-08 11:37:41.261588
206  2023-11-08 11:37:41.309477
207  2023-11-08 11:37:41.357439
208  2023-11-08 11:37:41.389329
209  2023-11-08 11:37:41.437284
210  2023-11-08 11:37:41.483196
211  2023-11-08 11:37:41.514113
212  2023-11-08 11:37:41.560996
213  2023-11-08 11:37:41.608858
214  2023-11-08 11:37:41.640775
215  2023-11-08 11:37:41.687623
216  2023-11-08 11:37:41.734523
217  2023-11-08 11:37:41.766404
218  2023-11-08 11:37:41.814276
219  2023-11-08 11:37:41.859156
220  2023-11-08 11:37:41.890179
221  2023-11-08 11:37:41.938023
222  2023-11-08 11:37:41.983992
223  2023-11-08 11:37:42.015907
224  2023-11-08 11:37:42.063817
225  2023-11-08 11:37:42.095742
226  2023-11-08 11:37:42.143574
227  2023-11-08 11:37:42.191484
228  2023-11-08 11:37:42.223399
229  2023-11-08 11:37:42.270235
230  2023-11-08 11:37:42.317146
231  2023-11-08 11:37:42.347065
232  2023-11-08 11:37:42.395114
233  2023-11-08 11:37:42.443056
234  2023-11-08 11:37:42.474966
235  2023-11-08 11:37:42.521811
236  2023-11-08 11:37:42.567738
237  2023-11-08 11:37:42.599634
238  2023-11-08 11:37:42.646483
239  2023-11-08 11:37:42.678475
240  2023-11-08 11:37:42.726414
241  2023-11-08 11:37:42.774312
242  2023-11-08 11:37:42.806224
243  2023-11-08 11:37:42.854066
244  2023-11-08 11:37:42.900983
245  2023-11-08 11:37:42.933101
246  2023-11-08 11:37:42.980815
247  2023-11-08 11:37:43.012730
248  2023-11-08 11:37:43.060646
249  2023-11-08 11:37:43.107477
250  2023-11-08 11:37:43.138428
251  2023-11-08 11:37:43.185268
252  2023-11-08 11:37:43.232209
253  2023-11-08 11:37:43.264208
254  2023-11-08 11:37:43.312045
255  2023-11-08 11:37:43.359953
256  2023-11-08 11:37:43.391862
257  2023-11-08 11:37:43.439704
258  2023-11-08 11:37:43.469624
259  2023-11-08 11:37:43.517591
260  2023-11-08 11:37:43.565593
261  2023-11-08 11:37:43.597528
262  2023-11-08 11:37:43.645511
263  2023-11-08 11:37:43.693391
264  2023-11-08 11:37:43.724278
265  2023-11-08 11:37:43.771291
266  2023-11-08 11:37:43.817208
267  2023-11-08 11:37:43.848124
268  2023-11-08 11:37:43.895023
269  2023-11-08 11:37:43.942934
270  2023-11-08 11:37:43.974888
271  2023-11-08 11:37:44.022760
272  2023-11-08 11:37:44.053678
273  2023-11-08 11:37:44.099587
274  2023-11-08 11:37:44.146429
275  2023-11-08 11:37:44.178395
276  2023-11-08 11:37:44.226253
277  2023-11-08 11:37:44.273091
278  2023-11-08 11:37:44.304008
279  2023-11-08 11:37:44.351880
280  2023-11-08 11:37:44.398788
281  2023-11-08 11:37:44.429707
282  2023-11-08 11:37:44.477546
283  2023-11-08 11:37:44.525451
284  2023-11-08 11:37:44.557365
285  2023-11-08 11:37:44.605204
286  2023-11-08 11:37:44.637119
287  2023-11-08 11:37:44.684991
288  2023-11-08 11:37:44.730867
289  2023-11-08 11:37:44.762813
290  2023-11-08 11:37:44.810655
291  2023-11-08 11:37:44.857572
292  2023-11-08 11:37:44.888479
293  2023-11-08 11:37:44.936349
294  2023-11-08 11:37:44.984380
295  2023-11-08 11:37:45.016106
296  2023-11-08 11:37:45.064010
297  2023-11-08 11:37:45.095893
298  2023-11-08 11:37:45.142803
299  2023-11-08 11:37:45.189680
300  2023-11-08 11:37:45.221590
301  2023-11-08 11:37:45.267468
302  2023-11-08 11:37:45.314308
303  2023-11-08 11:37:45.346223
304  2023-11-08 11:37:45.394144
305  2023-11-08 11:37:45.442164
306  2023-11-08 11:37:45.474161
307  2023-11-08 11:37:45.522082
308  2023-11-08 11:37:45.554125
309  2023-11-08 11:37:45.602166
310  2023-11-08 11:37:45.650126
311  2023-11-08 11:37:45.682041
312  2023-11-08 11:37:45.729913
313  2023-11-08 11:37:45.761829
314  2023-11-08 11:37:45.809699
315  2023-11-08 11:37:45.857573
316  2023-11-08 11:37:45.888489
317  2023-11-08 11:37:45.935364
318  2023-11-08 11:37:45.982238
319  2023-11-08 11:37:46.013156
320  2023-11-08 11:37:46.061063
321  2023-11-08 11:37:46.109079
322  2023-11-08 11:37:46.141166
323  2023-11-08 11:37:46.188120
324  2023-11-08 11:37:46.234995
325  2023-11-08 11:37:46.266913
326  2023-11-08 11:37:46.314960
327  2023-11-08 11:37:46.344837
328  2023-11-08 11:37:46.392709
329  2023-11-08 11:37:46.440669
330  2023-11-08 11:37:46.472581
331  2023-11-08 11:37:46.520422
332  2023-11-08 11:37:46.568331
333  2023-11-08 11:37:46.599241
334  2023-11-08 11:37:46.646246
335  2023-11-08 11:37:46.678001
336  2023-11-08 11:37:46.723878
337  2023-11-08 11:37:46.771864
338  2023-11-08 11:37:46.803784
339  2023-11-08 11:37:46.851741
340  2023-11-08 11:37:46.898583
341  2023-11-08 11:37:46.930496
342  2023-11-08 11:37:46.978368
343  2023-11-08 11:37:47.026337
344  2023-11-08 11:37:47.058251
345  2023-11-08 11:37:47.104127
346  2023-11-08 11:37:47.151001
347  2023-11-08 11:37:47.182916
348  2023-11-08 11:37:47.230822
349  2023-11-08 11:37:47.262738
350  2023-11-08 11:37:47.310575
351  2023-11-08 11:37:47.358483
352  2023-11-08 11:37:47.390396
353  2023-11-08 11:37:47.436239
354  2023-11-08 11:37:47.484111
355  2023-11-08 11:37:47.516159
356  2023-11-08 11:37:47.564186
357  2023-11-08 11:37:47.595946
358  2023-11-08 11:37:47.643818
359  2023-11-08 11:37:47.691727
360  2023-11-08 11:37:47.723637
361  2023-11-08 11:37:47.770479
362  2023-11-08 11:37:47.817355
363  2023-11-08 11:37:47.849473
364  2023-11-08 11:37:47.897209
365  2023-11-08 11:37:47.929130
366  2023-11-08 11:37:47.976994
367  2023-11-08 11:37:48.024867
368  2023-11-08 11:37:48.056816
369  2023-11-08 11:37:48.104684
370  2023-11-08 11:37:48.136609
371  2023-11-08 11:37:48.184439
372  2023-11-08 11:37:48.232311
373  2023-11-08 11:37:48.264259
374  2023-11-08 11:37:48.312130
375  2023-11-08 11:37:48.359970
376  2023-11-08 11:37:48.391912
377  2023-11-08 11:37:48.438878
378  2023-11-08 11:37:48.469752
379  2023-11-08 11:37:48.517864
380  2023-11-08 11:37:48.565538
381  2023-11-08 11:37:48.597443
382  2023-11-08 11:37:48.645403
383  2023-11-08 11:37:48.693240
384  2023-11-08 11:37:48.725191
385  2023-11-08 11:37:48.773060
386  2023-11-08 11:37:48.802981
387  2023-11-08 11:37:48.851123
388  2023-11-08 11:37:48.899049
389  2023-11-08 11:37:48.930970
390  2023-11-08 11:37:48.978952
391  2023-11-08 11:37:49.025807
392  2023-11-08 11:37:49.057712
393  2023-11-08 11:37:49.105614
394  2023-11-08 11:37:49.136552
395  2023-11-08 11:37:49.183489
396  2023-11-08 11:37:49.229251
397  2023-11-08 11:37:49.261213
398  2023-11-08 11:37:49.309038
399  2023-11-08 11:37:49.356951
400  2023-11-08 11:37:49.388859
401  2023-11-08 11:37:49.436827
402  2023-11-08 11:37:49.484699
403  2023-11-08 11:37:49.516692
404  2023-11-08 11:37:49.564596
405  2023-11-08 11:37:49.596525
406  2023-11-08 11:37:49.644350
407  2023-11-08 11:37:49.692368
408  2023-11-08 11:37:49.724280
409  2023-11-08 11:37:49.772117
410  2023-11-08 11:37:49.804032
411  2023-11-08 11:37:49.849909
412  2023-11-08 11:37:49.897782
413  2023-11-08 11:37:49.929697
414  2023-11-08 11:37:49.977568
415  2023-11-08 11:37:50.025441
416  2023-11-08 11:37:50.057386
417  2023-11-08 11:37:50.105231
418  2023-11-08 11:37:50.137178
419  2023-11-08 11:37:50.185031
420  2023-11-08 11:37:50.233008
421  2023-11-08 11:37:50.264977
422  2023-11-08 11:37:50.312912
423  2023-11-08 11:37:50.344827
424  2023-11-08 11:37:50.392685
425  2023-11-08 11:37:50.440557
426  2023-11-08 11:37:50.472608
427  2023-11-08 11:37:50.520468
428  2023-11-08 11:37:50.568320
429  2023-11-08 11:37:50.600280
430  2023-11-08 11:37:50.648176
431  2023-11-08 11:37:50.680091
432  2023-11-08 11:37:50.727963
433  2023-11-08 11:37:50.775872
434  2023-11-08 11:37:50.807784
435  2023-11-08 11:37:50.855622
436  2023-11-08 11:37:50.886539
437  2023-11-08 11:37:50.934448
438  2023-11-08 11:37:50.982283
439  2023-11-08 11:37:51.014198
440  2023-11-08 11:37:51.062112
441  2023-11-08 11:37:51.109976
442  2023-11-08 11:37:51.141890
443  2023-11-08 11:37:51.189854
444  2023-11-08 11:37:51.221643
445  2023-11-08 11:37:51.269574
446  2023-11-08 11:37:51.317387
447  2023-11-08 11:37:51.349302
448  2023-11-08 11:37:51.397213
449  2023-11-08 11:37:51.429121
450  2023-11-08 11:37:51.476997
451  2023-11-08 11:37:51.524870
452  2023-11-08 11:37:51.556781
453  2023-11-08 11:37:51.604653
454  2023-11-08 11:37:51.636570
455  2023-11-08 11:37:51.684442
456  2023-11-08 11:37:51.732329
457  2023-11-08 11:37:51.764264
458  2023-11-08 11:37:51.811067
459  2023-11-08 11:37:51.857972
460  2023-11-08 11:37:51.889930
461  2023-11-08 11:37:51.937850
462  2023-11-08 11:37:51.969753
463  2023-11-08 11:37:52.017627
464  2023-11-08 11:37:52.065512
465  2023-11-08 11:37:52.097419
466  2023-11-08 11:37:52.145282
467  2023-11-08 11:37:52.193162
468  2023-11-08 11:37:52.225203
469  2023-11-08 11:37:52.272948
470  2023-11-08 11:37:52.304871
471  2023-11-08 11:37:52.351730
472  2023-11-08 11:37:52.398605
473  2023-11-08 11:37:52.430535
474  2023-11-08 11:37:52.478397
475  2023-11-08 11:37:52.526264
476  2023-11-08 11:37:52.558179
477  2023-11-08 11:37:52.606015
478  2023-11-08 11:37:52.637930
479  2023-11-08 11:37:52.685802
480  2023-11-08 11:37:52.733719
481  2023-11-08 11:37:52.765629
482  2023-11-08 11:37:52.813461
483  2023-11-08 11:37:52.845376
484  2023-11-08 11:37:52.893287
485  2023-11-08 11:37:52.941124
486  2023-11-08 11:37:52.973035
487  2023-11-08 11:37:53.020907
488  2023-11-08 11:37:53.067820
489  2023-11-08 11:37:53.098733
490  2023-11-08 11:37:53.146570
491  2023-11-08 11:37:53.178485
492  2023-11-08 11:37:53.225394
493  2023-11-08 11:37:53.273232
494  2023-11-08 11:37:53.304186
495  2023-11-08 11:37:53.350026
496  2023-11-08 11:37:53.397003
497  2023-11-08 11:37:53.428918
498  2023-11-08 11:37:53.476825
499  2023-11-08 11:37:53.524697
500  2023-11-08 11:37:53.556612
501  2023-11-08 11:37:53.604516
502  2023-11-08 11:37:53.636447
503  2023-11-08 11:37:53.683273
504  2023-11-08 11:37:53.730191
505  2023-11-08 11:37:53.762094
506  2023-11-08 11:37:53.807979
507  2023-11-08 11:37:53.854849
508  2023-11-08 11:37:53.886729
509  2023-11-08 11:37:53.934632
510  2023-11-08 11:37:53.982508
511  2023-11-08 11:37:54.014599
512  2023-11-08 11:37:54.062291
513  2023-11-08 11:37:54.109167
514  2023-11-08 11:37:54.140063
515  2023-11-08 11:37:54.186932
516  2023-11-08 11:37:54.233838
517  2023-11-08 11:37:54.265752
518  2023-11-08 11:37:54.312591
519  2023-11-08 11:37:54.359513
520  2023-11-08 11:37:54.391380
521  2023-11-08 11:37:54.439286
522  2023-11-08 11:37:54.471204
523  2023-11-08 11:37:54.519039
524  2023-11-08 11:37:54.566941
525  2023-11-08 11:37:54.598950
526  2023-11-08 11:37:54.646828
527  2023-11-08 11:37:54.678744
528  2023-11-08 11:37:54.726617
529  2023-11-08 11:37:54.774526
530  2023-11-08 11:37:54.806433
531  2023-11-08 11:37:54.854275
532  2023-11-08 11:37:54.886189
533  2023-11-08 11:37:54.934088
534  2023-11-08 11:37:54.980936
535  2023-11-08 11:37:55.012851
536  2023-11-08 11:37:55.060755
537  2023-11-08 11:37:55.108634
538  2023-11-08 11:37:55.139546
539  2023-11-08 11:37:55.187384
540  2023-11-08 11:37:55.234295
541  2023-11-08 11:37:55.265214
542  2023-11-08 11:37:55.313083
543  2023-11-08 11:37:55.344996
544  2023-11-08 11:37:55.391873
545  2023-11-08 11:37:55.438747
546  2023-11-08 11:37:55.470656
547  2023-11-08 11:37:55.518537
548  2023-11-08 11:37:55.566404
549  2023-11-08 11:37:55.598319
550  2023-11-08 11:37:55.646158
551  2023-11-08 11:37:55.678107
552  2023-11-08 11:37:55.725982
553  2023-11-08 11:37:55.773852
554  2023-11-08 11:37:55.805764
555  2023-11-08 11:37:55.851843
556  2023-11-08 11:37:55.899519
557  2023-11-08 11:37:55.931437
558  2023-11-08 11:37:55.979300
559  2023-11-08 11:37:56.011216
560  2023-11-08 11:37:56.058095
561  2023-11-08 11:37:56.105982
562  2023-11-08 11:37:56.137843
563  2023-11-08 11:37:56.185716
564  2023-11-08 11:37:56.233588
565  2023-11-08 11:37:56.264543
566  2023-11-08 11:37:56.310420
567  2023-11-08 11:37:56.357426
568  2023-11-08 11:37:56.389171
569  2023-11-08 11:37:56.437078
570  2023-11-08 11:37:56.484915
571  2023-11-08 11:37:56.517009
572  2023-11-08 11:37:56.564928
573  2023-11-08 11:37:56.596925
574  2023-11-08 11:37:56.644936
575  2023-11-08 11:37:56.692882
576  2023-11-08 11:37:56.724796
577  2023-11-08 11:37:56.772715
578  2023-11-08 11:37:56.804614
579  2023-11-08 11:37:56.852455
580  2023-11-08 11:37:56.900367
581  2023-11-08 11:37:56.932277
582  2023-11-08 11:37:56.980114
583  2023-11-08 11:37:57.026025
584  2023-11-08 11:37:57.056945
585  2023-11-08 11:37:57.104987
586  2023-11-08 11:37:57.136728
587  2023-11-08 11:37:57.184567
588  2023-11-08 11:37:57.230476
589  2023-11-08 11:37:57.262389
590  2023-11-08 11:37:57.310272
591  2023-11-08 11:37:57.358252
592  2023-11-08 11:37:57.390125
593  2023-11-08 11:37:57.438031
594  2023-11-08 11:37:57.469945
595  2023-11-08 11:37:57.517784
596  2023-11-08 11:37:57.565686
597  2023-11-08 11:37:57.597806
598  2023-11-08 11:37:57.645472
599  2023-11-08 11:37:57.693348
600  2023-11-08 11:37:57.725262
601  2023-11-08 11:37:57.773138
602  2023-11-08 11:37:57.805048
603  2023-11-08 11:37:57.852328
604  2023-11-08 11:37:57.900206
605  2023-11-08 11:37:57.931117
606  2023-11-08 11:37:57.978992
607  2023-11-08 11:37:58.025870
608  2023-11-08 11:37:58.056787
609  2023-11-08 11:37:58.104654
610  2023-11-08 11:37:58.136563
611  2023-11-08 11:37:58.184405
612  2023-11-08 11:37:58.232305
613  2023-11-08 11:37:58.264224
614  2023-11-08 11:37:58.310103
615  2023-11-08 11:37:58.357941
616  2023-11-08 11:37:58.388858
617  2023-11-08 11:37:58.435777
618  2023-11-08 11:37:58.483605
619  2023-11-08 11:37:58.515519
620  2023-11-08 11:37:58.563391
621  2023-11-08 11:37:58.595348
622  2023-11-08 11:37:58.643178
623  2023-11-08 11:37:58.690053
624  2023-11-08 11:37:58.720970
625  2023-11-08 11:37:58.768874
626  2023-11-08 11:37:58.816813
627  2023-11-08 11:37:58.848727
628  2023-11-08 11:37:58.896639
629  2023-11-08 11:37:58.928561
630  2023-11-08 11:37:58.976386
631  2023-11-08 11:37:59.024258
632  2023-11-08 11:37:59.056206
633  2023-11-08 11:37:59.103047
634  2023-11-08 11:37:59.149922
635  2023-11-08 11:37:59.181837
636  2023-11-08 11:37:59.229743
637  2023-11-08 11:37:59.261662
638  2023-11-08 11:37:59.308528
639  2023-11-08 11:37:59.355408
640  2023-11-08 11:37:59.387287
641  2023-11-08 11:37:59.433202
642  2023-11-08 11:37:59.480076
643  2023-11-08 11:37:59.511988
644  2023-11-08 11:37:59.558830
645  2023-11-08 11:37:59.606741
646  2023-11-08 11:37:59.638623
647  2023-11-08 11:37:59.684493
648  2023-11-08 11:37:59.732399
649  2023-11-08 11:37:59.764314
650  2023-11-08 11:37:59.812152
651  2023-11-08 11:37:59.860101
652  2023-11-08 11:37:59.892016
653  2023-11-08 11:37:59.937935
654  2023-11-08 11:37:59.969849
655  2023-11-08 11:38:00.017815
656  2023-11-08 11:38:00.065818
657  2023-11-08 11:38:00.096814
658  2023-11-08 11:38:00.143837
659  2023-11-08 11:38:00.191710
660  2023-11-08 11:38:00.223716
661  2023-11-08 11:38:00.271628
662  2023-11-08 11:38:00.317465
663  2023-11-08 11:38:00.349434
664  2023-11-08 11:38:00.395380
665  2023-11-08 11:38:00.443250
666  2023-11-08 11:38:00.475134
667  2023-11-08 11:38:00.523039
668  2023-11-08 11:38:00.555079
669  2023-11-08 11:38:00.602825
670  2023-11-08 11:38:00.650664
671  2023-11-08 11:38:00.682610
672  2023-11-08 11:38:00.730451
673  2023-11-08 11:38:00.762399
674  2023-11-08 11:38:00.810272
675  2023-11-08 11:38:00.858146
676  2023-11-08 11:38:00.890061
677  2023-11-08 11:38:00.937932
678  2023-11-08 11:38:00.969848
679  2023-11-08 11:38:01.016686
680  2023-11-08 11:38:01.064593
681  2023-11-08 11:38:01.096532
682  2023-11-08 11:38:01.144405
683  2023-11-08 11:38:01.192493
684  2023-11-08 11:38:01.224261
685  2023-11-08 11:38:01.272138
686  2023-11-08 11:38:01.304049
687  2023-11-08 11:38:01.350928
688  2023-11-08 11:38:01.398814
689  2023-11-08 11:38:01.430711
690  2023-11-08 11:38:01.477578
691  2023-11-08 11:38:01.524590
692  2023-11-08 11:38:01.557338
693  2023-11-08 11:38:01.604079
694  2023-11-08 11:38:01.651049
695  2023-11-08 11:38:01.680969
696  2023-11-08 11:38:01.728841
697  2023-11-08 11:38:01.776726
698  2023-11-08 11:38:01.808632
699  2023-11-08 11:38:01.856505
700  2023-11-08 11:38:01.888419
701  2023-11-08 11:38:01.936322
702  2023-11-08 11:38:01.984163
703  2023-11-08 11:38:02.016158
704  2023-11-08 11:38:02.063988
705  2023-11-08 11:38:02.095946
706  2023-11-08 11:38:02.143818
707  2023-11-08 11:38:02.191843
708  2023-11-08 11:38:02.223758
709  2023-11-08 11:38:02.270668
710  2023-11-08 11:38:02.317507
711  2023-11-08 11:38:02.349421
712  2023-11-08 11:38:02.397328
713  2023-11-08 11:38:02.429284
714  2023-11-08 11:38:02.477160
715  2023-11-08 11:38:02.525112
716  2023-11-08 11:38:02.557026
717  2023-11-08 11:38:02.604943
718  2023-11-08 11:38:02.636844
719  2023-11-08 11:38:02.684726
720  2023-11-08 11:38:02.732591
721  2023-11-08 11:38:02.764659
722  2023-11-08 11:38:02.812628
723  2023-11-08 11:38:02.858540
724  2023-11-08 11:38:02.890458
725  2023-11-08 11:38:02.938326
726  2023-11-08 11:38:02.970241
727  2023-11-08 11:38:03.017122
728  2023-11-08 11:38:03.063023
729  2023-11-08 11:38:03.109870
730  2023-11-08 11:38:03.141783
731  2023-11-08 11:38:03.187658
732  2023-11-08 11:38:03.234508
733  2023-11-08 11:38:03.266416
734  2023-11-08 11:38:03.314287
735  2023-11-08 11:38:03.359283
736  2023-11-08 11:38:03.390204
737  2023-11-08 11:38:03.436115
738  2023-11-08 11:38:03.483955
739  2023-11-08 11:38:03.515870
740  2023-11-08 11:38:03.563769
741  2023-11-08 11:38:03.595687
742  2023-11-08 11:38:03.643523
743  2023-11-08 11:38:03.691426
744  2023-11-08 11:38:03.723310
745  2023-11-08 11:38:03.771218
746  2023-11-08 11:38:03.818057
747  2023-11-08 11:38:03.848974
748  2023-11-08 11:38:03.896877
749  2023-11-08 11:38:03.928761
750  2023-11-08 11:38:03.976666
751  2023-11-08 11:38:04.024536
752  2023-11-08 11:38:04.055454
753  2023-11-08 11:38:04.101332
754  2023-11-08 11:38:04.149207
755  2023-11-08 11:38:04.181120
756  2023-11-08 11:38:04.228989
757  2023-11-08 11:38:04.275872
758  2023-11-08 11:38:04.306751
759  2023-11-08 11:38:04.352627
760  2023-11-08 11:38:04.400500
761  2023-11-08 11:38:04.432424
762  2023-11-08 11:38:04.480286
763  2023-11-08 11:38:04.512287
764  2023-11-08 11:38:04.560169
765  2023-11-08 11:38:04.608167
766  2023-11-08 11:38:04.639946
767  2023-11-08 11:38:04.687818
768  2023-11-08 11:38:04.719732
769  2023-11-08 11:38:04.767636
770  2023-11-08 11:38:04.815476
771  2023-11-08 11:38:04.847391
772  2023-11-08 11:38:04.895263
773  2023-11-08 11:38:04.943225
774  2023-11-08 11:38:04.975180
775  2023-11-08 11:38:05.023011
776  2023-11-08 11:38:05.054925
777  2023-11-08 11:38:05.101801
778  2023-11-08 11:38:05.147679
779  2023-11-08 11:38:05.179594
780  2023-11-08 11:38:05.227503
781  2023-11-08 11:38:05.275480
782  2023-11-08 11:38:05.307285
783  2023-11-08 11:38:05.355124
784  2023-11-08 11:38:05.386288
785  2023-11-08 11:38:05.433166
786  2023-11-08 11:38:05.481036
787  2023-11-08 11:38:05.512951
788  2023-11-08 11:38:05.560894
789  2023-11-08 11:38:05.608727
790  2023-11-08 11:38:05.640901
791  2023-11-08 11:38:05.687735
792  2023-11-08 11:38:05.734676
793  2023-11-08 11:38:05.766577
794  2023-11-08 11:38:05.814456
795  2023-11-08 11:38:05.846374
796  2023-11-08 11:38:05.894246
797  2023-11-08 11:38:05.941081
798  2023-11-08 11:38:05.973029
799  2023-11-08 11:38:06.020903
800  2023-11-08 11:38:06.067774
801  2023-11-08 11:38:06.097695
802  2023-11-08 11:38:06.143593
803  2023-11-08 11:38:06.190413
804  2023-11-08 11:38:06.221330
805  2023-11-08 11:38:06.269244
806  2023-11-08 11:38:06.317074
807  2023-11-08 11:38:06.348989
808  2023-11-08 11:38:06.396897
809  2023-11-08 11:38:06.428810
810  2023-11-08 11:38:06.476648
811  2023-11-08 11:38:06.524520
812  2023-11-08 11:38:06.556434
813  2023-11-08 11:38:06.603397
814  2023-11-08 11:38:06.649350
815  2023-11-08 11:38:06.680268
816  2023-11-08 11:38:06.728176
817  2023-11-08 11:38:06.774126
818  2023-11-08 11:38:06.806052
819  2023-11-08 11:38:06.854000
820  2023-11-08 11:38:06.900876
821  2023-11-08 11:38:06.931799
822  2023-11-08 11:38:06.979660
823  2023-11-08 11:38:07.011553
824  2023-11-08 11:38:07.059425
825  2023-11-08 11:38:07.106341
826  2023-11-08 11:38:07.138291
827  2023-11-08 11:38:07.185166
828  2023-11-08 11:38:07.233032
829  2023-11-08 11:38:07.264947
830  2023-11-08 11:38:07.312821
831  2023-11-08 11:38:07.344733
832  2023-11-08 11:38:07.392615
833  2023-11-08 11:38:07.440578
834  2023-11-08 11:38:07.471397
835  2023-11-08 11:38:07.518240
836  2023-11-08 11:38:07.566119
837  2023-11-08 11:38:07.598027
838  2023-11-08 11:38:07.645897
839  2023-11-08 11:38:07.692904
840  2023-11-08 11:38:07.723689
841  2023-11-08 11:38:07.771614
842  2023-11-08 11:38:07.803511
843  2023-11-08 11:38:07.851348
844  2023-11-08 11:38:07.899255
845  2023-11-08 11:38:07.931170
846  2023-11-08 11:38:07.978009
847  2023-11-08 11:38:08.024936
848  2023-11-08 11:38:08.056915
849  2023-11-08 11:38:08.104787
850  2023-11-08 11:38:08.150729
851  2023-11-08 11:38:08.182579
852  2023-11-08 11:38:08.230487
853  2023-11-08 11:38:08.262397
854  2023-11-08 11:38:08.310272
855  2023-11-08 11:38:08.358109
856  2023-11-08 11:38:08.390024
857  2023-11-08 11:38:08.437931
858  2023-11-08 11:38:08.469843
859  2023-11-08 11:38:08.517683
860  2023-11-08 11:38:08.565593
861  2023-11-08 11:38:08.597505
862  2023-11-08 11:38:08.643378
863  2023-11-08 11:38:08.690583
864  2023-11-08 11:38:08.722810
865  2023-11-08 11:38:08.768481
866  2023-11-08 11:38:08.816320
867  2023-11-08 11:38:08.848235
868  2023-11-08 11:38:08.896108
869  2023-11-08 11:38:08.928022
870  2023-11-08 11:38:08.973933
871  2023-11-08 11:38:09.020775
872  2023-11-08 11:38:09.067681
873  2023-11-08 11:38:09.099598
874  2023-11-08 11:38:09.147435
875  2023-11-08 11:38:09.179350
876  2023-11-08 11:38:09.227222
877  2023-11-08 11:38:09.275131
878  2023-11-08 11:38:09.307044
879  2023-11-08 11:38:09.354961
880  2023-11-08 11:38:09.386876
881  2023-11-08 11:38:09.433783
882  2023-11-08 11:38:09.481622
883  2023-11-08 11:38:09.513669
884  2023-11-08 11:38:09.561441
885  2023-11-08 11:38:09.609281
886  2023-11-08 11:38:09.641196
887  2023-11-08 11:38:09.689068
888  2023-11-08 11:38:09.720982
889  2023-11-08 11:38:09.768855
890  2023-11-08 11:38:09.816726
891  2023-11-08 11:38:09.848641
892  2023-11-08 11:38:09.896513
893  2023-11-08 11:38:09.928428
894  2023-11-08 11:38:09.976332
895  2023-11-08 11:38:10.024204
896  2023-11-08 11:38:10.056087
897  2023-11-08 11:38:10.103959
898  2023-11-08 11:38:10.150833
899  2023-11-08 11:38:10.181751
900  2023-11-08 11:38:10.229671
901  2023-11-08 11:38:10.261572
902  2023-11-08 11:38:10.309445
903  2023-11-08 11:38:10.357348
904  2023-11-08 11:38:10.389398
905  2023-11-08 11:38:10.437168
906  2023-11-08 11:38:10.485007
907  2023-11-08 11:38:10.516922
908  2023-11-08 11:38:10.564829
909  2023-11-08 11:38:10.596741
910  2023-11-08 11:38:10.644580
911  2023-11-08 11:38:10.692452
912  2023-11-08 11:38:10.724367
913  2023-11-08 11:38:10.772273
914  2023-11-08 11:38:10.804189
915  2023-11-08 11:38:10.852059
916  2023-11-08 11:38:10.898940
917  2023-11-08 11:38:10.928853
918  2023-11-08 11:38:10.975728
919  2023-11-08 11:38:11.022602
920  2023-11-08 11:38:11.054521
921  2023-11-08 11:38:11.102391
922  2023-11-08 11:38:11.150262
923  2023-11-08 11:38:11.182176
924  2023-11-08 11:38:11.230047
925  2023-11-08 11:38:11.275926
926  2023-11-08 11:38:11.307847
927  2023-11-08 11:38:11.355680
928  2023-11-08 11:38:11.386598
929  2023-11-08 11:38:11.432514
930  2023-11-08 11:38:11.480346
931  2023-11-08 11:38:11.526233
932  2023-11-08 11:38:11.558138
933  2023-11-08 11:38:11.606044
934  2023-11-08 11:38:11.637961
935  2023-11-08 11:38:11.685797
936  2023-11-08 11:38:11.732705
937  2023-11-08 11:38:11.764617
938  2023-11-08 11:38:11.812587
939  2023-11-08 11:38:11.859368
940  2023-11-08 11:38:11.890250
941  2023-11-08 11:38:11.938124
942  2023-11-08 11:38:11.970075
943  2023-11-08 11:38:12.017909
944  2023-11-08 11:38:12.065815
945  2023-11-08 11:38:12.097819
946  2023-11-08 11:38:12.145568
947  2023-11-08 11:38:12.192479
948  2023-11-08 11:38:12.223394
949  2023-11-08 11:38:12.271267
950  2023-11-08 11:38:12.303191
951  2023-11-08 11:38:12.351053
952  2023-11-08 11:38:12.398922
953  2023-11-08 11:38:12.430841
954  2023-11-08 11:38:12.476716
955  2023-11-08 11:38:12.522561
956  2023-11-08 11:38:12.567471
957  2023-11-08 11:38:12.599404
958  2023-11-08 11:38:12.647226
959  2023-11-08 11:38:12.679141
960  2023-11-08 11:38:12.727013
961  2023-11-08 11:38:12.774921
962  2023-11-08 11:38:12.806845
963  2023-11-08 11:38:12.854672
964  2023-11-08 11:38:12.901587
965  2023-11-08 11:38:12.932497
966  2023-11-08 11:38:12.979339
967  2023-11-08 11:38:13.011253
968  2023-11-08 11:38:13.059240
969  2023-11-08 11:38:13.107241
970  2023-11-08 11:38:13.139151
971  2023-11-08 11:38:13.186983
972  2023-11-08 11:38:13.233087
973  2023-11-08 11:38:13.264808
974  2023-11-08 11:38:13.312647
975  2023-11-08 11:38:13.344601
976  2023-11-08 11:38:13.392435
977  2023-11-08 11:38:13.440306
978  2023-11-08 11:38:13.472340
979  2023-11-08 11:38:13.520299
980  2023-11-08 11:38:13.568173
981  2023-11-08 11:38:13.600086
982  2023-11-08 11:38:13.647991
983  2023-11-08 11:38:13.679873
984  2023-11-08 11:38:13.727777
985  2023-11-08 11:38:13.775651
986  2023-11-08 11:38:13.806591
987  2023-11-08 11:38:13.853447
988  2023-11-08 11:38:13.901314
989  2023-11-08 11:38:13.933253
990  2023-11-08 11:38:13.981101
991  2023-11-08 11:38:14.012017
992  2023-11-08 11:38:14.058893
993  2023-11-08 11:38:14.105767
994  2023-11-08 11:38:14.137681
995  2023-11-08 11:38:14.184611
996  2023-11-08 11:38:14.232445
997  2023-11-08 11:38:14.264357
998  2023-11-08 11:38:14.312215
999  2023-11-08 11:38:14.360090
1000  2023-11-08 11:38:14.391995
1001  2023-11-08 11:38:14.437941
1002  2023-11-08 11:38:14.469933
1003  2023-11-08 11:38:14.517772
1004  2023-11-08 11:38:14.565699
1005  2023-11-08 11:38:14.597598
1006  2023-11-08 11:38:14.645431
1007  2023-11-08 11:38:14.693304
1008  2023-11-08 11:38:14.725253
1009  2023-11-08 11:38:14.773127
1010  2023-11-08 11:38:14.805046
1011  2023-11-08 11:38:14.852876
1012  2023-11-08 11:38:14.900869
1013  2023-11-08 11:38:14.932681
1014  2023-11-08 11:38:14.980519
1015  2023-11-08 11:38:15.011437
1016  2023-11-08 11:38:15.057380
1017  2023-11-08 11:38:15.104234
1018  2023-11-08 11:38:15.151063
1019  2023-11-08 11:38:15.182978
1020  2023-11-08 11:38:15.228888
1021  2023-11-08 11:38:15.276764
1022  2023-11-08 11:38:15.308673
1023  2023-11-08 11:38:15.356551
1024  2023-11-08 11:38:15.388429
1025  2023-11-08 11:38:15.436341
1026  2023-11-08 11:38:15.484206
1027  2023-11-08 11:38:15.516123
1028  2023-11-08 11:38:15.563998
1029  2023-11-08 11:38:15.595911
1030  2023-11-08 11:38:15.643786
1031  2023-11-08 11:38:15.691651
1032  2023-11-08 11:38:15.723570
1033  2023-11-08 11:38:15.771406
1034  2023-11-08 11:38:15.803358
1035  2023-11-08 11:38:15.851226
1036  2023-11-08 11:38:15.899106
1037  2023-11-08 11:38:15.931155
1038  2023-11-08 11:38:15.977883
1039  2023-11-08 11:38:16.025726
1040  2023-11-08 11:38:16.055680
1041  2023-11-08 11:38:16.103563
1042  2023-11-08 11:38:16.151423
1043  2023-11-08 11:38:16.183402
1044  2023-11-08 11:38:16.230207
1045  2023-11-08 11:38:16.276057
1046  2023-11-08 11:38:16.307007
1047  2023-11-08 11:38:16.354846
1048  2023-11-08 11:38:16.401846
1049  2023-11-08 11:38:16.431864
1050  2023-11-08 11:38:16.479914
1051  2023-11-08 11:38:16.511685
1052  2023-11-08 11:38:16.559629
1053  2023-11-08 11:38:16.607535
1054  2023-11-08 11:38:16.639450
1055  2023-11-08 11:38:16.687288
1056  2023-11-08 11:38:16.734201
1057  2023-11-08 11:38:16.765124
1058  2023-11-08 11:38:16.812998
1059  2023-11-08 11:38:16.845034
1060  2023-11-08 11:38:16.892878
1061  2023-11-08 11:38:16.940850
1062  2023-11-08 11:38:16.972767
1063  2023-11-08 11:38:17.020604
1064  2023-11-08 11:38:17.067519
1065  2023-11-08 11:38:17.098432
1066  2023-11-08 11:38:17.146314
1067  2023-11-08 11:38:17.178425
1068  2023-11-08 11:38:17.226301
1069  2023-11-08 11:38:17.274183
1070  2023-11-08 11:38:17.306055
1071  2023-11-08 11:38:17.353965
1072  2023-11-08 11:38:17.400830
1073  2023-11-08 11:38:17.431749
1074  2023-11-08 11:38:17.478624
1075  2023-11-08 11:38:17.526462
1076  2023-11-08 11:38:17.558379
1077  2023-11-08 11:38:17.604301
1078  2023-11-08 11:38:17.636204
1079  2023-11-08 11:38:17.685071
1080  2023-11-08 11:38:17.731948
1081  2023-11-08 11:38:17.764827
1082  2023-11-08 11:38:17.811700
1083  2023-11-08 11:38:17.859614
1084  2023-11-08 11:38:17.891487
1085  2023-11-08 11:38:17.939392
1086  2023-11-08 11:38:17.970312
1087  2023-11-08 11:38:18.018148
1088  2023-11-08 11:38:18.066066
1089  2023-11-08 11:38:18.097935
1090  2023-11-08 11:38:18.145807
1091  2023-11-08 11:38:18.192713
1092  2023-11-08 11:38:18.223599
1093  2023-11-08 11:38:18.271587
1094  2023-11-08 11:38:18.303534
1095  2023-11-08 11:38:18.351376
1096  2023-11-08 11:38:18.399248
1097  2023-11-08 11:38:18.431166
1098  2023-11-08 11:38:18.477072
1099  2023-11-08 11:38:18.524912
1100  2023-11-08 11:38:18.556981
1101  2023-11-08 11:38:18.604883
1102  2023-11-08 11:38:18.650730
1103  2023-11-08 11:38:18.682645
1104  2023-11-08 11:38:18.730549
1105  2023-11-08 11:38:18.762465
1106  2023-11-08 11:38:18.810336
1107  2023-11-08 11:38:18.858209
1108  2023-11-08 11:38:18.890090
1109  2023-11-08 11:38:18.937963
1110  2023-11-08 11:38:18.969879
1111  2023-11-08 11:38:19.017873
1112  2023-11-08 11:38:19.065656
1113  2023-11-08 11:38:19.095583
1114  2023-11-08 11:38:19.143451
1115  2023-11-08 11:38:19.191322
1116  2023-11-08 11:38:19.223233
1117  2023-11-08 11:38:19.271107
1118  2023-11-08 11:38:19.303032
1119  2023-11-08 11:38:19.350891
1120  2023-11-08 11:38:19.398777
1121  2023-11-08 11:38:19.430689
1122  2023-11-08 11:38:19.478551
1123  2023-11-08 11:38:19.526389
1124  2023-11-08 11:38:19.558304
1125  2023-11-08 11:38:19.606223
1126  2023-11-08 11:38:19.638137
1127  2023-11-08 11:38:19.686100
1128  2023-11-08 11:38:19.732977
1129  2023-11-08 11:38:19.763892
1130  2023-11-08 11:38:19.811759
1131  2023-11-08 11:38:19.859638
1132  2023-11-08 11:38:19.891546
1133  2023-11-08 11:38:19.940387
1134  2023-11-08 11:38:19.971329
1135  2023-11-08 11:38:20.019306
1136  2023-11-08 11:38:20.068208
1137  2023-11-08 11:38:20.100124
1138  2023-11-08 11:38:20.145098
1139  2023-11-08 11:38:20.190976
1140  2023-11-08 11:38:20.222890
1141  2023-11-08 11:38:20.268801
1142  2023-11-08 11:38:20.316640
1143  2023-11-08 11:38:20.348554
1144  2023-11-08 11:38:20.396426
1145  2023-11-08 11:38:20.428341
1146  2023-11-08 11:38:20.476416
1147  2023-11-08 11:38:20.524085
1148  2023-11-08 11:38:20.556000
1149  2023-11-08 11:38:20.603905
1150  2023-11-08 11:38:20.651744
1151  2023-11-08 11:38:20.682661
1152  2023-11-08 11:38:20.729539
1153  2023-11-08 11:38:20.761450
1154  2023-11-08 11:38:20.809324
1155  2023-11-08 11:38:20.857350
1156  2023-11-08 11:38:20.889235
1157  2023-11-08 11:38:20.937108
1158  2023-11-08 11:38:20.985009
1159  2023-11-08 11:38:21.017012
1160  2023-11-08 11:38:21.064886
1161  2023-11-08 11:38:21.096806
1162  2023-11-08 11:38:21.144671
1163  2023-11-08 11:38:21.192514
1164  2023-11-08 11:38:21.223433
1165  2023-11-08 11:38:21.270340
1166  2023-11-08 11:38:21.318206
1167  2023-11-08 11:38:21.350123
1168  2023-11-08 11:38:21.397997
1169  2023-11-08 11:38:21.429914
1170  2023-11-08 11:38:21.477782
1171  2023-11-08 11:38:21.524659
1172  2023-11-08 11:38:21.555579
1173  2023-11-08 11:38:21.603455
1174  2023-11-08 11:38:21.651320
1175  2023-11-08 11:38:21.683234
1176  2023-11-08 11:38:21.731075
1177  2023-11-08 11:38:21.762988
1178  2023-11-08 11:38:21.810893
1179  2023-11-08 11:38:21.856737
1180  2023-11-08 11:38:21.888685
1181  2023-11-08 11:38:21.937577
1182  2023-11-08 11:38:21.984396
1183  2023-11-08 11:38:22.016311
1184  2023-11-08 11:38:22.065213
1185  2023-11-08 11:38:22.097128
1186  2023-11-08 11:38:22.143005
1187  2023-11-08 11:38:22.190843
1188  2023-11-08 11:38:22.222758
1189  2023-11-08 11:38:22.270676
1190  2023-11-08 11:38:22.317505
1191  2023-11-08 11:38:22.348422
1192  2023-11-08 11:38:22.396294
1193  2023-11-08 11:38:22.428209
1194  2023-11-08 11:38:22.476112
1195  2023-11-08 11:38:22.523953
1196  2023-11-08 11:38:22.554870
1197  2023-11-08 11:38:22.601779
1198  2023-11-08 11:38:22.649617
1199  2023-11-08 11:38:22.681665
1200  2023-11-08 11:38:22.729405
1201  2023-11-08 11:38:22.761318
1202  2023-11-08 11:38:22.809224
1203  2023-11-08 11:38:22.857064
1204  2023-11-08 11:38:22.887980
1205  2023-11-08 11:38:22.934887
1206  2023-11-08 11:38:22.982726
1207  2023-11-08 11:38:23.014671
1208  2023-11-08 11:38:23.062544
1209  2023-11-08 11:38:23.108423
1210  2023-11-08 11:38:23.140421
1211  2023-11-08 11:38:23.188472
1212  2023-11-08 11:38:23.220479
1213  2023-11-08 11:38:23.268350
1214  2023-11-08 11:38:23.316222
1215  2023-11-08 11:38:23.348139
1216  2023-11-08 11:38:23.395978
1217  2023-11-08 11:38:23.427929
1218  2023-11-08 11:38:23.475794
1219  2023-11-08 11:38:23.522675
1220  2023-11-08 11:38:23.554590
1221  2023-11-08 11:38:23.602490
1222  2023-11-08 11:38:23.650328
1223  2023-11-08 11:38:23.682243
1224  2023-11-08 11:38:23.729119
1225  2023-11-08 11:38:23.774997
1226  2023-11-08 11:38:23.806913
1227  2023-11-08 11:38:23.852755
1228  2023-11-08 11:38:23.900662
1229  2023-11-08 11:38:23.932664
1230  2023-11-08 11:38:23.980447
1231  2023-11-08 11:38:24.012367
1232  2023-11-08 11:38:24.060200
1233  2023-11-08 11:38:24.108108
1234  2023-11-08 11:38:24.139031
1235  2023-11-08 11:38:24.185864
1236  2023-11-08 11:38:24.233769
1237  2023-11-08 11:38:24.265679
1238  2023-11-08 11:38:24.313523
1239  2023-11-08 11:38:24.345472
1240  2023-11-08 11:38:24.393309
1241  2023-11-08 11:38:24.441218
1242  2023-11-08 11:38:24.473098
1243  2023-11-08 11:38:24.520968
1244  2023-11-08 11:38:24.552883
1245  2023-11-08 11:38:24.600787
1246  2023-11-08 11:38:24.648627
1247  2023-11-08 11:38:24.680541
1248  2023-11-08 11:38:24.728413
1249  2023-11-08 11:38:24.776318
1250  2023-11-08 11:38:24.808235
1251  2023-11-08 11:38:24.856072
1252  2023-11-08 11:38:24.887987
1253  2023-11-08 11:38:24.935891
1254  2023-11-08 11:38:24.983731
1255  2023-11-08 11:38:25.015647
1256  2023-11-08 11:38:25.063554
1257  2023-11-08 11:38:25.109429
1258  2023-11-08 11:38:25.141350
1259  2023-11-08 11:38:25.189182
1260  2023-11-08 11:38:25.221096
1261  2023-11-08 11:38:25.269005
1262  2023-11-08 11:38:25.316873
1263  2023-11-08 11:38:25.348785
1264  2023-11-08 11:38:25.396660
1265  2023-11-08 11:38:25.428591
1266  2023-11-08 11:38:25.476444
1267  2023-11-08 11:38:25.524324
1268  2023-11-08 11:38:25.556324
1269  2023-11-08 11:38:25.604169
1270  2023-11-08 11:38:25.651071
1271  2023-11-08 11:38:25.682985
1272  2023-11-08 11:38:25.728962
1273  2023-11-08 11:38:25.774738
1274  2023-11-08 11:38:25.805725
1275  2023-11-08 11:38:25.851569
1276  2023-11-08 11:38:25.899472
1277  2023-11-08 11:38:25.931356
1278  2023-11-08 11:38:25.979258
1279  2023-11-08 11:38:26.011177
1280  2023-11-08 11:38:26.059014
1281  2023-11-08 11:38:26.106919
1282  2023-11-08 11:38:26.138803
1283  2023-11-08 11:38:26.186673
1284  2023-11-08 11:38:26.234758
1285  2023-11-08 11:38:26.266494
1286  2023-11-08 11:38:26.314332
1287  2023-11-08 11:38:26.346277
1288  2023-11-08 11:38:26.394120
1289  2023-11-08 11:38:26.442025
1290  2023-11-08 11:38:26.473940
1291  2023-11-08 11:38:26.521779
1292  2023-11-08 11:38:26.553693
1293  2023-11-08 11:38:26.601651
1294  2023-11-08 11:38:26.648591
1295  2023-11-08 11:38:26.679509
1296  2023-11-08 11:38:26.727381
1297  2023-11-08 11:38:26.775298
1298  2023-11-08 11:38:26.807352
1299  2023-11-08 11:38:26.855039
1300  2023-11-08 11:38:26.886954
1301  2023-11-08 11:38:26.934864
1302  2023-11-08 11:38:26.982698
1303  2023-11-08 11:38:27.014613
1304  2023-11-08 11:38:27.062517
1305  2023-11-08 11:38:27.109393
1306  2023-11-08 11:38:27.140312
1307  2023-11-08 11:38:27.188149
1308  2023-11-08 11:38:27.220064
1309  2023-11-08 11:38:27.266085
1310  2023-11-08 11:38:27.312847
1311  2023-11-08 11:38:27.359743
1312  2023-11-08 11:38:27.391642
1313  2023-11-08 11:38:27.438510
1314  2023-11-08 11:38:27.484357
1315  2023-11-08 11:38:27.515308
1316  2023-11-08 11:38:27.561164
1317  2023-11-08 11:38:27.609051
1318  2023-11-08 11:38:27.640972
1319  2023-11-08 11:38:27.688810
1320  2023-11-08 11:38:27.719728
1321  2023-11-08 11:38:27.767600
1322  2023-11-08 11:38:27.815472
1323  2023-11-08 11:38:27.847525
1324  2023-11-08 11:38:27.895397
1325  2023-11-08 11:38:27.942431
1326  2023-11-08 11:38:27.973359
1327  2023-11-08 11:38:28.021188
1328  2023-11-08 11:38:28.053258
1329  2023-11-08 11:38:28.101166
1330  2023-11-08 11:38:28.148005
1331  2023-11-08 11:38:28.178922
1332  2023-11-08 11:38:28.226842
1333  2023-11-08 11:38:28.273704
1334  2023-11-08 11:38:28.305587
1335  2023-11-08 11:38:28.353491
1336  2023-11-08 11:38:28.401359
1337  2023-11-08 11:38:28.434268
1338  2023-11-08 11:38:28.481114
1339  2023-11-08 11:38:28.513065
1340  2023-11-08 11:38:28.559931
1341  2023-11-08 11:38:28.606808
1342  2023-11-08 11:38:28.638905
1343  2023-11-08 11:38:28.684748
1344  2023-11-08 11:38:28.732617
1345  2023-11-08 11:38:28.764532
1346  2023-11-08 11:38:28.812405
1347  2023-11-08 11:38:28.859251
1348  2023-11-08 11:38:28.891205
1349  2023-11-08 11:38:28.938071
1350  2023-11-08 11:38:28.970016
1351  2023-11-08 11:38:29.018861
1352  2023-11-08 11:38:29.066749
1353  2023-11-08 11:38:29.097650
1354  2023-11-08 11:38:29.145518
1355  2023-11-08 11:38:29.193352
1356  2023-11-08 11:38:29.224269
1357  2023-11-08 11:38:29.272176
1358  2023-11-08 11:38:29.304090
1359  2023-11-08 11:38:29.349933
1360  2023-11-08 11:38:29.397839
1361  2023-11-08 11:38:29.429759
1362  2023-11-08 11:38:29.476594
1363  2023-11-08 11:38:29.524466
1364  2023-11-08 11:38:29.556381
1365  2023-11-08 11:38:29.604291
1366  2023-11-08 11:38:29.636206
1367  2023-11-08 11:38:29.684040
1368  2023-11-08 11:38:29.731943
1369  2023-11-08 11:38:29.763872
1370  2023-11-08 11:38:29.810821
1371  2023-11-08 11:38:29.857577
1372  2023-11-08 11:38:29.888528
1373  2023-11-08 11:38:29.934449
1374  2023-11-08 11:38:29.980613
1375  2023-11-08 11:38:30.012535
1376  2023-11-08 11:38:30.059404
1377  2023-11-08 11:38:30.106387
1378  2023-11-08 11:38:30.138312
1379  2023-11-08 11:38:30.186142
1380  2023-11-08 11:38:30.234048
1381  2023-11-08 11:38:30.265966
1382  2023-11-08 11:38:30.313833
1383  2023-11-08 11:38:30.345918
1384  2023-11-08 11:38:30.393588
1385  2023-11-08 11:38:30.441500
1386  2023-11-08 11:38:30.473375
1387  2023-11-08 11:38:30.521281
1388  2023-11-08 11:38:30.553162
1389  2023-11-08 11:38:30.602062
1390  2023-11-08 11:38:30.648907
1391  2023-11-08 11:38:30.680820
1392  2023-11-08 11:38:30.729729
1393  2023-11-08 11:38:30.776595
1394  2023-11-08 11:38:30.808511
1395  2023-11-08 11:38:30.856362
1396  2023-11-08 11:38:30.887268
1397  2023-11-08 11:38:30.934179
1398  2023-11-08 11:38:30.982015
1399  2023-11-08 11:38:31.013929
1400  2023-11-08 11:38:31.061838
1401  2023-11-08 11:38:31.109705
1402  2023-11-08 11:38:31.141624
1403  2023-11-08 11:38:31.189460
1404  2023-11-08 11:38:31.221375
1405  2023-11-08 11:38:31.267288
1406  2023-11-08 11:38:31.315124
1407  2023-11-08 11:38:31.347039
1408  2023-11-08 11:38:31.394944
1409  2023-11-08 11:38:31.442911
1410  2023-11-08 11:38:31.474825
1411  2023-11-08 11:38:31.522697
1412  2023-11-08 11:38:31.554612
1413  2023-11-08 11:38:31.602486
1414  2023-11-08 11:38:31.650356
1415  2023-11-08 11:38:31.682271
1416  2023-11-08 11:38:31.730184
1417  2023-11-08 11:38:31.762092
1418  2023-11-08 11:38:31.809028
1419  2023-11-08 11:38:31.854937
1420  2023-11-08 11:38:31.900860
1421  2023-11-08 11:38:31.931959
1422  2023-11-08 11:38:31.979978
1423  2023-11-08 11:38:32.011939
1424  2023-11-08 11:38:32.059843
1425  2023-11-08 11:38:32.106757
1426  2023-11-08 11:38:32.137669
1427  2023-11-08 11:38:32.185507
1428  2023-11-08 11:38:32.232441
1429  2023-11-08 11:38:32.263301
1430  2023-11-08 11:38:32.312207
1431  2023-11-08 11:38:32.360071
1432  2023-11-08 11:38:32.391989
1433  2023-11-08 11:38:32.438867
1434  2023-11-08 11:38:32.484707
1435  2023-11-08 11:38:32.516622
1436  2023-11-08 11:38:32.564118
1437  2023-11-08 11:38:32.596035
1438  2023-11-08 11:38:32.643988
1439  2023-11-08 11:38:32.691860
1440  2023-11-08 11:38:32.723775
1441  2023-11-08 11:38:32.771820
1442  2023-11-08 11:38:32.803725
1443  2023-11-08 11:38:32.851561
1444  2023-11-08 11:38:32.899479
1445  2023-11-08 11:38:32.931392
1446  2023-11-08 11:38:32.980218
1447  2023-11-08 11:38:33.011135
1448  2023-11-08 11:38:33.059047
1449  2023-11-08 11:38:33.106910
1450  2023-11-08 11:38:33.138808
1451  2023-11-08 11:38:33.186665
1452  2023-11-08 11:38:33.234573
1453  2023-11-08 11:38:33.266483
1454  2023-11-08 11:38:33.312372
1455  2023-11-08 11:38:33.359307
1456  2023-11-08 11:38:33.389339
1457  2023-11-08 11:38:33.435409
1458  2023-11-08 11:38:33.482241
1459  2023-11-08 11:38:33.514156
1460  2023-11-08 11:38:33.562076
1461  2023-11-08 11:38:33.609931
1462  2023-11-08 11:38:33.641842
1463  2023-11-08 11:38:33.689854
1464  2023-11-08 11:38:33.720639
1465  2023-11-08 11:38:33.767510
1466  2023-11-08 11:38:33.815335
1467  2023-11-08 11:38:33.846220
1468  2023-11-08 11:38:33.893141
1469  2023-11-08 11:38:33.940997
1470  2023-11-08 11:38:33.972929
1471  2023-11-08 11:38:34.020797
1472  2023-11-08 11:38:34.052817
1473  2023-11-08 11:38:34.100703
1474  2023-11-08 11:38:34.148607
1475  2023-11-08 11:38:34.180603
1476  2023-11-08 11:38:34.228518
1477  2023-11-08 11:38:34.276393
1478  2023-11-08 11:38:34.307263
1479  2023-11-08 11:38:34.355135
1480  2023-11-08 11:38:34.401013
1481  2023-11-08 11:38:34.432965
1482  2023-11-08 11:38:34.478982
1483  2023-11-08 11:38:34.526676
1484  2023-11-08 11:38:34.558591
1485  2023-11-08 11:38:34.606499
1486  2023-11-08 11:38:34.638412
1487  2023-11-08 11:38:34.686462
1488  2023-11-08 11:38:34.734228
1489  2023-11-08 11:38:34.766134
1490  2023-11-08 11:38:34.814048
1491  2023-11-08 11:38:34.845952
1492  2023-11-08 11:38:34.893793
1493  2023-11-08 11:38:34.941704
1494  2023-11-08 11:38:34.973615
1495  2023-11-08 11:38:35.021452
1496  2023-11-08 11:38:35.053366
1497  2023-11-08 11:38:35.101238
1498  2023-11-08 11:38:35.149147
1499  2023-11-08 11:38:35.181056
1500  2023-11-08 11:38:35.228897
1501  2023-11-08 11:38:35.275928
1502  2023-11-08 11:38:35.306728
1503  2023-11-08 11:38:35.353596
1504  2023-11-08 11:38:35.400484
1505  2023-11-08 11:38:35.431398
1506  2023-11-08 11:38:35.479259
1507  2023-11-08 11:38:35.526103
1508  2023-11-08 11:38:35.558056
1509  2023-11-08 11:38:35.605928
1510  2023-11-08 11:38:35.636848
1511  2023-11-08 11:38:35.684679
1512  2023-11-08 11:38:35.732588
1513  2023-11-08 11:38:35.763507
1514  2023-11-08 11:38:35.809480
1515  2023-11-08 11:38:35.857384
1516  2023-11-08 11:38:35.890304
1517  2023-11-08 11:38:35.938180
1518  2023-11-08 11:38:35.985011
1519  2023-11-08 11:38:36.016926
1520  2023-11-08 11:38:36.064798
1521  2023-11-08 11:38:36.096713
1522  2023-11-08 11:38:36.144679
1523  2023-11-08 11:38:36.192611
1524  2023-11-08 11:38:36.224534
1525  2023-11-08 11:38:36.271544
1526  2023-11-08 11:38:36.317430
1527  2023-11-08 11:38:36.348424
1528  2023-11-08 11:38:36.396257
1529  2023-11-08 11:38:36.428173
1530  2023-11-08 11:38:36.476077
1531  2023-11-08 11:38:36.523916
1532  2023-11-08 11:38:36.555831
1533  2023-11-08 11:38:36.601709
1534  2023-11-08 11:38:36.649580
1535  2023-11-08 11:38:36.681495
1536  2023-11-08 11:38:36.729485
1537  2023-11-08 11:38:36.761552
1538  2023-11-08 11:38:36.809272
1539  2023-11-08 11:38:36.857182
1540  2023-11-08 11:38:36.889058
1541  2023-11-08 11:38:36.936976
1542  2023-11-08 11:38:36.984836
1543  2023-11-08 11:38:37.015765
1544  2023-11-08 11:38:37.062631
1545  2023-11-08 11:38:37.094541
1546  2023-11-08 11:38:37.142422
1547  2023-11-08 11:38:37.190291
1548  2023-11-08 11:38:37.222205
1549  2023-11-08 11:38:37.270071
1550  2023-11-08 11:38:37.316949
1551  2023-11-08 11:38:37.348863
1552  2023-11-08 11:38:37.395735
1553  2023-11-08 11:38:37.442580
1554  2023-11-08 11:38:37.474533
1555  2023-11-08 11:38:37.523364
1556  2023-11-08 11:38:37.554310
1557  2023-11-08 11:38:37.602153
1558  2023-11-08 11:38:37.649059
1559  2023-11-08 11:38:37.679945
1560  2023-11-08 11:38:37.727944
1561  2023-11-08 11:38:37.775720
1562  2023-11-08 11:38:37.807669
1563  2023-11-08 11:38:37.854603
1564  2023-11-08 11:38:37.901433
1565  2023-11-08 11:38:37.933348
1566  2023-11-08 11:38:37.981261
1567  2023-11-08 11:38:38.013161
1568  2023-11-08 11:38:38.061006
1569  2023-11-08 11:38:38.108908
1570  2023-11-08 11:38:38.140823
1571  2023-11-08 11:38:38.188665
1572  2023-11-08 11:38:38.220714
1573  2023-11-08 11:38:38.268452
1574  2023-11-08 11:38:38.316360
1575  2023-11-08 11:38:38.348272
1576  2023-11-08 11:38:38.396110
1577  2023-11-08 11:38:38.428025
1578  2023-11-08 11:38:38.475936
1579  2023-11-08 11:38:38.523894
1580  2023-11-08 11:38:38.555808
1581  2023-11-08 11:38:38.603741
1582  2023-11-08 11:38:38.650591
1583  2023-11-08 11:38:38.681475
1584  2023-11-08 11:38:38.729344
1585  2023-11-08 11:38:38.761405
1586  2023-11-08 11:38:38.809349
1587  2023-11-08 11:38:38.857330
1588  2023-11-08 11:38:38.889428
1589  2023-11-08 11:38:38.937504
1590  2023-11-08 11:38:38.984376
1591  2023-11-08 11:38:39.015324
1592  2023-11-08 11:38:39.063203
1593  2023-11-08 11:38:39.095117
1594  2023-11-08 11:38:39.142994
1595  2023-11-08 11:38:39.190900
1596  2023-11-08 11:38:39.222838
1597  2023-11-08 11:38:39.271744
1598  2023-11-08 11:38:39.317619
1599  2023-11-08 11:38:39.348538
1600  2023-11-08 11:38:39.396377
1601  2023-11-08 11:38:39.442295
1602  2023-11-08 11:38:39.474204
1603  2023-11-08 11:38:39.522075
1604  2023-11-08 11:38:39.553954
1605  2023-11-08 11:38:39.601834
1606  2023-11-08 11:38:39.649734
1607  2023-11-08 11:38:39.681648
1608  2023-11-08 11:38:39.729484
1609  2023-11-08 11:38:39.761429
1610  2023-11-08 11:38:39.809325
1611  2023-11-08 11:38:39.856180
1612  2023-11-08 11:38:39.889088
1613  2023-11-08 11:38:39.936930
1614  2023-11-08 11:38:39.983841
1615  2023-11-08 11:38:40.015719
1616  2023-11-08 11:38:40.062594
1617  2023-11-08 11:38:40.109502
1618  2023-11-08 11:38:40.141418
1619  2023-11-08 11:38:40.189254
1620  2023-11-08 11:38:40.221203
1621  2023-11-08 11:38:40.268043
1622  2023-11-08 11:38:40.314952
1623  2023-11-08 11:38:40.345838
1624  2023-11-08 11:38:40.392710
1625  2023-11-08 11:38:40.439586
1626  2023-11-08 11:38:40.470534
1627  2023-11-08 11:38:40.518408
1628  2023-11-08 11:38:40.566277
1629  2023-11-08 11:38:40.598192
1630  2023-11-08 11:38:40.646214
1631  2023-11-08 11:38:40.678127
1632  2023-11-08 11:38:40.726143
1633  2023-11-08 11:38:40.774008
1634  2023-11-08 11:38:40.805936
1635  2023-11-08 11:38:40.853800
1636  2023-11-08 11:38:40.901676
1637  2023-11-08 11:38:40.933596
1638  2023-11-08 11:38:40.981422
1639  2023-11-08 11:38:41.013370
1640  2023-11-08 11:38:41.061245
1641  2023-11-08 11:38:41.109081
1642  2023-11-08 11:38:41.141028
1643  2023-11-08 11:38:41.188899
1644  2023-11-08 11:38:41.220782
1645  2023-11-08 11:38:41.266691
1646  2023-11-08 11:38:41.314565
1647  2023-11-08 11:38:41.346478
1648  2023-11-08 11:38:41.392389
1649  2023-11-08 11:38:41.440227
1650  2023-11-08 11:38:41.472202
1651  2023-11-08 11:38:41.519144
1652  2023-11-08 11:38:41.566233
1653  2023-11-08 11:38:41.599184
1654  2023-11-08 11:38:41.646082
1655  2023-11-08 11:38:41.678978
1656  2023-11-08 11:38:41.723018
1657  2023-11-08 11:38:41.769895
1658  2023-11-08 11:38:41.817766
1659  2023-11-08 11:38:41.849711
1660  2023-11-08 11:38:41.897551
1661  2023-11-08 11:38:41.929466
1662  2023-11-08 11:38:41.977352
1663  2023-11-08 11:38:42.025210
1664  2023-11-08 11:38:42.057125
1665  2023-11-08 11:38:42.104999
1666  2023-11-08 11:38:42.136951
1667  2023-11-08 11:38:42.184783
1668  2023-11-08 11:38:42.232691
1669  2023-11-08 11:38:42.264669
1670  2023-11-08 11:38:42.311575
1671  2023-11-08 11:38:42.358418
1672  2023-11-08 11:38:42.390333
1673  2023-11-08 11:38:42.438249
1674  2023-11-08 11:38:42.470327
1675  2023-11-08 11:38:42.517991
1676  2023-11-08 11:38:42.566012
1677  2023-11-08 11:38:42.597929
1678  2023-11-08 11:38:42.645755
1679  2023-11-08 11:38:42.692662
1680  2023-11-08 11:38:42.722582
1681  2023-11-08 11:38:42.769456
1682  2023-11-08 11:38:42.815336
1683  2023-11-08 11:38:42.847262
1684  2023-11-08 11:38:42.895088
1685  2023-11-08 11:38:42.943004
1686  2023-11-08 11:38:42.975008
1687  2023-11-08 11:38:43.021880
1688  2023-11-08 11:38:43.052800
1689  2023-11-08 11:38:43.099646
1690  2023-11-08 11:38:43.146556
1691  2023-11-08 11:38:43.178469
1692  2023-11-08 11:38:43.226300
1693  2023-11-08 11:38:43.272211
1694  2023-11-08 11:38:43.304123
1695  2023-11-08 11:38:43.352104
1696  2023-11-08 11:38:43.399013
1697  2023-11-08 11:38:43.430929
1698  2023-11-08 11:38:43.478766
1699  2023-11-08 11:38:43.526638
1700  2023-11-08 11:38:43.558215
1701  2023-11-08 11:38:43.606134
1702  2023-11-08 11:38:43.638045
1703  2023-11-08 11:38:43.685882
1704  2023-11-08 11:38:43.733798
1705  2023-11-08 11:38:43.765703
1706  2023-11-08 11:38:43.813541
1707  2023-11-08 11:38:43.844458
1708  2023-11-08 11:38:43.892362
1709  2023-11-08 11:38:43.940233
1710  2023-11-08 11:38:43.972147
1711  2023-11-08 11:38:44.019989
1712  2023-11-08 11:38:44.067895
1713  2023-11-08 11:38:44.099777
1714  2023-11-08 11:38:44.147648
1715  2023-11-08 11:38:44.179562
1716  2023-11-08 11:38:44.226470
1717  2023-11-08 11:38:44.273344
1718  2023-11-08 11:38:44.305257
1719  2023-11-08 11:38:44.353136
1720  2023-11-08 11:38:44.401004
1721  2023-11-08 11:38:44.432919
1722  2023-11-08 11:38:44.480790
1723  2023-11-08 11:38:44.512706
1724  2023-11-08 11:38:44.560544
1725  2023-11-08 11:38:44.608447
1726  2023-11-08 11:38:44.640332
1727  2023-11-08 11:38:44.687237
1728  2023-11-08 11:38:44.734115
1729  2023-11-08 11:38:44.766027
1730  2023-11-08 11:38:44.811912
1731  2023-11-08 11:38:44.859784
1732  2023-11-08 11:38:44.890695
1733  2023-11-08 11:38:44.937579
1734  2023-11-08 11:38:44.970480
1735  2023-11-08 11:38:45.015328
1736  2023-11-08 11:38:45.063230
1737  2023-11-08 11:38:45.095172
1738  2023-11-08 11:38:45.141198
1739  2023-11-08 11:38:45.189034
1740  2023-11-08 11:38:45.220949
1741  2023-11-08 11:38:45.268855
1742  2023-11-08 11:38:45.316691
1743  2023-11-08 11:38:45.348606
1744  2023-11-08 11:38:45.396510
1745  2023-11-08 11:38:45.428431
1746  2023-11-08 11:38:45.475267
1747  2023-11-08 11:38:45.523139
1748  2023-11-08 11:38:45.555054
1749  2023-11-08 11:38:45.602972
1750  2023-11-08 11:38:45.650798
1751  2023-11-08 11:38:45.682836
1752  2023-11-08 11:38:45.730746
1753  2023-11-08 11:38:45.762620
1754  2023-11-08 11:38:45.810491
1755  2023-11-08 11:38:45.858396
1756  2023-11-08 11:38:45.890316
1757  2023-11-08 11:38:45.938181
1758  2023-11-08 11:38:45.970100
1759  2023-11-08 11:38:46.017936
1760  2023-11-08 11:38:46.063859
1761  2023-11-08 11:38:46.095773
1762  2023-11-08 11:38:46.143642
1763  2023-11-08 11:38:46.189512
1764  2023-11-08 11:38:46.221427
1765  2023-11-08 11:38:46.269400
1766  2023-11-08 11:38:46.315173
1767  2023-11-08 11:38:46.347093
1768  2023-11-08 11:38:46.394928
1769  2023-11-08 11:38:46.442831
1770  2023-11-08 11:38:46.474746
1771  2023-11-08 11:38:46.520624
1772  2023-11-08 11:38:46.566503
1773  2023-11-08 11:38:46.597424
1774  2023-11-08 11:38:46.645259
1775  2023-11-08 11:38:46.693213
1776  2023-11-08 11:38:46.725097
1777  2023-11-08 11:38:46.770989
1778  2023-11-08 11:38:46.802974
1779  2023-11-08 11:38:46.850974
1780  2023-11-08 11:38:46.898714
1781  2023-11-08 11:38:46.930626
1782  2023-11-08 11:38:46.978465
1783  2023-11-08 11:38:47.026339
1784  2023-11-08 11:38:47.058284
1785  2023-11-08 11:38:47.106124
1786  2023-11-08 11:38:47.138102
1787  2023-11-08 11:38:47.185911
1788  2023-11-08 11:38:47.233784
1789  2023-11-08 11:38:47.264733
1790  2023-11-08 11:38:47.311605
1791  2023-11-08 11:38:47.359480
1792  2023-11-08 11:38:47.391398
1793  2023-11-08 11:38:47.439264
1794  2023-11-08 11:38:47.471148
1795  2023-11-08 11:38:47.519060
1796  2023-11-08 11:38:47.566925
1797  2023-11-08 11:38:47.598839
1798  2023-11-08 11:38:47.646716
1799  2023-11-08 11:38:47.678628
1800  2023-11-08 11:38:47.726499
1801  2023-11-08 11:38:47.774379
1802  2023-11-08 11:38:47.806289
1803  2023-11-08 11:38:47.854157
1804  2023-11-08 11:38:47.901036
1805  2023-11-08 11:38:47.931948
1806  2023-11-08 11:38:47.979820
1807  2023-11-08 11:38:48.011734
1808  2023-11-08 11:38:48.059575
1809  2023-11-08 11:38:48.107484
1810  2023-11-08 11:38:48.139392
1811  2023-11-08 11:38:48.187267
1812  2023-11-08 11:38:48.233143
1813  2023-11-08 11:38:48.265065
1814  2023-11-08 11:38:48.312935
1815  2023-11-08 11:38:48.344850
1816  2023-11-08 11:38:48.392732
1817  2023-11-08 11:38:48.440727
1818  2023-11-08 11:38:48.472517
1819  2023-11-08 11:38:48.519395
1820  2023-11-08 11:38:48.567262
1821  2023-11-08 11:38:48.599190
1822  2023-11-08 11:38:48.647056
1823  2023-11-08 11:38:48.692912
1824  2023-11-08 11:38:48.724798
1825  2023-11-08 11:38:48.772701
1826  2023-11-08 11:38:48.804616
1827  2023-11-08 11:38:48.852456
1828  2023-11-08 11:38:48.900360
1829  2023-11-08 11:38:48.932272
1830  2023-11-08 11:38:48.980115
1831  2023-11-08 11:38:49.012030
1832  2023-11-08 11:38:49.060006
1833  2023-11-08 11:38:49.107847
1834  2023-11-08 11:38:49.138769
1835  2023-11-08 11:38:49.185703
1836  2023-11-08 11:38:49.233617
1837  2023-11-08 11:38:49.266522
1838  2023-11-08 11:38:49.311398
1839  2023-11-08 11:38:49.359408
1840  2023-11-08 11:38:49.391314
1841  2023-11-08 11:38:49.439153
1842  2023-11-08 11:38:49.471068
1843  2023-11-08 11:38:49.518975
1844  2023-11-08 11:38:49.565848
1845  2023-11-08 11:38:49.596781
1846  2023-11-08 11:38:49.643641
1847  2023-11-08 11:38:49.689484
1848  2023-11-08 11:38:49.720441
1849  2023-11-08 11:38:49.767318
1850  2023-11-08 11:38:49.815182
1851  2023-11-08 11:38:49.847063
1852  2023-11-08 11:38:49.893978
1853  2023-11-08 11:38:49.941867
1854  2023-11-08 11:38:49.973757
1855  2023-11-08 11:38:50.021630
1856  2023-11-08 11:38:50.067527
1857  2023-11-08 11:38:50.098391
1858  2023-11-08 11:38:50.144268
1859  2023-11-08 11:38:50.192175
1860  2023-11-08 11:38:50.224055
1861  2023-11-08 11:38:50.271927
1862  2023-11-08 11:38:50.302844
1863  2023-11-08 11:38:50.349759
1864  2023-11-08 11:38:50.395630
1865  2023-11-08 11:38:50.441510
1866  2023-11-08 11:38:50.473422
1867  2023-11-08 11:38:50.521297
1868  2023-11-08 11:38:50.553212
1869  2023-11-08 11:38:50.601090
1870  2023-11-08 11:38:50.648920
1871  2023-11-08 11:38:50.680873
1872  2023-11-08 11:38:50.728706
1873  2023-11-08 11:38:50.776612
1874  2023-11-08 11:38:50.807530
1875  2023-11-08 11:38:50.853374
1876  2023-11-08 11:38:50.902418
1877  2023-11-08 11:38:50.933337
1878  2023-11-08 11:38:50.982212
1879  2023-11-08 11:38:51.013092
1880  2023-11-08 11:38:51.059007
1881  2023-11-08 11:38:51.106841
1882  2023-11-08 11:38:51.138790
1883  2023-11-08 11:38:51.185631
1884  2023-11-08 11:38:51.233505
1885  2023-11-08 11:38:51.265418
1886  2023-11-08 11:38:51.311294
1887  2023-11-08 11:38:51.358203
1888  2023-11-08 11:38:51.390116
1889  2023-11-08 11:38:51.436958
1890  2023-11-08 11:38:51.483867
1891  2023-11-08 11:38:51.515784
1892  2023-11-08 11:38:51.563620
1893  2023-11-08 11:38:51.595566
1894  2023-11-08 11:38:51.641470
1895  2023-11-08 11:38:51.687324
1896  2023-11-08 11:38:51.734166
1897  2023-11-08 11:38:51.765116
1898  2023-11-08 11:38:51.812986
1899  2023-11-08 11:38:51.859859
1900  2023-11-08 11:38:51.891774
1901  2023-11-08 11:38:51.939661
1902  2023-11-08 11:38:51.971563
1903  2023-11-08 11:38:52.019435
1904  2023-11-08 11:38:52.067304
1905  2023-11-08 11:38:52.100230
1906  2023-11-08 11:38:52.147103
1907  2023-11-08 11:38:52.180029
1908  2023-11-08 11:38:52.227851
1909  2023-11-08 11:38:52.275716
1910  2023-11-08 11:38:52.307644
1911  2023-11-08 11:38:52.353508
1912  2023-11-08 11:38:52.399385
1913  2023-11-08 11:38:52.430303
1914  2023-11-08 11:38:52.478214
1915  2023-11-08 11:38:52.526084
1916  2023-11-08 11:38:52.557991
1917  2023-11-08 11:38:52.603839
1918  2023-11-08 11:38:52.650747
1919  2023-11-08 11:38:52.681660
1920  2023-11-08 11:38:52.729503
1921  2023-11-08 11:38:52.761528
1922  2023-11-08 11:38:52.809361
1923  2023-11-08 11:38:52.857321
1924  2023-11-08 11:38:52.888237
1925  2023-11-08 11:38:52.935114
1926  2023-11-08 11:38:52.982995
1927  2023-11-08 11:38:53.015081
1928  2023-11-08 11:38:53.061777
1929  2023-11-08 11:38:53.108647
1930  2023-11-08 11:38:53.140579
1931  2023-11-08 11:38:53.188589
1932  2023-11-08 11:38:53.220505
1933  2023-11-08 11:38:53.269344
1934  2023-11-08 11:38:53.316218
1935  2023-11-08 11:38:53.348133
1936  2023-11-08 11:38:53.395008
1937  2023-11-08 11:38:53.441882
1938  2023-11-08 11:38:53.474795
1939  2023-11-08 11:38:53.518690
1940  2023-11-08 11:38:53.566549
1941  2023-11-08 11:38:53.598466
1942  2023-11-08 11:38:53.646369
1943  2023-11-08 11:38:53.693210
1944  2023-11-08 11:38:53.725164
1945  2023-11-08 11:38:53.773134
1946  2023-11-08 11:38:53.805185
1947  2023-11-08 11:38:53.851880
1948  2023-11-08 11:38:53.899765
1949  2023-11-08 11:38:53.931668
1950  2023-11-08 11:38:53.979219
1951  2023-11-08 11:38:54.011252
1952  2023-11-08 11:38:54.059124
1953  2023-11-08 11:38:54.106996
1954  2023-11-08 11:38:54.138910
1955  2023-11-08 11:38:54.183821
1956  2023-11-08 11:38:54.230717
1957  2023-11-08 11:38:54.262615
1958  2023-11-08 11:38:54.310453
1959  2023-11-08 11:38:54.358423
1960  2023-11-08 11:38:54.390397
1961  2023-11-08 11:38:54.438313
1962  2023-11-08 11:38:54.470261
1963  2023-11-08 11:38:54.516178
1964  2023-11-08 11:38:54.564086
1965  2023-11-08 11:38:54.609089
1966  2023-11-08 11:38:54.641025
1967  2023-11-08 11:38:54.688844
1968  2023-11-08 11:38:54.734720
1969  2023-11-08 11:38:54.765637
1970  2023-11-08 11:38:54.813552
1971  2023-11-08 11:38:54.845497
1972  2023-11-08 11:38:54.893435
1973  2023-11-08 11:38:54.941273
1974  2023-11-08 11:38:54.972191
1975  2023-11-08 11:38:55.019098
1976  2023-11-08 11:38:55.067085
1977  2023-11-08 11:38:55.098852
1978  2023-11-08 11:38:55.146761
1979  2023-11-08 11:38:55.178675
1980  2023-11-08 11:38:55.226511
1981  2023-11-08 11:38:55.273421
1982  2023-11-08 11:38:55.304347
1983  2023-11-08 11:38:55.352175
1984  2023-11-08 11:38:55.400082
1985  2023-11-08 11:38:55.431999
1986  2023-11-08 11:38:55.479835
1987  2023-11-08 11:38:55.525753
1988  2023-11-08 11:38:55.556663
1989  2023-11-08 11:38:55.603540
1990  2023-11-08 11:38:55.649421
1991  2023-11-08 11:38:55.681339
1992  2023-11-08 11:38:55.730182
1993  2023-11-08 11:38:55.776075
1994  2023-11-08 11:38:55.807991
1995  2023-11-08 11:38:55.855861
1996  2023-11-08 11:38:55.900709
1997  2023-11-08 11:38:55.932748
1998  2023-11-08 11:38:55.980654
1999  2023-11-08 11:38:56.012568
2000  2023-11-08 11:38:56.060406
2001  2023-11-08 11:38:56.108278
2002  2023-11-08 11:38:56.138230
2003  2023-11-08 11:38:56.184125
2004  2023-11-08 11:38:56.230984
2005  2023-11-08 11:38:56.261905
2006  2023-11-08 11:38:56.309740
2007  2023-11-08 11:38:56.357652
2008  2023-11-08 11:38:56.388563
2009  2023-11-08 11:38:56.434442
2010  2023-11-08 11:38:56.481283
2011  2023-11-08 11:38:56.513259
2012  2023-11-08 11:38:56.561099
2013  2023-11-08 11:38:56.608973
2014  2023-11-08 11:38:56.641044
2015  2023-11-08 11:38:56.688760
2016  2023-11-08 11:38:56.734637
2017  2023-11-08 11:38:56.767516
2018  2023-11-08 11:38:56.815427
2019  2023-11-08 11:38:56.847337
2020  2023-11-08 11:38:56.895181
2021  2023-11-08 11:38:56.943087
2022  2023-11-08 11:38:56.974993
2023  2023-11-08 11:38:57.022847
2024  2023-11-08 11:38:57.054782
2025  2023-11-08 11:38:57.102655
2026  2023-11-08 11:38:57.150493
2027  2023-11-08 11:38:57.181412
2028  2023-11-08 11:38:57.229281
2029  2023-11-08 11:38:57.261196
2030  2023-11-08 11:38:57.309068
2031  2023-11-08 11:38:57.355985
2032  2023-11-08 11:38:57.386896
2033  2023-11-08 11:38:57.432738
2034  2023-11-08 11:38:57.479658
2035  2023-11-08 11:38:57.511527
2036  2023-11-08 11:38:57.559399
2037  2023-11-08 11:38:57.607305
2038  2023-11-08 11:38:57.638247
2039  2023-11-08 11:38:57.685225
2040  2023-11-08 11:38:57.733096
2041  2023-11-08 11:38:57.764018
2042  2023-11-08 11:38:57.810856
2043  2023-11-08 11:38:57.857733
2044  2023-11-08 11:38:57.888680
2045  2023-11-08 11:38:57.935523
2046  2023-11-08 11:38:57.983434
2047  2023-11-08 11:38:58.015350
2048  2023-11-08 11:38:58.063218
2049  2023-11-08 11:38:58.095132
2050  2023-11-08 11:38:58.142970
2051  2023-11-08 11:38:58.189867
2052  2023-11-08 11:38:58.221785
2053  2023-11-08 11:38:58.269531
2054  2023-11-08 11:38:58.315432
2055  2023-11-08 11:38:58.347351
2056  2023-11-08 11:38:58.395259
2057  2023-11-08 11:38:58.442133
2058  2023-11-08 11:38:58.473051
2059  2023-11-08 11:38:58.520062
2060  2023-11-08 11:38:58.566931
2061  2023-11-08 11:38:58.598851
2062  2023-11-08 11:38:58.646193
2063  2023-11-08 11:38:58.678108
2064  2023-11-08 11:38:58.725980
2065  2023-11-08 11:38:58.773900
2066  2023-11-08 11:38:58.805801
2067  2023-11-08 11:38:58.853638
2068  2023-11-08 11:38:58.901554
2069  2023-11-08 11:38:58.931463
2070  2023-11-08 11:38:58.979333
2071  2023-11-08 11:38:59.011247
2072  2023-11-08 11:38:59.059187
2073  2023-11-08 11:38:59.105061
2074  2023-11-08 11:38:59.136978
2075  2023-11-08 11:38:59.184938
2076  2023-11-08 11:38:59.230778
2077  2023-11-08 11:38:59.262682
2078  2023-11-08 11:38:59.310600
2079  2023-11-08 11:38:59.358426
2080  2023-11-08 11:38:59.390370
2081  2023-11-08 11:38:59.438265
2082  2023-11-08 11:38:59.470159
2083  2023-11-08 11:38:59.518029
2084  2023-11-08 11:38:59.565870
2085  2023-11-08 11:38:59.597828
2086  2023-11-08 11:38:59.644718
2087  2023-11-08 11:38:59.692582
2088  2023-11-08 11:38:59.724477
2089  2023-11-08 11:38:59.772350
2090  2023-11-08 11:38:59.804460
2091  2023-11-08 11:38:59.852138
2092  2023-11-08 11:38:59.900034
2093  2023-11-08 11:38:59.931932
2094  2023-11-08 11:38:59.979764
2095  2023-11-08 11:39:00.027669
2096  2023-11-08 11:39:00.058610
2097  2023-11-08 11:39:00.104430
2098  2023-11-08 11:39:00.136345
2099  2023-11-08 11:39:00.184217
2100  2023-11-08 11:39:00.231092
2101  2023-11-08 11:39:00.262041
2102  2023-11-08 11:39:00.309881
2103  2023-11-08 11:39:00.357799
2104  2023-11-08 11:39:00.389714
2105  2023-11-08 11:39:00.437550
2106  2023-11-08 11:39:00.469468
2107  2023-11-08 11:39:00.517412
2108  2023-11-08 11:39:00.565316
2109  2023-11-08 11:39:00.597233
2110  2023-11-08 11:39:00.645071
2111  2023-11-08 11:39:00.692973
2112  2023-11-08 11:39:00.724858
2113  2023-11-08 11:39:00.772764
2114  2023-11-08 11:39:00.804682
2115  2023-11-08 11:39:00.851519
2116  2023-11-08 11:39:00.897428
2117  2023-11-08 11:39:00.929345
2118  2023-11-08 11:39:00.977226
2119  2023-11-08 11:39:01.023101
2120  2023-11-08 11:39:01.055032
2121  2023-11-08 11:39:01.102878
2122  2023-11-08 11:39:01.150754
2123  2023-11-08 11:39:01.182691
2124  2023-11-08 11:39:01.230541
2125  2023-11-08 11:39:01.262463
2126  2023-11-08 11:39:01.310328
2127  2023-11-08 11:39:01.358196
2128  2023-11-08 11:39:01.390114
2129  2023-11-08 11:39:01.437982
2130  2023-11-08 11:39:01.469897
2131  2023-11-08 11:39:01.517771
2132  2023-11-08 11:39:01.563643
2133  2023-11-08 11:39:01.595564
2134  2023-11-08 11:39:01.643439
2135  2023-11-08 11:39:01.692303
2136  2023-11-08 11:39:01.723366
2137  2023-11-08 11:39:01.772237
2138  2023-11-08 11:39:01.804157
2139  2023-11-08 11:39:01.852019
2140  2023-11-08 11:39:01.899892
2141  2023-11-08 11:39:01.931816
2142  2023-11-08 11:39:01.978651
2143  2023-11-08 11:39:02.024527
2144  2023-11-08 11:39:02.056476
2145  2023-11-08 11:39:02.102352
2146  2023-11-08 11:39:02.150191
2147  2023-11-08 11:39:02.182106
2148  2023-11-08 11:39:02.230150
2149  2023-11-08 11:39:02.262064
2150  2023-11-08 11:39:02.309905
2151  2023-11-08 11:39:02.357777
2152  2023-11-08 11:39:02.389692
2153  2023-11-08 11:39:02.437596
2154  2023-11-08 11:39:02.469480
2155  2023-11-08 11:39:02.517461
2156  2023-11-08 11:39:02.565381
2157  2023-11-08 11:39:02.597363
2158  2023-11-08 11:39:02.645290
2159  2023-11-08 11:39:02.693198
2160  2023-11-08 11:39:02.724080
2161  2023-11-08 11:39:02.770971
2162  2023-11-08 11:39:02.802875
2163  2023-11-08 11:39:02.850741
2164  2023-11-08 11:39:02.898615
2165  2023-11-08 11:39:02.930534
2166  2023-11-08 11:39:02.978400
2167  2023-11-08 11:39:03.026314
2168  2023-11-08 11:39:03.058229
2169  2023-11-08 11:39:03.105183
2170  2023-11-08 11:39:03.136099
2171  2023-11-08 11:39:03.183972
2172  2023-11-08 11:39:03.231865
2173  2023-11-08 11:39:03.263760
2174  2023-11-08 11:39:03.311596
2175  2023-11-08 11:39:03.359510
2176  2023-11-08 11:39:03.391420
2177  2023-11-08 11:39:03.439255
2178  2023-11-08 11:39:03.471169
2179  2023-11-08 11:39:03.519075
2180  2023-11-08 11:39:03.566948
2181  2023-11-08 11:39:03.598828
2182  2023-11-08 11:39:03.644740
2183  2023-11-08 11:39:03.692619
2184  2023-11-08 11:39:03.724530
2185  2023-11-08 11:39:03.772396
2186  2023-11-08 11:39:03.804309
2187  2023-11-08 11:39:03.850195
2188  2023-11-08 11:39:03.897270
2189  2023-11-08 11:39:03.928104
2190  2023-11-08 11:39:03.974997
2191  2023-11-08 11:39:04.020813
2192  2023-11-08 11:39:04.066737
2193  2023-11-08 11:39:04.097639
2194  2023-11-08 11:39:04.145480
2195  2023-11-08 11:39:04.192389
2196  2023-11-08 11:39:04.223302
2197  2023-11-08 11:39:04.271144
2198  2023-11-08 11:39:04.303059
2199  2023-11-08 11:39:04.350962
2200  2023-11-08 11:39:04.398837
2201  2023-11-08 11:39:04.430752
2202  2023-11-08 11:39:04.478623
2203  2023-11-08 11:39:04.526495
2204  2023-11-08 11:39:04.558414
2205  2023-11-08 11:39:04.604415
2206  2023-11-08 11:39:04.636202
2207  2023-11-08 11:39:04.683045
2208  2023-11-08 11:39:04.729950
2209  2023-11-08 11:39:04.761888
2210  2023-11-08 11:39:04.808740
2211  2023-11-08 11:39:04.855634
2212  2023-11-08 11:39:04.888564
2213  2023-11-08 11:39:04.935477
2214  2023-11-08 11:39:04.983340
2215  2023-11-08 11:39:05.015260
2216  2023-11-08 11:39:05.063130
2217  2023-11-08 11:39:05.095054
2218  2023-11-08 11:39:05.142917
2219  2023-11-08 11:39:05.190788
2220  2023-11-08 11:39:05.222717
2221  2023-11-08 11:39:05.268602
2222  2023-11-08 11:39:05.315422
2223  2023-11-08 11:39:05.346339
2224  2023-11-08 11:39:05.394268
2225  2023-11-08 11:39:05.442223
2226  2023-11-08 11:39:05.474137
2227  2023-11-08 11:39:05.521055
2228  2023-11-08 11:39:05.567887
2229  2023-11-08 11:39:05.600847
2230  2023-11-08 11:39:05.647674
2231  2023-11-08 11:39:05.679714
2232  2023-11-08 11:39:05.727493
2233  2023-11-08 11:39:05.775373
2234  2023-11-08 11:39:05.807287
2235  2023-11-08 11:39:05.855160
2236  2023-11-08 11:39:05.887075
2237  2023-11-08 11:39:05.933985
2238  2023-11-08 11:39:05.981000
2239  2023-11-08 11:39:06.012948
2240  2023-11-08 11:39:06.060822
2241  2023-11-08 11:39:06.108691
2242  2023-11-08 11:39:06.140610
2243  2023-11-08 11:39:06.187498
2244  2023-11-08 11:39:06.234353
2245  2023-11-08 11:39:06.266269
2246  2023-11-08 11:39:06.313113
2247  2023-11-08 11:39:06.360002
2248  2023-11-08 11:39:06.392912
2249  2023-11-08 11:39:06.439585
2250  2023-11-08 11:39:06.471488
2251  2023-11-08 11:39:06.519361
2252  2023-11-08 11:39:06.566270
2253  2023-11-08 11:39:06.598149
2254  2023-11-08 11:39:06.646004
2255  2023-11-08 11:39:06.693900
2256  2023-11-08 11:39:06.725810
2257  2023-11-08 11:39:06.773682
2258  2023-11-08 11:39:06.805596
2259  2023-11-08 11:39:06.853482
2260  2023-11-08 11:39:06.901471
2261  2023-11-08 11:39:06.932397
2262  2023-11-08 11:39:06.981263
2263  2023-11-08 11:39:07.013170
2264  2023-11-08 11:39:07.061044
2265  2023-11-08 11:39:07.108925
2266  2023-11-08 11:39:07.137861
2267  2023-11-08 11:39:07.183800
2268  2023-11-08 11:39:07.232708
2269  2023-11-08 11:39:07.263780
2270  2023-11-08 11:39:07.311617
2271  2023-11-08 11:39:07.358527
2272  2023-11-08 11:39:07.389448
2273  2023-11-08 11:39:07.435326
2274  2023-11-08 11:39:07.481198
2275  2023-11-08 11:39:07.513110
2276  2023-11-08 11:39:07.560985
2277  2023-11-08 11:39:07.607860
2278  2023-11-08 11:39:07.638777
2279  2023-11-08 11:39:07.684652
2280  2023-11-08 11:39:07.732525
2281  2023-11-08 11:39:07.764441
2282  2023-11-08 11:39:07.812314
2283  2023-11-08 11:39:07.860183
2284  2023-11-08 11:39:07.891097
2285  2023-11-08 11:39:07.940966
2286  2023-11-08 11:39:07.970886
2287  2023-11-08 11:39:08.017729
2288  2023-11-08 11:39:08.065638
2289  2023-11-08 11:39:08.095568
2290  2023-11-08 11:39:08.143393
2291  2023-11-08 11:39:08.191303
2292  2023-11-08 11:39:08.223214
2293  2023-11-08 11:39:08.271052
2294  2023-11-08 11:39:08.316971
2295  2023-11-08 11:39:08.348876
2296  2023-11-08 11:39:08.395771
2297  2023-11-08 11:39:08.442714
2298  2023-11-08 11:39:08.473633
2299  2023-11-08 11:39:08.520632
2300  2023-11-08 11:39:08.566525
2301  2023-11-08 11:39:08.598422
2302  2023-11-08 11:39:08.646261
2303  2023-11-08 11:39:08.678176
2304  2023-11-08 11:39:08.726080
2305  2023-11-08 11:39:08.773951
2306  2023-11-08 11:39:08.805867
2307  2023-11-08 11:39:08.853709
2308  2023-11-08 11:39:08.901617
2309  2023-11-08 11:39:08.933519
2310  2023-11-08 11:39:08.981409
2311  2023-11-08 11:39:09.013326
2312  2023-11-08 11:39:09.062195
2313  2023-11-08 11:39:09.109073
2314  2023-11-08 11:39:09.140971
2315  2023-11-08 11:39:09.188843
2316  2023-11-08 11:39:09.234722
2317  2023-11-08 11:39:09.265639
2318  2023-11-08 11:39:09.313478
2319  2023-11-08 11:39:09.359452
2320  2023-11-08 11:39:09.391404
2321  2023-11-08 11:39:09.439243
2322  2023-11-08 11:39:09.471158
2323  2023-11-08 11:39:09.519062
2324  2023-11-08 11:39:09.566935
2325  2023-11-08 11:39:09.598850
2326  2023-11-08 11:39:09.646689
2327  2023-11-08 11:39:09.678603
2328  2023-11-08 11:39:09.726477
2329  2023-11-08 11:39:09.772354
2330  2023-11-08 11:39:09.803272
2331  2023-11-08 11:39:09.850147
2332  2023-11-08 11:39:09.898048
2333  2023-11-08 11:39:09.929942
2334  2023-11-08 11:39:09.975845
2335  2023-11-08 11:39:10.021723
2336  2023-11-08 11:39:10.053633
2337  2023-11-08 11:39:10.101509
2338  2023-11-08 11:39:10.149396
2339  2023-11-08 11:39:10.181293
2340  2023-11-08 11:39:10.229133
2341  2023-11-08 11:39:10.276006
2342  2023-11-08 11:39:10.306959
2343  2023-11-08 11:39:10.354796
2344  2023-11-08 11:39:10.401671
2345  2023-11-08 11:39:10.432617
2346  2023-11-08 11:39:10.481628
2347  2023-11-08 11:39:10.513627
2348  2023-11-08 11:39:10.560485
2349  2023-11-08 11:39:10.608500
2350  2023-11-08 11:39:10.641445
2351  2023-11-08 11:39:10.688334
2352  2023-11-08 11:39:10.734164
2353  2023-11-08 11:39:10.766107
2354  2023-11-08 11:39:10.813951
2355  2023-11-08 11:39:10.845865
2356  2023-11-08 11:39:10.891776
2357  2023-11-08 11:39:10.937653
2358  2023-11-08 11:39:10.969540
2359  2023-11-08 11:39:11.017440
2360  2023-11-08 11:39:11.065313
2361  2023-11-08 11:39:11.097233
2362  2023-11-08 11:39:11.145098
2363  2023-11-08 11:39:11.192973
2364  2023-11-08 11:39:11.224886
2365  2023-11-08 11:39:11.272757
2366  2023-11-08 11:39:11.304676
2367  2023-11-08 11:39:11.351514
2368  2023-11-08 11:39:11.398424
2369  2023-11-08 11:39:11.430337
2370  2023-11-08 11:39:11.478175
2371  2023-11-08 11:39:11.526277
2372  2023-11-08 11:39:11.557962
2373  2023-11-08 11:39:11.605863
2374  2023-11-08 11:39:11.637784
2375  2023-11-08 11:39:11.685666
2376  2023-11-08 11:39:11.733525
2377  2023-11-08 11:39:11.764443
2378  2023-11-08 11:39:11.812316
2379  2023-11-08 11:39:11.859204
2380  2023-11-08 11:39:11.891111
2381  2023-11-08 11:39:11.937979
2382  2023-11-08 11:39:11.984866
2383  2023-11-08 11:39:12.016770
2384  2023-11-08 11:39:12.064810
2385  2023-11-08 11:39:12.096721
2386  2023-11-08 11:39:12.144592
2387  2023-11-08 11:39:12.192587
2388  2023-11-08 11:39:12.224503
2389  2023-11-08 11:39:12.272373
2390  2023-11-08 11:39:12.304288
2391  2023-11-08 11:39:12.352162
2392  2023-11-08 11:39:12.400138
2393  2023-11-08 11:39:12.432124
2394  2023-11-08 11:39:12.479995
2395  2023-11-08 11:39:12.525874
2396  2023-11-08 11:39:12.556945
2397  2023-11-08 11:39:12.604629
2398  2023-11-08 11:39:12.636544
2399  2023-11-08 11:39:12.684447
2400  2023-11-08 11:39:12.732288
2401  2023-11-08 11:39:12.764240
2402  2023-11-08 11:39:12.811077
2403  2023-11-08 11:39:12.857986
2404  2023-11-08 11:39:12.889901
2405  2023-11-08 11:39:12.937781
2406  2023-11-08 11:39:12.969692
2407  2023-11-08 11:39:13.017553
2408  2023-11-08 11:39:13.065397
2409  2023-11-08 11:39:13.097219
2410  2023-11-08 11:39:13.145143
2411  2023-11-08 11:39:13.193023
2412  2023-11-08 11:39:13.224938
2413  2023-11-08 11:39:13.272844
2414  2023-11-08 11:39:13.304759
2415  2023-11-08 11:39:13.351649
2416  2023-11-08 11:39:13.399514
2417  2023-11-08 11:39:13.431412
2418  2023-11-08 11:39:13.478315
2419  2023-11-08 11:39:13.524138
2420  2023-11-08 11:39:13.555089
2421  2023-11-08 11:39:13.602964
2422  2023-11-08 11:39:13.650836
2423  2023-11-08 11:39:13.682758
2424  2023-11-08 11:39:13.730635
2425  2023-11-08 11:39:13.762575
2426  2023-11-08 11:39:13.808531
2427  2023-11-08 11:39:13.855374
2428  2023-11-08 11:39:13.886320
2429  2023-11-08 11:39:13.935175
2430  2023-11-08 11:39:13.983063
2431  2023-11-08 11:39:14.014981
2432  2023-11-08 11:39:14.062857
2433  2023-11-08 11:39:14.108695
2434  2023-11-08 11:39:14.139613
2435  2023-11-08 11:39:14.187516
2436  2023-11-08 11:39:14.219437
2437  2023-11-08 11:39:14.266366
2438  2023-11-08 11:39:14.313238
2439  2023-11-08 11:39:14.345153
2440  2023-11-08 11:39:14.392064
2441  2023-11-08 11:39:14.439937
2442  2023-11-08 11:39:14.471848
2443  2023-11-08 11:39:14.519738
2444  2023-11-08 11:39:14.565610
2445  2023-11-08 11:39:14.597520
2446  2023-11-08 11:39:14.645387
2447  2023-11-08 11:39:14.693256
2448  2023-11-08 11:39:14.725177
2449  2023-11-08 11:39:14.773051
2450  2023-11-08 11:39:14.805138
2451  2023-11-08 11:39:14.852796
2452  2023-11-08 11:39:14.900702
2453  2023-11-08 11:39:14.932616
2454  2023-11-08 11:39:14.980455
2455  2023-11-08 11:39:15.012370
2456  2023-11-08 11:39:15.060275
2457  2023-11-08 11:39:15.106153
2458  2023-11-08 11:39:15.138036
2459  2023-11-08 11:39:15.185937
2460  2023-11-08 11:39:15.233810
2461  2023-11-08 11:39:15.265725
2462  2023-11-08 11:39:15.313596
2463  2023-11-08 11:39:15.345511
2464  2023-11-08 11:39:15.392387
2465  2023-11-08 11:39:15.439260
2466  2023-11-08 11:39:15.471180
2467  2023-11-08 11:39:15.519061
2468  2023-11-08 11:39:15.564932
2469  2023-11-08 11:39:15.596938
2470  2023-11-08 11:39:15.644810
2471  2023-11-08 11:39:15.690686
2472  2023-11-08 11:39:15.722600
2473  2023-11-08 11:39:15.770439
2474  2023-11-08 11:39:15.817348
2475  2023-11-08 11:39:15.848231
2476  2023-11-08 11:39:15.896135
2477  2023-11-08 11:39:15.928018
2478  2023-11-08 11:39:15.975921
2479  2023-11-08 11:39:16.023762
2480  2023-11-08 11:39:16.055708
2481  2023-11-08 11:39:16.102583
2482  2023-11-08 11:39:16.149426
2483  2023-11-08 11:39:16.181340
2484  2023-11-08 11:39:16.229255
2485  2023-11-08 11:39:16.261161
2486  2023-11-08 11:39:16.309007
2487  2023-11-08 11:39:16.356871
2488  2023-11-08 11:39:16.388818
2489  2023-11-08 11:39:16.436694
2490  2023-11-08 11:39:16.484565
2491  2023-11-08 11:39:16.516477
2492  2023-11-08 11:39:16.564349
2493  2023-11-08 11:39:16.596264
2494  2023-11-08 11:39:16.642142
2495  2023-11-08 11:39:16.690023
2496  2023-11-08 11:39:16.721927
2497  2023-11-08 11:39:16.768807
2498  2023-11-08 11:39:16.815677
2499  2023-11-08 11:39:16.847591
2500  2023-11-08 11:39:16.895462
2501  2023-11-08 11:39:16.943333
2502  2023-11-08 11:39:16.975249
2503  2023-11-08 11:39:17.023122
2504  2023-11-08 11:39:17.054045
2505  2023-11-08 11:39:17.099917
2506  2023-11-08 11:39:17.147802
2507  2023-11-08 11:39:17.179678
2508  2023-11-08 11:39:17.227560
2509  2023-11-08 11:39:17.272457
2510  2023-11-08 11:39:17.304376
2511  2023-11-08 11:39:17.350215
2512  2023-11-08 11:39:17.397123
2513  2023-11-08 11:39:17.429045
2514  2023-11-08 11:39:17.474913
2515  2023-11-08 11:39:17.522754
2516  2023-11-08 11:39:17.553726
2517  2023-11-08 11:39:17.600660
2518  2023-11-08 11:39:17.648563
2519  2023-11-08 11:39:17.680478
2520  2023-11-08 11:39:17.728423
2521  2023-11-08 11:39:17.776296
2522  2023-11-08 11:39:17.808212
2523  2023-11-08 11:39:17.855082
2524  2023-11-08 11:39:17.900960
2525  2023-11-08 11:39:17.932875
2526  2023-11-08 11:39:17.980750
2527  2023-11-08 11:39:18.026628
2528  2023-11-08 11:39:18.057510
2529  2023-11-08 11:39:18.105383
2530  2023-11-08 11:39:18.138382
2531  2023-11-08 11:39:18.185257
2532  2023-11-08 11:39:18.233130
2533  2023-11-08 11:39:18.265045
2534  2023-11-08 11:39:18.312917
2535  2023-11-08 11:39:18.344832
2536  2023-11-08 11:39:18.392731
2537  2023-11-08 11:39:18.440575
2538  2023-11-08 11:39:18.472342
2539  2023-11-08 11:39:18.520321
2540  2023-11-08 11:39:18.568190
2541  2023-11-08 11:39:18.600110
2542  2023-11-08 11:39:18.648066
2543  2023-11-08 11:39:18.678983
2544  2023-11-08 11:39:18.727879
2545  2023-11-08 11:39:18.774768
2546  2023-11-08 11:39:18.806675
2547  2023-11-08 11:39:18.854514
2548  2023-11-08 11:39:18.886520
2549  2023-11-08 11:39:18.933344
2550  2023-11-08 11:39:18.980178
2551  2023-11-08 11:39:19.012093
2552  2023-11-08 11:39:19.059001
2553  2023-11-08 11:39:19.105965
2554  2023-11-08 11:39:19.137920
2555  2023-11-08 11:39:19.183831
2556  2023-11-08 11:39:19.230710
2557  2023-11-08 11:39:19.261631
2558  2023-11-08 11:39:19.308465
2559  2023-11-08 11:39:19.355374
2560  2023-11-08 11:39:19.386257
2561  2023-11-08 11:39:19.432173
2562  2023-11-08 11:39:19.479040
2563  2023-11-08 11:39:19.525882
2564  2023-11-08 11:39:19.557797
2565  2023-11-08 11:39:19.603706
2566  2023-11-08 11:39:19.649631
2567  2023-11-08 11:39:19.681564
2568  2023-11-08 11:39:19.728475
2569  2023-11-08 11:39:19.775357
2570  2023-11-08 11:39:19.807259
2571  2023-11-08 11:39:19.853152
2572  2023-11-08 11:39:19.900013
2573  2023-11-08 11:39:19.931926
2574  2023-11-08 11:39:19.978769
2575  2023-11-08 11:39:20.026642
2576  2023-11-08 11:39:20.059595
2577  2023-11-08 11:39:20.105462
2578  2023-11-08 11:39:20.137391
2579  2023-11-08 11:39:20.185250
2580  2023-11-08 11:39:20.233130
2581  2023-11-08 11:39:20.265041
2582  2023-11-08 11:39:20.312918
2583  2023-11-08 11:39:20.358753
2584  2023-11-08 11:39:20.391667
2585  2023-11-08 11:39:20.438576
2586  2023-11-08 11:39:20.470489
2587  2023-11-08 11:39:20.518327
2588  2023-11-08 11:39:20.566232
2589  2023-11-08 11:39:20.598147
2590  2023-11-08 11:39:20.645985
2591  2023-11-08 11:39:20.677900
2592  2023-11-08 11:39:20.724775
2593  2023-11-08 11:39:20.771651
2594  2023-11-08 11:39:20.803596
2595  2023-11-08 11:39:20.851436
2596  2023-11-08 11:39:20.899342
2597  2023-11-08 11:39:20.931223
2598  2023-11-08 11:39:20.978097
2599  2023-11-08 11:39:21.025007
2600  2023-11-08 11:39:21.056919
2601  2023-11-08 11:39:21.102799
2602  2023-11-08 11:39:21.150678
2603  2023-11-08 11:39:21.182551
2604  2023-11-08 11:39:21.230463
2605  2023-11-08 11:39:21.262371
2606  2023-11-08 11:39:21.310248
2607  2023-11-08 11:39:21.358115
2608  2023-11-08 11:39:21.389039
2609  2023-11-08 11:39:21.435952
2610  2023-11-08 11:39:21.483897
2611  2023-11-08 11:39:21.515822
2612  2023-11-08 11:39:21.562658
2613  2023-11-08 11:39:21.609715
2614  2023-11-08 11:39:21.641447
2615  2023-11-08 11:39:21.690354
2616  2023-11-08 11:39:21.721274
2617  2023-11-08 11:39:21.769140
2618  2023-11-08 11:39:21.817185
2619  2023-11-08 11:39:21.848926
2620  2023-11-08 11:39:21.896804
2621  2023-11-08 11:39:21.929709
2622  2023-11-08 11:39:21.976588
2623  2023-11-08 11:39:22.024456
2624  2023-11-08 11:39:22.056338
2625  2023-11-08 11:39:22.104240
2626  2023-11-08 11:39:22.151087
2627  2023-11-08 11:39:22.183033
2628  2023-11-08 11:39:22.230871
2629  2023-11-08 11:39:22.263813
2630  2023-11-08 11:39:22.311693
2631  2023-11-08 11:39:22.358736
2632  2023-11-08 11:39:22.390637
2633  2023-11-08 11:39:22.438518
2634  2023-11-08 11:39:22.471444
2635  2023-11-08 11:39:22.518309
2636  2023-11-08 11:39:22.567229
2637  2023-11-08 11:39:22.599254
2638  2023-11-08 11:39:22.645280
2639  2023-11-08 11:39:22.693185
2640  2023-11-08 11:39:22.727099
2641  2023-11-08 11:39:22.772971
2642  2023-11-08 11:39:22.804887
2643  2023-11-08 11:39:22.852726
2644  2023-11-08 11:39:22.900648
2645  2023-11-08 11:39:22.932592
2646  2023-11-08 11:39:22.980524
2647  2023-11-08 11:39:23.012581
2648  2023-11-08 11:39:23.060350
2649  2023-11-08 11:39:23.107185
2650  2023-11-08 11:39:23.138122
2651  2023-11-08 11:39:23.183980
2652  2023-11-08 11:39:23.230895
2653  2023-11-08 11:39:23.262804
2654  2023-11-08 11:39:23.310641
2655  2023-11-08 11:39:23.358553
2656  2023-11-08 11:39:23.390497
2657  2023-11-08 11:39:23.438343
2658  2023-11-08 11:39:23.484306
2659  2023-11-08 11:39:23.516349
2660  2023-11-08 11:39:23.564223
2661  2023-11-08 11:39:23.596139
2662  2023-11-08 11:39:23.644018
2663  2023-11-08 11:39:23.691882
2664  2023-11-08 11:39:23.723765
2665  2023-11-08 11:39:23.771673
2666  2023-11-08 11:39:23.803584
2667  2023-11-08 11:39:23.851422
2668  2023-11-08 11:39:23.899293
2669  2023-11-08 11:39:23.930213
2670  2023-11-08 11:39:23.977223
2671  2023-11-08 11:39:24.025145
2672  2023-11-08 11:39:24.056148
2673  2023-11-08 11:39:24.102904
2674  2023-11-08 11:39:24.151925
2675  2023-11-08 11:39:24.182914
2676  2023-11-08 11:39:24.230903
2677  2023-11-08 11:39:24.262818
2678  2023-11-08 11:39:24.309685
2679  2023-11-08 11:39:24.356650
2680  2023-11-08 11:39:24.389543
2681  2023-11-08 11:39:24.437391
2682  2023-11-08 11:39:24.485303
2683  2023-11-08 11:39:24.517243
2684  2023-11-08 11:39:24.565079
2685  2023-11-08 11:39:24.609163
2686  2023-11-08 11:39:24.640111
2687  2023-11-08 11:39:24.688950
2688  2023-11-08 11:39:24.719867
2689  2023-11-08 11:39:24.765786
2690  2023-11-08 11:39:24.813616
2691  2023-11-08 11:39:24.845531
2692  2023-11-08 11:39:24.893443
2693  2023-11-08 11:39:24.940279
2694  2023-11-08 11:39:24.971197
2695  2023-11-08 11:39:25.019067
2696  2023-11-08 11:39:25.066971
2697  2023-11-08 11:39:25.098890
2698  2023-11-08 11:39:25.146763
2699  2023-11-08 11:39:25.178687
2700  2023-11-08 11:39:25.225523
2701  2023-11-08 11:39:25.272390
2702  2023-11-08 11:39:25.304305
2703  2023-11-08 11:39:25.352177
2704  2023-11-08 11:39:25.400049
2705  2023-11-08 11:39:25.431986
2706  2023-11-08 11:39:25.479835
2707  2023-11-08 11:39:25.525713
2708  2023-11-08 11:39:25.557664
2709  2023-11-08 11:39:25.605533
2710  2023-11-08 11:39:25.637446
2711  2023-11-08 11:39:25.685286
2712  2023-11-08 11:39:25.734197
2713  2023-11-08 11:39:25.765113
2714  2023-11-08 11:39:25.811978
2715  2023-11-08 11:39:25.859854
2716  2023-11-08 11:39:25.891785
2717  2023-11-08 11:39:25.938642
2718  2023-11-08 11:39:25.969557
2719  2023-11-08 11:39:26.017398
2720  2023-11-08 11:39:26.065272
2721  2023-11-08 11:39:26.097227
2722  2023-11-08 11:39:26.144181
2723  2023-11-08 11:39:26.191098
2724  2023-11-08 11:39:26.222971
2725  2023-11-08 11:39:26.271055
2726  2023-11-08 11:39:26.302792
2727  2023-11-08 11:39:26.350629
2728  2023-11-08 11:39:26.398586
2729  2023-11-08 11:39:26.430525
2730  2023-11-08 11:39:26.478548
2731  2023-11-08 11:39:26.526502
2732  2023-11-08 11:39:26.558408
2733  2023-11-08 11:39:26.606429
2734  2023-11-08 11:39:26.638344
2735  2023-11-08 11:39:26.686299
2736  2023-11-08 11:39:26.734202
2737  2023-11-08 11:39:26.765123
2738  2023-11-08 11:39:26.812960
2739  2023-11-08 11:39:26.844875
2740  2023-11-08 11:39:26.892787
2741  2023-11-08 11:39:26.940619
2742  2023-11-08 11:39:26.971536
2743  2023-11-08 11:39:27.018447
2744  2023-11-08 11:39:27.066283
2745  2023-11-08 11:39:27.098198
2746  2023-11-08 11:39:27.146071
2747  2023-11-08 11:39:27.178019
2748  2023-11-08 11:39:27.223894
2749  2023-11-08 11:39:27.269772
2750  2023-11-08 11:39:27.315665
2751  2023-11-08 11:39:27.347531
2752  2023-11-08 11:39:27.395438
2753  2023-11-08 11:39:27.444314
2754  2023-11-08 11:39:27.475358
2755  2023-11-08 11:39:27.524102
2756  2023-11-08 11:39:27.554977
2757  2023-11-08 11:39:27.603884
2758  2023-11-08 11:39:27.651750
2759  2023-11-08 11:39:27.683634
2760  2023-11-08 11:39:27.730540
2761  2023-11-08 11:39:27.762459
2762  2023-11-08 11:39:27.810346
2763  2023-11-08 11:39:27.855174
2764  2023-11-08 11:39:27.901081
2765  2023-11-08 11:39:27.933002
2766  2023-11-08 11:39:27.981044
2767  2023-11-08 11:39:28.012954
2768  2023-11-08 11:39:28.060865
2769  2023-11-08 11:39:28.108698
2770  2023-11-08 11:39:28.139691
2771  2023-11-08 11:39:28.186519
2772  2023-11-08 11:39:28.233902
2773  2023-11-08 11:39:28.265841
2774  2023-11-08 11:39:28.313817
2775  2023-11-08 11:39:28.345765
2776  2023-11-08 11:39:28.393605
2777  2023-11-08 11:39:28.441509
2778  2023-11-08 11:39:28.473422
2779  2023-11-08 11:39:28.519303
2780  2023-11-08 11:39:28.567173
2781  2023-11-08 11:39:28.600063
2782  2023-11-08 11:39:28.646009
2783  2023-11-08 11:39:28.677935
2784  2023-11-08 11:39:28.724881
2785  2023-11-08 11:39:28.772747
2786  2023-11-08 11:39:28.818634
2787  2023-11-08 11:39:28.848540
2788  2023-11-08 11:39:28.897437
2789  2023-11-08 11:39:28.929338
2790  2023-11-08 11:39:28.976198
2791  2023-11-08 11:39:29.025038
2792  2023-11-08 11:39:29.056986
2793  2023-11-08 11:39:29.104862
2794  2023-11-08 11:39:29.150701
2795  2023-11-08 11:39:29.181618
2796  2023-11-08 11:39:29.229522
2797  2023-11-08 11:39:29.261441
2798  2023-11-08 11:39:29.308280
2799  2023-11-08 11:39:29.355187
2800  2023-11-08 11:39:29.387069
2801  2023-11-08 11:39:29.433947
2802  2023-11-08 11:39:29.479863
2803  2023-11-08 11:39:29.511736
2804  2023-11-08 11:39:29.559654
2805  2023-11-08 11:39:29.607512
2806  2023-11-08 11:39:29.639433
2807  2023-11-08 11:39:29.685304
2808  2023-11-08 11:39:29.733181
2809  2023-11-08 11:39:29.765059
2810  2023-11-08 11:39:29.812963
2811  2023-11-08 11:39:29.844847
2812  2023-11-08 11:39:29.892833
2813  2023-11-08 11:39:29.938741
2814  2023-11-08 11:39:29.970621
2815  2023-11-08 11:39:30.016526
2816  2023-11-08 11:39:30.064370
2817  2023-11-08 11:39:30.096319
2818  2023-11-08 11:39:30.144244
2819  2023-11-08 11:39:30.191167
2820  2023-11-08 11:39:30.221038
2821  2023-11-08 11:39:30.267942
2822  2023-11-08 11:39:30.315785
2823  2023-11-08 11:39:30.347699
2824  2023-11-08 11:39:30.394625
2825  2023-11-08 11:39:30.441795
2826  2023-11-08 11:39:30.472720
2827  2023-11-08 11:39:30.519623
2828  2023-11-08 11:39:30.566437
2829  2023-11-08 11:39:30.598352
2830  2023-11-08 11:39:30.646311
2831  2023-11-08 11:39:30.678223
2832  2023-11-08 11:39:30.725102
2833  2023-11-08 11:39:30.771977
2834  2023-11-08 11:39:30.803889
2835  2023-11-08 11:39:30.851762
2836  2023-11-08 11:39:30.899634
2837  2023-11-08 11:39:30.931554
2838  2023-11-08 11:39:30.979421
2839  2023-11-08 11:39:31.011332
2840  2023-11-08 11:39:31.058179
2841  2023-11-08 11:39:31.104088
2842  2023-11-08 11:39:31.151190
2843  2023-11-08 11:39:31.182976
2844  2023-11-08 11:39:31.230851
2845  2023-11-08 11:39:31.262766
2846  2023-11-08 11:39:31.310638
2847  2023-11-08 11:39:31.358514
2848  2023-11-08 11:39:31.390429
2849  2023-11-08 11:39:31.438304
2850  2023-11-08 11:39:31.483192
2851  2023-11-08 11:39:31.514058
2852  2023-11-08 11:39:31.560968
2853  2023-11-08 11:39:31.607843
2854  2023-11-08 11:39:31.639761
2855  2023-11-08 11:39:31.687628
2856  2023-11-08 11:39:31.733506
2857  2023-11-08 11:39:31.765423
2858  2023-11-08 11:39:31.813258
2859  2023-11-08 11:39:31.859169
2860  2023-11-08 11:39:31.891094
2861  2023-11-08 11:39:31.938954
2862  2023-11-08 11:39:31.970872
2863  2023-11-08 11:39:32.016749
2864  2023-11-08 11:39:32.064618
2865  2023-11-08 11:39:32.095704
2866  2023-11-08 11:39:32.143411
2867  2023-11-08 11:39:32.189298
2868  2023-11-08 11:39:32.221214
2869  2023-11-08 11:39:32.269070
2870  2023-11-08 11:39:32.313920
2871  2023-11-08 11:39:32.345834
2872  2023-11-08 11:39:32.393745
2873  2023-11-08 11:39:32.441579
2874  2023-11-08 11:39:32.473493
2875  2023-11-08 11:39:32.521365
2876  2023-11-08 11:39:32.553280
2877  2023-11-08 11:39:32.601152
2878  2023-11-08 11:39:32.649025
2879  2023-11-08 11:39:32.680939
2880  2023-11-08 11:39:32.728812
2881  2023-11-08 11:39:32.775687
2882  2023-11-08 11:39:32.806712
2883  2023-11-08 11:39:32.855708
2884  2023-11-08 11:39:32.887620
2885  2023-11-08 11:39:32.934494
2886  2023-11-08 11:39:32.982335
2887  2023-11-08 11:39:33.014250
2888  2023-11-08 11:39:33.062173
2889  2023-11-08 11:39:33.109027
2890  2023-11-08 11:39:33.139968
2891  2023-11-08 11:39:33.186842
2892  2023-11-08 11:39:33.233809
2893  2023-11-08 11:39:33.265701
2894  2023-11-08 11:39:33.313572
2895  2023-11-08 11:39:33.345485
2896  2023-11-08 11:39:33.393356
2897  2023-11-08 11:39:33.441241
2898  2023-11-08 11:39:33.471155
2899  2023-11-08 11:39:33.517993
2900  2023-11-08 11:39:33.564892
2901  2023-11-08 11:39:33.596818
2902  2023-11-08 11:39:33.644685
2903  2023-11-08 11:39:33.692676
2904  2023-11-08 11:39:33.723562
2905  2023-11-08 11:39:33.772477
2906  2023-11-08 11:39:33.804381
2907  2023-11-08 11:39:33.852278
2908  2023-11-08 11:39:33.897129
2909  2023-11-08 11:39:33.929012
2910  2023-11-08 11:39:33.974935
2911  2023-11-08 11:39:34.021764
2912  2023-11-08 11:39:34.053678
2913  2023-11-08 11:39:34.101586
2914  2023-11-08 11:39:34.147462
2915  2023-11-08 11:39:34.179375
2916  2023-11-08 11:39:34.227247
2917  2023-11-08 11:39:34.275123
2918  2023-11-08 11:39:34.307035
2919  2023-11-08 11:39:34.354987
2920  2023-11-08 11:39:34.400783
2921  2023-11-08 11:39:34.432696
2922  2023-11-08 11:39:34.480571
2923  2023-11-08 11:39:34.512483
2924  2023-11-08 11:39:34.560355
2925  2023-11-08 11:39:34.607229
2926  2023-11-08 11:39:34.638161
2927  2023-11-08 11:39:34.685988
2928  2023-11-08 11:39:34.733912
2929  2023-11-08 11:39:34.765821
2930  2023-11-08 11:39:34.813682
2931  2023-11-08 11:39:34.845594
2932  2023-11-08 11:39:34.893465
2933  2023-11-08 11:39:34.941338
2934  2023-11-08 11:39:34.973252
2935  2023-11-08 11:39:35.021124
2936  2023-11-08 11:39:35.053031
2937  2023-11-08 11:39:35.101906
2938  2023-11-08 11:39:35.146799
2939  2023-11-08 11:39:35.178704
2940  2023-11-08 11:39:35.224581
2941  2023-11-08 11:39:35.270461
2942  2023-11-08 11:39:35.317300
2943  2023-11-08 11:39:35.349215
2944  2023-11-08 11:39:35.397118
2945  2023-11-08 11:39:35.429057
2946  2023-11-08 11:39:35.476873
2947  2023-11-08 11:39:35.524745
2948  2023-11-08 11:39:35.554702
2949  2023-11-08 11:39:35.601575
2950  2023-11-08 11:39:35.648447
2951  2023-11-08 11:39:35.680361
2952  2023-11-08 11:39:35.728247
2953  2023-11-08 11:39:35.776106
2954  2023-11-08 11:39:35.808025
2955  2023-11-08 11:39:35.854899
2956  2023-11-08 11:39:35.900775
2957  2023-11-08 11:39:35.932688
2958  2023-11-08 11:39:35.980594
2959  2023-11-08 11:39:36.012496
2960  2023-11-08 11:39:36.060358
2961  2023-11-08 11:39:36.107224
2962  2023-11-08 11:39:36.140140
2963  2023-11-08 11:39:36.185980
2964  2023-11-08 11:39:36.233881
2965  2023-11-08 11:39:36.265801
2966  2023-11-08 11:39:36.311811
2967  2023-11-08 11:39:36.361726
2968  2023-11-08 11:39:36.391628
2969  2023-11-08 11:39:36.439505
2970  2023-11-08 11:39:36.469421
2971  2023-11-08 11:39:36.516264
2972  2023-11-08 11:39:36.562178
2973  2023-11-08 11:39:36.609053
2974  2023-11-08 11:39:36.639966
2975  2023-11-08 11:39:36.685845
2976  2023-11-08 11:39:36.733729
2977  2023-11-08 11:39:36.765633
2978  2023-11-08 11:39:36.813505
2979  2023-11-08 11:39:36.844431
2980  2023-11-08 11:39:36.892311
2981  2023-11-08 11:39:36.940133
2982  2023-11-08 11:39:36.973112
2983  2023-11-08 11:39:37.018952
2984  2023-11-08 11:39:37.066827
2985  2023-11-08 11:39:37.100733
2986  2023-11-08 11:39:37.146610
2987  2023-11-08 11:39:37.178536
2988  2023-11-08 11:39:37.226399
2989  2023-11-08 11:39:37.274272
2990  2023-11-08 11:39:37.306209
2991  2023-11-08 11:39:37.353060
2992  2023-11-08 11:39:37.400943
2993  2023-11-08 11:39:37.433870
2994  2023-11-08 11:39:37.480720
2995  2023-11-08 11:39:37.512635
2996  2023-11-08 11:39:37.560504
2997  2023-11-08 11:39:37.608376
2998  2023-11-08 11:39:37.640302
2999  2023-11-08 11:39:37.689160
3000  2023-11-08 11:39:37.720076
3001  2023-11-08 11:39:37.767953
3002  2023-11-08 11:39:37.815825
3003  2023-11-08 11:39:37.847742
3004  2023-11-08 11:39:37.896607
3005  2023-11-08 11:39:37.943479
3006  2023-11-08 11:39:37.976393
3007  2023-11-08 11:39:38.021241
3008  2023-11-08 11:39:38.053164
3009  2023-11-08 11:39:38.099067
3010  2023-11-08 11:39:38.146905
3011  2023-11-08 11:39:38.178936
3012  2023-11-08 11:39:38.224900
3013  2023-11-08 11:39:38.273009
3014  2023-11-08 11:39:38.304718
3015  2023-11-08 11:39:38.350663
3016  2023-11-08 11:39:38.398533
3017  2023-11-08 11:39:38.430525
3018  2023-11-08 11:39:38.478399
3019  2023-11-08 11:39:38.526270
3020  2023-11-08 11:39:38.558190
3021  2023-11-08 11:39:38.604064
3022  2023-11-08 11:39:38.650933
3023  2023-11-08 11:39:38.682855
3024  2023-11-08 11:39:38.730691
3025  2023-11-08 11:39:38.762642
3026  2023-11-08 11:39:38.810510
3027  2023-11-08 11:39:38.858383
3028  2023-11-08 11:39:38.890295
3029  2023-11-08 11:39:38.937188
3030  2023-11-08 11:39:38.983049
3031  2023-11-08 11:39:39.012934
3032  2023-11-08 11:39:39.060837
3033  2023-11-08 11:39:39.108678
3034  2023-11-08 11:39:39.140635
3035  2023-11-08 11:39:39.187468
3036  2023-11-08 11:39:39.219382
3037  2023-11-08 11:39:39.267297
3038  2023-11-08 11:39:39.315126
3039  2023-11-08 11:39:39.347041
3040  2023-11-08 11:39:39.394960
3041  2023-11-08 11:39:39.442785
3042  2023-11-08 11:39:39.474778
3043  2023-11-08 11:39:39.522650
3044  2023-11-08 11:39:39.554678
3045  2023-11-08 11:39:39.602517
3046  2023-11-08 11:39:39.650395
3047  2023-11-08 11:39:39.682337
3048  2023-11-08 11:39:39.730176
3049  2023-11-08 11:39:39.761093
3050  2023-11-08 11:39:39.807998
3051  2023-11-08 11:39:39.856920
3052  2023-11-08 11:39:39.887835
3053  2023-11-08 11:39:39.933716
3054  2023-11-08 11:39:39.980597
3055  2023-11-08 11:39:40.011504
3056  2023-11-08 11:39:40.058421
3057  2023-11-08 11:39:40.107337
3058  2023-11-08 11:39:40.138242
3059  2023-11-08 11:39:40.186114
3060  2023-11-08 11:39:40.231994
3061  2023-11-08 11:39:40.263904
3062  2023-11-08 11:39:40.311778
3063  2023-11-08 11:39:40.359648
3064  2023-11-08 11:39:40.391562
3065  2023-11-08 11:39:40.440447
3066  2023-11-08 11:39:40.471349
3067  2023-11-08 11:39:40.519220
3068  2023-11-08 11:39:40.568092
3069  2023-11-08 11:39:40.600036
3070  2023-11-08 11:39:40.646879
3071  2023-11-08 11:39:40.679791
3072  2023-11-08 11:39:40.726672
3073  2023-11-08 11:39:40.774542
3074  2023-11-08 11:39:40.806457
3075  2023-11-08 11:39:40.854331
3076  2023-11-08 11:39:40.886241
3077  2023-11-08 11:39:40.933116
3078  2023-11-08 11:39:40.978959
3079  2023-11-08 11:39:41.026864
3080  2023-11-08 11:39:41.056752
3081  2023-11-08 11:39:41.104750
3082  2023-11-08 11:39:41.136719
3083  2023-11-08 11:39:41.184659
3084  2023-11-08 11:39:41.231567
3085  2023-11-08 11:39:41.262482
3086  2023-11-08 11:39:41.310354
3087  2023-11-08 11:39:41.358197
3088  2023-11-08 11:39:41.390110
3089  2023-11-08 11:39:41.438012
3090  2023-11-08 11:39:41.469926
3091  2023-11-08 11:39:41.517768
3092  2023-11-08 11:39:41.565674
3093  2023-11-08 11:39:41.596591
3094  2023-11-08 11:39:41.643433
3095  2023-11-08 11:39:41.691304
3096  2023-11-08 11:39:41.722251
3097  2023-11-08 11:39:41.770097
3098  2023-11-08 11:39:41.817001
3099  2023-11-08 11:39:41.848918
3100  2023-11-08 11:39:41.896790
3101  2023-11-08 11:39:41.928705
3102  2023-11-08 11:39:41.976574
3103  2023-11-08 11:39:42.025412
3104  2023-11-08 11:39:42.055516
3105  2023-11-08 11:39:42.102245
3106  2023-11-08 11:39:42.150124
3107  2023-11-08 11:39:42.182025
3108  2023-11-08 11:39:42.230914
3109  2023-11-08 11:39:42.262779
3110  2023-11-08 11:39:42.307765
3111  2023-11-08 11:39:42.355650
3112  2023-11-08 11:39:42.387549
3113  2023-11-08 11:39:42.436386
3114  2023-11-08 11:39:42.483294
3115  2023-11-08 11:39:42.515208
3116  2023-11-08 11:39:42.564090
3117  2023-11-08 11:39:42.611973
3118  2023-11-08 11:39:42.640916
3119  2023-11-08 11:39:42.686806
3120  2023-11-08 11:39:42.733723
3121  2023-11-08 11:39:42.765632
3122  2023-11-08 11:39:42.813467
3123  2023-11-08 11:39:42.845382
3124  2023-11-08 11:39:42.892306
3125  2023-11-08 11:39:42.938136
3126  2023-11-08 11:39:42.984011
3127  2023-11-08 11:39:43.015111
3128  2023-11-08 11:39:43.063986
3129  2023-11-08 11:39:43.094897
3130  2023-11-08 11:39:43.142766
3131  2023-11-08 11:39:43.190640
3132  2023-11-08 11:39:43.223533
3133  2023-11-08 11:39:43.270441
3134  2023-11-08 11:39:43.317299
3135  2023-11-08 11:39:43.349184
3136  2023-11-08 11:39:43.396090
3137  2023-11-08 11:39:43.430016
3138  2023-11-08 11:39:43.475875
3139  2023-11-08 11:39:43.523715
3140  2023-11-08 11:39:43.555630
3141  2023-11-08 11:39:43.603534
3142  2023-11-08 11:39:43.652404
3143  2023-11-08 11:39:43.684319
3144  2023-11-08 11:39:43.733193
3145  2023-11-08 11:39:43.764075
3146  2023-11-08 11:39:43.811984
3147  2023-11-08 11:39:43.859849
3148  2023-11-08 11:39:43.890787
3149  2023-11-08 11:39:43.938645
3150  2023-11-08 11:39:43.970561
3151  2023-11-08 11:39:44.018409
3152  2023-11-08 11:39:44.065268
3153  2023-11-08 11:39:44.096188
3154  2023-11-08 11:39:44.142182
3155  2023-11-08 11:39:44.190023
3156  2023-11-08 11:39:44.221937
3157  2023-11-08 11:39:44.269844
3158  2023-11-08 11:39:44.317690
3159  2023-11-08 11:39:44.349596
3160  2023-11-08 11:39:44.397504
3161  2023-11-08 11:39:44.429418
3162  2023-11-08 11:39:44.475295
3163  2023-11-08 11:39:44.522135
3164  2023-11-08 11:39:44.554050
3165  2023-11-08 11:39:44.601922
3166  2023-11-08 11:39:44.649824
3167  2023-11-08 11:39:44.681708
3168  2023-11-08 11:39:44.729583
3169  2023-11-08 11:39:44.761498
3170  2023-11-08 11:39:44.809402
3171  2023-11-08 11:39:44.857276
3172  2023-11-08 11:39:44.889200
3173  2023-11-08 11:39:44.938024
3174  2023-11-08 11:39:44.984931
3175  2023-11-08 11:39:45.016846
3176  2023-11-08 11:39:45.064728
3177  2023-11-08 11:39:45.096634
3178  2023-11-08 11:39:45.144075
3179  2023-11-08 11:39:45.191947
3180  2023-11-08 11:39:45.223933
3181  2023-11-08 11:39:45.271814
3182  2023-11-08 11:39:45.303721
3183  2023-11-08 11:39:45.350593
3184  2023-11-08 11:39:45.396484
3185  2023-11-08 11:39:45.443429
3186  2023-11-08 11:39:45.473434
3187  2023-11-08 11:39:45.522301
3188  2023-11-08 11:39:45.553219
3189  2023-11-08 11:39:45.601258
3190  2023-11-08 11:39:45.648121
3191  2023-11-08 11:39:45.680034
3192  2023-11-08 11:39:45.728915
3193  2023-11-08 11:39:45.776792
3194  2023-11-08 11:39:45.808695
3195  2023-11-08 11:39:45.853647
3196  2023-11-08 11:39:45.900561
3197  2023-11-08 11:39:45.932473
3198  2023-11-08 11:39:45.979342
3199  2023-11-08 11:39:46.026217
3200  2023-11-08 11:39:46.058101
3201  2023-11-08 11:39:46.105976
3202  2023-11-08 11:39:46.137925
3203  2023-11-08 11:39:46.185759
3204  2023-11-08 11:39:46.233674
3205  2023-11-08 11:39:46.265576
3206  2023-11-08 11:39:46.313418
3207  2023-11-08 11:39:46.345365
3208  2023-11-08 11:39:46.393205
3209  2023-11-08 11:39:46.441117
3210  2023-11-08 11:39:46.473027
3211  2023-11-08 11:39:46.520864
3212  2023-11-08 11:39:46.552778
3213  2023-11-08 11:39:46.600688
3214  2023-11-08 11:39:46.647560
3215  2023-11-08 11:39:46.678478
3216  2023-11-08 11:39:46.726348
3217  2023-11-08 11:39:46.774187
3218  2023-11-08 11:39:46.806136
3219  2023-11-08 11:39:46.854009
3220  2023-11-08 11:39:46.901075
3221  2023-11-08 11:39:46.932801
3222  2023-11-08 11:39:46.977681
3223  2023-11-08 11:39:47.025548
3224  2023-11-08 11:39:47.057462
3225  2023-11-08 11:39:47.104344
3226  2023-11-08 11:39:47.151210
3227  2023-11-08 11:39:47.183124
3228  2023-11-08 11:39:47.231029
3229  2023-11-08 11:39:47.275877
3230  2023-11-08 11:39:47.307788
3231  2023-11-08 11:39:47.354634
3232  2023-11-08 11:39:47.386549
3233  2023-11-08 11:39:47.434452
3234  2023-11-08 11:39:47.482293
3235  2023-11-08 11:39:47.514208
3236  2023-11-08 11:39:47.562112
3237  2023-11-08 11:39:47.609211
3238  2023-11-08 11:39:47.640187
3239  2023-11-08 11:39:47.687060
3240  2023-11-08 11:39:47.734932
3241  2023-11-08 11:39:47.764853
3242  2023-11-08 11:39:47.812724
3243  2023-11-08 11:39:47.844639
3244  2023-11-08 11:39:47.891513
3245  2023-11-08 11:39:47.938388
3246  2023-11-08 11:39:47.970339
3247  2023-11-08 11:39:48.018333
3248  2023-11-08 11:39:48.066225
3249  2023-11-08 11:39:48.097106
3250  2023-11-08 11:39:48.143992
3251  2023-11-08 11:39:48.190912
3252  2023-11-08 11:39:48.221805
3253  2023-11-08 11:39:48.267674
3254  2023-11-08 11:39:48.315507
3255  2023-11-08 11:39:48.347422
3256  2023-11-08 11:39:48.393434
3257  2023-11-08 11:39:48.441382
3258  2023-11-08 11:39:48.473302
3259  2023-11-08 11:39:48.520144
3260  2023-11-08 11:39:48.567053
3261  2023-11-08 11:39:48.599961
3262  2023-11-08 11:39:48.646806
3263  2023-11-08 11:39:48.678722
3264  2023-11-08 11:39:48.727635
3265  2023-11-08 11:39:48.774507
3266  2023-11-08 11:39:48.806414
3267  2023-11-08 11:39:48.854252
3268  2023-11-08 11:39:48.886318
3269  2023-11-08 11:39:48.932074
3270  2023-11-08 11:39:48.979917
3271  2023-11-08 11:39:49.025830
3272  2023-11-08 11:39:49.057746
3273  2023-11-08 11:39:49.105618
3274  2023-11-08 11:39:49.137534
3275  2023-11-08 11:39:49.183404
3276  2023-11-08 11:39:49.232290
3277  2023-11-08 11:39:49.263158
3278  2023-11-08 11:39:49.311061
3279  2023-11-08 11:39:49.359924
3280  2023-11-08 11:39:49.391849
3281  2023-11-08 11:39:49.439724
3282  2023-11-08 11:39:49.471601
3283  2023-11-08 11:39:49.518525
3284  2023-11-08 11:39:49.566378
3285  2023-11-08 11:39:49.599294
3286  2023-11-08 11:39:49.645169
3287  2023-11-08 11:39:49.693035
3288  2023-11-08 11:39:49.724956
3289  2023-11-08 11:39:49.770835
3290  2023-11-08 11:39:49.804863
3291  2023-11-08 11:39:49.852762
3292  2023-11-08 11:39:49.898749
3293  2023-11-08 11:39:49.930663
3294  2023-11-08 11:39:49.978662
3295  2023-11-08 11:39:50.028563
3296  2023-11-08 11:39:50.058468
3297  2023-11-08 11:39:50.104358
3298  2023-11-08 11:39:50.136275
3299  2023-11-08 11:39:50.184113
3300  2023-11-08 11:39:50.231165
3301  2023-11-08 11:39:50.262153
3302  2023-11-08 11:39:50.310072
3303  2023-11-08 11:39:50.356994
3304  2023-11-08 11:39:50.387948
3305  2023-11-08 11:39:50.435816
3306  2023-11-08 11:39:50.483656
3307  2023-11-08 11:39:50.514606
3308  2023-11-08 11:39:50.562445
3309  2023-11-08 11:39:50.608531
3310  2023-11-08 11:39:50.640292
3311  2023-11-08 11:39:50.686208
3312  2023-11-08 11:39:50.734115
3313  2023-11-08 11:39:50.766067
3314  2023-11-08 11:39:50.814013
3315  2023-11-08 11:39:50.845943
3316  2023-11-08 11:39:50.893827
3317  2023-11-08 11:39:50.942684
3318  2023-11-08 11:39:50.974610
3319  2023-11-08 11:39:51.021663
3320  2023-11-08 11:39:51.053579
3321  2023-11-08 11:39:51.102429
3322  2023-11-08 11:39:51.147314
3323  2023-11-08 11:39:51.179233
3324  2023-11-08 11:39:51.225072
3325  2023-11-08 11:39:51.272978
3326  2023-11-08 11:39:51.303904
3327  2023-11-08 11:39:51.350736
3328  2023-11-08 11:39:51.397646
3329  2023-11-08 11:39:51.429561
3330  2023-11-08 11:39:51.477398
3331  2023-11-08 11:39:51.525270
3332  2023-11-08 11:39:51.557184
3333  2023-11-08 11:39:51.605104
3334  2023-11-08 11:39:51.637133
3335  2023-11-08 11:39:51.683846
3336  2023-11-08 11:39:51.731760
3337  2023-11-08 11:39:51.763635
3338  2023-11-08 11:39:51.811504
3339  2023-11-08 11:39:51.859410
3340  2023-11-08 11:39:51.891325
3341  2023-11-08 11:39:51.939207
3342  2023-11-08 11:39:51.971115
3343  2023-11-08 11:39:52.018984
3344  2023-11-08 11:39:52.066823
3345  2023-11-08 11:39:52.098738
3346  2023-11-08 11:39:52.144653
3347  2023-11-08 11:39:52.192522
3348  2023-11-08 11:39:52.224427
3349  2023-11-08 11:39:52.271312
3350  2023-11-08 11:39:52.317346
3351  2023-11-08 11:39:52.348266
3352  2023-11-08 11:39:52.396100
3353  2023-11-08 11:39:52.428022
3354  2023-11-08 11:39:52.475923
3355  2023-11-08 11:39:52.523790
3356  2023-11-08 11:39:52.555673
3357  2023-11-08 11:39:52.604597
3358  2023-11-08 11:39:52.652461
3359  2023-11-08 11:39:52.684406
3360  2023-11-08 11:39:52.730423
3361  2023-11-08 11:39:52.776235
3362  2023-11-08 11:39:52.810177
3363  2023-11-08 11:39:52.854540
3364  2023-11-08 11:39:52.901530
3365  2023-11-08 11:39:52.933442
3366  2023-11-08 11:39:52.981284
3367  2023-11-08 11:39:53.013199
3368  2023-11-08 11:39:53.061257
3369  2023-11-08 11:39:53.109130
3370  2023-11-08 11:39:53.141080
3371  2023-11-08 11:39:53.188917
3372  2023-11-08 11:39:53.220832
3373  2023-11-08 11:39:53.267746
3374  2023-11-08 11:39:53.315580
3375  2023-11-08 11:39:53.347495
3376  2023-11-08 11:39:53.395399
3377  2023-11-08 11:39:53.443237
3378  2023-11-08 11:39:53.475152
3379  2023-11-08 11:39:53.521029
3380  2023-11-08 11:39:53.552953
3381  2023-11-08 11:39:53.600826
3382  2023-11-08 11:39:53.648736
3383  2023-11-08 11:39:53.680680
3384  2023-11-08 11:39:53.728576
3385  2023-11-08 11:39:53.776484
3386  2023-11-08 11:39:53.808396
3387  2023-11-08 11:39:53.856234
3388  2023-11-08 11:39:53.888149
3389  2023-11-08 11:39:53.937018
3390  2023-11-08 11:39:53.983926
3391  2023-11-08 11:39:54.015841
3392  2023-11-08 11:39:54.064813
3393  2023-11-08 11:39:54.094750
3394  2023-11-08 11:39:54.141612
3395  2023-11-08 11:39:54.189448
3396  2023-11-08 11:39:54.221394
3397  2023-11-08 11:39:54.267279
3398  2023-11-08 11:39:54.314150
3399  2023-11-08 11:39:54.345047
3400  2023-11-08 11:39:54.391908
3401  2023-11-08 11:39:54.437818
3402  2023-11-08 11:39:54.469738
3403  2023-11-08 11:39:54.517570
3404  2023-11-08 11:39:54.564589
3405  2023-11-08 11:39:54.595510
3406  2023-11-08 11:39:54.643339
3407  2023-11-08 11:39:54.691243
3408  2023-11-08 11:39:54.723125
3409  2023-11-08 11:39:54.770998
3410  2023-11-08 11:39:54.802950
3411  2023-11-08 11:39:54.850863
3412  2023-11-08 11:39:54.898772
3413  2023-11-08 11:39:54.930727
3414  2023-11-08 11:39:54.978588
3415  2023-11-08 11:39:55.026460
3416  2023-11-08 11:39:55.058344
3417  2023-11-08 11:39:55.106250
3418  2023-11-08 11:39:55.138161
3419  2023-11-08 11:39:55.186078
3420  2023-11-08 11:39:55.235000
3421  2023-11-08 11:39:55.265864
3422  2023-11-08 11:39:55.312771
3423  2023-11-08 11:39:55.344687
3424  2023-11-08 11:39:55.391528
3425  2023-11-08 11:39:55.437443
3426  2023-11-08 11:39:55.469354
3427  2023-11-08 11:39:55.517228
3428  2023-11-08 11:39:55.565102
3429  2023-11-08 11:39:55.597008
3430  2023-11-08 11:39:55.644882
3431  2023-11-08 11:39:55.692872
3432  2023-11-08 11:39:55.724787
3433  2023-11-08 11:39:55.771664
3434  2023-11-08 11:39:55.817536
3435  2023-11-08 11:39:55.849451
3436  2023-11-08 11:39:55.896297
3437  2023-11-08 11:39:55.929242
3438  2023-11-08 11:39:55.976129
3439  2023-11-08 11:39:56.023987
3440  2023-11-08 11:39:56.055900
3441  2023-11-08 11:39:56.104784
3442  2023-11-08 11:39:56.150649
3443  2023-11-08 11:39:56.182570
3444  2023-11-08 11:39:56.230431
3445  2023-11-08 11:39:56.263325
3446  2023-11-08 11:39:56.308194
3447  2023-11-08 11:39:56.354072
3448  2023-11-08 11:39:56.400981
3449  2023-11-08 11:39:56.432897
3450  2023-11-08 11:39:56.477771
3451  2023-11-08 11:39:56.525646
3452  2023-11-08 11:39:56.556563
3453  2023-11-08 11:39:56.602410
3454  2023-11-08 11:39:56.649315
3455  2023-11-08 11:39:56.681231
3456  2023-11-08 11:39:56.728104
3457  2023-11-08 11:39:56.775996
3458  2023-11-08 11:39:56.805895
3459  2023-11-08 11:39:56.853897
3460  2023-11-08 11:39:56.901772
3461  2023-11-08 11:39:56.933684
3462  2023-11-08 11:39:56.981557
3463  2023-11-08 11:39:57.011442
3464  2023-11-08 11:39:57.056356
3465  2023-11-08 11:39:57.104194
3466  2023-11-08 11:39:57.136111
3467  2023-11-08 11:39:57.182016
3468  2023-11-08 11:39:57.229889
3469  2023-11-08 11:39:57.261773
3470  2023-11-08 11:39:57.309681
3471  2023-11-08 11:39:57.354564
3472  2023-11-08 11:39:57.386472
3473  2023-11-08 11:39:57.434350
3474  2023-11-08 11:39:57.482218
3475  2023-11-08 11:39:57.513952
3476  2023-11-08 11:39:57.561017
3477  2023-11-08 11:39:57.608491
3478  2023-11-08 11:39:57.639739
3479  2023-11-08 11:39:57.685625
3480  2023-11-08 11:39:57.733645
3481  2023-11-08 11:39:57.765563
3482  2023-11-08 11:39:57.813435
3483  2023-11-08 11:39:57.845453
3484  2023-11-08 11:39:57.893320
3485  2023-11-08 11:39:57.941196
3486  2023-11-08 11:39:57.973107
3487  2023-11-08 11:39:58.020979
3488  2023-11-08 11:39:58.068863
3489  2023-11-08 11:39:58.100872
3490  2023-11-08 11:39:58.148745
3491  2023-11-08 11:39:58.178632
3492  2023-11-08 11:39:58.226540
3493  2023-11-08 11:39:58.274376
3494  2023-11-08 11:39:58.305293
3495  2023-11-08 11:39:58.352168
3496  2023-11-08 11:39:58.398046
3497  2023-11-08 11:39:58.429961
3498  2023-11-08 11:39:58.475868
3499  2023-11-08 11:39:58.523803
3500  2023-11-08 11:39:58.555747
3501  2023-11-08 11:39:58.600629
3502  2023-11-08 11:39:58.647529
3503  2023-11-08 11:39:58.692517
3504  2023-11-08 11:39:58.724419
3505  2023-11-08 11:39:58.772292
3506  2023-11-08 11:39:58.804206
3507  2023-11-08 11:39:58.852074
3508  2023-11-08 11:39:58.900982
3509  2023-11-08 11:39:58.932880
3510  2023-11-08 11:39:58.979739
3511  2023-11-08 11:39:59.025611
3512  2023-11-08 11:39:59.056498
3513  2023-11-08 11:39:59.104404
3514  2023-11-08 11:39:59.136285
3515  2023-11-08 11:39:59.184192
3516  2023-11-08 11:39:59.232156
3517  2023-11-08 11:39:59.265109
3518  2023-11-08 11:39:59.312016
3519  2023-11-08 11:39:59.358858
3520  2023-11-08 11:39:59.389775
3521  2023-11-08 11:39:59.435687
3522  2023-11-08 11:39:59.483524
3523  2023-11-08 11:39:59.515470
3524  2023-11-08 11:39:59.563311
3525  2023-11-08 11:39:59.609229
3526  2023-11-08 11:39:59.641135
3527  2023-11-08 11:39:59.688012
3528  2023-11-08 11:39:59.734883
3529  2023-11-08 11:39:59.767796
3530  2023-11-08 11:39:59.814677
3531  2023-11-08 11:39:59.846599
3532  2023-11-08 11:39:59.894454
3533  2023-11-08 11:39:59.942339
3534  2023-11-08 11:39:59.974246
3535  2023-11-08 11:40:00.022086
3536  2023-11-08 11:40:00.069994
3537  2023-11-08 11:40:00.102906
3538  2023-11-08 11:40:00.146786
3539  2023-11-08 11:40:00.179699
3540  2023-11-08 11:40:00.224674
3541  2023-11-08 11:40:00.269545
3542  2023-11-08 11:40:00.315424
3543  2023-11-08 11:40:00.346341
3544  2023-11-08 11:40:00.393215
3545  2023-11-08 11:40:00.440090
3546  2023-11-08 11:40:00.472058
3547  2023-11-08 11:40:00.518958
3548  2023-11-08 11:40:00.567832
3549  2023-11-08 11:40:00.599748
3550  2023-11-08 11:40:00.646613
3551  2023-11-08 11:40:00.678615
3552  2023-11-08 11:40:00.726596
3553  2023-11-08 11:40:00.774436
3554  2023-11-08 11:40:00.806382
3555  2023-11-08 11:40:00.854254
3556  2023-11-08 11:40:00.886303
3557  2023-11-08 11:40:00.934046
3558  2023-11-08 11:40:00.980925
3559  2023-11-08 11:40:01.012827
3560  2023-11-08 11:40:01.061719
3561  2023-11-08 11:40:01.108571
