
1  2023-11-22 10:58:16.521995
2  2023-11-22 10:58:16.553922
3  2023-11-22 10:58:16.585836
4  2023-11-22 10:58:16.617721
5  2023-11-22 10:58:16.649634
6  2023-11-22 10:58:16.681551
7  2023-11-22 10:58:16.713465
8  2023-11-22 10:58:16.745416
9  2023-11-22 10:58:16.777299
10  2023-11-22 10:58:16.809208
11  2023-11-22 10:58:16.842121
12  2023-11-22 10:58:16.874034
13  2023-11-22 10:58:16.921942
14  2023-11-22 10:58:16.953851
15  2023-11-22 10:58:16.985766
16  2023-11-22 10:58:17.017682
17  2023-11-22 10:58:17.049596
18  2023-11-22 10:58:17.081517
19  2023-11-22 10:58:17.113394
20  2023-11-22 10:58:17.145349
21  2023-11-22 10:58:17.177223
22  2023-11-22 10:58:17.209173
23  2023-11-22 10:58:17.242126
24  2023-11-22 10:58:17.274119
25  2023-11-22 10:58:17.321103
26  2023-11-22 10:58:17.354022
27  2023-11-22 10:58:17.386026
28  2023-11-22 10:58:17.417901
29  2023-11-22 10:58:17.449848
30  2023-11-22 10:58:17.481761
31  2023-11-22 10:58:17.513677
32  2023-11-22 10:58:17.545561
33  2023-11-22 10:58:17.577520
34  2023-11-22 10:58:17.609420
35  2023-11-22 10:58:17.641334
36  2023-11-22 10:58:17.673217
37  2023-11-22 10:58:17.721090
38  2023-11-22 10:58:17.754001
39  2023-11-22 10:58:17.785948
40  2023-11-22 10:58:17.817830
41  2023-11-22 10:58:17.849745
42  2023-11-22 10:58:17.881690
43  2023-11-22 10:58:17.913574
44  2023-11-22 10:58:17.945500
45  2023-11-22 10:58:17.977403
46  2023-11-22 10:58:18.009318
47  2023-11-22 10:58:18.041141
48  2023-11-22 10:58:18.074053
49  2023-11-22 10:58:18.122008
50  2023-11-22 10:58:18.153890
51  2023-11-22 10:58:18.185836
52  2023-11-22 10:58:18.218752
53  2023-11-22 10:58:18.249665
54  2023-11-22 10:58:18.281597
55  2023-11-22 10:58:18.313622
56  2023-11-22 10:58:18.346500
57  2023-11-22 10:58:18.378426
58  2023-11-22 10:58:18.409331
59  2023-11-22 10:58:18.441405
60  2023-11-22 10:58:18.473352
61  2023-11-22 10:58:18.522277
62  2023-11-22 10:58:18.553229
63  2023-11-22 10:58:18.585145
64  2023-11-22 10:58:18.618072
65  2023-11-22 10:58:18.649969
66  2023-11-22 10:58:18.681882
67  2023-11-22 10:58:18.713764
68  2023-11-22 10:58:18.745679
69  2023-11-22 10:58:18.777593
70  2023-11-22 10:58:18.809478
71  2023-11-22 10:58:18.841435
72  2023-11-22 10:58:18.873384
73  2023-11-22 10:58:18.921270
74  2023-11-22 10:58:18.954201
75  2023-11-22 10:58:18.986049
76  2023-11-22 10:58:19.018005
77  2023-11-22 10:58:19.049877
78  2023-11-22 10:58:19.081792
79  2023-11-22 10:58:19.113706
80  2023-11-22 10:58:19.145621
81  2023-11-22 10:58:19.178111
82  2023-11-22 10:58:19.210056
83  2023-11-22 10:58:19.241577
84  2023-11-22 10:58:19.273478
85  2023-11-22 10:58:19.321389
86  2023-11-22 10:58:19.353350
87  2023-11-22 10:58:19.385266
88  2023-11-22 10:58:19.417180
89  2023-11-22 10:58:19.450129
90  2023-11-22 10:58:19.482039
91  2023-11-22 10:58:19.513960
92  2023-11-22 10:58:19.545869
93  2023-11-22 10:58:19.577750
94  2023-11-22 10:58:19.609698
95  2023-11-22 10:58:19.641612
96  2023-11-22 10:58:19.673528
97  2023-11-22 10:58:19.721399
98  2023-11-22 10:58:19.753456
99  2023-11-22 10:58:19.785361
100  2023-11-22 10:58:19.817243
101  2023-11-22 10:58:19.849191
102  2023-11-22 10:58:19.882102
103  2023-11-22 10:58:19.914021
104  2023-11-22 10:58:19.945900
105  2023-11-22 10:58:19.977814
106  2023-11-22 10:58:20.009760
107  2023-11-22 10:58:20.041643
108  2023-11-22 10:58:20.073558
109  2023-11-22 10:58:20.121434
110  2023-11-22 10:58:20.153344
111  2023-11-22 10:58:20.186288
112  2023-11-22 10:58:20.217204
113  2023-11-22 10:58:20.250086
114  2023-11-22 10:58:20.282034
115  2023-11-22 10:58:20.313960
116  2023-11-22 10:58:20.345829
117  2023-11-22 10:58:20.377778
118  2023-11-22 10:58:20.409801
119  2023-11-22 10:58:20.441795
120  2023-11-22 10:58:20.473718
121  2023-11-22 10:58:20.521586
122  2023-11-22 10:58:20.553392
123  2023-11-22 10:58:20.585488
124  2023-11-22 10:58:20.617442
125  2023-11-22 10:58:20.649391
126  2023-11-22 10:58:20.681304
127  2023-11-22 10:58:20.713219
128  2023-11-22 10:58:20.746140
129  2023-11-22 10:58:20.778013
130  2023-11-22 10:58:20.809958
131  2023-11-22 10:58:20.841876
132  2023-11-22 10:58:20.873789
133  2023-11-22 10:58:20.921861
134  2023-11-22 10:58:20.953740
135  2023-11-22 10:58:20.985688
136  2023-11-22 10:58:21.017569
137  2023-11-22 10:58:21.049485
138  2023-11-22 10:58:21.081512
139  2023-11-22 10:58:21.113427
140  2023-11-22 10:58:21.146372
141  2023-11-22 10:58:21.178301
142  2023-11-22 10:58:21.210201
143  2023-11-22 10:58:21.241152
144  2023-11-22 10:58:21.274077
145  2023-11-22 10:58:21.321902
146  2023-11-22 10:58:21.353850
147  2023-11-22 10:58:21.385781
148  2023-11-22 10:58:21.417646
149  2023-11-22 10:58:21.449560
150  2023-11-22 10:58:21.481632
151  2023-11-22 10:58:21.513551
152  2023-11-22 10:58:21.545426
153  2023-11-22 10:58:21.577375
154  2023-11-22 10:58:21.609356
155  2023-11-22 10:58:21.641309
156  2023-11-22 10:58:21.674232
157  2023-11-22 10:58:21.722093
158  2023-11-22 10:58:21.754011
159  2023-11-22 10:58:21.785884
160  2023-11-22 10:58:21.817798
161  2023-11-22 10:58:21.849713
162  2023-11-22 10:58:21.881628
163  2023-11-22 10:58:21.913543
164  2023-11-22 10:58:21.945457
165  2023-11-22 10:58:21.977371
166  2023-11-22 10:58:22.009286
167  2023-11-22 10:58:22.041232
168  2023-11-22 10:58:22.074144
169  2023-11-22 10:58:22.122017
170  2023-11-22 10:58:22.153803
171  2023-11-22 10:58:22.185807
172  2023-11-22 10:58:22.217715
173  2023-11-22 10:58:22.249596
174  2023-11-22 10:58:22.281548
175  2023-11-22 10:58:22.313456
176  2023-11-22 10:58:22.345373
177  2023-11-22 10:58:22.377254
178  2023-11-22 10:58:22.410166
179  2023-11-22 10:58:22.441125
180  2023-11-22 10:58:22.474032
181  2023-11-22 10:58:22.521900
182  2023-11-22 10:58:22.553817
183  2023-11-22 10:58:22.585696
184  2023-11-22 10:58:22.617611
185  2023-11-22 10:58:22.649557
186  2023-11-22 10:58:22.681473
187  2023-11-22 10:58:22.713354
188  2023-11-22 10:58:22.745269
189  2023-11-22 10:58:22.777217
190  2023-11-22 10:58:22.810096
191  2023-11-22 10:58:22.842042
192  2023-11-22 10:58:22.873956
193  2023-11-22 10:58:22.921797
194  2023-11-22 10:58:22.953753
195  2023-11-22 10:58:22.985626
196  2023-11-22 10:58:23.017540
197  2023-11-22 10:58:23.049455
198  2023-11-22 10:58:23.081403
199  2023-11-22 10:58:23.113284
200  2023-11-22 10:58:23.146196
201  2023-11-22 10:58:23.178143
202  2023-11-22 10:58:23.210059
203  2023-11-22 10:58:23.241940
204  2023-11-22 10:58:23.273886
205  2023-11-22 10:58:23.321726
206  2023-11-22 10:58:23.353799
207  2023-11-22 10:58:23.385747
208  2023-11-22 10:58:23.417629
209  2023-11-22 10:58:23.449543
210  2023-11-22 10:58:23.481458
211  2023-11-22 10:58:23.513373
212  2023-11-22 10:58:23.545287
213  2023-11-22 10:58:23.577232
214  2023-11-22 10:58:23.609150
215  2023-11-22 10:58:23.642071
216  2023-11-22 10:58:23.673979
217  2023-11-22 10:58:23.721814
218  2023-11-22 10:58:23.753761
219  2023-11-22 10:58:23.785643
220  2023-11-22 10:58:23.817558
221  2023-11-22 10:58:23.849514
222  2023-11-22 10:58:23.881437
223  2023-11-22 10:58:23.913343
224  2023-11-22 10:58:23.945216
225  2023-11-22 10:58:23.977188
226  2023-11-22 10:58:24.009085
227  2023-11-22 10:58:24.041999
228  2023-11-22 10:58:24.073903
229  2023-11-22 10:58:24.121744
230  2023-11-22 10:58:24.153777
231  2023-11-22 10:58:24.185731
232  2023-11-22 10:58:24.217642
233  2023-11-22 10:58:24.249534
234  2023-11-22 10:58:24.281436
235  2023-11-22 10:58:24.313384
236  2023-11-22 10:58:24.345304
237  2023-11-22 10:58:24.378177
238  2023-11-22 10:58:24.410093
239  2023-11-22 10:58:24.442006
240  2023-11-22 10:58:24.473955
241  2023-11-22 10:58:24.521792
242  2023-11-22 10:58:24.553707
243  2023-11-22 10:58:24.585621
244  2023-11-22 10:58:24.617536
245  2023-11-22 10:58:24.649451
246  2023-11-22 10:58:24.681365
247  2023-11-22 10:58:24.713280
248  2023-11-22 10:58:24.745194
249  2023-11-22 10:58:24.777109
250  2023-11-22 10:58:24.810021
251  2023-11-22 10:58:24.841967
252  2023-11-22 10:58:24.873850
253  2023-11-22 10:58:24.921725
254  2023-11-22 10:58:24.953636
255  2023-11-22 10:58:24.985551
256  2023-11-22 10:58:25.017499
257  2023-11-22 10:58:25.049380
258  2023-11-22 10:58:25.081295
259  2023-11-22 10:58:25.114207
260  2023-11-22 10:58:25.145124
261  2023-11-22 10:58:25.178067
262  2023-11-22 10:58:25.209951
263  2023-11-22 10:58:25.241870
264  2023-11-22 10:58:25.273815
265  2023-11-22 10:58:25.321652
266  2023-11-22 10:58:25.353566
267  2023-11-22 10:58:25.385512
268  2023-11-22 10:58:25.417395
269  2023-11-22 10:58:25.449311
270  2023-11-22 10:58:25.482223
271  2023-11-22 10:58:25.513175
272  2023-11-22 10:58:25.546052
273  2023-11-22 10:58:25.578135
274  2023-11-22 10:58:25.609094
275  2023-11-22 10:58:25.641996
276  2023-11-22 10:58:25.673879
277  2023-11-22 10:58:25.721751
278  2023-11-22 10:58:25.753665
279  2023-11-22 10:58:25.785580
280  2023-11-22 10:58:25.817660
281  2023-11-22 10:58:25.849575
282  2023-11-22 10:58:25.881490
283  2023-11-22 10:58:25.913404
284  2023-11-22 10:58:25.945319
285  2023-11-22 10:58:25.977233
286  2023-11-22 10:58:26.010191
287  2023-11-22 10:58:26.042062
288  2023-11-22 10:58:26.073975
289  2023-11-22 10:58:26.121846
290  2023-11-22 10:58:26.153761
291  2023-11-22 10:58:26.185675
292  2023-11-22 10:58:26.217621
293  2023-11-22 10:58:26.249505
294  2023-11-22 10:58:26.281419
295  2023-11-22 10:58:26.313334
296  2023-11-22 10:58:26.345286
297  2023-11-22 10:58:26.377163
298  2023-11-22 10:58:26.409116
299  2023-11-22 10:58:26.441990
300  2023-11-22 10:58:26.473935
301  2023-11-22 10:58:26.521776
302  2023-11-22 10:58:26.553691
303  2023-11-22 10:58:26.585605
304  2023-11-22 10:58:26.617533
305  2023-11-22 10:58:26.649434
306  2023-11-22 10:58:26.681349
307  2023-11-22 10:58:26.713263
308  2023-11-22 10:58:26.746175
309  2023-11-22 10:58:26.777133
310  2023-11-22 10:58:26.809177
311  2023-11-22 10:58:26.842046
312  2023-11-22 10:58:26.873960
313  2023-11-22 10:58:26.921832
314  2023-11-22 10:58:26.953746
315  2023-11-22 10:58:26.985661
316  2023-11-22 10:58:27.017656
317  2023-11-22 10:58:27.049574
318  2023-11-22 10:58:27.081487
319  2023-11-22 10:58:27.113402
320  2023-11-22 10:58:27.145317
321  2023-11-22 10:58:27.177268
322  2023-11-22 10:58:27.209174
323  2023-11-22 10:58:27.242058
324  2023-11-22 10:58:27.273972
325  2023-11-22 10:58:27.321844
326  2023-11-22 10:58:27.353759
327  2023-11-22 10:58:27.385709
328  2023-11-22 10:58:27.417588
329  2023-11-22 10:58:27.449502
330  2023-11-22 10:58:27.481417
331  2023-11-22 10:58:27.513332
332  2023-11-22 10:58:27.545281
333  2023-11-22 10:58:27.577203
334  2023-11-22 10:58:27.609110
335  2023-11-22 10:58:27.642027
336  2023-11-22 10:58:27.673902
337  2023-11-22 10:58:27.721808
338  2023-11-22 10:58:27.753688
339  2023-11-22 10:58:27.785603
340  2023-11-22 10:58:27.817517
341  2023-11-22 10:58:27.849484
342  2023-11-22 10:58:27.881387
343  2023-11-22 10:58:27.913261
344  2023-11-22 10:58:27.945176
345  2023-11-22 10:58:27.978138
346  2023-11-22 10:58:28.010035
347  2023-11-22 10:58:28.041917
348  2023-11-22 10:58:28.073832
349  2023-11-22 10:58:28.121703
350  2023-11-22 10:58:28.153618
351  2023-11-22 10:58:28.185568
352  2023-11-22 10:58:28.217491
353  2023-11-22 10:58:28.249362
354  2023-11-22 10:58:28.282275
355  2023-11-22 10:58:28.313192
356  2023-11-22 10:58:28.346103
357  2023-11-22 10:58:28.377179
358  2023-11-22 10:58:28.409129
359  2023-11-22 10:58:28.442033
360  2023-11-22 10:58:28.473922
361  2023-11-22 10:58:28.521793
362  2023-11-22 10:58:28.553708
363  2023-11-22 10:58:28.585623
364  2023-11-22 10:58:28.617537
365  2023-11-22 10:58:28.649452
366  2023-11-22 10:58:28.681366
367  2023-11-22 10:58:28.714344
368  2023-11-22 10:58:28.745195
369  2023-11-22 10:58:28.777149
370  2023-11-22 10:58:28.810022
371  2023-11-22 10:58:28.841937
372  2023-11-22 10:58:28.873851
373  2023-11-22 10:58:28.921756
374  2023-11-22 10:58:28.953638
375  2023-11-22 10:58:28.985552
376  2023-11-22 10:58:29.017467
377  2023-11-22 10:58:29.049432
378  2023-11-22 10:58:29.081296
379  2023-11-22 10:58:29.114208
380  2023-11-22 10:58:29.145185
381  2023-11-22 10:58:29.178078
382  2023-11-22 10:58:29.209952
383  2023-11-22 10:58:29.241866
384  2023-11-22 10:58:29.273822
385  2023-11-22 10:58:29.321725
386  2023-11-22 10:58:29.353640
387  2023-11-22 10:58:29.385555
388  2023-11-22 10:58:29.417469
389  2023-11-22 10:58:29.449577
390  2023-11-22 10:58:29.481495
391  2023-11-22 10:58:29.513406
392  2023-11-22 10:58:29.545327
393  2023-11-22 10:58:29.577259
394  2023-11-22 10:58:29.609183
395  2023-11-22 10:58:29.642062
396  2023-11-22 10:58:29.673117
397  2023-11-22 10:58:29.721937
398  2023-11-22 10:58:29.753851
399  2023-11-22 10:58:29.785766
400  2023-11-22 10:58:29.817680
401  2023-11-22 10:58:29.849595
402  2023-11-22 10:58:29.881614
403  2023-11-22 10:58:29.913424
404  2023-11-22 10:58:29.945339
405  2023-11-22 10:58:29.977294
406  2023-11-22 10:58:30.010165
407  2023-11-22 10:58:30.042121
408  2023-11-22 10:58:30.073995
409  2023-11-22 10:58:30.121866
410  2023-11-22 10:58:30.153781
411  2023-11-22 10:58:30.185781
412  2023-11-22 10:58:30.217727
413  2023-11-22 10:58:30.249687
414  2023-11-22 10:58:30.281659
415  2023-11-22 10:58:30.313574
416  2023-11-22 10:58:30.346487
417  2023-11-22 10:58:30.377410
418  2023-11-22 10:58:30.409358
419  2023-11-22 10:58:30.441272
420  2023-11-22 10:58:30.474178
421  2023-11-22 10:58:30.522016
422  2023-11-22 10:58:30.554079
423  2023-11-22 10:58:30.585945
424  2023-11-22 10:58:30.617927
425  2023-11-22 10:58:30.649555
426  2023-11-22 10:58:30.681433
427  2023-11-22 10:58:30.713373
428  2023-11-22 10:58:30.745336
429  2023-11-22 10:58:30.777287
430  2023-11-22 10:58:30.809174
431  2023-11-22 10:58:30.841089
432  2023-11-22 10:58:30.874029
433  2023-11-22 10:58:30.921967
434  2023-11-22 10:58:30.953924
435  2023-11-22 10:58:30.985839
436  2023-11-22 10:58:31.017754
437  2023-11-22 10:58:31.049704
438  2023-11-22 10:58:31.081583
439  2023-11-22 10:58:31.113497
440  2023-11-22 10:58:31.145445
441  2023-11-22 10:58:31.177366
442  2023-11-22 10:58:31.209286
443  2023-11-22 10:58:31.241187
444  2023-11-22 10:58:31.273111
445  2023-11-22 10:58:31.321939
446  2023-11-22 10:58:31.353888
447  2023-11-22 10:58:31.385769
448  2023-11-22 10:58:31.417683
449  2023-11-22 10:58:31.449715
450  2023-11-22 10:58:31.481630
451  2023-11-22 10:58:31.513581
452  2023-11-22 10:58:31.545498
453  2023-11-22 10:58:31.577405
454  2023-11-22 10:58:31.609319
455  2023-11-22 10:58:31.641238
456  2023-11-22 10:58:31.673151
457  2023-11-22 10:58:31.721986
458  2023-11-22 10:58:31.753901
459  2023-11-22 10:58:31.785816
460  2023-11-22 10:58:31.817730
461  2023-11-22 10:58:31.849645
462  2023-11-22 10:58:31.881559
463  2023-11-22 10:58:31.913474
464  2023-11-22 10:58:31.946388
465  2023-11-22 10:58:31.977333
466  2023-11-22 10:58:32.009223
467  2023-11-22 10:58:32.041166
468  2023-11-22 10:58:32.073077
469  2023-11-22 10:58:32.121916
470  2023-11-22 10:58:32.153831
471  2023-11-22 10:58:32.185745
472  2023-11-22 10:58:32.217694
473  2023-11-22 10:58:32.249574
474  2023-11-22 10:58:32.281489
475  2023-11-22 10:58:32.313403
476  2023-11-22 10:58:32.345362
477  2023-11-22 10:58:32.377265
478  2023-11-22 10:58:32.409183
479  2023-11-22 10:58:32.442059
480  2023-11-22 10:58:32.474024
481  2023-11-22 10:58:32.521846
482  2023-11-22 10:58:32.553792
483  2023-11-22 10:58:32.585797
484  2023-11-22 10:58:32.617711
485  2023-11-22 10:58:32.649626
486  2023-11-22 10:58:32.681706
487  2023-11-22 10:58:32.713621
488  2023-11-22 10:58:32.745640
489  2023-11-22 10:58:32.777585
490  2023-11-22 10:58:32.809531
491  2023-11-22 10:58:32.841448
492  2023-11-22 10:58:32.873362
493  2023-11-22 10:58:32.921200
494  2023-11-22 10:58:32.953115
495  2023-11-22 10:58:32.985030
496  2023-11-22 10:58:33.017942
497  2023-11-22 10:58:33.049856
498  2023-11-22 10:58:33.081771
499  2023-11-22 10:58:33.113685
500  2023-11-22 10:58:33.145631
501  2023-11-22 10:58:33.177571
502  2023-11-22 10:58:33.210465
503  2023-11-22 10:58:33.241393
504  2023-11-22 10:58:33.273291
505  2023-11-22 10:58:33.322128
506  2023-11-22 10:58:33.354042
507  2023-11-22 10:58:33.386002
508  2023-11-22 10:58:33.417872
509  2023-11-22 10:58:33.449786
510  2023-11-22 10:58:33.481748
511  2023-11-22 10:58:33.513730
512  2023-11-22 10:58:33.545688
513  2023-11-22 10:58:33.577606
514  2023-11-22 10:58:33.609490
515  2023-11-22 10:58:33.641457
516  2023-11-22 10:58:33.673418
517  2023-11-22 10:58:33.722361
518  2023-11-22 10:58:33.753266
519  2023-11-22 10:58:33.786146
520  2023-11-22 10:58:33.818059
521  2023-11-22 10:58:33.849975
522  2023-11-22 10:58:33.881993
523  2023-11-22 10:58:33.913908
524  2023-11-22 10:58:33.945857
525  2023-11-22 10:58:33.977736
526  2023-11-22 10:58:34.009696
527  2023-11-22 10:58:34.041610
528  2023-11-22 10:58:34.073565
529  2023-11-22 10:58:34.121436
530  2023-11-22 10:58:34.153351
531  2023-11-22 10:58:34.185302
532  2023-11-22 10:58:34.218179
533  2023-11-22 10:58:34.250092
534  2023-11-22 10:58:34.282009
535  2023-11-22 10:58:34.313922
536  2023-11-22 10:58:34.345887
537  2023-11-22 10:58:34.377751
538  2023-11-22 10:58:34.409665
539  2023-11-22 10:58:34.441579
540  2023-11-22 10:58:34.473536
541  2023-11-22 10:58:34.521367
542  2023-11-22 10:58:34.553280
543  2023-11-22 10:58:34.586194
544  2023-11-22 10:58:34.618109
545  2023-11-22 10:58:34.650054
546  2023-11-22 10:58:34.681966
547  2023-11-22 10:58:34.713892
548  2023-11-22 10:58:34.745796
549  2023-11-22 10:58:34.777721
550  2023-11-22 10:58:34.809637
551  2023-11-22 10:58:34.842508
552  2023-11-22 10:58:34.873459
553  2023-11-22 10:58:34.921296
554  2023-11-22 10:58:34.953210
555  2023-11-22 10:58:34.985176
556  2023-11-22 10:58:35.018037
557  2023-11-22 10:58:35.049953
558  2023-11-22 10:58:35.081867
559  2023-11-22 10:58:35.113814
560  2023-11-22 10:58:35.145727
561  2023-11-22 10:58:35.177611
562  2023-11-22 10:58:35.209526
563  2023-11-22 10:58:35.241481
564  2023-11-22 10:58:35.273390
565  2023-11-22 10:58:35.321231
566  2023-11-22 10:58:35.353140
567  2023-11-22 10:58:35.385091
568  2023-11-22 10:58:35.417999
569  2023-11-22 10:58:35.449881
570  2023-11-22 10:58:35.481826
571  2023-11-22 10:58:35.513746
572  2023-11-22 10:58:35.545760
573  2023-11-22 10:58:35.577746
574  2023-11-22 10:58:35.609663
575  2023-11-22 10:58:35.641587
576  2023-11-22 10:58:35.673581
577  2023-11-22 10:58:35.721533
578  2023-11-22 10:58:35.753450
579  2023-11-22 10:58:35.785331
580  2023-11-22 10:58:35.817279
581  2023-11-22 10:58:35.849225
582  2023-11-22 10:58:35.881075
583  2023-11-22 10:58:35.914036
584  2023-11-22 10:58:35.945941
585  2023-11-22 10:58:35.977850
586  2023-11-22 10:58:36.009779
587  2023-11-22 10:58:36.041676
588  2023-11-22 10:58:36.073591
589  2023-11-22 10:58:36.121465
590  2023-11-22 10:58:36.153346
591  2023-11-22 10:58:36.185261
592  2023-11-22 10:58:36.217209
593  2023-11-22 10:58:36.249122
594  2023-11-22 10:58:36.282003
595  2023-11-22 10:58:36.313960
596  2023-11-22 10:58:36.345867
597  2023-11-22 10:58:36.377778
598  2023-11-22 10:58:36.409697
599  2023-11-22 10:58:36.441606
600  2023-11-22 10:58:36.473521
601  2023-11-22 10:58:36.521413
602  2023-11-22 10:58:36.554315
603  2023-11-22 10:58:36.586236
604  2023-11-22 10:58:36.618141
605  2023-11-22 10:58:36.650062
606  2023-11-22 10:58:36.681965
607  2023-11-22 10:58:36.713847
608  2023-11-22 10:58:36.745805
609  2023-11-22 10:58:36.777701
610  2023-11-22 10:58:36.809623
611  2023-11-22 10:58:36.841554
612  2023-11-22 10:58:36.873451
613  2023-11-22 10:58:36.922289
614  2023-11-22 10:58:36.953205
615  2023-11-22 10:58:36.985120
616  2023-11-22 10:58:37.017068
617  2023-11-22 10:58:37.049950
618  2023-11-22 10:58:37.081900
619  2023-11-22 10:58:37.113810
620  2023-11-22 10:58:37.145722
621  2023-11-22 10:58:37.177607
622  2023-11-22 10:58:37.209551
623  2023-11-22 10:58:37.241469
624  2023-11-22 10:58:37.273386
625  2023-11-22 10:58:37.321254
626  2023-11-22 10:58:37.353174
627  2023-11-22 10:58:37.385083
628  2023-11-22 10:58:37.417962
629  2023-11-22 10:58:37.449912
630  2023-11-22 10:58:37.481821
631  2023-11-22 10:58:37.513815
632  2023-11-22 10:58:37.545724
633  2023-11-22 10:58:37.577640
634  2023-11-22 10:58:37.609622
635  2023-11-22 10:58:37.641547
636  2023-11-22 10:58:37.673447
637  2023-11-22 10:58:37.721326
638  2023-11-22 10:58:37.753237
639  2023-11-22 10:58:37.785117
640  2023-11-22 10:58:37.817066
641  2023-11-22 10:58:37.849984
642  2023-11-22 10:58:37.881891
643  2023-11-22 10:58:37.913813
644  2023-11-22 10:58:37.945722
645  2023-11-22 10:58:37.977634
646  2023-11-22 10:58:38.009550
647  2023-11-22 10:58:38.041465
648  2023-11-22 10:58:38.073376
649  2023-11-22 10:58:38.121255
650  2023-11-22 10:58:38.153168
651  2023-11-22 10:58:38.185224
652  2023-11-22 10:58:38.217108
653  2023-11-22 10:58:38.250061
654  2023-11-22 10:58:38.281972
655  2023-11-22 10:58:38.313905
656  2023-11-22 10:58:38.345797
657  2023-11-22 10:58:38.377711
658  2023-11-22 10:58:38.409625
659  2023-11-22 10:58:38.441553
660  2023-11-22 10:58:38.473454
661  2023-11-22 10:58:38.521328
662  2023-11-22 10:58:38.553243
663  2023-11-22 10:58:38.585160
664  2023-11-22 10:58:38.617071
665  2023-11-22 10:58:38.648986
666  2023-11-22 10:58:38.681897
667  2023-11-22 10:58:38.713821
668  2023-11-22 10:58:38.745726
669  2023-11-22 10:58:38.777668
670  2023-11-22 10:58:38.809562
671  2023-11-22 10:58:38.842470
672  2023-11-22 10:58:38.874383
673  2023-11-22 10:58:38.921257
674  2023-11-22 10:58:38.954170
675  2023-11-22 10:58:38.986050
676  2023-11-22 10:58:39.017965
677  2023-11-22 10:58:39.049914
678  2023-11-22 10:58:39.081835
679  2023-11-22 10:58:39.113744
680  2023-11-22 10:58:39.145654
681  2023-11-22 10:58:39.177572
682  2023-11-22 10:58:39.210500
683  2023-11-22 10:58:39.241405
684  2023-11-22 10:58:39.274310
685  2023-11-22 10:58:39.321193
686  2023-11-22 10:58:39.354099
687  2023-11-22 10:58:39.386029
688  2023-11-22 10:58:39.417895
689  2023-11-22 10:58:39.449809
690  2023-11-22 10:58:39.481760
691  2023-11-22 10:58:39.513675
692  2023-11-22 10:58:39.545586
693  2023-11-22 10:58:39.577501
694  2023-11-22 10:58:39.609413
695  2023-11-22 10:58:39.641334
696  2023-11-22 10:58:39.674208
697  2023-11-22 10:58:39.722083
698  2023-11-22 10:58:39.753997
699  2023-11-22 10:58:39.785927
700  2023-11-22 10:58:39.817860
701  2023-11-22 10:58:39.849738
702  2023-11-22 10:58:39.881654
703  2023-11-22 10:58:39.913582
704  2023-11-22 10:58:39.945510
705  2023-11-22 10:58:39.977428
706  2023-11-22 10:58:40.009345
707  2023-11-22 10:58:40.041260
708  2023-11-22 10:58:40.074188
709  2023-11-22 10:58:40.121045
710  2023-11-22 10:58:40.153974
711  2023-11-22 10:58:40.185874
712  2023-11-22 10:58:40.217787
713  2023-11-22 10:58:40.249668
714  2023-11-22 10:58:40.281614
715  2023-11-22 10:58:40.313536
716  2023-11-22 10:58:40.345446
717  2023-11-22 10:58:40.377377
718  2023-11-22 10:58:40.409278
719  2023-11-22 10:58:40.442187
720  2023-11-22 10:58:40.474099
721  2023-11-22 10:58:40.521989
722  2023-11-22 10:58:40.553857
723  2023-11-22 10:58:40.585801
724  2023-11-22 10:58:40.617683
725  2023-11-22 10:58:40.649631
726  2023-11-22 10:58:40.681695
727  2023-11-22 10:58:40.713608
728  2023-11-22 10:58:40.745522
729  2023-11-22 10:58:40.777447
730  2023-11-22 10:58:40.809441
731  2023-11-22 10:58:40.841405
732  2023-11-22 10:58:40.873309
733  2023-11-22 10:58:40.921181
734  2023-11-22 10:58:40.954099
735  2023-11-22 10:58:40.985017
736  2023-11-22 10:58:41.017920
737  2023-11-22 10:58:41.049803
738  2023-11-22 10:58:41.081748
739  2023-11-22 10:58:41.113670
740  2023-11-22 10:58:41.145590
741  2023-11-22 10:58:41.177506
742  2023-11-22 10:58:41.209408
743  2023-11-22 10:58:41.241324
744  2023-11-22 10:58:41.273239
745  2023-11-22 10:58:41.321116
746  2023-11-22 10:58:41.354021
747  2023-11-22 10:58:41.385944
748  2023-11-22 10:58:41.417818
749  2023-11-22 10:58:41.449733
750  2023-11-22 10:58:41.481683
751  2023-11-22 10:58:41.514560
752  2023-11-22 10:58:41.545512
753  2023-11-22 10:58:41.577422
754  2023-11-22 10:58:41.609340
755  2023-11-22 10:58:41.641251
756  2023-11-22 10:58:41.674167
757  2023-11-22 10:58:41.721039
758  2023-11-22 10:58:41.753953
759  2023-11-22 10:58:41.785866
760  2023-11-22 10:58:41.817782
761  2023-11-22 10:58:41.849694
762  2023-11-22 10:58:41.881610
763  2023-11-22 10:58:41.913527
764  2023-11-22 10:58:41.945438
765  2023-11-22 10:58:41.977351
766  2023-11-22 10:58:42.009268
767  2023-11-22 10:58:42.041190
768  2023-11-22 10:58:42.074111
769  2023-11-22 10:58:42.121933
770  2023-11-22 10:58:42.153901
771  2023-11-22 10:58:42.185801
772  2023-11-22 10:58:42.217710
773  2023-11-22 10:58:42.249625
774  2023-11-22 10:58:42.281557
775  2023-11-22 10:58:42.313455
776  2023-11-22 10:58:42.345389
777  2023-11-22 10:58:42.377307
778  2023-11-22 10:58:42.409203
779  2023-11-22 10:58:42.442107
780  2023-11-22 10:58:42.474036
781  2023-11-22 10:58:42.521863
782  2023-11-22 10:58:42.553777
783  2023-11-22 10:58:42.585692
784  2023-11-22 10:58:42.617607
785  2023-11-22 10:58:42.649553
786  2023-11-22 10:58:42.681471
787  2023-11-22 10:58:42.713401
788  2023-11-22 10:58:42.745298
789  2023-11-22 10:58:42.777209
790  2023-11-22 10:58:42.809127
791  2023-11-22 10:58:42.842008
792  2023-11-22 10:58:42.873968
793  2023-11-22 10:58:42.921823
794  2023-11-22 10:58:42.953707
795  2023-11-22 10:58:42.985622
796  2023-11-22 10:58:43.017568
797  2023-11-22 10:58:43.049488
798  2023-11-22 10:58:43.081396
799  2023-11-22 10:58:43.113316
800  2023-11-22 10:58:43.145194
801  2023-11-22 10:58:43.177140
802  2023-11-22 10:58:43.210021
803  2023-11-22 10:58:43.241949
804  2023-11-22 10:58:43.273850
805  2023-11-22 10:58:43.321722
806  2023-11-22 10:58:43.353637
807  2023-11-22 10:58:43.385591
808  2023-11-22 10:58:43.417466
809  2023-11-22 10:58:43.449417
810  2023-11-22 10:58:43.481341
811  2023-11-22 10:58:43.513255
812  2023-11-22 10:58:43.545158
813  2023-11-22 10:58:43.577078
814  2023-11-22 10:58:43.609984
815  2023-11-22 10:58:43.641899
816  2023-11-22 10:58:43.673818
817  2023-11-22 10:58:43.721652
818  2023-11-22 10:58:43.753566
819  2023-11-22 10:58:43.785488
820  2023-11-22 10:58:43.817395
821  2023-11-22 10:58:43.849357
822  2023-11-22 10:58:43.881264
823  2023-11-22 10:58:43.913171
824  2023-11-22 10:58:43.945092
825  2023-11-22 10:58:43.976998
826  2023-11-22 10:58:44.009919
827  2023-11-22 10:58:44.041825
828  2023-11-22 10:58:44.073740
829  2023-11-22 10:58:44.121581
830  2023-11-22 10:58:44.153496
831  2023-11-22 10:58:44.185410
832  2023-11-22 10:58:44.217372
833  2023-11-22 10:58:44.250237
834  2023-11-22 10:58:44.281189
835  2023-11-22 10:58:44.314074
836  2023-11-22 10:58:44.346014
837  2023-11-22 10:58:44.377935
838  2023-11-22 10:58:44.409849
839  2023-11-22 10:58:44.441765
840  2023-11-22 10:58:44.473681
841  2023-11-22 10:58:44.521511
842  2023-11-22 10:58:44.553484
843  2023-11-22 10:58:44.585346
844  2023-11-22 10:58:44.617254
845  2023-11-22 10:58:44.649205
846  2023-11-22 10:58:44.681124
847  2023-11-22 10:58:44.713032
848  2023-11-22 10:58:44.745963
849  2023-11-22 10:58:44.777859
850  2023-11-22 10:58:44.809775
851  2023-11-22 10:58:44.841694
852  2023-11-22 10:58:44.873568
853  2023-11-22 10:58:44.921477
854  2023-11-22 10:58:44.953355
855  2023-11-22 10:58:44.985269
856  2023-11-22 10:58:45.017240
857  2023-11-22 10:58:45.049154
858  2023-11-22 10:58:45.081055
859  2023-11-22 10:58:45.113985
860  2023-11-22 10:58:45.145873
861  2023-11-22 10:58:45.177796
862  2023-11-22 10:58:45.209706
863  2023-11-22 10:58:45.241584
864  2023-11-22 10:58:45.273532
865  2023-11-22 10:58:45.321370
866  2023-11-22 10:58:45.353284
867  2023-11-22 10:58:45.385199
868  2023-11-22 10:58:45.417114
869  2023-11-22 10:58:45.449107
870  2023-11-22 10:58:45.481113
871  2023-11-22 10:58:45.513209
872  2023-11-22 10:58:45.545172
873  2023-11-22 10:58:45.577147
874  2023-11-22 10:58:45.610073
875  2023-11-22 10:58:45.641976
876  2023-11-22 10:58:45.673848
877  2023-11-22 10:58:45.721720
878  2023-11-22 10:58:45.753634
879  2023-11-22 10:58:45.785549
880  2023-11-22 10:58:45.817501
881  2023-11-22 10:58:45.849410
882  2023-11-22 10:58:45.881327
883  2023-11-22 10:58:45.913244
884  2023-11-22 10:58:45.945162
885  2023-11-22 10:58:45.977077
886  2023-11-22 10:58:46.010003
887  2023-11-22 10:58:46.041865
888  2023-11-22 10:58:46.073902
889  2023-11-22 10:58:46.121842
890  2023-11-22 10:58:46.153757
891  2023-11-22 10:58:46.185671
892  2023-11-22 10:58:46.217622
893  2023-11-22 10:58:46.249533
894  2023-11-22 10:58:46.281469
895  2023-11-22 10:58:46.313383
896  2023-11-22 10:58:46.346242
897  2023-11-22 10:58:46.378158
898  2023-11-22 10:58:46.410071
899  2023-11-22 10:58:46.441985
900  2023-11-22 10:58:46.473900
901  2023-11-22 10:58:46.521772
902  2023-11-22 10:58:46.553687
903  2023-11-22 10:58:46.585601
904  2023-11-22 10:58:46.617554
905  2023-11-22 10:58:46.649469
906  2023-11-22 10:58:46.681381
907  2023-11-22 10:58:46.713303
908  2023-11-22 10:58:46.745207
909  2023-11-22 10:58:46.777119
910  2023-11-22 10:58:46.810046
911  2023-11-22 10:58:46.841963
912  2023-11-22 10:58:46.873829
913  2023-11-22 10:58:46.921701
914  2023-11-22 10:58:46.953616
915  2023-11-22 10:58:46.985530
916  2023-11-22 10:58:47.017493
917  2023-11-22 10:58:47.049396
918  2023-11-22 10:58:47.081313
919  2023-11-22 10:58:47.113223
920  2023-11-22 10:58:47.145134
921  2023-11-22 10:58:47.177048
922  2023-11-22 10:58:47.209930
923  2023-11-22 10:58:47.241845
924  2023-11-22 10:58:47.273799
925  2023-11-22 10:58:47.321663
926  2023-11-22 10:58:47.353546
927  2023-11-22 10:58:47.385460
928  2023-11-22 10:58:47.417410
929  2023-11-22 10:58:47.449322
930  2023-11-22 10:58:47.481254
931  2023-11-22 10:58:47.514117
932  2023-11-22 10:58:47.546032
933  2023-11-22 10:58:47.577945
934  2023-11-22 10:58:47.609860
935  2023-11-22 10:58:47.641774
936  2023-11-22 10:58:47.673690
937  2023-11-22 10:58:47.721596
938  2023-11-22 10:58:47.753505
939  2023-11-22 10:58:47.785390
940  2023-11-22 10:58:47.817357
941  2023-11-22 10:58:47.849260
942  2023-11-22 10:58:47.882166
943  2023-11-22 10:58:47.914046
944  2023-11-22 10:58:47.945960
945  2023-11-22 10:58:47.977875
946  2023-11-22 10:58:48.009826
947  2023-11-22 10:58:48.041704
948  2023-11-22 10:58:48.073619
949  2023-11-22 10:58:48.121490
950  2023-11-22 10:58:48.153405
951  2023-11-22 10:58:48.185369
952  2023-11-22 10:58:48.217265
953  2023-11-22 10:58:48.249186
954  2023-11-22 10:58:48.282061
955  2023-11-22 10:58:48.313975
956  2023-11-22 10:58:48.345924
957  2023-11-22 10:58:48.377804
958  2023-11-22 10:58:48.409719
959  2023-11-22 10:58:48.441634
960  2023-11-22 10:58:48.473588
961  2023-11-22 10:58:48.521420
962  2023-11-22 10:58:48.553335
963  2023-11-22 10:58:48.585249
964  2023-11-22 10:58:48.617199
965  2023-11-22 10:58:48.650076
966  2023-11-22 10:58:48.682029
967  2023-11-22 10:58:48.713905
968  2023-11-22 10:58:48.745819
969  2023-11-22 10:58:48.777790
970  2023-11-22 10:58:48.809825
971  2023-11-22 10:58:48.841744
972  2023-11-22 10:58:48.873648
973  2023-11-22 10:58:48.921488
974  2023-11-22 10:58:48.953403
975  2023-11-22 10:58:48.985317
976  2023-11-22 10:58:49.017237
977  2023-11-22 10:58:49.049238
978  2023-11-22 10:58:49.082113
979  2023-11-22 10:58:49.114028
980  2023-11-22 10:58:49.145977
981  2023-11-22 10:58:49.177896
982  2023-11-22 10:58:49.209772
983  2023-11-22 10:58:49.241686
984  2023-11-22 10:58:49.273601
985  2023-11-22 10:58:49.321473
986  2023-11-22 10:58:49.353387
987  2023-11-22 10:58:49.385302
988  2023-11-22 10:58:49.418215
989  2023-11-22 10:58:49.450129
990  2023-11-22 10:58:49.481211
991  2023-11-22 10:58:49.513958
992  2023-11-22 10:58:49.545905
993  2023-11-22 10:58:49.577787
994  2023-11-22 10:58:49.609701
995  2023-11-22 10:58:49.641617
996  2023-11-22 10:58:49.673532
997  2023-11-22 10:58:49.721435
998  2023-11-22 10:58:49.753350
999  2023-11-22 10:58:49.785267
1000  2023-11-22 10:58:49.817180
1001  2023-11-22 10:58:49.849126
1002  2023-11-22 10:58:49.881016
1003  2023-11-22 10:58:49.913887
1004  2023-11-22 10:58:49.945802
1005  2023-11-22 10:58:49.977755
1006  2023-11-22 10:58:50.009664
1007  2023-11-22 10:58:50.041585
1008  2023-11-22 10:58:50.073508
1009  2023-11-22 10:58:50.121332
1010  2023-11-22 10:58:50.153246
1011  2023-11-22 10:58:50.185195
1012  2023-11-22 10:58:50.217117
1013  2023-11-22 10:58:50.249988
1014  2023-11-22 10:58:50.281908
1015  2023-11-22 10:58:50.313865
1016  2023-11-22 10:58:50.345773
1017  2023-11-22 10:58:50.377646
1018  2023-11-22 10:58:50.409561
1019  2023-11-22 10:58:50.441475
1020  2023-11-22 10:58:50.473428
1021  2023-11-22 10:58:50.521261
1022  2023-11-22 10:58:50.554173
1023  2023-11-22 10:58:50.586088
1024  2023-11-22 10:58:50.617058
1025  2023-11-22 10:58:50.649960
1026  2023-11-22 10:58:50.681832
1027  2023-11-22 10:58:50.713746
1028  2023-11-22 10:58:50.745661
1029  2023-11-22 10:58:50.777615
1030  2023-11-22 10:58:50.809522
1031  2023-11-22 10:58:50.841405
1032  2023-11-22 10:58:50.873359
1033  2023-11-22 10:58:50.921191
1034  2023-11-22 10:58:50.953106
1035  2023-11-22 10:58:50.986018
1036  2023-11-22 10:58:51.017932
1037  2023-11-22 10:58:51.049847
1038  2023-11-22 10:58:51.081762
1039  2023-11-22 10:58:51.113689
1040  2023-11-22 10:58:51.145591
1041  2023-11-22 10:58:51.177505
1042  2023-11-22 10:58:51.209450
1043  2023-11-22 10:58:51.241444
1044  2023-11-22 10:58:51.273412
1045  2023-11-22 10:58:51.321283
1046  2023-11-22 10:58:51.353221
1047  2023-11-22 10:58:51.386133
1048  2023-11-22 10:58:51.418092
1049  2023-11-22 10:58:51.449962
1050  2023-11-22 10:58:51.481877
1051  2023-11-22 10:58:51.513822
1052  2023-11-22 10:58:51.546705
1053  2023-11-22 10:58:51.577673
1054  2023-11-22 10:58:51.609633
1055  2023-11-22 10:58:51.641657
1056  2023-11-22 10:58:51.673571
1057  2023-11-22 10:58:51.721484
1058  2023-11-22 10:58:51.753402
1059  2023-11-22 10:58:51.785308
1060  2023-11-22 10:58:51.817218
1061  2023-11-22 10:58:51.850137
1062  2023-11-22 10:58:51.882046
1063  2023-11-22 10:58:51.913928
1064  2023-11-22 10:58:51.945842
1065  2023-11-22 10:58:51.977821
1066  2023-11-22 10:58:52.009815
1067  2023-11-22 10:58:52.041682
1068  2023-11-22 10:58:52.074628
1069  2023-11-22 10:58:52.122500
1070  2023-11-22 10:58:52.154412
1071  2023-11-22 10:58:52.185332
1072  2023-11-22 10:58:52.218253
1073  2023-11-22 10:58:52.250139
1074  2023-11-22 10:58:52.282076
1075  2023-11-22 10:58:52.313988
1076  2023-11-22 10:58:52.345900
1077  2023-11-22 10:58:52.377783
1078  2023-11-22 10:58:52.409697
1079  2023-11-22 10:58:52.441612
1080  2023-11-22 10:58:52.473559
1081  2023-11-22 10:58:52.522441
1082  2023-11-22 10:58:52.553313
1083  2023-11-22 10:58:52.586258
1084  2023-11-22 10:58:52.617183
1085  2023-11-22 10:58:52.650086
1086  2023-11-22 10:58:52.682007
1087  2023-11-22 10:58:52.713916
1088  2023-11-22 10:58:52.745799
1089  2023-11-22 10:58:52.777750
1090  2023-11-22 10:58:52.809661
1091  2023-11-22 10:58:52.841573
1092  2023-11-22 10:58:52.873517
1093  2023-11-22 10:58:52.921328
1094  2023-11-22 10:58:52.953244
1095  2023-11-22 10:58:52.985198
1096  2023-11-22 10:58:53.017106
1097  2023-11-22 10:58:53.049985
1098  2023-11-22 10:58:53.081928
1099  2023-11-22 10:58:53.113871
1100  2023-11-22 10:58:53.145766
1101  2023-11-22 10:58:53.177787
1102  2023-11-22 10:58:53.209659
1103  2023-11-22 10:58:53.241604
1104  2023-11-22 10:58:53.273522
1105  2023-11-22 10:58:53.321358
1106  2023-11-22 10:58:53.353306
1107  2023-11-22 10:58:53.386219
1108  2023-11-22 10:58:53.418128
1109  2023-11-22 10:58:53.450049
1110  2023-11-22 10:58:53.481960
1111  2023-11-22 10:58:53.513875
1112  2023-11-22 10:58:53.545790
1113  2023-11-22 10:58:53.577672
1114  2023-11-22 10:58:53.609618
1115  2023-11-22 10:58:53.641553
1116  2023-11-22 10:58:53.673474
1117  2023-11-22 10:58:53.721319
1118  2023-11-22 10:58:53.753243
1119  2023-11-22 10:58:53.785173
1120  2023-11-22 10:58:53.818060
1121  2023-11-22 10:58:53.849979
1122  2023-11-22 10:58:53.881859
1123  2023-11-22 10:58:53.913805
1124  2023-11-22 10:58:53.945719
1125  2023-11-22 10:58:53.977637
1126  2023-11-22 10:58:54.009551
1127  2023-11-22 10:58:54.041479
1128  2023-11-22 10:58:54.073377
1129  2023-11-22 10:58:54.121218
1130  2023-11-22 10:58:54.153165
1131  2023-11-22 10:58:54.185084
1132  2023-11-22 10:58:54.218005
1133  2023-11-22 10:58:54.249903
1134  2023-11-22 10:58:54.281789
1135  2023-11-22 10:58:54.313734
1136  2023-11-22 10:58:54.345649
1137  2023-11-22 10:58:54.377569
1138  2023-11-22 10:58:54.409489
1139  2023-11-22 10:58:54.441392
1140  2023-11-22 10:58:54.473306
1141  2023-11-22 10:58:54.521178
1142  2023-11-22 10:58:54.554092
1143  2023-11-22 10:58:54.585974
1144  2023-11-22 10:58:54.617925
1145  2023-11-22 10:58:54.649837
1146  2023-11-22 10:58:54.681717
1147  2023-11-22 10:58:54.713716
1148  2023-11-22 10:58:54.745744
1149  2023-11-22 10:58:54.777657
1150  2023-11-22 10:58:54.809570
1151  2023-11-22 10:58:54.841493
1152  2023-11-22 10:58:54.873398
1153  2023-11-22 10:58:54.921273
1154  2023-11-22 10:58:54.953188
1155  2023-11-22 10:58:54.986106
1156  2023-11-22 10:58:55.017016
1157  2023-11-22 10:58:55.049940
1158  2023-11-22 10:58:55.081845
1159  2023-11-22 10:58:55.113764
1160  2023-11-22 10:58:55.145689
1161  2023-11-22 10:58:55.177585
1162  2023-11-22 10:58:55.209501
1163  2023-11-22 10:58:55.241416
1164  2023-11-22 10:58:55.273332
1165  2023-11-22 10:58:55.321203
1166  2023-11-22 10:58:55.353117
1167  2023-11-22 10:58:55.386029
1168  2023-11-22 10:58:55.417962
1169  2023-11-22 10:58:55.449876
1170  2023-11-22 10:58:55.481773
1171  2023-11-22 10:58:55.513687
1172  2023-11-22 10:58:55.545620
1173  2023-11-22 10:58:55.577515
1174  2023-11-22 10:58:55.609437
1175  2023-11-22 10:58:55.641370
1176  2023-11-22 10:58:55.673258
1177  2023-11-22 10:58:55.721133
1178  2023-11-22 10:58:55.753047
1179  2023-11-22 10:58:55.785961
1180  2023-11-22 10:58:55.817871
1181  2023-11-22 10:58:55.849788
1182  2023-11-22 10:58:55.881703
1183  2023-11-22 10:58:55.913625
1184  2023-11-22 10:58:55.945551
1185  2023-11-22 10:58:55.977448
1186  2023-11-22 10:58:56.009372
1187  2023-11-22 10:58:56.041276
1188  2023-11-22 10:58:56.073187
1189  2023-11-22 10:58:56.121064
1190  2023-11-22 10:58:56.152981
1191  2023-11-22 10:58:56.185889
1192  2023-11-22 10:58:56.217771
1193  2023-11-22 10:58:56.249717
1194  2023-11-22 10:58:56.281634
1195  2023-11-22 10:58:56.313565
1196  2023-11-22 10:58:56.345477
1197  2023-11-22 10:58:56.377380
1198  2023-11-22 10:58:56.409289
1199  2023-11-22 10:58:56.441206
1200  2023-11-22 10:58:56.473119
1201  2023-11-22 10:58:56.520993
1202  2023-11-22 10:58:56.553875
1203  2023-11-22 10:58:56.585816
1204  2023-11-22 10:58:56.617732
1205  2023-11-22 10:58:56.649646
1206  2023-11-22 10:58:56.681559
1207  2023-11-22 10:58:56.713503
1208  2023-11-22 10:58:56.745397
1209  2023-11-22 10:58:56.777302
1210  2023-11-22 10:58:56.809223
1211  2023-11-22 10:58:56.841137
1212  2023-11-22 10:58:56.873051
1213  2023-11-22 10:58:56.921933
1214  2023-11-22 10:58:56.953834
1215  2023-11-22 10:58:56.985749
1216  2023-11-22 10:58:57.017662
1217  2023-11-22 10:58:57.049581
1218  2023-11-22 10:58:57.081601
1219  2023-11-22 10:58:57.113515
1220  2023-11-22 10:58:57.145429
1221  2023-11-22 10:58:57.177358
1222  2023-11-22 10:58:57.209261
1223  2023-11-22 10:58:57.241176
1224  2023-11-22 10:58:57.273090
1225  2023-11-22 10:58:57.321960
1226  2023-11-22 10:58:57.353874
1227  2023-11-22 10:58:57.385789
1228  2023-11-22 10:58:57.417706
1229  2023-11-22 10:58:57.449617
1230  2023-11-22 10:58:57.481537
1231  2023-11-22 10:58:57.513447
1232  2023-11-22 10:58:57.545360
1233  2023-11-22 10:58:57.577285
1234  2023-11-22 10:58:57.609191
1235  2023-11-22 10:58:57.642071
1236  2023-11-22 10:58:57.673993
1237  2023-11-22 10:58:57.721870
1238  2023-11-22 10:58:57.753810
1239  2023-11-22 10:58:57.785825
1240  2023-11-22 10:58:57.817736
1241  2023-11-22 10:58:57.849654
1242  2023-11-22 10:58:57.881567
1243  2023-11-22 10:58:57.913480
1244  2023-11-22 10:58:57.945411
1245  2023-11-22 10:58:57.977401
1246  2023-11-22 10:58:58.009318
1247  2023-11-22 10:58:58.042230
1248  2023-11-22 10:58:58.073146
1249  2023-11-22 10:58:58.122019
1250  2023-11-22 10:58:58.153939
1251  2023-11-22 10:58:58.185844
1252  2023-11-22 10:58:58.217768
1253  2023-11-22 10:58:58.249672
1254  2023-11-22 10:58:58.281558
1255  2023-11-22 10:58:58.313507
1256  2023-11-22 10:58:58.345419
1257  2023-11-22 10:58:58.377346
1258  2023-11-22 10:58:58.409245
1259  2023-11-22 10:58:58.441162
1260  2023-11-22 10:58:58.473077
1261  2023-11-22 10:58:58.521947
1262  2023-11-22 10:58:58.553859
1263  2023-11-22 10:58:58.585775
1264  2023-11-22 10:58:58.617689
1265  2023-11-22 10:58:58.649601
1266  2023-11-22 10:58:58.681516
1267  2023-11-22 10:58:58.713430
1268  2023-11-22 10:58:58.745351
1269  2023-11-22 10:58:58.777264
1270  2023-11-22 10:58:58.809178
1271  2023-11-22 10:58:58.841092
1272  2023-11-22 10:58:58.874007
1273  2023-11-22 10:58:58.921875
1274  2023-11-22 10:58:58.953788
1275  2023-11-22 10:58:58.985702
1276  2023-11-22 10:58:59.017620
1277  2023-11-22 10:58:59.049539
1278  2023-11-22 10:58:59.081464
1279  2023-11-22 10:58:59.113361
1280  2023-11-22 10:58:59.145274
1281  2023-11-22 10:58:59.178196
1282  2023-11-22 10:58:59.210115
1283  2023-11-22 10:58:59.241022
1284  2023-11-22 10:58:59.273942
1285  2023-11-22 10:58:59.321804
1286  2023-11-22 10:58:59.353718
1287  2023-11-22 10:58:59.385635
1288  2023-11-22 10:58:59.417546
1289  2023-11-22 10:58:59.449467
1290  2023-11-22 10:58:59.481428
1291  2023-11-22 10:58:59.513393
1292  2023-11-22 10:58:59.545307
1293  2023-11-22 10:58:59.577222
1294  2023-11-22 10:58:59.609134
1295  2023-11-22 10:58:59.641059
1296  2023-11-22 10:58:59.672966
1297  2023-11-22 10:58:59.721838
1298  2023-11-22 10:58:59.753751
1299  2023-11-22 10:58:59.785666
1300  2023-11-22 10:58:59.817683
1301  2023-11-22 10:58:59.849598
1302  2023-11-22 10:58:59.881549
1303  2023-11-22 10:58:59.913440
1304  2023-11-22 10:58:59.945351
1305  2023-11-22 10:58:59.977257
1306  2023-11-22 10:59:00.009170
1307  2023-11-22 10:59:00.041100
1308  2023-11-22 10:59:00.073000
1309  2023-11-22 10:59:00.105916
1310  2023-11-22 10:59:00.153783
1311  2023-11-22 10:59:00.185696
1312  2023-11-22 10:59:00.217645
1313  2023-11-22 10:59:00.249631
1314  2023-11-22 10:59:00.281544
1315  2023-11-22 10:59:00.313458
1316  2023-11-22 10:59:00.345373
1317  2023-11-22 10:59:00.377300
1318  2023-11-22 10:59:00.409253
1319  2023-11-22 10:59:00.441219
1320  2023-11-22 10:59:00.473131
1321  2023-11-22 10:59:00.506049
1322  2023-11-22 10:59:00.553918
1323  2023-11-22 10:59:00.585832
1324  2023-11-22 10:59:00.617745
1325  2023-11-22 10:59:00.649662
1326  2023-11-22 10:59:00.681575
1327  2023-11-22 10:59:00.713500
1328  2023-11-22 10:59:00.745416
1329  2023-11-22 10:59:00.777328
1330  2023-11-22 10:59:00.809287
1331  2023-11-22 10:59:00.842234
1332  2023-11-22 10:59:00.873151
1333  2023-11-22 10:59:00.905066
1334  2023-11-22 10:59:00.953940
1335  2023-11-22 10:59:00.985865
1336  2023-11-22 10:59:01.017766
1337  2023-11-22 10:59:01.049676
1338  2023-11-22 10:59:01.081599
1339  2023-11-22 10:59:01.113509
1340  2023-11-22 10:59:01.145424
1341  2023-11-22 10:59:01.177337
1342  2023-11-22 10:59:01.209251
1343  2023-11-22 10:59:01.242130
1344  2023-11-22 10:59:01.274046
1345  2023-11-22 10:59:01.306007
1346  2023-11-22 10:59:01.353879
1347  2023-11-22 10:59:01.385784
1348  2023-11-22 10:59:01.417691
1349  2023-11-22 10:59:01.449608
1350  2023-11-22 10:59:01.481520
1351  2023-11-22 10:59:01.513457
1352  2023-11-22 10:59:01.545351
1353  2023-11-22 10:59:01.577265
1354  2023-11-22 10:59:01.609182
1355  2023-11-22 10:59:01.641106
1356  2023-11-22 10:59:01.673012
1357  2023-11-22 10:59:01.705889
1358  2023-11-22 10:59:01.753887
1359  2023-11-22 10:59:01.785804
1360  2023-11-22 10:59:01.817802
1361  2023-11-22 10:59:01.849720
1362  2023-11-22 10:59:01.881594
1363  2023-11-22 10:59:01.913546
1364  2023-11-22 10:59:01.945457
1365  2023-11-22 10:59:01.977388
1366  2023-11-22 10:59:02.009286
1367  2023-11-22 10:59:02.041201
1368  2023-11-22 10:59:02.073115
1369  2023-11-22 10:59:02.105993
1370  2023-11-22 10:59:02.153923
1371  2023-11-22 10:59:02.185820
1372  2023-11-22 10:59:02.217727
1373  2023-11-22 10:59:02.249642
1374  2023-11-22 10:59:02.281573
1375  2023-11-22 10:59:02.313477
1376  2023-11-22 10:59:02.345391
1377  2023-11-22 10:59:02.377307
1378  2023-11-22 10:59:02.409222
1379  2023-11-22 10:59:02.442094
1380  2023-11-22 10:59:02.474048
1381  2023-11-22 10:59:02.505924
1382  2023-11-22 10:59:02.553796
1383  2023-11-22 10:59:02.585709
1384  2023-11-22 10:59:02.617663
1385  2023-11-22 10:59:02.649573
1386  2023-11-22 10:59:02.681454
1387  2023-11-22 10:59:02.713374
1388  2023-11-22 10:59:02.745316
1389  2023-11-22 10:59:02.777239
1390  2023-11-22 10:59:02.809149
1391  2023-11-22 10:59:02.842059
1392  2023-11-22 10:59:02.873937
1393  2023-11-22 10:59:02.905852
1394  2023-11-22 10:59:02.953763
1395  2023-11-22 10:59:02.985679
1396  2023-11-22 10:59:03.017591
1397  2023-11-22 10:59:03.049511
1398  2023-11-22 10:59:03.081418
1399  2023-11-22 10:59:03.113340
1400  2023-11-22 10:59:03.145250
1401  2023-11-22 10:59:03.177169
1402  2023-11-22 10:59:03.209084
1403  2023-11-22 10:59:03.241955
1404  2023-11-22 10:59:03.273867
1405  2023-11-22 10:59:03.305782
1406  2023-11-22 10:59:03.353693
1407  2023-11-22 10:59:03.385609
1408  2023-11-22 10:59:03.417516
1409  2023-11-22 10:59:03.449443
1410  2023-11-22 10:59:03.481351
1411  2023-11-22 10:59:03.513262
1412  2023-11-22 10:59:03.546172
1413  2023-11-22 10:59:03.578100
1414  2023-11-22 10:59:03.609004
1415  2023-11-22 10:59:03.641943
1416  2023-11-22 10:59:03.673797
1417  2023-11-22 10:59:03.705711
1418  2023-11-22 10:59:03.753584
1419  2023-11-22 10:59:03.785538
1420  2023-11-22 10:59:03.817458
1421  2023-11-22 10:59:03.849367
1422  2023-11-22 10:59:03.882242
1423  2023-11-22 10:59:03.913157
1424  2023-11-22 10:59:03.945118
1425  2023-11-22 10:59:03.977026
1426  2023-11-22 10:59:04.009942
1427  2023-11-22 10:59:04.041843
1428  2023-11-22 10:59:04.073726
1429  2023-11-22 10:59:04.105641
1430  2023-11-22 10:59:04.153553
1431  2023-11-22 10:59:04.185462
1432  2023-11-22 10:59:04.217390
1433  2023-11-22 10:59:04.249290
1434  2023-11-22 10:59:04.281206
1435  2023-11-22 10:59:04.313128
1436  2023-11-22 10:59:04.346035
1437  2023-11-22 10:59:04.377952
1438  2023-11-22 10:59:04.409862
1439  2023-11-22 10:59:04.441742
1440  2023-11-22 10:59:04.473690
1441  2023-11-22 10:59:04.505614
1442  2023-11-22 10:59:04.553476
1443  2023-11-22 10:59:04.585397
1444  2023-11-22 10:59:04.617317
1445  2023-11-22 10:59:04.649232
1446  2023-11-22 10:59:04.681140
1447  2023-11-22 10:59:04.713059
1448  2023-11-22 10:59:04.744976
1449  2023-11-22 10:59:04.777874
1450  2023-11-22 10:59:04.809791
1451  2023-11-22 10:59:04.841671
1452  2023-11-22 10:59:04.873586
1453  2023-11-22 10:59:04.905500
1454  2023-11-22 10:59:04.953405
1455  2023-11-22 10:59:04.985336
1456  2023-11-22 10:59:05.017232
1457  2023-11-22 10:59:05.049156
1458  2023-11-22 10:59:05.082028
1459  2023-11-22 10:59:05.113955
1460  2023-11-22 10:59:05.145897
1461  2023-11-22 10:59:05.177811
1462  2023-11-22 10:59:05.209721
1463  2023-11-22 10:59:05.241601
1464  2023-11-22 10:59:05.273629
1465  2023-11-22 10:59:05.305612
1466  2023-11-22 10:59:05.353521
1467  2023-11-22 10:59:05.385430
1468  2023-11-22 10:59:05.417353
1469  2023-11-22 10:59:05.449272
1470  2023-11-22 10:59:05.481324
1471  2023-11-22 10:59:05.513331
1472  2023-11-22 10:59:05.545229
1473  2023-11-22 10:59:05.578107
1474  2023-11-22 10:59:05.609059
1475  2023-11-22 10:59:05.641936
1476  2023-11-22 10:59:05.673851
1477  2023-11-22 10:59:05.705765
1478  2023-11-22 10:59:05.753637
1479  2023-11-22 10:59:05.785552
1480  2023-11-22 10:59:05.817504
1481  2023-11-22 10:59:05.849422
1482  2023-11-22 10:59:05.881347
1483  2023-11-22 10:59:05.913250
1484  2023-11-22 10:59:05.945179
1485  2023-11-22 10:59:05.977075
1486  2023-11-22 10:59:06.009952
1487  2023-11-22 10:59:06.041866
1488  2023-11-22 10:59:06.073781
1489  2023-11-22 10:59:06.105695
1490  2023-11-22 10:59:06.153612
1491  2023-11-22 10:59:06.185513
1492  2023-11-22 10:59:06.217409
1493  2023-11-22 10:59:06.249353
1494  2023-11-22 10:59:06.281264
1495  2023-11-22 10:59:06.313178
1496  2023-11-22 10:59:06.345095
1497  2023-11-22 10:59:06.377967
1498  2023-11-22 10:59:06.409881
1499  2023-11-22 10:59:06.441795
1500  2023-11-22 10:59:06.473742
1501  2023-11-22 10:59:06.505625
1502  2023-11-22 10:59:06.553531
1503  2023-11-22 10:59:06.585450
1504  2023-11-22 10:59:06.617369
1505  2023-11-22 10:59:06.649277
1506  2023-11-22 10:59:06.681201
1507  2023-11-22 10:59:06.713220
1508  2023-11-22 10:59:06.745170
1509  2023-11-22 10:59:06.777091
1510  2023-11-22 10:59:06.810003
1511  2023-11-22 10:59:06.841877
1512  2023-11-22 10:59:06.873792
1513  2023-11-22 10:59:06.905706
1514  2023-11-22 10:59:06.953613
1515  2023-11-22 10:59:06.985534
1516  2023-11-22 10:59:07.017456
1517  2023-11-22 10:59:07.049364
1518  2023-11-22 10:59:07.081272
1519  2023-11-22 10:59:07.113187
1520  2023-11-22 10:59:07.145093
1521  2023-11-22 10:59:07.178016
1522  2023-11-22 10:59:07.209050
1523  2023-11-22 10:59:07.241924
1524  2023-11-22 10:59:07.273839
1525  2023-11-22 10:59:07.305754
1526  2023-11-22 10:59:07.353667
1527  2023-11-22 10:59:07.385582
1528  2023-11-22 10:59:07.417490
1529  2023-11-22 10:59:07.449403
1530  2023-11-22 10:59:07.481369
1531  2023-11-22 10:59:07.513382
1532  2023-11-22 10:59:07.545298
1533  2023-11-22 10:59:07.577299
1534  2023-11-22 10:59:07.609200
1535  2023-11-22 10:59:07.641077
1536  2023-11-22 10:59:07.674036
1537  2023-11-22 10:59:07.705903
1538  2023-11-22 10:59:07.753810
1539  2023-11-22 10:59:07.785725
1540  2023-11-22 10:59:07.817639
1541  2023-11-22 10:59:07.849559
1542  2023-11-22 10:59:07.881470
1543  2023-11-22 10:59:07.913380
1544  2023-11-22 10:59:07.945301
1545  2023-11-22 10:59:07.977207
1546  2023-11-22 10:59:08.009131
1547  2023-11-22 10:59:08.042004
1548  2023-11-22 10:59:08.073918
1549  2023-11-22 10:59:08.105833
1550  2023-11-22 10:59:08.153705
1551  2023-11-22 10:59:08.185653
1552  2023-11-22 10:59:08.217587
1553  2023-11-22 10:59:08.249488
1554  2023-11-22 10:59:08.281363
1555  2023-11-22 10:59:08.313328
1556  2023-11-22 10:59:08.345228
1557  2023-11-22 10:59:08.377138
1558  2023-11-22 10:59:08.410019
1559  2023-11-22 10:59:08.441933
1560  2023-11-22 10:59:08.473848
1561  2023-11-22 10:59:08.505762
1562  2023-11-22 10:59:08.553676
1563  2023-11-22 10:59:08.585581
1564  2023-11-22 10:59:08.617496
1565  2023-11-22 10:59:08.649414
1566  2023-11-22 10:59:08.681357
1567  2023-11-22 10:59:08.713238
1568  2023-11-22 10:59:08.745153
1569  2023-11-22 10:59:08.777067
1570  2023-11-22 10:59:08.809948
1571  2023-11-22 10:59:08.841863
1572  2023-11-22 10:59:08.873777
1573  2023-11-22 10:59:08.905692
1574  2023-11-22 10:59:08.953601
1575  2023-11-22 10:59:08.985518
1576  2023-11-22 10:59:09.017425
1577  2023-11-22 10:59:09.049361
1578  2023-11-22 10:59:09.082221
1579  2023-11-22 10:59:09.113171
1580  2023-11-22 10:59:09.146049
1581  2023-11-22 10:59:09.178054
1582  2023-11-22 10:59:09.210064
1583  2023-11-22 10:59:09.241985
1584  2023-11-22 10:59:09.273890
1585  2023-11-22 10:59:09.305849
1586  2023-11-22 10:59:09.353676
1587  2023-11-22 10:59:09.385623
1588  2023-11-22 10:59:09.417552
1589  2023-11-22 10:59:09.449463
1590  2023-11-22 10:59:09.481368
1591  2023-11-22 10:59:09.513316
1592  2023-11-22 10:59:09.545197
1593  2023-11-22 10:59:09.577515
1594  2023-11-22 10:59:09.609496
1595  2023-11-22 10:59:09.641472
1596  2023-11-22 10:59:09.673388
1597  2023-11-22 10:59:09.705260
1598  2023-11-22 10:59:09.753172
1599  2023-11-22 10:59:09.786044
1600  2023-11-22 10:59:09.817959
1601  2023-11-22 10:59:09.849968
1602  2023-11-22 10:59:09.881788
1603  2023-11-22 10:59:09.913704
1604  2023-11-22 10:59:09.945617
1605  2023-11-22 10:59:09.977566
1606  2023-11-22 10:59:10.009446
1607  2023-11-22 10:59:10.041361
1608  2023-11-22 10:59:10.073275
1609  2023-11-22 10:59:10.105190
1610  2023-11-22 10:59:10.154059
1611  2023-11-22 10:59:10.186006
1612  2023-11-22 10:59:10.217888
1613  2023-11-22 10:59:10.249803
1614  2023-11-22 10:59:10.281718
1615  2023-11-22 10:59:10.313686
1616  2023-11-22 10:59:10.345588
1617  2023-11-22 10:59:10.377461
1618  2023-11-22 10:59:10.409376
1619  2023-11-22 10:59:10.441290
1620  2023-11-22 10:59:10.473205
1621  2023-11-22 10:59:10.505119
1622  2023-11-22 10:59:10.553989
1623  2023-11-22 10:59:10.584977
1624  2023-11-22 10:59:10.617888
1625  2023-11-22 10:59:10.648993
1626  2023-11-22 10:59:10.681874
1627  2023-11-22 10:59:10.713878
1628  2023-11-22 10:59:10.745827
1629  2023-11-22 10:59:10.777749
1630  2023-11-22 10:59:10.809621
1631  2023-11-22 10:59:10.842568
1632  2023-11-22 10:59:10.874482
1633  2023-11-22 10:59:10.906363
1634  2023-11-22 10:59:10.954277
1635  2023-11-22 10:59:10.985182
1636  2023-11-22 10:59:11.018097
1637  2023-11-22 10:59:11.050014
1638  2023-11-22 10:59:11.081896
1639  2023-11-22 10:59:11.113807
1640  2023-11-22 10:59:11.145757
1641  2023-11-22 10:59:11.178670
1642  2023-11-22 10:59:11.210602
1643  2023-11-22 10:59:11.242517
1644  2023-11-22 10:59:11.274412
1645  2023-11-22 10:59:11.306329
1646  2023-11-22 10:59:11.354198
1647  2023-11-22 10:59:11.386110
1648  2023-11-22 10:59:11.418029
1649  2023-11-22 10:59:11.449956
1650  2023-11-22 10:59:11.481859
1651  2023-11-22 10:59:11.513738
1652  2023-11-22 10:59:11.545653
1653  2023-11-22 10:59:11.577570
1654  2023-11-22 10:59:11.609480
1655  2023-11-22 10:59:11.641452
1656  2023-11-22 10:59:11.674335
1657  2023-11-22 10:59:11.705224
1658  2023-11-22 10:59:11.754121
1659  2023-11-22 10:59:11.786047
1660  2023-11-22 10:59:11.817962
1661  2023-11-22 10:59:11.849967
1662  2023-11-22 10:59:11.881848
1663  2023-11-22 10:59:11.913795
1664  2023-11-22 10:59:11.945677
1665  2023-11-22 10:59:11.977625
1666  2023-11-22 10:59:12.009536
1667  2023-11-22 10:59:12.041463
1668  2023-11-22 10:59:12.073381
1669  2023-11-22 10:59:12.105281
1670  2023-11-22 10:59:12.153168
1671  2023-11-22 10:59:12.185077
1672  2023-11-22 10:59:12.217997
1673  2023-11-22 10:59:12.249893
1674  2023-11-22 10:59:12.281813
1675  2023-11-22 10:59:12.313728
1676  2023-11-22 10:59:12.345643
1677  2023-11-22 10:59:12.378551
1678  2023-11-22 10:59:12.410472
1679  2023-11-22 10:59:12.441401
1680  2023-11-22 10:59:12.473313
1681  2023-11-22 10:59:12.505210
1682  2023-11-22 10:59:12.554049
1683  2023-11-22 10:59:12.584995
1684  2023-11-22 10:59:12.617910
1685  2023-11-22 10:59:12.649830
1686  2023-11-22 10:59:12.681737
1687  2023-11-22 10:59:12.713762
1688  2023-11-22 10:59:12.745675
1689  2023-11-22 10:59:12.777590
1690  2023-11-22 10:59:12.809504
1691  2023-11-22 10:59:12.841419
1692  2023-11-22 10:59:12.873405
1693  2023-11-22 10:59:12.905320
1694  2023-11-22 10:59:12.953242
1695  2023-11-22 10:59:12.985155
1696  2023-11-22 10:59:13.018057
1697  2023-11-22 10:59:13.049966
1698  2023-11-22 10:59:13.081850
1699  2023-11-22 10:59:13.113792
1700  2023-11-22 10:59:13.145707
1701  2023-11-22 10:59:13.177626
1702  2023-11-22 10:59:13.209536
1703  2023-11-22 10:59:13.241457
1704  2023-11-22 10:59:13.273366
1705  2023-11-22 10:59:13.305286
1706  2023-11-22 10:59:13.353154
1707  2023-11-22 10:59:13.385070
1708  2023-11-22 10:59:13.416951
1709  2023-11-22 10:59:13.449914
1710  2023-11-22 10:59:13.481818
1711  2023-11-22 10:59:13.513734
1712  2023-11-22 10:59:13.545637
1713  2023-11-22 10:59:13.577555
1714  2023-11-22 10:59:13.609466
1715  2023-11-22 10:59:13.641404
1716  2023-11-22 10:59:13.673264
1717  2023-11-22 10:59:13.705179
1718  2023-11-22 10:59:13.753085
1719  2023-11-22 10:59:13.785997
1720  2023-11-22 10:59:13.817878
1721  2023-11-22 10:59:13.849824
1722  2023-11-22 10:59:13.881743
1723  2023-11-22 10:59:13.913652
1724  2023-11-22 10:59:13.945569
1725  2023-11-22 10:59:13.977507
1726  2023-11-22 10:59:14.009405
1727  2023-11-22 10:59:14.042278
1728  2023-11-22 10:59:14.073194
1729  2023-11-22 10:59:14.105143
1730  2023-11-22 10:59:14.153048
1731  2023-11-22 10:59:14.185028
1732  2023-11-22 10:59:14.217943
1733  2023-11-22 10:59:14.249861
1734  2023-11-22 10:59:14.281738
1735  2023-11-22 10:59:14.313695
1736  2023-11-22 10:59:14.345596
1737  2023-11-22 10:59:14.377513
1738  2023-11-22 10:59:14.409426
1739  2023-11-22 10:59:14.441341
1740  2023-11-22 10:59:14.473262
1741  2023-11-22 10:59:14.505176
1742  2023-11-22 10:59:14.553048
1743  2023-11-22 10:59:14.584958
1744  2023-11-22 10:59:14.617894
1745  2023-11-22 10:59:14.649788
1746  2023-11-22 10:59:14.681699
1747  2023-11-22 10:59:14.713617
1748  2023-11-22 10:59:14.745568
1749  2023-11-22 10:59:14.777462
1750  2023-11-22 10:59:14.809355
1751  2023-11-22 10:59:14.841273
1752  2023-11-22 10:59:14.873186
1753  2023-11-22 10:59:14.905105
1754  2023-11-22 10:59:14.952974
1755  2023-11-22 10:59:14.985884
1756  2023-11-22 10:59:15.017800
1757  2023-11-22 10:59:15.049683
1758  2023-11-22 10:59:15.081633
1759  2023-11-22 10:59:15.113537
1760  2023-11-22 10:59:15.145461
1761  2023-11-22 10:59:15.177344
1762  2023-11-22 10:59:15.209303
1763  2023-11-22 10:59:15.241204
1764  2023-11-22 10:59:15.273136
1765  2023-11-22 10:59:15.306031
1766  2023-11-22 10:59:15.353908
1767  2023-11-22 10:59:15.385821
1768  2023-11-22 10:59:15.417725
1769  2023-11-22 10:59:15.449643
1770  2023-11-22 10:59:15.481568
1771  2023-11-22 10:59:15.513467
1772  2023-11-22 10:59:15.545389
1773  2023-11-22 10:59:15.577322
1774  2023-11-22 10:59:15.609217
1775  2023-11-22 10:59:15.641133
1776  2023-11-22 10:59:15.673044
1777  2023-11-22 10:59:15.705925
1778  2023-11-22 10:59:15.753828
1779  2023-11-22 10:59:15.785750
1780  2023-11-22 10:59:15.817661
1781  2023-11-22 10:59:15.849575
1782  2023-11-22 10:59:15.881496
1783  2023-11-22 10:59:15.914418
1784  2023-11-22 10:59:15.945289
1785  2023-11-22 10:59:15.977231
1786  2023-11-22 10:59:16.010142
1787  2023-11-22 10:59:16.041063
1788  2023-11-22 10:59:16.073987
1789  2023-11-22 10:59:16.105888
1790  2023-11-22 10:59:16.153760
1791  2023-11-22 10:59:16.185673
1792  2023-11-22 10:59:16.217588
1793  2023-11-22 10:59:16.250469
1794  2023-11-22 10:59:16.281414
1795  2023-11-22 10:59:16.313333
1796  2023-11-22 10:59:16.346212
1797  2023-11-22 10:59:16.378128
1798  2023-11-22 10:59:16.409078
1799  2023-11-22 10:59:16.441994
1800  2023-11-22 10:59:16.473907
1801  2023-11-22 10:59:16.505785
1802  2023-11-22 10:59:16.553700
1803  2023-11-22 10:59:16.585720
1804  2023-11-22 10:59:16.617624
1805  2023-11-22 10:59:16.649560
1806  2023-11-22 10:59:16.681456
1807  2023-11-22 10:59:16.714370
1808  2023-11-22 10:59:16.745250
1809  2023-11-22 10:59:16.777164
1810  2023-11-22 10:59:16.809081
1811  2023-11-22 10:59:16.842027
1812  2023-11-22 10:59:16.873945
1813  2023-11-22 10:59:16.905820
1814  2023-11-22 10:59:16.953732
1815  2023-11-22 10:59:16.985677
1816  2023-11-22 10:59:17.017589
1817  2023-11-22 10:59:17.049614
1818  2023-11-22 10:59:17.081500
1819  2023-11-22 10:59:17.113443
1820  2023-11-22 10:59:17.145332
1821  2023-11-22 10:59:17.177252
1822  2023-11-22 10:59:17.209158
1823  2023-11-22 10:59:17.241076
1824  2023-11-22 10:59:17.273988
1825  2023-11-22 10:59:17.305925
1826  2023-11-22 10:59:17.353773
1827  2023-11-22 10:59:17.385684
1828  2023-11-22 10:59:17.417603
1829  2023-11-22 10:59:17.449515
1830  2023-11-22 10:59:17.481432
1831  2023-11-22 10:59:17.513345
1832  2023-11-22 10:59:17.545263
1833  2023-11-22 10:59:17.577172
1834  2023-11-22 10:59:17.609090
1835  2023-11-22 10:59:17.641000
1836  2023-11-22 10:59:17.673930
1837  2023-11-22 10:59:17.705831
1838  2023-11-22 10:59:17.753701
1839  2023-11-22 10:59:17.785624
1840  2023-11-22 10:59:17.817646
1841  2023-11-22 10:59:17.849448
1842  2023-11-22 10:59:17.881362
1843  2023-11-22 10:59:17.913286
1844  2023-11-22 10:59:17.945189
1845  2023-11-22 10:59:17.977104
1846  2023-11-22 10:59:18.009988
1847  2023-11-22 10:59:18.041909
1848  2023-11-22 10:59:18.073849
1849  2023-11-22 10:59:18.105757
1850  2023-11-22 10:59:18.153683
1851  2023-11-22 10:59:18.185652
1852  2023-11-22 10:59:18.217636
1853  2023-11-22 10:59:18.249581
1854  2023-11-22 10:59:18.281496
1855  2023-11-22 10:59:18.313412
1856  2023-11-22 10:59:18.345294
1857  2023-11-22 10:59:18.377242
1858  2023-11-22 10:59:18.409122
1859  2023-11-22 10:59:18.441070
1860  2023-11-22 10:59:18.472992
1861  2023-11-22 10:59:18.505915
1862  2023-11-22 10:59:18.553772
1863  2023-11-22 10:59:18.585835
1864  2023-11-22 10:59:18.617792
1865  2023-11-22 10:59:18.649696
1866  2023-11-22 10:59:18.681577
1867  2023-11-22 10:59:18.713526
1868  2023-11-22 10:59:18.745447
1869  2023-11-22 10:59:18.777352
1870  2023-11-22 10:59:18.809278
1871  2023-11-22 10:59:18.841184
1872  2023-11-22 10:59:18.873098
1873  2023-11-22 10:59:18.905010
1874  2023-11-22 10:59:18.952891
1875  2023-11-22 10:59:18.985824
1876  2023-11-22 10:59:19.017710
1877  2023-11-22 10:59:19.049625
1878  2023-11-22 10:59:19.081541
1879  2023-11-22 10:59:19.113452
1880  2023-11-22 10:59:19.145371
1881  2023-11-22 10:59:19.177338
1882  2023-11-22 10:59:19.209253
1883  2023-11-22 10:59:19.241166
1884  2023-11-22 10:59:19.273122
1885  2023-11-22 10:59:19.305038
1886  2023-11-22 10:59:19.352912
1887  2023-11-22 10:59:19.385830
1888  2023-11-22 10:59:19.417749
1889  2023-11-22 10:59:19.449660
1890  2023-11-22 10:59:19.481567
1891  2023-11-22 10:59:19.513475
1892  2023-11-22 10:59:19.545402
1893  2023-11-22 10:59:19.577309
1894  2023-11-22 10:59:19.609225
1895  2023-11-22 10:59:19.641142
1896  2023-11-22 10:59:19.674056
1897  2023-11-22 10:59:19.704976
1898  2023-11-22 10:59:19.753861
1899  2023-11-22 10:59:19.785759
1900  2023-11-22 10:59:19.817667
1901  2023-11-22 10:59:19.849584
1902  2023-11-22 10:59:19.881505
1903  2023-11-22 10:59:19.913419
1904  2023-11-22 10:59:19.945324
1905  2023-11-22 10:59:19.977237
1906  2023-11-22 10:59:20.009155
1907  2023-11-22 10:59:20.042034
1908  2023-11-22 10:59:20.073981
1909  2023-11-22 10:59:20.105912
1910  2023-11-22 10:59:20.153785
1911  2023-11-22 10:59:20.185772
1912  2023-11-22 10:59:20.217681
1913  2023-11-22 10:59:20.249595
1914  2023-11-22 10:59:20.281510
1915  2023-11-22 10:59:20.313423
1916  2023-11-22 10:59:20.345337
1917  2023-11-22 10:59:20.377257
1918  2023-11-22 10:59:20.409135
1919  2023-11-22 10:59:20.442046
1920  2023-11-22 10:59:20.473995
1921  2023-11-22 10:59:20.505922
1922  2023-11-22 10:59:20.553782
1923  2023-11-22 10:59:20.585696
1924  2023-11-22 10:59:20.617612
1925  2023-11-22 10:59:20.649514
1926  2023-11-22 10:59:20.681491
1927  2023-11-22 10:59:20.713419
1928  2023-11-22 10:59:20.745328
1929  2023-11-22 10:59:20.777241
1930  2023-11-22 10:59:20.809244
1931  2023-11-22 10:59:20.841158
1932  2023-11-22 10:59:20.873109
1933  2023-11-22 10:59:20.905023
1934  2023-11-22 10:59:20.953859
1935  2023-11-22 10:59:20.985803
1936  2023-11-22 10:59:21.017718
1937  2023-11-22 10:59:21.049632
1938  2023-11-22 10:59:21.081558
1939  2023-11-22 10:59:21.113515
1940  2023-11-22 10:59:21.145432
1941  2023-11-22 10:59:21.177378
1942  2023-11-22 10:59:21.210256
1943  2023-11-22 10:59:21.241174
1944  2023-11-22 10:59:21.273122
1945  2023-11-22 10:59:21.306005
1946  2023-11-22 10:59:21.352907
1947  2023-11-22 10:59:21.385787
1948  2023-11-22 10:59:21.417713
1949  2023-11-22 10:59:21.449647
1950  2023-11-22 10:59:21.481564
1951  2023-11-22 10:59:21.513452
1952  2023-11-22 10:59:21.545360
1953  2023-11-22 10:59:21.577274
1954  2023-11-22 10:59:21.609189
1955  2023-11-22 10:59:21.641103
1956  2023-11-22 10:59:21.674046
1957  2023-11-22 10:59:21.705930
1958  2023-11-22 10:59:21.753844
1959  2023-11-22 10:59:21.785748
1960  2023-11-22 10:59:21.817665
1961  2023-11-22 10:59:21.849583
1962  2023-11-22 10:59:21.881491
1963  2023-11-22 10:59:21.913374
1964  2023-11-22 10:59:21.945289
1965  2023-11-22 10:59:21.977258
1966  2023-11-22 10:59:22.009150
1967  2023-11-22 10:59:22.041033
1968  2023-11-22 10:59:22.072947
1969  2023-11-22 10:59:22.105859
1970  2023-11-22 10:59:22.153762
1971  2023-11-22 10:59:22.185680
1972  2023-11-22 10:59:22.217592
1973  2023-11-22 10:59:22.249508
1974  2023-11-22 10:59:22.281441
1975  2023-11-22 10:59:22.313335
1976  2023-11-22 10:59:22.345276
1977  2023-11-22 10:59:22.377133
1978  2023-11-22 10:59:22.410045
1979  2023-11-22 10:59:22.441960
1980  2023-11-22 10:59:22.473875
1981  2023-11-22 10:59:22.505789
1982  2023-11-22 10:59:22.553698
1983  2023-11-22 10:59:22.585608
1984  2023-11-22 10:59:22.617529
1985  2023-11-22 10:59:22.649441
1986  2023-11-22 10:59:22.681355
1987  2023-11-22 10:59:22.713234
1988  2023-11-22 10:59:22.745241
1989  2023-11-22 10:59:22.777236
1990  2023-11-22 10:59:22.809150
1991  2023-11-22 10:59:22.841065
1992  2023-11-22 10:59:22.872979
1993  2023-11-22 10:59:22.905891
1994  2023-11-22 10:59:22.953816
1995  2023-11-22 10:59:22.985836
1996  2023-11-22 10:59:23.017733
1997  2023-11-22 10:59:23.049669
1998  2023-11-22 10:59:23.081612
1999  2023-11-22 10:59:23.113496
2000  2023-11-22 10:59:23.145444
2001  2023-11-22 10:59:23.177367
2002  2023-11-22 10:59:23.210311
2003  2023-11-22 10:59:23.241196
2004  2023-11-22 10:59:23.273110
2005  2023-11-22 10:59:23.306061
2006  2023-11-22 10:59:23.352929
2007  2023-11-22 10:59:23.385810
2008  2023-11-22 10:59:23.417756
2009  2023-11-22 10:59:23.449687
2010  2023-11-22 10:59:23.481552
2011  2023-11-22 10:59:23.513502
2012  2023-11-22 10:59:23.545395
2013  2023-11-22 10:59:23.577296
2014  2023-11-22 10:59:23.609300
2015  2023-11-22 10:59:23.641247
2016  2023-11-22 10:59:23.673160
2017  2023-11-22 10:59:23.705044
2018  2023-11-22 10:59:23.753913
2019  2023-11-22 10:59:23.785937
2020  2023-11-22 10:59:23.816923
2021  2023-11-22 10:59:23.849871
2022  2023-11-22 10:59:23.881830
2023  2023-11-22 10:59:23.913744
2024  2023-11-22 10:59:23.945659
2025  2023-11-22 10:59:23.977573
2026  2023-11-22 10:59:24.009488
2027  2023-11-22 10:59:24.041406
2028  2023-11-22 10:59:24.073317
2029  2023-11-22 10:59:24.105232
2030  2023-11-22 10:59:24.153156
2031  2023-11-22 10:59:24.185049
2032  2023-11-22 10:59:24.216990
2033  2023-11-22 10:59:24.248887
2034  2023-11-22 10:59:24.281759
2035  2023-11-22 10:59:24.313674
2036  2023-11-22 10:59:24.345588
2037  2023-11-22 10:59:24.377503
2038  2023-11-22 10:59:24.409418
2039  2023-11-22 10:59:24.441332
2040  2023-11-22 10:59:24.473247
2041  2023-11-22 10:59:24.505161
2042  2023-11-22 10:59:24.553069
2043  2023-11-22 10:59:24.584984
2044  2023-11-22 10:59:24.617913
2045  2023-11-22 10:59:24.649809
2046  2023-11-22 10:59:24.681691
2047  2023-11-22 10:59:24.713641
2048  2023-11-22 10:59:24.745518
2049  2023-11-22 10:59:24.777433
2050  2023-11-22 10:59:24.809384
2051  2023-11-22 10:59:24.841295
2052  2023-11-22 10:59:24.873176
2053  2023-11-22 10:59:24.905177
2054  2023-11-22 10:59:24.953117
2055  2023-11-22 10:59:24.985995
2056  2023-11-22 10:59:25.017943
2057  2023-11-22 10:59:25.049858
2058  2023-11-22 10:59:25.081739
2059  2023-11-22 10:59:25.113653
2060  2023-11-22 10:59:25.145576
2061  2023-11-22 10:59:25.177519
2062  2023-11-22 10:59:25.209397
2063  2023-11-22 10:59:25.241312
2064  2023-11-22 10:59:25.273272
2065  2023-11-22 10:59:25.305174
2066  2023-11-22 10:59:25.353050
2067  2023-11-22 10:59:25.385966
2068  2023-11-22 10:59:25.417876
2069  2023-11-22 10:59:25.449785
2070  2023-11-22 10:59:25.481669
2071  2023-11-22 10:59:25.513583
2072  2023-11-22 10:59:25.545498
2073  2023-11-22 10:59:25.577412
2074  2023-11-22 10:59:25.609327
2075  2023-11-22 10:59:25.641313
2076  2023-11-22 10:59:25.673225
2077  2023-11-22 10:59:25.705140
2078  2023-11-22 10:59:25.753054
2079  2023-11-22 10:59:25.784963
2080  2023-11-22 10:59:25.817849
2081  2023-11-22 10:59:25.849793
2082  2023-11-22 10:59:25.881667
2083  2023-11-22 10:59:25.913582
2084  2023-11-22 10:59:25.945497
2085  2023-11-22 10:59:25.977580
2086  2023-11-22 10:59:26.009494
2087  2023-11-22 10:59:26.041409
2088  2023-11-22 10:59:26.073323
2089  2023-11-22 10:59:26.105238
2090  2023-11-22 10:59:26.153135
2091  2023-11-22 10:59:26.186057
2092  2023-11-22 10:59:26.217936
2093  2023-11-22 10:59:26.249851
2094  2023-11-22 10:59:26.281766
2095  2023-11-22 10:59:26.313680
2096  2023-11-22 10:59:26.345595
2097  2023-11-22 10:59:26.377509
2098  2023-11-22 10:59:26.409424
2099  2023-11-22 10:59:26.441338
2100  2023-11-22 10:59:26.473253
2101  2023-11-22 10:59:26.505168
2102  2023-11-22 10:59:26.554075
2103  2023-11-22 10:59:26.585984
2104  2023-11-22 10:59:26.617866
2105  2023-11-22 10:59:26.649820
2106  2023-11-22 10:59:26.681696
2107  2023-11-22 10:59:26.713613
2108  2023-11-22 10:59:26.745525
2109  2023-11-22 10:59:26.777440
2110  2023-11-22 10:59:26.809354
2111  2023-11-22 10:59:26.841270
2112  2023-11-22 10:59:26.873183
2113  2023-11-22 10:59:26.905103
2114  2023-11-22 10:59:26.953004
2115  2023-11-22 10:59:26.985881
2116  2023-11-22 10:59:27.017827
2117  2023-11-22 10:59:27.049754
2118  2023-11-22 10:59:27.081625
2119  2023-11-22 10:59:27.113539
2120  2023-11-22 10:59:27.145454
2121  2023-11-22 10:59:27.177412
2122  2023-11-22 10:59:27.209283
2123  2023-11-22 10:59:27.241198
2124  2023-11-22 10:59:27.273112
2125  2023-11-22 10:59:27.306055
2126  2023-11-22 10:59:27.353938
2127  2023-11-22 10:59:27.385848
2128  2023-11-22 10:59:27.417735
2129  2023-11-22 10:59:27.449640
2130  2023-11-22 10:59:27.481554
2131  2023-11-22 10:59:27.513469
2132  2023-11-22 10:59:27.545384
2133  2023-11-22 10:59:27.577298
2134  2023-11-22 10:59:27.609213
2135  2023-11-22 10:59:27.641127
2136  2023-11-22 10:59:27.673042
2137  2023-11-22 10:59:27.704961
2138  2023-11-22 10:59:27.753826
2139  2023-11-22 10:59:27.785741
2140  2023-11-22 10:59:27.817692
2141  2023-11-22 10:59:27.849569
2142  2023-11-22 10:59:27.881484
2143  2023-11-22 10:59:27.913399
2144  2023-11-22 10:59:27.945313
2145  2023-11-22 10:59:27.977228
2146  2023-11-22 10:59:28.010187
2147  2023-11-22 10:59:28.042091
2148  2023-11-22 10:59:28.073969
2149  2023-11-22 10:59:28.105884
2150  2023-11-22 10:59:28.153797
2151  2023-11-22 10:59:28.185702
2152  2023-11-22 10:59:28.217617
2153  2023-11-22 10:59:28.249499
2154  2023-11-22 10:59:28.281414
2155  2023-11-22 10:59:28.313328
2156  2023-11-22 10:59:28.345273
2157  2023-11-22 10:59:28.377157
2158  2023-11-22 10:59:28.409072
2159  2023-11-22 10:59:28.440987
2160  2023-11-22 10:59:28.472931
2161  2023-11-22 10:59:28.505813
2162  2023-11-22 10:59:28.553718
2163  2023-11-22 10:59:28.585633
2164  2023-11-22 10:59:28.617547
2165  2023-11-22 10:59:28.649429
2166  2023-11-22 10:59:28.681344
2167  2023-11-22 10:59:28.713258
2168  2023-11-22 10:59:28.745172
2169  2023-11-22 10:59:28.778084
2170  2023-11-22 10:59:28.809999
2171  2023-11-22 10:59:28.841914
2172  2023-11-22 10:59:28.873889
2173  2023-11-22 10:59:28.905868
2174  2023-11-22 10:59:28.953754
2175  2023-11-22 10:59:28.985735
2176  2023-11-22 10:59:29.017722
2177  2023-11-22 10:59:29.050617
2178  2023-11-22 10:59:29.082552
2179  2023-11-22 10:59:29.114444
2180  2023-11-22 10:59:29.146330
2181  2023-11-22 10:59:29.178245
2182  2023-11-22 10:59:29.210159
2183  2023-11-22 10:59:29.242105
2184  2023-11-22 10:59:29.273989
2185  2023-11-22 10:59:29.305903
2186  2023-11-22 10:59:29.354811
2187  2023-11-22 10:59:29.386720
2188  2023-11-22 10:59:29.418634
2189  2023-11-22 10:59:29.450548
2190  2023-11-22 10:59:29.482461
2191  2023-11-22 10:59:29.514383
2192  2023-11-22 10:59:29.546294
2193  2023-11-22 10:59:29.578337
2194  2023-11-22 10:59:29.610251
2195  2023-11-22 10:59:29.642167
2196  2023-11-22 10:59:29.674110
2197  2023-11-22 10:59:29.706014
2198  2023-11-22 10:59:29.754882
2199  2023-11-22 10:59:29.785866
2200  2023-11-22 10:59:29.817781
2201  2023-11-22 10:59:29.849665
2202  2023-11-22 10:59:29.882626
2203  2023-11-22 10:59:29.913505
2204  2023-11-22 10:59:29.945409
2205  2023-11-22 10:59:29.977516
2206  2023-11-22 10:59:30.009401
2207  2023-11-22 10:59:30.041355
2208  2023-11-22 10:59:30.073228
2209  2023-11-22 10:59:30.105144
2210  2023-11-22 10:59:30.154046
2211  2023-11-22 10:59:30.185954
2212  2023-11-22 10:59:30.217875
2213  2023-11-22 10:59:30.249804
2214  2023-11-22 10:59:30.281708
2215  2023-11-22 10:59:30.313685
2216  2023-11-22 10:59:30.345632
2217  2023-11-22 10:59:30.377546
2218  2023-11-22 10:59:30.409492
2219  2023-11-22 10:59:30.441420
2220  2023-11-22 10:59:30.473438
2221  2023-11-22 10:59:30.505350
2222  2023-11-22 10:59:30.553225
2223  2023-11-22 10:59:30.585129
2224  2023-11-22 10:59:30.617046
2225  2023-11-22 10:59:30.649926
2226  2023-11-22 10:59:30.681846
2227  2023-11-22 10:59:30.713755
2228  2023-11-22 10:59:30.746699
2229  2023-11-22 10:59:30.778616
2230  2023-11-22 10:59:30.809528
2231  2023-11-22 10:59:30.841418
2232  2023-11-22 10:59:30.873389
2233  2023-11-22 10:59:30.905274
2234  2023-11-22 10:59:30.953153
2235  2023-11-22 10:59:30.986064
2236  2023-11-22 10:59:31.018984
2237  2023-11-22 10:59:31.050885
2238  2023-11-22 10:59:31.082797
2239  2023-11-22 10:59:31.113718
2240  2023-11-22 10:59:31.145629
2241  2023-11-22 10:59:31.178551
2242  2023-11-22 10:59:31.209464
2243  2023-11-22 10:59:31.242365
2244  2023-11-22 10:59:31.274254
2245  2023-11-22 10:59:31.306168
2246  2023-11-22 10:59:31.353075
2247  2023-11-22 10:59:31.384990
2248  2023-11-22 10:59:31.417903
2249  2023-11-22 10:59:31.449827
2250  2023-11-22 10:59:31.482743
2251  2023-11-22 10:59:31.513645
2252  2023-11-22 10:59:31.545629
2253  2023-11-22 10:59:31.577545
2254  2023-11-22 10:59:31.609492
2255  2023-11-22 10:59:31.642400
2256  2023-11-22 10:59:31.673321
2257  2023-11-22 10:59:31.705202
2258  2023-11-22 10:59:31.753075
2259  2023-11-22 10:59:31.784998
2260  2023-11-22 10:59:31.817934
2261  2023-11-22 10:59:31.849854
2262  2023-11-22 10:59:31.881762
2263  2023-11-22 10:59:31.913644
2264  2023-11-22 10:59:31.945558
2265  2023-11-22 10:59:31.977506
2266  2023-11-22 10:59:32.009422
2267  2023-11-22 10:59:32.041365
2268  2023-11-22 10:59:32.073271
2269  2023-11-22 10:59:32.105167
2270  2023-11-22 10:59:32.153035
2271  2023-11-22 10:59:32.184954
2272  2023-11-22 10:59:32.217842
2273  2023-11-22 10:59:32.249800
2274  2023-11-22 10:59:32.281693
2275  2023-11-22 10:59:32.313574
2276  2023-11-22 10:59:32.345488
2277  2023-11-22 10:59:32.377436
2278  2023-11-22 10:59:32.409356
2279  2023-11-22 10:59:32.441269
2280  2023-11-22 10:59:32.474159
2281  2023-11-22 10:59:32.506060
2282  2023-11-22 10:59:32.553963
2283  2023-11-22 10:59:32.585884
2284  2023-11-22 10:59:32.617791
2285  2023-11-22 10:59:32.649708
2286  2023-11-22 10:59:32.681590
2287  2023-11-22 10:59:32.713505
2288  2023-11-22 10:59:32.745418
2289  2023-11-22 10:59:32.777363
2290  2023-11-22 10:59:32.809259
2291  2023-11-22 10:59:32.841192
2292  2023-11-22 10:59:32.873076
2293  2023-11-22 10:59:32.904990
2294  2023-11-22 10:59:32.953892
2295  2023-11-22 10:59:32.985820
2296  2023-11-22 10:59:33.017726
2297  2023-11-22 10:59:33.049630
2298  2023-11-22 10:59:33.081549
2299  2023-11-22 10:59:33.113433
2300  2023-11-22 10:59:33.145388
2301  2023-11-22 10:59:33.177294
2302  2023-11-22 10:59:33.209213
2303  2023-11-22 10:59:33.242128
2304  2023-11-22 10:59:33.273057
2305  2023-11-22 10:59:33.304956
2306  2023-11-22 10:59:33.353822
2307  2023-11-22 10:59:33.385736
2308  2023-11-22 10:59:33.417619
2309  2023-11-22 10:59:33.449573
2310  2023-11-22 10:59:33.481480
2311  2023-11-22 10:59:33.513403
2312  2023-11-22 10:59:33.545277
2313  2023-11-22 10:59:33.577192
2314  2023-11-22 10:59:33.609142
2315  2023-11-22 10:59:33.642045
2316  2023-11-22 10:59:33.673969
2317  2023-11-22 10:59:33.705847
2318  2023-11-22 10:59:33.753751
2319  2023-11-22 10:59:33.785676
2320  2023-11-22 10:59:33.817579
2321  2023-11-22 10:59:33.849493
2322  2023-11-22 10:59:33.881418
2323  2023-11-22 10:59:33.913327
2324  2023-11-22 10:59:33.945253
2325  2023-11-22 10:59:33.977157
2326  2023-11-22 10:59:34.009072
2327  2023-11-22 10:59:34.040984
2328  2023-11-22 10:59:34.073896
2329  2023-11-22 10:59:34.105810
2330  2023-11-22 10:59:34.153683
2331  2023-11-22 10:59:34.185596
2332  2023-11-22 10:59:34.217478
2333  2023-11-22 10:59:34.249425
2334  2023-11-22 10:59:34.281340
2335  2023-11-22 10:59:34.314220
2336  2023-11-22 10:59:34.345136
2337  2023-11-22 10:59:34.378049
2338  2023-11-22 10:59:34.409001
2339  2023-11-22 10:59:34.441931
2340  2023-11-22 10:59:34.473826
2341  2023-11-22 10:59:34.505707
2342  2023-11-22 10:59:34.553628
2343  2023-11-22 10:59:34.585528
2344  2023-11-22 10:59:34.617445
2345  2023-11-22 10:59:34.649366
2346  2023-11-22 10:59:34.681271
2347  2023-11-22 10:59:34.714150
2348  2023-11-22 10:59:34.745067
2349  2023-11-22 10:59:34.777185
2350  2023-11-22 10:59:34.809091
2351  2023-11-22 10:59:34.841969
2352  2023-11-22 10:59:34.873004
2353  2023-11-22 10:59:34.904964
2354  2023-11-22 10:59:34.952925
2355  2023-11-22 10:59:34.985794
2356  2023-11-22 10:59:35.017743
2357  2023-11-22 10:59:35.049656
2358  2023-11-22 10:59:35.081571
2359  2023-11-22 10:59:35.113490
2360  2023-11-22 10:59:35.145401
2361  2023-11-22 10:59:35.177313
2362  2023-11-22 10:59:35.209233
2363  2023-11-22 10:59:35.241149
2364  2023-11-22 10:59:35.273059
2365  2023-11-22 10:59:35.304975
2366  2023-11-22 10:59:35.353846
2367  2023-11-22 10:59:35.385757
2368  2023-11-22 10:59:35.417638
2369  2023-11-22 10:59:35.449553
2370  2023-11-22 10:59:35.481476
2371  2023-11-22 10:59:35.513412
2372  2023-11-22 10:59:35.545329
2373  2023-11-22 10:59:35.577222
2374  2023-11-22 10:59:35.609239
2375  2023-11-22 10:59:35.641187
2376  2023-11-22 10:59:35.673170
2377  2023-11-22 10:59:35.705166
2378  2023-11-22 10:59:35.754093
2379  2023-11-22 10:59:35.785045
2380  2023-11-22 10:59:35.816954
2381  2023-11-22 10:59:35.849870
2382  2023-11-22 10:59:35.881750
2383  2023-11-22 10:59:35.913696
2384  2023-11-22 10:59:35.945609
2385  2023-11-22 10:59:35.977493
2386  2023-11-22 10:59:36.009440
2387  2023-11-22 10:59:36.041370
2388  2023-11-22 10:59:36.073278
2389  2023-11-22 10:59:36.105188
2390  2023-11-22 10:59:36.153058
2391  2023-11-22 10:59:36.184977
2392  2023-11-22 10:59:36.216950
2393  2023-11-22 10:59:36.249826
2394  2023-11-22 10:59:36.281786
2395  2023-11-22 10:59:36.313686
2396  2023-11-22 10:59:36.345615
2397  2023-11-22 10:59:36.377518
2398  2023-11-22 10:59:36.409399
2399  2023-11-22 10:59:36.441463
2400  2023-11-22 10:59:36.473391
2401  2023-11-22 10:59:36.505292
2402  2023-11-22 10:59:36.553167
2403  2023-11-22 10:59:36.585079
2404  2023-11-22 10:59:36.616991
2405  2023-11-22 10:59:36.649869
2406  2023-11-22 10:59:36.681815
2407  2023-11-22 10:59:36.713732
2408  2023-11-22 10:59:36.745643
2409  2023-11-22 10:59:36.777559
2410  2023-11-22 10:59:36.809474
2411  2023-11-22 10:59:36.841395
2412  2023-11-22 10:59:36.873302
2413  2023-11-22 10:59:36.905222
2414  2023-11-22 10:59:36.953091
2415  2023-11-22 10:59:36.985006
2416  2023-11-22 10:59:37.016917
2417  2023-11-22 10:59:37.049833
2418  2023-11-22 10:59:37.081746
2419  2023-11-22 10:59:37.113659
2420  2023-11-22 10:59:37.145574
2421  2023-11-22 10:59:37.177469
2422  2023-11-22 10:59:37.209381
2423  2023-11-22 10:59:37.241332
2424  2023-11-22 10:59:37.273257
2425  2023-11-22 10:59:37.306170
2426  2023-11-22 10:59:37.353135
2427  2023-11-22 10:59:37.385036
2428  2023-11-22 10:59:37.416961
2429  2023-11-22 10:59:37.449832
2430  2023-11-22 10:59:37.481786
2431  2023-11-22 10:59:37.513699
2432  2023-11-22 10:59:37.545611
2433  2023-11-22 10:59:37.577490
2434  2023-11-22 10:59:37.609438
2435  2023-11-22 10:59:37.641370
2436  2023-11-22 10:59:37.673273
2437  2023-11-22 10:59:37.705181
2438  2023-11-22 10:59:37.753310
2439  2023-11-22 10:59:37.785204
2440  2023-11-22 10:59:37.817118
2441  2023-11-22 10:59:37.850032
2442  2023-11-22 10:59:37.882076
2443  2023-11-22 10:59:37.912993
2444  2023-11-22 10:59:37.945902
2445  2023-11-22 10:59:37.977819
2446  2023-11-22 10:59:38.009734
2447  2023-11-22 10:59:38.041612
2448  2023-11-22 10:59:38.073559
2449  2023-11-22 10:59:38.105481
2450  2023-11-22 10:59:38.153348
2451  2023-11-22 10:59:38.185259
2452  2023-11-22 10:59:38.217182
2453  2023-11-22 10:59:38.249093
2454  2023-11-22 10:59:38.281969
2455  2023-11-22 10:59:38.312926
2456  2023-11-22 10:59:38.345878
2457  2023-11-22 10:59:38.377805
2458  2023-11-22 10:59:38.409762
2459  2023-11-22 10:59:38.441676
2460  2023-11-22 10:59:38.473624
2461  2023-11-22 10:59:38.505537
2462  2023-11-22 10:59:38.553408
2463  2023-11-22 10:59:38.585471
2464  2023-11-22 10:59:38.617462
2465  2023-11-22 10:59:38.649344
2466  2023-11-22 10:59:38.681258
2467  2023-11-22 10:59:38.713206
2468  2023-11-22 10:59:38.745133
2469  2023-11-22 10:59:38.777036
2470  2023-11-22 10:59:38.808917
2471  2023-11-22 10:59:38.841828
2472  2023-11-22 10:59:38.873775
2473  2023-11-22 10:59:38.905691
2474  2023-11-22 10:59:38.953571
2475  2023-11-22 10:59:38.985486
2476  2023-11-22 10:59:39.017400
2477  2023-11-22 10:59:39.049396
2478  2023-11-22 10:59:39.081264
2479  2023-11-22 10:59:39.113213
2480  2023-11-22 10:59:39.145131
2481  2023-11-22 10:59:39.177051
2482  2023-11-22 10:59:39.208922
2483  2023-11-22 10:59:39.241834
2484  2023-11-22 10:59:39.273781
2485  2023-11-22 10:59:39.305721
2486  2023-11-22 10:59:39.353672
2487  2023-11-22 10:59:39.385585
2488  2023-11-22 10:59:39.417498
2489  2023-11-22 10:59:39.449382
2490  2023-11-22 10:59:39.481296
2491  2023-11-22 10:59:39.513243
2492  2023-11-22 10:59:39.545162
2493  2023-11-22 10:59:39.577075
2494  2023-11-22 10:59:39.608955
2495  2023-11-22 10:59:39.641901
2496  2023-11-22 10:59:39.672902
2497  2023-11-22 10:59:39.705780
2498  2023-11-22 10:59:39.753652
2499  2023-11-22 10:59:39.785566
2500  2023-11-22 10:59:39.817481
2501  2023-11-22 10:59:39.849396
2502  2023-11-22 10:59:39.881316
2503  2023-11-22 10:59:39.913269
2504  2023-11-22 10:59:39.945176
2505  2023-11-22 10:59:39.977098
2506  2023-11-22 10:59:40.009017
2507  2023-11-22 10:59:40.040889
2508  2023-11-22 10:59:40.073801
2509  2023-11-22 10:59:40.105716
2510  2023-11-22 10:59:40.153588
2511  2023-11-22 10:59:40.185502
2512  2023-11-22 10:59:40.217417
2513  2023-11-22 10:59:40.249331
2514  2023-11-22 10:59:40.281289
2515  2023-11-22 10:59:40.313256
2516  2023-11-22 10:59:40.345195
2517  2023-11-22 10:59:40.377109
2518  2023-11-22 10:59:40.409024
2519  2023-11-22 10:59:40.441936
2520  2023-11-22 10:59:40.473854
2521  2023-11-22 10:59:40.505765
2522  2023-11-22 10:59:40.553637
2523  2023-11-22 10:59:40.585644
2524  2023-11-22 10:59:40.617558
2525  2023-11-22 10:59:40.649473
2526  2023-11-22 10:59:40.681387
2527  2023-11-22 10:59:40.713302
2528  2023-11-22 10:59:40.745231
2529  2023-11-22 10:59:40.777131
2530  2023-11-22 10:59:40.809046
2531  2023-11-22 10:59:40.841958
2532  2023-11-22 10:59:40.873872
2533  2023-11-22 10:59:40.905787
2534  2023-11-22 10:59:40.953659
2535  2023-11-22 10:59:40.985573
2536  2023-11-22 10:59:41.017488
2537  2023-11-22 10:59:41.049404
2538  2023-11-22 10:59:41.081317
2539  2023-11-22 10:59:41.113231
2540  2023-11-22 10:59:41.145146
2541  2023-11-22 10:59:41.177118
2542  2023-11-22 10:59:41.208975
2543  2023-11-22 10:59:41.241888
2544  2023-11-22 10:59:41.273802
2545  2023-11-22 10:59:41.305748
2546  2023-11-22 10:59:41.353588
2547  2023-11-22 10:59:41.385536
2548  2023-11-22 10:59:41.417418
2549  2023-11-22 10:59:41.449332
2550  2023-11-22 10:59:41.481247
2551  2023-11-22 10:59:41.513197
2552  2023-11-22 10:59:41.545076
2553  2023-11-22 10:59:41.576990
2554  2023-11-22 10:59:41.608905
2555  2023-11-22 10:59:41.640849
2556  2023-11-22 10:59:41.673761
2557  2023-11-22 10:59:41.705735
2558  2023-11-22 10:59:41.753607
2559  2023-11-22 10:59:41.785522
2560  2023-11-22 10:59:41.817436
2561  2023-11-22 10:59:41.849389
2562  2023-11-22 10:59:41.881266
2563  2023-11-22 10:59:41.913180
2564  2023-11-22 10:59:41.945095
2565  2023-11-22 10:59:41.977010
2566  2023-11-22 10:59:42.008924
2567  2023-11-22 10:59:42.041844
2568  2023-11-22 10:59:42.073750
2569  2023-11-22 10:59:42.105785
2570  2023-11-22 10:59:42.153652
2571  2023-11-22 10:59:42.185567
2572  2023-11-22 10:59:42.217482
2573  2023-11-22 10:59:42.249396
2574  2023-11-22 10:59:42.281311
2575  2023-11-22 10:59:42.313225
2576  2023-11-22 10:59:42.346173
2577  2023-11-22 10:59:42.378053
2578  2023-11-22 10:59:42.408969
2579  2023-11-22 10:59:42.441881
2580  2023-11-22 10:59:42.473798
2581  2023-11-22 10:59:42.505711
2582  2023-11-22 10:59:42.553583
2583  2023-11-22 10:59:42.585511
2584  2023-11-22 10:59:42.617411
2585  2023-11-22 10:59:42.649326
2586  2023-11-22 10:59:42.681263
2587  2023-11-22 10:59:42.713197
2588  2023-11-22 10:59:42.745070
2589  2023-11-22 10:59:42.777982
2590  2023-11-22 10:59:42.808899
2591  2023-11-22 10:59:42.841853
2592  2023-11-22 10:59:42.873725
2593  2023-11-22 10:59:42.905640
2594  2023-11-22 10:59:42.953512
2595  2023-11-22 10:59:42.985426
2596  2023-11-22 10:59:43.017380
2597  2023-11-22 10:59:43.049353
2598  2023-11-22 10:59:43.081236
2599  2023-11-22 10:59:43.113258
2600  2023-11-22 10:59:43.145203
2601  2023-11-22 10:59:43.177120
2602  2023-11-22 10:59:43.209114
2603  2023-11-22 10:59:43.241029
2604  2023-11-22 10:59:43.272943
2605  2023-11-22 10:59:43.305855
2606  2023-11-22 10:59:43.353727
2607  2023-11-22 10:59:43.385642
2608  2023-11-22 10:59:43.417556
2609  2023-11-22 10:59:43.449471
2610  2023-11-22 10:59:43.481385
2611  2023-11-22 10:59:43.513300
2612  2023-11-22 10:59:43.545218
2613  2023-11-22 10:59:43.577129
2614  2023-11-22 10:59:43.609044
2615  2023-11-22 10:59:43.640958
2616  2023-11-22 10:59:43.673870
2617  2023-11-22 10:59:43.705785
2618  2023-11-22 10:59:43.753657
2619  2023-11-22 10:59:43.785683
2620  2023-11-22 10:59:43.817597
2621  2023-11-22 10:59:43.849512
2622  2023-11-22 10:59:43.881507
2623  2023-11-22 10:59:43.913534
2624  2023-11-22 10:59:43.945448
2625  2023-11-22 10:59:43.977363
2626  2023-11-22 10:59:44.009375
2627  2023-11-22 10:59:44.042196
2628  2023-11-22 10:59:44.074104
2629  2023-11-22 10:59:44.105021
2630  2023-11-22 10:59:44.152962
2631  2023-11-22 10:59:44.185884
2632  2023-11-22 10:59:44.217799
2633  2023-11-22 10:59:44.249713
2634  2023-11-22 10:59:44.281628
2635  2023-11-22 10:59:44.313542
2636  2023-11-22 10:59:44.345457
2637  2023-11-22 10:59:44.377372
2638  2023-11-22 10:59:44.409401
2639  2023-11-22 10:59:44.441315
2640  2023-11-22 10:59:44.473263
2641  2023-11-22 10:59:44.505176
2642  2023-11-22 10:59:44.553018
2643  2023-11-22 10:59:44.584968
2644  2023-11-22 10:59:44.617851
2645  2023-11-22 10:59:44.649758
2646  2023-11-22 10:59:44.681703
2647  2023-11-22 10:59:44.713618
2648  2023-11-22 10:59:44.745501
2649  2023-11-22 10:59:44.777416
2650  2023-11-22 10:59:44.809362
2651  2023-11-22 10:59:44.841277
2652  2023-11-22 10:59:44.873160
2653  2023-11-22 10:59:44.905074
2654  2023-11-22 10:59:44.952946
2655  2023-11-22 10:59:44.985858
2656  2023-11-22 10:59:45.017808
2657  2023-11-22 10:59:45.049721
2658  2023-11-22 10:59:45.081602
2659  2023-11-22 10:59:45.113516
2660  2023-11-22 10:59:45.145463
2661  2023-11-22 10:59:45.177378
2662  2023-11-22 10:59:45.209260
2663  2023-11-22 10:59:45.241175
2664  2023-11-22 10:59:45.273089
2665  2023-11-22 10:59:45.305004
2666  2023-11-22 10:59:45.352876
2667  2023-11-22 10:59:45.385788
2668  2023-11-22 10:59:45.416846
2669  2023-11-22 10:59:45.449758
2670  2023-11-22 10:59:45.481673
2671  2023-11-22 10:59:45.513587
2672  2023-11-22 10:59:45.545502
2673  2023-11-22 10:59:45.577416
2674  2023-11-22 10:59:45.609331
2675  2023-11-22 10:59:45.641245
2676  2023-11-22 10:59:45.673160
2677  2023-11-22 10:59:45.705074
2678  2023-11-22 10:59:45.752946
2679  2023-11-22 10:59:45.785858
2680  2023-11-22 10:59:45.817773
2681  2023-11-22 10:59:45.849687
2682  2023-11-22 10:59:45.881602
2683  2023-11-22 10:59:45.913517
2684  2023-11-22 10:59:45.945431
2685  2023-11-22 10:59:45.977346
2686  2023-11-22 10:59:46.009260
2687  2023-11-22 10:59:46.041175
2688  2023-11-22 10:59:46.073090
2689  2023-11-22 10:59:46.105101
2690  2023-11-22 10:59:46.152974
2691  2023-11-22 10:59:46.185886
2692  2023-11-22 10:59:46.217801
2693  2023-11-22 10:59:46.249715
2694  2023-11-22 10:59:46.281630
2695  2023-11-22 10:59:46.313545
2696  2023-11-22 10:59:46.345459
2697  2023-11-22 10:59:46.377446
2698  2023-11-22 10:59:46.409361
2699  2023-11-22 10:59:46.441276
2700  2023-11-22 10:59:46.473190
2701  2023-11-22 10:59:46.505140
2702  2023-11-22 10:59:46.552977
2703  2023-11-22 10:59:46.584891
2704  2023-11-22 10:59:46.617803
2705  2023-11-22 10:59:46.649718
2706  2023-11-22 10:59:46.681632
2707  2023-11-22 10:59:46.713588
2708  2023-11-22 10:59:46.745462
2709  2023-11-22 10:59:46.777376
2710  2023-11-22 10:59:46.809291
2711  2023-11-22 10:59:46.841240
2712  2023-11-22 10:59:46.874118
2713  2023-11-22 10:59:46.905069
2714  2023-11-22 10:59:46.953904
2715  2023-11-22 10:59:46.985818
2716  2023-11-22 10:59:47.017745
2717  2023-11-22 10:59:47.049649
2718  2023-11-22 10:59:47.081562
2719  2023-11-22 10:59:47.113476
2720  2023-11-22 10:59:47.145391
2721  2023-11-22 10:59:47.177339
2722  2023-11-22 10:59:47.209221
2723  2023-11-22 10:59:47.243171
2724  2023-11-22 10:59:47.273050
2725  2023-11-22 10:59:47.306998
2726  2023-11-22 10:59:47.354867
2727  2023-11-22 10:59:47.385796
2728  2023-11-22 10:59:47.418718
2729  2023-11-22 10:59:47.450769
2730  2023-11-22 10:59:47.482687
2731  2023-11-22 10:59:47.514607
2732  2023-11-22 10:59:47.546512
2733  2023-11-22 10:59:47.578429
2734  2023-11-22 10:59:47.610343
2735  2023-11-22 10:59:47.642256
2736  2023-11-22 10:59:47.674172
2737  2023-11-22 10:59:47.706095
2738  2023-11-22 10:59:47.753958
2739  2023-11-22 10:59:47.785883
2740  2023-11-22 10:59:47.817973
2741  2023-11-22 10:59:47.850045
2742  2023-11-22 10:59:47.881958
2743  2023-11-22 10:59:47.913874
2744  2023-11-22 10:59:47.945791
2745  2023-11-22 10:59:47.977702
2746  2023-11-22 10:59:48.009586
2747  2023-11-22 10:59:48.041535
2748  2023-11-22 10:59:48.073450
2749  2023-11-22 10:59:48.106367
2750  2023-11-22 10:59:48.153202
2751  2023-11-22 10:59:48.186143
2752  2023-11-22 10:59:48.218074
2753  2023-11-22 10:59:48.249995
2754  2023-11-22 10:59:48.281902
2755  2023-11-22 10:59:48.313819
2756  2023-11-22 10:59:48.345718
2757  2023-11-22 10:59:48.377674
2758  2023-11-22 10:59:48.409629
2759  2023-11-22 10:59:48.441583
2760  2023-11-22 10:59:48.473499
2761  2023-11-22 10:59:48.505416
2762  2023-11-22 10:59:48.553286
2763  2023-11-22 10:59:48.585217
2764  2023-11-22 10:59:48.617114
2765  2023-11-22 10:59:48.650005
2766  2023-11-22 10:59:48.681942
2767  2023-11-22 10:59:48.713869
2768  2023-11-22 10:59:48.745774
2769  2023-11-22 10:59:48.777684
2770  2023-11-22 10:59:48.809598
2771  2023-11-22 10:59:48.841513
2772  2023-11-22 10:59:48.873440
2773  2023-11-22 10:59:48.905367
2774  2023-11-22 10:59:48.953220
2775  2023-11-22 10:59:48.985131
2776  2023-11-22 10:59:49.017066
2777  2023-11-22 10:59:49.049925
2778  2023-11-22 10:59:49.081870
2779  2023-11-22 10:59:49.113753
2780  2023-11-22 10:59:49.145668
2781  2023-11-22 10:59:49.177619
2782  2023-11-22 10:59:49.210525
2783  2023-11-22 10:59:49.242434
2784  2023-11-22 10:59:49.273420
2785  2023-11-22 10:59:49.305288
2786  2023-11-22 10:59:49.353157
2787  2023-11-22 10:59:49.385061
2788  2023-11-22 10:59:49.417967
2789  2023-11-22 10:59:49.450882
2790  2023-11-22 10:59:49.482799
2791  2023-11-22 10:59:49.513713
2792  2023-11-22 10:59:49.545597
2793  2023-11-22 10:59:49.578539
2794  2023-11-22 10:59:49.610454
2795  2023-11-22 10:59:49.642369
2796  2023-11-22 10:59:49.673255
2797  2023-11-22 10:59:49.705171
2798  2023-11-22 10:59:49.753042
2799  2023-11-22 10:59:49.785953
2800  2023-11-22 10:59:49.817900
2801  2023-11-22 10:59:49.849784
2802  2023-11-22 10:59:49.882729
2803  2023-11-22 10:59:49.913645
2804  2023-11-22 10:59:49.945526
2805  2023-11-22 10:59:49.978470
2806  2023-11-22 10:59:50.010386
2807  2023-11-22 10:59:50.042298
2808  2023-11-22 10:59:50.073215
2809  2023-11-22 10:59:50.105100
2810  2023-11-22 10:59:50.152971
2811  2023-11-22 10:59:50.185883
2812  2023-11-22 10:59:50.218831
2813  2023-11-22 10:59:50.249745
2814  2023-11-22 10:59:50.282657
2815  2023-11-22 10:59:50.313541
2816  2023-11-22 10:59:50.345458
2817  2023-11-22 10:59:50.378398
2818  2023-11-22 10:59:50.409337
2819  2023-11-22 10:59:50.441234
2820  2023-11-22 10:59:50.474146
2821  2023-11-22 10:59:50.505061
2822  2023-11-22 10:59:50.552937
2823  2023-11-22 10:59:50.584846
2824  2023-11-22 10:59:50.617767
2825  2023-11-22 10:59:50.649674
2826  2023-11-22 10:59:50.681588
2827  2023-11-22 10:59:50.713504
2828  2023-11-22 10:59:50.745420
2829  2023-11-22 10:59:50.777358
2830  2023-11-22 10:59:50.809401
2831  2023-11-22 10:59:50.841330
2832  2023-11-22 10:59:50.873230
2833  2023-11-22 10:59:50.905150
2834  2023-11-22 10:59:50.952981
2835  2023-11-22 10:59:50.984896
2836  2023-11-22 10:59:51.016844
2837  2023-11-22 10:59:51.049766
2838  2023-11-22 10:59:51.081672
2839  2023-11-22 10:59:51.113551
2840  2023-11-22 10:59:51.145501
2841  2023-11-22 10:59:51.177417
2842  2023-11-22 10:59:51.209297
2843  2023-11-22 10:59:51.241246
2844  2023-11-22 10:59:51.273155
2845  2023-11-22 10:59:51.305072
2846  2023-11-22 10:59:51.353949
2847  2023-11-22 10:59:51.384859
2848  2023-11-22 10:59:51.417737
2849  2023-11-22 10:59:51.449653
2850  2023-11-22 10:59:51.481604
2851  2023-11-22 10:59:51.513483
2852  2023-11-22 10:59:51.545396
2853  2023-11-22 10:59:51.577310
2854  2023-11-22 10:59:51.609258
2855  2023-11-22 10:59:51.641174
2856  2023-11-22 10:59:51.674096
2857  2023-11-22 10:59:51.705005
2858  2023-11-22 10:59:51.753901
2859  2023-11-22 10:59:51.785752
2860  2023-11-22 10:59:51.817699
2861  2023-11-22 10:59:51.849616
2862  2023-11-22 10:59:51.881529
2863  2023-11-22 10:59:51.913446
2864  2023-11-22 10:59:51.945325
2865  2023-11-22 10:59:51.977274
2866  2023-11-22 10:59:52.009189
2867  2023-11-22 10:59:52.041110
2868  2023-11-22 10:59:52.074019
2869  2023-11-22 10:59:52.104936
2870  2023-11-22 10:59:52.153842
2871  2023-11-22 10:59:52.185683
2872  2023-11-22 10:59:52.217643
2873  2023-11-22 10:59:52.249521
2874  2023-11-22 10:59:52.281459
2875  2023-11-22 10:59:52.313374
2876  2023-11-22 10:59:52.345442
2877  2023-11-22 10:59:52.377325
2878  2023-11-22 10:59:52.409282
2879  2023-11-22 10:59:52.441187
2880  2023-11-22 10:59:52.474100
2881  2023-11-22 10:59:52.505017
2882  2023-11-22 10:59:52.552895
2883  2023-11-22 10:59:52.585767
2884  2023-11-22 10:59:52.617792
2885  2023-11-22 10:59:52.649742
2886  2023-11-22 10:59:52.681658
2887  2023-11-22 10:59:52.713569
2888  2023-11-22 10:59:52.745485
2889  2023-11-22 10:59:52.777396
2890  2023-11-22 10:59:52.809280
2891  2023-11-22 10:59:52.841228
2892  2023-11-22 10:59:52.873146
2893  2023-11-22 10:59:52.905055
2894  2023-11-22 10:59:52.953928
2895  2023-11-22 10:59:52.985842
2896  2023-11-22 10:59:53.017770
2897  2023-11-22 10:59:53.049668
2898  2023-11-22 10:59:53.081584
2899  2023-11-22 10:59:53.113502
2900  2023-11-22 10:59:53.145412
2901  2023-11-22 10:59:53.177341
2902  2023-11-22 10:59:53.209241
2903  2023-11-22 10:59:53.241159
2904  2023-11-22 10:59:53.273072
2905  2023-11-22 10:59:53.304991
2906  2023-11-22 10:59:53.352863
2907  2023-11-22 10:59:53.385737
2908  2023-11-22 10:59:53.417652
2909  2023-11-22 10:59:53.449615
2910  2023-11-22 10:59:53.481513
2911  2023-11-22 10:59:53.513430
2912  2023-11-22 10:59:53.545310
2913  2023-11-22 10:59:53.577225
2914  2023-11-22 10:59:53.609173
2915  2023-11-22 10:59:53.641085
2916  2023-11-22 10:59:53.673024
2917  2023-11-22 10:59:53.704924
2918  2023-11-22 10:59:53.753779
2919  2023-11-22 10:59:53.785706
2920  2023-11-22 10:59:53.817581
2921  2023-11-22 10:59:53.849530
2922  2023-11-22 10:59:53.881413
2923  2023-11-22 10:59:53.913356
2924  2023-11-22 10:59:53.945280
2925  2023-11-22 10:59:53.977205
2926  2023-11-22 10:59:54.009107
2927  2023-11-22 10:59:54.041016
2928  2023-11-22 10:59:54.073931
2929  2023-11-22 10:59:54.105858
2930  2023-11-22 10:59:54.153718
2931  2023-11-22 10:59:54.185636
2932  2023-11-22 10:59:54.217564
2933  2023-11-22 10:59:54.249425
2934  2023-11-22 10:59:54.281373
2935  2023-11-22 10:59:54.313292
2936  2023-11-22 10:59:54.345215
2937  2023-11-22 10:59:54.377139
2938  2023-11-22 10:59:54.409035
2939  2023-11-22 10:59:54.440946
2940  2023-11-22 10:59:54.472869
2941  2023-11-22 10:59:54.505801
2942  2023-11-22 10:59:54.553646
2943  2023-11-22 10:59:54.585557
2944  2023-11-22 10:59:54.617459
2945  2023-11-22 10:59:54.649422
2946  2023-11-22 10:59:54.681368
2947  2023-11-22 10:59:54.713311
2948  2023-11-22 10:59:54.745203
2949  2023-11-22 10:59:54.777080
2950  2023-11-22 10:59:54.809027
2951  2023-11-22 10:59:54.841938
2952  2023-11-22 10:59:54.872863
2953  2023-11-22 10:59:54.905771
2954  2023-11-22 10:59:54.953639
2955  2023-11-22 10:59:54.985559
2956  2023-11-22 10:59:55.017478
2957  2023-11-22 10:59:55.049385
2958  2023-11-22 10:59:55.081318
2959  2023-11-22 10:59:55.113217
2960  2023-11-22 10:59:55.145137
2961  2023-11-22 10:59:55.177010
2962  2023-11-22 10:59:55.209922
2963  2023-11-22 10:59:55.241881
2964  2023-11-22 10:59:55.273800
2965  2023-11-22 10:59:55.305699
2966  2023-11-22 10:59:55.353568
2967  2023-11-22 10:59:55.385484
2968  2023-11-22 10:59:55.417376
2969  2023-11-22 10:59:55.449448
2970  2023-11-22 10:59:55.481232
2971  2023-11-22 10:59:55.514143
2972  2023-11-22 10:59:55.546065
2973  2023-11-22 10:59:55.576940
2974  2023-11-22 10:59:55.609889
2975  2023-11-22 10:59:55.641798
2976  2023-11-22 10:59:55.673715
2977  2023-11-22 10:59:55.705630
2978  2023-11-22 10:59:55.753469
2979  2023-11-22 10:59:55.785416
2980  2023-11-22 10:59:55.817336
2981  2023-11-22 10:59:55.849254
2982  2023-11-22 10:59:55.881159
2983  2023-11-22 10:59:55.913074
2984  2023-11-22 10:59:55.944998
2985  2023-11-22 10:59:55.976905
2986  2023-11-22 10:59:56.009814
2987  2023-11-22 10:59:56.040863
2988  2023-11-22 10:59:56.073770
2989  2023-11-22 10:59:56.105685
2990  2023-11-22 10:59:56.153701
2991  2023-11-22 10:59:56.185684
2992  2023-11-22 10:59:56.217664
2993  2023-11-22 10:59:56.249546
2994  2023-11-22 10:59:56.281461
2995  2023-11-22 10:59:56.313412
2996  2023-11-22 10:59:56.345329
2997  2023-11-22 10:59:56.377240
2998  2023-11-22 10:59:56.409119
2999  2023-11-22 10:59:56.441071
3000  2023-11-22 10:59:56.472983
3001  2023-11-22 10:59:56.505862
3002  2023-11-22 10:59:56.553733
3003  2023-11-22 10:59:56.585647
3004  2023-11-22 10:59:56.617562
3005  2023-11-22 10:59:56.649476
3006  2023-11-22 10:59:56.681426
3007  2023-11-22 10:59:56.713374
3008  2023-11-22 10:59:56.745253
3009  2023-11-22 10:59:56.777166
3010  2023-11-22 10:59:56.809091
3011  2023-11-22 10:59:56.841000
3012  2023-11-22 10:59:56.872930
3013  2023-11-22 10:59:56.905823
3014  2023-11-22 10:59:56.953695
3015  2023-11-22 10:59:56.985608
3016  2023-11-22 10:59:57.017531
3017  2023-11-22 10:59:57.049588
3018  2023-11-22 10:59:57.081503
3019  2023-11-22 10:59:57.113449
3020  2023-11-22 10:59:57.145364
3021  2023-11-22 10:59:57.177280
3022  2023-11-22 10:59:57.209161
3023  2023-11-22 10:59:57.241128
3024  2023-11-22 10:59:57.273144
3025  2023-11-22 10:59:57.305066
3026  2023-11-22 10:59:57.352933
3027  2023-11-22 10:59:57.385846
3028  2023-11-22 10:59:57.417758
3029  2023-11-22 10:59:57.449658
3030  2023-11-22 10:59:57.481557
3031  2023-11-22 10:59:57.513502
3032  2023-11-22 10:59:57.545431
3033  2023-11-22 10:59:57.577359
3034  2023-11-22 10:59:57.609244
3035  2023-11-22 10:59:57.641163
3036  2023-11-22 10:59:57.673084
3037  2023-11-22 10:59:57.705003
3038  2023-11-22 10:59:57.753867
3039  2023-11-22 10:59:57.785778
3040  2023-11-22 10:59:57.817712
3041  2023-11-22 10:59:57.849606
3042  2023-11-22 10:59:57.881520
3043  2023-11-22 10:59:57.913433
3044  2023-11-22 10:59:57.945355
3045  2023-11-22 10:59:57.977270
3046  2023-11-22 10:59:58.009186
3047  2023-11-22 10:59:58.041102
3048  2023-11-22 10:59:58.073009
3049  2023-11-22 10:59:58.105012
3050  2023-11-22 10:59:58.152885
3051  2023-11-22 10:59:58.185794
3052  2023-11-22 10:59:58.217709
3053  2023-11-22 10:59:58.249594
3054  2023-11-22 10:59:58.281507
3055  2023-11-22 10:59:58.313453
3056  2023-11-22 10:59:58.345368
3057  2023-11-22 10:59:58.377284
3058  2023-11-22 10:59:58.410228
3059  2023-11-22 10:59:58.441114
3060  2023-11-22 10:59:58.473994
3061  2023-11-22 10:59:58.505946
3062  2023-11-22 10:59:58.553778
3063  2023-11-22 10:59:58.585693
3064  2023-11-22 10:59:58.617608
3065  2023-11-22 10:59:58.649522
3066  2023-11-22 10:59:58.681437
3067  2023-11-22 10:59:58.713364
3068  2023-11-22 10:59:58.745266
3069  2023-11-22 10:59:58.777212
3070  2023-11-22 10:59:58.809130
3071  2023-11-22 10:59:58.842011
3072  2023-11-22 10:59:58.872966
3073  2023-11-22 10:59:58.905867
3074  2023-11-22 10:59:58.953709
3075  2023-11-22 10:59:58.985623
3076  2023-11-22 10:59:59.017568
3077  2023-11-22 10:59:59.049491
3078  2023-11-22 10:59:59.081366
3079  2023-11-22 10:59:59.113281
3080  2023-11-22 10:59:59.145196
3081  2023-11-22 10:59:59.177146
3082  2023-11-22 10:59:59.210070
3083  2023-11-22 10:59:59.240974
3084  2023-11-22 10:59:59.272888
3085  2023-11-22 10:59:59.304803
3086  2023-11-22 10:59:59.353637
3087  2023-11-22 10:59:59.385662
3088  2023-11-22 10:59:59.417545
3089  2023-11-22 10:59:59.449460
3090  2023-11-22 10:59:59.481374
3091  2023-11-22 10:59:59.513320
3092  2023-11-22 10:59:59.545204
3093  2023-11-22 10:59:59.577118
3094  2023-11-22 10:59:59.609100
3095  2023-11-22 10:59:59.641096
3096  2023-11-22 10:59:59.673008
3097  2023-11-22 10:59:59.704925
3098  2023-11-22 10:59:59.753759
3099  2023-11-22 10:59:59.785674
3100  2023-11-22 10:59:59.817588
3101  2023-11-22 10:59:59.849534
3102  2023-11-22 10:59:59.881417
3103  2023-11-22 10:59:59.913332
3104  2023-11-22 10:59:59.945246
3105  2023-11-22 10:59:59.977161
3106  2023-11-22 11:00:00.009112
3107  2023-11-22 11:00:00.042032
3108  2023-11-22 11:00:00.073941
3109  2023-11-22 11:00:00.105849
3110  2023-11-22 11:00:00.153698
3111  2023-11-22 11:00:00.185603
3112  2023-11-22 11:00:00.217518
3113  2023-11-22 11:00:00.249432
3114  2023-11-22 11:00:00.281347
3115  2023-11-22 11:00:00.313261
3116  2023-11-22 11:00:00.345212
3117  2023-11-22 11:00:00.378119
3118  2023-11-22 11:00:00.409042
3119  2023-11-22 11:00:00.440955
3120  2023-11-22 11:00:00.473847
3121  2023-11-22 11:00:00.505781
3122  2023-11-22 11:00:00.553628
3123  2023-11-22 11:00:00.585602
3124  2023-11-22 11:00:00.617447
3125  2023-11-22 11:00:00.649362
3126  2023-11-22 11:00:00.681278
3127  2023-11-22 11:00:00.713235
3128  2023-11-22 11:00:00.745106
3129  2023-11-22 11:00:00.777020
3130  2023-11-22 11:00:00.808970
3131  2023-11-22 11:00:00.840884
3132  2023-11-22 11:00:00.873761
3133  2023-11-22 11:00:00.905709
3134  2023-11-22 11:00:00.953548
3135  2023-11-22 11:00:00.985462
3136  2023-11-22 11:00:01.017410
3137  2023-11-22 11:00:01.049328
3138  2023-11-22 11:00:01.081209
3139  2023-11-22 11:00:01.113120
3140  2023-11-22 11:00:01.145069
3141  2023-11-22 11:00:01.176982
3142  2023-11-22 11:00:01.208903
3143  2023-11-22 11:00:01.241824
3144  2023-11-22 11:00:01.273691
3145  2023-11-22 11:00:01.305641
3146  2023-11-22 11:00:01.353479
3147  2023-11-22 11:00:01.385392
3148  2023-11-22 11:00:01.417306
3149  2023-11-22 11:00:01.449221
3150  2023-11-22 11:00:01.481180
3151  2023-11-22 11:00:01.513135
3152  2023-11-22 11:00:01.545050
3153  2023-11-22 11:00:01.577006
3154  2023-11-22 11:00:01.608920
3155  2023-11-22 11:00:01.640833
3156  2023-11-22 11:00:01.673713
3157  2023-11-22 11:00:01.705660
3158  2023-11-22 11:00:01.753504
3159  2023-11-22 11:00:01.785415
3160  2023-11-22 11:00:01.817330
3161  2023-11-22 11:00:01.849244
3162  2023-11-22 11:00:01.881202
3163  2023-11-22 11:00:01.913072
3164  2023-11-22 11:00:01.944987
3165  2023-11-22 11:00:01.976931
3166  2023-11-22 11:00:02.009847
3167  2023-11-22 11:00:02.041776
3168  2023-11-22 11:00:02.073642
3169  2023-11-22 11:00:02.105557
3170  2023-11-22 11:00:02.153428
3171  2023-11-22 11:00:02.185376
3172  2023-11-22 11:00:02.217303
3173  2023-11-22 11:00:02.249172
3174  2023-11-22 11:00:02.281087
3175  2023-11-22 11:00:02.313001
3176  2023-11-22 11:00:02.344949
3177  2023-11-22 11:00:02.377828
3178  2023-11-22 11:00:02.409776
3179  2023-11-22 11:00:02.441692
3180  2023-11-22 11:00:02.473605
3181  2023-11-22 11:00:02.505523
3182  2023-11-22 11:00:02.553385
3183  2023-11-22 11:00:02.585275
3184  2023-11-22 11:00:02.617189
3185  2023-11-22 11:00:02.649104
3186  2023-11-22 11:00:02.681018
3187  2023-11-22 11:00:02.712931
3188  2023-11-22 11:00:02.745843
3189  2023-11-22 11:00:02.777758
3190  2023-11-22 11:00:02.809705
3191  2023-11-22 11:00:02.841619
3192  2023-11-22 11:00:02.873541
3193  2023-11-22 11:00:02.905447
3194  2023-11-22 11:00:02.953288
3195  2023-11-22 11:00:02.985216
3196  2023-11-22 11:00:03.017144
3197  2023-11-22 11:00:03.049032
3198  2023-11-22 11:00:03.080946
3199  2023-11-22 11:00:03.113869
3200  2023-11-22 11:00:03.145773
3201  2023-11-22 11:00:03.177725
3202  2023-11-22 11:00:03.209633
3203  2023-11-22 11:00:03.241549
3204  2023-11-22 11:00:03.273462
3205  2023-11-22 11:00:03.305395
3206  2023-11-22 11:00:03.353217
3207  2023-11-22 11:00:03.385132
3208  2023-11-22 11:00:03.417047
3209  2023-11-22 11:00:03.448961
3210  2023-11-22 11:00:03.481873
3211  2023-11-22 11:00:03.513788
3212  2023-11-22 11:00:03.545702
3213  2023-11-22 11:00:03.577617
3214  2023-11-22 11:00:03.609563
3215  2023-11-22 11:00:03.641613
3216  2023-11-22 11:00:03.673529
3217  2023-11-22 11:00:03.705443
3218  2023-11-22 11:00:03.753410
3219  2023-11-22 11:00:03.785324
3220  2023-11-22 11:00:03.817368
3221  2023-11-22 11:00:03.849425
3222  2023-11-22 11:00:03.881340
3223  2023-11-22 11:00:03.913254
3224  2023-11-22 11:00:03.945169
3225  2023-11-22 11:00:03.978086
3226  2023-11-22 11:00:04.010002
3227  2023-11-22 11:00:04.041922
3228  2023-11-22 11:00:04.073827
3229  2023-11-22 11:00:04.105741
3230  2023-11-22 11:00:04.153612
3231  2023-11-22 11:00:04.185527
3232  2023-11-22 11:00:04.217442
3233  2023-11-22 11:00:04.249356
3234  2023-11-22 11:00:04.281271
3235  2023-11-22 11:00:04.313186
3236  2023-11-22 11:00:04.345192
3237  2023-11-22 11:00:04.378106
3238  2023-11-22 11:00:04.409053
3239  2023-11-22 11:00:04.440968
3240  2023-11-22 11:00:04.472888
3241  2023-11-22 11:00:04.505794
3242  2023-11-22 11:00:04.553667
3243  2023-11-22 11:00:04.585548
3244  2023-11-22 11:00:04.617463
3245  2023-11-22 11:00:04.649378
3246  2023-11-22 11:00:04.681324
3247  2023-11-22 11:00:04.713244
3248  2023-11-22 11:00:04.745132
3249  2023-11-22 11:00:04.777075
3250  2023-11-22 11:00:04.808984
3251  2023-11-22 11:00:04.841896
3252  2023-11-22 11:00:04.873777
3253  2023-11-22 11:00:04.905734
3254  2023-11-22 11:00:04.953563
3255  2023-11-22 11:00:04.985478
3256  2023-11-22 11:00:05.017393
3257  2023-11-22 11:00:05.049350
3258  2023-11-22 11:00:05.081225
3259  2023-11-22 11:00:05.113136
3260  2023-11-22 11:00:05.145084
3261  2023-11-22 11:00:05.176999
3262  2023-11-22 11:00:05.209879
3263  2023-11-22 11:00:05.241840
3264  2023-11-22 11:00:05.273755
3265  2023-11-22 11:00:05.305736
3266  2023-11-22 11:00:05.353574
3267  2023-11-22 11:00:05.385489
3268  2023-11-22 11:00:05.417403
3269  2023-11-22 11:00:05.449318
3270  2023-11-22 11:00:05.481310
3271  2023-11-22 11:00:05.513237
3272  2023-11-22 11:00:05.546159
3273  2023-11-22 11:00:05.577108
3274  2023-11-22 11:00:05.609067
3275  2023-11-22 11:00:05.641942
3276  2023-11-22 11:00:05.673859
3277  2023-11-22 11:00:05.706965
3278  2023-11-22 11:00:05.754834
3279  2023-11-22 11:00:05.785722
3280  2023-11-22 11:00:05.817635
3281  2023-11-22 11:00:05.849550
3282  2023-11-22 11:00:05.883490
3283  2023-11-22 11:00:05.914437
3284  2023-11-22 11:00:05.947388
3285  2023-11-22 11:00:05.979264
3286  2023-11-22 11:00:06.011186
3287  2023-11-22 11:00:06.043132
3288  2023-11-22 11:00:06.075042
3289  2023-11-22 11:00:06.106930
3290  2023-11-22 11:00:06.154833
3291  2023-11-22 11:00:06.186761
3292  2023-11-22 11:00:06.218712
3293  2023-11-22 11:00:06.250625
3294  2023-11-22 11:00:06.282651
3295  2023-11-22 11:00:06.314566
3296  2023-11-22 11:00:06.346463
3297  2023-11-22 11:00:06.378390
3298  2023-11-22 11:00:06.410341
3299  2023-11-22 11:00:06.442322
3300  2023-11-22 11:00:06.474327
3301  2023-11-22 11:00:06.506234
3302  2023-11-22 11:00:06.554105
3303  2023-11-22 11:00:06.586021
3304  2023-11-22 11:00:06.617939
3305  2023-11-22 11:00:06.649851
3306  2023-11-22 11:00:06.682760
3307  2023-11-22 11:00:06.713677
3308  2023-11-22 11:00:06.746594
3309  2023-11-22 11:00:06.778504
3310  2023-11-22 11:00:06.810419
3311  2023-11-22 11:00:06.842342
3312  2023-11-22 11:00:06.874254
3313  2023-11-22 11:00:06.906160
3314  2023-11-22 11:00:06.954032
3315  2023-11-22 11:00:06.986923
3316  2023-11-22 11:00:07.017875
3317  2023-11-22 11:00:07.049806
3318  2023-11-22 11:00:07.081692
3319  2023-11-22 11:00:07.113608
3320  2023-11-22 11:00:07.146523
3321  2023-11-22 11:00:07.178423
3322  2023-11-22 11:00:07.209418
3323  2023-11-22 11:00:07.241412
3324  2023-11-22 11:00:07.274325
3325  2023-11-22 11:00:07.306244
3326  2023-11-22 11:00:07.353245
3327  2023-11-22 11:00:07.386156
3328  2023-11-22 11:00:07.418068
3329  2023-11-22 11:00:07.449983
3330  2023-11-22 11:00:07.481896
3331  2023-11-22 11:00:07.513818
3332  2023-11-22 11:00:07.545734
3333  2023-11-22 11:00:07.577642
3334  2023-11-22 11:00:07.609556
3335  2023-11-22 11:00:07.641527
3336  2023-11-22 11:00:07.674498
3337  2023-11-22 11:00:07.705423
3338  2023-11-22 11:00:07.753288
3339  2023-11-22 11:00:07.785170
3340  2023-11-22 11:00:07.817116
3341  2023-11-22 11:00:07.849058
3342  2023-11-22 11:00:07.881944
3343  2023-11-22 11:00:07.913824
3344  2023-11-22 11:00:07.945773
3345  2023-11-22 11:00:07.977687
3346  2023-11-22 11:00:08.009600
3347  2023-11-22 11:00:08.041514
3348  2023-11-22 11:00:08.073431
3349  2023-11-22 11:00:08.105338
3350  2023-11-22 11:00:08.153217
3351  2023-11-22 11:00:08.185132
3352  2023-11-22 11:00:08.219038
3353  2023-11-22 11:00:08.250955
3354  2023-11-22 11:00:08.282869
3355  2023-11-22 11:00:08.313754
3356  2023-11-22 11:00:08.345702
3357  2023-11-22 11:00:08.378621
3358  2023-11-22 11:00:08.410535
3359  2023-11-22 11:00:08.443437
3360  2023-11-22 11:00:08.473361
3361  2023-11-22 11:00:08.505300
3362  2023-11-22 11:00:08.554144
3363  2023-11-22 11:00:08.585039
3364  2023-11-22 11:00:08.618976
3365  2023-11-22 11:00:08.650884
3366  2023-11-22 11:00:08.682802
3367  2023-11-22 11:00:08.713716
3368  2023-11-22 11:00:08.745636
3369  2023-11-22 11:00:08.778544
3370  2023-11-22 11:00:08.810458
3371  2023-11-22 11:00:08.842372
3372  2023-11-22 11:00:08.873293
3373  2023-11-22 11:00:08.905172
3374  2023-11-22 11:00:08.953076
3375  2023-11-22 11:00:08.984961
3376  2023-11-22 11:00:09.017902
3377  2023-11-22 11:00:09.049836
3378  2023-11-22 11:00:09.081737
3379  2023-11-22 11:00:09.113652
3380  2023-11-22 11:00:09.145564
3381  2023-11-22 11:00:09.178471
3382  2023-11-22 11:00:09.209390
3383  2023-11-22 11:00:09.242310
3384  2023-11-22 11:00:09.273220
3385  2023-11-22 11:00:09.305171
3386  2023-11-22 11:00:09.353145
3387  2023-11-22 11:00:09.385057
3388  2023-11-22 11:00:09.417937
3389  2023-11-22 11:00:09.449894
3390  2023-11-22 11:00:09.481807
3391  2023-11-22 11:00:09.513713
3392  2023-11-22 11:00:09.545596
3393  2023-11-22 11:00:09.577540
3394  2023-11-22 11:00:09.609454
3395  2023-11-22 11:00:09.642369
3396  2023-11-22 11:00:09.673273
3397  2023-11-22 11:00:09.705228
3398  2023-11-22 11:00:09.753199
3399  2023-11-22 11:00:09.785062
3400  2023-11-22 11:00:09.817009
3401  2023-11-22 11:00:09.849920
3402  2023-11-22 11:00:09.881834
3403  2023-11-22 11:00:09.913749
3404  2023-11-22 11:00:09.945663
3405  2023-11-22 11:00:09.977579
3406  2023-11-22 11:00:10.009493
3407  2023-11-22 11:00:10.041424
3408  2023-11-22 11:00:10.073323
3409  2023-11-22 11:00:10.105244
3410  2023-11-22 11:00:10.153077
3411  2023-11-22 11:00:10.185103
3412  2023-11-22 11:00:10.217008
3413  2023-11-22 11:00:10.249759
3414  2023-11-22 11:00:10.281754
3415  2023-11-22 11:00:10.313635
3416  2023-11-22 11:00:10.345585
3417  2023-11-22 11:00:10.377506
3418  2023-11-22 11:00:10.409410
3419  2023-11-22 11:00:10.441331
3420  2023-11-22 11:00:10.473240
3421  2023-11-22 11:00:10.505173
3422  2023-11-22 11:00:10.553025
3423  2023-11-22 11:00:10.584906
3424  2023-11-22 11:00:10.616858
3425  2023-11-22 11:00:10.649765
3426  2023-11-22 11:00:10.681689
3427  2023-11-22 11:00:10.713606
3428  2023-11-22 11:00:10.745507
3429  2023-11-22 11:00:10.777423
3430  2023-11-22 11:00:10.809379
3431  2023-11-22 11:00:10.841222
3432  2023-11-22 11:00:10.873182
3433  2023-11-22 11:00:10.905091
3434  2023-11-22 11:00:10.952956
3435  2023-11-22 11:00:10.984878
3436  2023-11-22 11:00:11.017749
3437  2023-11-22 11:00:11.049706
3438  2023-11-22 11:00:11.081610
3439  2023-11-22 11:00:11.113493
3440  2023-11-22 11:00:11.145444
3441  2023-11-22 11:00:11.177341
3442  2023-11-22 11:00:11.209267
3443  2023-11-22 11:00:11.241185
3444  2023-11-22 11:00:11.273098
3445  2023-11-22 11:00:11.305014
3446  2023-11-22 11:00:11.352858
3447  2023-11-22 11:00:11.384801
3448  2023-11-22 11:00:11.417710
3449  2023-11-22 11:00:11.449623
3450  2023-11-22 11:00:11.481569
3451  2023-11-22 11:00:11.513457
3452  2023-11-22 11:00:11.545370
3453  2023-11-22 11:00:11.577294
3454  2023-11-22 11:00:11.609197
3455  2023-11-22 11:00:11.641113
3456  2023-11-22 11:00:11.673026
3457  2023-11-22 11:00:11.704943
3458  2023-11-22 11:00:11.753781
3459  2023-11-22 11:00:11.785726
3460  2023-11-22 11:00:11.817641
3461  2023-11-22 11:00:11.849558
3462  2023-11-22 11:00:11.881484
3463  2023-11-22 11:00:11.913384
3464  2023-11-22 11:00:11.945302
3465  2023-11-22 11:00:11.977227
3466  2023-11-22 11:00:12.010134
3467  2023-11-22 11:00:12.041063
3468  2023-11-22 11:00:12.072969
3469  2023-11-22 11:00:12.104839
3470  2023-11-22 11:00:12.153744
3471  2023-11-22 11:00:12.185655
3472  2023-11-22 11:00:12.217578
3473  2023-11-22 11:00:12.249485
3474  2023-11-22 11:00:12.281420
3475  2023-11-22 11:00:12.313317
3476  2023-11-22 11:00:12.345235
3477  2023-11-22 11:00:12.377163
3478  2023-11-22 11:00:12.409071
3479  2023-11-22 11:00:12.440972
3480  2023-11-22 11:00:12.472886
3481  2023-11-22 11:00:12.505798
3482  2023-11-22 11:00:12.553668
3483  2023-11-22 11:00:12.585582
3484  2023-11-22 11:00:12.617467
3485  2023-11-22 11:00:12.649572
3486  2023-11-22 11:00:12.681328
3487  2023-11-22 11:00:12.713255
3488  2023-11-22 11:00:12.745136
3489  2023-11-22 11:00:12.777076
3490  2023-11-22 11:00:12.808991
3491  2023-11-22 11:00:12.841867
3492  2023-11-22 11:00:12.873815
3493  2023-11-22 11:00:12.905729
3494  2023-11-22 11:00:12.953601
3495  2023-11-22 11:00:12.985521
3496  2023-11-22 11:00:13.017399
3497  2023-11-22 11:00:13.049356
3498  2023-11-22 11:00:13.081272
3499  2023-11-22 11:00:13.113174
3500  2023-11-22 11:00:13.145094
3501  2023-11-22 11:00:13.177004
3502  2023-11-22 11:00:13.208923
3503  2023-11-22 11:00:13.241829
3504  2023-11-22 11:00:13.273742
3505  2023-11-22 11:00:13.305667
3506  2023-11-22 11:00:13.353530
3507  2023-11-22 11:00:13.385442
3508  2023-11-22 11:00:13.417333
3509  2023-11-22 11:00:13.449289
3510  2023-11-22 11:00:13.481193
3511  2023-11-22 11:00:13.513236
3512  2023-11-22 11:00:13.545143
3513  2023-11-22 11:00:13.577019
3514  2023-11-22 11:00:13.608978
3515  2023-11-22 11:00:13.640848
3516  2023-11-22 11:00:13.673793
3517  2023-11-22 11:00:13.705708
3518  2023-11-22 11:00:13.753585
3519  2023-11-22 11:00:13.785496
3520  2023-11-22 11:00:13.817408
3521  2023-11-22 11:00:13.849322
3522  2023-11-22 11:00:13.881255
3523  2023-11-22 11:00:13.913152
3524  2023-11-22 11:00:13.945066
3525  2023-11-22 11:00:13.976982
3526  2023-11-22 11:00:14.009920
3527  2023-11-22 11:00:14.041815
3528  2023-11-22 11:00:14.073729
3529  2023-11-22 11:00:14.105643
3530  2023-11-22 11:00:14.153510
3531  2023-11-22 11:00:14.185425
3532  2023-11-22 11:00:14.217307
3533  2023-11-22 11:00:14.249220
3534  2023-11-22 11:00:14.281169
3535  2023-11-22 11:00:14.313084
3536  2023-11-22 11:00:14.345059
3537  2023-11-22 11:00:14.377059
3538  2023-11-22 11:00:14.408978
3539  2023-11-22 11:00:14.440886
3540  2023-11-22 11:00:14.472806
3541  2023-11-22 11:00:14.505722
3542  2023-11-22 11:00:14.553599
3543  2023-11-22 11:00:14.585501
3544  2023-11-22 11:00:14.617414
3545  2023-11-22 11:00:14.649297
3546  2023-11-22 11:00:14.681251
3547  2023-11-22 11:00:14.713167
3548  2023-11-22 11:00:14.745094
3549  2023-11-22 11:00:14.777018
3550  2023-11-22 11:00:14.808931
3551  2023-11-22 11:00:14.841844
3552  2023-11-22 11:00:14.873764
3553  2023-11-22 11:00:14.905673
3554  2023-11-22 11:00:14.953545
3555  2023-11-22 11:00:14.985465
3556  2023-11-22 11:00:15.017371
3557  2023-11-22 11:00:15.049253
3558  2023-11-22 11:00:15.081204
3559  2023-11-22 11:00:15.113117
3560  2023-11-22 11:00:15.145032
3561  2023-11-22 11:00:15.177941
