
1  2023-10-19 09:44:25.773261
2  2023-10-19 09:44:25.805176
3  2023-10-19 09:44:25.837150
4  2023-10-19 09:44:25.869047
5  2023-10-19 09:44:25.900921
6  2023-10-19 09:44:25.933832
7  2023-10-19 09:44:25.965844
8  2023-10-19 09:44:26.013721
9  2023-10-19 09:44:26.045615
10  2023-10-19 09:44:26.077538
11  2023-10-19 09:44:26.109443
12  2023-10-19 09:44:26.141328
13  2023-10-19 09:44:26.173242
14  2023-10-19 09:44:26.205156
15  2023-10-19 09:44:26.237071
16  2023-10-19 09:44:26.268985
17  2023-10-19 09:44:26.300900
18  2023-10-19 09:44:26.332815
19  2023-10-19 09:44:26.365798
20  2023-10-19 09:44:26.413630
21  2023-10-19 09:44:26.445552
22  2023-10-19 09:44:26.477460
23  2023-10-19 09:44:26.509374
24  2023-10-19 09:44:26.541258
25  2023-10-19 09:44:26.573172
26  2023-10-19 09:44:26.605087
27  2023-10-19 09:44:26.637048
28  2023-10-19 09:44:26.668917
29  2023-10-19 09:44:26.700870
30  2023-10-19 09:44:26.732746
31  2023-10-19 09:44:26.781616
32  2023-10-19 09:44:26.813566
33  2023-10-19 09:44:26.845445
34  2023-10-19 09:44:26.877359
35  2023-10-19 09:44:26.909274
36  2023-10-19 09:44:26.941224
37  2023-10-19 09:44:26.973105
38  2023-10-19 09:44:27.005071
39  2023-10-19 09:44:27.036968
40  2023-10-19 09:44:27.068900
41  2023-10-19 09:44:27.101810
42  2023-10-19 09:44:27.133675
43  2023-10-19 09:44:27.181578
44  2023-10-19 09:44:27.213520
45  2023-10-19 09:44:27.245407
46  2023-10-19 09:44:27.277320
47  2023-10-19 09:44:27.309241
48  2023-10-19 09:44:27.341151
49  2023-10-19 09:44:27.373066
50  2023-10-19 09:44:27.404980
51  2023-10-19 09:44:27.436863
52  2023-10-19 09:44:27.469827
53  2023-10-19 09:44:27.500723
54  2023-10-19 09:44:27.533646
55  2023-10-19 09:44:27.581477
56  2023-10-19 09:44:27.613391
57  2023-10-19 09:44:27.645355
58  2023-10-19 09:44:27.677267
59  2023-10-19 09:44:27.709108
60  2023-10-19 09:44:27.741068
61  2023-10-19 09:44:27.773016
62  2023-10-19 09:44:27.804968
63  2023-10-19 09:44:27.836877
64  2023-10-19 09:44:27.869764
65  2023-10-19 09:44:27.901720
66  2023-10-19 09:44:27.933627
67  2023-10-19 09:44:27.981488
68  2023-10-19 09:44:28.013373
69  2023-10-19 09:44:28.045073
70  2023-10-19 09:44:28.077094
71  2023-10-19 09:44:28.109009
72  2023-10-19 09:44:28.140937
73  2023-10-19 09:44:28.172813
74  2023-10-19 09:44:28.204722
75  2023-10-19 09:44:28.237686
76  2023-10-19 09:44:28.269549
77  2023-10-19 09:44:28.301497
78  2023-10-19 09:44:28.333378
79  2023-10-19 09:44:28.381281
80  2023-10-19 09:44:28.413218
81  2023-10-19 09:44:28.445121
82  2023-10-19 09:44:28.477763
83  2023-10-19 09:44:28.510030
84  2023-10-19 09:44:28.541944
85  2023-10-19 09:44:28.573571
86  2023-10-19 09:44:28.605520
87  2023-10-19 09:44:28.637433
88  2023-10-19 09:44:28.669348
89  2023-10-19 09:44:28.701230
90  2023-10-19 09:44:28.733199
91  2023-10-19 09:44:28.781049
92  2023-10-19 09:44:28.812974
93  2023-10-19 09:44:28.844871
94  2023-10-19 09:44:28.876802
95  2023-10-19 09:44:28.909673
96  2023-10-19 09:44:28.941587
97  2023-10-19 09:44:28.973537
98  2023-10-19 09:44:29.005447
99  2023-10-19 09:44:29.037331
100  2023-10-19 09:44:29.069246
101  2023-10-19 09:44:29.101202
102  2023-10-19 09:44:29.133076
103  2023-10-19 09:44:29.180994
104  2023-10-19 09:44:29.212863
105  2023-10-19 09:44:29.244778
106  2023-10-19 09:44:29.276721
107  2023-10-19 09:44:29.309637
108  2023-10-19 09:44:29.341520
109  2023-10-19 09:44:29.373434
110  2023-10-19 09:44:29.405388
111  2023-10-19 09:44:29.437367
112  2023-10-19 09:44:29.469370
113  2023-10-19 09:44:29.501251
114  2023-10-19 09:44:29.533178
115  2023-10-19 09:44:29.581069
116  2023-10-19 09:44:29.612953
117  2023-10-19 09:44:29.644867
118  2023-10-19 09:44:29.676827
119  2023-10-19 09:44:29.709770
120  2023-10-19 09:44:29.741642
121  2023-10-19 09:44:29.773523
122  2023-10-19 09:44:29.805468
123  2023-10-19 09:44:29.837395
124  2023-10-19 09:44:29.869309
125  2023-10-19 09:44:29.901182
126  2023-10-19 09:44:29.933128
127  2023-10-19 09:44:29.980969
128  2023-10-19 09:44:30.012932
129  2023-10-19 09:44:30.045850
130  2023-10-19 09:44:30.077710
131  2023-10-19 09:44:30.109625
132  2023-10-19 09:44:30.141540
133  2023-10-19 09:44:30.173488
134  2023-10-19 09:44:30.205377
135  2023-10-19 09:44:30.237317
136  2023-10-19 09:44:30.269241
137  2023-10-19 09:44:30.301152
138  2023-10-19 09:44:30.349017
139  2023-10-19 09:44:30.381897
140  2023-10-19 09:44:30.412814
141  2023-10-19 09:44:30.444778
142  2023-10-19 09:44:30.477732
143  2023-10-19 09:44:30.509587
144  2023-10-19 09:44:30.541470
145  2023-10-19 09:44:30.573385
146  2023-10-19 09:44:30.605340
147  2023-10-19 09:44:30.637245
148  2023-10-19 09:44:30.669129
149  2023-10-19 09:44:30.701043
150  2023-10-19 09:44:30.748961
151  2023-10-19 09:44:30.780830
152  2023-10-19 09:44:30.812778
153  2023-10-19 09:44:30.844688
154  2023-10-19 09:44:30.877572
155  2023-10-19 09:44:30.909486
156  2023-10-19 09:44:30.941401
157  2023-10-19 09:44:30.973348
158  2023-10-19 09:44:31.005281
159  2023-10-19 09:44:31.037186
160  2023-10-19 09:44:31.069060
161  2023-10-19 09:44:31.100974
162  2023-10-19 09:44:31.148892
163  2023-10-19 09:44:31.180793
164  2023-10-19 09:44:31.213673
165  2023-10-19 09:44:31.245616
166  2023-10-19 09:44:31.277503
167  2023-10-19 09:44:31.309448
168  2023-10-19 09:44:31.341363
169  2023-10-19 09:44:31.373247
170  2023-10-19 09:44:31.405161
171  2023-10-19 09:44:31.437108
172  2023-10-19 09:44:31.469055
173  2023-10-19 09:44:31.500905
174  2023-10-19 09:44:31.548777
175  2023-10-19 09:44:31.581689
176  2023-10-19 09:44:31.613604
177  2023-10-19 09:44:31.645550
178  2023-10-19 09:44:31.677465
179  2023-10-19 09:44:31.709379
180  2023-10-19 09:44:31.741314
181  2023-10-19 09:44:31.773210
182  2023-10-19 09:44:31.805092
183  2023-10-19 09:44:31.837069
184  2023-10-19 09:44:31.868967
185  2023-10-19 09:44:31.900867
186  2023-10-19 09:44:31.949706
187  2023-10-19 09:44:31.981654
188  2023-10-19 09:44:32.013535
189  2023-10-19 09:44:32.045450
190  2023-10-19 09:44:32.077364
191  2023-10-19 09:44:32.109309
192  2023-10-19 09:44:32.141224
193  2023-10-19 09:44:32.173108
194  2023-10-19 09:44:32.205023
195  2023-10-19 09:44:32.236987
196  2023-10-19 09:44:32.268883
197  2023-10-19 09:44:32.300814
198  2023-10-19 09:44:32.349636
199  2023-10-19 09:44:32.835340
200  2023-10-19 09:44:32.845312
201  2023-10-19 09:44:32.877227
202  2023-10-19 09:44:32.909199
203  2023-10-19 09:44:32.941087
204  2023-10-19 09:44:32.973017
205  2023-10-19 09:44:33.005933
206  2023-10-19 09:44:33.036846
207  2023-10-19 09:44:33.068787
208  2023-10-19 09:44:33.101626
209  2023-10-19 09:44:33.149498
210  2023-10-19 09:44:33.181444
211  2023-10-19 09:44:33.213328
212  2023-10-19 09:44:33.245242
213  2023-10-19 09:44:33.277157
214  2023-10-19 09:44:33.309105
215  2023-10-19 09:44:33.341030
216  2023-10-19 09:44:33.372901
217  2023-10-19 09:44:33.405813
218  2023-10-19 09:44:33.437736
219  2023-10-19 09:44:33.469643
220  2023-10-19 09:44:33.501557
221  2023-10-19 09:44:33.549461
222  2023-10-19 09:44:33.581344
223  2023-10-19 09:44:33.613258
224  2023-10-19 09:44:33.645208
225  2023-10-19 09:44:33.677145
226  2023-10-19 09:44:33.709002
227  2023-10-19 09:44:33.740917
228  2023-10-19 09:44:33.772832
229  2023-10-19 09:44:33.804795
230  2023-10-19 09:44:33.837658
231  2023-10-19 09:44:33.869573
232  2023-10-19 09:44:33.917445
233  2023-10-19 09:44:33.949393
234  2023-10-19 09:44:33.981275
235  2023-10-19 09:44:34.013189
236  2023-10-19 09:44:34.045104
237  2023-10-19 09:44:34.077019
238  2023-10-19 09:44:34.108934
239  2023-10-19 09:44:34.140881
240  2023-10-19 09:44:34.173831
241  2023-10-19 09:44:34.204848
242  2023-10-19 09:44:34.236808
243  2023-10-19 09:44:34.269751
244  2023-10-19 09:44:34.317643
245  2023-10-19 09:44:34.349506
246  2023-10-19 09:44:34.381465
247  2023-10-19 09:44:34.413335
248  2023-10-19 09:44:34.445250
249  2023-10-19 09:44:34.478212
250  2023-10-19 09:44:34.509112
251  2023-10-19 09:44:34.540994
252  2023-10-19 09:44:34.572909
253  2023-10-19 09:44:34.605821
254  2023-10-19 09:44:34.637736
255  2023-10-19 09:44:34.669650
256  2023-10-19 09:44:34.717522
257  2023-10-19 09:44:34.749437
258  2023-10-19 09:44:34.781351
259  2023-10-19 09:44:34.813266
260  2023-10-19 09:44:34.845181
261  2023-10-19 09:44:34.877095
262  2023-10-19 09:44:34.909010
263  2023-10-19 09:44:34.940969
264  2023-10-19 09:44:34.972897
265  2023-10-19 09:44:35.005752
266  2023-10-19 09:44:35.037711
267  2023-10-19 09:44:35.069581
268  2023-10-19 09:44:35.117453
269  2023-10-19 09:44:35.149399
270  2023-10-19 09:44:35.181328
271  2023-10-19 09:44:35.213197
272  2023-10-19 09:44:35.245112
273  2023-10-19 09:44:35.277027
274  2023-10-19 09:44:35.308971
275  2023-10-19 09:44:35.340856
276  2023-10-19 09:44:35.372770
277  2023-10-19 09:44:35.405683
278  2023-10-19 09:44:35.437597
279  2023-10-19 09:44:35.469512
280  2023-10-19 09:44:35.517384
281  2023-10-19 09:44:35.549298
282  2023-10-19 09:44:35.581213
283  2023-10-19 09:44:35.613128
284  2023-10-19 09:44:35.645042
285  2023-10-19 09:44:35.677083
286  2023-10-19 09:44:35.708998
287  2023-10-19 09:44:35.741034
288  2023-10-19 09:44:35.772955
289  2023-10-19 09:44:35.804863
290  2023-10-19 09:44:35.837776
291  2023-10-19 09:44:35.869702
292  2023-10-19 09:44:35.917562
293  2023-10-19 09:44:35.949477
294  2023-10-19 09:44:35.981392
295  2023-10-19 09:44:36.013307
296  2023-10-19 09:44:36.045266
297  2023-10-19 09:44:36.077144
298  2023-10-19 09:44:36.109051
299  2023-10-19 09:44:36.140965
300  2023-10-19 09:44:36.173877
301  2023-10-19 09:44:36.204827
302  2023-10-19 09:44:36.237706
303  2023-10-19 09:44:36.269621
304  2023-10-19 09:44:36.317493
305  2023-10-19 09:44:36.349463
306  2023-10-19 09:44:36.381360
307  2023-10-19 09:44:36.413238
308  2023-10-19 09:44:36.445152
309  2023-10-19 09:44:36.477066
310  2023-10-19 09:44:36.509013
311  2023-10-19 09:44:36.540937
312  2023-10-19 09:44:36.572875
313  2023-10-19 09:44:36.604841
314  2023-10-19 09:44:36.637753
315  2023-10-19 09:44:36.669668
316  2023-10-19 09:44:36.717540
317  2023-10-19 09:44:36.749454
318  2023-10-19 09:44:36.781369
319  2023-10-19 09:44:36.813326
320  2023-10-19 09:44:36.845199
321  2023-10-19 09:44:36.877125
322  2023-10-19 09:44:36.909028
323  2023-10-19 09:44:36.940943
324  2023-10-19 09:44:36.972905
325  2023-10-19 09:44:37.005769
326  2023-10-19 09:44:37.037684
327  2023-10-19 09:44:37.069599
328  2023-10-19 09:44:37.117471
329  2023-10-19 09:44:37.149385
330  2023-10-19 09:44:37.181327
331  2023-10-19 09:44:37.213215
332  2023-10-19 09:44:37.245130
333  2023-10-19 09:44:37.277044
334  2023-10-19 09:44:37.308990
335  2023-10-19 09:44:37.340873
336  2023-10-19 09:44:37.372788
337  2023-10-19 09:44:37.405700
338  2023-10-19 09:44:37.437650
339  2023-10-19 09:44:37.469565
340  2023-10-19 09:44:37.517433
341  2023-10-19 09:44:37.549316
342  2023-10-19 09:44:37.581231
343  2023-10-19 09:44:37.613146
344  2023-10-19 09:44:37.645110
345  2023-10-19 09:44:37.677023
346  2023-10-19 09:44:37.708889
347  2023-10-19 09:44:37.740804
348  2023-10-19 09:44:37.772766
349  2023-10-19 09:44:37.805665
350  2023-10-19 09:44:37.837546
351  2023-10-19 09:44:37.885418
352  2023-10-19 09:44:37.917332
353  2023-10-19 09:44:38.209606
354  2023-10-19 09:44:38.237543
355  2023-10-19 09:44:38.285382
356  2023-10-19 09:44:38.317298
357  2023-10-19 09:44:38.349262
358  2023-10-19 09:44:38.382092
359  2023-10-19 09:44:38.413153
360  2023-10-19 09:44:38.444922
361  2023-10-19 09:44:38.477834
362  2023-10-19 09:44:38.509752
363  2023-10-19 09:44:38.541664
364  2023-10-19 09:44:38.573578
365  2023-10-19 09:44:38.605493
366  2023-10-19 09:44:38.637408
367  2023-10-19 09:44:38.685279
368  2023-10-19 09:44:38.717279
369  2023-10-19 09:44:38.749210
370  2023-10-19 09:44:38.781109
371  2023-10-19 09:44:38.813085
372  2023-10-19 09:44:38.845019
373  2023-10-19 09:44:38.876938
374  2023-10-19 09:44:38.908853
375  2023-10-19 09:44:38.941765
376  2023-10-19 09:44:38.973763
377  2023-10-19 09:44:39.005594
378  2023-10-19 09:44:39.037509
379  2023-10-19 09:44:39.085381
380  2023-10-19 09:44:39.117296
381  2023-10-19 09:44:39.149210
382  2023-10-19 09:44:39.181168
383  2023-10-19 09:44:39.213041
384  2023-10-19 09:44:39.244956
385  2023-10-19 09:44:39.276870
386  2023-10-19 09:44:39.308815
387  2023-10-19 09:44:39.340733
388  2023-10-19 09:44:39.373612
389  2023-10-19 09:44:39.405526
390  2023-10-19 09:44:39.437471
391  2023-10-19 09:44:39.485313
392  2023-10-19 09:44:39.517259
393  2023-10-19 09:44:39.549142
394  2023-10-19 09:44:39.581057
395  2023-10-19 09:44:39.612972
396  2023-10-19 09:44:39.644917
397  2023-10-19 09:44:39.676801
398  2023-10-19 09:44:39.709713
399  2023-10-19 09:44:39.741628
400  2023-10-19 09:44:39.773543
401  2023-10-19 09:44:39.805458
402  2023-10-19 09:44:39.837372
403  2023-10-19 09:44:39.885244
404  2023-10-19 09:44:39.917159
405  2023-10-19 09:44:39.949073
406  2023-10-19 09:44:39.980988
407  2023-10-19 09:44:40.012903
408  2023-10-19 09:44:40.044817
409  2023-10-19 09:44:40.077729
410  2023-10-19 09:44:40.109644
411  2023-10-19 09:44:40.141559
412  2023-10-19 09:44:40.173474
413  2023-10-19 09:44:40.205388
414  2023-10-19 09:44:40.237303
415  2023-10-19 09:44:40.286175
416  2023-10-19 09:44:40.317203
417  2023-10-19 09:44:40.350117
418  2023-10-19 09:44:40.381032
419  2023-10-19 09:44:40.412947
420  2023-10-19 09:44:40.444896
421  2023-10-19 09:44:40.476778
422  2023-10-19 09:44:40.509690
423  2023-10-19 09:44:40.541652
424  2023-10-19 09:44:40.573518
425  2023-10-19 09:44:40.605442
426  2023-10-19 09:44:40.637379
427  2023-10-19 09:44:40.685219
428  2023-10-19 09:44:40.717178
429  2023-10-19 09:44:40.749048
430  2023-10-19 09:44:40.781996
431  2023-10-19 09:44:40.812878
432  2023-10-19 09:44:40.845791
433  2023-10-19 09:44:40.877705
434  2023-10-19 09:44:40.909619
435  2023-10-19 09:44:40.941540
436  2023-10-19 09:44:40.973449
437  2023-10-19 09:44:41.006387
438  2023-10-19 09:44:41.037278
439  2023-10-19 09:44:41.085150
440  2023-10-19 09:44:41.117065
441  2023-10-19 09:44:41.148979
442  2023-10-19 09:44:41.181906
443  2023-10-19 09:44:41.212809
444  2023-10-19 09:44:41.244723
445  2023-10-19 09:44:41.277636
446  2023-10-19 09:44:41.309583
447  2023-10-19 09:44:41.341466
448  2023-10-19 09:44:41.373429
449  2023-10-19 09:44:41.405295
450  2023-10-19 09:44:41.453198
451  2023-10-19 09:44:41.485081
452  2023-10-19 09:44:41.517036
453  2023-10-19 09:44:41.548910
454  2023-10-19 09:44:41.580825
455  2023-10-19 09:44:41.613737
456  2023-10-19 09:44:41.645696
457  2023-10-19 09:44:41.677598
458  2023-10-19 09:44:41.709481
459  2023-10-19 09:44:41.741430
460  2023-10-19 09:44:41.773343
461  2023-10-19 09:44:41.805256
462  2023-10-19 09:44:41.853124
463  2023-10-19 09:44:41.885013
464  2023-10-19 09:44:41.916982
465  2023-10-19 09:44:41.948842
466  2023-10-19 09:44:41.980756
467  2023-10-19 09:44:42.012672
468  2023-10-19 09:44:42.045616
469  2023-10-19 09:44:42.077531
470  2023-10-19 09:44:42.109446
471  2023-10-19 09:44:42.141360
472  2023-10-19 09:44:42.173276
473  2023-10-19 09:44:42.205156
474  2023-10-19 09:44:42.254027
475  2023-10-19 09:44:42.285941
476  2023-10-19 09:44:42.317858
477  2023-10-19 09:44:42.348822
478  2023-10-19 09:44:42.381686
479  2023-10-19 09:44:42.413631
480  2023-10-19 09:44:42.445551
481  2023-10-19 09:44:42.477461
482  2023-10-19 09:44:42.509377
483  2023-10-19 09:44:42.541258
484  2023-10-19 09:44:42.573173
485  2023-10-19 09:44:42.605128
486  2023-10-19 09:44:42.652959
487  2023-10-19 09:44:42.684921
488  2023-10-19 09:44:42.716837
489  2023-10-19 09:44:42.749744
490  2023-10-19 09:44:42.781647
491  2023-10-19 09:44:42.813586
492  2023-10-19 09:44:42.845475
493  2023-10-19 09:44:42.877359
494  2023-10-19 09:44:42.909306
495  2023-10-19 09:44:42.941222
496  2023-10-19 09:44:42.973145
497  2023-10-19 09:44:43.005018
498  2023-10-19 09:44:43.052921
499  2023-10-19 09:44:43.084806
500  2023-10-19 09:44:43.117745
501  2023-10-19 09:44:43.149674
502  2023-10-19 09:44:43.181571
503  2023-10-19 09:44:43.213495
504  2023-10-19 09:44:43.245409
505  2023-10-19 09:44:43.277337
506  2023-10-19 09:44:43.309240
507  2023-10-19 09:44:43.341119
508  2023-10-19 09:44:43.373072
509  2023-10-19 09:44:43.404982
510  2023-10-19 09:44:43.452853
511  2023-10-19 09:44:43.484789
512  2023-10-19 09:44:43.517695
513  2023-10-19 09:44:43.549597
514  2023-10-19 09:44:43.581477
515  2023-10-19 09:44:43.614442
516  2023-10-19 09:44:43.644899
517  2023-10-19 09:44:43.676814
518  2023-10-19 09:44:43.709724
519  2023-10-19 09:44:43.741702
520  2023-10-19 09:44:43.773629
521  2023-10-19 09:44:43.805630
522  2023-10-19 09:44:44.158687
523  2023-10-19 09:44:44.173703
524  2023-10-19 09:44:44.205616
525  2023-10-19 09:44:44.253477
526  2023-10-19 09:44:44.285398
527  2023-10-19 09:44:44.317293
528  2023-10-19 09:44:44.349217
529  2023-10-19 09:44:44.381209
530  2023-10-19 09:44:44.413122
531  2023-10-19 09:44:44.445028
532  2023-10-19 09:44:44.476948
533  2023-10-19 09:44:44.508863
534  2023-10-19 09:44:44.541807
535  2023-10-19 09:44:44.573657
536  2023-10-19 09:44:44.605607
537  2023-10-19 09:44:44.653470
538  2023-10-19 09:44:44.685359
539  2023-10-19 09:44:44.717314
540  2023-10-19 09:44:44.749222
541  2023-10-19 09:44:44.781103
542  2023-10-19 09:44:44.813018
543  2023-10-19 09:44:44.844934
544  2023-10-19 09:44:44.877844
545  2023-10-19 09:44:44.908761
546  2023-10-19 09:44:44.941674
547  2023-10-19 09:44:44.973615
548  2023-10-19 09:44:45.005503
549  2023-10-19 09:44:45.053375
550  2023-10-19 09:44:45.085290
551  2023-10-19 09:44:45.117206
552  2023-10-19 09:44:45.149119
553  2023-10-19 09:44:45.181319
554  2023-10-19 09:44:45.213236
555  2023-10-19 09:44:45.245165
556  2023-10-19 09:44:45.277102
557  2023-10-19 09:44:45.309069
558  2023-10-19 09:44:45.340978
559  2023-10-19 09:44:45.372871
560  2023-10-19 09:44:45.421795
561  2023-10-19 09:44:45.453702
562  2023-10-19 09:44:45.485616
563  2023-10-19 09:44:45.517510
564  2023-10-19 09:44:45.549418
565  2023-10-19 09:44:45.581338
566  2023-10-19 09:44:45.613266
567  2023-10-19 09:44:45.645181
568  2023-10-19 09:44:45.677093
569  2023-10-19 09:44:45.708991
570  2023-10-19 09:44:45.740916
571  2023-10-19 09:44:45.773831
572  2023-10-19 09:44:45.820701
573  2023-10-19 09:44:45.853613
574  2023-10-19 09:44:45.885526
575  2023-10-19 09:44:45.917434
576  2023-10-19 09:44:45.949350
577  2023-10-19 09:44:45.981279
578  2023-10-19 09:44:46.013196
579  2023-10-19 09:44:46.045099
580  2023-10-19 09:44:46.077030
581  2023-10-19 09:44:46.108935
582  2023-10-19 09:44:46.141864
583  2023-10-19 09:44:46.173727
584  2023-10-19 09:44:46.221763
585  2023-10-19 09:44:46.253646
586  2023-10-19 09:44:46.285614
587  2023-10-19 09:44:46.317526
588  2023-10-19 09:44:46.349451
589  2023-10-19 09:44:46.381361
590  2023-10-19 09:44:46.413250
591  2023-10-19 09:44:46.445206
592  2023-10-19 09:44:46.477105
593  2023-10-19 09:44:46.510011
594  2023-10-19 09:44:46.540920
595  2023-10-19 09:44:46.572899
596  2023-10-19 09:44:46.621704
597  2023-10-19 09:44:46.653578
598  2023-10-19 09:44:46.685541
599  2023-10-19 09:44:46.717416
600  2023-10-19 09:44:46.749352
601  2023-10-19 09:44:46.781279
602  2023-10-19 09:44:46.813183
603  2023-10-19 09:44:46.845123
604  2023-10-19 09:44:46.877009
605  2023-10-19 09:44:46.908930
606  2023-10-19 09:44:46.940843
607  2023-10-19 09:44:46.973747
608  2023-10-19 09:44:47.021625
609  2023-10-19 09:44:47.053540
610  2023-10-19 09:44:47.085453
611  2023-10-19 09:44:47.117361
612  2023-10-19 09:44:47.149281
613  2023-10-19 09:44:47.181208
614  2023-10-19 09:44:47.213143
615  2023-10-19 09:44:47.245027
616  2023-10-19 09:44:47.276956
617  2023-10-19 09:44:47.308848
618  2023-10-19 09:44:47.340773
619  2023-10-19 09:44:47.373713
620  2023-10-19 09:44:47.421553
621  2023-10-19 09:44:47.453488
622  2023-10-19 09:44:47.485384
623  2023-10-19 09:44:47.517318
624  2023-10-19 09:44:47.549210
625  2023-10-19 09:44:47.581133
626  2023-10-19 09:44:47.613035
627  2023-10-19 09:44:47.644971
628  2023-10-19 09:44:47.676866
629  2023-10-19 09:44:47.709825
630  2023-10-19 09:44:47.741669
631  2023-10-19 09:44:47.773609
632  2023-10-19 09:44:47.821488
633  2023-10-19 09:44:47.853369
634  2023-10-19 09:44:47.885356
635  2023-10-19 09:44:47.917231
636  2023-10-19 09:44:47.949164
637  2023-10-19 09:44:47.981073
638  2023-10-19 09:44:48.013976
639  2023-10-19 09:44:48.044883
640  2023-10-19 09:44:48.076809
641  2023-10-19 09:44:48.109691
642  2023-10-19 09:44:48.141606
643  2023-10-19 09:44:48.173556
644  2023-10-19 09:44:48.221428
645  2023-10-19 09:44:48.253386
646  2023-10-19 09:44:48.285289
647  2023-10-19 09:44:48.317207
648  2023-10-19 09:44:48.349087
649  2023-10-19 09:44:48.381041
650  2023-10-19 09:44:48.412947
651  2023-10-19 09:44:48.444860
652  2023-10-19 09:44:48.476778
653  2023-10-19 09:44:48.509719
654  2023-10-19 09:44:48.541600
655  2023-10-19 09:44:48.573491
656  2023-10-19 09:44:48.621402
657  2023-10-19 09:44:48.653321
658  2023-10-19 09:44:48.685231
659  2023-10-19 09:44:48.717146
660  2023-10-19 09:44:48.749043
661  2023-10-19 09:44:48.780963
662  2023-10-19 09:44:48.812911
663  2023-10-19 09:44:48.845797
664  2023-10-19 09:44:48.877723
665  2023-10-19 09:44:48.909621
666  2023-10-19 09:44:48.941559
667  2023-10-19 09:44:48.989407
668  2023-10-19 09:44:49.021314
669  2023-10-19 09:44:49.054205
670  2023-10-19 09:44:49.086219
671  2023-10-19 09:44:49.118134
672  2023-10-19 09:44:49.149051
673  2023-10-19 09:44:49.181962
674  2023-10-19 09:44:49.213883
675  2023-10-19 09:44:49.245845
676  2023-10-19 09:44:49.277705
677  2023-10-19 09:44:49.309620
678  2023-10-19 09:44:49.341539
679  2023-10-19 09:44:49.389503
680  2023-10-19 09:44:49.421387
681  2023-10-19 09:44:49.800384
682  2023-10-19 09:44:49.821377
683  2023-10-19 09:44:49.853263
684  2023-10-19 09:44:49.885189
685  2023-10-19 09:44:49.917118
686  2023-10-19 09:44:49.949001
687  2023-10-19 09:44:49.980917
688  2023-10-19 09:44:50.012839
689  2023-10-19 09:44:50.045754
690  2023-10-19 09:44:50.077659
691  2023-10-19 09:44:50.109582
692  2023-10-19 09:44:50.141492
693  2023-10-19 09:44:50.189364
694  2023-10-19 09:44:50.221273
695  2023-10-19 09:44:50.254163
696  2023-10-19 09:44:50.285081
697  2023-10-19 09:44:50.318022
698  2023-10-19 09:44:50.349937
699  2023-10-19 09:44:50.381845
700  2023-10-19 09:44:50.413736
701  2023-10-19 09:44:50.445691
702  2023-10-19 09:44:50.477598
703  2023-10-19 09:44:50.509528
704  2023-10-19 09:44:50.541394
705  2023-10-19 09:44:50.589267
706  2023-10-19 09:44:50.621181
707  2023-10-19 09:44:50.653105
708  2023-10-19 09:44:50.685039
709  2023-10-19 09:44:50.717989
710  2023-10-19 09:44:50.748890
711  2023-10-19 09:44:50.781751
712  2023-10-19 09:44:50.813694
713  2023-10-19 09:44:50.845608
714  2023-10-19 09:44:50.877538
715  2023-10-19 09:44:50.909434
716  2023-10-19 09:44:50.941325
717  2023-10-19 09:44:50.989224
718  2023-10-19 09:44:51.021145
719  2023-10-19 09:44:51.053064
720  2023-10-19 09:44:51.084979
721  2023-10-19 09:44:51.116894
722  2023-10-19 09:44:51.148820
723  2023-10-19 09:44:51.181713
724  2023-10-19 09:44:51.213597
725  2023-10-19 09:44:51.245534
726  2023-10-19 09:44:51.277449
727  2023-10-19 09:44:51.309370
728  2023-10-19 09:44:51.341256
729  2023-10-19 09:44:51.389158
730  2023-10-19 09:44:51.421042
731  2023-10-19 09:44:51.452957
732  2023-10-19 09:44:51.484903
733  2023-10-19 09:44:51.516820
734  2023-10-19 09:44:51.548733
735  2023-10-19 09:44:51.581613
736  2023-10-19 09:44:51.613526
737  2023-10-19 09:44:51.645470
738  2023-10-19 09:44:51.677387
739  2023-10-19 09:44:51.709312
740  2023-10-19 09:44:51.741186
741  2023-10-19 09:44:51.789095
742  2023-10-19 09:44:51.820974
743  2023-10-19 09:44:51.852888
744  2023-10-19 09:44:51.885838
745  2023-10-19 09:44:51.916748
746  2023-10-19 09:44:51.949657
747  2023-10-19 09:44:51.981570
748  2023-10-19 09:44:52.013460
749  2023-10-19 09:44:52.045400
750  2023-10-19 09:44:52.077319
751  2023-10-19 09:44:52.109247
752  2023-10-19 09:44:52.141141
753  2023-10-19 09:44:52.189035
754  2023-10-19 09:44:52.221061
755  2023-10-19 09:44:52.253090
756  2023-10-19 09:44:52.285053
757  2023-10-19 09:44:52.316951
758  2023-10-19 09:44:52.348891
759  2023-10-19 09:44:52.380915
760  2023-10-19 09:44:52.412830
761  2023-10-19 09:44:52.444794
762  2023-10-19 09:44:52.477705
763  2023-10-19 09:44:52.509712
764  2023-10-19 09:44:52.557629
765  2023-10-19 09:44:52.589535
766  2023-10-19 09:44:52.621424
767  2023-10-19 09:44:52.653339
768  2023-10-19 09:44:52.685254
769  2023-10-19 09:44:52.717169
770  2023-10-19 09:44:52.749146
771  2023-10-19 09:44:52.781000
772  2023-10-19 09:44:52.812913
773  2023-10-19 09:44:52.845853
774  2023-10-19 09:44:52.877770
775  2023-10-19 09:44:52.909678
776  2023-10-19 09:44:52.957553
777  2023-10-19 09:44:52.989485
778  2023-10-19 09:44:53.021360
779  2023-10-19 09:44:53.053300
780  2023-10-19 09:44:53.085184
781  2023-10-19 09:44:53.117145
782  2023-10-19 09:44:53.149042
783  2023-10-19 09:44:53.181963
784  2023-10-19 09:44:53.213878
785  2023-10-19 09:44:53.245782
786  2023-10-19 09:44:53.277720
787  2023-10-19 09:44:53.309646
788  2023-10-19 09:44:53.357457
789  2023-10-19 09:44:53.389406
790  2023-10-19 09:44:53.421360
791  2023-10-19 09:44:53.453200
792  2023-10-19 09:44:53.485115
793  2023-10-19 09:44:53.517066
794  2023-10-19 09:44:53.549993
795  2023-10-19 09:44:53.580892
796  2023-10-19 09:44:53.612773
797  2023-10-19 09:44:53.645686
798  2023-10-19 09:44:53.677654
799  2023-10-19 09:44:53.709547
800  2023-10-19 09:44:53.757421
801  2023-10-19 09:44:53.789334
802  2023-10-19 09:44:53.821261
803  2023-10-19 09:44:53.853167
804  2023-10-19 09:44:53.885082
805  2023-10-19 09:44:53.917008
806  2023-10-19 09:44:53.948923
807  2023-10-19 09:44:53.980844
808  2023-10-19 09:44:54.013746
809  2023-10-19 09:44:54.045616
810  2023-10-19 09:44:54.077575
811  2023-10-19 09:44:54.109470
812  2023-10-19 09:44:54.157365
813  2023-10-19 09:44:54.189272
814  2023-10-19 09:44:54.221194
815  2023-10-19 09:44:54.253062
816  2023-10-19 09:44:54.284976
817  2023-10-19 09:44:54.316923
818  2023-10-19 09:44:54.348838
819  2023-10-19 09:44:54.381719
820  2023-10-19 09:44:54.413632
821  2023-10-19 09:44:54.445547
822  2023-10-19 09:44:54.477487
823  2023-10-19 09:44:54.509377
824  2023-10-19 09:44:54.557249
825  2023-10-19 09:44:54.589163
826  2023-10-19 09:44:54.621102
827  2023-10-19 09:44:54.652993
828  2023-10-19 09:44:54.684941
829  2023-10-19 09:44:54.716864
830  2023-10-19 09:44:54.748877
831  2023-10-19 09:44:54.780792
832  2023-10-19 09:44:54.813658
833  2023-10-19 09:44:54.845606
834  2023-10-19 09:44:54.877560
835  2023-10-19 09:44:54.909402
836  2023-10-19 09:44:54.957274
837  2023-10-19 09:44:54.989189
838  2023-10-19 09:44:55.201667
839  2023-10-19 09:44:55.213630
840  2023-10-19 09:44:55.245505
841  2023-10-19 09:44:55.277482
842  2023-10-19 09:44:55.310371
843  2023-10-19 09:44:55.357205
844  2023-10-19 09:44:55.389121
845  2023-10-19 09:44:55.421034
846  2023-10-19 09:44:55.452981
847  2023-10-19 09:44:55.484863
848  2023-10-19 09:44:55.516787
849  2023-10-19 09:44:55.549744
850  2023-10-19 09:44:55.581605
851  2023-10-19 09:44:55.613519
852  2023-10-19 09:44:55.645484
853  2023-10-19 09:44:55.677349
854  2023-10-19 09:44:55.709264
855  2023-10-19 09:44:55.757167
856  2023-10-19 09:44:55.789060
857  2023-10-19 09:44:55.820965
858  2023-10-19 09:44:55.852912
859  2023-10-19 09:44:55.884841
860  2023-10-19 09:44:55.917706
861  2023-10-19 09:44:55.949621
862  2023-10-19 09:44:55.981536
863  2023-10-19 09:44:56.013482
864  2023-10-19 09:44:56.045365
865  2023-10-19 09:44:56.077280
866  2023-10-19 09:44:56.109195
867  2023-10-19 09:44:56.157066
868  2023-10-19 09:44:56.189026
869  2023-10-19 09:44:56.220944
870  2023-10-19 09:44:56.252811
871  2023-10-19 09:44:56.285724
872  2023-10-19 09:44:56.317676
873  2023-10-19 09:44:56.349576
874  2023-10-19 09:44:56.381466
875  2023-10-19 09:44:56.413416
876  2023-10-19 09:44:56.445296
877  2023-10-19 09:44:56.477245
878  2023-10-19 09:44:56.525129
879  2023-10-19 09:44:56.556997
880  2023-10-19 09:44:56.588963
881  2023-10-19 09:44:56.620827
882  2023-10-19 09:44:56.652795
883  2023-10-19 09:44:56.685654
884  2023-10-19 09:44:56.717568
885  2023-10-19 09:44:56.749483
886  2023-10-19 09:44:56.781397
887  2023-10-19 09:44:56.813312
888  2023-10-19 09:44:56.845227
889  2023-10-19 09:44:56.877141
890  2023-10-19 09:44:56.925013
891  2023-10-19 09:44:56.957926
892  2023-10-19 09:44:56.989841
893  2023-10-19 09:44:57.021755
894  2023-10-19 09:44:57.053671
895  2023-10-19 09:44:57.085588
896  2023-10-19 09:44:57.117499
897  2023-10-19 09:44:57.149415
898  2023-10-19 09:44:57.181331
899  2023-10-19 09:44:57.214241
900  2023-10-19 09:44:57.245158
901  2023-10-19 09:44:57.277072
902  2023-10-19 09:44:57.324944
903  2023-10-19 09:44:57.356859
904  2023-10-19 09:44:57.389772
905  2023-10-19 09:44:57.421749
906  2023-10-19 09:44:57.453600
907  2023-10-19 09:44:57.485560
908  2023-10-19 09:44:57.517462
909  2023-10-19 09:44:57.549393
910  2023-10-19 09:44:57.581286
911  2023-10-19 09:44:57.613174
912  2023-10-19 09:44:57.645088
913  2023-10-19 09:44:57.677036
914  2023-10-19 09:44:57.724943
915  2023-10-19 09:44:57.756959
916  2023-10-19 09:44:57.788839
917  2023-10-19 09:44:57.821751
918  2023-10-19 09:44:57.853666
919  2023-10-19 09:44:57.885581
920  2023-10-19 09:44:57.917495
921  2023-10-19 09:44:57.949569
922  2023-10-19 09:44:57.981514
923  2023-10-19 09:44:58.013424
924  2023-10-19 09:44:58.045344
925  2023-10-19 09:44:58.077228
926  2023-10-19 09:44:58.125100
927  2023-10-19 09:44:58.157015
928  2023-10-19 09:44:58.188930
929  2023-10-19 09:44:58.220880
930  2023-10-19 09:44:58.252763
931  2023-10-19 09:44:58.285704
932  2023-10-19 09:44:58.317619
933  2023-10-19 09:44:58.349565
934  2023-10-19 09:44:58.381448
935  2023-10-19 09:44:58.413363
936  2023-10-19 09:44:58.445278
937  2023-10-19 09:44:58.477226
938  2023-10-19 09:44:58.525148
939  2023-10-19 09:44:58.557050
940  2023-10-19 09:44:58.588966
941  2023-10-19 09:44:58.620880
942  2023-10-19 09:44:58.652795
943  2023-10-19 09:44:58.684740
944  2023-10-19 09:44:58.717622
945  2023-10-19 09:44:58.749536
946  2023-10-19 09:44:58.781451
947  2023-10-19 09:44:58.813366
948  2023-10-19 09:44:58.845280
949  2023-10-19 09:44:58.877195
950  2023-10-19 09:44:58.925067
951  2023-10-19 09:44:58.956982
952  2023-10-19 09:44:58.988897
953  2023-10-19 09:44:59.020811
954  2023-10-19 09:44:59.053723
955  2023-10-19 09:44:59.085638
956  2023-10-19 09:44:59.117553
957  2023-10-19 09:44:59.149468
958  2023-10-19 09:44:59.181428
959  2023-10-19 09:44:59.213297
960  2023-10-19 09:44:59.245212
961  2023-10-19 09:44:59.277175
962  2023-10-19 09:44:59.324998
963  2023-10-19 09:44:59.356913
964  2023-10-19 09:44:59.388827
965  2023-10-19 09:44:59.421739
966  2023-10-19 09:44:59.453654
967  2023-10-19 09:44:59.485569
968  2023-10-19 09:44:59.517483
969  2023-10-19 09:44:59.549398
970  2023-10-19 09:44:59.581313
971  2023-10-19 09:44:59.613228
972  2023-10-19 09:44:59.645142
973  2023-10-19 09:44:59.678057
974  2023-10-19 09:44:59.725926
975  2023-10-19 09:44:59.757841
976  2023-10-19 09:44:59.789758
977  2023-10-19 09:44:59.821673
978  2023-10-19 09:44:59.853585
979  2023-10-19 09:44:59.885501
980  2023-10-19 09:44:59.918419
981  2023-10-19 09:44:59.949332
982  2023-10-19 09:44:59.981244
983  2023-10-19 09:45:00.014157
984  2023-10-19 09:45:00.046073
985  2023-10-19 09:45:00.092983
986  2023-10-19 09:45:00.124861
987  2023-10-19 09:45:00.156776
988  2023-10-19 09:45:00.189688
989  2023-10-19 09:45:00.221603
990  2023-10-19 09:45:00.307421
991  2023-10-19 09:45:00.317347
992  2023-10-19 09:45:00.349289
993  2023-10-19 09:45:00.381227
994  2023-10-19 09:45:00.413090
995  2023-10-19 09:45:00.445067
996  2023-10-19 09:45:00.492939
997  2023-10-19 09:45:00.524854
998  2023-10-19 09:45:00.557768
999  2023-10-19 09:45:00.589716
1000  2023-10-19 09:45:00.621596
1001  2023-10-19 09:45:00.653510
1002  2023-10-19 09:45:00.685472
1003  2023-10-19 09:45:00.717369
1004  2023-10-19 09:45:00.749254
1005  2023-10-19 09:45:00.781169
1006  2023-10-19 09:45:00.813118
1007  2023-10-19 09:45:00.845001
1008  2023-10-19 09:45:00.892917
1009  2023-10-19 09:45:00.925782
1010  2023-10-19 09:45:00.957697
1011  2023-10-19 09:45:00.989612
1012  2023-10-19 09:45:01.021604
1013  2023-10-19 09:45:01.053469
1014  2023-10-19 09:45:01.085356
1015  2023-10-19 09:45:01.117271
1016  2023-10-19 09:45:01.149214
1017  2023-10-19 09:45:01.181143
1018  2023-10-19 09:45:01.213014
1019  2023-10-19 09:45:01.245927
1020  2023-10-19 09:45:01.293800
1021  2023-10-19 09:45:01.325713
1022  2023-10-19 09:45:01.357654
1023  2023-10-19 09:45:01.389577
1024  2023-10-19 09:45:01.421457
1025  2023-10-19 09:45:01.453372
1026  2023-10-19 09:45:01.485333
1027  2023-10-19 09:45:01.517202
1028  2023-10-19 09:45:01.550146
1029  2023-10-19 09:45:01.582060
1030  2023-10-19 09:45:01.613944
1031  2023-10-19 09:45:01.645862
1032  2023-10-19 09:45:01.693730
1033  2023-10-19 09:45:01.725645
1034  2023-10-19 09:45:01.757560
1035  2023-10-19 09:45:01.789474
1036  2023-10-19 09:45:01.821437
1037  2023-10-19 09:45:01.853303
1038  2023-10-19 09:45:01.885265
1039  2023-10-19 09:45:01.917132
1040  2023-10-19 09:45:01.949047
1041  2023-10-19 09:45:01.980962
1042  2023-10-19 09:45:02.013874
1043  2023-10-19 09:45:02.045794
1044  2023-10-19 09:45:02.093661
1045  2023-10-19 09:45:02.125601
1046  2023-10-19 09:45:02.157521
1047  2023-10-19 09:45:02.189406
1048  2023-10-19 09:45:02.221321
1049  2023-10-19 09:45:02.253247
1050  2023-10-19 09:45:02.285150
1051  2023-10-19 09:45:02.317063
1052  2023-10-19 09:45:02.348978
1053  2023-10-19 09:45:02.381925
1054  2023-10-19 09:45:02.412858
1055  2023-10-19 09:45:02.445788
1056  2023-10-19 09:45:02.493591
1057  2023-10-19 09:45:02.525538
1058  2023-10-19 09:45:02.557459
1059  2023-10-19 09:45:02.589367
1060  2023-10-19 09:45:02.621281
1061  2023-10-19 09:45:02.653202
1062  2023-10-19 09:45:02.685138
1063  2023-10-19 09:45:02.716996
1064  2023-10-19 09:45:02.748910
1065  2023-10-19 09:45:02.780824
1066  2023-10-19 09:45:02.812793
1067  2023-10-19 09:45:02.845681
1068  2023-10-19 09:45:02.893556
1069  2023-10-19 09:45:02.925437
1070  2023-10-19 09:45:02.957352
1071  2023-10-19 09:45:02.989266
1072  2023-10-19 09:45:03.021213
1073  2023-10-19 09:45:03.053130
1074  2023-10-19 09:45:03.085040
1075  2023-10-19 09:45:03.117926
1076  2023-10-19 09:45:03.149838
1077  2023-10-19 09:45:03.181752
1078  2023-10-19 09:45:03.213667
1079  2023-10-19 09:45:03.245583
1080  2023-10-19 09:45:03.293453
1081  2023-10-19 09:45:03.325368
1082  2023-10-19 09:45:03.357283
1083  2023-10-19 09:45:03.389225
1084  2023-10-19 09:45:03.421144
1085  2023-10-19 09:45:03.453027
1086  2023-10-19 09:45:03.484972
1087  2023-10-19 09:45:03.516889
1088  2023-10-19 09:45:03.549801
1089  2023-10-19 09:45:03.581734
1090  2023-10-19 09:45:03.613628
1091  2023-10-19 09:45:03.645546
1092  2023-10-19 09:45:03.693384
1093  2023-10-19 09:45:03.725325
1094  2023-10-19 09:45:03.757247
1095  2023-10-19 09:45:03.789179
1096  2023-10-19 09:45:03.821075
1097  2023-10-19 09:45:03.852994
1098  2023-10-19 09:45:03.885906
1099  2023-10-19 09:45:03.916818
1100  2023-10-19 09:45:03.949725
1101  2023-10-19 09:45:03.981645
1102  2023-10-19 09:45:04.013529
1103  2023-10-19 09:45:04.061451
1104  2023-10-19 09:45:04.093342
1105  2023-10-19 09:45:04.125259
1106  2023-10-19 09:45:04.157195
1107  2023-10-19 09:45:04.189115
1108  2023-10-19 09:45:04.221007
1109  2023-10-19 09:45:04.252921
1110  2023-10-19 09:45:04.284838
1111  2023-10-19 09:45:04.316750
1112  2023-10-19 09:45:04.349664
1113  2023-10-19 09:45:04.381583
1114  2023-10-19 09:45:04.413493
1115  2023-10-19 09:45:04.461364
1116  2023-10-19 09:45:04.493245
1117  2023-10-19 09:45:04.525229
1118  2023-10-19 09:45:04.557114
1119  2023-10-19 09:45:04.589025
1120  2023-10-19 09:45:04.620904
1121  2023-10-19 09:45:04.653851
1122  2023-10-19 09:45:04.684759
1123  2023-10-19 09:45:04.717709
1124  2023-10-19 09:45:04.749593
1125  2023-10-19 09:45:04.781506
1126  2023-10-19 09:45:04.813429
1127  2023-10-19 09:45:04.861263
1128  2023-10-19 09:45:04.893203
1129  2023-10-19 09:45:04.925124
1130  2023-10-19 09:45:04.957061
1131  2023-10-19 09:45:04.988966
1132  2023-10-19 09:45:05.020870
1133  2023-10-19 09:45:05.052797
1134  2023-10-19 09:45:05.085698
1135  2023-10-19 09:45:05.117610
1136  2023-10-19 09:45:05.149523
1137  2023-10-19 09:45:05.181437
1138  2023-10-19 09:45:05.213351
1139  2023-10-19 09:45:05.261250
1140  2023-10-19 09:45:05.293169
1141  2023-10-19 09:45:05.325080
1142  2023-10-19 09:45:05.357060
1143  2023-10-19 09:45:05.388943
1144  2023-10-19 09:45:05.420858
1145  2023-10-19 09:45:05.453797
1146  2023-10-19 09:45:05.485712
1147  2023-10-19 09:45:05.517600
1148  2023-10-19 09:45:05.549512
1149  2023-10-19 09:45:05.581426
1150  2023-10-19 09:45:05.613341
1151  2023-10-19 09:45:05.661337
1152  2023-10-19 09:45:05.693252
1153  2023-10-19 09:45:05.725217
1154  2023-10-19 09:45:05.758117
1155  2023-10-19 09:45:05.790000
1156  2023-10-19 09:45:05.820914
1157  2023-10-19 09:45:05.853865
1158  2023-10-19 09:45:05.885741
1159  2023-10-19 09:45:05.996531
1160  2023-10-19 09:45:06.013397
1161  2023-10-19 09:45:06.061406
1162  2023-10-19 09:45:06.093295
1163  2023-10-19 09:45:06.125243
1164  2023-10-19 09:45:06.157161
1165  2023-10-19 09:45:06.189074
1166  2023-10-19 09:45:06.220985
1167  2023-10-19 09:45:06.252901
1168  2023-10-19 09:45:06.285830
1169  2023-10-19 09:45:06.317719
1170  2023-10-19 09:45:06.349633
1171  2023-10-19 09:45:06.381565
1172  2023-10-19 09:45:06.413468
1173  2023-10-19 09:45:06.461310
1174  2023-10-19 09:45:06.493225
1175  2023-10-19 09:45:06.525182
1176  2023-10-19 09:45:06.557101
1177  2023-10-19 09:45:06.589031
1178  2023-10-19 09:45:06.621906
1179  2023-10-19 09:45:06.653812
1180  2023-10-19 09:45:06.685761
1181  2023-10-19 09:45:06.717627
1182  2023-10-19 09:45:06.749540
1183  2023-10-19 09:45:06.781456
1184  2023-10-19 09:45:06.814398
1185  2023-10-19 09:45:06.861253
1186  2023-10-19 09:45:06.894188
1187  2023-10-19 09:45:06.926104
1188  2023-10-19 09:45:06.956999
1189  2023-10-19 09:45:06.989899
1190  2023-10-19 09:45:07.020815
1191  2023-10-19 09:45:07.053761
1192  2023-10-19 09:45:07.085679
1193  2023-10-19 09:45:07.117615
1194  2023-10-19 09:45:07.149506
1195  2023-10-19 09:45:07.182418
1196  2023-10-19 09:45:07.214329
1197  2023-10-19 09:45:07.262217
1198  2023-10-19 09:45:07.293155
1199  2023-10-19 09:45:07.326035
1200  2023-10-19 09:45:07.356950
1201  2023-10-19 09:45:07.389879
1202  2023-10-19 09:45:07.421777
1203  2023-10-19 09:45:07.453700
1204  2023-10-19 09:45:07.485608
1205  2023-10-19 09:45:07.517530
1206  2023-10-19 09:45:07.549437
1207  2023-10-19 09:45:07.581351
1208  2023-10-19 09:45:07.629224
1209  2023-10-19 09:45:07.661140
1210  2023-10-19 09:45:07.693061
1211  2023-10-19 09:45:07.724984
1212  2023-10-19 09:45:07.756896
1213  2023-10-19 09:45:07.788791
1214  2023-10-19 09:45:07.821679
1215  2023-10-19 09:45:07.853657
1216  2023-10-19 09:45:07.885536
1217  2023-10-19 09:45:07.917452
1218  2023-10-19 09:45:07.949447
1219  2023-10-19 09:45:07.981318
1220  2023-10-19 09:45:08.029294
1221  2023-10-19 09:45:08.061242
1222  2023-10-19 09:45:08.093159
1223  2023-10-19 09:45:08.125079
1224  2023-10-19 09:45:08.156985
1225  2023-10-19 09:45:08.188915
1226  2023-10-19 09:45:08.220816
1227  2023-10-19 09:45:08.252731
1228  2023-10-19 09:45:08.285676
1229  2023-10-19 09:45:08.317570
1230  2023-10-19 09:45:08.349481
1231  2023-10-19 09:45:08.381391
1232  2023-10-19 09:45:08.429263
1233  2023-10-19 09:45:08.461181
1234  2023-10-19 09:45:08.493201
1235  2023-10-19 09:45:08.525157
1236  2023-10-19 09:45:08.557065
1237  2023-10-19 09:45:08.588992
1238  2023-10-19 09:45:08.620901
1239  2023-10-19 09:45:08.652810
1240  2023-10-19 09:45:08.685719
1241  2023-10-19 09:45:08.717633
1242  2023-10-19 09:45:08.749540
1243  2023-10-19 09:45:08.781476
1244  2023-10-19 09:45:08.829302
1245  2023-10-19 09:45:08.861217
1246  2023-10-19 09:45:08.893163
1247  2023-10-19 09:45:08.925104
1248  2023-10-19 09:45:08.956961
1249  2023-10-19 09:45:08.988925
1250  2023-10-19 09:45:09.020837
1251  2023-10-19 09:45:09.053693
1252  2023-10-19 09:45:09.085656
1253  2023-10-19 09:45:09.117571
1254  2023-10-19 09:45:09.149435
1255  2023-10-19 09:45:09.181249
1256  2023-10-19 09:45:09.229160
1257  2023-10-19 09:45:09.261087
1258  2023-10-19 09:45:09.292989
1259  2023-10-19 09:45:09.324998
1260  2023-10-19 09:45:09.356911
1261  2023-10-19 09:45:09.388824
1262  2023-10-19 09:45:09.421739
1263  2023-10-19 09:45:09.453657
1264  2023-10-19 09:45:09.485568
1265  2023-10-19 09:45:09.517485
1266  2023-10-19 09:45:09.549390
1267  2023-10-19 09:45:09.581305
1268  2023-10-19 09:45:09.629206
1269  2023-10-19 09:45:09.661105
1270  2023-10-19 09:45:09.693006
1271  2023-10-19 09:45:09.724925
1272  2023-10-19 09:45:09.757807
1273  2023-10-19 09:45:09.789760
1274  2023-10-19 09:45:09.821714
1275  2023-10-19 09:45:09.853586
1276  2023-10-19 09:45:09.885512
1277  2023-10-19 09:45:09.917416
1278  2023-10-19 09:45:09.949345
1279  2023-10-19 09:45:09.981237
1280  2023-10-19 09:45:10.029292
1281  2023-10-19 09:45:10.061047
1282  2023-10-19 09:45:10.093911
1283  2023-10-19 09:45:10.125824
1284  2023-10-19 09:45:10.157751
1285  2023-10-19 09:45:10.189655
1286  2023-10-19 09:45:10.221569
1287  2023-10-19 09:45:10.254511
1288  2023-10-19 09:45:10.285400
1289  2023-10-19 09:45:10.317359
1290  2023-10-19 09:45:10.349268
1291  2023-10-19 09:45:10.381194
1292  2023-10-19 09:45:10.429044
1293  2023-10-19 09:45:10.460928
1294  2023-10-19 09:45:10.492882
1295  2023-10-19 09:45:10.525788
1296  2023-10-19 09:45:10.557670
1297  2023-10-19 09:45:10.589587
1298  2023-10-19 09:45:10.621523
1299  2023-10-19 09:45:10.653447
1300  2023-10-19 09:45:10.685362
1301  2023-10-19 09:45:10.717245
1302  2023-10-19 09:45:10.749194
1303  2023-10-19 09:45:10.781098
1304  2023-10-19 09:45:10.828975
1305  2023-10-19 09:45:10.861857
1306  2023-10-19 09:45:10.892803
1307  2023-10-19 09:45:10.925690
1308  2023-10-19 09:45:10.957632
1309  2023-10-19 09:45:10.989540
1310  2023-10-19 09:45:11.021453
1311  2023-10-19 09:45:11.053397
1312  2023-10-19 09:45:11.085295
1313  2023-10-19 09:45:11.117219
1314  2023-10-19 09:45:11.149115
1315  2023-10-19 09:45:11.196991
1316  2023-10-19 09:45:11.228910
1317  2023-10-19 09:45:11.261802
1318  2023-10-19 09:45:11.293703
1319  2023-10-19 09:45:11.325686
1320  2023-10-19 09:45:11.357533
1321  2023-10-19 09:45:11.389447
1322  2023-10-19 09:45:11.422359
1323  2023-10-19 09:45:11.453276
1324  2023-10-19 09:45:11.485192
1325  2023-10-19 09:45:11.680701
1326  2023-10-19 09:45:11.693666
1327  2023-10-19 09:45:11.725548
1328  2023-10-19 09:45:11.757527
1329  2023-10-19 09:45:11.789474
1330  2023-10-19 09:45:11.821387
1331  2023-10-19 09:45:11.853302
1332  2023-10-19 09:45:11.885214
1333  2023-10-19 09:45:11.917166
1334  2023-10-19 09:45:11.949056
1335  2023-10-19 09:45:11.996944
1336  2023-10-19 09:45:12.028830
1337  2023-10-19 09:45:12.060744
1338  2023-10-19 09:45:12.093671
1339  2023-10-19 09:45:12.125601
1340  2023-10-19 09:45:12.157627
1341  2023-10-19 09:45:12.189573
1342  2023-10-19 09:45:12.221475
1343  2023-10-19 09:45:12.253488
1344  2023-10-19 09:45:12.285469
1345  2023-10-19 09:45:12.317324
1346  2023-10-19 09:45:12.349273
1347  2023-10-19 09:45:12.397247
1348  2023-10-19 09:45:12.429164
1349  2023-10-19 09:45:12.461045
1350  2023-10-19 09:45:12.492960
1351  2023-10-19 09:45:12.524906
1352  2023-10-19 09:45:12.556837
1353  2023-10-19 09:45:12.588734
1354  2023-10-19 09:45:12.621641
1355  2023-10-19 09:45:12.653561
1356  2023-10-19 09:45:12.685491
1357  2023-10-19 09:45:12.717391
1358  2023-10-19 09:45:12.749301
1359  2023-10-19 09:45:12.797186
1360  2023-10-19 09:45:12.829121
1361  2023-10-19 09:45:12.860976
1362  2023-10-19 09:45:12.892922
1363  2023-10-19 09:45:12.924855
1364  2023-10-19 09:45:12.956769
1365  2023-10-19 09:45:12.989684
1366  2023-10-19 09:45:13.021571
1367  2023-10-19 09:45:13.053573
1368  2023-10-19 09:45:13.085530
1369  2023-10-19 09:45:13.117427
1370  2023-10-19 09:45:13.149352
1371  2023-10-19 09:45:13.197221
1372  2023-10-19 09:45:13.229272
1373  2023-10-19 09:45:13.261244
1374  2023-10-19 09:45:13.293272
1375  2023-10-19 09:45:13.325194
1376  2023-10-19 09:45:13.357096
1377  2023-10-19 09:45:13.388967
1378  2023-10-19 09:45:13.420948
1379  2023-10-19 09:45:13.452862
1380  2023-10-19 09:45:13.485813
1381  2023-10-19 09:45:13.517728
1382  2023-10-19 09:45:13.549607
1383  2023-10-19 09:45:13.597504
1384  2023-10-19 09:45:13.630390
1385  2023-10-19 09:45:13.661305
1386  2023-10-19 09:45:13.693222
1387  2023-10-19 09:45:13.725171
1388  2023-10-19 09:45:13.758080
1389  2023-10-19 09:45:13.788997
1390  2023-10-19 09:45:13.821875
1391  2023-10-19 09:45:13.852794
1392  2023-10-19 09:45:13.885705
1393  2023-10-19 09:45:13.917662
1394  2023-10-19 09:45:13.949576
1395  2023-10-19 09:45:13.997438
1396  2023-10-19 09:45:14.029345
1397  2023-10-19 09:45:14.061279
1398  2023-10-19 09:45:14.093150
1399  2023-10-19 09:45:14.125096
1400  2023-10-19 09:45:14.157011
1401  2023-10-19 09:45:14.188942
1402  2023-10-19 09:45:14.221856
1403  2023-10-19 09:45:14.253721
1404  2023-10-19 09:45:14.285635
1405  2023-10-19 09:45:14.317637
1406  2023-10-19 09:45:14.349653
1407  2023-10-19 09:45:14.397465
1408  2023-10-19 09:45:14.429378
1409  2023-10-19 09:45:14.461292
1410  2023-10-19 09:45:14.493228
1411  2023-10-19 09:45:14.525123
1412  2023-10-19 09:45:14.557049
1413  2023-10-19 09:45:14.588976
1414  2023-10-19 09:45:14.621895
1415  2023-10-19 09:45:14.653777
1416  2023-10-19 09:45:14.685723
1417  2023-10-19 09:45:14.717634
1418  2023-10-19 09:45:14.749565
1419  2023-10-19 09:45:14.797430
1420  2023-10-19 09:45:14.829332
1421  2023-10-19 09:45:14.861248
1422  2023-10-19 09:45:14.893189
1423  2023-10-19 09:45:14.925066
1424  2023-10-19 09:45:14.956999
1425  2023-10-19 09:45:14.988909
1426  2023-10-19 09:45:15.020829
1427  2023-10-19 09:45:15.053709
1428  2023-10-19 09:45:15.085623
1429  2023-10-19 09:45:15.117564
1430  2023-10-19 09:45:15.165410
1431  2023-10-19 09:45:15.197356
1432  2023-10-19 09:45:15.229267
1433  2023-10-19 09:45:15.261196
1434  2023-10-19 09:45:15.293281
1435  2023-10-19 09:45:15.325195
1436  2023-10-19 09:45:15.357163
1437  2023-10-19 09:45:15.389080
1438  2023-10-19 09:45:15.421989
1439  2023-10-19 09:45:15.453852
1440  2023-10-19 09:45:15.485766
1441  2023-10-19 09:45:15.517716
1442  2023-10-19 09:45:15.565586
1443  2023-10-19 09:45:15.597468
1444  2023-10-19 09:45:15.629419
1445  2023-10-19 09:45:15.661330
1446  2023-10-19 09:45:15.693211
1447  2023-10-19 09:45:15.725132
1448  2023-10-19 09:45:15.757078
1449  2023-10-19 09:45:15.788988
1450  2023-10-19 09:45:15.820906
1451  2023-10-19 09:45:15.853783
1452  2023-10-19 09:45:15.885740
1453  2023-10-19 09:45:15.917636
1454  2023-10-19 09:45:15.965483
1455  2023-10-19 09:45:15.997476
1456  2023-10-19 09:45:16.029390
1457  2023-10-19 09:45:16.061371
1458  2023-10-19 09:45:16.093220
1459  2023-10-19 09:45:16.125134
1460  2023-10-19 09:45:16.157096
1461  2023-10-19 09:45:16.189103
1462  2023-10-19 09:45:16.220964
1463  2023-10-19 09:45:16.252916
1464  2023-10-19 09:45:16.284830
1465  2023-10-19 09:45:16.316791
1466  2023-10-19 09:45:16.365614
1467  2023-10-19 09:45:16.397563
1468  2023-10-19 09:45:16.429484
1469  2023-10-19 09:45:16.461391
1470  2023-10-19 09:45:16.493273
1471  2023-10-19 09:45:16.525188
1472  2023-10-19 09:45:16.557165
1473  2023-10-19 09:45:16.589022
1474  2023-10-19 09:45:16.620965
1475  2023-10-19 09:45:16.652846
1476  2023-10-19 09:45:16.685804
1477  2023-10-19 09:45:16.716719
1478  2023-10-19 09:45:16.765702
1479  2023-10-19 09:45:16.797565
1480  2023-10-19 09:45:16.829480
1481  2023-10-19 09:45:16.861424
1482  2023-10-19 09:45:16.893352
1483  2023-10-19 09:45:16.925225
1484  2023-10-19 09:45:16.958247
1485  2023-10-19 09:45:16.989167
1486  2023-10-19 09:45:17.021080
1487  2023-10-19 09:45:17.054015
1488  2023-10-19 09:45:17.085959
1489  2023-10-19 09:45:17.116924
1490  2023-10-19 09:45:17.164849
1491  2023-10-19 09:45:17.197761
1492  2023-10-19 09:45:17.229676
1493  2023-10-19 09:45:17.261636
1494  2023-10-19 09:45:17.293505
1495  2023-10-19 09:45:17.325420
1496  2023-10-19 09:45:17.357334
1497  2023-10-19 09:45:17.389283
1498  2023-10-19 09:45:17.421200
1499  2023-10-19 09:45:17.453079
1500  2023-10-19 09:45:17.485171
1501  2023-10-19 09:45:17.517127
1502  2023-10-19 09:45:17.564957
1503  2023-10-19 09:45:17.597870
1504  2023-10-19 09:45:17.629784
1505  2023-10-19 09:45:17.660762
1506  2023-10-19 09:45:17.734535
1507  2023-10-19 09:45:17.757474
1508  2023-10-19 09:45:17.789392
1509  2023-10-19 09:45:17.821354
1510  2023-10-19 09:45:17.853310
1511  2023-10-19 09:45:17.885244
1512  2023-10-19 09:45:17.917158
1513  2023-10-19 09:45:17.965032
1514  2023-10-19 09:45:17.996945
1515  2023-10-19 09:45:18.028891
1516  2023-10-19 09:45:18.061805
1517  2023-10-19 09:45:18.093733
1518  2023-10-19 09:45:18.125604
1519  2023-10-19 09:45:18.157516
1520  2023-10-19 09:45:18.189472
1521  2023-10-19 09:45:18.221378
1522  2023-10-19 09:45:18.253260
1523  2023-10-19 09:45:18.285175
1524  2023-10-19 09:45:18.317089
1525  2023-10-19 09:45:18.364961
1526  2023-10-19 09:45:18.396925
1527  2023-10-19 09:45:18.429824
1528  2023-10-19 09:45:18.461738
1529  2023-10-19 09:45:18.493617
1530  2023-10-19 09:45:18.525566
1531  2023-10-19 09:45:18.557471
1532  2023-10-19 09:45:18.589361
1533  2023-10-19 09:45:18.621276
1534  2023-10-19 09:45:18.653191
1535  2023-10-19 09:45:18.685106
1536  2023-10-19 09:45:18.733019
1537  2023-10-19 09:45:18.764924
1538  2023-10-19 09:45:18.796807
1539  2023-10-19 09:45:18.829777
1540  2023-10-19 09:45:18.861634
1541  2023-10-19 09:45:18.893580
1542  2023-10-19 09:45:18.925608
1543  2023-10-19 09:45:18.957523
1544  2023-10-19 09:45:18.989438
1545  2023-10-19 09:45:19.021385
1546  2023-10-19 09:45:19.053267
1547  2023-10-19 09:45:19.085182
1548  2023-10-19 09:45:19.133054
1549  2023-10-19 09:45:19.164968
1550  2023-10-19 09:45:19.196931
1551  2023-10-19 09:45:19.229840
1552  2023-10-19 09:45:19.261716
1553  2023-10-19 09:45:19.293624
1554  2023-10-19 09:45:19.325576
1555  2023-10-19 09:45:19.357454
1556  2023-10-19 09:45:19.389405
1557  2023-10-19 09:45:19.421315
1558  2023-10-19 09:45:19.453244
1559  2023-10-19 09:45:19.485146
1560  2023-10-19 09:45:19.533983
1561  2023-10-19 09:45:19.565898
1562  2023-10-19 09:45:19.597825
1563  2023-10-19 09:45:19.630725
1564  2023-10-19 09:45:19.661641
1565  2023-10-19 09:45:19.693557
1566  2023-10-19 09:45:19.725470
1567  2023-10-19 09:45:19.757385
1568  2023-10-19 09:45:19.789301
1569  2023-10-19 09:45:19.821214
1570  2023-10-19 09:45:19.853129
1571  2023-10-19 09:45:19.886041
1572  2023-10-19 09:45:19.932915
1573  2023-10-19 09:45:19.965885
1574  2023-10-19 09:45:19.997742
1575  2023-10-19 09:45:20.029657
1576  2023-10-19 09:45:20.061571
1577  2023-10-19 09:45:20.093487
1578  2023-10-19 09:45:20.125401
1579  2023-10-19 09:45:20.157316
1580  2023-10-19 09:45:20.189231
1581  2023-10-19 09:45:20.221173
1582  2023-10-19 09:45:20.253115
1583  2023-10-19 09:45:20.285005
1584  2023-10-19 09:45:20.332846
1585  2023-10-19 09:45:20.364761
1586  2023-10-19 09:45:20.397673
1587  2023-10-19 09:45:20.429588
1588  2023-10-19 09:45:20.461536
1589  2023-10-19 09:45:20.493417
1590  2023-10-19 09:45:20.525332
1591  2023-10-19 09:45:20.557287
1592  2023-10-19 09:45:20.589161
1593  2023-10-19 09:45:20.621078
1594  2023-10-19 09:45:20.652991
1595  2023-10-19 09:45:20.684905
1596  2023-10-19 09:45:20.732777
1597  2023-10-19 09:45:20.765740
1598  2023-10-19 09:45:20.797604
1599  2023-10-19 09:45:20.829519
1600  2023-10-19 09:45:20.861433
1601  2023-10-19 09:45:20.893348
1602  2023-10-19 09:45:20.925310
1603  2023-10-19 09:45:20.957182
1604  2023-10-19 09:45:20.989092
1605  2023-10-19 09:45:21.021112
1606  2023-10-19 09:45:21.053102
1607  2023-10-19 09:45:21.085018
1608  2023-10-19 09:45:21.132929
1609  2023-10-19 09:45:21.165770
1610  2023-10-19 09:45:21.197684
1611  2023-10-19 09:45:21.229624
1612  2023-10-19 09:45:21.261538
1613  2023-10-19 09:45:21.293429
1614  2023-10-19 09:45:21.325343
1615  2023-10-19 09:45:21.357285
1616  2023-10-19 09:45:21.389177
1617  2023-10-19 09:45:21.421115
1618  2023-10-19 09:45:21.453034
1619  2023-10-19 09:45:21.484964
1620  2023-10-19 09:45:21.532790
1621  2023-10-19 09:45:21.565733
1622  2023-10-19 09:45:21.597666
1623  2023-10-19 09:45:21.629531
1624  2023-10-19 09:45:21.661446
1625  2023-10-19 09:45:21.693361
1626  2023-10-19 09:45:21.725299
1627  2023-10-19 09:45:21.757190
1628  2023-10-19 09:45:21.789105
1629  2023-10-19 09:45:21.821020
1630  2023-10-19 09:45:21.852972
1631  2023-10-19 09:45:21.884849
1632  2023-10-19 09:45:21.932724
1633  2023-10-19 09:45:21.965633
1634  2023-10-19 09:45:21.997547
1635  2023-10-19 09:45:22.029462
1636  2023-10-19 09:45:22.061402
1637  2023-10-19 09:45:22.093292
1638  2023-10-19 09:45:22.125207
1639  2023-10-19 09:45:22.157175
1640  2023-10-19 09:45:22.189090
1641  2023-10-19 09:45:22.220950
1642  2023-10-19 09:45:22.252865
1643  2023-10-19 09:45:22.285777
1644  2023-10-19 09:45:22.333649
1645  2023-10-19 09:45:22.365564
1646  2023-10-19 09:45:22.397478
1647  2023-10-19 09:45:22.429394
1648  2023-10-19 09:45:22.461307
1649  2023-10-19 09:45:22.493223
1650  2023-10-19 09:45:22.525137
1651  2023-10-19 09:45:22.557052
1652  2023-10-19 09:45:22.588966
1653  2023-10-19 09:45:22.620881
1654  2023-10-19 09:45:22.652831
1655  2023-10-19 09:45:22.702663
1656  2023-10-19 09:45:22.733580
1657  2023-10-19 09:45:22.766494
1658  2023-10-19 09:45:22.798437
1659  2023-10-19 09:45:22.830321
1660  2023-10-19 09:45:22.862271
1661  2023-10-19 09:45:22.894151
1662  2023-10-19 09:45:22.926111
1663  2023-10-19 09:45:22.958013
1664  2023-10-19 09:45:22.989893
1665  2023-10-19 09:45:23.021809
1666  2023-10-19 09:45:23.053724
1667  2023-10-19 09:45:23.101597
1668  2023-10-19 09:45:23.134543
1669  2023-10-19 09:45:23.165426
1670  2023-10-19 09:45:23.198394
1671  2023-10-19 09:45:23.230312
1672  2023-10-19 09:45:23.262224
1673  2023-10-19 09:45:23.294113
1674  2023-10-19 09:45:23.326030
1675  2023-10-19 09:45:23.357944
1676  2023-10-19 09:45:23.389827
1677  2023-10-19 09:45:23.421803
1678  2023-10-19 09:45:23.453654
1679  2023-10-19 09:45:23.501527
1680  2023-10-19 09:45:23.533440
1681  2023-10-19 09:45:23.565356
1682  2023-10-19 09:45:23.597328
1683  2023-10-19 09:45:23.629186
1684  2023-10-19 09:45:23.661101
1685  2023-10-19 09:45:23.693173
1686  2023-10-19 09:45:23.725127
1687  2023-10-19 09:45:23.756995
1688  2023-10-19 09:45:23.788909
1689  2023-10-19 09:45:23.821859
1690  2023-10-19 09:45:23.853787
1691  2023-10-19 09:45:23.901643
1692  2023-10-19 09:45:23.933559
1693  2023-10-19 09:45:23.965473
1694  2023-10-19 09:45:23.997388
1695  2023-10-19 09:45:24.029295
1696  2023-10-19 09:45:24.061215
1697  2023-10-19 09:45:24.093097
1698  2023-10-19 09:45:24.125012
1699  2023-10-19 09:45:24.156926
1700  2023-10-19 09:45:24.188894
1701  2023-10-19 09:45:24.220786
1702  2023-10-19 09:45:24.253706
1703  2023-10-19 09:45:24.301589
1704  2023-10-19 09:45:24.333454
1705  2023-10-19 09:45:24.365443
1706  2023-10-19 09:45:24.397314
1707  2023-10-19 09:45:24.429231
1708  2023-10-19 09:45:24.461170
1709  2023-10-19 09:45:24.493068
1710  2023-10-19 09:45:24.524942
1711  2023-10-19 09:45:24.556890
1712  2023-10-19 09:45:24.589769
1713  2023-10-19 09:45:24.621689
1714  2023-10-19 09:45:24.653654
1715  2023-10-19 09:45:24.701470
1716  2023-10-19 09:45:24.733420
1717  2023-10-19 09:45:24.765444
1718  2023-10-19 09:45:24.798347
1719  2023-10-19 09:45:24.829238
1720  2023-10-19 09:45:24.861236
1721  2023-10-19 09:45:24.893106
1722  2023-10-19 09:45:24.925017
1723  2023-10-19 09:45:24.956930
1724  2023-10-19 09:45:24.988848
1725  2023-10-19 09:45:25.021750
1726  2023-10-19 09:45:25.053694
1727  2023-10-19 09:45:25.101542
1728  2023-10-19 09:45:25.133460
1729  2023-10-19 09:45:25.165340
1730  2023-10-19 09:45:25.197294
1731  2023-10-19 09:45:25.229168
1732  2023-10-19 09:45:25.261111
1733  2023-10-19 09:45:25.292998
1734  2023-10-19 09:45:25.325909
1735  2023-10-19 09:45:25.356827
1736  2023-10-19 09:45:25.389765
1737  2023-10-19 09:45:25.420796
1738  2023-10-19 09:45:25.453740
1739  2023-10-19 09:45:25.501547
1740  2023-10-19 09:45:25.533462
1741  2023-10-19 09:45:25.565377
1742  2023-10-19 09:45:25.597328
1743  2023-10-19 09:45:25.629206
1744  2023-10-19 09:45:25.661121
1745  2023-10-19 09:45:25.693037
1746  2023-10-19 09:45:25.725005
1747  2023-10-19 09:45:25.756897
1748  2023-10-19 09:45:25.788811
1749  2023-10-19 09:45:25.821751
1750  2023-10-19 09:45:25.853633
1751  2023-10-19 09:45:25.901478
1752  2023-10-19 09:45:25.933424
1753  2023-10-19 09:45:25.965339
1754  2023-10-19 09:45:25.997222
1755  2023-10-19 09:45:26.029189
1756  2023-10-19 09:45:26.061090
1757  2023-10-19 09:45:26.092966
1758  2023-10-19 09:45:26.124881
1759  2023-10-19 09:45:26.156829
1760  2023-10-19 09:45:26.189745
1761  2023-10-19 09:45:26.221623
1762  2023-10-19 09:45:26.269527
1763  2023-10-19 09:45:26.301440
1764  2023-10-19 09:45:26.333323
1765  2023-10-19 09:45:26.365238
1766  2023-10-19 09:45:26.397207
1767  2023-10-19 09:45:26.429067
1768  2023-10-19 09:45:26.461981
1769  2023-10-19 09:45:26.493035
1770  2023-10-19 09:45:26.525947
1771  2023-10-19 09:45:26.556896
1772  2023-10-19 09:45:26.589846
1773  2023-10-19 09:45:26.621735
1774  2023-10-19 09:45:26.669563
1775  2023-10-19 09:45:26.701478
1776  2023-10-19 09:45:26.733392
1777  2023-10-19 09:45:26.765339
1778  2023-10-19 09:45:26.797223
1779  2023-10-19 09:45:26.829136
1780  2023-10-19 09:45:26.861051
1781  2023-10-19 09:45:26.893000
1782  2023-10-19 09:45:26.925928
1783  2023-10-19 09:45:26.956795
1784  2023-10-19 09:45:26.989745
1785  2023-10-19 09:45:27.021654
1786  2023-10-19 09:45:27.069574
1787  2023-10-19 09:45:27.101525
1788  2023-10-19 09:45:27.133430
1789  2023-10-19 09:45:27.165318
1790  2023-10-19 09:45:27.197233
1791  2023-10-19 09:45:27.229189
1792  2023-10-19 09:45:27.261062
1793  2023-10-19 09:45:27.293010
1794  2023-10-19 09:45:27.324892
1795  2023-10-19 09:45:27.356848
1796  2023-10-19 09:45:27.389753
1797  2023-10-19 09:45:27.421671
1798  2023-10-19 09:45:27.469537
1799  2023-10-19 09:45:27.503484
1800  2023-10-19 09:45:27.533336
1801  2023-10-19 09:45:27.566249
1802  2023-10-19 09:45:27.597224
1803  2023-10-19 09:45:27.629123
1804  2023-10-19 09:45:27.660993
1805  2023-10-19 09:45:27.692908
1806  2023-10-19 09:45:27.725820
1807  2023-10-19 09:45:27.758733
1808  2023-10-19 09:45:27.789681
1809  2023-10-19 09:45:27.821596
1810  2023-10-19 09:45:27.869546
1811  2023-10-19 09:45:27.901461
1812  2023-10-19 09:45:27.934412
1813  2023-10-19 09:45:27.966340
1814  2023-10-19 09:45:27.997210
1815  2023-10-19 09:45:28.029181
1816  2023-10-19 09:45:28.062065
1817  2023-10-19 09:45:28.094001
1818  2023-10-19 09:45:28.124863
1819  2023-10-19 09:45:28.156783
1820  2023-10-19 09:45:28.189721
1821  2023-10-19 09:45:28.222628
1822  2023-10-19 09:45:28.269510
1823  2023-10-19 09:45:28.301432
1824  2023-10-19 09:45:28.334353
1825  2023-10-19 09:45:28.365266
1826  2023-10-19 09:45:28.397192
1827  2023-10-19 09:45:28.429100
1828  2023-10-19 09:45:28.461996
1829  2023-10-19 09:45:28.493918
1830  2023-10-19 09:45:28.525830
1831  2023-10-19 09:45:28.557762
1832  2023-10-19 09:45:28.589646
1833  2023-10-19 09:45:28.621576
1834  2023-10-19 09:45:28.669459
1835  2023-10-19 09:45:28.701355
1836  2023-10-19 09:45:28.733262
1837  2023-10-19 09:45:28.765192
1838  2023-10-19 09:45:28.797091
1839  2023-10-19 09:45:28.829030
1840  2023-10-19 09:45:28.861919
1841  2023-10-19 09:45:28.893810
1842  2023-10-19 09:45:28.925753
1843  2023-10-19 09:45:28.957639
1844  2023-10-19 09:45:28.989554
1845  2023-10-19 09:45:29.022500
1846  2023-10-19 09:45:29.069372
1847  2023-10-19 09:45:29.101285
1848  2023-10-19 09:45:29.133206
1849  2023-10-19 09:45:29.165083
1850  2023-10-19 09:45:29.197038
1851  2023-10-19 09:45:29.229958
1852  2023-10-19 09:45:29.261858
1853  2023-10-19 09:45:29.292742
1854  2023-10-19 09:45:29.325694
1855  2023-10-19 09:45:29.357601
1856  2023-10-19 09:45:29.389514
1857  2023-10-19 09:45:29.422439
1858  2023-10-19 09:45:29.469303
1859  2023-10-19 09:45:29.501227
1860  2023-10-19 09:45:29.534138
1861  2023-10-19 09:45:29.565014
1862  2023-10-19 09:45:29.597977
1863  2023-10-19 09:45:29.629840
1864  2023-10-19 09:45:29.661789
1865  2023-10-19 09:45:29.693722
1866  2023-10-19 09:45:29.725620
1867  2023-10-19 09:45:29.757533
1868  2023-10-19 09:45:29.789448
1869  2023-10-19 09:45:29.837286
1870  2023-10-19 09:45:29.869200
1871  2023-10-19 09:45:29.901145
1872  2023-10-19 09:45:29.934030
1873  2023-10-19 09:45:29.964978
1874  2023-10-19 09:45:29.996887
1875  2023-10-19 09:45:30.029771
1876  2023-10-19 09:45:30.061735
1877  2023-10-19 09:45:30.093601
1878  2023-10-19 09:45:30.125541
1879  2023-10-19 09:45:30.157484
1880  2023-10-19 09:45:30.189346
1881  2023-10-19 09:45:30.237250
1882  2023-10-19 09:45:30.269166
1883  2023-10-19 09:45:30.301082
1884  2023-10-19 09:45:30.332960
1885  2023-10-19 09:45:30.364916
1886  2023-10-19 09:45:30.396822
1887  2023-10-19 09:45:30.428749
1888  2023-10-19 09:45:30.461617
1889  2023-10-19 09:45:30.493560
1890  2023-10-19 09:45:30.525473
1891  2023-10-19 09:45:30.557394
1892  2023-10-19 09:45:30.589309
1893  2023-10-19 09:45:30.637179
1894  2023-10-19 09:45:30.669092
1895  2023-10-19 09:45:30.700977
1896  2023-10-19 09:45:30.732922
1897  2023-10-19 09:45:30.764830
1898  2023-10-19 09:45:30.797754
1899  2023-10-19 09:45:30.829633
1900  2023-10-19 09:45:30.861580
1901  2023-10-19 09:45:30.893504
1902  2023-10-19 09:45:30.925409
1903  2023-10-19 09:45:30.957326
1904  2023-10-19 09:45:30.989237
1905  2023-10-19 09:45:31.037078
1906  2023-10-19 09:45:31.069041
1907  2023-10-19 09:45:31.100938
1908  2023-10-19 09:45:31.132856
1909  2023-10-19 09:45:31.165761
1910  2023-10-19 09:45:31.197710
1911  2023-10-19 09:45:31.229596
1912  2023-10-19 09:45:31.261513
1913  2023-10-19 09:45:31.293427
1914  2023-10-19 09:45:31.325342
1915  2023-10-19 09:45:31.357256
1916  2023-10-19 09:45:31.389191
1917  2023-10-19 09:45:31.437043
1918  2023-10-19 09:45:31.468924
1919  2023-10-19 09:45:31.501016
1920  2023-10-19 09:45:31.533907
1921  2023-10-19 09:45:31.565835
1922  2023-10-19 09:45:31.597713
1923  2023-10-19 09:45:31.629661
1924  2023-10-19 09:45:31.661543
1925  2023-10-19 09:45:31.693457
1926  2023-10-19 09:45:31.725398
1927  2023-10-19 09:45:31.757317
1928  2023-10-19 09:45:31.789232
1929  2023-10-19 09:45:31.837072
1930  2023-10-19 09:45:31.868986
1931  2023-10-19 09:45:31.900932
1932  2023-10-19 09:45:31.932874
1933  2023-10-19 09:45:31.965783
1934  2023-10-19 09:45:31.997643
1935  2023-10-19 09:45:32.029562
1936  2023-10-19 09:45:32.061510
1937  2023-10-19 09:45:32.093415
1938  2023-10-19 09:45:32.125328
1939  2023-10-19 09:45:32.157251
1940  2023-10-19 09:45:32.189156
1941  2023-10-19 09:45:32.237036
1942  2023-10-19 09:45:32.269955
1943  2023-10-19 09:45:32.301861
1944  2023-10-19 09:45:32.333825
1945  2023-10-19 09:45:32.364690
1946  2023-10-19 09:45:32.397607
1947  2023-10-19 09:45:32.429514
1948  2023-10-19 09:45:32.461402
1949  2023-10-19 09:45:32.493317
1950  2023-10-19 09:45:32.525272
1951  2023-10-19 09:45:32.557184
1952  2023-10-19 09:45:32.589093
1953  2023-10-19 09:45:32.637017
1954  2023-10-19 09:45:32.668934
1955  2023-10-19 09:45:32.701815
1956  2023-10-19 09:45:32.732860
1957  2023-10-19 09:45:32.764744
1958  2023-10-19 09:45:32.797654
1959  2023-10-19 09:45:32.829634
1960  2023-10-19 09:45:32.861548
1961  2023-10-19 09:45:32.893463
1962  2023-10-19 09:45:32.925378
1963  2023-10-19 09:45:32.957292
1964  2023-10-19 09:45:32.989264
1965  2023-10-19 09:45:33.037170
1966  2023-10-19 09:45:33.069067
1967  2023-10-19 09:45:33.100971
1968  2023-10-19 09:45:33.132973
1969  2023-10-19 09:45:33.164921
1970  2023-10-19 09:45:33.197853
1971  2023-10-19 09:45:33.229752
1972  2023-10-19 09:45:33.261629
1973  2023-10-19 09:45:33.293544
1974  2023-10-19 09:45:33.325493
1975  2023-10-19 09:45:33.369343
1976  2023-10-19 09:45:33.389336
1977  2023-10-19 09:45:33.437197
1978  2023-10-19 09:45:33.469090
1979  2023-10-19 09:45:33.502005
1980  2023-10-19 09:45:33.533964
1981  2023-10-19 09:45:33.565881
1982  2023-10-19 09:45:33.598158
1983  2023-10-19 09:45:33.630088
1984  2023-10-19 09:45:33.660988
1985  2023-10-19 09:45:33.692904
1986  2023-10-19 09:45:33.725787
1987  2023-10-19 09:45:33.757769
1988  2023-10-19 09:45:33.805648
1989  2023-10-19 09:45:33.837520
1990  2023-10-19 09:45:33.869469
1991  2023-10-19 09:45:33.901348
1992  2023-10-19 09:45:33.933299
1993  2023-10-19 09:45:33.965395
1994  2023-10-19 09:45:33.997311
1995  2023-10-19 09:45:34.029243
1996  2023-10-19 09:45:34.061138
1997  2023-10-19 09:45:34.093048
1998  2023-10-19 09:45:34.124960
1999  2023-10-19 09:45:34.156907
2000  2023-10-19 09:45:34.204787
2001  2023-10-19 09:45:34.237677
2002  2023-10-19 09:45:34.269579
2003  2023-10-19 09:45:34.301501
2004  2023-10-19 09:45:34.333377
2005  2023-10-19 09:45:34.365324
2006  2023-10-19 09:45:34.397251
2007  2023-10-19 09:45:34.429153
2008  2023-10-19 09:45:34.461036
2009  2023-10-19 09:45:34.492950
2010  2023-10-19 09:45:34.524894
2011  2023-10-19 09:45:34.556812
2012  2023-10-19 09:45:34.605683
2013  2023-10-19 09:45:34.637596
2014  2023-10-19 09:45:34.669539
2015  2023-10-19 09:45:34.701428
2016  2023-10-19 09:45:34.733308
2017  2023-10-19 09:45:34.765257
2018  2023-10-19 09:45:34.797170
2019  2023-10-19 09:45:34.829097
2020  2023-10-19 09:45:34.860998
2021  2023-10-19 09:45:34.892922
2022  2023-10-19 09:45:34.925829
2023  2023-10-19 09:45:34.957709
2024  2023-10-19 09:45:35.005586
2025  2023-10-19 09:45:35.037531
2026  2023-10-19 09:45:35.069456
2027  2023-10-19 09:45:35.101395
2028  2023-10-19 09:45:35.133310
2029  2023-10-19 09:45:35.165266
2030  2023-10-19 09:45:35.197180
2031  2023-10-19 09:45:35.229093
2032  2023-10-19 09:45:35.261043
2033  2023-10-19 09:45:35.293002
2034  2023-10-19 09:45:35.324917
2035  2023-10-19 09:45:35.356865
2036  2023-10-19 09:45:35.405701
2037  2023-10-19 09:45:35.437662
2038  2023-10-19 09:45:35.469562
2039  2023-10-19 09:45:35.501481
2040  2023-10-19 09:45:35.533387
2041  2023-10-19 09:45:35.565275
2042  2023-10-19 09:45:35.597241
2043  2023-10-19 09:45:35.629138
2044  2023-10-19 09:45:35.661067
2045  2023-10-19 09:45:35.692933
2046  2023-10-19 09:45:35.725898
2047  2023-10-19 09:45:35.757826
2048  2023-10-19 09:45:35.805684
2049  2023-10-19 09:45:35.837573
2050  2023-10-19 09:45:35.869487
2051  2023-10-19 09:45:35.901402
2052  2023-10-19 09:45:35.933324
2053  2023-10-19 09:45:35.965239
2054  2023-10-19 09:45:35.997155
2055  2023-10-19 09:45:36.029067
2056  2023-10-19 09:45:36.060982
2057  2023-10-19 09:45:36.093896
2058  2023-10-19 09:45:36.125776
2059  2023-10-19 09:45:36.157727
2060  2023-10-19 09:45:36.205563
2061  2023-10-19 09:45:36.237505
2062  2023-10-19 09:45:36.269427
2063  2023-10-19 09:45:36.301333
2064  2023-10-19 09:45:36.333222
2065  2023-10-19 09:45:36.365136
2066  2023-10-19 09:45:36.397084
2067  2023-10-19 09:45:36.428998
2068  2023-10-19 09:45:36.460911
2069  2023-10-19 09:45:36.493792
2070  2023-10-19 09:45:36.525707
2071  2023-10-19 09:45:36.557664
2072  2023-10-19 09:45:36.605494
2073  2023-10-19 09:45:36.637433
2074  2023-10-19 09:45:36.669351
2075  2023-10-19 09:45:36.701262
2076  2023-10-19 09:45:36.733152
2077  2023-10-19 09:45:36.765070
2078  2023-10-19 09:45:36.796982
2079  2023-10-19 09:45:36.829894
2080  2023-10-19 09:45:36.860843
2081  2023-10-19 09:45:36.893757
2082  2023-10-19 09:45:36.925638
2083  2023-10-19 09:45:36.957553
2084  2023-10-19 09:45:37.005425
2085  2023-10-19 09:45:37.037339
2086  2023-10-19 09:45:37.069294
2087  2023-10-19 09:45:37.101229
2088  2023-10-19 09:45:37.134086
2089  2023-10-19 09:45:37.165115
2090  2023-10-19 09:45:37.197030
2091  2023-10-19 09:45:37.229942
2092  2023-10-19 09:45:37.261913
2093  2023-10-19 09:45:37.292827
2094  2023-10-19 09:45:37.325686
2095  2023-10-19 09:45:37.373558
2096  2023-10-19 09:45:37.405473
2097  2023-10-19 09:45:37.437387
2098  2023-10-19 09:45:37.469304
2099  2023-10-19 09:45:37.501273
2100  2023-10-19 09:45:37.533133
2101  2023-10-19 09:45:37.565046
2102  2023-10-19 09:45:37.597996
2103  2023-10-19 09:45:37.628876
2104  2023-10-19 09:45:37.661788
2105  2023-10-19 09:45:37.693716
2106  2023-10-19 09:45:37.725648
2107  2023-10-19 09:45:37.773489
2108  2023-10-19 09:45:37.805438
2109  2023-10-19 09:45:37.837318
2110  2023-10-19 09:45:37.869233
2111  2023-10-19 09:45:37.901148
2112  2023-10-19 09:45:37.933096
2113  2023-10-19 09:45:37.965037
2114  2023-10-19 09:45:37.996891
2115  2023-10-19 09:45:38.029804
2116  2023-10-19 09:45:38.061788
2117  2023-10-19 09:45:38.093633
2118  2023-10-19 09:45:38.125548
2119  2023-10-19 09:45:38.173420
2120  2023-10-19 09:45:38.205334
2121  2023-10-19 09:45:38.237249
2122  2023-10-19 09:45:38.269195
2123  2023-10-19 09:45:38.301078
2124  2023-10-19 09:45:38.332993
2125  2023-10-19 09:45:38.364970
2126  2023-10-19 09:45:38.396919
2127  2023-10-19 09:45:38.429797
2128  2023-10-19 09:45:38.461712
2129  2023-10-19 09:45:38.493627
2130  2023-10-19 09:45:38.525541
2131  2023-10-19 09:45:38.573440
2132  2023-10-19 09:45:38.605328
2133  2023-10-19 09:45:38.638241
2134  2023-10-19 09:45:38.670158
2135  2023-10-19 09:45:38.702099
2136  2023-10-19 09:45:38.732987
2137  2023-10-19 09:45:38.764935
2138  2023-10-19 09:45:38.797867
2139  2023-10-19 09:45:38.829728
2140  2023-10-19 09:45:38.861643
2141  2023-10-19 09:45:38.893558
2142  2023-10-19 09:45:38.925472
2143  2023-10-19 09:45:38.973372
2144  2023-10-19 09:45:39.005259
2145  2023-10-19 09:45:39.037174
2146  2023-10-19 09:45:39.069088
2147  2023-10-19 09:45:39.102051
2148  2023-10-19 09:45:39.132947
2149  2023-10-19 09:45:39.164832
2150  2023-10-19 09:45:39.197744
2151  2023-10-19 09:45:39.229659
2152  2023-10-19 09:45:39.261632
2153  2023-10-19 09:45:39.293618
2154  2023-10-19 09:45:39.325501
2155  2023-10-19 09:45:39.373397
2156  2023-10-19 09:45:39.405312
2157  2023-10-19 09:45:39.437205
2158  2023-10-19 09:45:39.469141
2159  2023-10-19 09:45:39.501031
2160  2023-10-19 09:45:39.532946
2161  2023-10-19 09:45:39.565893
2162  2023-10-19 09:45:39.596810
2163  2023-10-19 09:45:39.629688
2164  2023-10-19 09:45:39.661602
2165  2023-10-19 09:45:39.693517
2166  2023-10-19 09:45:39.725463
2167  2023-10-19 09:45:39.773334
2168  2023-10-19 09:45:39.805245
2169  2023-10-19 09:45:39.837133
2170  2023-10-19 09:45:39.869048
2171  2023-10-19 09:45:39.900998
2172  2023-10-19 09:45:39.932913
2173  2023-10-19 09:45:39.964792
2174  2023-10-19 09:45:39.997705
2175  2023-10-19 09:45:40.029618
2176  2023-10-19 09:45:40.061581
2177  2023-10-19 09:45:40.093448
2178  2023-10-19 09:45:40.125394
2179  2023-10-19 09:45:40.173235
2180  2023-10-19 09:45:40.205149
2181  2023-10-19 09:45:40.237064
2182  2023-10-19 09:45:40.268979
2183  2023-10-19 09:45:40.301891
2184  2023-10-19 09:45:40.333805
2185  2023-10-19 09:45:40.365731
2186  2023-10-19 09:45:40.397635
2187  2023-10-19 09:45:40.429550
2188  2023-10-19 09:45:40.461480
2189  2023-10-19 09:45:40.493379
2190  2023-10-19 09:45:40.525294
2191  2023-10-19 09:45:40.573165
2192  2023-10-19 09:45:40.605080
2193  2023-10-19 09:45:40.636995
2194  2023-10-19 09:45:40.669908
2195  2023-10-19 09:45:40.700858
2196  2023-10-19 09:45:40.733736
2197  2023-10-19 09:45:40.765651
2198  2023-10-19 09:45:40.797573
2199  2023-10-19 09:45:40.829480
2200  2023-10-19 09:45:40.861395
2201  2023-10-19 09:45:40.893353
2202  2023-10-19 09:45:40.925259
2203  2023-10-19 09:45:40.973096
2204  2023-10-19 09:45:41.005038
2205  2023-10-19 09:45:41.036925
2206  2023-10-19 09:45:41.068840
2207  2023-10-19 09:45:41.101754
2208  2023-10-19 09:45:41.133719
2209  2023-10-19 09:45:41.165582
2210  2023-10-19 09:45:41.197537
2211  2023-10-19 09:45:41.229413
2212  2023-10-19 09:45:41.261350
2213  2023-10-19 09:45:41.293240
2214  2023-10-19 09:45:41.341114
2215  2023-10-19 09:45:41.373027
2216  2023-10-19 09:45:41.404942
2217  2023-10-19 09:45:41.436905
2218  2023-10-19 09:45:41.468802
2219  2023-10-19 09:45:41.501683
2220  2023-10-19 09:45:41.533598
2221  2023-10-19 09:45:41.565537
2222  2023-10-19 09:45:41.597452
2223  2023-10-19 09:45:41.629342
2224  2023-10-19 09:45:41.661257
2225  2023-10-19 09:45:41.693222
2226  2023-10-19 09:45:41.741043
2227  2023-10-19 09:45:41.772988
2228  2023-10-19 09:45:41.804905
2229  2023-10-19 09:45:41.836787
2230  2023-10-19 09:45:41.869699
2231  2023-10-19 09:45:41.901648
2232  2023-10-19 09:45:41.933559
2233  2023-10-19 09:45:41.965443
2234  2023-10-19 09:45:41.997358
2235  2023-10-19 09:45:42.029273
2236  2023-10-19 09:45:42.061188
2237  2023-10-19 09:45:42.093102
2238  2023-10-19 09:45:42.141021
2239  2023-10-19 09:45:42.172889
2240  2023-10-19 09:45:42.205801
2241  2023-10-19 09:45:42.237731
2242  2023-10-19 09:45:42.269630
2243  2023-10-19 09:45:42.301577
2244  2023-10-19 09:45:42.333460
2245  2023-10-19 09:45:42.365374
2246  2023-10-19 09:45:42.398288
2247  2023-10-19 09:45:42.430203
2248  2023-10-19 09:45:42.461153
2249  2023-10-19 09:45:42.493033
2250  2023-10-19 09:45:42.543056
2251  2023-10-19 09:45:42.572922
2252  2023-10-19 09:45:42.604837
2253  2023-10-19 09:45:42.638779
2254  2023-10-19 09:45:42.670698
2255  2023-10-19 09:45:42.702614
2256  2023-10-19 09:45:42.734567
2257  2023-10-19 09:45:42.766431
2258  2023-10-19 09:45:42.798346
2259  2023-10-19 09:45:42.830266
2260  2023-10-19 09:45:42.862182
2261  2023-10-19 09:45:42.894100
2262  2023-10-19 09:45:42.941963
2263  2023-10-19 09:45:42.973917
2264  2023-10-19 09:45:43.005767
2265  2023-10-19 09:45:43.037712
2266  2023-10-19 09:45:43.070593
2267  2023-10-19 09:45:43.102539
2268  2023-10-19 09:45:43.134467
2269  2023-10-19 09:45:43.166383
2270  2023-10-19 09:45:43.198299
2271  2023-10-19 09:45:43.230235
2272  2023-10-19 09:45:43.262082
2273  2023-10-19 09:45:43.294029
2274  2023-10-19 09:45:43.341900
2275  2023-10-19 09:45:43.373830
2276  2023-10-19 09:45:43.405749
2277  2023-10-19 09:45:43.437652
2278  2023-10-19 09:45:43.469569
2279  2023-10-19 09:45:43.501440
2280  2023-10-19 09:45:43.533356
2281  2023-10-19 09:45:43.565304
2282  2023-10-19 09:45:43.598253
2283  2023-10-19 09:45:43.630130
2284  2023-10-19 09:45:43.662042
2285  2023-10-19 09:45:43.693958
2286  2023-10-19 09:45:43.741829
2287  2023-10-19 09:45:43.773819
2288  2023-10-19 09:45:43.805843
2289  2023-10-19 09:45:43.837761
2290  2023-10-19 09:45:43.869675
2291  2023-10-19 09:45:43.901598
2292  2023-10-19 09:45:43.933512
2293  2023-10-19 09:45:43.965427
2294  2023-10-19 09:45:43.997338
2295  2023-10-19 09:45:44.029247
2296  2023-10-19 09:45:44.061180
2297  2023-10-19 09:45:44.094054
2298  2023-10-19 09:45:44.141975
2299  2023-10-19 09:45:44.173928
2300  2023-10-19 09:45:44.205847
2301  2023-10-19 09:45:44.237878
2302  2023-10-19 09:45:44.269793
2303  2023-10-19 09:45:44.301747
2304  2023-10-19 09:45:44.333658
2305  2023-10-19 09:45:44.365544
2306  2023-10-19 09:45:44.397469
2307  2023-10-19 09:45:44.429367
2308  2023-10-19 09:45:44.461307
2309  2023-10-19 09:45:44.493223
2310  2023-10-19 09:45:44.541105
2311  2023-10-19 09:45:44.573012
2312  2023-10-19 09:45:44.604930
2313  2023-10-19 09:45:44.636842
2314  2023-10-19 09:45:44.669723
2315  2023-10-19 09:45:44.701669
2316  2023-10-19 09:45:44.733583
2317  2023-10-19 09:45:44.765533
2318  2023-10-19 09:45:44.797381
2319  2023-10-19 09:45:44.829333
2320  2023-10-19 09:45:44.861210
2321  2023-10-19 09:45:44.909156
2322  2023-10-19 09:45:44.941031
2323  2023-10-19 09:45:44.973972
2324  2023-10-19 09:45:45.004861
2325  2023-10-19 09:45:45.037774
2326  2023-10-19 09:45:45.069703
2327  2023-10-19 09:45:45.101570
2328  2023-10-19 09:45:45.133485
2329  2023-10-19 09:45:45.165397
2330  2023-10-19 09:45:45.197312
2331  2023-10-19 09:45:45.228911
2332  2023-10-19 09:45:45.261823
2333  2023-10-19 09:45:45.309695
2334  2023-10-19 09:45:45.341690
2335  2023-10-19 09:45:45.373572
2336  2023-10-19 09:45:45.405520
2337  2023-10-19 09:45:45.437434
2338  2023-10-19 09:45:45.469349
2339  2023-10-19 09:45:45.501230
2340  2023-10-19 09:45:45.533172
2341  2023-10-19 09:45:45.565103
2342  2023-10-19 09:45:45.597007
2343  2023-10-19 09:45:45.628892
2344  2023-10-19 09:45:45.661801
2345  2023-10-19 09:45:45.709704
2346  2023-10-19 09:45:45.741622
2347  2023-10-19 09:45:45.773530
2348  2023-10-19 09:45:45.805449
2349  2023-10-19 09:45:45.837331
2350  2023-10-19 09:45:45.869246
2351  2023-10-19 09:45:45.901208
2352  2023-10-19 09:45:45.933157
2353  2023-10-19 09:45:45.966170
2354  2023-10-19 09:45:45.998083
2355  2023-10-19 09:45:46.029999
2356  2023-10-19 09:45:46.061948
2357  2023-10-19 09:45:46.109831
2358  2023-10-19 09:45:46.140749
2359  2023-10-19 09:45:46.173614
2360  2023-10-19 09:45:46.205527
2361  2023-10-19 09:45:46.237478
2362  2023-10-19 09:45:46.269406
2363  2023-10-19 09:45:46.301273
2364  2023-10-19 09:45:46.333235
2365  2023-10-19 09:45:46.365244
2366  2023-10-19 09:45:46.397113
2367  2023-10-19 09:45:46.429063
2368  2023-10-19 09:45:46.460942
2369  2023-10-19 09:45:46.508849
2370  2023-10-19 09:45:46.541756
2371  2023-10-19 09:45:46.573677
2372  2023-10-19 09:45:46.605616
2373  2023-10-19 09:45:46.637501
2374  2023-10-19 09:45:46.669416
2375  2023-10-19 09:45:46.701302
2376  2023-10-19 09:45:46.733249
2377  2023-10-19 09:45:46.765158
2378  2023-10-19 09:45:46.797044
2379  2023-10-19 09:45:46.828992
2380  2023-10-19 09:45:46.861920
2381  2023-10-19 09:45:46.909776
2382  2023-10-19 09:45:46.941715
2383  2023-10-19 09:45:46.973614
2384  2023-10-19 09:45:47.005486
2385  2023-10-19 09:45:47.037401
2386  2023-10-19 09:45:47.069350
2387  2023-10-19 09:45:47.101268
2388  2023-10-19 09:45:47.133145
2389  2023-10-19 09:45:47.165060
2390  2023-10-19 09:45:47.197009
2391  2023-10-19 09:45:47.229888
2392  2023-10-19 09:45:47.260804
2393  2023-10-19 09:45:47.309771
2394  2023-10-19 09:45:47.341663
2395  2023-10-19 09:45:47.373587
2396  2023-10-19 09:45:47.405700
2397  2023-10-19 09:45:47.437620
2398  2023-10-19 09:45:47.469537
2399  2023-10-19 09:45:47.503464
2400  2023-10-19 09:45:47.533333
2401  2023-10-19 09:45:47.566245
2402  2023-10-19 09:45:47.597164
2403  2023-10-19 09:45:47.629108
2404  2023-10-19 09:45:47.663019
2405  2023-10-19 09:45:47.708864
2406  2023-10-19 09:45:47.741806
2407  2023-10-19 09:45:47.772720
2408  2023-10-19 09:45:47.805607
2409  2023-10-19 09:45:47.837552
2410  2023-10-19 09:45:47.869467
2411  2023-10-19 09:45:47.901380
2412  2023-10-19 09:45:47.933310
2413  2023-10-19 09:45:47.965236
2414  2023-10-19 09:45:47.997135
2415  2023-10-19 09:45:48.029040
2416  2023-10-19 09:45:48.061920
2417  2023-10-19 09:45:48.109858
2418  2023-10-19 09:45:48.141708
2419  2023-10-19 09:45:48.174670
2420  2023-10-19 09:45:48.206586
2421  2023-10-19 09:45:48.237450
2422  2023-10-19 09:45:48.269366
2423  2023-10-19 09:45:48.301281
2424  2023-10-19 09:45:48.334194
2425  2023-10-19 09:45:48.365148
2426  2023-10-19 09:45:48.398061
2427  2023-10-19 09:45:48.428999
2428  2023-10-19 09:45:48.476811
2429  2023-10-19 09:45:48.509757
2430  2023-10-19 09:45:48.541668
2431  2023-10-19 09:45:48.573597
2432  2023-10-19 09:45:48.605512
2433  2023-10-19 09:45:48.637406
2434  2023-10-19 09:45:48.669296
2435  2023-10-19 09:45:48.702271
2436  2023-10-19 09:45:48.734180
2437  2023-10-19 09:45:48.766062
2438  2023-10-19 09:45:48.797952
2439  2023-10-19 09:45:48.828870
2440  2023-10-19 09:45:48.877740
2441  2023-10-19 09:45:48.909700
2442  2023-10-19 09:45:48.943564
2443  2023-10-19 09:45:48.973526
2444  2023-10-19 09:45:49.005441
2445  2023-10-19 09:45:49.037432
2446  2023-10-19 09:45:49.069393
2447  2023-10-19 09:45:49.101287
2448  2023-10-19 09:45:49.133211
2449  2023-10-19 09:45:49.165124
2450  2023-10-19 09:45:49.197057
2451  2023-10-19 09:45:49.229951
2452  2023-10-19 09:45:49.278820
2453  2023-10-19 09:45:49.309773
2454  2023-10-19 09:45:49.342650
2455  2023-10-19 09:45:49.373585
2456  2023-10-19 09:45:49.406448
2457  2023-10-19 09:45:49.437378
2458  2023-10-19 09:45:49.469307
2459  2023-10-19 09:45:49.501253
2460  2023-10-19 09:45:49.533144
2461  2023-10-19 09:45:49.566053
2462  2023-10-19 09:45:49.598932
2463  2023-10-19 09:45:49.629880
2464  2023-10-19 09:45:49.678771
2465  2023-10-19 09:45:49.709689
2466  2023-10-19 09:45:49.741591
2467  2023-10-19 09:45:49.773496
2468  2023-10-19 09:45:49.806428
2469  2023-10-19 09:45:49.837326
2470  2023-10-19 09:45:49.869243
2471  2023-10-19 09:45:49.901172
2472  2023-10-19 09:45:49.935085
2473  2023-10-19 09:45:49.965987
2474  2023-10-19 09:45:49.997901
2475  2023-10-19 09:45:50.029814
2476  2023-10-19 09:45:50.077689
2477  2023-10-19 09:45:50.109621
2478  2023-10-19 09:45:50.141518
2479  2023-10-19 09:45:50.173492
2480  2023-10-19 09:45:50.205430
2481  2023-10-19 09:45:50.237321
2482  2023-10-19 09:45:50.269240
2483  2023-10-19 09:45:50.301148
2484  2023-10-19 09:45:50.333084
2485  2023-10-19 09:45:50.364966
2486  2023-10-19 09:45:50.396900
2487  2023-10-19 09:45:50.428811
2488  2023-10-19 09:45:50.477714
2489  2023-10-19 09:45:50.509596
2490  2023-10-19 09:45:50.541522
2491  2023-10-19 09:45:50.573392
2492  2023-10-19 09:45:50.605346
2493  2023-10-19 09:45:50.638275
2494  2023-10-19 09:45:50.669176
2495  2023-10-19 09:45:50.701050
2496  2023-10-19 09:45:50.733005
2497  2023-10-19 09:45:50.764908
2498  2023-10-19 09:45:50.797792
2499  2023-10-19 09:45:50.829740
2500  2023-10-19 09:45:50.877580
2501  2023-10-19 09:45:50.909529
2502  2023-10-19 09:45:50.941450
2503  2023-10-19 09:45:50.973349
2504  2023-10-19 09:45:51.005276
2505  2023-10-19 09:45:51.037226
2506  2023-10-19 09:45:51.069100
2507  2023-10-19 09:45:51.101015
2508  2023-10-19 09:45:51.132902
2509  2023-10-19 09:45:51.165852
2510  2023-10-19 09:45:51.197786
2511  2023-10-19 09:45:51.229668
2512  2023-10-19 09:45:51.277535
2513  2023-10-19 09:45:51.309426
2514  2023-10-19 09:45:51.341370
2515  2023-10-19 09:45:51.373361
2516  2023-10-19 09:45:51.405383
2517  2023-10-19 09:45:51.437309
2518  2023-10-19 09:45:51.469454
2519  2023-10-19 09:45:51.501417
2520  2023-10-19 09:45:51.533333
2521  2023-10-19 09:45:51.565287
2522  2023-10-19 09:45:51.597202
2523  2023-10-19 09:45:51.629091
2524  2023-10-19 09:45:51.676953
2525  2023-10-19 09:45:51.708864
2526  2023-10-19 09:45:51.741782
2527  2023-10-19 09:45:51.773725
2528  2023-10-19 09:45:51.805632
2529  2023-10-19 09:45:51.837528
2530  2023-10-19 09:45:51.869442
2531  2023-10-19 09:45:51.901356
2532  2023-10-19 09:45:51.933273
2533  2023-10-19 09:45:51.965277
2534  2023-10-19 09:45:51.997250
2535  2023-10-19 09:45:52.029160
2536  2023-10-19 09:45:52.077059
2537  2023-10-19 09:45:52.108973
2538  2023-10-19 09:45:52.140861
2539  2023-10-19 09:45:52.172848
2540  2023-10-19 09:45:52.205767
2541  2023-10-19 09:45:52.237660
2542  2023-10-19 09:45:52.269576
2543  2023-10-19 09:45:52.301608
2544  2023-10-19 09:45:52.333372
2545  2023-10-19 09:45:52.366286
2546  2023-10-19 09:45:52.397202
2547  2023-10-19 09:45:52.445074
2548  2023-10-19 09:45:52.478020
2549  2023-10-19 09:45:52.508929
2550  2023-10-19 09:45:52.540852
2551  2023-10-19 09:45:52.573730
2552  2023-10-19 09:45:52.605679
2553  2023-10-19 09:45:52.637562
2554  2023-10-19 09:45:52.669474
2555  2023-10-19 09:45:52.701389
2556  2023-10-19 09:45:52.733303
2557  2023-10-19 09:45:52.765253
2558  2023-10-19 09:45:52.797165
2559  2023-10-19 09:45:52.846035
2560  2023-10-19 09:45:52.876947
2561  2023-10-19 09:45:52.908865
2562  2023-10-19 09:45:52.941746
2563  2023-10-19 09:45:52.973694
2564  2023-10-19 09:45:53.005613
2565  2023-10-19 09:45:53.037554
2566  2023-10-19 09:45:53.069438
2567  2023-10-19 09:45:53.101358
2568  2023-10-19 09:45:53.133302
2569  2023-10-19 09:45:53.165232
2570  2023-10-19 09:45:53.197254
2571  2023-10-19 09:45:53.245070
2572  2023-10-19 09:45:53.277054
2573  2023-10-19 09:45:53.309003
2574  2023-10-19 09:45:53.340965
2575  2023-10-19 09:45:53.372961
2576  2023-10-19 09:45:53.404902
2577  2023-10-19 09:45:53.436825
2578  2023-10-19 09:45:53.469749
2579  2023-10-19 09:45:53.501617
2580  2023-10-19 09:45:53.533531
2581  2023-10-19 09:45:53.565478
2582  2023-10-19 09:45:53.597394
2583  2023-10-19 09:45:53.645267
2584  2023-10-19 09:45:53.677186
2585  2023-10-19 09:45:53.709097
2586  2023-10-19 09:45:53.740977
2587  2023-10-19 09:45:53.773889
2588  2023-10-19 09:45:53.805851
2589  2023-10-19 09:45:53.837820
2590  2023-10-19 09:45:53.869633
2591  2023-10-19 09:45:53.901548
2592  2023-10-19 09:45:53.933463
2593  2023-10-19 09:45:53.965417
2594  2023-10-19 09:45:53.997331
2595  2023-10-19 09:45:54.046241
2596  2023-10-19 09:45:54.077160
2597  2023-10-19 09:45:54.109092
2598  2023-10-19 09:45:54.140987
2599  2023-10-19 09:45:54.173900
2600  2023-10-19 09:45:54.205815
2601  2023-10-19 09:45:54.237822
2602  2023-10-19 09:45:54.269742
2603  2023-10-19 09:45:54.301661
2604  2023-10-19 09:45:54.333558
2605  2023-10-19 09:45:54.365449
2606  2023-10-19 09:45:54.397396
2607  2023-10-19 09:45:54.445235
2608  2023-10-19 09:45:54.477198
2609  2023-10-19 09:45:54.510063
2610  2023-10-19 09:45:54.542050
2611  2023-10-19 09:45:54.573892
2612  2023-10-19 09:45:54.605807
2613  2023-10-19 09:45:54.637784
2614  2023-10-19 09:45:54.669666
2615  2023-10-19 09:45:54.701585
2616  2023-10-19 09:45:54.733465
2617  2023-10-19 09:45:54.765407
2618  2023-10-19 09:45:54.798329
2619  2023-10-19 09:45:54.845195
2620  2023-10-19 09:45:54.877134
2621  2023-10-19 09:45:54.909090
2622  2023-10-19 09:45:54.941005
2623  2023-10-19 09:45:54.972950
2624  2023-10-19 09:45:55.005895
2625  2023-10-19 09:45:55.036859
2626  2023-10-19 09:45:55.069798
2627  2023-10-19 09:45:55.101670
2628  2023-10-19 09:45:55.133585
2629  2023-10-19 09:45:55.165469
2630  2023-10-19 09:45:55.197408
2631  2023-10-19 09:45:55.245308
2632  2023-10-19 09:45:55.277202
2633  2023-10-19 09:45:55.309131
2634  2023-10-19 09:45:55.341038
2635  2023-10-19 09:45:55.373911
2636  2023-10-19 09:45:55.405826
2637  2023-10-19 09:45:55.437789
2638  2023-10-19 09:45:55.469685
2639  2023-10-19 09:45:55.501603
2640  2023-10-19 09:45:55.533485
2641  2023-10-19 09:45:55.565400
2642  2023-10-19 09:45:55.597338
2643  2023-10-19 09:45:55.645186
2644  2023-10-19 09:45:55.678099
2645  2023-10-19 09:45:55.709047
2646  2023-10-19 09:45:55.741928
2647  2023-10-19 09:45:55.773850
2648  2023-10-19 09:45:55.805759
2649  2023-10-19 09:45:55.838706
2650  2023-10-19 09:45:55.869623
2651  2023-10-19 09:45:55.901504
2652  2023-10-19 09:45:55.933418
2653  2023-10-19 09:45:55.966340
2654  2023-10-19 09:45:56.014201
2655  2023-10-19 09:45:56.046138
2656  2023-10-19 09:45:56.077064
2657  2023-10-19 09:45:56.108979
2658  2023-10-19 09:45:56.140888
2659  2023-10-19 09:45:56.173774
2660  2023-10-19 09:45:56.205689
2661  2023-10-19 09:45:56.237636
2662  2023-10-19 09:45:56.269549
2663  2023-10-19 09:45:56.301432
2664  2023-10-19 09:45:56.333348
2665  2023-10-19 09:45:56.365262
2666  2023-10-19 09:45:56.413182
2667  2023-10-19 09:45:56.445048
2668  2023-10-19 09:45:56.477003
2669  2023-10-19 09:45:56.508879
2670  2023-10-19 09:45:56.540822
2671  2023-10-19 09:45:56.573705
2672  2023-10-19 09:45:56.605642
2673  2023-10-19 09:45:56.637639
2674  2023-10-19 09:45:56.669631
2675  2023-10-19 09:45:56.701530
2676  2023-10-19 09:45:56.733419
2677  2023-10-19 09:45:56.765364
2678  2023-10-19 09:45:56.813240
2679  2023-10-19 09:45:56.845125
2680  2023-10-19 09:45:56.877035
2681  2023-10-19 09:45:56.908982
2682  2023-10-19 09:45:56.940894
2683  2023-10-19 09:45:56.972828
2684  2023-10-19 09:45:57.005691
2685  2023-10-19 09:45:57.037606
2686  2023-10-19 09:45:57.069544
2687  2023-10-19 09:45:57.101461
2688  2023-10-19 09:45:57.133382
2689  2023-10-19 09:45:57.165264
2690  2023-10-19 09:45:57.213172
2691  2023-10-19 09:45:57.245051
2692  2023-10-19 09:45:57.276992
2693  2023-10-19 09:45:57.308914
2694  2023-10-19 09:45:57.340822
2695  2023-10-19 09:45:57.373742
2696  2023-10-19 09:45:57.405622
2697  2023-10-19 09:45:57.437537
2698  2023-10-19 09:45:57.469476
2699  2023-10-19 09:45:57.501392
2700  2023-10-19 09:45:57.533302
2701  2023-10-19 09:45:57.565276
2702  2023-10-19 09:45:57.613190
2703  2023-10-19 09:45:57.645062
2704  2023-10-19 09:45:57.678023
2705  2023-10-19 09:45:57.708923
2706  2023-10-19 09:45:57.740836
2707  2023-10-19 09:45:57.773772
2708  2023-10-19 09:45:57.805669
2709  2023-10-19 09:45:57.837547
2710  2023-10-19 09:45:57.869462
2711  2023-10-19 09:45:57.901415
2712  2023-10-19 09:45:57.933325
2713  2023-10-19 09:45:57.965207
2714  2023-10-19 09:45:58.013122
2715  2023-10-19 09:45:58.044992
2716  2023-10-19 09:45:58.076913
2717  2023-10-19 09:45:58.108852
2718  2023-10-19 09:45:58.141743
2719  2023-10-19 09:45:58.173649
2720  2023-10-19 09:45:58.205563
2721  2023-10-19 09:45:58.237478
2722  2023-10-19 09:45:58.269428
2723  2023-10-19 09:45:58.301341
2724  2023-10-19 09:45:58.333264
2725  2023-10-19 09:45:58.365137
2726  2023-10-19 09:45:58.413036
2727  2023-10-19 09:45:58.444924
2728  2023-10-19 09:45:58.476868
2729  2023-10-19 09:45:58.508780
2730  2023-10-19 09:45:58.541702
2731  2023-10-19 09:45:58.573580
2732  2023-10-19 09:45:58.605543
2733  2023-10-19 09:45:58.637447
2734  2023-10-19 09:45:58.669324
2735  2023-10-19 09:45:58.701265
2736  2023-10-19 09:45:58.733192
2737  2023-10-19 09:45:58.765068
2738  2023-10-19 09:45:58.812987
2739  2023-10-19 09:45:58.845852
2740  2023-10-19 09:45:58.877768
2741  2023-10-19 09:45:58.909685
2742  2023-10-19 09:45:58.941624
2743  2023-10-19 09:45:58.973572
2744  2023-10-19 09:45:59.006423
2745  2023-10-19 09:45:59.037341
2746  2023-10-19 09:45:59.069255
2747  2023-10-19 09:45:59.101170
2748  2023-10-19 09:45:59.134120
2749  2023-10-19 09:45:59.165996
2750  2023-10-19 09:45:59.212927
2751  2023-10-19 09:45:59.245817
2752  2023-10-19 09:45:59.277699
2753  2023-10-19 09:45:59.309637
2754  2023-10-19 09:45:59.341564
2755  2023-10-19 09:45:59.373441
2756  2023-10-19 09:45:59.405356
2757  2023-10-19 09:45:59.437270
2758  2023-10-19 09:45:59.469218
2759  2023-10-19 09:45:59.501136
2760  2023-10-19 09:45:59.533111
2761  2023-10-19 09:45:59.581179
2762  2023-10-19 09:45:59.613093
2763  2023-10-19 09:45:59.645071
2764  2023-10-19 09:45:59.676969
2765  2023-10-19 09:45:59.709834
2766  2023-10-19 09:45:59.741749
2767  2023-10-19 09:45:59.773663
2768  2023-10-19 09:45:59.805620
2769  2023-10-19 09:45:59.837493
2770  2023-10-19 09:45:59.869407
2771  2023-10-19 09:45:59.901322
2772  2023-10-19 09:45:59.933284
2773  2023-10-19 09:45:59.981153
2774  2023-10-19 09:46:00.013057
2775  2023-10-19 09:46:00.044977
2776  2023-10-19 09:46:00.077850
2777  2023-10-19 09:46:00.108768
2778  2023-10-19 09:46:00.141681
2779  2023-10-19 09:46:00.173596
2780  2023-10-19 09:46:00.205511
2781  2023-10-19 09:46:00.237424
2782  2023-10-19 09:46:00.269338
2783  2023-10-19 09:46:00.301382
2784  2023-10-19 09:46:00.333297
2785  2023-10-19 09:46:00.381169
2786  2023-10-19 09:46:00.413111
2787  2023-10-19 09:46:00.445024
2788  2023-10-19 09:46:00.477913
2789  2023-10-19 09:46:00.509829
2790  2023-10-19 09:46:00.541743
2791  2023-10-19 09:46:00.573656
2792  2023-10-19 09:46:00.605569
2793  2023-10-19 09:46:00.637519
2794  2023-10-19 09:46:00.669449
2795  2023-10-19 09:46:00.701313
2796  2023-10-19 09:46:00.733228
2797  2023-10-19 09:46:00.781099
2798  2023-10-19 09:46:00.813050
2799  2023-10-19 09:46:00.845902
2800  2023-10-19 09:46:00.877862
2801  2023-10-19 09:46:00.908814
2802  2023-10-19 09:46:00.941753
2803  2023-10-19 09:46:00.973634
2804  2023-10-19 09:46:01.005552
2805  2023-10-19 09:46:01.037430
2806  2023-10-19 09:46:01.069345
2807  2023-10-19 09:46:01.102292
2808  2023-10-19 09:46:01.133219
2809  2023-10-19 09:46:01.182080
2810  2023-10-19 09:46:01.213991
2811  2023-10-19 09:46:01.244920
2812  2023-10-19 09:46:01.276791
2813  2023-10-19 09:46:01.309752
2814  2023-10-19 09:46:01.341618
2815  2023-10-19 09:46:01.373565
2816  2023-10-19 09:46:01.405471
2817  2023-10-19 09:46:01.437386
2818  2023-10-19 09:46:01.469344
2819  2023-10-19 09:46:01.501221
2820  2023-10-19 09:46:01.533105
2821  2023-10-19 09:46:01.581026
2822  2023-10-19 09:46:01.612941
2823  2023-10-19 09:46:01.645806
2824  2023-10-19 09:46:01.677725
2825  2023-10-19 09:46:01.709634
2826  2023-10-19 09:46:01.741576
2827  2023-10-19 09:46:01.773489
2828  2023-10-19 09:46:01.805378
2829  2023-10-19 09:46:01.837351
2830  2023-10-19 09:46:01.869266
2831  2023-10-19 09:46:01.901184
2832  2023-10-19 09:46:01.933096
2833  2023-10-19 09:46:01.980969
2834  2023-10-19 09:46:02.013881
2835  2023-10-19 09:46:02.046794
2836  2023-10-19 09:46:02.077709
2837  2023-10-19 09:46:02.109624
2838  2023-10-19 09:46:02.142569
2839  2023-10-19 09:46:02.173485
2840  2023-10-19 09:46:02.205368
2841  2023-10-19 09:46:02.237323
2842  2023-10-19 09:46:02.269199
2843  2023-10-19 09:46:02.302110
2844  2023-10-19 09:46:02.333027
2845  2023-10-19 09:46:02.381928
2846  2023-10-19 09:46:02.413811
2847  2023-10-19 09:46:02.445725
2848  2023-10-19 09:46:02.477676
2849  2023-10-19 09:46:02.509589
2850  2023-10-19 09:46:02.541469
2851  2023-10-19 09:46:02.573384
2852  2023-10-19 09:46:02.605298
2853  2023-10-19 09:46:02.637254
2854  2023-10-19 09:46:02.669168
2855  2023-10-19 09:46:02.701042
2856  2023-10-19 09:46:02.732958
2857  2023-10-19 09:46:02.780829
2858  2023-10-19 09:46:02.812790
2859  2023-10-19 09:46:02.845700
2860  2023-10-19 09:46:02.877613
2861  2023-10-19 09:46:02.909485
2862  2023-10-19 09:46:02.941400
2863  2023-10-19 09:46:02.973315
2864  2023-10-19 09:46:03.005229
2865  2023-10-19 09:46:03.039170
2866  2023-10-19 09:46:03.071085
2867  2023-10-19 09:46:03.101971
2868  2023-10-19 09:46:03.133956
2869  2023-10-19 09:46:03.181819
2870  2023-10-19 09:46:03.213733
2871  2023-10-19 09:46:03.246679
2872  2023-10-19 09:46:03.278560
2873  2023-10-19 09:46:03.309523
2874  2023-10-19 09:46:03.343418
2875  2023-10-19 09:46:03.374353
2876  2023-10-19 09:46:03.407249
2877  2023-10-19 09:46:03.438235
2878  2023-10-19 09:46:03.471235
2879  2023-10-19 09:46:03.502270
2880  2023-10-19 09:46:03.550126
2881  2023-10-19 09:46:03.582036
2882  2023-10-19 09:46:03.614956
2883  2023-10-19 09:46:03.646869
2884  2023-10-19 09:46:03.678762
2885  2023-10-19 09:46:03.710688
2886  2023-10-19 09:46:03.742604
2887  2023-10-19 09:46:03.774535
2888  2023-10-19 09:46:03.806430
2889  2023-10-19 09:46:03.838337
2890  2023-10-19 09:46:03.870291
2891  2023-10-19 09:46:03.902175
2892  2023-10-19 09:46:03.950049
2893  2023-10-19 09:46:03.982927
2894  2023-10-19 09:46:04.014840
2895  2023-10-19 09:46:04.045791
2896  2023-10-19 09:46:04.078672
2897  2023-10-19 09:46:04.110585
2898  2023-10-19 09:46:04.142501
2899  2023-10-19 09:46:04.174466
2900  2023-10-19 09:46:04.206331
2901  2023-10-19 09:46:04.238300
2902  2023-10-19 09:46:04.270190
2903  2023-10-19 09:46:04.302111
2904  2023-10-19 09:46:04.350942
2905  2023-10-19 09:46:04.382889
2906  2023-10-19 09:46:04.413815
2907  2023-10-19 09:46:04.445722
2908  2023-10-19 09:46:04.477677
2909  2023-10-19 09:46:04.509551
2910  2023-10-19 09:46:04.541465
2911  2023-10-19 09:46:04.573380
2912  2023-10-19 09:46:04.606260
2913  2023-10-19 09:46:04.637211
2914  2023-10-19 09:46:04.669091
2915  2023-10-19 09:46:04.702036
2916  2023-10-19 09:46:04.749876
2917  2023-10-19 09:46:04.781795
2918  2023-10-19 09:46:04.813751
2919  2023-10-19 09:46:04.845624
2920  2023-10-19 09:46:04.877571
2921  2023-10-19 09:46:04.909448
2922  2023-10-19 09:46:04.941400
2923  2023-10-19 09:46:04.973312
2924  2023-10-19 09:46:05.005228
2925  2023-10-19 09:46:05.037166
2926  2023-10-19 09:46:05.069062
2927  2023-10-19 09:46:05.100961
2928  2023-10-19 09:46:05.149845
2929  2023-10-19 09:46:05.181768
2930  2023-10-19 09:46:05.213697
2931  2023-10-19 09:46:05.245581
2932  2023-10-19 09:46:05.277495
2933  2023-10-19 09:46:05.309423
2934  2023-10-19 09:46:05.341329
2935  2023-10-19 09:46:05.373243
2936  2023-10-19 09:46:05.405158
2937  2023-10-19 09:46:05.437038
2938  2023-10-19 09:46:05.468983
2939  2023-10-19 09:46:05.501865
2940  2023-10-19 09:46:05.548774
2941  2023-10-19 09:46:05.581700
2942  2023-10-19 09:46:05.613620
2943  2023-10-19 09:46:05.645512
2944  2023-10-19 09:46:05.677452
2945  2023-10-19 09:46:05.709345
2946  2023-10-19 09:46:05.741261
2947  2023-10-19 09:46:05.773170
2948  2023-10-19 09:46:05.805089
2949  2023-10-19 09:46:05.837005
2950  2023-10-19 09:46:05.868913
2951  2023-10-19 09:46:05.901837
2952  2023-10-19 09:46:05.950701
2953  2023-10-19 09:46:05.981584
2954  2023-10-19 09:46:06.014496
2955  2023-10-19 09:46:06.045447
2956  2023-10-19 09:46:06.077351
2957  2023-10-19 09:46:06.109276
2958  2023-10-19 09:46:06.141206
2959  2023-10-19 09:46:06.174118
2960  2023-10-19 09:46:06.204985
2961  2023-10-19 09:46:06.237897
2962  2023-10-19 09:46:06.269847
2963  2023-10-19 09:46:06.301792
2964  2023-10-19 09:46:06.349634
2965  2023-10-19 09:46:06.381513
2966  2023-10-19 09:46:06.415424
2967  2023-10-19 09:46:06.445374
2968  2023-10-19 09:46:06.477257
2969  2023-10-19 09:46:06.509172
2970  2023-10-19 09:46:06.541135
2971  2023-10-19 09:46:06.573001
2972  2023-10-19 09:46:06.604971
2973  2023-10-19 09:46:06.636873
2974  2023-10-19 09:46:06.669772
2975  2023-10-19 09:46:06.701657
2976  2023-10-19 09:46:06.749560
2977  2023-10-19 09:46:06.781475
2978  2023-10-19 09:46:06.813395
2979  2023-10-19 09:46:06.845298
2980  2023-10-19 09:46:06.877223
2981  2023-10-19 09:46:06.909102
2982  2023-10-19 09:46:06.941017
2983  2023-10-19 09:46:06.972933
2984  2023-10-19 09:46:07.004848
2985  2023-10-19 09:46:07.037760
2986  2023-10-19 09:46:07.069675
2987  2023-10-19 09:46:07.117547
2988  2023-10-19 09:46:07.149461
2989  2023-10-19 09:46:07.181375
2990  2023-10-19 09:46:07.214319
2991  2023-10-19 09:46:07.245253
2992  2023-10-19 09:46:07.277182
2993  2023-10-19 09:46:07.309071
2994  2023-10-19 09:46:07.341986
2995  2023-10-19 09:46:07.372912
2996  2023-10-19 09:46:07.405774
2997  2023-10-19 09:46:07.437756
2998  2023-10-19 09:46:07.469631
2999  2023-10-19 09:46:07.517509
3000  2023-10-19 09:46:07.549422
3001  2023-10-19 09:46:07.581337
3002  2023-10-19 09:46:07.613251
3003  2023-10-19 09:46:07.645214
3004  2023-10-19 09:46:07.677129
3005  2023-10-19 09:46:07.709044
3006  2023-10-19 09:46:07.740959
3007  2023-10-19 09:46:07.772947
3008  2023-10-19 09:46:07.804862
3009  2023-10-19 09:46:07.837743
3010  2023-10-19 09:46:07.869699
3011  2023-10-19 09:46:07.917584
3012  2023-10-19 09:46:07.949481
3013  2023-10-19 09:46:07.981393
3014  2023-10-19 09:46:08.013307
3015  2023-10-19 09:46:08.045230
3016  2023-10-19 09:46:08.077136
3017  2023-10-19 09:46:08.109048
3018  2023-10-19 09:46:08.140967
3019  2023-10-19 09:46:08.172848
3020  2023-10-19 09:46:08.205760
3021  2023-10-19 09:46:08.237675
3022  2023-10-19 09:46:08.269632
3023  2023-10-19 09:46:08.317500
3024  2023-10-19 09:46:08.349408
3025  2023-10-19 09:46:08.382289
3026  2023-10-19 09:46:08.413207
3027  2023-10-19 09:46:08.445120
3028  2023-10-19 09:46:08.477040
3029  2023-10-19 09:46:08.510945
3030  2023-10-19 09:46:08.541863
3031  2023-10-19 09:46:08.573777
3032  2023-10-19 09:46:08.605760
3033  2023-10-19 09:46:08.637636
3034  2023-10-19 09:46:08.669520
3035  2023-10-19 09:46:08.717423
3036  2023-10-19 09:46:08.749340
3037  2023-10-19 09:46:08.781256
3038  2023-10-19 09:46:08.813207
3039  2023-10-19 09:46:08.845081
3040  2023-10-19 09:46:08.877996
3041  2023-10-19 09:46:08.908881
3042  2023-10-19 09:46:08.940828
3043  2023-10-19 09:46:08.973708
3044  2023-10-19 09:46:09.005650
3045  2023-10-19 09:46:09.037564
3046  2023-10-19 09:46:09.069485
3047  2023-10-19 09:46:09.117385
3048  2023-10-19 09:46:09.149265
3049  2023-10-19 09:46:09.181187
3050  2023-10-19 09:46:09.213066
3051  2023-10-19 09:46:09.245017
3052  2023-10-19 09:46:09.276938
3053  2023-10-19 09:46:09.309873
3054  2023-10-19 09:46:09.341768
3055  2023-10-19 09:46:09.374685
3056  2023-10-19 09:46:09.406601
3057  2023-10-19 09:46:09.437504
3058  2023-10-19 09:46:09.469409
3059  2023-10-19 09:46:09.517292
3060  2023-10-19 09:46:09.549218
3061  2023-10-19 09:46:09.582125
3062  2023-10-19 09:46:09.615037
3063  2023-10-19 09:46:09.644953
3064  2023-10-19 09:46:09.677860
3065  2023-10-19 09:46:09.708777
3066  2023-10-19 09:46:09.742691
3067  2023-10-19 09:46:09.774602
3068  2023-10-19 09:46:09.807513
3069  2023-10-19 09:46:09.837927
3070  2023-10-19 09:46:09.869810
3071  2023-10-19 09:46:09.917749
3072  2023-10-19 09:46:09.949648
3073  2023-10-19 09:46:09.981569
3074  2023-10-19 09:46:10.013428
3075  2023-10-19 09:46:10.046384
3076  2023-10-19 09:46:10.078299
3077  2023-10-19 09:46:10.109212
3078  2023-10-19 09:46:10.141153
3079  2023-10-19 09:46:10.174031
3080  2023-10-19 09:46:10.205951
3081  2023-10-19 09:46:10.237888
3082  2023-10-19 09:46:10.269793
3083  2023-10-19 09:46:10.318014
3084  2023-10-19 09:46:10.348931
3085  2023-10-19 09:46:10.380846
3086  2023-10-19 09:46:10.413759
3087  2023-10-19 09:46:10.445673
3088  2023-10-19 09:46:10.478618
3089  2023-10-19 09:46:10.509502
3090  2023-10-19 09:46:10.541417
3091  2023-10-19 09:46:10.574329
3092  2023-10-19 09:46:10.606245
3093  2023-10-19 09:46:10.638160
3094  2023-10-19 09:46:10.669076
3095  2023-10-19 09:46:10.717945
3096  2023-10-19 09:46:10.748862
3097  2023-10-19 09:46:10.780777
3098  2023-10-19 09:46:10.813690
3099  2023-10-19 09:46:10.845604
3100  2023-10-19 09:46:10.877518
3101  2023-10-19 09:46:10.909433
3102  2023-10-19 09:46:10.941347
3103  2023-10-19 09:46:10.973262
3104  2023-10-19 09:46:11.005177
3105  2023-10-19 09:46:11.037092
3106  2023-10-19 09:46:11.084964
3107  2023-10-19 09:46:11.117876
3108  2023-10-19 09:46:11.148793
3109  2023-10-19 09:46:11.181706
3110  2023-10-19 09:46:11.213620
3111  2023-10-19 09:46:11.246532
3112  2023-10-19 09:46:11.278447
3113  2023-10-19 09:46:11.309394
3114  2023-10-19 09:46:11.341310
3115  2023-10-19 09:46:11.373237
3116  2023-10-19 09:46:11.406218
3117  2023-10-19 09:46:11.438126
3118  2023-10-19 09:46:11.486001
3119  2023-10-19 09:46:11.518943
3120  2023-10-19 09:46:11.549863
3121  2023-10-19 09:46:11.581748
3122  2023-10-19 09:46:11.614670
3123  2023-10-19 09:46:11.647537
3124  2023-10-19 09:46:11.677495
3125  2023-10-19 09:46:11.709402
3126  2023-10-19 09:46:11.741318
3127  2023-10-19 09:46:11.773302
3128  2023-10-19 09:46:11.806182
3129  2023-10-19 09:46:11.837061
3130  2023-10-19 09:46:11.885932
3131  2023-10-19 09:46:11.917845
3132  2023-10-19 09:46:11.949755
3133  2023-10-19 09:46:11.982677
3134  2023-10-19 09:46:12.014580
3135  2023-10-19 09:46:12.045508
3136  2023-10-19 09:46:12.077431
3137  2023-10-19 09:46:12.109344
3138  2023-10-19 09:46:12.141258
3139  2023-10-19 09:46:12.173162
3140  2023-10-19 09:46:12.205098
3141  2023-10-19 09:46:12.236992
3142  2023-10-19 09:46:12.284932
3143  2023-10-19 09:46:12.316881
3144  2023-10-19 09:46:12.348768
3145  2023-10-19 09:46:12.381698
3146  2023-10-19 09:46:12.413556
3147  2023-10-19 09:46:12.445507
3148  2023-10-19 09:46:12.477384
3149  2023-10-19 09:46:12.509298
3150  2023-10-19 09:46:12.541248
3151  2023-10-19 09:46:12.573175
3152  2023-10-19 09:46:12.605042
3153  2023-10-19 09:46:12.637100
3154  2023-10-19 09:46:12.684991
3155  2023-10-19 09:46:12.717877
3156  2023-10-19 09:46:12.748794
3157  2023-10-19 09:46:12.781710
3158  2023-10-19 09:46:12.813587
3159  2023-10-19 09:46:12.845525
3160  2023-10-19 09:46:12.877451
3161  2023-10-19 09:46:12.909364
3162  2023-10-19 09:46:12.941282
3163  2023-10-19 09:46:12.973196
3164  2023-10-19 09:46:13.005123
3165  2023-10-19 09:46:13.037038
3166  2023-10-19 09:46:13.084911
3167  2023-10-19 09:46:13.117828
3168  2023-10-19 09:46:13.149755
3169  2023-10-19 09:46:13.181628
3170  2023-10-19 09:46:13.213550
3171  2023-10-19 09:46:13.245458
3172  2023-10-19 09:46:13.278393
3173  2023-10-19 09:46:13.310308
3174  2023-10-19 09:46:13.341223
3175  2023-10-19 09:46:13.373126
3176  2023-10-19 09:46:13.405036
3177  2023-10-19 09:46:13.436953
3178  2023-10-19 09:46:13.484870
3179  2023-10-19 09:46:13.517721
3180  2023-10-19 09:46:13.549656
3181  2023-10-19 09:46:13.581560
3182  2023-10-19 09:46:13.613473
3183  2023-10-19 09:46:13.645395
3184  2023-10-19 09:46:13.677323
3185  2023-10-19 09:46:13.709259
3186  2023-10-19 09:46:13.741131
3187  2023-10-19 09:46:13.773046
3188  2023-10-19 09:46:13.804961
3189  2023-10-19 09:46:13.836886
3190  2023-10-19 09:46:13.885760
3191  2023-10-19 09:46:13.917669
3192  2023-10-19 09:46:13.949584
3193  2023-10-19 09:46:13.981574
3194  2023-10-19 09:46:14.013505
3195  2023-10-19 09:46:14.045370
3196  2023-10-19 09:46:14.077285
3197  2023-10-19 09:46:14.109200
3198  2023-10-19 09:46:14.141157
3199  2023-10-19 09:46:14.174141
3200  2023-10-19 09:46:14.206050
3201  2023-10-19 09:46:14.238000
3202  2023-10-19 09:46:14.285869
3203  2023-10-19 09:46:14.317786
3204  2023-10-19 09:46:14.349872
3205  2023-10-19 09:46:14.381725
3206  2023-10-19 09:46:14.413602
3207  2023-10-19 09:46:14.445564
3208  2023-10-19 09:46:14.477462
3209  2023-10-19 09:46:14.509378
3210  2023-10-19 09:46:14.541261
3211  2023-10-19 09:46:14.573210
3212  2023-10-19 09:46:14.605160
3213  2023-10-19 09:46:14.653069
3214  2023-10-19 09:46:14.685020
3215  2023-10-19 09:46:14.717931
3216  2023-10-19 09:46:14.748850
3217  2023-10-19 09:46:14.781727
3218  2023-10-19 09:46:14.813642
3219  2023-10-19 09:46:14.845611
3220  2023-10-19 09:46:14.877526
3221  2023-10-19 09:46:14.909440
3222  2023-10-19 09:46:14.941355
3223  2023-10-19 09:46:14.973272
3224  2023-10-19 09:46:15.005483
3225  2023-10-19 09:46:15.053357
3226  2023-10-19 09:46:15.085293
3227  2023-10-19 09:46:15.117189
3228  2023-10-19 09:46:15.149093
3229  2023-10-19 09:46:15.181015
3230  2023-10-19 09:46:15.212929
3231  2023-10-19 09:46:15.246806
3232  2023-10-19 09:46:15.277728
3233  2023-10-19 09:46:15.309673
3234  2023-10-19 09:46:15.341553
3235  2023-10-19 09:46:15.373467
3236  2023-10-19 09:46:15.405383
3237  2023-10-19 09:46:15.453284
3238  2023-10-19 09:46:15.485202
3239  2023-10-19 09:46:15.517174
3240  2023-10-19 09:46:15.549090
3241  2023-10-19 09:46:15.581034
3242  2023-10-19 09:46:15.612958
3243  2023-10-19 09:46:15.645875
3244  2023-10-19 09:46:15.677823
3245  2023-10-19 09:46:15.709760
3246  2023-10-19 09:46:15.741648
3247  2023-10-19 09:46:15.773576
3248  2023-10-19 09:46:15.805472
3249  2023-10-19 09:46:15.853320
3250  2023-10-19 09:46:15.885234
3251  2023-10-19 09:46:15.917188
3252  2023-10-19 09:46:15.949094
3253  2023-10-19 09:46:15.980978
3254  2023-10-19 09:46:16.012921
3255  2023-10-19 09:46:16.044806
3256  2023-10-19 09:46:16.077744
3257  2023-10-19 09:46:16.109660
3258  2023-10-19 09:46:16.141580
3259  2023-10-19 09:46:16.173462
3260  2023-10-19 09:46:16.205376
3261  2023-10-19 09:46:16.253249
3262  2023-10-19 09:46:16.286163
3263  2023-10-19 09:46:16.317117
3264  2023-10-19 09:46:16.349025
3265  2023-10-19 09:46:16.381938
3266  2023-10-19 09:46:16.412822
3267  2023-10-19 09:46:16.445734
3268  2023-10-19 09:46:16.478646
3269  2023-10-19 09:46:16.510562
3270  2023-10-19 09:46:16.541511
3271  2023-10-19 09:46:16.573515
3272  2023-10-19 09:46:16.605430
3273  2023-10-19 09:46:16.653352
3274  2023-10-19 09:46:16.686216
3275  2023-10-19 09:46:16.717160
3276  2023-10-19 09:46:16.749087
3277  2023-10-19 09:46:16.781990
3278  2023-10-19 09:46:16.812900
3279  2023-10-19 09:46:16.844821
3280  2023-10-19 09:46:16.877726
3281  2023-10-19 09:46:16.909617
3282  2023-10-19 09:46:16.941534
3283  2023-10-19 09:46:16.973478
3284  2023-10-19 09:46:17.005361
3285  2023-10-19 09:46:17.053248
3286  2023-10-19 09:46:17.085193
3287  2023-10-19 09:46:17.117102
3288  2023-10-19 09:46:17.149002
3289  2023-10-19 09:46:17.180939
3290  2023-10-19 09:46:17.212807
3291  2023-10-19 09:46:17.245719
3292  2023-10-19 09:46:17.277673
3293  2023-10-19 09:46:17.309589
3294  2023-10-19 09:46:17.341501
3295  2023-10-19 09:46:17.373377
3296  2023-10-19 09:46:17.405328
3297  2023-10-19 09:46:17.453164
3298  2023-10-19 09:46:17.485123
3299  2023-10-19 09:46:17.518030
3300  2023-10-19 09:46:17.549908
3301  2023-10-19 09:46:17.593790
3302  2023-10-19 09:46:17.613737
3303  2023-10-19 09:46:17.645677
3304  2023-10-19 09:46:17.677596
3305  2023-10-19 09:46:17.709525
3306  2023-10-19 09:46:17.741433
3307  2023-10-19 09:46:17.773342
3308  2023-10-19 09:46:17.805275
3309  2023-10-19 09:46:17.853152
3310  2023-10-19 09:46:17.885043
3311  2023-10-19 09:46:17.916957
3312  2023-10-19 09:46:17.948869
3313  2023-10-19 09:46:17.981790
3314  2023-10-19 09:46:18.013738
3315  2023-10-19 09:46:18.045580
3316  2023-10-19 09:46:18.077519
3317  2023-10-19 09:46:18.109451
3318  2023-10-19 09:46:18.141359
3319  2023-10-19 09:46:18.173365
3320  2023-10-19 09:46:18.220982
3321  2023-10-19 09:46:18.252902
3322  2023-10-19 09:46:18.285783
3323  2023-10-19 09:46:18.317698
3324  2023-10-19 09:46:18.349636
3325  2023-10-19 09:46:18.381551
3326  2023-10-19 09:46:18.413467
3327  2023-10-19 09:46:18.445357
3328  2023-10-19 09:46:18.477313
3329  2023-10-19 09:46:18.510184
3330  2023-10-19 09:46:18.542100
3331  2023-10-19 09:46:18.573061
3332  2023-10-19 09:46:18.621885
3333  2023-10-19 09:46:18.653800
3334  2023-10-19 09:46:18.685714
3335  2023-10-19 09:46:18.718660
3336  2023-10-19 09:46:18.749577
3337  2023-10-19 09:46:18.781485
3338  2023-10-19 09:46:18.813404
3339  2023-10-19 09:46:18.845335
3340  2023-10-19 09:46:18.877202
3341  2023-10-19 09:46:18.909166
3342  2023-10-19 09:46:18.941062
3343  2023-10-19 09:46:18.974008
3344  2023-10-19 09:46:19.021821
3345  2023-10-19 09:46:19.052777
3346  2023-10-19 09:46:19.085645
3347  2023-10-19 09:46:19.117560
3348  2023-10-19 09:46:19.149476
3349  2023-10-19 09:46:19.181422
3350  2023-10-19 09:46:19.213328
3351  2023-10-19 09:46:19.245218
3352  2023-10-19 09:46:19.277133
3353  2023-10-19 09:46:19.309077
3354  2023-10-19 09:46:19.340989
3355  2023-10-19 09:46:19.372903
3356  2023-10-19 09:46:19.420780
3357  2023-10-19 09:46:19.453700
3358  2023-10-19 09:46:19.485576
3359  2023-10-19 09:46:19.517490
3360  2023-10-19 09:46:19.551434
3361  2023-10-19 09:46:19.581322
3362  2023-10-19 09:46:19.613275
3363  2023-10-19 09:46:19.645159
3364  2023-10-19 09:46:19.678062
3365  2023-10-19 09:46:19.710007
3366  2023-10-19 09:46:19.740923
3367  2023-10-19 09:46:19.772846
3368  2023-10-19 09:46:19.821717
3369  2023-10-19 09:46:19.853623
3370  2023-10-19 09:46:19.885508
3371  2023-10-19 09:46:19.917456
3372  2023-10-19 09:46:19.949361
3373  2023-10-19 09:46:19.981274
3374  2023-10-19 09:46:20.013203
3375  2023-10-19 09:46:20.045209
3376  2023-10-19 09:46:20.077092
3377  2023-10-19 09:46:20.109038
3378  2023-10-19 09:46:20.141921
3379  2023-10-19 09:46:20.173869
3380  2023-10-19 09:46:20.221738
3381  2023-10-19 09:46:20.253622
3382  2023-10-19 09:46:20.285536
3383  2023-10-19 09:46:20.317451
3384  2023-10-19 09:46:20.349415
3385  2023-10-19 09:46:20.381281
3386  2023-10-19 09:46:20.413228
3387  2023-10-19 09:46:20.445110
3388  2023-10-19 09:46:20.477064
3389  2023-10-19 09:46:20.509961
3390  2023-10-19 09:46:20.540898
3391  2023-10-19 09:46:20.573814
3392  2023-10-19 09:46:20.621700
3393  2023-10-19 09:46:20.653579
3394  2023-10-19 09:46:20.685499
3395  2023-10-19 09:46:20.717382
3396  2023-10-19 09:46:20.749297
3397  2023-10-19 09:46:20.781248
3398  2023-10-19 09:46:20.813158
3399  2023-10-19 09:46:20.845074
3400  2023-10-19 09:46:20.876955
3401  2023-10-19 09:46:20.908976
3402  2023-10-19 09:46:20.940923
3403  2023-10-19 09:46:20.973853
3404  2023-10-19 09:46:21.021707
3405  2023-10-19 09:46:21.053797
3406  2023-10-19 09:46:21.085725
3407  2023-10-19 09:46:21.117624
3408  2023-10-19 09:46:21.149539
3409  2023-10-19 09:46:21.181458
3410  2023-10-19 09:46:21.213483
3411  2023-10-19 09:46:21.245404
3412  2023-10-19 09:46:21.277275
3413  2023-10-19 09:46:21.309220
3414  2023-10-19 09:46:21.341135
3415  2023-10-19 09:46:21.373019
3416  2023-10-19 09:46:21.420923
3417  2023-10-19 09:46:21.453870
3418  2023-10-19 09:46:21.484883
3419  2023-10-19 09:46:21.517795
3420  2023-10-19 09:46:21.549678
3421  2023-10-19 09:46:21.581593
3422  2023-10-19 09:46:21.613541
3423  2023-10-19 09:46:21.645424
3424  2023-10-19 09:46:21.677362
3425  2023-10-19 09:46:21.709252
3426  2023-10-19 09:46:21.741213
3427  2023-10-19 09:46:21.773113
3428  2023-10-19 09:46:21.821951
3429  2023-10-19 09:46:21.852901
3430  2023-10-19 09:46:21.885781
3431  2023-10-19 09:46:21.917694
3432  2023-10-19 09:46:21.949609
3433  2023-10-19 09:46:21.981524
3434  2023-10-19 09:46:22.013441
3435  2023-10-19 09:46:22.045354
3436  2023-10-19 09:46:22.077269
3437  2023-10-19 09:46:22.109184
3438  2023-10-19 09:46:22.141099
3439  2023-10-19 09:46:22.188970
3440  2023-10-19 09:46:22.221883
3441  2023-10-19 09:46:22.253802
3442  2023-10-19 09:46:22.285711
3443  2023-10-19 09:46:22.317626
3444  2023-10-19 09:46:22.349573
3445  2023-10-19 09:46:22.381490
3446  2023-10-19 09:46:22.413405
3447  2023-10-19 09:46:22.445314
3448  2023-10-19 09:46:22.477233
3449  2023-10-19 09:46:22.510149
3450  2023-10-19 09:46:22.541070
3451  2023-10-19 09:46:22.589933
3452  2023-10-19 09:46:22.621844
3453  2023-10-19 09:46:22.653727
3454  2023-10-19 09:46:22.685673
3455  2023-10-19 09:46:22.717587
3456  2023-10-19 09:46:22.749471
3457  2023-10-19 09:46:22.781414
3458  2023-10-19 09:46:22.813350
3459  2023-10-19 09:46:22.845260
3460  2023-10-19 09:46:22.877130
3461  2023-10-19 09:46:22.909044
3462  2023-10-19 09:46:22.940987
3463  2023-10-19 09:46:22.988831
3464  2023-10-19 09:46:23.021777
3465  2023-10-19 09:46:23.053658
3466  2023-10-19 09:46:23.085605
3467  2023-10-19 09:46:23.117487
3468  2023-10-19 09:46:23.149402
3469  2023-10-19 09:46:23.181317
3470  2023-10-19 09:46:23.215268
3471  2023-10-19 09:46:23.245178
3472  2023-10-19 09:46:23.277099
3473  2023-10-19 09:46:23.309004
3474  2023-10-19 09:46:23.340923
3475  2023-10-19 09:46:23.389784
3476  2023-10-19 09:46:23.421674
3477  2023-10-19 09:46:23.453618
3478  2023-10-19 09:46:23.485531
3479  2023-10-19 09:46:23.517453
3480  2023-10-19 09:46:23.549333
3481  2023-10-19 09:46:23.581248
3482  2023-10-19 09:46:23.613207
3483  2023-10-19 09:46:23.645111
3484  2023-10-19 09:46:23.677026
3485  2023-10-19 09:46:23.708906
3486  2023-10-19 09:46:23.741818
3487  2023-10-19 09:46:23.789690
3488  2023-10-19 09:46:23.821605
3489  2023-10-19 09:46:23.853543
3490  2023-10-19 09:46:23.885458
3491  2023-10-19 09:46:23.917373
3492  2023-10-19 09:46:23.949294
3493  2023-10-19 09:46:23.981214
3494  2023-10-19 09:46:24.013118
3495  2023-10-19 09:46:24.045043
3496  2023-10-19 09:46:24.076922
3497  2023-10-19 09:46:24.108868
3498  2023-10-19 09:46:24.141749
3499  2023-10-19 09:46:24.189621
3500  2023-10-19 09:46:24.221536
3501  2023-10-19 09:46:24.253450
3502  2023-10-19 09:46:24.285365
3503  2023-10-19 09:46:24.317317
3504  2023-10-19 09:46:24.349247
3505  2023-10-19 09:46:24.382141
3506  2023-10-19 09:46:24.413056
3507  2023-10-19 09:46:24.444973
3508  2023-10-19 09:46:24.476887
3509  2023-10-19 09:46:24.510804
3510  2023-10-19 09:46:24.542708
3511  2023-10-19 09:46:24.590590
3512  2023-10-19 09:46:24.622495
3513  2023-10-19 09:46:24.654410
3514  2023-10-19 09:46:24.687325
3515  2023-10-19 09:46:24.719258
3516  2023-10-19 09:46:24.751153
3517  2023-10-19 09:46:24.783071
3518  2023-10-19 09:46:24.814982
3519  2023-10-19 09:46:24.846909
3520  2023-10-19 09:46:24.878812
3521  2023-10-19 09:46:24.910730
3522  2023-10-19 09:46:24.942641
3523  2023-10-19 09:46:24.990515
3524  2023-10-19 09:46:25.022419
3525  2023-10-19 09:46:25.054345
3526  2023-10-19 09:46:25.086257
3527  2023-10-19 09:46:25.118141
3528  2023-10-19 09:46:25.151078
3529  2023-10-19 09:46:25.182967
3530  2023-10-19 09:46:25.214926
3531  2023-10-19 09:46:25.246824
3532  2023-10-19 09:46:25.278742
3533  2023-10-19 09:46:25.310664
3534  2023-10-19 09:46:25.342572
3535  2023-10-19 09:46:25.390438
3536  2023-10-19 09:46:25.422350
3537  2023-10-19 09:46:25.454271
3538  2023-10-19 09:46:25.486190
3539  2023-10-19 09:46:25.518094
3540  2023-10-19 09:46:25.550016
3541  2023-10-19 09:46:25.581930
3542  2023-10-19 09:46:25.613847
3543  2023-10-19 09:46:25.646760
3544  2023-10-19 09:46:25.678688
3545  2023-10-19 09:46:25.710557
3546  2023-10-19 09:46:25.758463
3547  2023-10-19 09:46:25.790373
3548  2023-10-19 09:46:25.822288
3549  2023-10-19 09:46:25.854201
3550  2023-10-19 09:46:25.886134
3551  2023-10-19 09:46:25.918031
3552  2023-10-19 09:46:25.949941
3553  2023-10-19 09:46:25.981859
3554  2023-10-19 09:46:26.013777
3555  2023-10-19 09:46:26.045692
3556  2023-10-19 09:46:26.077608
3557  2023-10-19 09:46:26.109520
3558  2023-10-19 09:46:26.157392
3559  2023-10-19 09:46:26.189308
3560  2023-10-19 09:46:26.221240
3561  2023-10-19 09:46:26.253141
