
1  2023-11-01 10:07:51.359396
2  2023-11-01 10:07:51.391351
3  2023-11-01 10:07:51.423256
4  2023-11-01 10:07:51.455200
5  2023-11-01 10:07:51.503174
6  2023-11-01 10:07:51.535099
7  2023-11-01 10:07:51.566972
8  2023-11-01 10:07:51.598887
9  2023-11-01 10:07:51.630849
10  2023-11-01 10:07:51.662765
11  2023-11-01 10:07:51.695629
12  2023-11-01 10:07:51.726716
13  2023-11-01 10:07:51.759628
14  2023-11-01 10:07:51.791532
15  2023-11-01 10:07:51.823412
16  2023-11-01 10:07:51.855327
17  2023-11-01 10:07:51.903199
18  2023-11-01 10:07:51.935113
19  2023-11-01 10:07:51.967028
20  2023-11-01 10:07:51.998943
21  2023-11-01 10:07:52.030857
22  2023-11-01 10:07:52.063770
23  2023-11-01 10:07:52.095685
24  2023-11-01 10:07:52.127599
25  2023-11-01 10:07:52.159602
26  2023-11-01 10:07:52.191407
27  2023-11-01 10:07:52.223414
28  2023-11-01 10:07:52.255298
29  2023-11-01 10:07:52.303201
30  2023-11-01 10:07:52.335082
31  2023-11-01 10:07:52.366966
32  2023-11-01 10:07:52.398881
33  2023-11-01 10:07:52.431795
34  2023-11-01 10:07:52.462759
35  2023-11-01 10:07:52.495654
36  2023-11-01 10:07:52.527569
37  2023-11-01 10:07:52.559513
38  2023-11-01 10:07:52.591463
39  2023-11-01 10:07:52.623373
40  2023-11-01 10:07:52.655257
41  2023-11-01 10:07:52.703133
42  2023-11-01 10:07:52.735043
43  2023-11-01 10:07:52.766958
44  2023-11-01 10:07:52.798874
45  2023-11-01 10:07:52.831786
46  2023-11-01 10:07:52.862783
47  2023-11-01 10:07:52.895695
48  2023-11-01 10:07:52.927668
49  2023-11-01 10:07:52.959525
50  2023-11-01 10:07:52.991496
51  2023-11-01 10:07:53.023416
52  2023-11-01 10:07:53.055331
53  2023-11-01 10:07:53.103314
54  2023-11-01 10:07:53.135187
55  2023-11-01 10:07:53.167136
56  2023-11-01 10:07:53.199017
57  2023-11-01 10:07:53.230979
58  2023-11-01 10:07:53.262902
59  2023-11-01 10:07:53.295758
60  2023-11-01 10:07:53.327673
61  2023-11-01 10:07:53.359748
62  2023-11-01 10:07:53.391620
63  2023-11-01 10:07:53.423563
64  2023-11-01 10:07:53.455491
65  2023-11-01 10:07:53.503330
66  2023-11-01 10:07:53.535379
67  2023-11-01 10:07:53.567294
68  2023-11-01 10:07:53.599333
69  2023-11-01 10:07:53.631192
70  2023-11-01 10:07:53.663191
71  2023-11-01 10:07:53.695106
72  2023-11-01 10:07:53.727064
73  2023-11-01 10:07:53.758969
74  2023-11-01 10:07:53.790850
75  2023-11-01 10:07:53.823763
76  2023-11-01 10:07:53.871634
77  2023-11-01 10:07:53.903549
78  2023-11-01 10:07:53.935464
79  2023-11-01 10:07:53.967472
80  2023-11-01 10:07:53.999326
81  2023-11-01 10:07:54.031282
82  2023-11-01 10:07:54.063155
83  2023-11-01 10:07:54.095073
84  2023-11-01 10:07:54.127018
85  2023-11-01 10:07:54.159939
86  2023-11-01 10:07:54.191811
87  2023-11-01 10:07:54.223799
88  2023-11-01 10:07:54.271632
89  2023-11-01 10:07:54.303527
90  2023-11-01 10:07:54.335481
91  2023-11-01 10:07:54.367396
92  2023-11-01 10:07:54.399257
93  2023-11-01 10:07:54.431218
94  2023-11-01 10:07:54.463176
95  2023-11-01 10:07:54.495118
96  2023-11-01 10:07:54.526971
97  2023-11-01 10:07:54.559664
98  2023-11-01 10:07:54.591680
99  2023-11-01 10:07:54.623592
100  2023-11-01 10:07:54.671532
101  2023-11-01 10:07:54.703487
102  2023-11-01 10:07:54.735436
103  2023-11-01 10:07:54.767316
104  2023-11-01 10:07:54.799277
105  2023-11-01 10:07:54.831194
106  2023-11-01 10:07:54.863094
107  2023-11-01 10:07:54.894975
108  2023-11-01 10:07:54.926890
109  2023-11-01 10:07:54.958805
110  2023-11-01 10:07:54.991765
111  2023-11-01 10:07:55.023680
112  2023-11-01 10:07:55.070845
113  2023-11-01 10:07:55.103793
114  2023-11-01 10:07:55.135686
115  2023-11-01 10:07:55.167632
116  2023-11-01 10:07:55.199534
117  2023-11-01 10:07:55.231416
118  2023-11-01 10:07:55.263365
119  2023-11-01 10:07:55.295278
120  2023-11-01 10:07:55.327160
121  2023-11-01 10:07:55.359108
122  2023-11-01 10:07:55.390989
123  2023-11-01 10:07:55.422935
124  2023-11-01 10:07:55.470810
125  2023-11-01 10:07:55.503741
126  2023-11-01 10:07:55.535634
127  2023-11-01 10:07:55.567517
128  2023-11-01 10:07:55.599438
129  2023-11-01 10:07:55.631347
130  2023-11-01 10:07:55.663317
131  2023-11-01 10:07:55.695303
132  2023-11-01 10:07:55.727265
133  2023-11-01 10:07:55.759234
134  2023-11-01 10:07:55.791142
135  2023-11-01 10:07:55.823009
136  2023-11-01 10:07:55.870881
137  2023-11-01 10:07:55.902797
138  2023-11-01 10:07:55.935710
139  2023-11-01 10:07:55.967623
140  2023-11-01 10:07:55.999570
141  2023-11-01 10:07:56.031452
142  2023-11-01 10:07:56.063401
143  2023-11-01 10:07:56.095319
144  2023-11-01 10:07:56.127197
145  2023-11-01 10:07:56.159111
146  2023-11-01 10:07:56.191069
147  2023-11-01 10:07:56.222992
148  2023-11-01 10:07:56.270919
149  2023-11-01 10:07:56.303832
150  2023-11-01 10:07:56.335773
151  2023-11-01 10:07:56.367662
152  2023-11-01 10:07:56.399577
153  2023-11-01 10:07:56.431491
154  2023-11-01 10:07:56.463407
155  2023-11-01 10:07:56.495321
156  2023-11-01 10:07:56.527235
157  2023-11-01 10:07:56.559150
158  2023-11-01 10:07:56.591459
159  2023-11-01 10:07:56.623018
160  2023-11-01 10:07:56.670993
161  2023-11-01 10:07:56.702916
162  2023-11-01 10:07:56.735786
163  2023-11-01 10:07:56.766831
164  2023-11-01 10:07:56.799746
165  2023-11-01 10:07:56.831626
166  2023-11-01 10:07:56.863541
167  2023-11-01 10:07:56.895490
168  2023-11-01 10:07:56.927388
169  2023-11-01 10:07:56.959303
170  2023-11-01 10:07:56.991266
171  2023-11-01 10:07:57.023255
172  2023-11-01 10:07:57.071192
173  2023-11-01 10:07:57.103042
174  2023-11-01 10:07:57.134957
175  2023-11-01 10:07:57.166871
176  2023-11-01 10:07:57.198786
177  2023-11-01 10:07:57.231749
178  2023-11-01 10:07:57.263664
179  2023-11-01 10:07:57.295624
180  2023-11-01 10:07:57.327494
181  2023-11-01 10:07:57.359409
182  2023-11-01 10:07:57.391323
183  2023-11-01 10:07:57.423285
184  2023-11-01 10:07:57.471162
185  2023-11-01 10:07:57.503024
186  2023-11-01 10:07:57.534985
187  2023-11-01 10:07:57.566854
188  2023-11-01 10:07:57.599770
189  2023-11-01 10:07:57.631681
190  2023-11-01 10:07:57.663596
191  2023-11-01 10:07:57.695510
192  2023-11-01 10:07:57.727425
193  2023-11-01 10:07:57.759340
194  2023-11-01 10:07:57.791286
195  2023-11-01 10:07:57.839233
196  2023-11-01 10:07:57.871085
197  2023-11-01 10:07:57.902999
198  2023-11-01 10:07:57.934982
199  2023-11-01 10:07:57.966929
200  2023-11-01 10:07:57.999242
201  2023-11-01 10:07:58.031217
202  2023-11-01 10:07:58.063204
203  2023-11-01 10:07:58.095119
204  2023-11-01 10:07:58.127079
205  2023-11-01 10:07:58.158948
206  2023-11-01 10:07:58.190908
207  2023-11-01 10:07:58.239732
208  2023-11-01 10:07:58.271647
209  2023-11-01 10:07:58.303562
210  2023-11-01 10:07:58.335509
211  2023-11-01 10:07:58.367391
212  2023-11-01 10:07:58.399312
213  2023-11-01 10:07:58.431223
214  2023-11-01 10:07:58.463094
215  2023-11-01 10:07:58.495052
216  2023-11-01 10:07:58.526966
217  2023-11-01 10:07:58.558881
218  2023-11-01 10:07:58.591794
219  2023-11-01 10:07:58.639746
220  2023-11-01 10:07:58.671641
221  2023-11-01 10:07:58.703533
222  2023-11-01 10:07:58.735487
223  2023-11-01 10:07:58.767405
224  2023-11-01 10:07:58.799313
225  2023-11-01 10:07:58.831250
226  2023-11-01 10:07:58.863171
227  2023-11-01 10:07:58.895072
228  2023-11-01 10:07:58.926987
229  2023-11-01 10:07:58.958903
230  2023-11-01 10:07:58.990817
231  2023-11-01 10:07:59.038775
232  2023-11-01 10:07:59.070689
233  2023-11-01 10:07:59.103633
234  2023-11-01 10:07:59.135564
235  2023-11-01 10:07:59.167479
236  2023-11-01 10:07:59.199394
237  2023-11-01 10:07:59.231308
238  2023-11-01 10:07:59.263106
239  2023-11-01 10:07:59.295957
240  2023-11-01 10:07:59.327873
241  2023-11-01 10:07:59.359787
242  2023-11-01 10:07:59.391700
243  2023-11-01 10:07:59.439603
244  2023-11-01 10:07:59.471488
245  2023-11-01 10:07:59.503402
246  2023-11-01 10:07:59.535317
247  2023-11-01 10:07:59.567324
248  2023-11-01 10:07:59.599238
249  2023-11-01 10:07:59.631153
250  2023-11-01 10:07:59.663593
251  2023-11-01 10:07:59.695508
252  2023-11-01 10:07:59.727476
253  2023-11-01 10:07:59.759432
254  2023-11-01 10:07:59.791351
255  2023-11-01 10:07:59.839208
256  2023-11-01 10:07:59.870985
257  2023-11-01 10:07:59.902970
258  2023-11-01 10:07:59.934884
259  2023-11-01 10:07:59.967796
260  2023-11-01 10:07:59.999711
261  2023-11-01 10:08:00.031626
262  2023-11-01 10:08:00.063541
263  2023-11-01 10:08:00.094979
264  2023-11-01 10:08:00.126926
265  2023-11-01 10:08:00.159805
266  2023-11-01 10:08:00.191720
267  2023-11-01 10:08:00.239617
268  2023-11-01 10:08:00.271564
269  2023-11-01 10:08:00.303454
270  2023-11-01 10:08:00.335396
271  2023-11-01 10:08:00.367300
272  2023-11-01 10:08:00.399222
273  2023-11-01 10:08:00.431114
274  2023-11-01 10:08:00.462999
275  2023-11-01 10:08:00.496047
276  2023-11-01 10:08:00.526965
277  2023-11-01 10:08:00.559919
278  2023-11-01 10:08:00.590829
279  2023-11-01 10:08:00.639785
280  2023-11-01 10:08:00.671640
281  2023-11-01 10:08:00.703556
282  2023-11-01 10:08:00.735507
283  2023-11-01 10:08:00.767465
284  2023-11-01 10:08:00.799380
285  2023-11-01 10:08:00.831331
286  2023-11-01 10:08:00.863333
287  2023-11-01 10:08:00.895248
288  2023-11-01 10:08:00.927162
289  2023-11-01 10:08:00.959113
290  2023-11-01 10:08:00.990992
291  2023-11-01 10:08:01.039005
292  2023-11-01 10:08:01.070919
293  2023-11-01 10:08:01.102834
294  2023-11-01 10:08:01.135785
295  2023-11-01 10:08:01.167693
296  2023-11-01 10:08:01.199576
297  2023-11-01 10:08:01.231490
298  2023-11-01 10:08:01.263405
299  2023-11-01 10:08:01.295003
300  2023-11-01 10:08:01.326987
301  2023-11-01 10:08:01.358901
302  2023-11-01 10:08:01.407771
303  2023-11-01 10:08:01.439685
304  2023-11-01 10:08:01.470887
305  2023-11-01 10:08:01.502800
306  2023-11-01 10:08:01.535164
307  2023-11-01 10:08:01.567079
308  2023-11-01 10:08:01.598994
309  2023-11-01 10:08:01.630908
310  2023-11-01 10:08:01.662823
311  2023-11-01 10:08:01.695740
312  2023-11-01 10:08:01.727650
313  2023-11-01 10:08:01.759565
314  2023-11-01 10:08:01.807437
315  2023-11-01 10:08:01.839352
316  2023-11-01 10:08:01.871266
317  2023-11-01 10:08:01.903181
318  2023-11-01 10:08:01.935096
319  2023-11-01 10:08:01.967010
320  2023-11-01 10:08:01.998925
321  2023-11-01 10:08:02.030840
322  2023-11-01 10:08:02.063752
323  2023-11-01 10:08:02.095667
324  2023-11-01 10:08:02.126932
325  2023-11-01 10:08:02.158817
326  2023-11-01 10:08:02.207722
327  2023-11-01 10:08:02.239600
328  2023-11-01 10:08:02.271515
329  2023-11-01 10:08:02.303511
330  2023-11-01 10:08:02.334951
331  2023-11-01 10:08:02.366933
332  2023-11-01 10:08:02.398935
333  2023-11-01 10:08:02.430850
334  2023-11-01 10:08:02.463762
335  2023-11-01 10:08:02.495677
336  2023-11-01 10:08:02.527591
337  2023-11-01 10:08:02.559506
338  2023-11-01 10:08:02.607378
339  2023-11-01 10:08:02.639293
340  2023-11-01 10:08:02.671208
341  2023-11-01 10:08:02.703122
342  2023-11-01 10:08:02.735037
343  2023-11-01 10:08:02.766952
344  2023-11-01 10:08:02.798866
345  2023-11-01 10:08:02.831779
346  2023-11-01 10:08:02.863693
347  2023-11-01 10:08:02.895608
348  2023-11-01 10:08:02.927523
349  2023-11-01 10:08:02.959437
350  2023-11-01 10:08:03.007309
351  2023-11-01 10:08:03.039225
352  2023-11-01 10:08:03.071139
353  2023-11-01 10:08:03.103053
354  2023-11-01 10:08:03.135320
355  2023-11-01 10:08:03.167286
356  2023-11-01 10:08:03.199171
357  2023-11-01 10:08:03.231082
358  2023-11-01 10:08:03.262978
359  2023-11-01 10:08:03.295859
360  2023-11-01 10:08:03.327816
361  2023-11-01 10:08:03.359720
362  2023-11-01 10:08:03.407604
363  2023-11-01 10:08:03.439524
364  2023-11-01 10:08:03.471429
365  2023-11-01 10:08:03.503304
366  2023-11-01 10:08:03.535334
367  2023-11-01 10:08:03.567216
368  2023-11-01 10:08:03.599130
369  2023-11-01 10:08:03.631080
370  2023-11-01 10:08:03.662960
371  2023-11-01 10:08:03.694874
372  2023-11-01 10:08:03.727787
373  2023-11-01 10:08:03.758878
374  2023-11-01 10:08:03.807701
375  2023-11-01 10:08:03.839660
376  2023-11-01 10:08:03.871531
377  2023-11-01 10:08:03.903445
378  2023-11-01 10:08:03.935360
379  2023-11-01 10:08:03.967307
380  2023-11-01 10:08:03.999190
381  2023-11-01 10:08:04.031104
382  2023-11-01 10:08:04.063019
383  2023-11-01 10:08:04.094934
384  2023-11-01 10:08:04.126848
385  2023-11-01 10:08:04.159760
386  2023-11-01 10:08:04.207632
387  2023-11-01 10:08:04.239547
388  2023-11-01 10:08:04.271462
389  2023-11-01 10:08:04.303377
390  2023-11-01 10:08:04.335291
391  2023-11-01 10:08:04.367206
392  2023-11-01 10:08:04.399134
393  2023-11-01 10:08:04.431035
394  2023-11-01 10:08:04.462950
395  2023-11-01 10:08:04.494865
396  2023-11-01 10:08:04.527777
397  2023-11-01 10:08:04.559692
398  2023-11-01 10:08:04.607564
399  2023-11-01 10:08:04.639479
400  2023-11-01 10:08:04.671434
401  2023-11-01 10:08:04.703308
402  2023-11-01 10:08:04.735223
403  2023-11-01 10:08:04.767265
404  2023-11-01 10:08:04.799189
405  2023-11-01 10:08:04.831095
406  2023-11-01 10:08:04.863010
407  2023-11-01 10:08:04.894924
408  2023-11-01 10:08:04.926839
409  2023-11-01 10:08:04.975708
410  2023-11-01 10:08:05.007671
411  2023-11-01 10:08:05.039703
412  2023-11-01 10:08:05.071586
413  2023-11-01 10:08:05.103500
414  2023-11-01 10:08:05.135464
415  2023-11-01 10:08:05.167361
416  2023-11-01 10:08:05.199245
417  2023-11-01 10:08:05.231167
418  2023-11-01 10:08:05.263108
419  2023-11-01 10:08:05.295016
420  2023-11-01 10:08:05.326903
421  2023-11-01 10:08:05.374825
422  2023-11-01 10:08:05.407687
423  2023-11-01 10:08:05.439602
424  2023-11-01 10:08:05.471550
425  2023-11-01 10:08:05.503464
426  2023-11-01 10:08:05.535346
427  2023-11-01 10:08:05.567261
428  2023-11-01 10:08:05.599176
429  2023-11-01 10:08:05.631120
430  2023-11-01 10:08:05.663005
431  2023-11-01 10:08:05.694920
432  2023-11-01 10:08:05.726835
433  2023-11-01 10:08:05.775704
434  2023-11-01 10:08:05.807619
435  2023-11-01 10:08:05.839534
436  2023-11-01 10:08:05.871448
437  2023-11-01 10:08:05.903363
438  2023-11-01 10:08:05.935278
439  2023-11-01 10:08:05.967199
440  2023-11-01 10:08:05.999107
441  2023-11-01 10:08:06.031022
442  2023-11-01 10:08:06.062936
443  2023-11-01 10:08:06.094851
444  2023-11-01 10:08:06.127763
445  2023-11-01 10:08:06.175712
446  2023-11-01 10:08:06.207748
447  2023-11-01 10:08:06.239662
448  2023-11-01 10:08:06.271577
449  2023-11-01 10:08:06.303492
450  2023-11-01 10:08:06.335406
451  2023-11-01 10:08:06.367321
452  2023-11-01 10:08:06.399243
453  2023-11-01 10:08:06.431151
454  2023-11-01 10:08:06.463065
455  2023-11-01 10:08:06.494980
456  2023-11-01 10:08:06.527892
457  2023-11-01 10:08:06.575764
458  2023-11-01 10:08:06.607679
459  2023-11-01 10:08:06.639594
460  2023-11-01 10:08:06.671508
461  2023-11-01 10:08:06.703423
462  2023-11-01 10:08:06.735338
463  2023-11-01 10:08:06.767252
464  2023-11-01 10:08:06.799174
465  2023-11-01 10:08:06.831082
466  2023-11-01 10:08:06.862997
467  2023-11-01 10:08:06.894912
468  2023-11-01 10:08:06.926985
469  2023-11-01 10:08:06.974852
470  2023-11-01 10:08:07.007764
471  2023-11-01 10:08:07.039680
472  2023-11-01 10:08:07.071594
473  2023-11-01 10:08:07.103508
474  2023-11-01 10:08:07.135423
475  2023-11-01 10:08:07.167371
476  2023-11-01 10:08:07.199252
477  2023-11-01 10:08:07.231167
478  2023-11-01 10:08:07.263082
479  2023-11-01 10:08:07.295031
480  2023-11-01 10:08:07.327027
481  2023-11-01 10:08:07.374867
482  2023-11-01 10:08:07.406813
483  2023-11-01 10:08:07.439742
484  2023-11-01 10:08:07.471647
485  2023-11-01 10:08:07.503608
486  2023-11-01 10:08:07.535476
487  2023-11-01 10:08:07.567392
488  2023-11-01 10:08:07.599307
489  2023-11-01 10:08:07.631253
490  2023-11-01 10:08:07.663136
491  2023-11-01 10:08:07.695051
492  2023-11-01 10:08:07.726966
493  2023-11-01 10:08:07.774838
494  2023-11-01 10:08:07.807750
495  2023-11-01 10:08:07.839704
496  2023-11-01 10:08:07.871579
497  2023-11-01 10:08:07.903494
498  2023-11-01 10:08:07.935409
499  2023-11-01 10:08:07.967323
500  2023-11-01 10:08:07.999238
501  2023-11-01 10:08:08.031153
502  2023-11-01 10:08:08.063067
503  2023-11-01 10:08:08.094982
504  2023-11-01 10:08:08.127075
505  2023-11-01 10:08:08.174947
506  2023-11-01 10:08:08.206861
507  2023-11-01 10:08:08.238776
508  2023-11-01 10:08:08.271688
509  2023-11-01 10:08:08.303603
510  2023-11-01 10:08:08.335518
511  2023-11-01 10:08:08.367432
512  2023-11-01 10:08:08.399444
513  2023-11-01 10:08:08.431413
514  2023-11-01 10:08:08.463327
515  2023-11-01 10:08:08.495336
516  2023-11-01 10:08:08.527382
517  2023-11-01 10:08:08.575255
518  2023-11-01 10:08:08.607169
519  2023-11-01 10:08:08.639084
520  2023-11-01 10:08:08.670999
521  2023-11-01 10:08:08.702913
522  2023-11-01 10:08:08.734936
523  2023-11-01 10:08:08.766901
524  2023-11-01 10:08:08.798852
525  2023-11-01 10:08:08.830777
526  2023-11-01 10:08:08.863642
527  2023-11-01 10:08:08.895557
528  2023-11-01 10:08:08.943429
529  2023-11-01 10:08:08.975344
530  2023-11-01 10:08:09.007304
531  2023-11-01 10:08:09.039173
532  2023-11-01 10:08:09.071088
533  2023-11-01 10:08:09.103003
534  2023-11-01 10:08:09.134984
535  2023-11-01 10:08:09.166879
536  2023-11-01 10:08:09.199744
537  2023-11-01 10:08:09.231659
538  2023-11-01 10:08:09.263573
539  2023-11-01 10:08:09.295522
540  2023-11-01 10:08:09.343396
541  2023-11-01 10:08:09.375369
542  2023-11-01 10:08:09.407283
543  2023-11-01 10:08:09.439198
544  2023-11-01 10:08:09.471113
545  2023-11-01 10:08:09.503028
546  2023-11-01 10:08:09.534942
547  2023-11-01 10:08:09.566857
548  2023-11-01 10:08:09.599769
549  2023-11-01 10:08:09.631684
550  2023-11-01 10:08:09.663598
551  2023-11-01 10:08:09.695513
552  2023-11-01 10:08:09.743385
553  2023-11-01 10:08:09.775300
554  2023-11-01 10:08:09.807215
555  2023-11-01 10:08:09.839129
556  2023-11-01 10:08:09.871278
557  2023-11-01 10:08:09.903240
558  2023-11-01 10:08:09.935154
559  2023-11-01 10:08:09.967069
560  2023-11-01 10:08:09.998984
561  2023-11-01 10:08:10.030899
562  2023-11-01 10:08:10.062813
563  2023-11-01 10:08:10.094895
564  2023-11-01 10:08:10.143790
565  2023-11-01 10:08:10.175705
566  2023-11-01 10:08:10.207619
567  2023-11-01 10:08:10.239534
568  2023-11-01 10:08:10.271449
569  2023-11-01 10:08:10.303363
570  2023-11-01 10:08:10.335312
571  2023-11-01 10:08:10.367193
572  2023-11-01 10:08:10.399121
573  2023-11-01 10:08:10.431022
574  2023-11-01 10:08:10.462974
575  2023-11-01 10:08:10.494897
576  2023-11-01 10:08:10.543753
577  2023-11-01 10:08:10.575641
578  2023-11-01 10:08:10.607680
579  2023-11-01 10:08:10.639590
580  2023-11-01 10:08:10.671514
581  2023-11-01 10:08:10.703443
582  2023-11-01 10:08:10.735386
583  2023-11-01 10:08:10.767300
584  2023-11-01 10:08:10.799278
585  2023-11-01 10:08:10.831130
586  2023-11-01 10:08:10.863045
587  2023-11-01 10:08:10.894959
588  2023-11-01 10:08:10.943831
589  2023-11-01 10:08:10.975744
590  2023-11-01 10:08:11.007658
591  2023-11-01 10:08:11.039573
592  2023-11-01 10:08:11.071488
593  2023-11-01 10:08:11.103402
594  2023-11-01 10:08:11.135317
595  2023-11-01 10:08:11.167237
596  2023-11-01 10:08:11.199159
597  2023-11-01 10:08:11.231061
598  2023-11-01 10:08:11.262976
599  2023-11-01 10:08:11.295928
600  2023-11-01 10:08:11.343760
601  2023-11-01 10:08:11.375675
602  2023-11-01 10:08:11.407590
603  2023-11-01 10:08:11.439504
604  2023-11-01 10:08:11.471419
605  2023-11-01 10:08:11.503360
606  2023-11-01 10:08:11.535249
607  2023-11-01 10:08:11.567163
608  2023-11-01 10:08:11.599086
609  2023-11-01 10:08:11.630993
610  2023-11-01 10:08:11.662908
611  2023-11-01 10:08:11.694822
612  2023-11-01 10:08:11.743761
613  2023-11-01 10:08:11.775606
614  2023-11-01 10:08:11.807521
615  2023-11-01 10:08:11.839481
616  2023-11-01 10:08:11.871351
617  2023-11-01 10:08:11.903265
618  2023-11-01 10:08:11.935180
619  2023-11-01 10:08:11.967130
620  2023-11-01 10:08:11.999009
621  2023-11-01 10:08:12.030924
622  2023-11-01 10:08:12.062838
623  2023-11-01 10:08:12.095760
624  2023-11-01 10:08:12.143623
625  2023-11-01 10:08:12.175577
626  2023-11-01 10:08:12.207540
627  2023-11-01 10:08:12.239477
628  2023-11-01 10:08:12.271476
629  2023-11-01 10:08:12.303352
630  2023-11-01 10:08:12.335266
631  2023-11-01 10:08:12.367239
632  2023-11-01 10:08:12.399153
633  2023-11-01 10:08:12.431214
634  2023-11-01 10:08:12.463291
635  2023-11-01 10:08:12.510952
636  2023-11-01 10:08:12.542868
637  2023-11-01 10:08:12.575780
638  2023-11-01 10:08:12.607695
639  2023-11-01 10:08:12.639610
640  2023-11-01 10:08:12.671524
641  2023-11-01 10:08:12.703439
642  2023-11-01 10:08:12.735354
643  2023-11-01 10:08:12.767325
644  2023-11-01 10:08:12.799300
645  2023-11-01 10:08:12.831215
646  2023-11-01 10:08:12.863129
647  2023-11-01 10:08:12.911999
648  2023-11-01 10:08:12.942916
649  2023-11-01 10:08:12.974831
650  2023-11-01 10:08:13.007743
651  2023-11-01 10:08:13.039658
652  2023-11-01 10:08:13.071572
653  2023-11-01 10:08:13.103487
654  2023-11-01 10:08:13.135402
655  2023-11-01 10:08:13.167318
656  2023-11-01 10:08:13.199231
657  2023-11-01 10:08:13.231155
658  2023-11-01 10:08:13.263060
659  2023-11-01 10:08:13.310933
660  2023-11-01 10:08:13.342847
661  2023-11-01 10:08:13.375792
662  2023-11-01 10:08:13.407674
663  2023-11-01 10:08:13.439589
664  2023-11-01 10:08:13.471503
665  2023-11-01 10:08:13.503418
666  2023-11-01 10:08:13.535366
667  2023-11-01 10:08:13.567248
668  2023-11-01 10:08:13.599162
669  2023-11-01 10:08:13.631112
670  2023-11-01 10:08:13.663032
671  2023-11-01 10:08:13.710896
672  2023-11-01 10:08:13.743776
673  2023-11-01 10:08:13.775691
674  2023-11-01 10:08:13.807605
675  2023-11-01 10:08:13.839520
676  2023-11-01 10:08:13.871467
677  2023-11-01 10:08:13.903349
678  2023-11-01 10:08:13.935264
679  2023-11-01 10:08:13.967034
680  2023-11-01 10:08:13.998952
681  2023-11-01 10:08:14.030875
682  2023-11-01 10:08:14.063747
683  2023-11-01 10:08:14.111699
684  2023-11-01 10:08:14.143614
685  2023-11-01 10:08:14.175585
686  2023-11-01 10:08:14.207477
687  2023-11-01 10:08:14.239358
688  2023-11-01 10:08:14.271273
689  2023-11-01 10:08:14.303188
690  2023-11-01 10:08:14.335151
691  2023-11-01 10:08:14.368016
692  2023-11-01 10:08:14.399930
693  2023-11-01 10:08:14.431845
694  2023-11-01 10:08:14.463835
695  2023-11-01 10:08:14.511631
696  2023-11-01 10:08:14.543545
697  2023-11-01 10:08:14.575460
698  2023-11-01 10:08:14.607375
699  2023-11-01 10:08:14.639292
700  2023-11-01 10:08:14.671204
701  2023-11-01 10:08:14.703119
702  2023-11-01 10:08:14.736032
703  2023-11-01 10:08:14.767992
704  2023-11-01 10:08:14.799861
705  2023-11-01 10:08:14.831776
706  2023-11-01 10:08:14.863691
707  2023-11-01 10:08:14.911562
708  2023-11-01 10:08:14.943507
709  2023-11-01 10:08:14.975392
710  2023-11-01 10:08:15.007306
711  2023-11-01 10:08:15.039221
712  2023-11-01 10:08:15.071136
713  2023-11-01 10:08:15.104081
714  2023-11-01 10:08:15.136055
715  2023-11-01 10:08:15.168012
716  2023-11-01 10:08:15.199900
717  2023-11-01 10:08:15.231845
718  2023-11-01 10:08:15.263713
719  2023-11-01 10:08:15.311584
720  2023-11-01 10:08:15.343499
721  2023-11-01 10:08:15.375414
722  2023-11-01 10:08:15.407329
723  2023-11-01 10:08:15.439243
724  2023-11-01 10:08:15.471158
725  2023-11-01 10:08:15.503080
726  2023-11-01 10:08:15.534987
727  2023-11-01 10:08:15.567900
728  2023-11-01 10:08:15.599815
729  2023-11-01 10:08:15.631765
730  2023-11-01 10:08:15.663644
731  2023-11-01 10:08:15.711591
732  2023-11-01 10:08:15.743513
733  2023-11-01 10:08:15.775468
734  2023-11-01 10:08:15.807383
735  2023-11-01 10:08:15.839352
736  2023-11-01 10:08:15.871266
737  2023-11-01 10:08:15.903182
738  2023-11-01 10:08:15.935096
739  2023-11-01 10:08:15.967061
740  2023-11-01 10:08:15.998925
741  2023-11-01 10:08:16.031839
742  2023-11-01 10:08:16.079842
743  2023-11-01 10:08:16.111745
744  2023-11-01 10:08:16.143658
745  2023-11-01 10:08:16.175585
746  2023-11-01 10:08:16.207487
747  2023-11-01 10:08:16.239415
748  2023-11-01 10:08:16.271367
749  2023-11-01 10:08:16.303409
750  2023-11-01 10:08:16.335287
751  2023-11-01 10:08:16.367222
752  2023-11-01 10:08:16.399172
753  2023-11-01 10:08:16.431017
754  2023-11-01 10:08:16.478885
755  2023-11-01 10:08:16.511828
756  2023-11-01 10:08:16.543772
757  2023-11-01 10:08:16.575695
758  2023-11-01 10:08:16.607602
759  2023-11-01 10:08:16.639516
760  2023-11-01 10:08:16.671434
761  2023-11-01 10:08:16.703362
762  2023-11-01 10:08:16.736309
763  2023-11-01 10:08:16.767257
764  2023-11-01 10:08:16.799124
765  2023-11-01 10:08:16.831041
766  2023-11-01 10:08:16.879878
767  2023-11-01 10:08:16.911828
768  2023-11-01 10:08:16.943754
769  2023-11-01 10:08:16.975798
770  2023-11-01 10:08:17.007710
771  2023-11-01 10:08:17.039625
772  2023-11-01 10:08:17.071583
773  2023-11-01 10:08:17.103485
774  2023-11-01 10:08:17.135497
775  2023-11-01 10:08:17.167414
776  2023-11-01 10:08:17.199454
777  2023-11-01 10:08:17.231368
778  2023-11-01 10:08:17.279242
779  2023-11-01 10:08:17.311286
780  2023-11-01 10:08:17.343248
781  2023-11-01 10:08:17.376172
782  2023-11-01 10:08:17.407060
783  2023-11-01 10:08:17.439030
784  2023-11-01 10:08:17.470937
785  2023-11-01 10:08:17.502911
786  2023-11-01 10:08:17.534881
787  2023-11-01 10:08:17.566899
788  2023-11-01 10:08:17.599716
789  2023-11-01 10:08:17.631654
790  2023-11-01 10:08:17.679528
791  2023-11-01 10:08:17.711441
792  2023-11-01 10:08:17.743357
793  2023-11-01 10:08:17.775237
794  2023-11-01 10:08:17.807206
795  2023-11-01 10:08:17.839102
796  2023-11-01 10:08:17.870981
797  2023-11-01 10:08:17.902896
798  2023-11-01 10:08:17.934811
799  2023-11-01 10:08:17.967724
800  2023-11-01 10:08:17.999639
801  2023-11-01 10:08:18.031585
802  2023-11-01 10:08:18.079424
803  2023-11-01 10:08:18.111388
804  2023-11-01 10:08:18.143289
805  2023-11-01 10:08:18.175170
806  2023-11-01 10:08:18.207122
807  2023-11-01 10:08:18.238999
808  2023-11-01 10:08:18.270960
809  2023-11-01 10:08:18.302829
810  2023-11-01 10:08:18.335790
811  2023-11-01 10:08:18.367695
812  2023-11-01 10:08:18.399570
813  2023-11-01 10:08:18.431485
814  2023-11-01 10:08:18.479422
815  2023-11-01 10:08:18.511312
816  2023-11-01 10:08:18.543187
817  2023-11-01 10:08:18.576098
818  2023-11-01 10:08:18.607016
819  2023-11-01 10:08:18.638931
820  2023-11-01 10:08:18.670844
821  2023-11-01 10:08:18.702760
822  2023-11-01 10:08:18.735713
823  2023-11-01 10:08:18.767635
824  2023-11-01 10:08:18.799551
825  2023-11-01 10:08:18.831453
826  2023-11-01 10:08:18.879355
827  2023-11-01 10:08:18.911203
828  2023-11-01 10:08:18.943194
829  2023-11-01 10:08:18.975033
830  2023-11-01 10:08:19.006982
831  2023-11-01 10:08:19.038896
832  2023-11-01 10:08:19.070810
833  2023-11-01 10:08:19.103277
834  2023-11-01 10:08:19.135199
835  2023-11-01 10:08:19.167192
836  2023-11-01 10:08:19.199106
837  2023-11-01 10:08:19.230978
838  2023-11-01 10:08:19.278897
839  2023-11-01 10:08:19.311808
840  2023-11-01 10:08:19.343710
841  2023-11-01 10:08:19.375635
842  2023-11-01 10:08:19.407556
843  2023-11-01 10:08:19.439639
844  2023-11-01 10:08:19.471536
845  2023-11-01 10:08:19.503641
846  2023-11-01 10:08:19.535564
847  2023-11-01 10:08:19.567471
848  2023-11-01 10:08:19.599409
849  2023-11-01 10:08:19.631278
850  2023-11-01 10:08:19.679199
851  2023-11-01 10:08:19.711105
852  2023-11-01 10:08:19.743028
853  2023-11-01 10:08:19.774890
854  2023-11-01 10:08:19.806851
855  2023-11-01 10:08:19.839772
856  2023-11-01 10:08:19.871662
857  2023-11-01 10:08:19.903546
858  2023-11-01 10:08:19.935461
859  2023-11-01 10:08:19.967422
860  2023-11-01 10:08:19.999344
861  2023-11-01 10:08:20.047227
862  2023-11-01 10:08:20.079112
863  2023-11-01 10:08:20.111041
864  2023-11-01 10:08:20.142940
865  2023-11-01 10:08:20.175852
866  2023-11-01 10:08:20.207792
867  2023-11-01 10:08:20.239682
868  2023-11-01 10:08:20.271596
869  2023-11-01 10:08:20.302992
870  2023-11-01 10:08:20.334999
871  2023-11-01 10:08:20.366914
872  2023-11-01 10:08:20.399804
873  2023-11-01 10:08:20.447701
874  2023-11-01 10:08:20.479594
875  2023-11-01 10:08:20.511521
876  2023-11-01 10:08:20.543439
877  2023-11-01 10:08:20.575307
878  2023-11-01 10:08:20.607259
879  2023-11-01 10:08:20.639200
880  2023-11-01 10:08:20.671083
881  2023-11-01 10:08:20.702966
882  2023-11-01 10:08:20.734881
883  2023-11-01 10:08:20.767025
884  2023-11-01 10:08:20.798933
885  2023-11-01 10:08:20.846824
886  2023-11-01 10:08:20.879737
887  2023-11-01 10:08:20.911662
888  2023-11-01 10:08:20.943597
889  2023-11-01 10:08:20.975673
890  2023-11-01 10:08:21.007529
891  2023-11-01 10:08:21.039510
892  2023-11-01 10:08:21.071604
893  2023-11-01 10:08:21.103521
894  2023-11-01 10:08:21.135499
895  2023-11-01 10:08:21.167448
896  2023-11-01 10:08:21.199482
897  2023-11-01 10:08:21.247306
898  2023-11-01 10:08:21.279288
899  2023-11-01 10:08:21.311211
900  2023-11-01 10:08:21.343112
901  2023-11-01 10:08:21.375102
902  2023-11-01 10:08:21.407016
903  2023-11-01 10:08:21.438995
904  2023-11-01 10:08:21.470907
905  2023-11-01 10:08:21.502887
906  2023-11-01 10:08:21.534841
907  2023-11-01 10:08:21.567810
908  2023-11-01 10:08:21.599734
909  2023-11-01 10:08:21.647657
910  2023-11-01 10:08:21.679640
911  2023-11-01 10:08:21.711548
912  2023-11-01 10:08:21.743455
913  2023-11-01 10:08:21.775334
914  2023-11-01 10:08:21.807284
915  2023-11-01 10:08:21.839251
916  2023-11-01 10:08:21.871115
917  2023-11-01 10:08:21.902992
918  2023-11-01 10:08:21.934999
919  2023-11-01 10:08:21.966857
920  2023-11-01 10:08:21.999797
921  2023-11-01 10:08:22.047638
922  2023-11-01 10:08:22.079598
923  2023-11-01 10:08:22.111470
924  2023-11-01 10:08:22.143385
925  2023-11-01 10:08:22.175299
926  2023-11-01 10:08:22.207228
927  2023-11-01 10:08:22.239129
928  2023-11-01 10:08:22.271044
929  2023-11-01 10:08:22.302955
930  2023-11-01 10:08:22.335836
931  2023-11-01 10:08:22.367770
932  2023-11-01 10:08:22.399701
933  2023-11-01 10:08:22.447545
934  2023-11-01 10:08:22.479549
935  2023-11-01 10:08:22.511466
936  2023-11-01 10:08:22.543361
937  2023-11-01 10:08:22.575279
938  2023-11-01 10:08:22.607213
939  2023-11-01 10:08:22.639125
940  2023-11-01 10:08:22.671993
941  2023-11-01 10:08:22.702909
942  2023-11-01 10:08:22.734823
943  2023-11-01 10:08:22.766789
944  2023-11-01 10:08:22.799771
945  2023-11-01 10:08:22.847642
946  2023-11-01 10:08:22.879576
947  2023-11-01 10:08:22.911479
948  2023-11-01 10:08:22.943392
949  2023-11-01 10:08:22.975339
950  2023-11-01 10:08:23.007293
951  2023-11-01 10:08:23.039259
952  2023-11-01 10:08:23.071123
953  2023-11-01 10:08:23.104070
954  2023-11-01 10:08:23.135021
955  2023-11-01 10:08:23.166904
956  2023-11-01 10:08:23.199813
957  2023-11-01 10:08:23.246815
958  2023-11-01 10:08:23.279716
959  2023-11-01 10:08:23.311623
960  2023-11-01 10:08:23.343539
961  2023-11-01 10:08:23.375454
962  2023-11-01 10:08:23.407383
963  2023-11-01 10:08:23.439289
964  2023-11-01 10:08:23.471261
965  2023-11-01 10:08:23.503120
966  2023-11-01 10:08:23.535030
967  2023-11-01 10:08:23.566942
968  2023-11-01 10:08:23.614819
969  2023-11-01 10:08:23.647725
970  2023-11-01 10:08:23.679652
971  2023-11-01 10:08:23.711556
972  2023-11-01 10:08:23.743493
973  2023-11-01 10:08:23.775353
974  2023-11-01 10:08:23.807301
975  2023-11-01 10:08:23.839266
976  2023-11-01 10:08:23.871133
977  2023-11-01 10:08:23.903057
978  2023-11-01 10:08:23.934926
979  2023-11-01 10:08:23.966887
980  2023-11-01 10:08:24.015736
981  2023-11-01 10:08:24.047625
982  2023-11-01 10:08:24.079594
983  2023-11-01 10:08:24.111489
984  2023-11-01 10:08:24.143408
985  2023-11-01 10:08:24.175285
986  2023-11-01 10:08:24.207242
987  2023-11-01 10:08:24.239146
988  2023-11-01 10:08:24.271061
989  2023-11-01 10:08:24.302995
990  2023-11-01 10:08:24.334904
991  2023-11-01 10:08:24.367770
992  2023-11-01 10:08:24.415688
993  2023-11-01 10:08:24.447588
994  2023-11-01 10:08:24.479537
995  2023-11-01 10:08:24.511413
996  2023-11-01 10:08:24.543373
997  2023-11-01 10:08:24.575277
998  2023-11-01 10:08:24.607202
999  2023-11-01 10:08:24.639106
1000  2023-11-01 10:08:24.671017
1001  2023-11-01 10:08:24.702920
1002  2023-11-01 10:08:24.735786
1003  2023-11-01 10:08:24.767783
1004  2023-11-01 10:08:24.815607
1005  2023-11-01 10:08:24.847519
1006  2023-11-01 10:08:24.879458
1007  2023-11-01 10:08:24.911386
1008  2023-11-01 10:08:24.943280
1009  2023-11-01 10:08:24.975151
1010  2023-11-01 10:08:25.007122
1011  2023-11-01 10:08:25.039021
1012  2023-11-01 10:08:25.070936
1013  2023-11-01 10:08:25.102854
1014  2023-11-01 10:08:25.135803
1015  2023-11-01 10:08:25.167667
1016  2023-11-01 10:08:25.215570
1017  2023-11-01 10:08:25.247454
1018  2023-11-01 10:08:25.279368
1019  2023-11-01 10:08:25.311274
1020  2023-11-01 10:08:25.343201
1021  2023-11-01 10:08:25.375078
1022  2023-11-01 10:08:25.407038
1023  2023-11-01 10:08:25.438953
1024  2023-11-01 10:08:25.471859
1025  2023-11-01 10:08:25.503776
1026  2023-11-01 10:08:25.535649
1027  2023-11-01 10:08:25.567563
1028  2023-11-01 10:08:25.615483
1029  2023-11-01 10:08:25.647381
1030  2023-11-01 10:08:25.679294
1031  2023-11-01 10:08:25.711239
1032  2023-11-01 10:08:25.743133
1033  2023-11-01 10:08:25.775041
1034  2023-11-01 10:08:25.806924
1035  2023-11-01 10:08:25.838880
1036  2023-11-01 10:08:25.871791
1037  2023-11-01 10:08:25.903697
1038  2023-11-01 10:08:25.935580
1039  2023-11-01 10:08:25.967528
1040  2023-11-01 10:08:26.015405
1041  2023-11-01 10:08:26.047319
1042  2023-11-01 10:08:26.079257
1043  2023-11-01 10:08:26.111144
1044  2023-11-01 10:08:26.143059
1045  2023-11-01 10:08:26.174974
1046  2023-11-01 10:08:26.206887
1047  2023-11-01 10:08:26.239834
1048  2023-11-01 10:08:26.271725
1049  2023-11-01 10:08:26.303633
1050  2023-11-01 10:08:26.335569
1051  2023-11-01 10:08:26.367426
1052  2023-11-01 10:08:26.415347
1053  2023-11-01 10:08:26.447266
1054  2023-11-01 10:08:26.479175
1055  2023-11-01 10:08:26.511077
1056  2023-11-01 10:08:26.543985
1057  2023-11-01 10:08:26.574905
1058  2023-11-01 10:08:26.607784
1059  2023-11-01 10:08:26.639745
1060  2023-11-01 10:08:26.671645
1061  2023-11-01 10:08:26.703572
1062  2023-11-01 10:08:26.735474
1063  2023-11-01 10:08:26.767391
1064  2023-11-01 10:08:26.815267
1065  2023-11-01 10:08:26.847209
1066  2023-11-01 10:08:26.879107
1067  2023-11-01 10:08:26.911004
1068  2023-11-01 10:08:26.942921
1069  2023-11-01 10:08:26.975856
1070  2023-11-01 10:08:27.007741
1071  2023-11-01 10:08:27.039657
1072  2023-11-01 10:08:27.071579
1073  2023-11-01 10:08:27.103491
1074  2023-11-01 10:08:27.135409
1075  2023-11-01 10:08:27.167327
1076  2023-11-01 10:08:27.215200
1077  2023-11-01 10:08:27.247109
1078  2023-11-01 10:08:27.279039
1079  2023-11-01 10:08:27.310944
1080  2023-11-01 10:08:27.342853
1081  2023-11-01 10:08:27.375798
1082  2023-11-01 10:08:27.407646
1083  2023-11-01 10:08:27.439561
1084  2023-11-01 10:08:27.471507
1085  2023-11-01 10:08:27.503421
1086  2023-11-01 10:08:27.535339
1087  2023-11-01 10:08:27.583230
1088  2023-11-01 10:08:27.615126
1089  2023-11-01 10:08:27.647038
1090  2023-11-01 10:08:27.678953
1091  2023-11-01 10:08:27.710867
1092  2023-11-01 10:08:27.743787
1093  2023-11-01 10:08:27.775694
1094  2023-11-01 10:08:27.807608
1095  2023-11-01 10:08:27.839525
1096  2023-11-01 10:08:27.871459
1097  2023-11-01 10:08:27.903354
1098  2023-11-01 10:08:27.935301
1099  2023-11-01 10:08:27.983143
1100  2023-11-01 10:08:28.015053
1101  2023-11-01 10:08:28.046968
1102  2023-11-01 10:08:28.078882
1103  2023-11-01 10:08:28.111816
1104  2023-11-01 10:08:28.143712
1105  2023-11-01 10:08:28.175643
1106  2023-11-01 10:08:28.207537
1107  2023-11-01 10:08:28.239423
1108  2023-11-01 10:08:28.271371
1109  2023-11-01 10:08:28.303285
1110  2023-11-01 10:08:28.335200
1111  2023-11-01 10:08:28.383075
1112  2023-11-01 10:08:28.414987
1113  2023-11-01 10:08:28.446902
1114  2023-11-01 10:08:28.479781
1115  2023-11-01 10:08:28.511698
1116  2023-11-01 10:08:28.543685
1117  2023-11-01 10:08:28.575556
1118  2023-11-01 10:08:28.607441
1119  2023-11-01 10:08:28.639356
1120  2023-11-01 10:08:28.671997
1121  2023-11-01 10:08:28.703001
1122  2023-11-01 10:08:28.734926
1123  2023-11-01 10:08:28.783791
1124  2023-11-01 10:08:28.815715
1125  2023-11-01 10:08:28.847580
1126  2023-11-01 10:08:28.879532
1127  2023-11-01 10:08:28.911441
1128  2023-11-01 10:08:28.943357
1129  2023-11-01 10:08:28.975279
1130  2023-11-01 10:08:29.007186
1131  2023-11-01 10:08:29.039117
1132  2023-11-01 10:08:29.071031
1133  2023-11-01 10:08:29.102947
1134  2023-11-01 10:08:29.135839
1135  2023-11-01 10:08:29.183732
1136  2023-11-01 10:08:29.215635
1137  2023-11-01 10:08:29.247545
1138  2023-11-01 10:08:29.279426
1139  2023-11-01 10:08:29.311375
1140  2023-11-01 10:08:29.343290
1141  2023-11-01 10:08:29.375203
1142  2023-11-01 10:08:29.407096
1143  2023-11-01 10:08:29.439000
1144  2023-11-01 10:08:29.471945
1145  2023-11-01 10:08:29.503881
1146  2023-11-01 10:08:29.535788
1147  2023-11-01 10:08:29.583646
1148  2023-11-01 10:08:29.615559
1149  2023-11-01 10:08:29.647443
1150  2023-11-01 10:08:29.679392
1151  2023-11-01 10:08:29.711323
1152  2023-11-01 10:08:29.743229
1153  2023-11-01 10:08:29.775137
1154  2023-11-01 10:08:29.807050
1155  2023-11-01 10:08:29.838963
1156  2023-11-01 10:08:29.871899
1157  2023-11-01 10:08:29.903849
1158  2023-11-01 10:08:29.935738
1159  2023-11-01 10:08:29.983575
1160  2023-11-01 10:08:30.015497
1161  2023-11-01 10:08:30.047374
1162  2023-11-01 10:08:30.079289
1163  2023-11-01 10:08:30.111270
1164  2023-11-01 10:08:30.143149
1165  2023-11-01 10:08:30.175064
1166  2023-11-01 10:08:30.206947
1167  2023-11-01 10:08:30.238862
1168  2023-11-01 10:08:30.271774
1169  2023-11-01 10:08:30.303803
1170  2023-11-01 10:08:30.335722
1171  2023-11-01 10:08:30.383567
1172  2023-11-01 10:08:30.415486
1173  2023-11-01 10:08:30.447365
1174  2023-11-01 10:08:30.479280
1175  2023-11-01 10:08:30.511226
1176  2023-11-01 10:08:30.543143
1177  2023-11-01 10:08:30.576024
1178  2023-11-01 10:08:30.606939
1179  2023-11-01 10:08:30.638853
1180  2023-11-01 10:08:30.671810
1181  2023-11-01 10:08:30.703712
1182  2023-11-01 10:08:30.735595
1183  2023-11-01 10:08:30.783503
1184  2023-11-01 10:08:30.815416
1185  2023-11-01 10:08:30.847296
1186  2023-11-01 10:08:30.879286
1187  2023-11-01 10:08:30.911159
1188  2023-11-01 10:08:30.943088
1189  2023-11-01 10:08:30.975000
1190  2023-11-01 10:08:31.006915
1191  2023-11-01 10:08:31.038831
1192  2023-11-01 10:08:31.071697
1193  2023-11-01 10:08:31.103611
1194  2023-11-01 10:08:31.151484
1195  2023-11-01 10:08:31.183430
1196  2023-11-01 10:08:31.215344
1197  2023-11-01 10:08:31.247267
1198  2023-11-01 10:08:31.279142
1199  2023-11-01 10:08:31.311057
1200  2023-11-01 10:08:31.343003
1201  2023-11-01 10:08:31.375890
1202  2023-11-01 10:08:31.407799
1203  2023-11-01 10:08:31.439713
1204  2023-11-01 10:08:31.471628
1205  2023-11-01 10:08:31.503543
1206  2023-11-01 10:08:31.551415
1207  2023-11-01 10:08:31.583330
1208  2023-11-01 10:08:31.615283
1209  2023-11-01 10:08:31.647233
1210  2023-11-01 10:08:31.679074
1211  2023-11-01 10:08:31.711034
1212  2023-11-01 10:08:31.742909
1213  2023-11-01 10:08:31.775815
1214  2023-11-01 10:08:31.807730
1215  2023-11-01 10:08:31.839704
1216  2023-11-01 10:08:31.871630
1217  2023-11-01 10:08:31.903474
1218  2023-11-01 10:08:31.951346
1219  2023-11-01 10:08:31.983261
1220  2023-11-01 10:08:32.015234
1221  2023-11-01 10:08:32.047127
1222  2023-11-01 10:08:32.079037
1223  2023-11-01 10:08:32.110923
1224  2023-11-01 10:08:32.143832
1225  2023-11-01 10:08:32.175814
1226  2023-11-01 10:08:32.207693
1227  2023-11-01 10:08:32.239576
1228  2023-11-01 10:08:32.271491
1229  2023-11-01 10:08:32.303447
1230  2023-11-01 10:08:32.351277
1231  2023-11-01 10:08:32.383240
1232  2023-11-01 10:08:32.415164
1233  2023-11-01 10:08:32.448019
1234  2023-11-01 10:08:32.478936
1235  2023-11-01 10:08:32.510883
1236  2023-11-01 10:08:32.543763
1237  2023-11-01 10:08:32.575678
1238  2023-11-01 10:08:32.607592
1239  2023-11-01 10:08:32.639507
1240  2023-11-01 10:08:32.671422
1241  2023-11-01 10:08:32.703336
1242  2023-11-01 10:08:32.751208
1243  2023-11-01 10:08:32.783123
1244  2023-11-01 10:08:32.816035
1245  2023-11-01 10:08:32.846983
1246  2023-11-01 10:08:32.878867
1247  2023-11-01 10:08:32.911779
1248  2023-11-01 10:08:32.943694
1249  2023-11-01 10:08:32.975609
1250  2023-11-01 10:08:33.007523
1251  2023-11-01 10:08:33.039438
1252  2023-11-01 10:08:33.071353
1253  2023-11-01 10:08:33.103268
1254  2023-11-01 10:08:33.151140
1255  2023-11-01 10:08:33.183055
1256  2023-11-01 10:08:33.215037
1257  2023-11-01 10:08:33.246918
1258  2023-11-01 10:08:33.279796
1259  2023-11-01 10:08:33.311711
1260  2023-11-01 10:08:33.343656
1261  2023-11-01 10:08:33.375583
1262  2023-11-01 10:08:33.407455
1263  2023-11-01 10:08:33.439369
1264  2023-11-01 10:08:33.471284
1265  2023-11-01 10:08:33.503241
1266  2023-11-01 10:08:33.551135
1267  2023-11-01 10:08:33.583037
1268  2023-11-01 10:08:33.615898
1269  2023-11-01 10:08:33.647812
1270  2023-11-01 10:08:33.679727
1271  2023-11-01 10:08:33.711697
1272  2023-11-01 10:08:33.743557
1273  2023-11-01 10:08:33.774870
1274  2023-11-01 10:08:33.807783
1275  2023-11-01 10:08:33.839741
1276  2023-11-01 10:08:33.871693
1277  2023-11-01 10:08:33.903608
1278  2023-11-01 10:08:33.951480
1279  2023-11-01 10:08:33.983395
1280  2023-11-01 10:08:34.015309
1281  2023-11-01 10:08:34.047280
1282  2023-11-01 10:08:34.079139
1283  2023-11-01 10:08:34.112051
1284  2023-11-01 10:08:34.143127
1285  2023-11-01 10:08:34.175042
1286  2023-11-01 10:08:34.207954
1287  2023-11-01 10:08:34.239869
1288  2023-11-01 10:08:34.271784
1289  2023-11-01 10:08:34.303698
1290  2023-11-01 10:08:34.351570
1291  2023-11-01 10:08:34.383485
1292  2023-11-01 10:08:34.415470
1293  2023-11-01 10:08:34.447434
1294  2023-11-01 10:08:34.479462
1295  2023-11-01 10:08:34.511318
1296  2023-11-01 10:08:34.543247
1297  2023-11-01 10:08:34.575202
1298  2023-11-01 10:08:34.607095
1299  2023-11-01 10:08:34.639036
1300  2023-11-01 10:08:34.670924
1301  2023-11-01 10:08:34.718871
1302  2023-11-01 10:08:34.750889
1303  2023-11-01 10:08:34.782809
1304  2023-11-01 10:08:34.815721
1305  2023-11-01 10:08:34.847686
1306  2023-11-01 10:08:34.879603
1307  2023-11-01 10:08:34.911637
1308  2023-11-01 10:08:34.943509
1309  2023-11-01 10:08:34.975423
1310  2023-11-01 10:08:35.007148
1311  2023-11-01 10:08:35.039062
1312  2023-11-01 10:08:35.070943
1313  2023-11-01 10:08:35.118861
1314  2023-11-01 10:08:35.151727
1315  2023-11-01 10:08:35.183642
1316  2023-11-01 10:08:35.215589
1317  2023-11-01 10:08:35.247506
1318  2023-11-01 10:08:35.279386
1319  2023-11-01 10:08:35.311301
1320  2023-11-01 10:08:35.343258
1321  2023-11-01 10:08:35.375265
1322  2023-11-01 10:08:35.407172
1323  2023-11-01 10:08:35.439097
1324  2023-11-01 10:08:35.471002
1325  2023-11-01 10:08:35.518874
1326  2023-11-01 10:08:35.551786
1327  2023-11-01 10:08:35.583820
1328  2023-11-01 10:08:35.615735
1329  2023-11-01 10:08:35.647653
1330  2023-11-01 10:08:35.679564
1331  2023-11-01 10:08:35.711479
1332  2023-11-01 10:08:35.743422
1333  2023-11-01 10:08:35.775317
1334  2023-11-01 10:08:35.807794
1335  2023-11-01 10:08:35.839749
1336  2023-11-01 10:08:35.871689
1337  2023-11-01 10:08:35.919586
1338  2023-11-01 10:08:35.951491
1339  2023-11-01 10:08:35.983365
1340  2023-11-01 10:08:36.015280
1341  2023-11-01 10:08:36.047244
1342  2023-11-01 10:08:36.079164
1343  2023-11-01 10:08:36.111024
1344  2023-11-01 10:08:36.142939
1345  2023-11-01 10:08:36.174898
1346  2023-11-01 10:08:36.207827
1347  2023-11-01 10:08:36.239680
1348  2023-11-01 10:08:36.271595
1349  2023-11-01 10:08:36.319467
1350  2023-11-01 10:08:36.351382
1351  2023-11-01 10:08:36.383329
1352  2023-11-01 10:08:36.415288
1353  2023-11-01 10:08:36.447126
1354  2023-11-01 10:08:36.479040
1355  2023-11-01 10:08:36.511004
1356  2023-11-01 10:08:36.542913
1357  2023-11-01 10:08:36.575782
1358  2023-11-01 10:08:36.607697
1359  2023-11-01 10:08:36.639611
1360  2023-11-01 10:08:36.671569
1361  2023-11-01 10:08:36.719429
1362  2023-11-01 10:08:36.751349
1363  2023-11-01 10:08:36.783227
1364  2023-11-01 10:08:36.815142
1365  2023-11-01 10:08:36.847070
1366  2023-11-01 10:08:36.879014
1367  2023-11-01 10:08:36.910886
1368  2023-11-01 10:08:36.943798
1369  2023-11-01 10:08:36.974716
1370  2023-11-01 10:08:37.007792
1371  2023-11-01 10:08:37.039665
1372  2023-11-01 10:08:37.071697
1373  2023-11-01 10:08:37.119569
1374  2023-11-01 10:08:37.151484
1375  2023-11-01 10:08:37.183398
1376  2023-11-01 10:08:37.215313
1377  2023-11-01 10:08:37.247229
1378  2023-11-01 10:08:37.279152
1379  2023-11-01 10:08:37.311057
1380  2023-11-01 10:08:37.342972
1381  2023-11-01 10:08:37.375884
1382  2023-11-01 10:08:37.407799
1383  2023-11-01 10:08:37.439713
1384  2023-11-01 10:08:37.471628
1385  2023-11-01 10:08:37.519500
1386  2023-11-01 10:08:37.551415
1387  2023-11-01 10:08:37.583330
1388  2023-11-01 10:08:37.615259
1389  2023-11-01 10:08:37.647159
1390  2023-11-01 10:08:37.679274
1391  2023-11-01 10:08:37.711208
1392  2023-11-01 10:08:37.743103
1393  2023-11-01 10:08:37.775018
1394  2023-11-01 10:08:37.806933
1395  2023-11-01 10:08:37.839905
1396  2023-11-01 10:08:37.871824
1397  2023-11-01 10:08:37.919663
1398  2023-11-01 10:08:37.951546
1399  2023-11-01 10:08:37.983461
1400  2023-11-01 10:08:38.015375
1401  2023-11-01 10:08:38.047317
1402  2023-11-01 10:08:38.079254
1403  2023-11-01 10:08:38.111120
1404  2023-11-01 10:08:38.143034
1405  2023-11-01 10:08:38.175001
1406  2023-11-01 10:08:38.206897
1407  2023-11-01 10:08:38.239776
1408  2023-11-01 10:08:38.271692
1409  2023-11-01 10:08:38.319563
1410  2023-11-01 10:08:38.351709
1411  2023-11-01 10:08:38.383661
1412  2023-11-01 10:08:38.415538
1413  2023-11-01 10:08:38.447453
1414  2023-11-01 10:08:38.479496
1415  2023-11-01 10:08:38.511440
1416  2023-11-01 10:08:38.543357
1417  2023-11-01 10:08:38.575238
1418  2023-11-01 10:08:38.607152
1419  2023-11-01 10:08:38.639113
1420  2023-11-01 10:08:38.686939
1421  2023-11-01 10:08:38.718903
1422  2023-11-01 10:08:38.751766
1423  2023-11-01 10:08:38.783681
1424  2023-11-01 10:08:38.815596
1425  2023-11-01 10:08:38.847548
1426  2023-11-01 10:08:38.879459
1427  2023-11-01 10:08:38.911340
1428  2023-11-01 10:08:38.943254
1429  2023-11-01 10:08:38.975169
1430  2023-11-01 10:08:39.007084
1431  2023-11-01 10:08:39.039109
1432  2023-11-01 10:08:39.087009
1433  2023-11-01 10:08:39.118892
1434  2023-11-01 10:08:39.150807
1435  2023-11-01 10:08:39.183719
1436  2023-11-01 10:08:39.215685
1437  2023-11-01 10:08:39.247548
1438  2023-11-01 10:08:39.279464
1439  2023-11-01 10:08:39.311379
1440  2023-11-01 10:08:39.343294
1441  2023-11-01 10:08:39.375224
1442  2023-11-01 10:08:39.407123
1443  2023-11-01 10:08:39.439038
1444  2023-11-01 10:08:39.486910
1445  2023-11-01 10:08:39.518873
1446  2023-11-01 10:08:39.551850
1447  2023-11-01 10:08:39.582798
1448  2023-11-01 10:08:39.615756
1449  2023-11-01 10:08:39.647670
1450  2023-11-01 10:08:39.679585
1451  2023-11-01 10:08:39.711500
1452  2023-11-01 10:08:39.743415
1453  2023-11-01 10:08:39.775329
1454  2023-11-01 10:08:39.807244
1455  2023-11-01 10:08:39.839303
1456  2023-11-01 10:08:39.887177
1457  2023-11-01 10:08:39.919089
1458  2023-11-01 10:08:39.952002
1459  2023-11-01 10:08:39.982918
1460  2023-11-01 10:08:40.015831
1461  2023-11-01 10:08:40.047839
1462  2023-11-01 10:08:40.079754
1463  2023-11-01 10:08:40.111769
1464  2023-11-01 10:08:40.143763
1465  2023-11-01 10:08:40.175683
1466  2023-11-01 10:08:40.207666
1467  2023-11-01 10:08:40.239581
1468  2023-11-01 10:08:40.287454
1469  2023-11-01 10:08:40.319367
1470  2023-11-01 10:08:40.351282
1471  2023-11-01 10:08:40.383197
1472  2023-11-01 10:08:40.415113
1473  2023-11-01 10:08:40.447026
1474  2023-11-01 10:08:40.478941
1475  2023-11-01 10:08:40.510856
1476  2023-11-01 10:08:40.543838
1477  2023-11-01 10:08:40.575682
1478  2023-11-01 10:08:40.607597
1479  2023-11-01 10:08:40.639512
1480  2023-11-01 10:08:40.687384
1481  2023-11-01 10:08:40.719334
1482  2023-11-01 10:08:40.751264
1483  2023-11-01 10:08:40.783128
1484  2023-11-01 10:08:40.815043
1485  2023-11-01 10:08:40.846957
1486  2023-11-01 10:08:40.878926
1487  2023-11-01 10:08:40.911784
1488  2023-11-01 10:08:40.943699
1489  2023-11-01 10:08:40.975613
1490  2023-11-01 10:08:41.007528
1491  2023-11-01 10:08:41.039443
1492  2023-11-01 10:08:41.087366
1493  2023-11-01 10:08:41.119230
1494  2023-11-01 10:08:41.151144
1495  2023-11-01 10:08:41.183059
1496  2023-11-01 10:08:41.215971
1497  2023-11-01 10:08:41.247886
1498  2023-11-01 10:08:41.279801
1499  2023-11-01 10:08:41.311107
1500  2023-11-01 10:08:41.343022
1501  2023-11-01 10:08:41.374936
1502  2023-11-01 10:08:41.406923
1503  2023-11-01 10:08:41.438837
1504  2023-11-01 10:08:41.487757
1505  2023-11-01 10:08:41.519672
1506  2023-11-01 10:08:41.551673
1507  2023-11-01 10:08:41.583635
1508  2023-11-01 10:08:41.615549
1509  2023-11-01 10:08:41.647570
1510  2023-11-01 10:08:41.679484
1511  2023-11-01 10:08:41.711400
1512  2023-11-01 10:08:41.743316
1513  2023-11-01 10:08:41.775228
1514  2023-11-01 10:08:41.807143
1515  2023-11-01 10:08:41.839061
1516  2023-11-01 10:08:41.887927
1517  2023-11-01 10:08:41.919842
1518  2023-11-01 10:08:41.951799
1519  2023-11-01 10:08:41.983783
1520  2023-11-01 10:08:42.015690
1521  2023-11-01 10:08:42.047623
1522  2023-11-01 10:08:42.079100
1523  2023-11-01 10:08:42.111033
1524  2023-11-01 10:08:42.142948
1525  2023-11-01 10:08:42.174893
1526  2023-11-01 10:08:42.207823
1527  2023-11-01 10:08:42.255677
1528  2023-11-01 10:08:42.287592
1529  2023-11-01 10:08:42.319536
1530  2023-11-01 10:08:42.351475
1531  2023-11-01 10:08:42.383445
1532  2023-11-01 10:08:42.415417
1533  2023-11-01 10:08:42.447358
1534  2023-11-01 10:08:42.479315
1535  2023-11-01 10:08:42.511229
1536  2023-11-01 10:08:42.543188
1537  2023-11-01 10:08:42.575059
1538  2023-11-01 10:08:42.606973
1539  2023-11-01 10:08:42.654926
1540  2023-11-01 10:08:42.686841
1541  2023-11-01 10:08:42.719801
1542  2023-11-01 10:08:42.751698
1543  2023-11-01 10:08:42.783747
1544  2023-11-01 10:08:42.815653
1545  2023-11-01 10:08:42.847568
1546  2023-11-01 10:08:42.879511
1547  2023-11-01 10:08:42.911397
1548  2023-11-01 10:08:42.943312
1549  2023-11-01 10:08:42.975380
1550  2023-11-01 10:08:43.007340
1551  2023-11-01 10:08:43.055166
1552  2023-11-01 10:08:43.087122
1553  2023-11-01 10:08:43.118996
1554  2023-11-01 10:08:43.150910
1555  2023-11-01 10:08:43.183823
1556  2023-11-01 10:08:43.215785
1557  2023-11-01 10:08:43.247686
1558  2023-11-01 10:08:43.279567
1559  2023-11-01 10:08:43.311481
1560  2023-11-01 10:08:43.343396
1561  2023-11-01 10:08:43.375311
1562  2023-11-01 10:08:43.407226
1563  2023-11-01 10:08:43.455098
1564  2023-11-01 10:08:43.487012
1565  2023-11-01 10:08:43.518927
1566  2023-11-01 10:08:43.550842
1567  2023-11-01 10:08:43.583754
1568  2023-11-01 10:08:43.615668
1569  2023-11-01 10:08:43.647583
1570  2023-11-01 10:08:43.679498
1571  2023-11-01 10:08:43.711413
1572  2023-11-01 10:08:43.743327
1573  2023-11-01 10:08:43.775242
1574  2023-11-01 10:08:43.807157
1575  2023-11-01 10:08:43.855029
1576  2023-11-01 10:08:43.886944
1577  2023-11-01 10:08:43.918858
1578  2023-11-01 10:08:43.951770
1579  2023-11-01 10:08:43.983685
1580  2023-11-01 10:08:44.015600
1581  2023-11-01 10:08:44.047514
1582  2023-11-01 10:08:44.079429
1583  2023-11-01 10:08:44.111344
1584  2023-11-01 10:08:44.143321
1585  2023-11-01 10:08:44.175247
1586  2023-11-01 10:08:44.207162
1587  2023-11-01 10:08:44.255065
1588  2023-11-01 10:08:44.286994
1589  2023-11-01 10:08:44.318908
1590  2023-11-01 10:08:44.350937
1591  2023-11-01 10:08:44.382890
1592  2023-11-01 10:08:44.415810
1593  2023-11-01 10:08:44.447717
1594  2023-11-01 10:08:44.479631
1595  2023-11-01 10:08:44.511546
1596  2023-11-01 10:08:44.543474
1597  2023-11-01 10:08:44.575384
1598  2023-11-01 10:08:44.607292
1599  2023-11-01 10:08:44.655162
1600  2023-11-01 10:08:44.688074
1601  2023-11-01 10:08:44.718992
1602  2023-11-01 10:08:44.750908
1603  2023-11-01 10:08:44.782860
1604  2023-11-01 10:08:44.815778
1605  2023-11-01 10:08:44.847717
1606  2023-11-01 10:08:44.879633
1607  2023-11-01 10:08:44.911582
1608  2023-11-01 10:08:44.943461
1609  2023-11-01 10:08:44.975376
1610  2023-11-01 10:08:45.007325
1611  2023-11-01 10:08:45.055163
1612  2023-11-01 10:08:45.087108
1613  2023-11-01 10:08:45.118997
1614  2023-11-01 10:08:45.150907
1615  2023-11-01 10:08:45.182822
1616  2023-11-01 10:08:45.215765
1617  2023-11-01 10:08:45.247679
1618  2023-11-01 10:08:45.279563
1619  2023-11-01 10:08:45.311478
1620  2023-11-01 10:08:45.343425
1621  2023-11-01 10:08:45.375342
1622  2023-11-01 10:08:45.407222
1623  2023-11-01 10:08:45.455129
1624  2023-11-01 10:08:45.487009
1625  2023-11-01 10:08:45.518924
1626  2023-11-01 10:08:45.551027
1627  2023-11-01 10:08:45.583056
1628  2023-11-01 10:08:45.614944
1629  2023-11-01 10:08:45.647851
1630  2023-11-01 10:08:45.679766
1631  2023-11-01 10:08:45.711712
1632  2023-11-01 10:08:45.743595
1633  2023-11-01 10:08:45.775510
1634  2023-11-01 10:08:45.807425
1635  2023-11-01 10:08:45.855301
1636  2023-11-01 10:08:45.887247
1637  2023-11-01 10:08:45.919126
1638  2023-11-01 10:08:45.951041
1639  2023-11-01 10:08:45.982956
1640  2023-11-01 10:08:46.014870
1641  2023-11-01 10:08:46.047782
1642  2023-11-01 10:08:46.079697
1643  2023-11-01 10:08:46.111612
1644  2023-11-01 10:08:46.143526
1645  2023-11-01 10:08:46.175441
1646  2023-11-01 10:08:46.223313
1647  2023-11-01 10:08:46.255228
1648  2023-11-01 10:08:46.287143
1649  2023-11-01 10:08:46.319153
1650  2023-11-01 10:08:46.351148
1651  2023-11-01 10:08:46.383063
1652  2023-11-01 10:08:46.414978
1653  2023-11-01 10:08:46.447890
1654  2023-11-01 10:08:46.479805
1655  2023-11-01 10:08:46.511719
1656  2023-11-01 10:08:46.543634
1657  2023-11-01 10:08:46.575549
1658  2023-11-01 10:08:46.623421
1659  2023-11-01 10:08:46.655335
1660  2023-11-01 10:08:46.687250
1661  2023-11-01 10:08:46.719170
1662  2023-11-01 10:08:46.752077
1663  2023-11-01 10:08:46.784002
1664  2023-11-01 10:08:46.815981
1665  2023-11-01 10:08:46.847821
1666  2023-11-01 10:08:46.880771
1667  2023-11-01 10:08:46.911652
1668  2023-11-01 10:08:46.943565
1669  2023-11-01 10:08:46.976528
1670  2023-11-01 10:08:47.023352
1671  2023-11-01 10:08:47.055267
1672  2023-11-01 10:08:47.088179
1673  2023-11-01 10:08:47.119096
1674  2023-11-01 10:08:47.151011
1675  2023-11-01 10:08:47.183923
1676  2023-11-01 10:08:47.215948
1677  2023-11-01 10:08:47.247753
1678  2023-11-01 10:08:47.280665
1679  2023-11-01 10:08:47.311582
1680  2023-11-01 10:08:47.344525
1681  2023-11-01 10:08:47.376442
1682  2023-11-01 10:08:47.423316
1683  2023-11-01 10:08:47.456246
1684  2023-11-01 10:08:47.488165
1685  2023-11-01 10:08:47.520091
1686  2023-11-01 10:08:47.551972
1687  2023-11-01 10:08:47.583880
1688  2023-11-01 10:08:47.615806
1689  2023-11-01 10:08:47.647724
1690  2023-11-01 10:08:47.679598
1691  2023-11-01 10:08:47.712542
1692  2023-11-01 10:08:47.744458
1693  2023-11-01 10:08:47.776373
1694  2023-11-01 10:08:47.824244
1695  2023-11-01 10:08:47.856157
1696  2023-11-01 10:08:47.888084
1697  2023-11-01 10:08:47.919957
1698  2023-11-01 10:08:47.951905
1699  2023-11-01 10:08:47.983785
1700  2023-11-01 10:08:48.015701
1701  2023-11-01 10:08:48.048668
1702  2023-11-01 10:08:48.079530
1703  2023-11-01 10:08:48.111498
1704  2023-11-01 10:08:48.143361
1705  2023-11-01 10:08:48.176303
1706  2023-11-01 10:08:48.224176
1707  2023-11-01 10:08:48.256090
1708  2023-11-01 10:08:48.287974
1709  2023-11-01 10:08:48.319921
1710  2023-11-01 10:08:48.351845
1711  2023-11-01 10:08:48.383749
1712  2023-11-01 10:08:48.415663
1713  2023-11-01 10:08:48.447547
1714  2023-11-01 10:08:48.479462
1715  2023-11-01 10:08:48.511426
1716  2023-11-01 10:08:48.543290
1717  2023-11-01 10:08:48.575272
1718  2023-11-01 10:08:48.624105
1719  2023-11-01 10:08:48.656021
1720  2023-11-01 10:08:48.687949
1721  2023-11-01 10:08:48.719850
1722  2023-11-01 10:08:48.751939
1723  2023-11-01 10:08:48.783678
1724  2023-11-01 10:08:48.815615
1725  2023-11-01 10:08:48.847509
1726  2023-11-01 10:08:48.880435
1727  2023-11-01 10:08:48.912335
1728  2023-11-01 10:08:48.943222
1729  2023-11-01 10:08:48.976135
1730  2023-11-01 10:08:49.023008
1731  2023-11-01 10:08:49.055979
1732  2023-11-01 10:08:49.087868
1733  2023-11-01 10:08:49.119794
1734  2023-11-01 10:08:49.151702
1735  2023-11-01 10:08:49.183614
1736  2023-11-01 10:08:49.215495
1737  2023-11-01 10:08:49.247544
1738  2023-11-01 10:08:49.279845
1739  2023-11-01 10:08:49.311824
1740  2023-11-01 10:08:49.343786
1741  2023-11-01 10:08:49.375664
1742  2023-11-01 10:08:49.423546
1743  2023-11-01 10:08:49.455441
1744  2023-11-01 10:08:49.487358
1745  2023-11-01 10:08:49.519293
1746  2023-11-01 10:08:49.551177
1747  2023-11-01 10:08:49.583105
1748  2023-11-01 10:08:49.615013
1749  2023-11-01 10:08:49.647893
1750  2023-11-01 10:08:49.679811
1751  2023-11-01 10:08:49.711758
1752  2023-11-01 10:08:49.743636
1753  2023-11-01 10:08:49.791548
1754  2023-11-01 10:08:49.823453
1755  2023-11-01 10:08:49.856368
1756  2023-11-01 10:08:49.888251
1757  2023-11-01 10:08:49.920209
1758  2023-11-01 10:08:49.951115
1759  2023-11-01 10:08:49.983995
1760  2023-11-01 10:08:50.015911
1761  2023-11-01 10:08:50.047859
1762  2023-11-01 10:08:50.079740
1763  2023-11-01 10:08:50.111687
1764  2023-11-01 10:08:50.143568
1765  2023-11-01 10:08:50.191510
1766  2023-11-01 10:08:50.223398
1767  2023-11-01 10:08:50.255304
1768  2023-11-01 10:08:50.289205
1769  2023-11-01 10:08:50.320128
1770  2023-11-01 10:08:50.351064
1771  2023-11-01 10:08:50.383951
1772  2023-11-01 10:08:50.415878
1773  2023-11-01 10:08:50.447787
1774  2023-11-01 10:08:50.479671
1775  2023-11-01 10:08:50.511594
1776  2023-11-01 10:08:50.543528
1777  2023-11-01 10:08:50.591381
1778  2023-11-01 10:08:50.623285
1779  2023-11-01 10:08:50.656331
1780  2023-11-01 10:08:50.688246
1781  2023-11-01 10:08:50.720160
1782  2023-11-01 10:08:50.751089
1783  2023-11-01 10:08:50.783988
1784  2023-11-01 10:08:50.815911
1785  2023-11-01 10:08:50.847849
1786  2023-11-01 10:08:50.879768
1787  2023-11-01 10:08:50.911650
1788  2023-11-01 10:08:50.943564
1789  2023-11-01 10:08:50.991438
1790  2023-11-01 10:08:51.023454
1791  2023-11-01 10:08:51.055383
1792  2023-11-01 10:08:51.088291
1793  2023-11-01 10:08:51.120199
1794  2023-11-01 10:08:51.151114
1795  2023-11-01 10:08:51.183041
1796  2023-11-01 10:08:51.215954
1797  2023-11-01 10:08:51.247905
1798  2023-11-01 10:08:51.279789
1799  2023-11-01 10:08:51.311685
1800  2023-11-01 10:08:51.343601
1801  2023-11-01 10:08:51.391472
1802  2023-11-01 10:08:51.423387
1803  2023-11-01 10:08:51.455306
1804  2023-11-01 10:08:51.487185
1805  2023-11-01 10:08:51.519151
1806  2023-11-01 10:08:51.552058
1807  2023-11-01 10:08:51.583957
1808  2023-11-01 10:08:51.614868
1809  2023-11-01 10:08:51.647810
1810  2023-11-01 10:08:51.679752
1811  2023-11-01 10:08:51.711613
1812  2023-11-01 10:08:51.743546
1813  2023-11-01 10:08:51.791405
1814  2023-11-01 10:08:51.823327
1815  2023-11-01 10:08:51.855229
1816  2023-11-01 10:08:51.887181
1817  2023-11-01 10:08:51.920030
1818  2023-11-01 10:08:51.950946
1819  2023-11-01 10:08:51.983889
1820  2023-11-01 10:08:52.015806
1821  2023-11-01 10:08:52.047744
1822  2023-11-01 10:08:52.079632
1823  2023-11-01 10:08:52.111552
1824  2023-11-01 10:08:52.143463
1825  2023-11-01 10:08:52.191338
1826  2023-11-01 10:08:52.223266
1827  2023-11-01 10:08:52.255171
1828  2023-11-01 10:08:52.287085
1829  2023-11-01 10:08:52.318993
1830  2023-11-01 10:08:52.350905
1831  2023-11-01 10:08:52.383858
1832  2023-11-01 10:08:52.415767
1833  2023-11-01 10:08:52.447660
1834  2023-11-01 10:08:52.479642
1835  2023-11-01 10:08:52.511662
1836  2023-11-01 10:08:52.543579
1837  2023-11-01 10:08:52.591439
1838  2023-11-01 10:08:52.623367
1839  2023-11-01 10:08:52.655293
1840  2023-11-01 10:08:52.687212
1841  2023-11-01 10:08:52.719113
1842  2023-11-01 10:08:52.751013
1843  2023-11-01 10:08:52.782928
1844  2023-11-01 10:08:52.815848
1845  2023-11-01 10:08:52.847775
1846  2023-11-01 10:08:52.879693
1847  2023-11-01 10:08:52.911589
1848  2023-11-01 10:08:52.943518
1849  2023-11-01 10:08:52.991341
1850  2023-11-01 10:08:53.023305
1851  2023-11-01 10:08:53.055222
1852  2023-11-01 10:08:53.087118
1853  2023-11-01 10:08:53.119073
1854  2023-11-01 10:08:53.150945
1855  2023-11-01 10:08:53.182862
1856  2023-11-01 10:08:53.215771
1857  2023-11-01 10:08:53.247696
1858  2023-11-01 10:08:53.279602
1859  2023-11-01 10:08:53.311226
1860  2023-11-01 10:08:53.359199
1861  2023-11-01 10:08:53.391097
1862  2023-11-01 10:08:53.423028
1863  2023-11-01 10:08:53.454930
1864  2023-11-01 10:08:53.487873
1865  2023-11-01 10:08:53.519766
1866  2023-11-01 10:08:53.551665
1867  2023-11-01 10:08:53.583580
1868  2023-11-01 10:08:53.615492
1869  2023-11-01 10:08:53.647405
1870  2023-11-01 10:08:53.679349
1871  2023-11-01 10:08:53.711234
1872  2023-11-01 10:08:53.759134
1873  2023-11-01 10:08:53.791079
1874  2023-11-01 10:08:53.822934
1875  2023-11-01 10:08:53.854858
1876  2023-11-01 10:08:53.887774
1877  2023-11-01 10:08:53.919695
1878  2023-11-01 10:08:53.951591
1879  2023-11-01 10:08:53.983549
1880  2023-11-01 10:08:54.015454
1881  2023-11-01 10:08:54.047344
1882  2023-11-01 10:08:54.080234
1883  2023-11-01 10:08:54.111167
1884  2023-11-01 10:08:54.160004
1885  2023-11-01 10:08:54.190974
1886  2023-11-01 10:08:54.223833
1887  2023-11-01 10:08:54.255793
1888  2023-11-01 10:08:54.287689
1889  2023-11-01 10:08:54.319576
1890  2023-11-01 10:08:54.351544
1891  2023-11-01 10:08:54.383438
1892  2023-11-01 10:08:54.415353
1893  2023-11-01 10:08:54.447308
1894  2023-11-01 10:08:54.479187
1895  2023-11-01 10:08:54.511098
1896  2023-11-01 10:08:54.558969
1897  2023-11-01 10:08:54.590883
1898  2023-11-01 10:08:54.623803
1899  2023-11-01 10:08:54.655710
1900  2023-11-01 10:08:54.687599
1901  2023-11-01 10:08:54.719540
1902  2023-11-01 10:08:54.751454
1903  2023-11-01 10:08:54.783386
1904  2023-11-01 10:08:54.815319
1905  2023-11-01 10:08:54.847198
1906  2023-11-01 10:08:54.879145
1907  2023-11-01 10:08:54.911044
1908  2023-11-01 10:08:54.958906
1909  2023-11-01 10:08:54.991822
1910  2023-11-01 10:08:55.023746
1911  2023-11-01 10:08:55.055641
1912  2023-11-01 10:08:55.087567
1913  2023-11-01 10:08:55.119473
1914  2023-11-01 10:08:55.151386
1915  2023-11-01 10:08:55.183322
1916  2023-11-01 10:08:55.215257
1917  2023-11-01 10:08:55.247129
1918  2023-11-01 10:08:55.279047
1919  2023-11-01 10:08:55.310960
1920  2023-11-01 10:08:55.359796
1921  2023-11-01 10:08:55.391718
1922  2023-11-01 10:08:55.423727
1923  2023-11-01 10:08:55.455634
1924  2023-11-01 10:08:55.487565
1925  2023-11-01 10:08:55.519484
1926  2023-11-01 10:08:55.551372
1927  2023-11-01 10:08:55.583314
1928  2023-11-01 10:08:55.615225
1929  2023-11-01 10:08:55.647120
1930  2023-11-01 10:08:55.679052
1931  2023-11-01 10:08:55.711947
1932  2023-11-01 10:08:55.758824
1933  2023-11-01 10:08:55.791704
1934  2023-11-01 10:08:55.823653
1935  2023-11-01 10:08:55.855562
1936  2023-11-01 10:08:55.887563
1937  2023-11-01 10:08:55.919447
1938  2023-11-01 10:08:55.951413
1939  2023-11-01 10:08:55.983315
1940  2023-11-01 10:08:56.015263
1941  2023-11-01 10:08:56.047107
1942  2023-11-01 10:08:56.079072
1943  2023-11-01 10:08:56.110980
1944  2023-11-01 10:08:56.159804
1945  2023-11-01 10:08:56.191756
1946  2023-11-01 10:08:56.223683
1947  2023-11-01 10:08:56.255547
1948  2023-11-01 10:08:56.287469
1949  2023-11-01 10:08:56.319430
1950  2023-11-01 10:08:56.351376
1951  2023-11-01 10:08:56.383245
1952  2023-11-01 10:08:56.415152
1953  2023-11-01 10:08:56.447068
1954  2023-11-01 10:08:56.478987
1955  2023-11-01 10:08:56.511913
1956  2023-11-01 10:08:56.559769
1957  2023-11-01 10:08:56.591684
1958  2023-11-01 10:08:56.623565
1959  2023-11-01 10:08:56.655545
1960  2023-11-01 10:08:56.687430
1961  2023-11-01 10:08:56.719342
1962  2023-11-01 10:08:56.751300
1963  2023-11-01 10:08:56.783172
1964  2023-11-01 10:08:56.815084
1965  2023-11-01 10:08:56.846999
1966  2023-11-01 10:08:56.878921
1967  2023-11-01 10:08:56.911857
1968  2023-11-01 10:08:56.959706
1969  2023-11-01 10:08:56.991629
1970  2023-11-01 10:08:57.023535
1971  2023-11-01 10:08:57.055456
1972  2023-11-01 10:08:57.087359
1973  2023-11-01 10:08:57.119310
1974  2023-11-01 10:08:57.151194
1975  2023-11-01 10:08:57.183121
1976  2023-11-01 10:08:57.215014
1977  2023-11-01 10:08:57.246930
1978  2023-11-01 10:08:57.279856
1979  2023-11-01 10:08:57.327682
1980  2023-11-01 10:08:57.359642
1981  2023-11-01 10:08:57.391544
1982  2023-11-01 10:08:57.423471
1983  2023-11-01 10:08:57.455379
1984  2023-11-01 10:08:57.487299
1985  2023-11-01 10:08:57.519209
1986  2023-11-01 10:08:57.551122
1987  2023-11-01 10:08:57.583999
1988  2023-11-01 10:08:57.614947
1989  2023-11-01 10:08:57.647877
1990  2023-11-01 10:08:57.679774
1991  2023-11-01 10:08:57.727665
1992  2023-11-01 10:08:57.759559
1993  2023-11-01 10:08:57.791497
1994  2023-11-01 10:08:57.823397
1995  2023-11-01 10:08:57.855327
1996  2023-11-01 10:08:57.887220
1997  2023-11-01 10:08:57.919150
1998  2023-11-01 10:08:57.951019
1999  2023-11-01 10:08:57.982977
2000  2023-11-01 10:08:58.014850
2001  2023-11-01 10:08:58.047848
2002  2023-11-01 10:08:58.079704
2003  2023-11-01 10:08:58.127577
2004  2023-11-01 10:08:58.159506
2005  2023-11-01 10:08:58.191410
2006  2023-11-01 10:08:58.223326
2007  2023-11-01 10:08:58.255231
2008  2023-11-01 10:08:58.287171
2009  2023-11-01 10:08:58.319083
2010  2023-11-01 10:08:58.350979
2011  2023-11-01 10:08:58.383927
2012  2023-11-01 10:08:58.415807
2013  2023-11-01 10:08:58.447749
2014  2023-11-01 10:08:58.479678
2015  2023-11-01 10:08:58.527476
2016  2023-11-01 10:08:58.559422
2017  2023-11-01 10:08:58.591342
2018  2023-11-01 10:08:58.623256
2019  2023-11-01 10:08:58.655169
2020  2023-11-01 10:08:58.687083
2021  2023-11-01 10:08:58.718996
2022  2023-11-01 10:08:58.750912
2023  2023-11-01 10:08:58.783841
2024  2023-11-01 10:08:58.815737
2025  2023-11-01 10:08:58.847653
2026  2023-11-01 10:08:58.879567
2027  2023-11-01 10:08:58.927459
2028  2023-11-01 10:08:58.959367
2029  2023-11-01 10:08:58.992262
2030  2023-11-01 10:08:59.023320
2031  2023-11-01 10:08:59.055099
2032  2023-11-01 10:08:59.087980
2033  2023-11-01 10:08:59.119942
2034  2023-11-01 10:08:59.151888
2035  2023-11-01 10:08:59.183763
2036  2023-11-01 10:08:59.215679
2037  2023-11-01 10:08:59.247597
2038  2023-11-01 10:08:59.279506
2039  2023-11-01 10:08:59.327374
2040  2023-11-01 10:08:59.359295
2041  2023-11-01 10:08:59.391203
2042  2023-11-01 10:08:59.423048
2043  2023-11-01 10:08:59.455060
2044  2023-11-01 10:08:59.486960
2045  2023-11-01 10:08:59.518876
2046  2023-11-01 10:08:59.551809
2047  2023-11-01 10:08:59.583702
2048  2023-11-01 10:08:59.615275
2049  2023-11-01 10:08:59.647150
2050  2023-11-01 10:08:59.679065
2051  2023-11-01 10:08:59.727014
2052  2023-11-01 10:08:59.758928
2053  2023-11-01 10:08:59.790828
2054  2023-11-01 10:08:59.823750
2055  2023-11-01 10:08:59.855654
2056  2023-11-01 10:08:59.887571
2057  2023-11-01 10:08:59.919490
2058  2023-11-01 10:08:59.951401
2059  2023-11-01 10:08:59.983326
2060  2023-11-01 10:09:00.015249
2061  2023-11-01 10:09:00.047157
2062  2023-11-01 10:09:00.079057
2063  2023-11-01 10:09:00.126944
2064  2023-11-01 10:09:00.159861
2065  2023-11-01 10:09:00.191759
2066  2023-11-01 10:09:00.223675
2067  2023-11-01 10:09:00.255668
2068  2023-11-01 10:09:00.287625
2069  2023-11-01 10:09:00.319558
2070  2023-11-01 10:09:00.351457
2071  2023-11-01 10:09:00.383387
2072  2023-11-01 10:09:00.415326
2073  2023-11-01 10:09:00.447224
2074  2023-11-01 10:09:00.479133
2075  2023-11-01 10:09:00.527001
2076  2023-11-01 10:09:00.558911
2077  2023-11-01 10:09:00.590820
2078  2023-11-01 10:09:00.623721
2079  2023-11-01 10:09:00.655645
2080  2023-11-01 10:09:00.687558
2081  2023-11-01 10:09:00.719472
2082  2023-11-01 10:09:00.751386
2083  2023-11-01 10:09:00.783314
2084  2023-11-01 10:09:00.815232
2085  2023-11-01 10:09:00.847131
2086  2023-11-01 10:09:00.895001
2087  2023-11-01 10:09:00.926885
2088  2023-11-01 10:09:00.959798
2089  2023-11-01 10:09:00.991728
2090  2023-11-01 10:09:01.023663
2091  2023-11-01 10:09:01.055592
2092  2023-11-01 10:09:01.087460
2093  2023-11-01 10:09:01.119410
2094  2023-11-01 10:09:01.151329
2095  2023-11-01 10:09:01.183281
2096  2023-11-01 10:09:01.215151
2097  2023-11-01 10:09:01.247041
2098  2023-11-01 10:09:01.294905
2099  2023-11-01 10:09:01.326847
2100  2023-11-01 10:09:01.359760
2101  2023-11-01 10:09:01.391715
2102  2023-11-01 10:09:01.423613
2103  2023-11-01 10:09:01.455504
2104  2023-11-01 10:09:01.487440
2105  2023-11-01 10:09:01.519341
2106  2023-11-01 10:09:01.551261
2107  2023-11-01 10:09:01.583215
2108  2023-11-01 10:09:01.615092
2109  2023-11-01 10:09:01.646992
2110  2023-11-01 10:09:01.694879
2111  2023-11-01 10:09:01.727812
2112  2023-11-01 10:09:01.759692
2113  2023-11-01 10:09:01.791607
2114  2023-11-01 10:09:01.823523
2115  2023-11-01 10:09:01.855449
2116  2023-11-01 10:09:01.887351
2117  2023-11-01 10:09:01.919270
2118  2023-11-01 10:09:01.951184
2119  2023-11-01 10:09:01.983101
2120  2023-11-01 10:09:02.015008
2121  2023-11-01 10:09:02.047891
2122  2023-11-01 10:09:02.095823
2123  2023-11-01 10:09:02.127678
2124  2023-11-01 10:09:02.159593
2125  2023-11-01 10:09:02.191575
2126  2023-11-01 10:09:02.223449
2127  2023-11-01 10:09:02.255361
2128  2023-11-01 10:09:02.287259
2129  2023-11-01 10:09:02.319217
2130  2023-11-01 10:09:02.351111
2131  2023-11-01 10:09:02.383046
2132  2023-11-01 10:09:02.415983
2133  2023-11-01 10:09:02.447822
2134  2023-11-01 10:09:02.495734
2135  2023-11-01 10:09:02.527609
2136  2023-11-01 10:09:02.559524
2137  2023-11-01 10:09:02.591468
2138  2023-11-01 10:09:02.623383
2139  2023-11-01 10:09:02.655319
2140  2023-11-01 10:09:02.687215
2141  2023-11-01 10:09:02.719129
2142  2023-11-01 10:09:02.751041
2143  2023-11-01 10:09:02.782958
2144  2023-11-01 10:09:02.815873
2145  2023-11-01 10:09:02.847754
2146  2023-11-01 10:09:02.895673
2147  2023-11-01 10:09:02.927587
2148  2023-11-01 10:09:02.959495
2149  2023-11-01 10:09:02.991423
2150  2023-11-01 10:09:03.023320
2151  2023-11-01 10:09:03.055269
2152  2023-11-01 10:09:03.087161
2153  2023-11-01 10:09:03.120026
2154  2023-11-01 10:09:03.150974
2155  2023-11-01 10:09:03.182889
2156  2023-11-01 10:09:03.215803
2157  2023-11-01 10:09:03.247731
2158  2023-11-01 10:09:03.295596
2159  2023-11-01 10:09:03.327471
2160  2023-11-01 10:09:03.359386
2161  2023-11-01 10:09:03.391345
2162  2023-11-01 10:09:03.423263
2163  2023-11-01 10:09:03.455229
2164  2023-11-01 10:09:03.487081
2165  2023-11-01 10:09:03.519993
2166  2023-11-01 10:09:03.550942
2167  2023-11-01 10:09:03.582917
2168  2023-11-01 10:09:03.615825
2169  2023-11-01 10:09:03.647873
2170  2023-11-01 10:09:03.695712
2171  2023-11-01 10:09:03.727635
2172  2023-11-01 10:09:03.759623
2173  2023-11-01 10:09:03.791633
2174  2023-11-01 10:09:03.823560
2175  2023-11-01 10:09:03.855455
2176  2023-11-01 10:09:03.887369
2177  2023-11-01 10:09:03.919300
2178  2023-11-01 10:09:03.951165
2179  2023-11-01 10:09:03.983111
2180  2023-11-01 10:09:04.015054
2181  2023-11-01 10:09:04.046962
2182  2023-11-01 10:09:04.094827
2183  2023-11-01 10:09:04.127725
2184  2023-11-01 10:09:04.159608
2185  2023-11-01 10:09:04.191523
2186  2023-11-01 10:09:04.223468
2187  2023-11-01 10:09:04.255391
2188  2023-11-01 10:09:04.287308
2189  2023-11-01 10:09:04.319182
2190  2023-11-01 10:09:04.351096
2191  2023-11-01 10:09:04.383042
2192  2023-11-01 10:09:04.415926
2193  2023-11-01 10:09:04.463821
2194  2023-11-01 10:09:04.495117
2195  2023-11-01 10:09:04.527099
2196  2023-11-01 10:09:04.559015
2197  2023-11-01 10:09:04.590970
2198  2023-11-01 10:09:04.623844
2199  2023-11-01 10:09:04.655791
2200  2023-11-01 10:09:04.687772
2201  2023-11-01 10:09:04.719674
2202  2023-11-01 10:09:04.751657
2203  2023-11-01 10:09:04.783590
2204  2023-11-01 10:09:04.815500
2205  2023-11-01 10:09:04.863381
2206  2023-11-01 10:09:04.895295
2207  2023-11-01 10:09:04.927219
2208  2023-11-01 10:09:04.959111
2209  2023-11-01 10:09:04.990984
2210  2023-11-01 10:09:05.022943
2211  2023-11-01 10:09:05.055842
2212  2023-11-01 10:09:05.087777
2213  2023-11-01 10:09:05.119640
2214  2023-11-01 10:09:05.151554
2215  2023-11-01 10:09:05.183507
2216  2023-11-01 10:09:05.215416
2217  2023-11-01 10:09:05.263317
2218  2023-11-01 10:09:05.295758
2219  2023-11-01 10:09:05.327688
2220  2023-11-01 10:09:05.359603
2221  2023-11-01 10:09:05.391517
2222  2023-11-01 10:09:05.423473
2223  2023-11-01 10:09:05.455384
2224  2023-11-01 10:09:05.487289
2225  2023-11-01 10:09:05.519176
2226  2023-11-01 10:09:05.551091
2227  2023-11-01 10:09:05.583044
2228  2023-11-01 10:09:05.614966
2229  2023-11-01 10:09:05.662936
2230  2023-11-01 10:09:05.695799
2231  2023-11-01 10:09:05.727714
2232  2023-11-01 10:09:05.759629
2233  2023-11-01 10:09:05.791543
2234  2023-11-01 10:09:05.823506
2235  2023-11-01 10:09:05.855425
2236  2023-11-01 10:09:05.887343
2237  2023-11-01 10:09:05.919202
2238  2023-11-01 10:09:05.951117
2239  2023-11-01 10:09:05.983085
2240  2023-11-01 10:09:06.015947
2241  2023-11-01 10:09:06.063816
2242  2023-11-01 10:09:06.095731
2243  2023-11-01 10:09:06.127645
2244  2023-11-01 10:09:06.159560
2245  2023-11-01 10:09:06.191475
2246  2023-11-01 10:09:06.223431
2247  2023-11-01 10:09:06.255344
2248  2023-11-01 10:09:06.287259
2249  2023-11-01 10:09:06.319134
2250  2023-11-01 10:09:06.351048
2251  2023-11-01 10:09:06.383005
2252  2023-11-01 10:09:06.414921
2253  2023-11-01 10:09:06.463747
2254  2023-11-01 10:09:06.495662
2255  2023-11-01 10:09:06.527577
2256  2023-11-01 10:09:06.559491
2257  2023-11-01 10:09:06.591406
2258  2023-11-01 10:09:06.623346
2259  2023-11-01 10:09:06.655266
2260  2023-11-01 10:09:06.687196
2261  2023-11-01 10:09:06.718892
2262  2023-11-01 10:09:06.751903
2263  2023-11-01 10:09:06.783756
2264  2023-11-01 10:09:06.815670
2265  2023-11-01 10:09:06.863642
2266  2023-11-01 10:09:06.895648
2267  2023-11-01 10:09:06.927237
2268  2023-11-01 10:09:06.959186
2269  2023-11-01 10:09:06.991066
2270  2023-11-01 10:09:07.023011
2271  2023-11-01 10:09:07.055893
2272  2023-11-01 10:09:07.087842
2273  2023-11-01 10:09:07.119793
2274  2023-11-01 10:09:07.151707
2275  2023-11-01 10:09:07.183753
2276  2023-11-01 10:09:07.215699
2277  2023-11-01 10:09:07.263540
2278  2023-11-01 10:09:07.295486
2279  2023-11-01 10:09:07.327369
2280  2023-11-01 10:09:07.359283
2281  2023-11-01 10:09:07.391198
2282  2023-11-01 10:09:07.423152
2283  2023-11-01 10:09:07.455073
2284  2023-11-01 10:09:07.486996
2285  2023-11-01 10:09:07.519023
2286  2023-11-01 10:09:07.550906
2287  2023-11-01 10:09:07.583818
2288  2023-11-01 10:09:07.615733
2289  2023-11-01 10:09:07.663605
2290  2023-11-01 10:09:07.695520
2291  2023-11-01 10:09:07.727434
2292  2023-11-01 10:09:07.759384
2293  2023-11-01 10:09:07.791299
2294  2023-11-01 10:09:07.823213
2295  2023-11-01 10:09:07.855128
2296  2023-11-01 10:09:07.887090
2297  2023-11-01 10:09:07.918991
2298  2023-11-01 10:09:07.950872
2299  2023-11-01 10:09:07.983784
2300  2023-11-01 10:09:08.015699
2301  2023-11-01 10:09:08.063571
2302  2023-11-01 10:09:08.095485
2303  2023-11-01 10:09:08.127400
2304  2023-11-01 10:09:08.159315
2305  2023-11-01 10:09:08.191230
2306  2023-11-01 10:09:08.223144
2307  2023-11-01 10:09:08.255120
2308  2023-11-01 10:09:08.288005
2309  2023-11-01 10:09:08.319036
2310  2023-11-01 10:09:08.351309
2311  2023-11-01 10:09:08.383186
2312  2023-11-01 10:09:08.431126
2313  2023-11-01 10:09:08.463043
2314  2023-11-01 10:09:08.495959
2315  2023-11-01 10:09:08.527869
2316  2023-11-01 10:09:08.559785
2317  2023-11-01 10:09:08.591699
2318  2023-11-01 10:09:08.623644
2319  2023-11-01 10:09:08.655645
2320  2023-11-01 10:09:08.687646
2321  2023-11-01 10:09:08.719561
2322  2023-11-01 10:09:08.751502
2323  2023-11-01 10:09:08.783390
2324  2023-11-01 10:09:08.831317
2325  2023-11-01 10:09:08.863177
2326  2023-11-01 10:09:08.896089
2327  2023-11-01 10:09:08.927049
2328  2023-11-01 10:09:08.958963
2329  2023-11-01 10:09:08.990945
2330  2023-11-01 10:09:09.022937
2331  2023-11-01 10:09:09.055887
2332  2023-11-01 10:09:09.086918
2333  2023-11-01 10:09:09.119860
2334  2023-11-01 10:09:09.151819
2335  2023-11-01 10:09:09.183727
2336  2023-11-01 10:09:09.231651
2337  2023-11-01 10:09:09.263565
2338  2023-11-01 10:09:09.295480
2339  2023-11-01 10:09:09.327527
2340  2023-11-01 10:09:09.359382
2341  2023-11-01 10:09:09.391105
2342  2023-11-01 10:09:09.423017
2343  2023-11-01 10:09:09.455899
2344  2023-11-01 10:09:09.487869
2345  2023-11-01 10:09:09.519772
2346  2023-11-01 10:09:09.551757
2347  2023-11-01 10:09:09.583715
2348  2023-11-01 10:09:09.631675
2349  2023-11-01 10:09:09.663590
2350  2023-11-01 10:09:09.695504
2351  2023-11-01 10:09:09.727419
2352  2023-11-01 10:09:09.759373
2353  2023-11-01 10:09:09.791288
2354  2023-11-01 10:09:09.823250
2355  2023-11-01 10:09:09.855165
2356  2023-11-01 10:09:09.887032
2357  2023-11-01 10:09:09.918947
2358  2023-11-01 10:09:09.951885
2359  2023-11-01 10:09:09.983817
2360  2023-11-01 10:09:10.031689
2361  2023-11-01 10:09:10.063604
2362  2023-11-01 10:09:10.095549
2363  2023-11-01 10:09:10.127496
2364  2023-11-01 10:09:10.159398
2365  2023-11-01 10:09:10.191263
2366  2023-11-01 10:09:10.223324
2367  2023-11-01 10:09:10.255238
2368  2023-11-01 10:09:10.287158
2369  2023-11-01 10:09:10.320107
2370  2023-11-01 10:09:10.352022
2371  2023-11-01 10:09:10.382985
2372  2023-11-01 10:09:10.431811
2373  2023-11-01 10:09:10.463860
2374  2023-11-01 10:09:10.495638
2375  2023-11-01 10:09:10.527553
2376  2023-11-01 10:09:10.559501
2377  2023-11-01 10:09:10.591445
2378  2023-11-01 10:09:10.623361
2379  2023-11-01 10:09:10.655244
2380  2023-11-01 10:09:10.687159
2381  2023-11-01 10:09:10.719074
2382  2023-11-01 10:09:10.751145
2383  2023-11-01 10:09:10.783971
2384  2023-11-01 10:09:10.831898
2385  2023-11-01 10:09:10.863757
2386  2023-11-01 10:09:10.895671
2387  2023-11-01 10:09:10.927619
2388  2023-11-01 10:09:10.959531
2389  2023-11-01 10:09:10.991416
2390  2023-11-01 10:09:11.023330
2391  2023-11-01 10:09:11.055245
2392  2023-11-01 10:09:11.087194
2393  2023-11-01 10:09:11.119118
2394  2023-11-01 10:09:11.150989
2395  2023-11-01 10:09:11.182904
2396  2023-11-01 10:09:11.230913
2397  2023-11-01 10:09:11.262841
2398  2023-11-01 10:09:11.295757
2399  2023-11-01 10:09:11.327710
2400  2023-11-01 10:09:11.359625
2401  2023-11-01 10:09:11.391539
2402  2023-11-01 10:09:11.423557
2403  2023-11-01 10:09:11.455558
2404  2023-11-01 10:09:11.487477
2405  2023-11-01 10:09:11.519535
2406  2023-11-01 10:09:11.551437
2407  2023-11-01 10:09:11.583350
2408  2023-11-01 10:09:11.631231
2409  2023-11-01 10:09:11.663103
2410  2023-11-01 10:09:11.695018
2411  2023-11-01 10:09:11.726932
2412  2023-11-01 10:09:11.759845
2413  2023-11-01 10:09:11.791810
2414  2023-11-01 10:09:11.823674
2415  2023-11-01 10:09:11.855589
2416  2023-11-01 10:09:11.887543
2417  2023-11-01 10:09:11.919489
2418  2023-11-01 10:09:11.951404
2419  2023-11-01 10:09:11.999276
2420  2023-11-01 10:09:12.032188
2421  2023-11-01 10:09:12.064073
2422  2023-11-01 10:09:12.094990
2423  2023-11-01 10:09:12.127048
2424  2023-11-01 10:09:12.159924
2425  2023-11-01 10:09:12.191837
2426  2023-11-01 10:09:12.222869
2427  2023-11-01 10:09:12.255473
2428  2023-11-01 10:09:12.287387
2429  2023-11-01 10:09:12.319302
2430  2023-11-01 10:09:12.351217
2431  2023-11-01 10:09:12.399239
2432  2023-11-01 10:09:12.431151
2433  2023-11-01 10:09:12.463164
2434  2023-11-01 10:09:12.495149
2435  2023-11-01 10:09:12.527164
2436  2023-11-01 10:09:12.559069
2437  2023-11-01 10:09:12.590990
2438  2023-11-01 10:09:12.622869
2439  2023-11-01 10:09:12.655778
2440  2023-11-01 10:09:12.687693
2441  2023-11-01 10:09:12.719618
2442  2023-11-01 10:09:12.751523
2443  2023-11-01 10:09:12.799394
2444  2023-11-01 10:09:12.831309
2445  2023-11-01 10:09:12.863264
2446  2023-11-01 10:09:12.895180
2447  2023-11-01 10:09:12.927159
2448  2023-11-01 10:09:12.959041
2449  2023-11-01 10:09:12.991024
2450  2023-11-01 10:09:13.022940
2451  2023-11-01 10:09:13.054888
2452  2023-11-01 10:09:13.087806
2453  2023-11-01 10:09:13.119681
2454  2023-11-01 10:09:13.151596
2455  2023-11-01 10:09:13.199468
2456  2023-11-01 10:09:13.231383
2457  2023-11-01 10:09:13.263297
2458  2023-11-01 10:09:13.295212
2459  2023-11-01 10:09:13.327127
2460  2023-11-01 10:09:13.360039
2461  2023-11-01 10:09:13.391005
2462  2023-11-01 10:09:13.423787
2463  2023-11-01 10:09:13.455659
2464  2023-11-01 10:09:13.487655
2465  2023-11-01 10:09:13.519643
2466  2023-11-01 10:09:13.551557
2467  2023-11-01 10:09:13.599429
2468  2023-11-01 10:09:13.632372
2469  2023-11-01 10:09:13.663331
2470  2023-11-01 10:09:13.695173
2471  2023-11-01 10:09:13.727088
2472  2023-11-01 10:09:13.759003
2473  2023-11-01 10:09:13.791917
2474  2023-11-01 10:09:13.822970
2475  2023-11-01 10:09:13.855880
2476  2023-11-01 10:09:13.887793
2477  2023-11-01 10:09:13.919679
2478  2023-11-01 10:09:13.951592
2479  2023-11-01 10:09:13.999563
2480  2023-11-01 10:09:14.031444
2481  2023-11-01 10:09:14.063358
2482  2023-11-01 10:09:14.095273
2483  2023-11-01 10:09:14.127223
2484  2023-11-01 10:09:14.159102
2485  2023-11-01 10:09:14.191051
2486  2023-11-01 10:09:14.222932
2487  2023-11-01 10:09:14.254894
2488  2023-11-01 10:09:14.287808
2489  2023-11-01 10:09:14.319673
2490  2023-11-01 10:09:14.351588
2491  2023-11-01 10:09:14.399460
2492  2023-11-01 10:09:14.431375
2493  2023-11-01 10:09:14.463330
2494  2023-11-01 10:09:14.495204
2495  2023-11-01 10:09:14.527119
2496  2023-11-01 10:09:14.559034
2497  2023-11-01 10:09:14.590989
2498  2023-11-01 10:09:14.623871
2499  2023-11-01 10:09:14.655654
2500  2023-11-01 10:09:14.687574
2501  2023-11-01 10:09:14.719523
2502  2023-11-01 10:09:14.751404
2503  2023-11-01 10:09:14.799276
2504  2023-11-01 10:09:14.831191
2505  2023-11-01 10:09:14.863105
2506  2023-11-01 10:09:14.895138
2507  2023-11-01 10:09:14.928050
2508  2023-11-01 10:09:14.959972
2509  2023-11-01 10:09:14.991880
2510  2023-11-01 10:09:15.023794
2511  2023-11-01 10:09:15.055709
2512  2023-11-01 10:09:15.087626
2513  2023-11-01 10:09:15.119563
2514  2023-11-01 10:09:15.151453
2515  2023-11-01 10:09:15.199325
2516  2023-11-01 10:09:15.231288
2517  2023-11-01 10:09:15.263204
2518  2023-11-01 10:09:15.295149
2519  2023-11-01 10:09:15.327080
2520  2023-11-01 10:09:15.359118
2521  2023-11-01 10:09:15.391539
2522  2023-11-01 10:09:15.423484
2523  2023-11-01 10:09:15.455405
2524  2023-11-01 10:09:15.487283
2525  2023-11-01 10:09:15.519198
2526  2023-11-01 10:09:15.551152
2527  2023-11-01 10:09:15.598985
2528  2023-11-01 10:09:15.630936
2529  2023-11-01 10:09:15.663812
2530  2023-11-01 10:09:15.695726
2531  2023-11-01 10:09:15.727641
2532  2023-11-01 10:09:15.759585
2533  2023-11-01 10:09:15.791502
2534  2023-11-01 10:09:15.823385
2535  2023-11-01 10:09:15.855300
2536  2023-11-01 10:09:15.887215
2537  2023-11-01 10:09:15.919176
2538  2023-11-01 10:09:15.967001
2539  2023-11-01 10:09:15.998947
2540  2023-11-01 10:09:16.031829
2541  2023-11-01 10:09:16.063743
2542  2023-11-01 10:09:16.095618
2543  2023-11-01 10:09:16.128491
2544  2023-11-01 10:09:16.160406
2545  2023-11-01 10:09:16.191324
2546  2023-11-01 10:09:16.223107
2547  2023-11-01 10:09:16.256021
2548  2023-11-01 10:09:16.287971
2549  2023-11-01 10:09:16.318851
2550  2023-11-01 10:09:16.367721
2551  2023-11-01 10:09:16.399635
2552  2023-11-01 10:09:16.431550
2553  2023-11-01 10:09:16.463515
2554  2023-11-01 10:09:16.496378
2555  2023-11-01 10:09:16.527294
2556  2023-11-01 10:09:16.559209
2557  2023-11-01 10:09:16.591124
2558  2023-11-01 10:09:16.623076
2559  2023-11-01 10:09:16.654953
2560  2023-11-01 10:09:16.687865
2561  2023-11-01 10:09:16.719780
2562  2023-11-01 10:09:16.767652
2563  2023-11-01 10:09:16.799620
2564  2023-11-01 10:09:16.831544
2565  2023-11-01 10:09:16.863396
2566  2023-11-01 10:09:16.895311
2567  2023-11-01 10:09:16.927252
2568  2023-11-01 10:09:16.959191
2569  2023-11-01 10:09:16.991055
2570  2023-11-01 10:09:17.022970
2571  2023-11-01 10:09:17.054917
2572  2023-11-01 10:09:17.087860
2573  2023-11-01 10:09:17.119711
2574  2023-11-01 10:09:17.167583
2575  2023-11-01 10:09:17.199498
2576  2023-11-01 10:09:17.231413
2577  2023-11-01 10:09:17.263327
2578  2023-11-01 10:09:17.295242
2579  2023-11-01 10:09:17.327167
2580  2023-11-01 10:09:17.360069
2581  2023-11-01 10:09:17.390986
2582  2023-11-01 10:09:17.423017
2583  2023-11-01 10:09:17.455071
2584  2023-11-01 10:09:17.487093
2585  2023-11-01 10:09:17.519007
2586  2023-11-01 10:09:17.567877
2587  2023-11-01 10:09:17.599792
2588  2023-11-01 10:09:17.631706
2589  2023-11-01 10:09:17.663568
2590  2023-11-01 10:09:17.695541
2591  2023-11-01 10:09:17.727456
2592  2023-11-01 10:09:17.759371
2593  2023-11-01 10:09:17.791364
2594  2023-11-01 10:09:17.823271
2595  2023-11-01 10:09:17.855219
2596  2023-11-01 10:09:17.887184
2597  2023-11-01 10:09:17.919105
2598  2023-11-01 10:09:17.967003
2599  2023-11-01 10:09:17.998896
2600  2023-11-01 10:09:18.031805
2601  2023-11-01 10:09:18.063797
2602  2023-11-01 10:09:18.095711
2603  2023-11-01 10:09:18.127625
2604  2023-11-01 10:09:18.159574
2605  2023-11-01 10:09:18.191490
2606  2023-11-01 10:09:18.223404
2607  2023-11-01 10:09:18.255389
2608  2023-11-01 10:09:18.287223
2609  2023-11-01 10:09:18.319704
2610  2023-11-01 10:09:18.367577
2611  2023-11-01 10:09:18.399491
2612  2023-11-01 10:09:18.431406
2613  2023-11-01 10:09:18.463355
2614  2023-11-01 10:09:18.495235
2615  2023-11-01 10:09:18.527150
2616  2023-11-01 10:09:18.559192
2617  2023-11-01 10:09:18.591107
2618  2023-11-01 10:09:18.623021
2619  2023-11-01 10:09:18.654936
2620  2023-11-01 10:09:18.686930
2621  2023-11-01 10:09:18.719843
2622  2023-11-01 10:09:18.767801
2623  2023-11-01 10:09:18.799716
2624  2023-11-01 10:09:18.831631
2625  2023-11-01 10:09:18.863545
2626  2023-11-01 10:09:18.895460
2627  2023-11-01 10:09:18.927375
2628  2023-11-01 10:09:18.959289
2629  2023-11-01 10:09:18.992202
2630  2023-11-01 10:09:19.023119
2631  2023-11-01 10:09:19.055034
2632  2023-11-01 10:09:19.086984
2633  2023-11-01 10:09:19.119896
2634  2023-11-01 10:09:19.167825
2635  2023-11-01 10:09:19.200735
2636  2023-11-01 10:09:19.232651
2637  2023-11-01 10:09:19.264552
2638  2023-11-01 10:09:19.295474
2639  2023-11-01 10:09:19.328393
2640  2023-11-01 10:09:19.359260
2641  2023-11-01 10:09:19.391175
2642  2023-11-01 10:09:19.423235
2643  2023-11-01 10:09:19.456148
2644  2023-11-01 10:09:19.489112
2645  2023-11-01 10:09:19.536975
2646  2023-11-01 10:09:19.568925
2647  2023-11-01 10:09:19.600795
2648  2023-11-01 10:09:19.632710
2649  2023-11-01 10:09:19.664649
2650  2023-11-01 10:09:19.696536
2651  2023-11-01 10:09:19.728452
2652  2023-11-01 10:09:19.760384
2653  2023-11-01 10:09:19.792279
2654  2023-11-01 10:09:19.824198
2655  2023-11-01 10:09:19.856279
2656  2023-11-01 10:09:19.888190
2657  2023-11-01 10:09:19.936030
2658  2023-11-01 10:09:19.968976
2659  2023-11-01 10:09:20.000855
2660  2023-11-01 10:09:20.032824
2661  2023-11-01 10:09:20.064715
2662  2023-11-01 10:09:20.096632
2663  2023-11-01 10:09:20.128547
2664  2023-11-01 10:09:20.160464
2665  2023-11-01 10:09:20.192373
2666  2023-11-01 10:09:20.224291
2667  2023-11-01 10:09:20.256214
2668  2023-11-01 10:09:20.288090
2669  2023-11-01 10:09:20.335962
2670  2023-11-01 10:09:20.367907
2671  2023-11-01 10:09:20.400787
2672  2023-11-01 10:09:20.432727
2673  2023-11-01 10:09:20.463652
2674  2023-11-01 10:09:20.496565
2675  2023-11-01 10:09:20.528480
2676  2023-11-01 10:09:20.560393
2677  2023-11-01 10:09:20.592303
2678  2023-11-01 10:09:20.624223
2679  2023-11-01 10:09:20.656144
2680  2023-11-01 10:09:20.688053
2681  2023-11-01 10:09:20.735933
2682  2023-11-01 10:09:20.767855
2683  2023-11-01 10:09:20.799963
2684  2023-11-01 10:09:20.831936
2685  2023-11-01 10:09:20.863823
2686  2023-11-01 10:09:20.895706
2687  2023-11-01 10:09:20.927626
2688  2023-11-01 10:09:20.959505
2689  2023-11-01 10:09:20.991447
2690  2023-11-01 10:09:21.023334
2691  2023-11-01 10:09:21.056279
2692  2023-11-01 10:09:21.088191
2693  2023-11-01 10:09:21.136067
2694  2023-11-01 10:09:21.167978
2695  2023-11-01 10:09:21.199888
2696  2023-11-01 10:09:21.231809
2697  2023-11-01 10:09:21.263726
2698  2023-11-01 10:09:21.296639
2699  2023-11-01 10:09:21.328558
2700  2023-11-01 10:09:21.359468
2701  2023-11-01 10:09:21.392400
2702  2023-11-01 10:09:21.424309
2703  2023-11-01 10:09:21.456178
2704  2023-11-01 10:09:21.487095
2705  2023-11-01 10:09:21.536036
2706  2023-11-01 10:09:21.567911
2707  2023-11-01 10:09:21.599476
2708  2023-11-01 10:09:21.631391
2709  2023-11-01 10:09:21.663406
2710  2023-11-01 10:09:21.695306
2711  2023-11-01 10:09:21.727259
2712  2023-11-01 10:09:21.759133
2713  2023-11-01 10:09:21.792056
2714  2023-11-01 10:09:21.822930
2715  2023-11-01 10:09:21.855902
2716  2023-11-01 10:09:21.887809
2717  2023-11-01 10:09:21.935662
2718  2023-11-01 10:09:21.967577
2719  2023-11-01 10:09:21.999493
2720  2023-11-01 10:09:22.031409
2721  2023-11-01 10:09:22.063325
2722  2023-11-01 10:09:22.095251
2723  2023-11-01 10:09:22.128174
2724  2023-11-01 10:09:22.159068
2725  2023-11-01 10:09:22.190981
2726  2023-11-01 10:09:22.222895
2727  2023-11-01 10:09:22.255836
2728  2023-11-01 10:09:22.287720
2729  2023-11-01 10:09:22.335592
2730  2023-11-01 10:09:22.367507
2731  2023-11-01 10:09:22.399423
2732  2023-11-01 10:09:22.431339
2733  2023-11-01 10:09:22.463290
2734  2023-11-01 10:09:22.495174
2735  2023-11-01 10:09:22.527078
2736  2023-11-01 10:09:22.559008
2737  2023-11-01 10:09:22.591923
2738  2023-11-01 10:09:22.623838
2739  2023-11-01 10:09:22.655843
2740  2023-11-01 10:09:22.687756
2741  2023-11-01 10:09:22.735575
2742  2023-11-01 10:09:22.767490
2743  2023-11-01 10:09:22.799442
2744  2023-11-01 10:09:22.831383
2745  2023-11-01 10:09:22.863286
2746  2023-11-01 10:09:22.897193
2747  2023-11-01 10:09:22.927108
2748  2023-11-01 10:09:22.959020
2749  2023-11-01 10:09:22.991953
2750  2023-11-01 10:09:23.023969
2751  2023-11-01 10:09:23.055931
2752  2023-11-01 10:09:23.103535
2753  2023-11-01 10:09:23.136549
2754  2023-11-01 10:09:23.168458
2755  2023-11-01 10:09:23.200387
2756  2023-11-01 10:09:23.231291
2757  2023-11-01 10:09:23.263213
2758  2023-11-01 10:09:23.296146
2759  2023-11-01 10:09:23.328035
2760  2023-11-01 10:09:23.360943
2761  2023-11-01 10:09:23.392870
2762  2023-11-01 10:09:23.423488
2763  2023-11-01 10:09:23.455493
2764  2023-11-01 10:09:23.503368
2765  2023-11-01 10:09:23.535308
2766  2023-11-01 10:09:23.568255
2767  2023-11-01 10:09:23.600203
2768  2023-11-01 10:09:23.632110
2769  2023-11-01 10:09:23.664020
2770  2023-11-01 10:09:23.694980
2771  2023-11-01 10:09:23.728850
2772  2023-11-01 10:09:23.760791
2773  2023-11-01 10:09:23.791682
2774  2023-11-01 10:09:23.823623
2775  2023-11-01 10:09:23.855563
2776  2023-11-01 10:09:23.903379
2777  2023-11-01 10:09:23.935294
2778  2023-11-01 10:09:23.968239
2779  2023-11-01 10:09:24.000164
2780  2023-11-01 10:09:24.032069
2781  2023-11-01 10:09:24.062992
2782  2023-11-01 10:09:24.095865
2783  2023-11-01 10:09:24.128817
2784  2023-11-01 10:09:24.160746
2785  2023-11-01 10:09:24.192637
2786  2023-11-01 10:09:24.223554
2787  2023-11-01 10:09:24.255438
2788  2023-11-01 10:09:24.303310
2789  2023-11-01 10:09:24.335263
2790  2023-11-01 10:09:24.368199
2791  2023-11-01 10:09:24.400083
2792  2023-11-01 10:09:24.432000
2793  2023-11-01 10:09:24.463932
2794  2023-11-01 10:09:24.495796
2795  2023-11-01 10:09:24.527743
2796  2023-11-01 10:09:24.559625
2797  2023-11-01 10:09:24.591592
2798  2023-11-01 10:09:24.623491
2799  2023-11-01 10:09:24.655399
2800  2023-11-01 10:09:24.703296
2801  2023-11-01 10:09:24.735158
2802  2023-11-01 10:09:24.768235
2803  2023-11-01 10:09:24.800157
2804  2023-11-01 10:09:24.832032
2805  2023-11-01 10:09:24.863028
2806  2023-11-01 10:09:24.894943
2807  2023-11-01 10:09:24.927925
2808  2023-11-01 10:09:24.959804
2809  2023-11-01 10:09:24.991710
2810  2023-11-01 10:09:25.023632
2811  2023-11-01 10:09:25.055577
2812  2023-11-01 10:09:25.103435
2813  2023-11-01 10:09:25.135344
2814  2023-11-01 10:09:25.167266
2815  2023-11-01 10:09:25.199163
2816  2023-11-01 10:09:25.232083
2817  2023-11-01 10:09:25.262994
2818  2023-11-01 10:09:25.295910
2819  2023-11-01 10:09:25.327788
2820  2023-11-01 10:09:25.360745
2821  2023-11-01 10:09:25.391668
2822  2023-11-01 10:09:25.423562
2823  2023-11-01 10:09:25.455493
2824  2023-11-01 10:09:25.503398
2825  2023-11-01 10:09:25.535305
2826  2023-11-01 10:09:25.567180
2827  2023-11-01 10:09:25.599106
2828  2023-11-01 10:09:25.632005
2829  2023-11-01 10:09:25.662928
2830  2023-11-01 10:09:25.695803
2831  2023-11-01 10:09:25.727748
2832  2023-11-01 10:09:25.759682
2833  2023-11-01 10:09:25.791598
2834  2023-11-01 10:09:25.823496
2835  2023-11-01 10:09:25.855410
2836  2023-11-01 10:09:25.903248
2837  2023-11-01 10:09:25.935214
2838  2023-11-01 10:09:25.967114
2839  2023-11-01 10:09:25.999991
2840  2023-11-01 10:09:26.030945
2841  2023-11-01 10:09:26.063819
2842  2023-11-01 10:09:26.095774
2843  2023-11-01 10:09:26.127682
2844  2023-11-01 10:09:26.159598
2845  2023-11-01 10:09:26.191508
2846  2023-11-01 10:09:26.223422
2847  2023-11-01 10:09:26.255357
2848  2023-11-01 10:09:26.303235
2849  2023-11-01 10:09:26.335126
2850  2023-11-01 10:09:26.367041
2851  2023-11-01 10:09:26.399949
2852  2023-11-01 10:09:26.431837
2853  2023-11-01 10:09:26.463782
2854  2023-11-01 10:09:26.495698
2855  2023-11-01 10:09:26.527637
2856  2023-11-01 10:09:26.559568
2857  2023-11-01 10:09:26.591440
2858  2023-11-01 10:09:26.623360
2859  2023-11-01 10:09:26.655288
2860  2023-11-01 10:09:26.703125
2861  2023-11-01 10:09:26.735040
2862  2023-11-01 10:09:26.767164
2863  2023-11-01 10:09:26.799080
2864  2023-11-01 10:09:26.830994
2865  2023-11-01 10:09:26.862909
2866  2023-11-01 10:09:26.895787
2867  2023-11-01 10:09:26.927739
2868  2023-11-01 10:09:26.959674
2869  2023-11-01 10:09:26.991532
2870  2023-11-01 10:09:27.023495
2871  2023-11-01 10:09:27.071364
2872  2023-11-01 10:09:27.103233
2873  2023-11-01 10:09:27.135147
2874  2023-11-01 10:09:27.168061
2875  2023-11-01 10:09:27.200025
2876  2023-11-01 10:09:27.230928
2877  2023-11-01 10:09:27.263804
2878  2023-11-01 10:09:27.295750
2879  2023-11-01 10:09:27.327675
2880  2023-11-01 10:09:27.359580
2881  2023-11-01 10:09:27.391470
2882  2023-11-01 10:09:27.423407
2883  2023-11-01 10:09:27.471314
2884  2023-11-01 10:09:27.503207
2885  2023-11-01 10:09:27.535079
2886  2023-11-01 10:09:27.566993
2887  2023-11-01 10:09:27.598942
2888  2023-11-01 10:09:27.631880
2889  2023-11-01 10:09:27.663777
2890  2023-11-01 10:09:27.695650
2891  2023-11-01 10:09:27.727564
2892  2023-11-01 10:09:27.759517
2893  2023-11-01 10:09:27.791497
2894  2023-11-01 10:09:27.823412
2895  2023-11-01 10:09:27.871285
2896  2023-11-01 10:09:27.903220
2897  2023-11-01 10:09:27.935113
2898  2023-11-01 10:09:27.967027
2899  2023-11-01 10:09:27.998941
2900  2023-11-01 10:09:28.031854
2901  2023-11-01 10:09:28.063866
2902  2023-11-01 10:09:28.095765
2903  2023-11-01 10:09:28.127648
2904  2023-11-01 10:09:28.159563
2905  2023-11-01 10:09:28.191523
2906  2023-11-01 10:09:28.223426
2907  2023-11-01 10:09:28.271319
2908  2023-11-01 10:09:28.303215
2909  2023-11-01 10:09:28.335095
2910  2023-11-01 10:09:28.367040
2911  2023-11-01 10:09:28.398960
2912  2023-11-01 10:09:28.430887
2913  2023-11-01 10:09:28.463751
2914  2023-11-01 10:09:28.495694
2915  2023-11-01 10:09:28.527864
2916  2023-11-01 10:09:28.559828
2917  2023-11-01 10:09:28.591727
2918  2023-11-01 10:09:28.623706
2919  2023-11-01 10:09:28.671628
2920  2023-11-01 10:09:28.703664
2921  2023-11-01 10:09:28.735545
2922  2023-11-01 10:09:28.767493
2923  2023-11-01 10:09:28.799409
2924  2023-11-01 10:09:28.831317
2925  2023-11-01 10:09:28.863237
2926  2023-11-01 10:09:28.895118
2927  2023-11-01 10:09:28.927078
2928  2023-11-01 10:09:28.958980
2929  2023-11-01 10:09:28.991887
2930  2023-11-01 10:09:29.023808
2931  2023-11-01 10:09:29.071686
2932  2023-11-01 10:09:29.103595
2933  2023-11-01 10:09:29.135510
2934  2023-11-01 10:09:29.167416
2935  2023-11-01 10:09:29.199382
2936  2023-11-01 10:09:29.231280
2937  2023-11-01 10:09:29.263169
2938  2023-11-01 10:09:29.295051
2939  2023-11-01 10:09:29.327964
2940  2023-11-01 10:09:29.359938
2941  2023-11-01 10:09:29.391821
2942  2023-11-01 10:09:29.423707
2943  2023-11-01 10:09:29.471608
2944  2023-11-01 10:09:29.503527
2945  2023-11-01 10:09:29.535410
2946  2023-11-01 10:09:29.567322
2947  2023-11-01 10:09:29.599297
2948  2023-11-01 10:09:29.631199
2949  2023-11-01 10:09:29.664116
2950  2023-11-01 10:09:29.694981
2951  2023-11-01 10:09:29.727927
2952  2023-11-01 10:09:29.759885
2953  2023-11-01 10:09:29.791976
2954  2023-11-01 10:09:29.823925
2955  2023-11-01 10:09:29.871771
2956  2023-11-01 10:09:29.903670
2957  2023-11-01 10:09:29.935596
2958  2023-11-01 10:09:29.967546
2959  2023-11-01 10:09:29.999513
2960  2023-11-01 10:09:30.031534
2961  2023-11-01 10:09:30.063416
2962  2023-11-01 10:09:30.095365
2963  2023-11-01 10:09:30.127284
2964  2023-11-01 10:09:30.160157
2965  2023-11-01 10:09:30.191108
2966  2023-11-01 10:09:30.224039
2967  2023-11-01 10:09:30.271922
2968  2023-11-01 10:09:30.303805
2969  2023-11-01 10:09:30.335720
2970  2023-11-01 10:09:30.367602
2971  2023-11-01 10:09:30.399556
2972  2023-11-01 10:09:30.431485
2973  2023-11-01 10:09:30.463381
2974  2023-11-01 10:09:30.495310
2975  2023-11-01 10:09:30.527213
2976  2023-11-01 10:09:30.559133
2977  2023-11-01 10:09:30.591051
2978  2023-11-01 10:09:30.638987
2979  2023-11-01 10:09:30.671915
2980  2023-11-01 10:09:30.703803
2981  2023-11-01 10:09:30.735683
2982  2023-11-01 10:09:30.767598
2983  2023-11-01 10:09:30.799548
2984  2023-11-01 10:09:30.831460
2985  2023-11-01 10:09:30.863378
2986  2023-11-01 10:09:30.895317
2987  2023-11-01 10:09:30.927326
2988  2023-11-01 10:09:30.959244
2989  2023-11-01 10:09:30.991218
2990  2023-11-01 10:09:31.039042
2991  2023-11-01 10:09:31.071955
2992  2023-11-01 10:09:31.102872
2993  2023-11-01 10:09:31.135768
2994  2023-11-01 10:09:31.167650
2995  2023-11-01 10:09:31.199615
2996  2023-11-01 10:09:31.231514
2997  2023-11-01 10:09:31.263427
2998  2023-11-01 10:09:31.295373
2999  2023-11-01 10:09:31.328221
3000  2023-11-01 10:09:31.359179
3001  2023-11-01 10:09:31.391086
3002  2023-11-01 10:09:31.438933
3003  2023-11-01 10:09:31.470878
3004  2023-11-01 10:09:31.503826
3005  2023-11-01 10:09:31.535668
3006  2023-11-01 10:09:31.567581
3007  2023-11-01 10:09:31.599530
3008  2023-11-01 10:09:31.631459
3009  2023-11-01 10:09:31.663363
3010  2023-11-01 10:09:31.695275
3011  2023-11-01 10:09:31.727155
3012  2023-11-01 10:09:31.759101
3013  2023-11-01 10:09:31.792029
3014  2023-11-01 10:09:31.838858
3015  2023-11-01 10:09:31.871769
3016  2023-11-01 10:09:31.903739
3017  2023-11-01 10:09:31.935642
3018  2023-11-01 10:09:31.967568
3019  2023-11-01 10:09:31.999454
3020  2023-11-01 10:09:32.031388
3021  2023-11-01 10:09:32.063354
3022  2023-11-01 10:09:32.095207
3023  2023-11-01 10:09:32.127119
3024  2023-11-01 10:09:32.159033
3025  2023-11-01 10:09:32.191972
3026  2023-11-01 10:09:32.239785
3027  2023-11-01 10:09:32.271743
3028  2023-11-01 10:09:32.303663
3029  2023-11-01 10:09:32.335568
3030  2023-11-01 10:09:32.367477
3031  2023-11-01 10:09:32.399460
3032  2023-11-01 10:09:32.431417
3033  2023-11-01 10:09:32.463365
3034  2023-11-01 10:09:32.495240
3035  2023-11-01 10:09:32.527119
3036  2023-11-01 10:09:32.560061
3037  2023-11-01 10:09:32.590981
3038  2023-11-01 10:09:32.639859
3039  2023-11-01 10:09:32.671766
3040  2023-11-01 10:09:32.703672
3041  2023-11-01 10:09:32.735600
3042  2023-11-01 10:09:32.767527
3043  2023-11-01 10:09:32.799446
3044  2023-11-01 10:09:32.831336
3045  2023-11-01 10:09:32.863254
3046  2023-11-01 10:09:32.895200
3047  2023-11-01 10:09:32.927083
3048  2023-11-01 10:09:32.959998
3049  2023-11-01 10:09:32.991879
3050  2023-11-01 10:09:33.039751
3051  2023-11-01 10:09:33.071710
3052  2023-11-01 10:09:33.103623
3053  2023-11-01 10:09:33.135524
3054  2023-11-01 10:09:33.167460
3055  2023-11-01 10:09:33.199323
3056  2023-11-01 10:09:33.231271
3057  2023-11-01 10:09:33.263222
3058  2023-11-01 10:09:33.295067
3059  2023-11-01 10:09:33.327029
3060  2023-11-01 10:09:33.358927
3061  2023-11-01 10:09:33.391854
3062  2023-11-01 10:09:33.439680
3063  2023-11-01 10:09:33.471626
3064  2023-11-01 10:09:33.503510
3065  2023-11-01 10:09:33.535467
3066  2023-11-01 10:09:33.567473
3067  2023-11-01 10:09:33.598962
3068  2023-11-01 10:09:33.631935
3069  2023-11-01 10:09:33.663830
3070  2023-11-01 10:09:33.695744
3071  2023-11-01 10:09:33.727618
3072  2023-11-01 10:09:33.759563
3073  2023-11-01 10:09:33.791984
3074  2023-11-01 10:09:33.839867
3075  2023-11-01 10:09:33.871724
3076  2023-11-01 10:09:33.903639
3077  2023-11-01 10:09:33.935554
3078  2023-11-01 10:09:33.967573
3079  2023-11-01 10:09:33.999528
3080  2023-11-01 10:09:34.031475
3081  2023-11-01 10:09:34.063399
3082  2023-11-01 10:09:34.095333
3083  2023-11-01 10:09:34.127328
3084  2023-11-01 10:09:34.159238
3085  2023-11-01 10:09:34.191185
3086  2023-11-01 10:09:34.238994
3087  2023-11-01 10:09:34.271956
3088  2023-11-01 10:09:34.303885
3089  2023-11-01 10:09:34.335787
3090  2023-11-01 10:09:34.367683
3091  2023-11-01 10:09:34.399617
3092  2023-11-01 10:09:34.431514
3093  2023-11-01 10:09:34.463443
3094  2023-11-01 10:09:34.495346
3095  2023-11-01 10:09:34.527223
3096  2023-11-01 10:09:34.559172
3097  2023-11-01 10:09:34.607128
3098  2023-11-01 10:09:34.639043
3099  2023-11-01 10:09:34.670959
3100  2023-11-01 10:09:34.702939
3101  2023-11-01 10:09:34.735788
3102  2023-11-01 10:09:34.767736
3103  2023-11-01 10:09:34.799616
3104  2023-11-01 10:09:34.831531
3105  2023-11-01 10:09:34.863446
3106  2023-11-01 10:09:34.895519
3107  2023-11-01 10:09:34.927426
3108  2023-11-01 10:09:34.959365
3109  2023-11-01 10:09:35.007211
3110  2023-11-01 10:09:35.039101
3111  2023-11-01 10:09:35.071059
3112  2023-11-01 10:09:35.102957
3113  2023-11-01 10:09:35.135940
3114  2023-11-01 10:09:35.167833
3115  2023-11-01 10:09:35.199773
3116  2023-11-01 10:09:35.231720
3117  2023-11-01 10:09:35.263634
3118  2023-11-01 10:09:35.295588
3119  2023-11-01 10:09:35.327532
3120  2023-11-01 10:09:35.359450
3121  2023-11-01 10:09:35.407850
3122  2023-11-01 10:09:35.439764
3123  2023-11-01 10:09:35.471679
3124  2023-11-01 10:09:35.503647
3125  2023-11-01 10:09:35.535570
3126  2023-11-01 10:09:35.567456
3127  2023-11-01 10:09:35.599386
3128  2023-11-01 10:09:35.631310
3129  2023-11-01 10:09:35.663201
3130  2023-11-01 10:09:35.696127
3131  2023-11-01 10:09:35.728029
3132  2023-11-01 10:09:35.758945
3133  2023-11-01 10:09:35.807782
3134  2023-11-01 10:09:35.839695
3135  2023-11-01 10:09:35.872609
3136  2023-11-01 10:09:35.903556
3137  2023-11-01 10:09:35.935484
3138  2023-11-01 10:09:35.967490
3139  2023-11-01 10:09:35.999373
3140  2023-11-01 10:09:36.031367
3141  2023-11-01 10:09:36.063236
3142  2023-11-01 10:09:36.095148
3143  2023-11-01 10:09:36.127067
3144  2023-11-01 10:09:36.158979
3145  2023-11-01 10:09:36.207859
3146  2023-11-01 10:09:36.239731
3147  2023-11-01 10:09:36.271645
3148  2023-11-01 10:09:36.303596
3149  2023-11-01 10:09:36.335515
3150  2023-11-01 10:09:36.367423
3151  2023-11-01 10:09:36.399338
3152  2023-11-01 10:09:36.431255
3153  2023-11-01 10:09:36.463225
3154  2023-11-01 10:09:36.495158
3155  2023-11-01 10:09:36.527136
3156  2023-11-01 10:09:36.559029
3157  2023-11-01 10:09:36.606902
3158  2023-11-01 10:09:36.639791
3159  2023-11-01 10:09:36.671797
3160  2023-11-01 10:09:36.703810
3161  2023-11-01 10:09:36.735724
3162  2023-11-01 10:09:36.767642
3163  2023-11-01 10:09:36.799550
3164  2023-11-01 10:09:36.831439
3165  2023-11-01 10:09:36.863379
3166  2023-11-01 10:09:36.895293
3167  2023-11-01 10:09:36.927215
3168  2023-11-01 10:09:36.959095
3169  2023-11-01 10:09:37.006967
3170  2023-11-01 10:09:37.039879
3171  2023-11-01 10:09:37.071794
3172  2023-11-01 10:09:37.103724
3173  2023-11-01 10:09:37.135639
3174  2023-11-01 10:09:37.168551
3175  2023-11-01 10:09:37.199469
3176  2023-11-01 10:09:37.231423
3177  2023-11-01 10:09:37.263453
3178  2023-11-01 10:09:37.295376
3179  2023-11-01 10:09:37.327284
3180  2023-11-01 10:09:37.359163
3181  2023-11-01 10:09:37.408065
3182  2023-11-01 10:09:37.439947
3183  2023-11-01 10:09:37.471862
3184  2023-11-01 10:09:37.503787
3185  2023-11-01 10:09:37.535741
3186  2023-11-01 10:09:37.567639
3187  2023-11-01 10:09:37.599521
3188  2023-11-01 10:09:37.631467
3189  2023-11-01 10:09:37.663399
3190  2023-11-01 10:09:37.695326
3191  2023-11-01 10:09:37.727217
3192  2023-11-01 10:09:37.759130
3193  2023-11-01 10:09:37.808000
3194  2023-11-01 10:09:37.839910
3195  2023-11-01 10:09:37.871798
3196  2023-11-01 10:09:37.903741
3197  2023-11-01 10:09:37.935649
3198  2023-11-01 10:09:37.967589
3199  2023-11-01 10:09:37.999481
3200  2023-11-01 10:09:38.031367
3201  2023-11-01 10:09:38.063385
3202  2023-11-01 10:09:38.095248
3203  2023-11-01 10:09:38.127145
3204  2023-11-01 10:09:38.175014
3205  2023-11-01 10:09:38.207947
3206  2023-11-01 10:09:38.239810
3207  2023-11-01 10:09:38.271724
3208  2023-11-01 10:09:38.303728
3209  2023-11-01 10:09:38.335609
3210  2023-11-01 10:09:38.367558
3211  2023-11-01 10:09:38.399474
3212  2023-11-01 10:09:38.431439
3213  2023-11-01 10:09:38.463301
3214  2023-11-01 10:09:38.496181
3215  2023-11-01 10:09:38.528094
3216  2023-11-01 10:09:38.576032
3217  2023-11-01 10:09:38.608004
3218  2023-11-01 10:09:38.639860
3219  2023-11-01 10:09:38.671824
3220  2023-11-01 10:09:38.703735
3221  2023-11-01 10:09:38.735717
3222  2023-11-01 10:09:38.767634
3223  2023-11-01 10:09:38.799516
3224  2023-11-01 10:09:38.831431
3225  2023-11-01 10:09:38.863388
3226  2023-11-01 10:09:38.895316
3227  2023-11-01 10:09:38.927224
3228  2023-11-01 10:09:38.975079
3229  2023-11-01 10:09:39.007007
3230  2023-11-01 10:09:39.039932
3231  2023-11-01 10:09:39.071789
3232  2023-11-01 10:09:39.103737
3233  2023-11-01 10:09:39.135652
3234  2023-11-01 10:09:39.167612
3235  2023-11-01 10:09:39.199497
3236  2023-11-01 10:09:39.231452
3237  2023-11-01 10:09:39.263423
3238  2023-11-01 10:09:39.295337
3239  2023-11-01 10:09:39.327249
3240  2023-11-01 10:09:39.376125
3241  2023-11-01 10:09:39.407079
3242  2023-11-01 10:09:39.438957
3243  2023-11-01 10:09:39.470871
3244  2023-11-01 10:09:39.503814
3245  2023-11-01 10:09:39.535725
3246  2023-11-01 10:09:39.567613
3247  2023-11-01 10:09:39.599528
3248  2023-11-01 10:09:39.631442
3249  2023-11-01 10:09:39.663405
3250  2023-11-01 10:09:39.695311
3251  2023-11-01 10:09:39.727220
3252  2023-11-01 10:09:39.775109
3253  2023-11-01 10:09:39.807021
3254  2023-11-01 10:09:39.839885
3255  2023-11-01 10:09:39.871800
3256  2023-11-01 10:09:39.903714
3257  2023-11-01 10:09:39.935630
3258  2023-11-01 10:09:39.967605
3259  2023-11-01 10:09:39.999528
3260  2023-11-01 10:09:40.031473
3261  2023-11-01 10:09:40.063383
3262  2023-11-01 10:09:40.095353
3263  2023-11-01 10:09:40.128237
3264  2023-11-01 10:09:40.175116
3265  2023-11-01 10:09:40.208044
3266  2023-11-01 10:09:40.239909
3267  2023-11-01 10:09:40.271824
3268  2023-11-01 10:09:40.303738
3269  2023-11-01 10:09:40.335703
3270  2023-11-01 10:09:40.367568
3271  2023-11-01 10:09:40.399483
3272  2023-11-01 10:09:40.431397
3273  2023-11-01 10:09:40.463365
3274  2023-11-01 10:09:40.495261
3275  2023-11-01 10:09:40.527175
3276  2023-11-01 10:09:40.575045
3277  2023-11-01 10:09:40.608035
3278  2023-11-01 10:09:40.639001
3279  2023-11-01 10:09:40.671879
3280  2023-11-01 10:09:40.703877
3281  2023-11-01 10:09:40.735788
3282  2023-11-01 10:09:40.767703
3283  2023-11-01 10:09:40.799617
3284  2023-11-01 10:09:40.831532
3285  2023-11-01 10:09:40.863447
3286  2023-11-01 10:09:40.895362
3287  2023-11-01 10:09:40.927276
3288  2023-11-01 10:09:40.975153
3289  2023-11-01 10:09:41.007063
3290  2023-11-01 10:09:41.039992
3291  2023-11-01 10:09:41.071890
3292  2023-11-01 10:09:41.103804
3293  2023-11-01 10:09:41.135719
3294  2023-11-01 10:09:41.167279
3295  2023-11-01 10:09:41.200137
3296  2023-11-01 10:09:41.231158
3297  2023-11-01 10:09:41.263072
3298  2023-11-01 10:09:41.295987
3299  2023-11-01 10:09:41.326947
3300  2023-11-01 10:09:41.375820
3301  2023-11-01 10:09:41.407686
3302  2023-11-01 10:09:41.439601
3303  2023-11-01 10:09:41.471516
3304  2023-11-01 10:09:41.503465
3305  2023-11-01 10:09:41.535345
3306  2023-11-01 10:09:41.567260
3307  2023-11-01 10:09:41.599174
3308  2023-11-01 10:09:41.631138
3309  2023-11-01 10:09:41.663044
3310  2023-11-01 10:09:41.695916
3311  2023-11-01 10:09:41.743788
3312  2023-11-01 10:09:41.774797
3313  2023-11-01 10:09:41.807709
3314  2023-11-01 10:09:41.839656
3315  2023-11-01 10:09:41.871571
3316  2023-11-01 10:09:41.903486
3317  2023-11-01 10:09:41.935401
3318  2023-11-01 10:09:41.967215
3319  2023-11-01 10:09:41.999200
3320  2023-11-01 10:09:42.031115
3321  2023-11-01 10:09:42.063030
3322  2023-11-01 10:09:42.095942
3323  2023-11-01 10:09:42.143814
3324  2023-11-01 10:09:42.175729
3325  2023-11-01 10:09:42.207643
3326  2023-11-01 10:09:42.239641
3327  2023-11-01 10:09:42.271582
3328  2023-11-01 10:09:42.303497
3329  2023-11-01 10:09:42.336411
3330  2023-11-01 10:09:42.367328
3331  2023-11-01 10:09:42.399383
3332  2023-11-01 10:09:42.431394
3333  2023-11-01 10:09:42.463250
3334  2023-11-01 10:09:42.495223
3335  2023-11-01 10:09:42.543067
3336  2023-11-01 10:09:42.575036
3337  2023-11-01 10:09:42.606950
3338  2023-11-01 10:09:42.639862
3339  2023-11-01 10:09:42.671849
3340  2023-11-01 10:09:42.703691
3341  2023-11-01 10:09:42.735658
3342  2023-11-01 10:09:42.767609
3343  2023-11-01 10:09:42.799569
3344  2023-11-01 10:09:42.831438
3345  2023-11-01 10:09:42.863353
3346  2023-11-01 10:09:42.895299
3347  2023-11-01 10:09:42.943140
3348  2023-11-01 10:09:42.975055
3349  2023-11-01 10:09:43.007016
3350  2023-11-01 10:09:43.039881
3351  2023-11-01 10:09:43.071796
3352  2023-11-01 10:09:43.103711
3353  2023-11-01 10:09:43.135626
3354  2023-11-01 10:09:43.167540
3355  2023-11-01 10:09:43.199455
3356  2023-11-01 10:09:43.231373
3357  2023-11-01 10:09:43.263284
3358  2023-11-01 10:09:43.296197
3359  2023-11-01 10:09:43.344103
3360  2023-11-01 10:09:43.376015
3361  2023-11-01 10:09:43.407898
3362  2023-11-01 10:09:43.439813
3363  2023-11-01 10:09:43.471727
3364  2023-11-01 10:09:43.503700
3365  2023-11-01 10:09:43.535589
3366  2023-11-01 10:09:43.567472
3367  2023-11-01 10:09:43.599386
3368  2023-11-01 10:09:43.631331
3369  2023-11-01 10:09:43.663216
3370  2023-11-01 10:09:43.695130
3371  2023-11-01 10:09:43.743002
3372  2023-11-01 10:09:43.775914
3373  2023-11-01 10:09:43.807829
3374  2023-11-01 10:09:43.839777
3375  2023-11-01 10:09:43.871659
3376  2023-11-01 10:09:43.903573
3377  2023-11-01 10:09:43.935488
3378  2023-11-01 10:09:43.967403
3379  2023-11-01 10:09:43.999318
3380  2023-11-01 10:09:44.031232
3381  2023-11-01 10:09:44.063147
3382  2023-11-01 10:09:44.095062
3383  2023-11-01 10:09:44.143931
3384  2023-11-01 10:09:44.175846
3385  2023-11-01 10:09:44.207766
3386  2023-11-01 10:09:44.239778
3387  2023-11-01 10:09:44.271635
3388  2023-11-01 10:09:44.303545
3389  2023-11-01 10:09:44.335460
3390  2023-11-01 10:09:44.367402
3391  2023-11-01 10:09:44.399289
3392  2023-11-01 10:09:44.431282
3393  2023-11-01 10:09:44.463151
3394  2023-11-01 10:09:44.495037
3395  2023-11-01 10:09:44.542998
3396  2023-11-01 10:09:44.575863
3397  2023-11-01 10:09:44.607778
3398  2023-11-01 10:09:44.639692
3399  2023-11-01 10:09:44.671649
3400  2023-11-01 10:09:44.703522
3401  2023-11-01 10:09:44.735437
3402  2023-11-01 10:09:44.767351
3403  2023-11-01 10:09:44.799297
3404  2023-11-01 10:09:44.831181
3405  2023-11-01 10:09:44.863095
3406  2023-11-01 10:09:44.895010
3407  2023-11-01 10:09:44.943882
3408  2023-11-01 10:09:44.975794
3409  2023-11-01 10:09:45.007742
3410  2023-11-01 10:09:45.039624
3411  2023-11-01 10:09:45.071538
3412  2023-11-01 10:09:45.103453
3413  2023-11-01 10:09:45.135368
3414  2023-11-01 10:09:45.167283
3415  2023-11-01 10:09:45.200263
3416  2023-11-01 10:09:45.231112
3417  2023-11-01 10:09:45.263027
3418  2023-11-01 10:09:45.295976
3419  2023-11-01 10:09:45.343811
3420  2023-11-01 10:09:45.375851
3421  2023-11-01 10:09:45.407855
3422  2023-11-01 10:09:45.439757
3423  2023-11-01 10:09:45.471672
3424  2023-11-01 10:09:45.503618
3425  2023-11-01 10:09:45.535529
3426  2023-11-01 10:09:45.567416
3427  2023-11-01 10:09:45.599331
3428  2023-11-01 10:09:45.631294
3429  2023-11-01 10:09:45.663194
3430  2023-11-01 10:09:45.711075
3431  2023-11-01 10:09:45.742947
3432  2023-11-01 10:09:45.774862
3433  2023-11-01 10:09:45.807783
3434  2023-11-01 10:09:45.839726
3435  2023-11-01 10:09:45.871650
3436  2023-11-01 10:09:45.903518
3437  2023-11-01 10:09:45.935433
3438  2023-11-01 10:09:45.967348
3439  2023-11-01 10:09:45.999314
3440  2023-11-01 10:09:46.031396
3441  2023-11-01 10:09:46.063311
3442  2023-11-01 10:09:46.111235
3443  2023-11-01 10:09:46.143128
3444  2023-11-01 10:09:46.175044
3445  2023-11-01 10:09:46.206960
3446  2023-11-01 10:09:46.239839
3447  2023-11-01 10:09:46.271754
3448  2023-11-01 10:09:46.303670
3449  2023-11-01 10:09:46.335615
3450  2023-11-01 10:09:46.367498
3451  2023-11-01 10:09:46.399413
3452  2023-11-01 10:09:46.431327
3453  2023-11-01 10:09:46.463242
3454  2023-11-01 10:09:46.511167
3455  2023-11-01 10:09:46.543029
3456  2023-11-01 10:09:46.575941
3457  2023-11-01 10:09:46.607856
3458  2023-11-01 10:09:46.639815
3459  2023-11-01 10:09:46.671629
3460  2023-11-01 10:09:46.703613
3461  2023-11-01 10:09:46.735525
3462  2023-11-01 10:09:46.767440
3463  2023-11-01 10:09:46.799355
3464  2023-11-01 10:09:46.831301
3465  2023-11-01 10:09:46.863184
3466  2023-11-01 10:09:46.912116
3467  2023-11-01 10:09:46.942971
3468  2023-11-01 10:09:46.975883
3469  2023-11-01 10:09:47.007798
3470  2023-11-01 10:09:47.039775
3471  2023-11-01 10:09:47.071627
3472  2023-11-01 10:09:47.103542
3473  2023-11-01 10:09:47.135457
3474  2023-11-01 10:09:47.167397
3475  2023-11-01 10:09:47.199286
3476  2023-11-01 10:09:47.231201
3477  2023-11-01 10:09:47.263116
3478  2023-11-01 10:09:47.311025
3479  2023-11-01 10:09:47.343900
3480  2023-11-01 10:09:47.375848
3481  2023-11-01 10:09:47.407729
3482  2023-11-01 10:09:47.439644
3483  2023-11-01 10:09:47.471558
3484  2023-11-01 10:09:47.503516
3485  2023-11-01 10:09:47.535388
3486  2023-11-01 10:09:47.567303
3487  2023-11-01 10:09:47.599217
3488  2023-11-01 10:09:47.631173
3489  2023-11-01 10:09:47.663091
3490  2023-11-01 10:09:47.711948
3491  2023-11-01 10:09:47.743831
3492  2023-11-01 10:09:47.775777
3493  2023-11-01 10:09:47.807660
3494  2023-11-01 10:09:47.839610
3495  2023-11-01 10:09:47.871522
3496  2023-11-01 10:09:47.903404
3497  2023-11-01 10:09:47.935321
3498  2023-11-01 10:09:47.967291
3499  2023-11-01 10:09:47.999202
3500  2023-11-01 10:09:48.031765
3501  2023-11-01 10:09:48.063707
3502  2023-11-01 10:09:48.111613
3503  2023-11-01 10:09:48.143494
3504  2023-11-01 10:09:48.175447
3505  2023-11-01 10:09:48.207387
3506  2023-11-01 10:09:48.239238
3507  2023-11-01 10:09:48.271153
3508  2023-11-01 10:09:48.303116
3509  2023-11-01 10:09:48.334982
3510  2023-11-01 10:09:48.367011
3511  2023-11-01 10:09:48.399923
3512  2023-11-01 10:09:48.430887
3513  2023-11-01 10:09:48.463753
3514  2023-11-01 10:09:48.511662
3515  2023-11-01 10:09:48.543576
3516  2023-11-01 10:09:48.575454
3517  2023-11-01 10:09:48.608366
3518  2023-11-01 10:09:48.639438
3519  2023-11-01 10:09:48.671352
3520  2023-11-01 10:09:48.703272
3521  2023-11-01 10:09:48.735182
3522  2023-11-01 10:09:48.767096
3523  2023-11-01 10:09:48.800008
3524  2023-11-01 10:09:48.831924
3525  2023-11-01 10:09:48.863841
3526  2023-11-01 10:09:48.911744
3527  2023-11-01 10:09:48.943625
3528  2023-11-01 10:09:48.975541
3529  2023-11-01 10:09:49.007456
3530  2023-11-01 10:09:49.039371
3531  2023-11-01 10:09:49.071285
3532  2023-11-01 10:09:49.103332
3533  2023-11-01 10:09:49.135217
3534  2023-11-01 10:09:49.167100
3535  2023-11-01 10:09:49.200012
3536  2023-11-01 10:09:49.231926
3537  2023-11-01 10:09:49.279838
3538  2023-11-01 10:09:49.311754
3539  2023-11-01 10:09:49.343702
3540  2023-11-01 10:09:49.375625
3541  2023-11-01 10:09:49.407582
3542  2023-11-01 10:09:49.439496
3543  2023-11-01 10:09:49.471411
3544  2023-11-01 10:09:49.503326
3545  2023-11-01 10:09:49.535309
3546  2023-11-01 10:09:49.567350
3547  2023-11-01 10:09:49.599265
3548  2023-11-01 10:09:49.631179
3549  2023-11-01 10:09:49.679083
3550  2023-11-01 10:09:49.710996
3551  2023-11-01 10:09:49.743941
3552  2023-11-01 10:09:49.775793
3553  2023-11-01 10:09:49.807710
3554  2023-11-01 10:09:49.839622
3555  2023-11-01 10:09:49.871537
3556  2023-11-01 10:09:49.903452
3557  2023-11-01 10:09:49.935369
3558  2023-11-01 10:09:49.967292
3559  2023-11-01 10:09:49.999196
3560  2023-11-01 10:09:50.031111
3561  2023-11-01 10:09:50.079013
