
1  2023-10-25 16:16:29.758848
2  2023-10-25 16:16:29.790836
3  2023-10-25 16:16:29.822751
4  2023-10-25 16:16:29.854666
5  2023-10-25 16:16:29.886580
6  2023-10-25 16:16:29.918506
7  2023-10-25 16:16:29.950416
8  2023-10-25 16:16:29.983333
9  2023-10-25 16:16:30.015294
10  2023-10-25 16:16:30.063154
11  2023-10-25 16:16:30.095068
12  2023-10-25 16:16:30.126983
13  2023-10-25 16:16:30.158897
14  2023-10-25 16:16:30.190815
15  2023-10-25 16:16:30.222757
16  2023-10-25 16:16:30.254641
17  2023-10-25 16:16:30.286622
18  2023-10-25 16:16:30.319534
19  2023-10-25 16:16:30.350452
20  2023-10-25 16:16:30.382426
21  2023-10-25 16:16:30.415332
22  2023-10-25 16:16:30.463150
23  2023-10-25 16:16:30.495145
24  2023-10-25 16:16:30.527102
25  2023-10-25 16:16:30.559017
26  2023-10-25 16:16:30.590932
27  2023-10-25 16:16:30.622846
28  2023-10-25 16:16:30.654799
29  2023-10-25 16:16:30.686677
30  2023-10-25 16:16:30.718592
31  2023-10-25 16:16:30.750533
32  2023-10-25 16:16:30.782420
33  2023-10-25 16:16:30.815331
34  2023-10-25 16:16:30.863204
35  2023-10-25 16:16:30.895118
36  2023-10-25 16:16:30.927032
37  2023-10-25 16:16:30.958947
38  2023-10-25 16:16:30.990862
39  2023-10-25 16:16:31.022776
40  2023-10-25 16:16:31.054766
41  2023-10-25 16:16:31.086673
42  2023-10-25 16:16:31.118587
43  2023-10-25 16:16:31.150502
44  2023-10-25 16:16:31.183413
45  2023-10-25 16:16:31.215328
46  2023-10-25 16:16:31.263260
47  2023-10-25 16:16:31.295168
48  2023-10-25 16:16:31.327083
49  2023-10-25 16:16:31.358998
50  2023-10-25 16:16:31.390912
51  2023-10-25 16:16:31.422968
52  2023-10-25 16:16:31.454883
53  2023-10-25 16:16:31.486798
54  2023-10-25 16:16:31.518712
55  2023-10-25 16:16:31.550627
56  2023-10-25 16:16:31.583591
57  2023-10-25 16:16:31.615505
58  2023-10-25 16:16:31.662409
59  2023-10-25 16:16:31.695290
60  2023-10-25 16:16:31.727203
61  2023-10-25 16:16:31.759150
62  2023-10-25 16:16:31.791068
63  2023-10-25 16:16:31.822948
64  2023-10-25 16:16:31.854862
65  2023-10-25 16:16:31.886849
66  2023-10-25 16:16:31.918764
67  2023-10-25 16:16:31.950578
68  2023-10-25 16:16:31.982482
69  2023-10-25 16:16:32.015393
70  2023-10-25 16:16:32.063049
71  2023-10-25 16:16:32.094952
72  2023-10-25 16:16:32.126889
73  2023-10-25 16:16:32.158885
74  2023-10-25 16:16:32.190798
75  2023-10-25 16:16:32.222684
76  2023-10-25 16:16:32.254634
77  2023-10-25 16:16:32.286540
78  2023-10-25 16:16:32.318421
79  2023-10-25 16:16:32.351332
80  2023-10-25 16:16:32.383247
81  2023-10-25 16:16:32.415194
82  2023-10-25 16:16:32.463033
83  2023-10-25 16:16:32.494948
84  2023-10-25 16:16:32.526862
85  2023-10-25 16:16:32.558777
86  2023-10-25 16:16:32.590691
87  2023-10-25 16:16:32.622606
88  2023-10-25 16:16:32.654569
89  2023-10-25 16:16:32.686477
90  2023-10-25 16:16:32.719381
91  2023-10-25 16:16:32.751021
92  2023-10-25 16:16:32.782934
93  2023-10-25 16:16:32.815004
94  2023-10-25 16:16:32.862843
95  2023-10-25 16:16:32.894759
96  2023-10-25 16:16:32.926681
97  2023-10-25 16:16:32.958660
98  2023-10-25 16:16:32.990571
99  2023-10-25 16:16:33.023455
100  2023-10-25 16:16:33.055369
101  2023-10-25 16:16:33.087341
102  2023-10-25 16:16:33.119197
103  2023-10-25 16:16:33.151112
104  2023-10-25 16:16:33.183027
105  2023-10-25 16:16:33.214956
106  2023-10-25 16:16:33.262813
107  2023-10-25 16:16:33.294760
108  2023-10-25 16:16:33.326675
109  2023-10-25 16:16:33.358595
110  2023-10-25 16:16:33.390456
111  2023-10-25 16:16:33.423341
112  2023-10-25 16:16:33.454333
113  2023-10-25 16:16:33.487278
114  2023-10-25 16:16:33.519195
115  2023-10-25 16:16:33.551104
116  2023-10-25 16:16:33.582988
117  2023-10-25 16:16:33.630897
118  2023-10-25 16:16:33.662815
119  2023-10-25 16:16:33.694828
120  2023-10-25 16:16:33.726805
121  2023-10-25 16:16:33.758815
122  2023-10-25 16:16:33.790730
123  2023-10-25 16:16:33.822678
124  2023-10-25 16:16:33.854562
125  2023-10-25 16:16:33.886474
126  2023-10-25 16:16:33.919418
127  2023-10-25 16:16:33.951332
128  2023-10-25 16:16:33.983248
129  2023-10-25 16:16:34.031087
130  2023-10-25 16:16:34.063001
131  2023-10-25 16:16:34.095023
132  2023-10-25 16:16:34.127030
133  2023-10-25 16:16:34.158945
134  2023-10-25 16:16:34.190859
135  2023-10-25 16:16:34.222779
136  2023-10-25 16:16:34.254690
137  2023-10-25 16:16:34.286620
138  2023-10-25 16:16:34.319517
139  2023-10-25 16:16:34.351430
140  2023-10-25 16:16:34.383346
141  2023-10-25 16:16:34.431235
142  2023-10-25 16:16:34.463149
143  2023-10-25 16:16:34.495064
144  2023-10-25 16:16:34.527057
145  2023-10-25 16:16:34.558972
146  2023-10-25 16:16:34.591040
147  2023-10-25 16:16:34.622954
148  2023-10-25 16:16:34.655869
149  2023-10-25 16:16:34.686783
150  2023-10-25 16:16:34.718698
151  2023-10-25 16:16:34.750613
152  2023-10-25 16:16:34.782571
153  2023-10-25 16:16:34.830488
154  2023-10-25 16:16:34.862403
155  2023-10-25 16:16:34.895349
156  2023-10-25 16:16:34.927229
157  2023-10-25 16:16:34.959233
158  2023-10-25 16:16:34.991148
159  2023-10-25 16:16:35.023065
160  2023-10-25 16:16:35.055010
161  2023-10-25 16:16:35.086923
162  2023-10-25 16:16:35.118855
163  2023-10-25 16:16:35.150722
164  2023-10-25 16:16:35.182647
165  2023-10-25 16:16:35.230508
166  2023-10-25 16:16:35.262422
167  2023-10-25 16:16:35.295342
168  2023-10-25 16:16:35.327249
169  2023-10-25 16:16:35.359164
170  2023-10-25 16:16:35.391078
171  2023-10-25 16:16:35.423070
172  2023-10-25 16:16:35.454985
173  2023-10-25 16:16:35.486987
174  2023-10-25 16:16:35.518902
175  2023-10-25 16:16:35.550881
176  2023-10-25 16:16:35.582732
177  2023-10-25 16:16:35.630601
178  2023-10-25 16:16:35.662516
179  2023-10-25 16:16:35.695429
180  2023-10-25 16:16:35.727353
181  2023-10-25 16:16:35.759351
182  2023-10-25 16:16:35.791372
183  2023-10-25 16:16:35.823308
184  2023-10-25 16:16:35.855219
185  2023-10-25 16:16:35.887148
186  2023-10-25 16:16:35.919057
187  2023-10-25 16:16:35.950949
188  2023-10-25 16:16:35.983001
189  2023-10-25 16:16:36.030872
190  2023-10-25 16:16:36.062782
191  2023-10-25 16:16:36.094735
192  2023-10-25 16:16:36.126620
193  2023-10-25 16:16:36.158567
194  2023-10-25 16:16:36.190489
195  2023-10-25 16:16:36.222365
196  2023-10-25 16:16:36.255317
197  2023-10-25 16:16:36.287222
198  2023-10-25 16:16:36.319136
199  2023-10-25 16:16:36.351054
200  2023-10-25 16:16:36.382961
201  2023-10-25 16:16:36.430808
202  2023-10-25 16:16:36.462802
203  2023-10-25 16:16:36.494777
204  2023-10-25 16:16:36.526657
205  2023-10-25 16:16:36.558571
206  2023-10-25 16:16:36.590486
207  2023-10-25 16:16:36.622401
208  2023-10-25 16:16:36.655371
209  2023-10-25 16:16:36.687286
210  2023-10-25 16:16:36.719284
211  2023-10-25 16:16:36.751199
212  2023-10-25 16:16:36.783080
213  2023-10-25 16:16:36.830951
214  2023-10-25 16:16:36.862866
215  2023-10-25 16:16:36.894781
216  2023-10-25 16:16:36.926695
217  2023-10-25 16:16:36.958610
218  2023-10-25 16:16:36.990525
219  2023-10-25 16:16:37.023437
220  2023-10-25 16:16:37.098238
221  2023-10-25 16:16:37.119181
222  2023-10-25 16:16:37.151096
223  2023-10-25 16:16:37.199008
224  2023-10-25 16:16:37.230922
225  2023-10-25 16:16:37.262837
226  2023-10-25 16:16:37.294792
227  2023-10-25 16:16:37.326748
228  2023-10-25 16:16:37.358745
229  2023-10-25 16:16:37.390711
230  2023-10-25 16:16:37.422658
231  2023-10-25 16:16:37.454605
232  2023-10-25 16:16:37.487485
233  2023-10-25 16:16:37.519401
234  2023-10-25 16:16:37.551360
235  2023-10-25 16:16:37.599186
236  2023-10-25 16:16:37.631102
237  2023-10-25 16:16:37.663016
238  2023-10-25 16:16:37.694962
239  2023-10-25 16:16:37.726845
240  2023-10-25 16:16:37.758713
241  2023-10-25 16:16:37.790625
242  2023-10-25 16:16:37.822585
243  2023-10-25 16:16:37.854486
244  2023-10-25 16:16:37.886370
245  2023-10-25 16:16:37.919334
246  2023-10-25 16:16:37.951198
247  2023-10-25 16:16:37.999067
248  2023-10-25 16:16:38.031020
249  2023-10-25 16:16:38.062897
250  2023-10-25 16:16:38.094820
251  2023-10-25 16:16:38.126726
252  2023-10-25 16:16:38.158641
253  2023-10-25 16:16:38.190555
254  2023-10-25 16:16:38.222470
255  2023-10-25 16:16:38.254389
256  2023-10-25 16:16:38.287339
257  2023-10-25 16:16:38.319345
258  2023-10-25 16:16:38.351346
259  2023-10-25 16:16:38.398355
260  2023-10-25 16:16:38.431278
261  2023-10-25 16:16:38.463181
262  2023-10-25 16:16:38.495227
263  2023-10-25 16:16:38.527142
264  2023-10-25 16:16:38.559057
265  2023-10-25 16:16:38.591082
266  2023-10-25 16:16:38.622997
267  2023-10-25 16:16:38.654943
268  2023-10-25 16:16:38.686834
269  2023-10-25 16:16:38.718743
270  2023-10-25 16:16:38.750689
271  2023-10-25 16:16:38.798529
272  2023-10-25 16:16:38.830444
273  2023-10-25 16:16:38.863357
274  2023-10-25 16:16:38.895271
275  2023-10-25 16:16:38.927185
276  2023-10-25 16:16:38.959099
277  2023-10-25 16:16:38.991014
278  2023-10-25 16:16:39.022932
279  2023-10-25 16:16:39.054878
280  2023-10-25 16:16:39.086808
281  2023-10-25 16:16:39.118709
282  2023-10-25 16:16:39.150687
283  2023-10-25 16:16:39.199557
284  2023-10-25 16:16:39.231472
285  2023-10-25 16:16:39.262388
286  2023-10-25 16:16:39.295300
287  2023-10-25 16:16:39.327214
288  2023-10-25 16:16:39.359130
289  2023-10-25 16:16:39.391044
290  2023-10-25 16:16:39.422958
291  2023-10-25 16:16:39.454873
292  2023-10-25 16:16:39.486812
293  2023-10-25 16:16:39.518762
294  2023-10-25 16:16:39.551629
295  2023-10-25 16:16:39.598502
296  2023-10-25 16:16:39.631045
297  2023-10-25 16:16:39.662959
298  2023-10-25 16:16:39.694873
299  2023-10-25 16:16:39.726821
300  2023-10-25 16:16:39.758738
301  2023-10-25 16:16:39.790652
302  2023-10-25 16:16:39.822534
303  2023-10-25 16:16:39.854447
304  2023-10-25 16:16:39.887360
305  2023-10-25 16:16:39.919317
306  2023-10-25 16:16:39.951188
307  2023-10-25 16:16:39.999060
308  2023-10-25 16:16:40.030974
309  2023-10-25 16:16:40.062919
310  2023-10-25 16:16:40.094911
311  2023-10-25 16:16:40.126893
312  2023-10-25 16:16:40.158860
313  2023-10-25 16:16:40.190762
314  2023-10-25 16:16:40.222712
315  2023-10-25 16:16:40.254642
316  2023-10-25 16:16:40.286594
317  2023-10-25 16:16:40.318471
318  2023-10-25 16:16:40.350420
319  2023-10-25 16:16:40.399289
320  2023-10-25 16:16:40.431169
321  2023-10-25 16:16:40.463083
322  2023-10-25 16:16:40.494998
323  2023-10-25 16:16:40.526913
324  2023-10-25 16:16:40.558827
325  2023-10-25 16:16:40.590782
326  2023-10-25 16:16:40.622784
327  2023-10-25 16:16:40.654694
328  2023-10-25 16:16:40.686609
329  2023-10-25 16:16:40.718524
330  2023-10-25 16:16:40.750473
331  2023-10-25 16:16:40.799307
332  2023-10-25 16:16:40.831221
333  2023-10-25 16:16:40.863214
334  2023-10-25 16:16:40.895129
335  2023-10-25 16:16:40.927043
336  2023-10-25 16:16:40.958958
337  2023-10-25 16:16:40.990873
338  2023-10-25 16:16:41.022791
339  2023-10-25 16:16:41.054734
340  2023-10-25 16:16:41.086617
341  2023-10-25 16:16:41.118588
342  2023-10-25 16:16:41.166403
343  2023-10-25 16:16:41.198318
344  2023-10-25 16:16:41.231230
345  2023-10-25 16:16:41.263144
346  2023-10-25 16:16:41.295059
347  2023-10-25 16:16:41.326974
348  2023-10-25 16:16:41.358888
349  2023-10-25 16:16:41.390803
350  2023-10-25 16:16:41.422718
351  2023-10-25 16:16:41.454664
352  2023-10-25 16:16:41.486573
353  2023-10-25 16:16:41.518493
354  2023-10-25 16:16:41.566336
355  2023-10-25 16:16:41.599246
356  2023-10-25 16:16:41.631160
357  2023-10-25 16:16:41.663075
358  2023-10-25 16:16:41.695023
359  2023-10-25 16:16:41.726904
360  2023-10-25 16:16:41.758823
361  2023-10-25 16:16:41.790733
362  2023-10-25 16:16:41.822648
363  2023-10-25 16:16:41.854563
364  2023-10-25 16:16:41.886477
365  2023-10-25 16:16:41.918392
366  2023-10-25 16:16:41.967273
367  2023-10-25 16:16:41.999176
368  2023-10-25 16:16:42.031135
369  2023-10-25 16:16:42.063005
370  2023-10-25 16:16:42.094920
371  2023-10-25 16:16:42.126938
372  2023-10-25 16:16:42.158890
373  2023-10-25 16:16:42.190812
374  2023-10-25 16:16:42.222682
375  2023-10-25 16:16:42.254597
376  2023-10-25 16:16:42.286550
377  2023-10-25 16:16:42.318462
378  2023-10-25 16:16:42.366414
379  2023-10-25 16:16:42.399326
380  2023-10-25 16:16:42.431241
381  2023-10-25 16:16:42.463212
382  2023-10-25 16:16:42.495212
383  2023-10-25 16:16:42.527126
384  2023-10-25 16:16:42.559041
385  2023-10-25 16:16:42.590955
386  2023-10-25 16:16:42.622870
387  2023-10-25 16:16:42.798402
388  2023-10-25 16:16:42.803388
389  2023-10-25 16:16:42.831374
390  2023-10-25 16:16:42.863289
391  2023-10-25 16:16:42.895212
392  2023-10-25 16:16:42.927118
393  2023-10-25 16:16:42.959033
394  2023-10-25 16:16:42.991006
395  2023-10-25 16:16:43.023007
396  2023-10-25 16:16:43.054922
397  2023-10-25 16:16:43.086837
398  2023-10-25 16:16:43.118798
399  2023-10-25 16:16:43.166622
400  2023-10-25 16:16:43.198588
401  2023-10-25 16:16:43.231461
402  2023-10-25 16:16:43.263363
403  2023-10-25 16:16:43.295277
404  2023-10-25 16:16:43.327223
405  2023-10-25 16:16:43.359138
406  2023-10-25 16:16:43.391063
407  2023-10-25 16:16:43.422977
408  2023-10-25 16:16:43.454895
409  2023-10-25 16:16:43.486807
410  2023-10-25 16:16:43.518720
411  2023-10-25 16:16:43.566666
412  2023-10-25 16:16:43.598755
413  2023-10-25 16:16:43.630669
414  2023-10-25 16:16:43.662615
415  2023-10-25 16:16:43.694499
416  2023-10-25 16:16:43.726413
417  2023-10-25 16:16:43.758427
418  2023-10-25 16:16:43.791353
419  2023-10-25 16:16:43.823267
420  2023-10-25 16:16:43.855182
421  2023-10-25 16:16:43.887133
422  2023-10-25 16:16:43.919072
423  2023-10-25 16:16:43.966883
424  2023-10-25 16:16:43.998814
425  2023-10-25 16:16:44.030712
426  2023-10-25 16:16:44.062627
427  2023-10-25 16:16:44.094542
428  2023-10-25 16:16:44.126456
429  2023-10-25 16:16:44.158371
430  2023-10-25 16:16:44.191283
431  2023-10-25 16:16:44.223198
432  2023-10-25 16:16:44.255183
433  2023-10-25 16:16:44.287239
434  2023-10-25 16:16:44.319061
435  2023-10-25 16:16:44.366932
436  2023-10-25 16:16:44.398847
437  2023-10-25 16:16:44.430761
438  2023-10-25 16:16:44.462843
439  2023-10-25 16:16:44.494781
440  2023-10-25 16:16:44.526697
441  2023-10-25 16:16:44.558610
442  2023-10-25 16:16:44.590525
443  2023-10-25 16:16:44.622439
444  2023-10-25 16:16:44.655404
445  2023-10-25 16:16:44.687421
446  2023-10-25 16:16:44.735261
447  2023-10-25 16:16:44.767175
448  2023-10-25 16:16:44.799090
449  2023-10-25 16:16:44.831004
450  2023-10-25 16:16:44.862863
451  2023-10-25 16:16:44.894539
452  2023-10-25 16:16:44.926392
453  2023-10-25 16:16:44.959310
454  2023-10-25 16:16:44.991210
455  2023-10-25 16:16:45.023126
456  2023-10-25 16:16:45.055175
457  2023-10-25 16:16:45.087119
458  2023-10-25 16:16:45.134961
459  2023-10-25 16:16:45.166875
460  2023-10-25 16:16:45.198839
461  2023-10-25 16:16:45.230755
462  2023-10-25 16:16:45.262619
463  2023-10-25 16:16:45.294534
464  2023-10-25 16:16:45.326484
465  2023-10-25 16:16:45.358363
466  2023-10-25 16:16:45.391275
467  2023-10-25 16:16:45.423190
468  2023-10-25 16:16:45.455141
469  2023-10-25 16:16:45.487056
470  2023-10-25 16:16:45.534891
471  2023-10-25 16:16:45.566806
472  2023-10-25 16:16:45.598720
473  2023-10-25 16:16:45.630635
474  2023-10-25 16:16:45.662637
475  2023-10-25 16:16:45.694607
476  2023-10-25 16:16:45.726522
477  2023-10-25 16:16:45.758437
478  2023-10-25 16:16:45.790490
479  2023-10-25 16:16:45.822404
480  2023-10-25 16:16:45.855317
481  2023-10-25 16:16:45.887231
482  2023-10-25 16:16:45.935103
483  2023-10-25 16:16:45.967171
484  2023-10-25 16:16:45.999149
485  2023-10-25 16:16:46.031063
486  2023-10-25 16:16:46.062978
487  2023-10-25 16:16:46.094964
488  2023-10-25 16:16:46.126932
489  2023-10-25 16:16:46.158847
490  2023-10-25 16:16:46.190761
491  2023-10-25 16:16:46.223810
492  2023-10-25 16:16:46.254815
493  2023-10-25 16:16:46.286768
494  2023-10-25 16:16:46.334600
495  2023-10-25 16:16:46.366515
496  2023-10-25 16:16:46.399427
497  2023-10-25 16:16:46.431341
498  2023-10-25 16:16:46.463256
499  2023-10-25 16:16:46.495172
500  2023-10-25 16:16:46.527179
501  2023-10-25 16:16:46.559187
502  2023-10-25 16:16:46.591137
503  2023-10-25 16:16:46.623052
504  2023-10-25 16:16:46.655009
505  2023-10-25 16:16:46.686881
506  2023-10-25 16:16:46.734805
507  2023-10-25 16:16:46.767684
508  2023-10-25 16:16:46.798582
509  2023-10-25 16:16:46.831495
510  2023-10-25 16:16:46.862411
511  2023-10-25 16:16:46.895379
512  2023-10-25 16:16:46.927238
513  2023-10-25 16:16:46.959152
514  2023-10-25 16:16:46.991067
515  2023-10-25 16:16:47.023021
516  2023-10-25 16:16:47.054898
517  2023-10-25 16:16:47.086812
518  2023-10-25 16:16:47.134683
519  2023-10-25 16:16:47.166597
520  2023-10-25 16:16:47.199530
521  2023-10-25 16:16:47.230427
522  2023-10-25 16:16:47.263340
523  2023-10-25 16:16:47.295254
524  2023-10-25 16:16:47.327357
525  2023-10-25 16:16:47.359433
526  2023-10-25 16:16:47.391423
527  2023-10-25 16:16:47.423261
528  2023-10-25 16:16:47.455177
529  2023-10-25 16:16:47.487174
530  2023-10-25 16:16:47.535133
531  2023-10-25 16:16:47.567048
532  2023-10-25 16:16:47.598971
533  2023-10-25 16:16:47.630971
534  2023-10-25 16:16:47.662970
535  2023-10-25 16:16:47.694885
536  2023-10-25 16:16:47.727798
537  2023-10-25 16:16:47.758714
538  2023-10-25 16:16:47.790628
539  2023-10-25 16:16:47.822628
540  2023-10-25 16:16:47.855608
541  2023-10-25 16:16:47.886515
542  2023-10-25 16:16:47.935373
543  2023-10-25 16:16:47.967288
544  2023-10-25 16:16:47.998480
545  2023-10-25 16:16:48.031338
546  2023-10-25 16:16:48.063252
547  2023-10-25 16:16:48.095206
548  2023-10-25 16:16:48.127088
549  2023-10-25 16:16:48.158998
550  2023-10-25 16:16:48.190912
551  2023-10-25 16:16:48.222827
552  2023-10-25 16:16:48.311599
553  2023-10-25 16:16:48.334527
554  2023-10-25 16:16:48.366442
555  2023-10-25 16:16:48.399437
556  2023-10-25 16:16:48.431322
557  2023-10-25 16:16:48.463238
558  2023-10-25 16:16:48.495151
559  2023-10-25 16:16:48.527067
560  2023-10-25 16:16:48.558980
561  2023-10-25 16:16:48.590895
562  2023-10-25 16:16:48.622810
563  2023-10-25 16:16:48.654777
564  2023-10-25 16:16:48.702682
565  2023-10-25 16:16:48.735595
566  2023-10-25 16:16:48.766511
567  2023-10-25 16:16:48.798426
568  2023-10-25 16:16:48.831338
569  2023-10-25 16:16:48.863269
570  2023-10-25 16:16:48.895235
571  2023-10-25 16:16:48.927149
572  2023-10-25 16:16:48.959165
573  2023-10-25 16:16:48.991128
574  2023-10-25 16:16:49.023043
575  2023-10-25 16:16:49.054991
576  2023-10-25 16:16:49.102829
577  2023-10-25 16:16:49.134743
578  2023-10-25 16:16:49.167656
579  2023-10-25 16:16:49.199599
580  2023-10-25 16:16:49.230532
581  2023-10-25 16:16:49.262402
582  2023-10-25 16:16:49.295317
583  2023-10-25 16:16:49.327229
584  2023-10-25 16:16:49.359195
585  2023-10-25 16:16:49.391199
586  2023-10-25 16:16:49.423120
587  2023-10-25 16:16:49.455023
588  2023-10-25 16:16:49.502903
589  2023-10-25 16:16:49.535780
590  2023-10-25 16:16:49.567695
591  2023-10-25 16:16:49.598625
592  2023-10-25 16:16:49.630572
593  2023-10-25 16:16:49.662480
594  2023-10-25 16:16:49.695358
595  2023-10-25 16:16:49.727298
596  2023-10-25 16:16:49.759182
597  2023-10-25 16:16:49.791096
598  2023-10-25 16:16:49.823011
599  2023-10-25 16:16:49.854925
600  2023-10-25 16:16:49.902798
601  2023-10-25 16:16:49.934750
602  2023-10-25 16:16:49.966627
603  2023-10-25 16:16:49.998540
604  2023-10-25 16:16:50.030493
605  2023-10-25 16:16:50.062371
606  2023-10-25 16:16:50.095283
607  2023-10-25 16:16:50.127204
608  2023-10-25 16:16:50.159266
609  2023-10-25 16:16:50.191175
610  2023-10-25 16:16:50.223057
611  2023-10-25 16:16:50.255011
612  2023-10-25 16:16:50.302844
613  2023-10-25 16:16:50.334758
614  2023-10-25 16:16:50.366674
615  2023-10-25 16:16:50.398624
616  2023-10-25 16:16:50.430504
617  2023-10-25 16:16:50.462423
618  2023-10-25 16:16:50.495339
619  2023-10-25 16:16:50.527245
620  2023-10-25 16:16:50.559206
621  2023-10-25 16:16:50.591073
622  2023-10-25 16:16:50.623018
623  2023-10-25 16:16:50.654902
624  2023-10-25 16:16:50.702804
625  2023-10-25 16:16:50.734689
626  2023-10-25 16:16:50.766603
627  2023-10-25 16:16:50.798518
628  2023-10-25 16:16:50.830432
629  2023-10-25 16:16:50.862347
630  2023-10-25 16:16:50.895295
631  2023-10-25 16:16:50.927175
632  2023-10-25 16:16:50.959120
633  2023-10-25 16:16:50.991034
634  2023-10-25 16:16:51.022948
635  2023-10-25 16:16:51.054833
636  2023-10-25 16:16:51.102736
637  2023-10-25 16:16:51.134792
638  2023-10-25 16:16:51.166665
639  2023-10-25 16:16:51.198757
640  2023-10-25 16:16:51.231490
641  2023-10-25 16:16:51.262596
642  2023-10-25 16:16:51.294477
643  2023-10-25 16:16:51.326405
644  2023-10-25 16:16:51.359337
645  2023-10-25 16:16:51.391396
646  2023-10-25 16:16:51.423289
647  2023-10-25 16:16:51.455199
648  2023-10-25 16:16:51.503104
649  2023-10-25 16:16:51.534981
650  2023-10-25 16:16:51.566927
651  2023-10-25 16:16:51.598842
652  2023-10-25 16:16:51.630723
653  2023-10-25 16:16:51.662681
654  2023-10-25 16:16:51.694586
655  2023-10-25 16:16:51.726468
656  2023-10-25 16:16:51.759410
657  2023-10-25 16:16:51.790340
658  2023-10-25 16:16:51.823244
659  2023-10-25 16:16:51.855123
660  2023-10-25 16:16:51.903029
661  2023-10-25 16:16:51.934944
662  2023-10-25 16:16:51.966855
663  2023-10-25 16:16:51.998774
664  2023-10-25 16:16:52.030686
665  2023-10-25 16:16:52.062605
666  2023-10-25 16:16:52.094520
667  2023-10-25 16:16:52.126428
668  2023-10-25 16:16:52.158343
669  2023-10-25 16:16:52.191224
670  2023-10-25 16:16:52.223172
671  2023-10-25 16:16:52.255092
672  2023-10-25 16:16:52.302925
673  2023-10-25 16:16:52.334873
674  2023-10-25 16:16:52.366787
675  2023-10-25 16:16:52.398874
676  2023-10-25 16:16:52.430869
677  2023-10-25 16:16:52.462784
678  2023-10-25 16:16:52.494736
679  2023-10-25 16:16:52.526615
680  2023-10-25 16:16:52.558562
681  2023-10-25 16:16:52.590484
682  2023-10-25 16:16:52.622358
683  2023-10-25 16:16:52.670269
684  2023-10-25 16:16:52.703181
685  2023-10-25 16:16:52.735092
686  2023-10-25 16:16:52.767007
687  2023-10-25 16:16:52.798917
688  2023-10-25 16:16:52.830810
689  2023-10-25 16:16:52.862755
690  2023-10-25 16:16:52.894663
691  2023-10-25 16:16:52.926578
692  2023-10-25 16:16:52.958666
693  2023-10-25 16:16:52.990707
694  2023-10-25 16:16:53.022700
695  2023-10-25 16:16:53.070584
696  2023-10-25 16:16:53.102483
697  2023-10-25 16:16:53.134395
698  2023-10-25 16:16:53.166317
699  2023-10-25 16:16:53.199232
700  2023-10-25 16:16:53.231139
701  2023-10-25 16:16:53.263053
702  2023-10-25 16:16:53.294968
703  2023-10-25 16:16:53.326852
704  2023-10-25 16:16:53.431574
705  2023-10-25 16:16:53.470493
706  2023-10-25 16:16:53.502423
707  2023-10-25 16:16:53.535351
708  2023-10-25 16:16:53.567245
709  2023-10-25 16:16:53.599156
710  2023-10-25 16:16:53.631069
711  2023-10-25 16:16:53.662955
712  2023-10-25 16:16:53.694905
713  2023-10-25 16:16:53.726813
714  2023-10-25 16:16:53.758746
715  2023-10-25 16:16:53.790655
716  2023-10-25 16:16:53.822524
717  2023-10-25 16:16:53.870430
718  2023-10-25 16:16:53.903366
719  2023-10-25 16:16:53.935261
720  2023-10-25 16:16:53.967176
721  2023-10-25 16:16:53.999086
722  2023-10-25 16:16:54.031151
723  2023-10-25 16:16:54.063060
724  2023-10-25 16:16:54.095087
725  2023-10-25 16:16:54.127003
726  2023-10-25 16:16:54.159034
727  2023-10-25 16:16:54.190920
728  2023-10-25 16:16:54.222864
729  2023-10-25 16:16:54.270704
730  2023-10-25 16:16:54.302662
731  2023-10-25 16:16:54.334531
732  2023-10-25 16:16:54.366477
733  2023-10-25 16:16:54.398392
734  2023-10-25 16:16:54.430498
735  2023-10-25 16:16:54.462458
736  2023-10-25 16:16:54.494421
737  2023-10-25 16:16:54.527323
738  2023-10-25 16:16:54.559242
739  2023-10-25 16:16:54.591152
740  2023-10-25 16:16:54.623036
741  2023-10-25 16:16:54.670941
742  2023-10-25 16:16:54.702870
743  2023-10-25 16:16:54.734877
744  2023-10-25 16:16:54.766793
745  2023-10-25 16:16:54.798704
746  2023-10-25 16:16:54.830620
747  2023-10-25 16:16:54.862583
748  2023-10-25 16:16:54.894549
749  2023-10-25 16:16:54.926452
750  2023-10-25 16:16:54.958364
751  2023-10-25 16:16:54.991295
752  2023-10-25 16:16:55.023159
753  2023-10-25 16:16:55.071064
754  2023-10-25 16:16:55.102946
755  2023-10-25 16:16:55.134860
756  2023-10-25 16:16:55.166972
757  2023-10-25 16:16:55.198890
758  2023-10-25 16:16:55.230809
759  2023-10-25 16:16:55.262685
760  2023-10-25 16:16:55.294600
761  2023-10-25 16:16:55.326555
762  2023-10-25 16:16:55.359465
763  2023-10-25 16:16:55.390389
764  2023-10-25 16:16:55.422413
765  2023-10-25 16:16:55.471285
766  2023-10-25 16:16:55.503167
767  2023-10-25 16:16:55.535114
768  2023-10-25 16:16:55.567027
769  2023-10-25 16:16:55.599081
770  2023-10-25 16:16:55.630996
771  2023-10-25 16:16:55.662919
772  2023-10-25 16:16:55.694838
773  2023-10-25 16:16:55.726735
774  2023-10-25 16:16:55.758661
775  2023-10-25 16:16:55.790581
776  2023-10-25 16:16:55.822739
777  2023-10-25 16:16:55.870628
778  2023-10-25 16:16:55.902548
779  2023-10-25 16:16:55.934501
780  2023-10-25 16:16:55.966446
781  2023-10-25 16:16:55.998364
782  2023-10-25 16:16:56.031296
783  2023-10-25 16:16:56.063188
784  2023-10-25 16:16:56.095072
785  2023-10-25 16:16:56.127018
786  2023-10-25 16:16:56.158931
787  2023-10-25 16:16:56.190857
788  2023-10-25 16:16:56.238736
789  2023-10-25 16:16:56.270648
790  2023-10-25 16:16:56.302517
791  2023-10-25 16:16:56.334431
792  2023-10-25 16:16:56.366377
793  2023-10-25 16:16:56.399297
794  2023-10-25 16:16:56.431208
795  2023-10-25 16:16:56.463128
796  2023-10-25 16:16:56.495033
797  2023-10-25 16:16:56.526952
798  2023-10-25 16:16:56.558869
799  2023-10-25 16:16:56.590784
800  2023-10-25 16:16:56.638660
801  2023-10-25 16:16:56.670575
802  2023-10-25 16:16:56.702491
803  2023-10-25 16:16:56.735371
804  2023-10-25 16:16:56.767315
805  2023-10-25 16:16:56.799227
806  2023-10-25 16:16:56.831135
807  2023-10-25 16:16:56.863018
808  2023-10-25 16:16:56.894932
809  2023-10-25 16:16:56.926881
810  2023-10-25 16:16:56.958806
811  2023-10-25 16:16:56.990710
812  2023-10-25 16:16:57.038708
813  2023-10-25 16:16:57.070617
814  2023-10-25 16:16:57.103501
815  2023-10-25 16:16:57.134416
816  2023-10-25 16:16:57.167385
817  2023-10-25 16:16:57.199296
818  2023-10-25 16:16:57.231188
819  2023-10-25 16:16:57.263072
820  2023-10-25 16:16:57.295019
821  2023-10-25 16:16:57.326933
822  2023-10-25 16:16:57.358842
823  2023-10-25 16:16:57.390745
824  2023-10-25 16:16:57.438746
825  2023-10-25 16:16:57.470693
826  2023-10-25 16:16:57.502702
827  2023-10-25 16:16:57.534664
828  2023-10-25 16:16:57.566574
829  2023-10-25 16:16:57.598483
830  2023-10-25 16:16:57.631390
831  2023-10-25 16:16:57.663273
832  2023-10-25 16:16:57.695219
833  2023-10-25 16:16:57.727134
834  2023-10-25 16:16:57.759049
835  2023-10-25 16:16:57.791019
836  2023-10-25 16:16:57.838973
837  2023-10-25 16:16:57.870885
838  2023-10-25 16:16:57.902822
839  2023-10-25 16:16:57.934777
840  2023-10-25 16:16:57.966725
841  2023-10-25 16:16:57.998650
842  2023-10-25 16:16:58.030614
843  2023-10-25 16:16:58.062535
844  2023-10-25 16:16:58.094498
845  2023-10-25 16:16:58.126409
846  2023-10-25 16:16:58.158324
847  2023-10-25 16:16:58.190365
848  2023-10-25 16:16:58.239221
849  2023-10-25 16:16:58.271135
850  2023-10-25 16:16:58.303018
851  2023-10-25 16:16:58.335092
852  2023-10-25 16:16:58.367037
853  2023-10-25 16:16:58.399055
854  2023-10-25 16:16:58.430869
855  2023-10-25 16:16:58.504639
856  2023-10-25 16:16:58.526579
857  2023-10-25 16:16:58.559671
858  2023-10-25 16:16:58.590712
859  2023-10-25 16:16:58.638723
860  2023-10-25 16:16:58.670784
861  2023-10-25 16:16:58.702795
862  2023-10-25 16:16:58.734766
863  2023-10-25 16:16:58.766694
864  2023-10-25 16:16:58.798605
865  2023-10-25 16:16:58.830518
866  2023-10-25 16:16:58.862364
867  2023-10-25 16:16:58.895263
868  2023-10-25 16:16:58.927173
869  2023-10-25 16:16:58.959094
870  2023-10-25 16:16:58.991085
871  2023-10-25 16:16:59.038951
872  2023-10-25 16:16:59.071064
873  2023-10-25 16:16:59.102981
874  2023-10-25 16:16:59.134891
875  2023-10-25 16:16:59.166790
876  2023-10-25 16:16:59.198875
877  2023-10-25 16:16:59.230778
878  2023-10-25 16:16:59.262691
879  2023-10-25 16:16:59.294611
880  2023-10-25 16:16:59.326518
881  2023-10-25 16:16:59.358432
882  2023-10-25 16:16:59.390346
883  2023-10-25 16:16:59.439218
884  2023-10-25 16:16:59.471132
885  2023-10-25 16:16:59.503047
886  2023-10-25 16:16:59.534961
887  2023-10-25 16:16:59.566870
888  2023-10-25 16:16:59.598802
889  2023-10-25 16:16:59.630705
890  2023-10-25 16:16:59.662633
891  2023-10-25 16:16:59.694534
892  2023-10-25 16:16:59.726458
893  2023-10-25 16:16:59.758364
894  2023-10-25 16:16:59.791296
895  2023-10-25 16:16:59.839146
896  2023-10-25 16:16:59.871060
897  2023-10-25 16:16:59.902982
898  2023-10-25 16:16:59.934860
899  2023-10-25 16:16:59.966775
900  2023-10-25 16:16:59.998721
901  2023-10-25 16:17:00.030634
902  2023-10-25 16:17:00.063548
903  2023-10-25 16:17:00.094465
904  2023-10-25 16:17:00.126377
905  2023-10-25 16:17:00.159304
906  2023-10-25 16:17:00.207161
907  2023-10-25 16:17:00.239077
908  2023-10-25 16:17:00.270995
909  2023-10-25 16:17:00.302909
910  2023-10-25 16:17:00.334955
911  2023-10-25 16:17:00.366875
912  2023-10-25 16:17:00.398775
913  2023-10-25 16:17:00.430700
914  2023-10-25 16:17:00.462623
915  2023-10-25 16:17:00.494496
916  2023-10-25 16:17:00.526442
917  2023-10-25 16:17:00.558357
918  2023-10-25 16:17:00.607225
919  2023-10-25 16:17:00.639145
920  2023-10-25 16:17:00.671059
921  2023-10-25 16:17:00.702968
922  2023-10-25 16:17:00.735014
923  2023-10-25 16:17:00.766896
924  2023-10-25 16:17:00.798844
925  2023-10-25 16:17:00.830766
926  2023-10-25 16:17:00.862641
927  2023-10-25 16:17:00.894597
928  2023-10-25 16:17:00.926514
929  2023-10-25 16:17:00.958416
930  2023-10-25 16:17:01.006431
931  2023-10-25 16:17:01.038449
932  2023-10-25 16:17:01.070364
933  2023-10-25 16:17:01.103277
934  2023-10-25 16:17:01.135246
935  2023-10-25 16:17:01.167114
936  2023-10-25 16:17:01.199061
937  2023-10-25 16:17:01.231102
938  2023-10-25 16:17:01.263093
939  2023-10-25 16:17:01.295000
940  2023-10-25 16:17:01.327045
941  2023-10-25 16:17:01.358967
942  2023-10-25 16:17:01.406970
943  2023-10-25 16:17:01.438965
944  2023-10-25 16:17:01.470984
945  2023-10-25 16:17:01.503029
946  2023-10-25 16:17:01.534942
947  2023-10-25 16:17:01.566860
948  2023-10-25 16:17:01.598780
949  2023-10-25 16:17:01.630689
950  2023-10-25 16:17:01.662602
951  2023-10-25 16:17:01.694530
952  2023-10-25 16:17:01.726399
953  2023-10-25 16:17:01.759344
954  2023-10-25 16:17:01.807219
955  2023-10-25 16:17:01.839131
956  2023-10-25 16:17:01.871051
957  2023-10-25 16:17:01.902954
958  2023-10-25 16:17:01.934876
959  2023-10-25 16:17:01.966757
960  2023-10-25 16:17:01.998710
961  2023-10-25 16:17:02.030617
962  2023-10-25 16:17:02.062548
963  2023-10-25 16:17:02.094456
964  2023-10-25 16:17:02.126329
965  2023-10-25 16:17:02.159275
966  2023-10-25 16:17:02.207146
967  2023-10-25 16:17:02.239060
968  2023-10-25 16:17:02.271037
969  2023-10-25 16:17:02.302955
970  2023-10-25 16:17:02.334863
971  2023-10-25 16:17:02.366783
972  2023-10-25 16:17:02.398701
973  2023-10-25 16:17:02.430614
974  2023-10-25 16:17:02.462566
975  2023-10-25 16:17:02.494549
976  2023-10-25 16:17:02.526459
977  2023-10-25 16:17:02.558383
978  2023-10-25 16:17:02.607248
979  2023-10-25 16:17:02.639171
980  2023-10-25 16:17:02.671082
981  2023-10-25 16:17:02.703066
982  2023-10-25 16:17:02.734982
983  2023-10-25 16:17:02.766862
984  2023-10-25 16:17:02.798812
985  2023-10-25 16:17:02.830724
986  2023-10-25 16:17:02.862650
987  2023-10-25 16:17:02.894551
988  2023-10-25 16:17:02.926465
989  2023-10-25 16:17:02.959381
990  2023-10-25 16:17:03.007252
991  2023-10-25 16:17:03.039182
992  2023-10-25 16:17:03.071168
993  2023-10-25 16:17:03.103082
994  2023-10-25 16:17:03.134995
995  2023-10-25 16:17:03.167085
996  2023-10-25 16:17:03.199000
997  2023-10-25 16:17:03.230989
998  2023-10-25 16:17:03.262903
999  2023-10-25 16:17:03.294818
1000  2023-10-25 16:17:03.326994
1001  2023-10-25 16:17:03.358927
1002  2023-10-25 16:17:03.406937
1003  2023-10-25 16:17:03.438818
1004  2023-10-25 16:17:03.470772
1005  2023-10-25 16:17:03.502680
1006  2023-10-25 16:17:03.534685
1007  2023-10-25 16:17:03.566596
1008  2023-10-25 16:17:03.598471
1009  2023-10-25 16:17:03.630426
1010  2023-10-25 16:17:03.662336
1011  2023-10-25 16:17:03.695247
1012  2023-10-25 16:17:03.727160
1013  2023-10-25 16:17:03.775033
1014  2023-10-25 16:17:03.806948
1015  2023-10-25 16:17:03.838861
1016  2023-10-25 16:17:03.870783
1017  2023-10-25 16:17:03.902694
1018  2023-10-25 16:17:03.934607
1019  2023-10-25 16:17:03.966487
1020  2023-10-25 16:17:03.998438
1021  2023-10-25 16:17:04.030348
1022  2023-10-25 16:17:04.063229
1023  2023-10-25 16:17:04.095177
1024  2023-10-25 16:17:04.127082
1025  2023-10-25 16:17:04.174959
1026  2023-10-25 16:17:04.206877
1027  2023-10-25 16:17:04.238758
1028  2023-10-25 16:17:04.270712
1029  2023-10-25 16:17:04.302618
1030  2023-10-25 16:17:04.334533
1031  2023-10-25 16:17:04.366449
1032  2023-10-25 16:17:04.399329
1033  2023-10-25 16:17:04.431280
1034  2023-10-25 16:17:04.463183
1035  2023-10-25 16:17:04.495073
1036  2023-10-25 16:17:04.526987
1037  2023-10-25 16:17:04.574936
1038  2023-10-25 16:17:04.606845
1039  2023-10-25 16:17:04.638758
1040  2023-10-25 16:17:04.670729
1041  2023-10-25 16:17:04.702623
1042  2023-10-25 16:17:04.734540
1043  2023-10-25 16:17:04.767414
1044  2023-10-25 16:17:04.798331
1045  2023-10-25 16:17:04.831277
1046  2023-10-25 16:17:04.863207
1047  2023-10-25 16:17:04.895075
1048  2023-10-25 16:17:04.926987
1049  2023-10-25 16:17:04.974935
1050  2023-10-25 16:17:05.006824
1051  2023-10-25 16:17:05.038815
1052  2023-10-25 16:17:05.070941
1053  2023-10-25 16:17:05.102810
1054  2023-10-25 16:17:05.134778
1055  2023-10-25 16:17:05.166688
1056  2023-10-25 16:17:05.198597
1057  2023-10-25 16:17:05.230500
1058  2023-10-25 16:17:05.262427
1059  2023-10-25 16:17:05.294330
1060  2023-10-25 16:17:05.327242
1061  2023-10-25 16:17:05.375117
1062  2023-10-25 16:17:05.406999
1063  2023-10-25 16:17:05.438952
1064  2023-10-25 16:17:05.470864
1065  2023-10-25 16:17:05.502776
1066  2023-10-25 16:17:05.534688
1067  2023-10-25 16:17:05.566611
1068  2023-10-25 16:17:05.598484
1069  2023-10-25 16:17:05.630441
1070  2023-10-25 16:17:05.662352
1071  2023-10-25 16:17:05.695265
1072  2023-10-25 16:17:05.727140
1073  2023-10-25 16:17:05.775044
1074  2023-10-25 16:17:05.806971
1075  2023-10-25 16:17:05.838841
1076  2023-10-25 16:17:05.870830
1077  2023-10-25 16:17:05.902824
1078  2023-10-25 16:17:05.934730
1079  2023-10-25 16:17:05.966644
1080  2023-10-25 16:17:05.998564
1081  2023-10-25 16:17:06.030476
1082  2023-10-25 16:17:06.062358
1083  2023-10-25 16:17:06.095269
1084  2023-10-25 16:17:06.127183
1085  2023-10-25 16:17:06.175057
1086  2023-10-25 16:17:06.206972
1087  2023-10-25 16:17:06.238885
1088  2023-10-25 16:17:06.270804
1089  2023-10-25 16:17:06.302726
1090  2023-10-25 16:17:06.334685
1091  2023-10-25 16:17:06.366580
1092  2023-10-25 16:17:06.398490
1093  2023-10-25 16:17:06.430405
1094  2023-10-25 16:17:06.462320
1095  2023-10-25 16:17:06.495226
1096  2023-10-25 16:17:06.527114
1097  2023-10-25 16:17:06.575021
1098  2023-10-25 16:17:06.606926
1099  2023-10-25 16:17:06.638815
1100  2023-10-25 16:17:06.670770
1101  2023-10-25 16:17:06.702682
1102  2023-10-25 16:17:06.734625
1103  2023-10-25 16:17:06.766473
1104  2023-10-25 16:17:06.798388
1105  2023-10-25 16:17:06.831300
1106  2023-10-25 16:17:06.863215
1107  2023-10-25 16:17:06.895129
1108  2023-10-25 16:17:06.927044
1109  2023-10-25 16:17:06.974949
1110  2023-10-25 16:17:07.006863
1111  2023-10-25 16:17:07.038745
1112  2023-10-25 16:17:07.070694
1113  2023-10-25 16:17:07.102617
1114  2023-10-25 16:17:07.134524
1115  2023-10-25 16:17:07.166404
1116  2023-10-25 16:17:07.198318
1117  2023-10-25 16:17:07.231266
1118  2023-10-25 16:17:07.263145
1119  2023-10-25 16:17:07.295059
1120  2023-10-25 16:17:07.326974
1121  2023-10-25 16:17:07.374873
1122  2023-10-25 16:17:07.406769
1123  2023-10-25 16:17:07.438707
1124  2023-10-25 16:17:07.470622
1125  2023-10-25 16:17:07.502538
1126  2023-10-25 16:17:07.534468
1127  2023-10-25 16:17:07.566375
1128  2023-10-25 16:17:07.599246
1129  2023-10-25 16:17:07.631161
1130  2023-10-25 16:17:07.663114
1131  2023-10-25 16:17:07.695026
1132  2023-10-25 16:17:07.742898
1133  2023-10-25 16:17:07.774810
1134  2023-10-25 16:17:07.806691
1135  2023-10-25 16:17:07.838606
1136  2023-10-25 16:17:07.870556
1137  2023-10-25 16:17:07.902471
1138  2023-10-25 16:17:07.934381
1139  2023-10-25 16:17:07.967261
1140  2023-10-25 16:17:07.999181
1141  2023-10-25 16:17:08.031091
1142  2023-10-25 16:17:08.063005
1143  2023-10-25 16:17:08.094920
1144  2023-10-25 16:17:08.142825
1145  2023-10-25 16:17:08.174708
1146  2023-10-25 16:17:08.206659
1147  2023-10-25 16:17:08.238536
1148  2023-10-25 16:17:08.270450
1149  2023-10-25 16:17:08.302398
1150  2023-10-25 16:17:08.335277
1151  2023-10-25 16:17:08.367192
1152  2023-10-25 16:17:08.399106
1153  2023-10-25 16:17:08.431021
1154  2023-10-25 16:17:08.462936
1155  2023-10-25 16:17:08.494851
1156  2023-10-25 16:17:08.542755
1157  2023-10-25 16:17:08.574645
1158  2023-10-25 16:17:08.606554
1159  2023-10-25 16:17:08.638466
1160  2023-10-25 16:17:08.670381
1161  2023-10-25 16:17:08.702406
1162  2023-10-25 16:17:08.734507
1163  2023-10-25 16:17:08.766420
1164  2023-10-25 16:17:08.798335
1165  2023-10-25 16:17:08.831247
1166  2023-10-25 16:17:08.863164
1167  2023-10-25 16:17:08.895112
1168  2023-10-25 16:17:08.942990
1169  2023-10-25 16:17:08.974897
1170  2023-10-25 16:17:09.006827
1171  2023-10-25 16:17:09.038774
1172  2023-10-25 16:17:09.070688
1173  2023-10-25 16:17:09.102633
1174  2023-10-25 16:17:09.134518
1175  2023-10-25 16:17:09.166433
1176  2023-10-25 16:17:09.198384
1177  2023-10-25 16:17:09.230294
1178  2023-10-25 16:17:09.263174
1179  2023-10-25 16:17:09.295088
1180  2023-10-25 16:17:09.342998
1181  2023-10-25 16:17:09.374876
1182  2023-10-25 16:17:09.406790
1183  2023-10-25 16:17:09.438704
1184  2023-10-25 16:17:09.470619
1185  2023-10-25 16:17:09.502533
1186  2023-10-25 16:17:09.534485
1187  2023-10-25 16:17:09.566406
1188  2023-10-25 16:17:09.598277
1189  2023-10-25 16:17:09.631189
1190  2023-10-25 16:17:09.663184
1191  2023-10-25 16:17:09.695098
1192  2023-10-25 16:17:09.743023
1193  2023-10-25 16:17:09.774970
1194  2023-10-25 16:17:09.806942
1195  2023-10-25 16:17:09.838924
1196  2023-10-25 16:17:09.870870
1197  2023-10-25 16:17:09.902798
1198  2023-10-25 16:17:09.934669
1199  2023-10-25 16:17:09.966584
1200  2023-10-25 16:17:09.998497
1201  2023-10-25 16:17:10.030446
1202  2023-10-25 16:17:10.062326
1203  2023-10-25 16:17:10.095238
1204  2023-10-25 16:17:10.142285
1205  2023-10-25 16:17:10.175190
1206  2023-10-25 16:17:10.207108
1207  2023-10-25 16:17:10.238989
1208  2023-10-25 16:17:10.270903
1209  2023-10-25 16:17:10.302945
1210  2023-10-25 16:17:10.334800
1211  2023-10-25 16:17:10.366714
1212  2023-10-25 16:17:10.398628
1213  2023-10-25 16:17:10.430543
1214  2023-10-25 16:17:10.462458
1215  2023-10-25 16:17:10.494373
1216  2023-10-25 16:17:10.543276
1217  2023-10-25 16:17:10.575202
1218  2023-10-25 16:17:10.607109
1219  2023-10-25 16:17:10.638985
1220  2023-10-25 16:17:10.670900
1221  2023-10-25 16:17:10.702890
1222  2023-10-25 16:17:10.734841
1223  2023-10-25 16:17:10.766758
1224  2023-10-25 16:17:10.798670
1225  2023-10-25 16:17:10.830585
1226  2023-10-25 16:17:10.862499
1227  2023-10-25 16:17:10.894414
1228  2023-10-25 16:17:10.942319
1229  2023-10-25 16:17:10.975249
1230  2023-10-25 16:17:11.007114
1231  2023-10-25 16:17:11.039029
1232  2023-10-25 16:17:11.070942
1233  2023-10-25 16:17:11.102856
1234  2023-10-25 16:17:11.134771
1235  2023-10-25 16:17:11.166686
1236  2023-10-25 16:17:11.198600
1237  2023-10-25 16:17:11.230515
1238  2023-10-25 16:17:11.262429
1239  2023-10-25 16:17:11.311329
1240  2023-10-25 16:17:11.343251
1241  2023-10-25 16:17:11.375156
1242  2023-10-25 16:17:11.407069
1243  2023-10-25 16:17:11.438957
1244  2023-10-25 16:17:11.470872
1245  2023-10-25 16:17:11.502787
1246  2023-10-25 16:17:11.534701
1247  2023-10-25 16:17:11.567617
1248  2023-10-25 16:17:11.598530
1249  2023-10-25 16:17:11.630445
1250  2023-10-25 16:17:11.662360
1251  2023-10-25 16:17:11.711273
1252  2023-10-25 16:17:11.743179
1253  2023-10-25 16:17:11.775107
1254  2023-10-25 16:17:11.807007
1255  2023-10-25 16:17:11.838888
1256  2023-10-25 16:17:11.870802
1257  2023-10-25 16:17:11.902752
1258  2023-10-25 16:17:11.934631
1259  2023-10-25 16:17:11.966546
1260  2023-10-25 16:17:11.998461
1261  2023-10-25 16:17:12.030410
1262  2023-10-25 16:17:12.063325
1263  2023-10-25 16:17:12.111189
1264  2023-10-25 16:17:12.143107
1265  2023-10-25 16:17:12.175028
1266  2023-10-25 16:17:12.206937
1267  2023-10-25 16:17:12.238859
1268  2023-10-25 16:17:12.270732
1269  2023-10-25 16:17:12.302647
1270  2023-10-25 16:17:12.334562
1271  2023-10-25 16:17:12.366476
1272  2023-10-25 16:17:12.398391
1273  2023-10-25 16:17:12.430306
1274  2023-10-25 16:17:12.463217
1275  2023-10-25 16:17:12.511121
1276  2023-10-25 16:17:12.543048
1277  2023-10-25 16:17:12.574949
1278  2023-10-25 16:17:12.606870
1279  2023-10-25 16:17:12.638749
1280  2023-10-25 16:17:12.670663
1281  2023-10-25 16:17:12.702577
1282  2023-10-25 16:17:12.734492
1283  2023-10-25 16:17:12.766406
1284  2023-10-25 16:17:12.798321
1285  2023-10-25 16:17:12.831233
1286  2023-10-25 16:17:12.863148
1287  2023-10-25 16:17:12.911052
1288  2023-10-25 16:17:12.942966
1289  2023-10-25 16:17:12.974888
1290  2023-10-25 16:17:13.006808
1291  2023-10-25 16:17:13.038766
1292  2023-10-25 16:17:13.070681
1293  2023-10-25 16:17:13.103624
1294  2023-10-25 16:17:13.134510
1295  2023-10-25 16:17:13.166426
1296  2023-10-25 16:17:13.198339
1297  2023-10-25 16:17:13.231252
1298  2023-10-25 16:17:13.263166
1299  2023-10-25 16:17:13.311038
1300  2023-10-25 16:17:13.342989
1301  2023-10-25 16:17:13.374899
1302  2023-10-25 16:17:13.406818
1303  2023-10-25 16:17:13.438741
1304  2023-10-25 16:17:13.470611
1305  2023-10-25 16:17:13.502650
1306  2023-10-25 16:17:13.534564
1307  2023-10-25 16:17:13.566515
1308  2023-10-25 16:17:13.598393
1309  2023-10-25 16:17:13.631305
1310  2023-10-25 16:17:13.663280
1311  2023-10-25 16:17:13.711124
1312  2023-10-25 16:17:13.743042
1313  2023-10-25 16:17:13.774967
1314  2023-10-25 16:17:13.806869
1315  2023-10-25 16:17:13.838751
1316  2023-10-25 16:17:13.870700
1317  2023-10-25 16:17:13.902580
1318  2023-10-25 16:17:13.934494
1319  2023-10-25 16:17:13.966409
1320  2023-10-25 16:17:13.998324
1321  2023-10-25 16:17:14.031236
1322  2023-10-25 16:17:14.063150
1323  2023-10-25 16:17:14.111057
1324  2023-10-25 16:17:14.142970
1325  2023-10-25 16:17:14.174895
1326  2023-10-25 16:17:14.206796
1327  2023-10-25 16:17:14.238683
1328  2023-10-25 16:17:14.270735
1329  2023-10-25 16:17:14.302581
1330  2023-10-25 16:17:14.334495
1331  2023-10-25 16:17:14.366410
1332  2023-10-25 16:17:14.399322
1333  2023-10-25 16:17:14.431319
1334  2023-10-25 16:17:14.463234
1335  2023-10-25 16:17:14.511143
1336  2023-10-25 16:17:14.543051
1337  2023-10-25 16:17:14.574972
1338  2023-10-25 16:17:14.606850
1339  2023-10-25 16:17:14.638775
1340  2023-10-25 16:17:14.670818
1341  2023-10-25 16:17:14.702733
1342  2023-10-25 16:17:14.734647
1343  2023-10-25 16:17:14.767561
1344  2023-10-25 16:17:14.798790
1345  2023-10-25 16:17:14.830785
1346  2023-10-25 16:17:14.862746
1347  2023-10-25 16:17:14.910572
1348  2023-10-25 16:17:14.943484
1349  2023-10-25 16:17:14.974442
1350  2023-10-25 16:17:15.007378
1351  2023-10-25 16:17:15.038331
1352  2023-10-25 16:17:15.071282
1353  2023-10-25 16:17:15.103190
1354  2023-10-25 16:17:15.135072
1355  2023-10-25 16:17:15.167048
1356  2023-10-25 16:17:15.198998
1357  2023-10-25 16:17:15.230909
1358  2023-10-25 16:17:15.278667
1359  2023-10-25 16:17:15.323520
1360  2023-10-25 16:17:15.342467
1361  2023-10-25 16:17:15.374442
1362  2023-10-25 16:17:15.406357
1363  2023-10-25 16:17:15.439266
1364  2023-10-25 16:17:15.471180
1365  2023-10-25 16:17:15.503218
1366  2023-10-25 16:17:15.535159
1367  2023-10-25 16:17:15.567048
1368  2023-10-25 16:17:15.598962
1369  2023-10-25 16:17:15.630877
1370  2023-10-25 16:17:15.678807
1371  2023-10-25 16:17:15.710697
1372  2023-10-25 16:17:15.742579
1373  2023-10-25 16:17:15.774531
1374  2023-10-25 16:17:15.806410
1375  2023-10-25 16:17:15.838322
1376  2023-10-25 16:17:15.871234
1377  2023-10-25 16:17:15.903149
1378  2023-10-25 16:17:15.935063
1379  2023-10-25 16:17:15.966978
1380  2023-10-25 16:17:15.998892
1381  2023-10-25 16:17:16.030921
1382  2023-10-25 16:17:16.078843
1383  2023-10-25 16:17:16.110755
1384  2023-10-25 16:17:16.142775
1385  2023-10-25 16:17:16.174691
1386  2023-10-25 16:17:16.206556
1387  2023-10-25 16:17:16.238476
1388  2023-10-25 16:17:16.270384
1389  2023-10-25 16:17:16.303296
1390  2023-10-25 16:17:16.335210
1391  2023-10-25 16:17:16.367156
1392  2023-10-25 16:17:16.399071
1393  2023-10-25 16:17:16.430954
1394  2023-10-25 16:17:16.478884
1395  2023-10-25 16:17:16.510781
1396  2023-10-25 16:17:16.542657
1397  2023-10-25 16:17:16.574606
1398  2023-10-25 16:17:16.606517
1399  2023-10-25 16:17:16.638399
1400  2023-10-25 16:17:16.670314
1401  2023-10-25 16:17:16.702229
1402  2023-10-25 16:17:16.735141
1403  2023-10-25 16:17:16.767055
1404  2023-10-25 16:17:16.798970
1405  2023-10-25 16:17:16.830885
1406  2023-10-25 16:17:16.878790
1407  2023-10-25 16:17:16.910722
1408  2023-10-25 16:17:16.942635
1409  2023-10-25 16:17:16.974500
1410  2023-10-25 16:17:17.006417
1411  2023-10-25 16:17:17.038330
1412  2023-10-25 16:17:17.071242
1413  2023-10-25 16:17:17.103156
1414  2023-10-25 16:17:17.135071
1415  2023-10-25 16:17:17.166985
1416  2023-10-25 16:17:17.198900
1417  2023-10-25 16:17:17.230822
1418  2023-10-25 16:17:17.278735
1419  2023-10-25 16:17:17.310603
1420  2023-10-25 16:17:17.342545
1421  2023-10-25 16:17:17.374494
1422  2023-10-25 16:17:17.407345
1423  2023-10-25 16:17:17.439294
1424  2023-10-25 16:17:17.471172
1425  2023-10-25 16:17:17.503086
1426  2023-10-25 16:17:17.535035
1427  2023-10-25 16:17:17.566949
1428  2023-10-25 16:17:17.598830
1429  2023-10-25 16:17:17.630745
1430  2023-10-25 16:17:17.678656
1431  2023-10-25 16:17:17.710576
1432  2023-10-25 16:17:17.743447
1433  2023-10-25 16:17:17.775360
1434  2023-10-25 16:17:17.806277
1435  2023-10-25 16:17:17.839187
1436  2023-10-25 16:17:17.871102
1437  2023-10-25 16:17:17.903047
1438  2023-10-25 16:17:17.934931
1439  2023-10-25 16:17:17.966846
1440  2023-10-25 16:17:17.998761
1441  2023-10-25 16:17:18.030708
1442  2023-10-25 16:17:18.078583
1443  2023-10-25 16:17:18.110516
1444  2023-10-25 16:17:18.142379
1445  2023-10-25 16:17:18.174293
1446  2023-10-25 16:17:18.207234
1447  2023-10-25 16:17:18.239118
1448  2023-10-25 16:17:18.271032
1449  2023-10-25 16:17:18.302947
1450  2023-10-25 16:17:18.334861
1451  2023-10-25 16:17:18.366776
1452  2023-10-25 16:17:18.398691
1453  2023-10-25 16:17:18.430605
1454  2023-10-25 16:17:18.478516
1455  2023-10-25 16:17:18.510426
1456  2023-10-25 16:17:18.542338
1457  2023-10-25 16:17:18.575258
1458  2023-10-25 16:17:18.607135
1459  2023-10-25 16:17:18.639048
1460  2023-10-25 16:17:18.670966
1461  2023-10-25 16:17:18.702877
1462  2023-10-25 16:17:18.734898
1463  2023-10-25 16:17:18.766813
1464  2023-10-25 16:17:18.798727
1465  2023-10-25 16:17:18.846645
1466  2023-10-25 16:17:18.878549
1467  2023-10-25 16:17:18.910430
1468  2023-10-25 16:17:18.943341
1469  2023-10-25 16:17:18.975295
1470  2023-10-25 16:17:19.007202
1471  2023-10-25 16:17:19.039084
1472  2023-10-25 16:17:19.071009
1473  2023-10-25 16:17:19.102960
1474  2023-10-25 16:17:19.134876
1475  2023-10-25 16:17:19.166825
1476  2023-10-25 16:17:19.198773
1477  2023-10-25 16:17:19.246657
1478  2023-10-25 16:17:19.278535
1479  2023-10-25 16:17:19.310473
1480  2023-10-25 16:17:19.342389
1481  2023-10-25 16:17:19.374272
1482  2023-10-25 16:17:19.407214
1483  2023-10-25 16:17:19.439096
1484  2023-10-25 16:17:19.471011
1485  2023-10-25 16:17:19.502926
1486  2023-10-25 16:17:19.534963
1487  2023-10-25 16:17:19.566877
1488  2023-10-25 16:17:19.598792
1489  2023-10-25 16:17:19.646712
1490  2023-10-25 16:17:19.678613
1491  2023-10-25 16:17:19.710494
1492  2023-10-25 16:17:19.742457
1493  2023-10-25 16:17:19.774414
1494  2023-10-25 16:17:19.806323
1495  2023-10-25 16:17:19.839233
1496  2023-10-25 16:17:19.871148
1497  2023-10-25 16:17:19.903145
1498  2023-10-25 16:17:19.935060
1499  2023-10-25 16:17:19.966975
1500  2023-10-25 16:17:19.998889
1501  2023-10-25 16:17:20.046802
1502  2023-10-25 16:17:20.078725
1503  2023-10-25 16:17:20.110627
1504  2023-10-25 16:17:20.142508
1505  2023-10-25 16:17:20.174421
1506  2023-10-25 16:17:20.207359
1507  2023-10-25 16:17:20.239247
1508  2023-10-25 16:17:20.271161
1509  2023-10-25 16:17:20.303076
1510  2023-10-25 16:17:20.334991
1511  2023-10-25 16:17:20.366905
1512  2023-10-25 16:17:20.398820
1513  2023-10-25 16:17:20.446693
1514  2023-10-25 16:17:20.478610
1515  2023-10-25 16:17:20.510566
1516  2023-10-25 16:17:20.542438
1517  2023-10-25 16:17:20.574384
1518  2023-10-25 16:17:20.607262
1519  2023-10-25 16:17:20.639178
1520  2023-10-25 16:17:20.671093
1521  2023-10-25 16:17:20.703007
1522  2023-10-25 16:17:20.734923
1523  2023-10-25 16:17:20.766837
1524  2023-10-25 16:17:20.798758
1525  2023-10-25 16:17:20.846658
1526  2023-10-25 16:17:20.878570
1527  2023-10-25 16:17:20.910453
1528  2023-10-25 16:17:20.942368
1529  2023-10-25 16:17:20.975314
1530  2023-10-25 16:17:21.007284
1531  2023-10-25 16:17:21.039245
1532  2023-10-25 16:17:21.071274
1533  2023-10-25 16:17:21.103143
1534  2023-10-25 16:17:21.135058
1535  2023-10-25 16:17:21.167052
1536  2023-10-25 16:17:21.199010
1537  2023-10-25 16:17:21.246993
1538  2023-10-25 16:17:21.278903
1539  2023-10-25 16:17:21.310819
1540  2023-10-25 16:17:21.342745
1541  2023-10-25 16:17:21.374654
1542  2023-10-25 16:17:21.406563
1543  2023-10-25 16:17:21.438447
1544  2023-10-25 16:17:21.470362
1545  2023-10-25 16:17:21.503274
1546  2023-10-25 16:17:21.535189
1547  2023-10-25 16:17:21.567103
1548  2023-10-25 16:17:21.599018
1549  2023-10-25 16:17:21.647061
1550  2023-10-25 16:17:21.678975
1551  2023-10-25 16:17:21.710855
1552  2023-10-25 16:17:21.742769
1553  2023-10-25 16:17:21.774735
1554  2023-10-25 16:17:21.806641
1555  2023-10-25 16:17:21.838512
1556  2023-10-25 16:17:21.870427
1557  2023-10-25 16:17:21.902342
1558  2023-10-25 16:17:21.935254
1559  2023-10-25 16:17:21.967168
1560  2023-10-25 16:17:21.999083
1561  2023-10-25 16:17:22.047005
1562  2023-10-25 16:17:22.078901
1563  2023-10-25 16:17:22.110817
1564  2023-10-25 16:17:22.143698
1565  2023-10-25 16:17:22.174801
1566  2023-10-25 16:17:22.206668
1567  2023-10-25 16:17:22.238581
1568  2023-10-25 16:17:22.271493
1569  2023-10-25 16:17:22.302411
1570  2023-10-25 16:17:22.335323
1571  2023-10-25 16:17:22.367237
1572  2023-10-25 16:17:22.399152
1573  2023-10-25 16:17:22.447148
1574  2023-10-25 16:17:22.479098
1575  2023-10-25 16:17:22.511017
1576  2023-10-25 16:17:22.542891
1577  2023-10-25 16:17:22.574831
1578  2023-10-25 16:17:22.606721
1579  2023-10-25 16:17:22.638635
1580  2023-10-25 16:17:22.670549
1581  2023-10-25 16:17:22.702464
1582  2023-10-25 16:17:22.734425
1583  2023-10-25 16:17:22.767291
1584  2023-10-25 16:17:22.815194
1585  2023-10-25 16:17:22.847110
1586  2023-10-25 16:17:22.879023
1587  2023-10-25 16:17:22.910908
1588  2023-10-25 16:17:22.942831
1589  2023-10-25 16:17:22.974775
1590  2023-10-25 16:17:23.006652
1591  2023-10-25 16:17:23.038565
1592  2023-10-25 16:17:23.070480
1593  2023-10-25 16:17:23.102394
1594  2023-10-25 16:17:23.135306
1595  2023-10-25 16:17:23.167221
1596  2023-10-25 16:17:23.215172
1597  2023-10-25 16:17:23.247171
1598  2023-10-25 16:17:23.279123
1599  2023-10-25 16:17:23.311126
1600  2023-10-25 16:17:23.343005
1601  2023-10-25 16:17:23.374920
1602  2023-10-25 16:17:23.406836
1603  2023-10-25 16:17:23.438748
1604  2023-10-25 16:17:23.470663
1605  2023-10-25 16:17:23.502578
1606  2023-10-25 16:17:23.534492
1607  2023-10-25 16:17:23.566407
1608  2023-10-25 16:17:23.615401
1609  2023-10-25 16:17:23.646292
1610  2023-10-25 16:17:23.679295
1611  2023-10-25 16:17:23.711201
1612  2023-10-25 16:17:23.743110
1613  2023-10-25 16:17:23.775029
1614  2023-10-25 16:17:23.806914
1615  2023-10-25 16:17:23.838827
1616  2023-10-25 16:17:23.870751
1617  2023-10-25 16:17:23.902656
1618  2023-10-25 16:17:23.935138
1619  2023-10-25 16:17:23.967105
1620  2023-10-25 16:17:24.014978
1621  2023-10-25 16:17:24.046892
1622  2023-10-25 16:17:24.078807
1623  2023-10-25 16:17:24.110722
1624  2023-10-25 16:17:24.142635
1625  2023-10-25 16:17:24.174591
1626  2023-10-25 16:17:24.206466
1627  2023-10-25 16:17:24.238425
1628  2023-10-25 16:17:24.270341
1629  2023-10-25 16:17:24.303206
1630  2023-10-25 16:17:24.335120
1631  2023-10-25 16:17:24.367068
1632  2023-10-25 16:17:24.415025
1633  2023-10-25 16:17:24.446919
1634  2023-10-25 16:17:24.478852
1635  2023-10-25 16:17:24.510741
1636  2023-10-25 16:17:24.542687
1637  2023-10-25 16:17:24.574616
1638  2023-10-25 16:17:24.607483
1639  2023-10-25 16:17:24.638398
1640  2023-10-25 16:17:24.670313
1641  2023-10-25 16:17:24.702255
1642  2023-10-25 16:17:24.735173
1643  2023-10-25 16:17:24.767093
1644  2023-10-25 16:17:24.815034
1645  2023-10-25 16:17:24.846948
1646  2023-10-25 16:17:24.878937
1647  2023-10-25 16:17:24.910865
1648  2023-10-25 16:17:24.942736
1649  2023-10-25 16:17:24.974698
1650  2023-10-25 16:17:25.006600
1651  2023-10-25 16:17:25.038479
1652  2023-10-25 16:17:25.070436
1653  2023-10-25 16:17:25.103313
1654  2023-10-25 16:17:25.135221
1655  2023-10-25 16:17:25.167135
1656  2023-10-25 16:17:25.215078
1657  2023-10-25 16:17:25.247091
1658  2023-10-25 16:17:25.278990
1659  2023-10-25 16:17:25.311077
1660  2023-10-25 16:17:25.343019
1661  2023-10-25 16:17:25.374934
1662  2023-10-25 16:17:25.406851
1663  2023-10-25 16:17:25.438730
1664  2023-10-25 16:17:25.470645
1665  2023-10-25 16:17:25.502560
1666  2023-10-25 16:17:25.534546
1667  2023-10-25 16:17:25.566452
1668  2023-10-25 16:17:25.614416
1669  2023-10-25 16:17:25.646298
1670  2023-10-25 16:17:25.679218
1671  2023-10-25 16:17:25.711165
1672  2023-10-25 16:17:25.743070
1673  2023-10-25 16:17:25.774953
1674  2023-10-25 16:17:25.806909
1675  2023-10-25 16:17:25.838906
1676  2023-10-25 16:17:25.870954
1677  2023-10-25 16:17:25.902869
1678  2023-10-25 16:17:25.934784
1679  2023-10-25 16:17:25.966698
1680  2023-10-25 16:17:26.014571
1681  2023-10-25 16:17:26.046634
1682  2023-10-25 16:17:26.078537
1683  2023-10-25 16:17:26.111438
1684  2023-10-25 16:17:26.143326
1685  2023-10-25 16:17:26.174273
1686  2023-10-25 16:17:26.207202
1687  2023-10-25 16:17:26.239070
1688  2023-10-25 16:17:26.271076
1689  2023-10-25 16:17:26.303048
1690  2023-10-25 16:17:26.334963
1691  2023-10-25 16:17:26.382836
1692  2023-10-25 16:17:26.414780
1693  2023-10-25 16:17:26.446702
1694  2023-10-25 16:17:26.478623
1695  2023-10-25 16:17:26.510493
1696  2023-10-25 16:17:26.542441
1697  2023-10-25 16:17:26.575321
1698  2023-10-25 16:17:26.607270
1699  2023-10-25 16:17:26.639149
1700  2023-10-25 16:17:26.671064
1701  2023-10-25 16:17:26.703012
1702  2023-10-25 16:17:26.734893
1703  2023-10-25 16:17:26.782815
1704  2023-10-25 16:17:26.814732
1705  2023-10-25 16:17:26.846638
1706  2023-10-25 16:17:26.878543
1707  2023-10-25 16:17:26.910479
1708  2023-10-25 16:17:26.942387
1709  2023-10-25 16:17:26.975307
1710  2023-10-25 16:17:27.007196
1711  2023-10-25 16:17:27.039079
1712  2023-10-25 16:17:27.070994
1713  2023-10-25 16:17:27.102909
1714  2023-10-25 16:17:27.134823
1715  2023-10-25 16:17:27.182697
1716  2023-10-25 16:17:27.214648
1717  2023-10-25 16:17:27.246559
1718  2023-10-25 16:17:27.278442
1719  2023-10-25 16:17:27.310398
1720  2023-10-25 16:17:27.343303
1721  2023-10-25 16:17:27.375219
1722  2023-10-25 16:17:27.407132
1723  2023-10-25 16:17:27.439058
1724  2023-10-25 16:17:27.470924
1725  2023-10-25 16:17:27.502839
1726  2023-10-25 16:17:27.535799
1727  2023-10-25 16:17:27.582673
1728  2023-10-25 16:17:27.615538
1729  2023-10-25 16:17:27.646689
1730  2023-10-25 16:17:27.679631
1731  2023-10-25 16:17:27.710542
1732  2023-10-25 16:17:27.743419
1733  2023-10-25 16:17:27.774373
1734  2023-10-25 16:17:27.808303
1735  2023-10-25 16:17:27.839163
1736  2023-10-25 16:17:27.872113
1737  2023-10-25 16:17:27.903036
1738  2023-10-25 16:17:27.935949
1739  2023-10-25 16:17:27.982820
1740  2023-10-25 16:17:28.014692
1741  2023-10-25 16:17:28.047650
1742  2023-10-25 16:17:28.079566
1743  2023-10-25 16:17:28.111434
1744  2023-10-25 16:17:28.143380
1745  2023-10-25 16:17:28.175314
1746  2023-10-25 16:17:28.207211
1747  2023-10-25 16:17:28.239091
1748  2023-10-25 16:17:28.272003
1749  2023-10-25 16:17:28.303060
1750  2023-10-25 16:17:28.335047
1751  2023-10-25 16:17:28.383950
1752  2023-10-25 16:17:28.415020
1753  2023-10-25 16:17:28.446911
1754  2023-10-25 16:17:28.479804
1755  2023-10-25 16:17:28.511721
1756  2023-10-25 16:17:28.543643
1757  2023-10-25 16:17:28.575547
1758  2023-10-25 16:17:28.607479
1759  2023-10-25 16:17:28.639378
1760  2023-10-25 16:17:28.671260
1761  2023-10-25 16:17:28.703175
1762  2023-10-25 16:17:28.736121
1763  2023-10-25 16:17:28.784004
1764  2023-10-25 16:17:28.815872
1765  2023-10-25 16:17:28.847839
1766  2023-10-25 16:17:28.879869
1767  2023-10-25 16:17:28.911776
1768  2023-10-25 16:17:28.943692
1769  2023-10-25 16:17:28.975612
1770  2023-10-25 16:17:29.007527
1771  2023-10-25 16:17:29.039441
1772  2023-10-25 16:17:29.071308
1773  2023-10-25 16:17:29.104267
1774  2023-10-25 16:17:29.135168
1775  2023-10-25 16:17:29.183010
1776  2023-10-25 16:17:29.214955
1777  2023-10-25 16:17:29.246838
1778  2023-10-25 16:17:29.279797
1779  2023-10-25 16:17:29.311719
1780  2023-10-25 16:17:29.343612
1781  2023-10-25 16:17:29.375527
1782  2023-10-25 16:17:29.407441
1783  2023-10-25 16:17:29.439517
1784  2023-10-25 16:17:29.471439
1785  2023-10-25 16:17:29.503337
1786  2023-10-25 16:17:29.535262
1787  2023-10-25 16:17:29.583484
1788  2023-10-25 16:17:29.615390
1789  2023-10-25 16:17:29.647297
1790  2023-10-25 16:17:29.679184
1791  2023-10-25 16:17:29.711101
1792  2023-10-25 16:17:29.743014
1793  2023-10-25 16:17:29.774928
1794  2023-10-25 16:17:29.806843
1795  2023-10-25 16:17:29.838801
1796  2023-10-25 16:17:29.870680
1797  2023-10-25 16:17:29.902587
1798  2023-10-25 16:17:29.934500
1799  2023-10-25 16:17:29.983418
1800  2023-10-25 16:17:30.015318
1801  2023-10-25 16:17:30.047201
1802  2023-10-25 16:17:30.079145
1803  2023-10-25 16:17:30.111063
1804  2023-10-25 16:17:30.144016
1805  2023-10-25 16:17:30.174967
1806  2023-10-25 16:17:30.206932
1807  2023-10-25 16:17:30.238869
1808  2023-10-25 16:17:30.270800
1809  2023-10-25 16:17:30.302707
1810  2023-10-25 16:17:30.351546
1811  2023-10-25 16:17:30.383490
1812  2023-10-25 16:17:30.415406
1813  2023-10-25 16:17:30.447287
1814  2023-10-25 16:17:30.479256
1815  2023-10-25 16:17:30.511153
1816  2023-10-25 16:17:30.543080
1817  2023-10-25 16:17:30.574972
1818  2023-10-25 16:17:30.606863
1819  2023-10-25 16:17:30.638806
1820  2023-10-25 16:17:30.670724
1821  2023-10-25 16:17:30.702717
1822  2023-10-25 16:17:30.750598
1823  2023-10-25 16:17:30.783470
1824  2023-10-25 16:17:30.815439
1825  2023-10-25 16:17:30.847341
1826  2023-10-25 16:17:30.879261
1827  2023-10-25 16:17:30.911179
1828  2023-10-25 16:17:30.943073
1829  2023-10-25 16:17:30.974991
1830  2023-10-25 16:17:31.006887
1831  2023-10-25 16:17:31.038821
1832  2023-10-25 16:17:31.070736
1833  2023-10-25 16:17:31.102692
1834  2023-10-25 16:17:31.150641
1835  2023-10-25 16:17:31.182552
1836  2023-10-25 16:17:31.215463
1837  2023-10-25 16:17:31.246417
1838  2023-10-25 16:17:31.279348
1839  2023-10-25 16:17:31.311283
1840  2023-10-25 16:17:31.343174
1841  2023-10-25 16:17:31.375082
1842  2023-10-25 16:17:31.406952
1843  2023-10-25 16:17:31.439913
1844  2023-10-25 16:17:31.470805
1845  2023-10-25 16:17:31.502730
1846  2023-10-25 16:17:31.551602
1847  2023-10-25 16:17:31.583518
1848  2023-10-25 16:17:31.615394
1849  2023-10-25 16:17:31.647308
1850  2023-10-25 16:17:31.679280
1851  2023-10-25 16:17:31.711188
1852  2023-10-25 16:17:31.743184
1853  2023-10-25 16:17:31.776136
1854  2023-10-25 16:17:31.808056
1855  2023-10-25 16:17:31.838926
1856  2023-10-25 16:17:31.870874
1857  2023-10-25 16:17:31.902788
1858  2023-10-25 16:17:31.951663
1859  2023-10-25 16:17:31.983541
1860  2023-10-25 16:17:32.015481
1861  2023-10-25 16:17:32.047371
1862  2023-10-25 16:17:32.080341
1863  2023-10-25 16:17:32.111367
1864  2023-10-25 16:17:32.143252
1865  2023-10-25 16:17:32.176200
1866  2023-10-25 16:17:32.208113
1867  2023-10-25 16:17:32.239026
1868  2023-10-25 16:17:32.270958
1869  2023-10-25 16:17:32.302900
1870  2023-10-25 16:17:32.350839
1871  2023-10-25 16:17:32.383253
1872  2023-10-25 16:17:32.416165
1873  2023-10-25 16:17:32.447081
1874  2023-10-25 16:17:32.480137
1875  2023-10-25 16:17:32.511002
1876  2023-10-25 16:17:32.542948
1877  2023-10-25 16:17:32.575870
1878  2023-10-25 16:17:32.607774
1879  2023-10-25 16:17:32.638661
1880  2023-10-25 16:17:32.670610
1881  2023-10-25 16:17:32.702523
1882  2023-10-25 16:17:32.751400
1883  2023-10-25 16:17:32.783309
1884  2023-10-25 16:17:32.815385
1885  2023-10-25 16:17:32.847301
1886  2023-10-25 16:17:32.879319
1887  2023-10-25 16:17:32.911232
1888  2023-10-25 16:17:32.943174
1889  2023-10-25 16:17:32.975087
1890  2023-10-25 16:17:33.008005
1891  2023-10-25 16:17:33.039664
1892  2023-10-25 16:17:33.070840
1893  2023-10-25 16:17:33.102809
1894  2023-10-25 16:17:33.151720
1895  2023-10-25 16:17:33.182628
1896  2023-10-25 16:17:33.215651
1897  2023-10-25 16:17:33.247674
1898  2023-10-25 16:17:33.279540
1899  2023-10-25 16:17:33.311489
1900  2023-10-25 16:17:33.342381
1901  2023-10-25 16:17:33.375285
1902  2023-10-25 16:17:33.408247
1903  2023-10-25 16:17:33.440178
1904  2023-10-25 16:17:33.471227
1905  2023-10-25 16:17:33.503130
1906  2023-10-25 16:17:33.551014
1907  2023-10-25 16:17:33.582920
1908  2023-10-25 16:17:33.615843
1909  2023-10-25 16:17:33.647747
1910  2023-10-25 16:17:33.679672
1911  2023-10-25 16:17:33.710582
1912  2023-10-25 16:17:33.742506
1913  2023-10-25 16:17:33.775581
1914  2023-10-25 16:17:33.807501
1915  2023-10-25 16:17:33.838367
1916  2023-10-25 16:17:33.870317
1917  2023-10-25 16:17:33.903225
1918  2023-10-25 16:17:33.951096
1919  2023-10-25 16:17:33.982995
1920  2023-10-25 16:17:34.015927
1921  2023-10-25 16:17:34.046811
1922  2023-10-25 16:17:34.079771
1923  2023-10-25 16:17:34.110674
1924  2023-10-25 16:17:34.142586
1925  2023-10-25 16:17:34.175514
1926  2023-10-25 16:17:34.207421
1927  2023-10-25 16:17:34.239337
1928  2023-10-25 16:17:34.271209
1929  2023-10-25 16:17:34.319242
1930  2023-10-25 16:17:34.351122
1931  2023-10-25 16:17:34.383036
1932  2023-10-25 16:17:34.414987
1933  2023-10-25 16:17:34.446865
1934  2023-10-25 16:17:34.479813
1935  2023-10-25 16:17:34.510730
1936  2023-10-25 16:17:34.542645
1937  2023-10-25 16:17:34.575577
1938  2023-10-25 16:17:34.606441
1939  2023-10-25 16:17:34.639351
1940  2023-10-25 16:17:34.670267
1941  2023-10-25 16:17:34.719775
1942  2023-10-25 16:17:34.750796
1943  2023-10-25 16:17:34.782691
1944  2023-10-25 16:17:34.815613
1945  2023-10-25 16:17:34.847677
1946  2023-10-25 16:17:34.879697
1947  2023-10-25 16:17:34.910598
1948  2023-10-25 16:17:34.942483
1949  2023-10-25 16:17:34.974441
1950  2023-10-25 16:17:35.007358
1951  2023-10-25 16:17:35.039275
1952  2023-10-25 16:17:35.071215
1953  2023-10-25 16:17:35.119128
1954  2023-10-25 16:17:35.151264
1955  2023-10-25 16:17:35.183316
1956  2023-10-25 16:17:35.215226
1957  2023-10-25 16:17:35.247138
1958  2023-10-25 16:17:35.279056
1959  2023-10-25 16:17:35.310965
1960  2023-10-25 16:17:35.342850
1961  2023-10-25 16:17:35.374825
1962  2023-10-25 16:17:35.406712
1963  2023-10-25 16:17:35.439653
1964  2023-10-25 16:17:35.470550
1965  2023-10-25 16:17:35.518411
1966  2023-10-25 16:17:35.551386
1967  2023-10-25 16:17:35.583315
1968  2023-10-25 16:17:35.615358
1969  2023-10-25 16:17:35.647237
1970  2023-10-25 16:17:35.679270
1971  2023-10-25 16:17:35.711317
1972  2023-10-25 16:17:35.743222
1973  2023-10-25 16:17:35.775176
1974  2023-10-25 16:17:35.807205
1975  2023-10-25 16:17:35.839233
1976  2023-10-25 16:17:35.870998
1977  2023-10-25 16:17:35.918875
1978  2023-10-25 16:17:35.951833
1979  2023-10-25 16:17:35.982785
1980  2023-10-25 16:17:36.014665
1981  2023-10-25 16:17:36.047624
1982  2023-10-25 16:17:36.079498
1983  2023-10-25 16:17:36.110407
1984  2023-10-25 16:17:36.142353
1985  2023-10-25 16:17:36.175233
1986  2023-10-25 16:17:36.207182
1987  2023-10-25 16:17:36.239091
1988  2023-10-25 16:17:36.271128
1989  2023-10-25 16:17:36.319005
1990  2023-10-25 16:17:36.350911
1991  2023-10-25 16:17:36.382798
1992  2023-10-25 16:17:36.414752
1993  2023-10-25 16:17:36.446748
1994  2023-10-25 16:17:36.478827
1995  2023-10-25 16:17:36.511498
1996  2023-10-25 16:17:36.543361
1997  2023-10-25 16:17:36.575276
1998  2023-10-25 16:17:36.607191
1999  2023-10-25 16:17:36.639106
2000  2023-10-25 16:17:36.671049
2001  2023-10-25 16:17:36.718890
2002  2023-10-25 16:17:36.750811
2003  2023-10-25 16:17:36.782753
2004  2023-10-25 16:17:36.814667
2005  2023-10-25 16:17:36.847583
2006  2023-10-25 16:17:36.879507
2007  2023-10-25 16:17:36.911376
2008  2023-10-25 16:17:36.943490
2009  2023-10-25 16:17:36.975478
2010  2023-10-25 16:17:37.007385
2011  2023-10-25 16:17:37.039335
2012  2023-10-25 16:17:37.071268
2013  2023-10-25 16:17:37.119084
2014  2023-10-25 16:17:37.151037
2015  2023-10-25 16:17:37.183046
2016  2023-10-25 16:17:37.215184
2017  2023-10-25 16:17:37.247065
2018  2023-10-25 16:17:37.279018
2019  2023-10-25 16:17:37.310934
2020  2023-10-25 16:17:37.342810
2021  2023-10-25 16:17:37.374844
2022  2023-10-25 16:17:37.406757
2023  2023-10-25 16:17:37.438673
2024  2023-10-25 16:17:37.470638
2025  2023-10-25 16:17:37.518509
2026  2023-10-25 16:17:37.551552
2027  2023-10-25 16:17:37.583464
2028  2023-10-25 16:17:37.615343
2029  2023-10-25 16:17:37.647294
2030  2023-10-25 16:17:37.679301
2031  2023-10-25 16:17:37.711218
2032  2023-10-25 16:17:37.743127
2033  2023-10-25 16:17:37.775042
2034  2023-10-25 16:17:37.806955
2035  2023-10-25 16:17:37.838872
2036  2023-10-25 16:17:37.886829
2037  2023-10-25 16:17:37.918896
2038  2023-10-25 16:17:37.950809
2039  2023-10-25 16:17:37.982724
2040  2023-10-25 16:17:38.014679
2041  2023-10-25 16:17:38.046586
2042  2023-10-25 16:17:38.078530
2043  2023-10-25 16:17:38.110524
2044  2023-10-25 16:17:38.142492
2045  2023-10-25 16:17:38.175382
2046  2023-10-25 16:17:38.207301
2047  2023-10-25 16:17:38.239180
2048  2023-10-25 16:17:38.287085
2049  2023-10-25 16:17:38.318965
2050  2023-10-25 16:17:38.350880
2051  2023-10-25 16:17:38.382795
2052  2023-10-25 16:17:38.414757
2053  2023-10-25 16:17:38.446655
2054  2023-10-25 16:17:38.478570
2055  2023-10-25 16:17:38.510488
2056  2023-10-25 16:17:38.543365
2057  2023-10-25 16:17:38.575309
2058  2023-10-25 16:17:38.607234
2059  2023-10-25 16:17:38.639143
2060  2023-10-25 16:17:38.687014
2061  2023-10-25 16:17:38.718946
2062  2023-10-25 16:17:38.750842
2063  2023-10-25 16:17:38.782726
2064  2023-10-25 16:17:38.814832
2065  2023-10-25 16:17:38.846811
2066  2023-10-25 16:17:38.878742
2067  2023-10-25 16:17:38.910653
2068  2023-10-25 16:17:38.942571
2069  2023-10-25 16:17:38.974479
2070  2023-10-25 16:17:39.007383
2071  2023-10-25 16:17:39.039303
2072  2023-10-25 16:17:39.087194
2073  2023-10-25 16:17:39.119085
2074  2023-10-25 16:17:39.150994
2075  2023-10-25 16:17:39.182889
2076  2023-10-25 16:17:39.214833
2077  2023-10-25 16:17:39.246712
2078  2023-10-25 16:17:39.278626
2079  2023-10-25 16:17:39.310540
2080  2023-10-25 16:17:39.342488
2081  2023-10-25 16:17:39.374402
2082  2023-10-25 16:17:39.407338
2083  2023-10-25 16:17:39.439315
2084  2023-10-25 16:17:39.487220
2085  2023-10-25 16:17:39.519212
2086  2023-10-25 16:17:39.551127
2087  2023-10-25 16:17:39.583040
2088  2023-10-25 16:17:39.614966
2089  2023-10-25 16:17:39.646898
2090  2023-10-25 16:17:39.678815
2091  2023-10-25 16:17:39.710735
2092  2023-10-25 16:17:39.742614
2093  2023-10-25 16:17:39.774561
2094  2023-10-25 16:17:39.807440
2095  2023-10-25 16:17:39.839360
2096  2023-10-25 16:17:39.887227
2097  2023-10-25 16:17:39.919203
2098  2023-10-25 16:17:39.951056
2099  2023-10-25 16:17:39.983993
2100  2023-10-25 16:17:40.014917
2101  2023-10-25 16:17:40.046832
2102  2023-10-25 16:17:40.078754
2103  2023-10-25 16:17:40.110676
2104  2023-10-25 16:17:40.142576
2105  2023-10-25 16:17:40.174459
2106  2023-10-25 16:17:40.207441
2107  2023-10-25 16:17:40.239435
2108  2023-10-25 16:17:40.287304
2109  2023-10-25 16:17:40.319187
2110  2023-10-25 16:17:40.351101
2111  2023-10-25 16:17:40.383054
2112  2023-10-25 16:17:40.414988
2113  2023-10-25 16:17:40.446851
2114  2023-10-25 16:17:40.478761
2115  2023-10-25 16:17:40.510724
2116  2023-10-25 16:17:40.542633
2117  2023-10-25 16:17:40.574560
2118  2023-10-25 16:17:40.606490
2119  2023-10-25 16:17:40.639362
2120  2023-10-25 16:17:40.687258
2121  2023-10-25 16:17:40.719094
2122  2023-10-25 16:17:40.751009
2123  2023-10-25 16:17:40.782891
2124  2023-10-25 16:17:40.814840
2125  2023-10-25 16:17:40.846752
2126  2023-10-25 16:17:40.879660
2127  2023-10-25 16:17:40.911547
2128  2023-10-25 16:17:40.942497
2129  2023-10-25 16:17:40.974411
2130  2023-10-25 16:17:41.007341
2131  2023-10-25 16:17:41.039240
2132  2023-10-25 16:17:41.087079
2133  2023-10-25 16:17:41.119096
2134  2023-10-25 16:17:41.151050
2135  2023-10-25 16:17:41.182926
2136  2023-10-25 16:17:41.214840
2137  2023-10-25 16:17:41.246789
2138  2023-10-25 16:17:41.278703
2139  2023-10-25 16:17:41.311611
2140  2023-10-25 16:17:41.343500
2141  2023-10-25 16:17:41.374456
2142  2023-10-25 16:17:41.407376
2143  2023-10-25 16:17:41.439276
2144  2023-10-25 16:17:41.487113
2145  2023-10-25 16:17:41.519055
2146  2023-10-25 16:17:41.550987
2147  2023-10-25 16:17:41.582856
2148  2023-10-25 16:17:41.614771
2149  2023-10-25 16:17:41.646721
2150  2023-10-25 16:17:41.678631
2151  2023-10-25 16:17:41.711512
2152  2023-10-25 16:17:41.743470
2153  2023-10-25 16:17:41.775378
2154  2023-10-25 16:17:41.807257
2155  2023-10-25 16:17:41.855126
2156  2023-10-25 16:17:41.887043
2157  2023-10-25 16:17:41.918957
2158  2023-10-25 16:17:41.950904
2159  2023-10-25 16:17:41.982786
2160  2023-10-25 16:17:42.014733
2161  2023-10-25 16:17:42.046661
2162  2023-10-25 16:17:42.079473
2163  2023-10-25 16:17:42.110534
2164  2023-10-25 16:17:42.142554
2165  2023-10-25 16:17:42.174591
2166  2023-10-25 16:17:42.207106
2167  2023-10-25 16:17:42.255003
2168  2023-10-25 16:17:42.286920
2169  2023-10-25 16:17:42.318868
2170  2023-10-25 16:17:42.350762
2171  2023-10-25 16:17:42.382691
2172  2023-10-25 16:17:42.414623
2173  2023-10-25 16:17:42.446520
2174  2023-10-25 16:17:42.478447
2175  2023-10-25 16:17:42.510380
2176  2023-10-25 16:17:42.543282
2177  2023-10-25 16:17:42.575182
2178  2023-10-25 16:17:42.607092
2179  2023-10-25 16:17:42.654966
2180  2023-10-25 16:17:42.686880
2181  2023-10-25 16:17:42.718765
2182  2023-10-25 16:17:42.750734
2183  2023-10-25 16:17:42.782649
2184  2023-10-25 16:17:42.815630
2185  2023-10-25 16:17:42.846736
2186  2023-10-25 16:17:42.878639
2187  2023-10-25 16:17:42.910564
2188  2023-10-25 16:17:42.943468
2189  2023-10-25 16:17:42.975355
2190  2023-10-25 16:17:43.006296
2191  2023-10-25 16:17:43.055165
2192  2023-10-25 16:17:43.087081
2193  2023-10-25 16:17:43.118964
2194  2023-10-25 16:17:43.150915
2195  2023-10-25 16:17:43.182839
2196  2023-10-25 16:17:43.214708
2197  2023-10-25 16:17:43.246653
2198  2023-10-25 16:17:43.278584
2199  2023-10-25 16:17:43.310490
2200  2023-10-25 16:17:43.342401
2201  2023-10-25 16:17:43.375313
2202  2023-10-25 16:17:43.407234
2203  2023-10-25 16:17:43.455065
2204  2023-10-25 16:17:43.487112
2205  2023-10-25 16:17:43.519057
2206  2023-10-25 16:17:43.550940
2207  2023-10-25 16:17:43.582894
2208  2023-10-25 16:17:43.614822
2209  2023-10-25 16:17:43.646721
2210  2023-10-25 16:17:43.678636
2211  2023-10-25 16:17:43.710545
2212  2023-10-25 16:17:43.743471
2213  2023-10-25 16:17:43.774355
2214  2023-10-25 16:17:43.807290
2215  2023-10-25 16:17:43.854339
2216  2023-10-25 16:17:43.886258
2217  2023-10-25 16:17:43.919167
2218  2023-10-25 16:17:43.951086
2219  2023-10-25 16:17:43.982994
2220  2023-10-25 16:17:44.014910
2221  2023-10-25 16:17:44.046825
2222  2023-10-25 16:17:44.078797
2223  2023-10-25 16:17:44.110685
2224  2023-10-25 16:17:44.142587
2225  2023-10-25 16:17:44.174483
2226  2023-10-25 16:17:44.206489
2227  2023-10-25 16:17:44.254337
2228  2023-10-25 16:17:44.287289
2229  2023-10-25 16:17:44.319291
2230  2023-10-25 16:17:44.351229
2231  2023-10-25 16:17:44.383097
2232  2023-10-25 16:17:44.414986
2233  2023-10-25 16:17:44.446899
2234  2023-10-25 16:17:44.478841
2235  2023-10-25 16:17:44.510729
2236  2023-10-25 16:17:44.542673
2237  2023-10-25 16:17:44.574559
2238  2023-10-25 16:17:44.606512
2239  2023-10-25 16:17:44.654383
2240  2023-10-25 16:17:44.687289
2241  2023-10-25 16:17:44.719172
2242  2023-10-25 16:17:44.751126
2243  2023-10-25 16:17:44.783001
2244  2023-10-25 16:17:44.814948
2245  2023-10-25 16:17:44.846864
2246  2023-10-25 16:17:44.878745
2247  2023-10-25 16:17:44.910684
2248  2023-10-25 16:17:44.943598
2249  2023-10-25 16:17:44.974965
2250  2023-10-25 16:17:45.006956
2251  2023-10-25 16:17:45.054859
2252  2023-10-25 16:17:45.086847
2253  2023-10-25 16:17:45.118774
2254  2023-10-25 16:17:45.150681
2255  2023-10-25 16:17:45.182611
2256  2023-10-25 16:17:45.214508
2257  2023-10-25 16:17:45.246422
2258  2023-10-25 16:17:45.278337
2259  2023-10-25 16:17:45.311267
2260  2023-10-25 16:17:45.343162
2261  2023-10-25 16:17:45.375046
2262  2023-10-25 16:17:45.422949
2263  2023-10-25 16:17:45.454504
2264  2023-10-25 16:17:45.486386
2265  2023-10-25 16:17:45.518300
2266  2023-10-25 16:17:45.551233
2267  2023-10-25 16:17:45.583250
2268  2023-10-25 16:17:45.615156
2269  2023-10-25 16:17:45.647075
2270  2023-10-25 16:17:45.678985
2271  2023-10-25 16:17:45.710869
2272  2023-10-25 16:17:45.742817
2273  2023-10-25 16:17:45.774729
2274  2023-10-25 16:17:45.822606
2275  2023-10-25 16:17:45.854515
2276  2023-10-25 16:17:45.886433
2277  2023-10-25 16:17:45.919349
2278  2023-10-25 16:17:45.951272
2279  2023-10-25 16:17:45.983171
2280  2023-10-25 16:17:46.015085
2281  2023-10-25 16:17:46.047000
2282  2023-10-25 16:17:46.078916
2283  2023-10-25 16:17:46.110828
2284  2023-10-25 16:17:46.142743
2285  2023-10-25 16:17:46.175625
2286  2023-10-25 16:17:46.222529
2287  2023-10-25 16:17:46.254444
2288  2023-10-25 16:17:46.286356
2289  2023-10-25 16:17:46.319240
2290  2023-10-25 16:17:46.351155
2291  2023-10-25 16:17:46.383095
2292  2023-10-25 16:17:46.415023
2293  2023-10-25 16:17:46.446926
2294  2023-10-25 16:17:46.478851
2295  2023-10-25 16:17:46.510779
2296  2023-10-25 16:17:46.542676
2297  2023-10-25 16:17:46.575583
2298  2023-10-25 16:17:46.622474
2299  2023-10-25 16:17:46.654389
2300  2023-10-25 16:17:46.686322
2301  2023-10-25 16:17:46.719171
2302  2023-10-25 16:17:46.751110
2303  2023-10-25 16:17:46.783055
2304  2023-10-25 16:17:46.814976
2305  2023-10-25 16:17:46.846867
2306  2023-10-25 16:17:46.878782
2307  2023-10-25 16:17:46.910658
2308  2023-10-25 16:17:46.942609
2309  2023-10-25 16:17:46.974523
2310  2023-10-25 16:17:47.022478
2311  2023-10-25 16:17:47.054382
2312  2023-10-25 16:17:47.086285
2313  2023-10-25 16:17:47.119203
2314  2023-10-25 16:17:47.151136
2315  2023-10-25 16:17:47.183033
2316  2023-10-25 16:17:47.214914
2317  2023-10-25 16:17:47.246862
2318  2023-10-25 16:17:47.278782
2319  2023-10-25 16:17:47.310707
2320  2023-10-25 16:17:47.342625
2321  2023-10-25 16:17:47.374524
2322  2023-10-25 16:17:47.422400
2323  2023-10-25 16:17:47.454303
2324  2023-10-25 16:17:47.487221
2325  2023-10-25 16:17:47.519135
2326  2023-10-25 16:17:47.551051
2327  2023-10-25 16:17:47.582955
2328  2023-10-25 16:17:47.614852
2329  2023-10-25 16:17:47.646789
2330  2023-10-25 16:17:47.678725
2331  2023-10-25 16:17:47.710624
2332  2023-10-25 16:17:47.742535
2333  2023-10-25 16:17:47.775446
2334  2023-10-25 16:17:47.823324
2335  2023-10-25 16:17:47.855231
2336  2023-10-25 16:17:47.887117
2337  2023-10-25 16:17:47.919064
2338  2023-10-25 16:17:47.950946
2339  2023-10-25 16:17:47.982875
2340  2023-10-25 16:17:48.014775
2341  2023-10-25 16:17:48.046721
2342  2023-10-25 16:17:48.078643
2343  2023-10-25 16:17:48.111549
2344  2023-10-25 16:17:48.143462
2345  2023-10-25 16:17:48.175346
2346  2023-10-25 16:17:48.223250
2347  2023-10-25 16:17:48.255172
2348  2023-10-25 16:17:48.287081
2349  2023-10-25 16:17:48.318961
2350  2023-10-25 16:17:48.350876
2351  2023-10-25 16:17:48.382791
2352  2023-10-25 16:17:48.414755
2353  2023-10-25 16:17:48.447618
2354  2023-10-25 16:17:48.478536
2355  2023-10-25 16:17:48.510499
2356  2023-10-25 16:17:48.542423
2357  2023-10-25 16:17:48.574390
2358  2023-10-25 16:17:48.623247
2359  2023-10-25 16:17:48.655160
2360  2023-10-25 16:17:48.687038
2361  2023-10-25 16:17:48.718975
2362  2023-10-25 16:17:48.750823
2363  2023-10-25 16:17:48.782772
2364  2023-10-25 16:17:48.814654
2365  2023-10-25 16:17:48.846602
2366  2023-10-25 16:17:48.878482
2367  2023-10-25 16:17:48.910431
2368  2023-10-25 16:17:48.943309
2369  2023-10-25 16:17:48.975250
2370  2023-10-25 16:17:49.023132
2371  2023-10-25 16:17:49.055178
2372  2023-10-25 16:17:49.087068
2373  2023-10-25 16:17:49.118983
2374  2023-10-25 16:17:49.150872
2375  2023-10-25 16:17:49.182780
2376  2023-10-25 16:17:49.214695
2377  2023-10-25 16:17:49.246639
2378  2023-10-25 16:17:49.278522
2379  2023-10-25 16:17:49.310469
2380  2023-10-25 16:17:49.342351
2381  2023-10-25 16:17:49.390258
2382  2023-10-25 16:17:49.423161
2383  2023-10-25 16:17:49.455088
2384  2023-10-25 16:17:49.486966
2385  2023-10-25 16:17:49.518947
2386  2023-10-25 16:17:49.550917
2387  2023-10-25 16:17:49.582913
2388  2023-10-25 16:17:49.614852
2389  2023-10-25 16:17:49.646895
2390  2023-10-25 16:17:49.678773
2391  2023-10-25 16:17:49.710686
2392  2023-10-25 16:17:49.742637
2393  2023-10-25 16:17:49.790504
2394  2023-10-25 16:17:49.822425
2395  2023-10-25 16:17:49.855334
2396  2023-10-25 16:17:49.887218
2397  2023-10-25 16:17:49.919128
2398  2023-10-25 16:17:49.951043
2399  2023-10-25 16:17:49.982961
2400  2023-10-25 16:17:50.014907
2401  2023-10-25 16:17:50.046822
2402  2023-10-25 16:17:50.078765
2403  2023-10-25 16:17:50.110617
2404  2023-10-25 16:17:50.142556
2405  2023-10-25 16:17:50.190402
2406  2023-10-25 16:17:50.222350
2407  2023-10-25 16:17:50.255230
2408  2023-10-25 16:17:50.287176
2409  2023-10-25 16:17:50.319060
2410  2023-10-25 16:17:50.350972
2411  2023-10-25 16:17:50.382889
2412  2023-10-25 16:17:50.414984
2413  2023-10-25 16:17:50.446911
2414  2023-10-25 16:17:50.478826
2415  2023-10-25 16:17:50.510774
2416  2023-10-25 16:17:50.542663
2417  2023-10-25 16:17:50.590561
2418  2023-10-25 16:17:50.622478
2419  2023-10-25 16:17:50.654393
2420  2023-10-25 16:17:50.687305
2421  2023-10-25 16:17:50.719218
2422  2023-10-25 16:17:50.751099
2423  2023-10-25 16:17:50.783012
2424  2023-10-25 16:17:50.814927
2425  2023-10-25 16:17:50.846844
2426  2023-10-25 16:17:50.878757
2427  2023-10-25 16:17:50.910672
2428  2023-10-25 16:17:50.942923
2429  2023-10-25 16:17:50.990825
2430  2023-10-25 16:17:51.022774
2431  2023-10-25 16:17:51.054692
2432  2023-10-25 16:17:51.086648
2433  2023-10-25 16:17:51.118597
2434  2023-10-25 16:17:51.150477
2435  2023-10-25 16:17:51.182393
2436  2023-10-25 16:17:51.214341
2437  2023-10-25 16:17:51.247220
2438  2023-10-25 16:17:51.279169
2439  2023-10-25 16:17:51.311081
2440  2023-10-25 16:17:51.342964
2441  2023-10-25 16:17:51.390921
2442  2023-10-25 16:17:51.422869
2443  2023-10-25 16:17:51.454918
2444  2023-10-25 16:17:51.486679
2445  2023-10-25 16:17:51.518593
2446  2023-10-25 16:17:51.550581
2447  2023-10-25 16:17:51.582504
2448  2023-10-25 16:17:51.614431
2449  2023-10-25 16:17:51.647347
2450  2023-10-25 16:17:51.679207
2451  2023-10-25 16:17:51.711120
2452  2023-10-25 16:17:51.743034
2453  2023-10-25 16:17:51.790906
2454  2023-10-25 16:17:51.823818
2455  2023-10-25 16:17:51.854768
2456  2023-10-25 16:17:51.886652
2457  2023-10-25 16:17:51.918568
2458  2023-10-25 16:17:51.950481
2459  2023-10-25 16:17:51.982395
2460  2023-10-25 16:17:52.014309
2461  2023-10-25 16:17:52.046223
2462  2023-10-25 16:17:52.079177
2463  2023-10-25 16:17:52.111051
2464  2023-10-25 16:17:52.142997
2465  2023-10-25 16:17:52.190867
2466  2023-10-25 16:17:52.222751
2467  2023-10-25 16:17:52.254665
2468  2023-10-25 16:17:52.286626
2469  2023-10-25 16:17:52.318434
2470  2023-10-25 16:17:52.351413
2471  2023-10-25 16:17:52.383336
2472  2023-10-25 16:17:52.415211
2473  2023-10-25 16:17:52.447124
2474  2023-10-25 16:17:52.479069
2475  2023-10-25 16:17:52.510989
2476  2023-10-25 16:17:52.542906
2477  2023-10-25 16:17:52.590739
2478  2023-10-25 16:17:52.622661
2479  2023-10-25 16:17:52.654594
2480  2023-10-25 16:17:52.687540
2481  2023-10-25 16:17:52.718398
2482  2023-10-25 16:17:52.751311
2483  2023-10-25 16:17:52.783257
2484  2023-10-25 16:17:52.815141
2485  2023-10-25 16:17:52.847055
2486  2023-10-25 16:17:52.879005
2487  2023-10-25 16:17:52.910963
2488  2023-10-25 16:17:52.958834
2489  2023-10-25 16:17:52.990786
2490  2023-10-25 16:17:53.022709
2491  2023-10-25 16:17:53.054578
2492  2023-10-25 16:17:53.086493
2493  2023-10-25 16:17:53.119405
2494  2023-10-25 16:17:53.151322
2495  2023-10-25 16:17:53.183275
2496  2023-10-25 16:17:53.215179
2497  2023-10-25 16:17:53.247066
2498  2023-10-25 16:17:53.279027
2499  2023-10-25 16:17:53.311040
2500  2023-10-25 16:17:53.358858
2501  2023-10-25 16:17:53.390778
2502  2023-10-25 16:17:53.422687
2503  2023-10-25 16:17:53.454637
2504  2023-10-25 16:17:53.486557
2505  2023-10-25 16:17:53.518431
2506  2023-10-25 16:17:53.550957
2507  2023-10-25 16:17:53.582972
2508  2023-10-25 16:17:53.614887
2509  2023-10-25 16:17:53.646801
2510  2023-10-25 16:17:53.678716
2511  2023-10-25 16:17:53.710630
2512  2023-10-25 16:17:53.758553
2513  2023-10-25 16:17:53.790467
2514  2023-10-25 16:17:53.822382
2515  2023-10-25 16:17:53.855349
2516  2023-10-25 16:17:53.887210
2517  2023-10-25 16:17:53.919157
2518  2023-10-25 16:17:53.951085
2519  2023-10-25 16:17:53.982956
2520  2023-10-25 16:17:54.014869
2521  2023-10-25 16:17:54.046822
2522  2023-10-25 16:17:54.078698
2523  2023-10-25 16:17:54.111610
2524  2023-10-25 16:17:54.158530
2525  2023-10-25 16:17:54.190436
2526  2023-10-25 16:17:54.222313
2527  2023-10-25 16:17:54.255224
2528  2023-10-25 16:17:54.287140
2529  2023-10-25 16:17:54.319056
2530  2023-10-25 16:17:54.350997
2531  2023-10-25 16:17:54.382931
2532  2023-10-25 16:17:54.414830
2533  2023-10-25 16:17:54.446713
2534  2023-10-25 16:17:54.478681
2535  2023-10-25 16:17:54.510573
2536  2023-10-25 16:17:54.558415
2537  2023-10-25 16:17:54.590329
2538  2023-10-25 16:17:54.623241
2539  2023-10-25 16:17:54.655206
2540  2023-10-25 16:17:54.687120
2541  2023-10-25 16:17:54.719126
2542  2023-10-25 16:17:54.750982
2543  2023-10-25 16:17:54.782945
2544  2023-10-25 16:17:54.814856
2545  2023-10-25 16:17:54.846874
2546  2023-10-25 16:17:54.878816
2547  2023-10-25 16:17:54.910711
2548  2023-10-25 16:17:54.958555
2549  2023-10-25 16:17:54.990505
2550  2023-10-25 16:17:55.022385
2551  2023-10-25 16:17:55.054299
2552  2023-10-25 16:17:55.087212
2553  2023-10-25 16:17:55.119126
2554  2023-10-25 16:17:55.151042
2555  2023-10-25 16:17:55.182983
2556  2023-10-25 16:17:55.214871
2557  2023-10-25 16:17:55.246818
2558  2023-10-25 16:17:55.278711
2559  2023-10-25 16:17:55.310927
2560  2023-10-25 16:17:55.358798
2561  2023-10-25 16:17:55.390790
2562  2023-10-25 16:17:55.422705
2563  2023-10-25 16:17:55.454620
2564  2023-10-25 16:17:55.487534
2565  2023-10-25 16:17:55.518449
2566  2023-10-25 16:17:55.550365
2567  2023-10-25 16:17:55.583300
2568  2023-10-25 16:17:55.615253
2569  2023-10-25 16:17:55.647166
2570  2023-10-25 16:17:55.679171
2571  2023-10-25 16:17:55.711132
2572  2023-10-25 16:17:55.758967
2573  2023-10-25 16:17:55.790882
2574  2023-10-25 16:17:55.822836
2575  2023-10-25 16:17:55.854794
2576  2023-10-25 16:17:55.886772
2577  2023-10-25 16:17:55.918768
2578  2023-10-25 16:17:55.950694
2579  2023-10-25 16:17:55.982598
2580  2023-10-25 16:17:56.014513
2581  2023-10-25 16:17:56.046427
2582  2023-10-25 16:17:56.078342
2583  2023-10-25 16:17:56.110293
2584  2023-10-25 16:17:56.159172
2585  2023-10-25 16:17:56.191086
2586  2023-10-25 16:17:56.223002
2587  2023-10-25 16:17:56.254917
2588  2023-10-25 16:17:56.286834
2589  2023-10-25 16:17:56.318750
2590  2023-10-25 16:17:56.350746
2591  2023-10-25 16:17:56.382655
2592  2023-10-25 16:17:56.414595
2593  2023-10-25 16:17:56.446591
2594  2023-10-25 16:17:56.478505
2595  2023-10-25 16:17:56.510412
2596  2023-10-25 16:17:56.558352
2597  2023-10-25 16:17:56.590267
2598  2023-10-25 16:17:56.623182
2599  2023-10-25 16:17:56.655162
2600  2023-10-25 16:17:56.687075
2601  2023-10-25 16:17:56.718990
2602  2023-10-25 16:17:56.750965
2603  2023-10-25 16:17:56.782867
2604  2023-10-25 16:17:56.814784
2605  2023-10-25 16:17:56.846733
2606  2023-10-25 16:17:56.878612
2607  2023-10-25 16:17:56.926481
2608  2023-10-25 16:17:56.958396
2609  2023-10-25 16:17:56.991334
2610  2023-10-25 16:17:57.023248
2611  2023-10-25 16:17:57.055161
2612  2023-10-25 16:17:57.087145
2613  2023-10-25 16:17:57.119029
2614  2023-10-25 16:17:57.150942
2615  2023-10-25 16:17:57.182857
2616  2023-10-25 16:17:57.214770
2617  2023-10-25 16:17:57.246686
2618  2023-10-25 16:17:57.278643
2619  2023-10-25 16:17:57.326523
2620  2023-10-25 16:17:57.358386
2621  2023-10-25 16:17:57.390300
2622  2023-10-25 16:17:57.423212
2623  2023-10-25 16:17:57.455162
2624  2023-10-25 16:17:57.487079
2625  2023-10-25 16:17:57.519001
2626  2023-10-25 16:17:57.550905
2627  2023-10-25 16:17:57.582788
2628  2023-10-25 16:17:57.614739
2629  2023-10-25 16:17:57.646617
2630  2023-10-25 16:17:57.678564
2631  2023-10-25 16:17:57.726521
2632  2023-10-25 16:17:57.758436
2633  2023-10-25 16:17:57.790351
2634  2023-10-25 16:17:57.822265
2635  2023-10-25 16:17:57.855177
2636  2023-10-25 16:17:57.887094
2637  2023-10-25 16:17:57.919006
2638  2023-10-25 16:17:57.950963
2639  2023-10-25 16:17:57.982874
2640  2023-10-25 16:17:58.014751
2641  2023-10-25 16:17:58.046729
2642  2023-10-25 16:17:58.078581
2643  2023-10-25 16:17:58.126451
2644  2023-10-25 16:17:58.158366
2645  2023-10-25 16:17:58.190280
2646  2023-10-25 16:17:58.223192
2647  2023-10-25 16:17:58.255107
2648  2023-10-25 16:17:58.287024
2649  2023-10-25 16:17:58.318939
2650  2023-10-25 16:17:58.350864
2651  2023-10-25 16:17:58.382768
2652  2023-10-25 16:17:58.414696
2653  2023-10-25 16:17:58.446598
2654  2023-10-25 16:17:58.478512
2655  2023-10-25 16:17:58.527427
2656  2023-10-25 16:17:58.558405
2657  2023-10-25 16:17:58.590319
2658  2023-10-25 16:17:58.622325
2659  2023-10-25 16:17:58.655188
2660  2023-10-25 16:17:58.687103
2661  2023-10-25 16:17:58.719018
2662  2023-10-25 16:17:58.750933
2663  2023-10-25 16:17:58.782848
2664  2023-10-25 16:17:58.814763
2665  2023-10-25 16:17:58.846677
2666  2023-10-25 16:17:58.878592
2667  2023-10-25 16:17:58.926499
2668  2023-10-25 16:17:58.958413
2669  2023-10-25 16:17:58.990292
2670  2023-10-25 16:17:59.023204
2671  2023-10-25 16:17:59.055119
2672  2023-10-25 16:17:59.087103
2673  2023-10-25 16:17:59.119095
2674  2023-10-25 16:17:59.151044
2675  2023-10-25 16:17:59.182938
2676  2023-10-25 16:17:59.214840
2677  2023-10-25 16:17:59.246752
2678  2023-10-25 16:17:59.278747
2679  2023-10-25 16:17:59.326712
2680  2023-10-25 16:17:59.358626
2681  2023-10-25 16:17:59.390541
2682  2023-10-25 16:17:59.422456
2683  2023-10-25 16:17:59.455429
2684  2023-10-25 16:17:59.486290
2685  2023-10-25 16:17:59.519241
2686  2023-10-25 16:17:59.551123
2687  2023-10-25 16:17:59.583028
2688  2023-10-25 16:17:59.614975
2689  2023-10-25 16:17:59.646895
2690  2023-10-25 16:17:59.678771
2691  2023-10-25 16:17:59.726642
2692  2023-10-25 16:17:59.758557
2693  2023-10-25 16:17:59.790471
2694  2023-10-25 16:17:59.823385
2695  2023-10-25 16:17:59.855333
2696  2023-10-25 16:17:59.887243
2697  2023-10-25 16:17:59.919129
2698  2023-10-25 16:17:59.951043
2699  2023-10-25 16:17:59.982957
2700  2023-10-25 16:18:00.014872
2701  2023-10-25 16:18:00.046835
2702  2023-10-25 16:18:00.078734
2703  2023-10-25 16:18:00.126646
2704  2023-10-25 16:18:00.158283
2705  2023-10-25 16:18:00.191208
2706  2023-10-25 16:18:00.223069
2707  2023-10-25 16:18:00.254984
2708  2023-10-25 16:18:00.286938
2709  2023-10-25 16:18:00.318815
2710  2023-10-25 16:18:00.350762
2711  2023-10-25 16:18:00.382677
2712  2023-10-25 16:18:00.414612
2713  2023-10-25 16:18:00.446524
2714  2023-10-25 16:18:00.494383
2715  2023-10-25 16:18:00.526362
2716  2023-10-25 16:18:00.558239
2717  2023-10-25 16:18:00.591194
2718  2023-10-25 16:18:00.623147
2719  2023-10-25 16:18:00.655062
2720  2023-10-25 16:18:00.687011
2721  2023-10-25 16:18:00.718927
2722  2023-10-25 16:18:00.750496
2723  2023-10-25 16:18:00.782411
2724  2023-10-25 16:18:00.815324
2725  2023-10-25 16:18:00.846333
2726  2023-10-25 16:18:00.895153
2727  2023-10-25 16:18:00.927068
2728  2023-10-25 16:18:00.959082
2729  2023-10-25 16:18:00.990996
2730  2023-10-25 16:18:01.022911
2731  2023-10-25 16:18:01.054825
2732  2023-10-25 16:18:01.086772
2733  2023-10-25 16:18:01.118660
2734  2023-10-25 16:18:01.151569
2735  2023-10-25 16:18:01.183486
2736  2023-10-25 16:18:01.214430
2737  2023-10-25 16:18:01.247312
2738  2023-10-25 16:18:01.295193
2739  2023-10-25 16:18:01.327097
2740  2023-10-25 16:18:01.359056
2741  2023-10-25 16:18:01.390926
2742  2023-10-25 16:18:01.422841
2743  2023-10-25 16:18:01.454756
2744  2023-10-25 16:18:01.486700
2745  2023-10-25 16:18:01.518585
2746  2023-10-25 16:18:01.550501
2747  2023-10-25 16:18:01.583460
2748  2023-10-25 16:18:01.614959
2749  2023-10-25 16:18:01.646952
2750  2023-10-25 16:18:01.694821
2751  2023-10-25 16:18:01.726704
2752  2023-10-25 16:18:01.758618
2753  2023-10-25 16:18:01.790533
2754  2023-10-25 16:18:01.822482
2755  2023-10-25 16:18:01.854362
2756  2023-10-25 16:18:01.887318
2757  2023-10-25 16:18:01.919236
2758  2023-10-25 16:18:01.951104
2759  2023-10-25 16:18:01.983019
2760  2023-10-25 16:18:02.015004
2761  2023-10-25 16:18:02.046850
2762  2023-10-25 16:18:02.094719
2763  2023-10-25 16:18:02.126634
2764  2023-10-25 16:18:02.158549
2765  2023-10-25 16:18:02.190463
2766  2023-10-25 16:18:02.223375
2767  2023-10-25 16:18:02.254293
2768  2023-10-25 16:18:02.287241
2769  2023-10-25 16:18:02.319154
2770  2023-10-25 16:18:02.351035
2771  2023-10-25 16:18:02.383000
2772  2023-10-25 16:18:02.414880
2773  2023-10-25 16:18:02.446821
2774  2023-10-25 16:18:02.494650
2775  2023-10-25 16:18:02.526569
2776  2023-10-25 16:18:02.558551
2777  2023-10-25 16:18:02.590394
2778  2023-10-25 16:18:02.623306
2779  2023-10-25 16:18:02.655220
2780  2023-10-25 16:18:02.687137
2781  2023-10-25 16:18:02.719081
2782  2023-10-25 16:18:02.750996
2783  2023-10-25 16:18:02.782881
2784  2023-10-25 16:18:02.814924
2785  2023-10-25 16:18:02.846956
2786  2023-10-25 16:18:02.894782
2787  2023-10-25 16:18:02.926699
2788  2023-10-25 16:18:02.958611
2789  2023-10-25 16:18:02.990552
2790  2023-10-25 16:18:03.022471
2791  2023-10-25 16:18:03.054355
2792  2023-10-25 16:18:03.087269
2793  2023-10-25 16:18:03.119215
2794  2023-10-25 16:18:03.151099
2795  2023-10-25 16:18:03.183047
2796  2023-10-25 16:18:03.214927
2797  2023-10-25 16:18:03.246843
2798  2023-10-25 16:18:03.294712
2799  2023-10-25 16:18:03.326627
2800  2023-10-25 16:18:03.358572
2801  2023-10-25 16:18:03.390456
2802  2023-10-25 16:18:03.422371
2803  2023-10-25 16:18:03.454285
2804  2023-10-25 16:18:03.487243
2805  2023-10-25 16:18:03.519150
2806  2023-10-25 16:18:03.551085
2807  2023-10-25 16:18:03.582971
2808  2023-10-25 16:18:03.614864
2809  2023-10-25 16:18:03.646784
2810  2023-10-25 16:18:03.694643
2811  2023-10-25 16:18:03.727556
2812  2023-10-25 16:18:03.758472
2813  2023-10-25 16:18:03.790386
2814  2023-10-25 16:18:03.823299
2815  2023-10-25 16:18:03.855286
2816  2023-10-25 16:18:03.887296
2817  2023-10-25 16:18:03.919210
2818  2023-10-25 16:18:03.951129
2819  2023-10-25 16:18:03.983043
2820  2023-10-25 16:18:04.014955
2821  2023-10-25 16:18:04.046836
2822  2023-10-25 16:18:04.094713
2823  2023-10-25 16:18:04.126622
2824  2023-10-25 16:18:04.158568
2825  2023-10-25 16:18:04.190486
2826  2023-10-25 16:18:04.222367
2827  2023-10-25 16:18:04.254281
2828  2023-10-25 16:18:04.287203
2829  2023-10-25 16:18:04.319169
2830  2023-10-25 16:18:04.351066
2831  2023-10-25 16:18:04.382939
2832  2023-10-25 16:18:04.414891
2833  2023-10-25 16:18:04.462723
2834  2023-10-25 16:18:04.494679
2835  2023-10-25 16:18:04.526585
2836  2023-10-25 16:18:04.558467
2837  2023-10-25 16:18:04.590470
2838  2023-10-25 16:18:04.622385
2839  2023-10-25 16:18:04.654338
2840  2023-10-25 16:18:04.687245
2841  2023-10-25 16:18:04.719185
2842  2023-10-25 16:18:04.751042
2843  2023-10-25 16:18:04.782957
2844  2023-10-25 16:18:04.815634
2845  2023-10-25 16:18:04.862572
2846  2023-10-25 16:18:04.894486
2847  2023-10-25 16:18:04.926401
2848  2023-10-25 16:18:04.958315
2849  2023-10-25 16:18:04.990230
2850  2023-10-25 16:18:05.023142
2851  2023-10-25 16:18:05.055057
2852  2023-10-25 16:18:05.087013
2853  2023-10-25 16:18:05.118918
2854  2023-10-25 16:18:05.150801
2855  2023-10-25 16:18:05.182738
2856  2023-10-25 16:18:05.214687
2857  2023-10-25 16:18:05.262502
2858  2023-10-25 16:18:05.295414
2859  2023-10-25 16:18:05.326331
2860  2023-10-25 16:18:05.358246
2861  2023-10-25 16:18:05.391159
2862  2023-10-25 16:18:05.423072
2863  2023-10-25 16:18:05.454987
2864  2023-10-25 16:18:05.486902
2865  2023-10-25 16:18:05.518818
2866  2023-10-25 16:18:05.550786
2867  2023-10-25 16:18:05.582686
2868  2023-10-25 16:18:05.615595
2869  2023-10-25 16:18:05.662432
2870  2023-10-25 16:18:05.695345
2871  2023-10-25 16:18:05.727259
2872  2023-10-25 16:18:05.759173
2873  2023-10-25 16:18:05.791088
2874  2023-10-25 16:18:05.823003
2875  2023-10-25 16:18:05.854917
2876  2023-10-25 16:18:05.886834
2877  2023-10-25 16:18:05.918811
2878  2023-10-25 16:18:05.950739
2879  2023-10-25 16:18:05.982708
2880  2023-10-25 16:18:06.014622
2881  2023-10-25 16:18:06.062493
2882  2023-10-25 16:18:06.094408
2883  2023-10-25 16:18:06.126322
2884  2023-10-25 16:18:06.158269
2885  2023-10-25 16:18:06.191195
2886  2023-10-25 16:18:06.223064
2887  2023-10-25 16:18:06.254978
2888  2023-10-25 16:18:06.287241
2889  2023-10-25 16:18:06.319162
2890  2023-10-25 16:18:06.351030
2891  2023-10-25 16:18:06.382945
2892  2023-10-25 16:18:06.414860
2893  2023-10-25 16:18:06.462732
2894  2023-10-25 16:18:06.494654
2895  2023-10-25 16:18:06.526561
2896  2023-10-25 16:18:06.558475
2897  2023-10-25 16:18:06.590390
2898  2023-10-25 16:18:06.622304
2899  2023-10-25 16:18:06.655215
2900  2023-10-25 16:18:06.687131
2901  2023-10-25 16:18:06.719079
2902  2023-10-25 16:18:06.750992
2903  2023-10-25 16:18:06.782904
2904  2023-10-25 16:18:06.814825
2905  2023-10-25 16:18:06.862660
2906  2023-10-25 16:18:06.894575
2907  2023-10-25 16:18:06.926578
2908  2023-10-25 16:18:06.958468
2909  2023-10-25 16:18:06.990426
2910  2023-10-25 16:18:07.023339
2911  2023-10-25 16:18:07.054255
2912  2023-10-25 16:18:07.087169
2913  2023-10-25 16:18:07.119083
2914  2023-10-25 16:18:07.150999
2915  2023-10-25 16:18:07.182928
2916  2023-10-25 16:18:07.214877
2917  2023-10-25 16:18:07.262698
2918  2023-10-25 16:18:07.294612
2919  2023-10-25 16:18:07.326527
2920  2023-10-25 16:18:07.359466
2921  2023-10-25 16:18:07.390356
2922  2023-10-25 16:18:07.423268
2923  2023-10-25 16:18:07.455183
2924  2023-10-25 16:18:07.487099
2925  2023-10-25 16:18:07.519071
2926  2023-10-25 16:18:07.550929
2927  2023-10-25 16:18:07.582842
2928  2023-10-25 16:18:07.614758
2929  2023-10-25 16:18:07.662628
2930  2023-10-25 16:18:07.694543
2931  2023-10-25 16:18:07.726457
2932  2023-10-25 16:18:07.758372
2933  2023-10-25 16:18:07.790402
2934  2023-10-25 16:18:07.823336
2935  2023-10-25 16:18:07.854388
2936  2023-10-25 16:18:07.887336
2937  2023-10-25 16:18:07.919256
2938  2023-10-25 16:18:07.951163
2939  2023-10-25 16:18:07.983046
2940  2023-10-25 16:18:08.015133
2941  2023-10-25 16:18:08.062961
2942  2023-10-25 16:18:08.094872
2943  2023-10-25 16:18:08.126786
2944  2023-10-25 16:18:08.158691
2945  2023-10-25 16:18:08.190605
2946  2023-10-25 16:18:08.222520
2947  2023-10-25 16:18:08.254525
2948  2023-10-25 16:18:08.286440
2949  2023-10-25 16:18:08.319357
2950  2023-10-25 16:18:08.352295
2951  2023-10-25 16:18:08.383197
2952  2023-10-25 16:18:08.431053
2953  2023-10-25 16:18:08.462967
2954  2023-10-25 16:18:08.494882
2955  2023-10-25 16:18:08.526770
2956  2023-10-25 16:18:08.560759
2957  2023-10-25 16:18:08.592650
2958  2023-10-25 16:18:08.622547
2959  2023-10-25 16:18:08.655475
2960  2023-10-25 16:18:08.686377
2961  2023-10-25 16:18:08.719291
2962  2023-10-25 16:18:08.751257
2963  2023-10-25 16:18:08.783119
2964  2023-10-25 16:18:08.830990
2965  2023-10-25 16:18:08.862926
2966  2023-10-25 16:18:08.895875
2967  2023-10-25 16:18:08.926733
2968  2023-10-25 16:18:08.958648
2969  2023-10-25 16:18:08.990613
2970  2023-10-25 16:18:09.024502
2971  2023-10-25 16:18:09.056435
2972  2023-10-25 16:18:09.087305
2973  2023-10-25 16:18:09.119260
2974  2023-10-25 16:18:09.151194
2975  2023-10-25 16:18:09.184047
2976  2023-10-25 16:18:09.231963
2977  2023-10-25 16:18:09.263867
2978  2023-10-25 16:18:09.295780
2979  2023-10-25 16:18:09.327691
2980  2023-10-25 16:18:09.360627
2981  2023-10-25 16:18:09.391536
2982  2023-10-25 16:18:09.424436
2983  2023-10-25 16:18:09.456349
2984  2023-10-25 16:18:09.488280
2985  2023-10-25 16:18:09.520194
2986  2023-10-25 16:18:09.552094
2987  2023-10-25 16:18:09.584015
2988  2023-10-25 16:18:09.631897
2989  2023-10-25 16:18:09.663806
2990  2023-10-25 16:18:09.696412
2991  2023-10-25 16:18:09.728444
2992  2023-10-25 16:18:09.759344
2993  2023-10-25 16:18:09.792269
2994  2023-10-25 16:18:09.824171
2995  2023-10-25 16:18:09.856101
2996  2023-10-25 16:18:09.888014
2997  2023-10-25 16:18:09.919926
2998  2023-10-25 16:18:09.951827
2999  2023-10-25 16:18:09.984768
3000  2023-10-25 16:18:10.031616
3001  2023-10-25 16:18:10.063498
3002  2023-10-25 16:18:10.095455
3003  2023-10-25 16:18:10.127432
3004  2023-10-25 16:18:10.159423
3005  2023-10-25 16:18:10.191342
3006  2023-10-25 16:18:10.224051
3007  2023-10-25 16:18:10.255996
3008  2023-10-25 16:18:10.287879
3009  2023-10-25 16:18:10.319793
3010  2023-10-25 16:18:10.351787
3011  2023-10-25 16:18:10.383705
3012  2023-10-25 16:18:10.431578
3013  2023-10-25 16:18:10.463493
3014  2023-10-25 16:18:10.495506
3015  2023-10-25 16:18:10.527428
3016  2023-10-25 16:18:10.559342
3017  2023-10-25 16:18:10.591257
3018  2023-10-25 16:18:10.623198
3019  2023-10-25 16:18:10.655259
3020  2023-10-25 16:18:10.688154
3021  2023-10-25 16:18:10.720053
3022  2023-10-25 16:18:10.751968
3023  2023-10-25 16:18:10.783878
3024  2023-10-25 16:18:10.831874
3025  2023-10-25 16:18:10.863785
3026  2023-10-25 16:18:10.895699
3027  2023-10-25 16:18:10.927614
3028  2023-10-25 16:18:10.959516
3029  2023-10-25 16:18:10.991401
3030  2023-10-25 16:18:11.023316
3031  2023-10-25 16:18:11.055333
3032  2023-10-25 16:18:11.088235
3033  2023-10-25 16:18:11.120150
3034  2023-10-25 16:18:11.152125
3035  2023-10-25 16:18:11.183041
3036  2023-10-25 16:18:11.231910
3037  2023-10-25 16:18:11.262860
3038  2023-10-25 16:18:11.295775
3039  2023-10-25 16:18:11.326701
3040  2023-10-25 16:18:11.359612
3041  2023-10-25 16:18:11.391526
3042  2023-10-25 16:18:11.423441
3043  2023-10-25 16:18:11.455356
3044  2023-10-25 16:18:11.487283
3045  2023-10-25 16:18:11.519174
3046  2023-10-25 16:18:11.551090
3047  2023-10-25 16:18:11.583994
3048  2023-10-25 16:18:11.630876
3049  2023-10-25 16:18:11.662790
3050  2023-10-25 16:18:11.694713
3051  2023-10-25 16:18:11.726650
3052  2023-10-25 16:18:11.759614
3053  2023-10-25 16:18:11.790507
3054  2023-10-25 16:18:11.823400
3055  2023-10-25 16:18:11.855345
3056  2023-10-25 16:18:11.887361
3057  2023-10-25 16:18:11.919263
3058  2023-10-25 16:18:11.951187
3059  2023-10-25 16:18:11.999188
3060  2023-10-25 16:18:12.031351
3061  2023-10-25 16:18:12.063316
3062  2023-10-25 16:18:12.095274
3063  2023-10-25 16:18:12.127233
3064  2023-10-25 16:18:12.159144
3065  2023-10-25 16:18:12.192076
3066  2023-10-25 16:18:12.223956
3067  2023-10-25 16:18:12.254874
3068  2023-10-25 16:18:12.287786
3069  2023-10-25 16:18:12.319702
3070  2023-10-25 16:18:12.352583
3071  2023-10-25 16:18:12.399508
3072  2023-10-25 16:18:12.430414
3073  2023-10-25 16:18:12.463286
3074  2023-10-25 16:18:12.495219
3075  2023-10-25 16:18:12.527145
3076  2023-10-25 16:18:12.559062
3077  2023-10-25 16:18:12.590976
3078  2023-10-25 16:18:12.622888
3079  2023-10-25 16:18:12.654789
3080  2023-10-25 16:18:12.686792
3081  2023-10-25 16:18:12.718697
3082  2023-10-25 16:18:12.750620
3083  2023-10-25 16:18:12.798491
3084  2023-10-25 16:18:12.830415
3085  2023-10-25 16:18:12.862317
3086  2023-10-25 16:18:12.894935
3087  2023-10-25 16:18:12.926849
3088  2023-10-25 16:18:12.958864
3089  2023-10-25 16:18:12.990912
3090  2023-10-25 16:18:13.022822
3091  2023-10-25 16:18:13.054722
3092  2023-10-25 16:18:13.086669
3093  2023-10-25 16:18:13.119547
3094  2023-10-25 16:18:13.150467
3095  2023-10-25 16:18:13.198414
3096  2023-10-25 16:18:13.230342
3097  2023-10-25 16:18:13.263225
3098  2023-10-25 16:18:13.295125
3099  2023-10-25 16:18:13.327040
3100  2023-10-25 16:18:13.358967
3101  2023-10-25 16:18:13.390901
3102  2023-10-25 16:18:13.422816
3103  2023-10-25 16:18:13.454697
3104  2023-10-25 16:18:13.486636
3105  2023-10-25 16:18:13.520536
3106  2023-10-25 16:18:13.551399
3107  2023-10-25 16:18:13.600313
3108  2023-10-25 16:18:13.631245
3109  2023-10-25 16:18:13.663098
3110  2023-10-25 16:18:13.696052
3111  2023-10-25 16:18:13.727981
3112  2023-10-25 16:18:13.759872
3113  2023-10-25 16:18:13.790757
3114  2023-10-25 16:18:13.822723
3115  2023-10-25 16:18:13.855717
3116  2023-10-25 16:18:13.887635
3117  2023-10-25 16:18:13.920550
3118  2023-10-25 16:18:13.951425
3119  2023-10-25 16:18:14.000331
3120  2023-10-25 16:18:14.031268
3121  2023-10-25 16:18:14.063239
3122  2023-10-25 16:18:14.096184
3123  2023-10-25 16:18:14.128099
3124  2023-10-25 16:18:14.159030
3125  2023-10-25 16:18:14.190945
3126  2023-10-25 16:18:14.222922
3127  2023-10-25 16:18:14.255875
3128  2023-10-25 16:18:14.286752
3129  2023-10-25 16:18:14.320703
3130  2023-10-25 16:18:14.350635
3131  2023-10-25 16:18:14.400490
3132  2023-10-25 16:18:14.430410
3133  2023-10-25 16:18:14.463279
3134  2023-10-25 16:18:14.496192
3135  2023-10-25 16:18:14.528139
3136  2023-10-25 16:18:14.560072
3137  2023-10-25 16:18:14.590968
3138  2023-10-25 16:18:14.622883
3139  2023-10-25 16:18:14.655798
3140  2023-10-25 16:18:14.686683
3141  2023-10-25 16:18:14.720623
3142  2023-10-25 16:18:14.751540
3143  2023-10-25 16:18:14.799412
3144  2023-10-25 16:18:14.830338
3145  2023-10-25 16:18:14.863244
3146  2023-10-25 16:18:14.896167
3147  2023-10-25 16:18:14.928068
3148  2023-10-25 16:18:14.961082
3149  2023-10-25 16:18:14.991020
3150  2023-10-25 16:18:15.022980
3151  2023-10-25 16:18:15.055924
3152  2023-10-25 16:18:15.087860
3153  2023-10-25 16:18:15.120718
3154  2023-10-25 16:18:15.150664
3155  2023-10-25 16:18:15.199508
3156  2023-10-25 16:18:15.231422
3157  2023-10-25 16:18:15.262376
3158  2023-10-25 16:18:15.296307
3159  2023-10-25 16:18:15.327203
3160  2023-10-25 16:18:15.360122
3161  2023-10-25 16:18:15.391032
3162  2023-10-25 16:18:15.422945
3163  2023-10-25 16:18:15.455863
3164  2023-10-25 16:18:15.486773
3165  2023-10-25 16:18:15.518668
3166  2023-10-25 16:18:15.550672
3167  2023-10-25 16:18:15.599581
3168  2023-10-25 16:18:15.630457
3169  2023-10-25 16:18:15.662452
3170  2023-10-25 16:18:15.695408
3171  2023-10-25 16:18:15.727402
3172  2023-10-25 16:18:15.759318
3173  2023-10-25 16:18:15.791191
3174  2023-10-25 16:18:15.823147
3175  2023-10-25 16:18:15.855053
3176  2023-10-25 16:18:15.888963
3177  2023-10-25 16:18:15.918852
3178  2023-10-25 16:18:15.966845
3179  2023-10-25 16:18:15.999755
3180  2023-10-25 16:18:16.030676
3181  2023-10-25 16:18:16.062600
3182  2023-10-25 16:18:16.095510
3183  2023-10-25 16:18:16.127393
3184  2023-10-25 16:18:16.159302
3185  2023-10-25 16:18:16.191214
3186  2023-10-25 16:18:16.223134
3187  2023-10-25 16:18:16.255044
3188  2023-10-25 16:18:16.286960
3189  2023-10-25 16:18:16.319921
3190  2023-10-25 16:18:16.367793
3191  2023-10-25 16:18:16.399821
3192  2023-10-25 16:18:16.431694
3193  2023-10-25 16:18:16.463615
3194  2023-10-25 16:18:16.495566
3195  2023-10-25 16:18:16.527489
3196  2023-10-25 16:18:16.559522
3197  2023-10-25 16:18:16.590516
3198  2023-10-25 16:18:16.622465
3199  2023-10-25 16:18:16.654346
3200  2023-10-25 16:18:16.688283
3201  2023-10-25 16:18:16.720378
3202  2023-10-25 16:18:16.767250
3203  2023-10-25 16:18:16.799152
3204  2023-10-25 16:18:16.831070
3205  2023-10-25 16:18:16.862945
3206  2023-10-25 16:18:16.894896
3207  2023-10-25 16:18:16.926805
3208  2023-10-25 16:18:16.958733
3209  2023-10-25 16:18:16.990631
3210  2023-10-25 16:18:17.022530
3211  2023-10-25 16:18:17.054433
3212  2023-10-25 16:18:17.087370
3213  2023-10-25 16:18:17.120258
3214  2023-10-25 16:18:17.167133
3215  2023-10-25 16:18:17.199046
3216  2023-10-25 16:18:17.230941
3217  2023-10-25 16:18:17.262831
3218  2023-10-25 16:18:17.294776
3219  2023-10-25 16:18:17.326705
3220  2023-10-25 16:18:17.358706
3221  2023-10-25 16:18:17.390612
3222  2023-10-25 16:18:17.422530
3223  2023-10-25 16:18:17.454438
3224  2023-10-25 16:18:17.488338
3225  2023-10-25 16:18:17.519270
3226  2023-10-25 16:18:17.567128
3227  2023-10-25 16:18:17.599041
3228  2023-10-25 16:18:17.630970
3229  2023-10-25 16:18:17.662844
3230  2023-10-25 16:18:17.694800
3231  2023-10-25 16:18:17.726668
3232  2023-10-25 16:18:17.758619
3233  2023-10-25 16:18:17.790536
3234  2023-10-25 16:18:17.822445
3235  2023-10-25 16:18:17.854359
3236  2023-10-25 16:18:17.887276
3237  2023-10-25 16:18:17.919186
3238  2023-10-25 16:18:17.967067
3239  2023-10-25 16:18:17.998973
3240  2023-10-25 16:18:18.030966
3241  2023-10-25 16:18:18.062878
3242  2023-10-25 16:18:18.094795
3243  2023-10-25 16:18:18.126700
3244  2023-10-25 16:18:18.158620
3245  2023-10-25 16:18:18.190546
3246  2023-10-25 16:18:18.222414
3247  2023-10-25 16:18:18.254243
3248  2023-10-25 16:18:18.287256
3249  2023-10-25 16:18:18.319178
3250  2023-10-25 16:18:18.367047
3251  2023-10-25 16:18:18.398968
3252  2023-10-25 16:18:18.430981
3253  2023-10-25 16:18:18.462937
3254  2023-10-25 16:18:18.494889
3255  2023-10-25 16:18:18.526804
3256  2023-10-25 16:18:18.558739
3257  2023-10-25 16:18:18.590749
3258  2023-10-25 16:18:18.622669
3259  2023-10-25 16:18:18.654610
3260  2023-10-25 16:18:18.687502
3261  2023-10-25 16:18:18.719430
3262  2023-10-25 16:18:18.766292
3263  2023-10-25 16:18:18.799240
3264  2023-10-25 16:18:18.831129
3265  2023-10-25 16:18:18.863077
3266  2023-10-25 16:18:18.894963
3267  2023-10-25 16:18:18.926980
3268  2023-10-25 16:18:18.958897
3269  2023-10-25 16:18:18.990846
3270  2023-10-25 16:18:19.022752
3271  2023-10-25 16:18:19.054610
3272  2023-10-25 16:18:19.087570
3273  2023-10-25 16:18:19.119438
3274  2023-10-25 16:18:19.166360
3275  2023-10-25 16:18:19.199231
3276  2023-10-25 16:18:19.231139
3277  2023-10-25 16:18:19.263052
3278  2023-10-25 16:18:19.295011
3279  2023-10-25 16:18:19.326919
3280  2023-10-25 16:18:19.358856
3281  2023-10-25 16:18:19.390755
3282  2023-10-25 16:18:19.422709
3283  2023-10-25 16:18:19.454663
3284  2023-10-25 16:18:19.488603
3285  2023-10-25 16:18:19.535451
3286  2023-10-25 16:18:19.568363
3287  2023-10-25 16:18:19.598280
3288  2023-10-25 16:18:19.631205
3289  2023-10-25 16:18:19.663104
3290  2023-10-25 16:18:19.695011
3291  2023-10-25 16:18:19.726925
3292  2023-10-25 16:18:19.758811
3293  2023-10-25 16:18:19.790784
3294  2023-10-25 16:18:19.822669
3295  2023-10-25 16:18:19.854553
3296  2023-10-25 16:18:19.886469
3297  2023-10-25 16:18:19.934340
3298  2023-10-25 16:18:19.966315
3299  2023-10-25 16:18:19.999210
3300  2023-10-25 16:18:20.031119
3301  2023-10-25 16:18:20.063169
3302  2023-10-25 16:18:20.095076
3303  2023-10-25 16:18:20.126990
3304  2023-10-25 16:18:20.158905
3305  2023-10-25 16:18:20.190814
3306  2023-10-25 16:18:20.222763
3307  2023-10-25 16:18:20.254764
3308  2023-10-25 16:18:20.286727
3309  2023-10-25 16:18:20.334551
3310  2023-10-25 16:18:20.366467
3311  2023-10-25 16:18:20.398408
3312  2023-10-25 16:18:20.430340
3313  2023-10-25 16:18:20.462286
3314  2023-10-25 16:18:20.494237
3315  2023-10-25 16:18:20.526283
3316  2023-10-25 16:18:20.559171
3317  2023-10-25 16:18:20.591085
3318  2023-10-25 16:18:20.623153
3319  2023-10-25 16:18:20.655168
3320  2023-10-25 16:18:20.687042
3321  2023-10-25 16:18:20.734954
3322  2023-10-25 16:18:20.766860
3323  2023-10-25 16:18:20.798776
3324  2023-10-25 16:18:20.830689
3325  2023-10-25 16:18:20.862610
3326  2023-10-25 16:18:20.894517
3327  2023-10-25 16:18:20.926557
3328  2023-10-25 16:18:20.958436
3329  2023-10-25 16:18:20.990555
3330  2023-10-25 16:18:21.023411
3331  2023-10-25 16:18:21.054365
3332  2023-10-25 16:18:21.087248
3333  2023-10-25 16:18:21.135141
3334  2023-10-25 16:18:21.167058
3335  2023-10-25 16:18:21.198974
3336  2023-10-25 16:18:21.230895
3337  2023-10-25 16:18:21.262769
3338  2023-10-25 16:18:21.294709
3339  2023-10-25 16:18:21.326637
3340  2023-10-25 16:18:21.358515
3341  2023-10-25 16:18:21.390479
3342  2023-10-25 16:18:21.422373
3343  2023-10-25 16:18:21.454299
3344  2023-10-25 16:18:21.487309
3345  2023-10-25 16:18:21.535057
3346  2023-10-25 16:18:21.567050
3347  2023-10-25 16:18:21.598964
3348  2023-10-25 16:18:21.630877
3349  2023-10-25 16:18:21.662791
3350  2023-10-25 16:18:21.694711
3351  2023-10-25 16:18:21.726590
3352  2023-10-25 16:18:21.758606
3353  2023-10-25 16:18:21.790519
3354  2023-10-25 16:18:21.822429
3355  2023-10-25 16:18:21.854348
3356  2023-10-25 16:18:21.887235
3357  2023-10-25 16:18:21.935140
3358  2023-10-25 16:18:21.967044
3359  2023-10-25 16:18:21.998966
3360  2023-10-25 16:18:22.030842
3361  2023-10-25 16:18:22.062793
3362  2023-10-25 16:18:22.094672
3363  2023-10-25 16:18:22.126622
3364  2023-10-25 16:18:22.158525
3365  2023-10-25 16:18:22.190455
3366  2023-10-25 16:18:22.223361
3367  2023-10-25 16:18:22.255242
3368  2023-10-25 16:18:22.287187
3369  2023-10-25 16:18:22.335068
3370  2023-10-25 16:18:22.366981
3371  2023-10-25 16:18:22.398860
3372  2023-10-25 16:18:22.430822
3373  2023-10-25 16:18:22.462741
3374  2023-10-25 16:18:22.494628
3375  2023-10-25 16:18:22.526549
3376  2023-10-25 16:18:22.558464
3377  2023-10-25 16:18:22.590346
3378  2023-10-25 16:18:22.622298
3379  2023-10-25 16:18:22.655222
3380  2023-10-25 16:18:22.687200
3381  2023-10-25 16:18:22.735101
3382  2023-10-25 16:18:22.767195
3383  2023-10-25 16:18:22.799185
3384  2023-10-25 16:18:22.831208
3385  2023-10-25 16:18:22.863277
3386  2023-10-25 16:18:22.895165
3387  2023-10-25 16:18:22.927080
3388  2023-10-25 16:18:22.959133
3389  2023-10-25 16:18:22.991043
3390  2023-10-25 16:18:23.023191
3391  2023-10-25 16:18:23.055143
3392  2023-10-25 16:18:23.087173
3393  2023-10-25 16:18:23.135103
3394  2023-10-25 16:18:23.167151
3395  2023-10-25 16:18:23.199025
3396  2023-10-25 16:18:23.231010
3397  2023-10-25 16:18:23.263015
3398  2023-10-25 16:18:23.294935
3399  2023-10-25 16:18:23.326965
3400  2023-10-25 16:18:23.358956
3401  2023-10-25 16:18:23.391016
3402  2023-10-25 16:18:23.422948
3403  2023-10-25 16:18:23.454863
3404  2023-10-25 16:18:23.502735
3405  2023-10-25 16:18:23.534721
3406  2023-10-25 16:18:23.566651
3407  2023-10-25 16:18:23.598561
3408  2023-10-25 16:18:23.630448
3409  2023-10-25 16:18:23.662324
3410  2023-10-25 16:18:23.694239
3411  2023-10-25 16:18:23.727189
3412  2023-10-25 16:18:23.759224
3413  2023-10-25 16:18:23.791144
3414  2023-10-25 16:18:23.823126
3415  2023-10-25 16:18:23.855158
3416  2023-10-25 16:18:23.903194
3417  2023-10-25 16:18:23.935112
3418  2023-10-25 16:18:23.967021
3419  2023-10-25 16:18:23.998935
3420  2023-10-25 16:18:24.030851
3421  2023-10-25 16:18:24.062764
3422  2023-10-25 16:18:24.094653
3423  2023-10-25 16:18:24.126604
3424  2023-10-25 16:18:24.158508
3425  2023-10-25 16:18:24.190427
3426  2023-10-25 16:18:24.222339
3427  2023-10-25 16:18:24.254256
3428  2023-10-25 16:18:24.302401
3429  2023-10-25 16:18:24.334443
3430  2023-10-25 16:18:24.366357
3431  2023-10-25 16:18:24.398272
3432  2023-10-25 16:18:24.431204
3433  2023-10-25 16:18:24.463125
3434  2023-10-25 16:18:24.495011
3435  2023-10-25 16:18:24.526927
3436  2023-10-25 16:18:24.558841
3437  2023-10-25 16:18:24.590778
3438  2023-10-25 16:18:24.622671
3439  2023-10-25 16:18:24.654606
3440  2023-10-25 16:18:24.702456
3441  2023-10-25 16:18:24.735369
3442  2023-10-25 16:18:24.767285
3443  2023-10-25 16:18:24.799200
3444  2023-10-25 16:18:24.831115
3445  2023-10-25 16:18:24.863022
3446  2023-10-25 16:18:24.894944
3447  2023-10-25 16:18:24.926825
3448  2023-10-25 16:18:24.958742
3449  2023-10-25 16:18:24.990689
3450  2023-10-25 16:18:25.022605
3451  2023-10-25 16:18:25.054513
3452  2023-10-25 16:18:25.103386
3453  2023-10-25 16:18:25.134304
3454  2023-10-25 16:18:25.167233
3455  2023-10-25 16:18:25.199097
3456  2023-10-25 16:18:25.231047
3457  2023-10-25 16:18:25.262960
3458  2023-10-25 16:18:25.294872
3459  2023-10-25 16:18:25.326790
3460  2023-10-25 16:18:25.358472
3461  2023-10-25 16:18:25.390455
3462  2023-10-25 16:18:25.422379
3463  2023-10-25 16:18:25.454283
3464  2023-10-25 16:18:25.503160
3465  2023-10-25 16:18:25.535064
3466  2023-10-25 16:18:25.566951
3467  2023-10-25 16:18:25.598899
3468  2023-10-25 16:18:25.630823
3469  2023-10-25 16:18:25.662738
3470  2023-10-25 16:18:25.694642
3471  2023-10-25 16:18:25.726558
3472  2023-10-25 16:18:25.758473
3473  2023-10-25 16:18:25.790404
3474  2023-10-25 16:18:25.823311
3475  2023-10-25 16:18:25.855180
3476  2023-10-25 16:18:25.903083
3477  2023-10-25 16:18:25.934999
3478  2023-10-25 16:18:25.966914
3479  2023-10-25 16:18:25.998828
3480  2023-10-25 16:18:26.030743
3481  2023-10-25 16:18:26.062669
3482  2023-10-25 16:18:26.094647
3483  2023-10-25 16:18:26.126604
3484  2023-10-25 16:18:26.158507
3485  2023-10-25 16:18:26.190423
3486  2023-10-25 16:18:26.223356
3487  2023-10-25 16:18:26.255222
3488  2023-10-25 16:18:26.303122
3489  2023-10-25 16:18:26.335036
3490  2023-10-25 16:18:26.366953
3491  2023-10-25 16:18:26.398850
3492  2023-10-25 16:18:26.430781
3493  2023-10-25 16:18:26.462710
3494  2023-10-25 16:18:26.494608
3495  2023-10-25 16:18:26.526522
3496  2023-10-25 16:18:26.558437
3497  2023-10-25 16:18:26.590363
3498  2023-10-25 16:18:26.622267
3499  2023-10-25 16:18:26.655179
3500  2023-10-25 16:18:26.703022
3501  2023-10-25 16:18:26.734965
3502  2023-10-25 16:18:26.766874
3503  2023-10-25 16:18:26.798795
3504  2023-10-25 16:18:26.830712
3505  2023-10-25 16:18:26.862624
3506  2023-10-25 16:18:26.894539
3507  2023-10-25 16:18:26.926453
3508  2023-10-25 16:18:26.958366
3509  2023-10-25 16:18:26.991293
3510  2023-10-25 16:18:27.023211
3511  2023-10-25 16:18:27.071075
3512  2023-10-25 16:18:27.102989
3513  2023-10-25 16:18:27.134905
3514  2023-10-25 16:18:27.166812
3515  2023-10-25 16:18:27.198719
3516  2023-10-25 16:18:27.230690
3517  2023-10-25 16:18:27.262555
3518  2023-10-25 16:18:27.294469
3519  2023-10-25 16:18:27.326385
3520  2023-10-25 16:18:27.358304
3521  2023-10-25 16:18:27.390218
3522  2023-10-25 16:18:27.423125
3523  2023-10-25 16:18:27.470998
3524  2023-10-25 16:18:27.502912
3525  2023-10-25 16:18:27.534827
3526  2023-10-25 16:18:27.566740
3527  2023-10-25 16:18:27.598660
3528  2023-10-25 16:18:27.630574
3529  2023-10-25 16:18:27.662482
3530  2023-10-25 16:18:27.694397
3531  2023-10-25 16:18:27.726313
3532  2023-10-25 16:18:27.759194
3533  2023-10-25 16:18:27.791164
3534  2023-10-25 16:18:27.823059
3535  2023-10-25 16:18:27.870929
3536  2023-10-25 16:18:27.902844
3537  2023-10-25 16:18:27.934760
3538  2023-10-25 16:18:27.966690
3539  2023-10-25 16:18:27.998586
3540  2023-10-25 16:18:28.030504
3541  2023-10-25 16:18:28.063414
3542  2023-10-25 16:18:28.094328
3543  2023-10-25 16:18:28.126251
3544  2023-10-25 16:18:28.159159
3545  2023-10-25 16:18:28.191073
3546  2023-10-25 16:18:28.222989
3547  2023-10-25 16:18:28.270858
3548  2023-10-25 16:18:28.302780
3549  2023-10-25 16:18:28.334692
3550  2023-10-25 16:18:28.366609
3551  2023-10-25 16:18:28.399507
3552  2023-10-25 16:18:28.430439
3553  2023-10-25 16:18:28.463315
3554  2023-10-25 16:18:28.494267
3555  2023-10-25 16:18:28.527188
3556  2023-10-25 16:18:28.559055
3557  2023-10-25 16:18:28.591020
3558  2023-10-25 16:18:28.622918
3559  2023-10-25 16:18:28.670786
3560  2023-10-25 16:18:28.702708
3561  2023-10-25 16:18:28.734638
