
1  2023-11-23 12:28:54.548429
2  2023-11-23 12:28:54.581341
3  2023-11-23 12:28:54.612258
4  2023-11-23 12:28:54.645170
5  2023-11-23 12:28:54.693042
6  2023-11-23 12:28:54.724957
7  2023-11-23 12:28:54.756871
8  2023-11-23 12:28:54.788753
9  2023-11-23 12:28:54.820668
10  2023-11-23 12:28:54.852583
11  2023-11-23 12:28:54.884550
12  2023-11-23 12:28:54.916456
13  2023-11-23 12:28:54.948394
14  2023-11-23 12:28:54.980324
15  2023-11-23 12:28:55.012232
16  2023-11-23 12:28:55.060101
17  2023-11-23 12:28:55.093021
18  2023-11-23 12:28:55.124899
19  2023-11-23 12:28:55.156861
20  2023-11-23 12:28:55.188777
21  2023-11-23 12:28:55.220691
22  2023-11-23 12:28:55.252605
23  2023-11-23 12:28:55.284521
24  2023-11-23 12:28:55.316467
25  2023-11-23 12:28:55.348380
26  2023-11-23 12:28:55.380302
27  2023-11-23 12:28:55.413176
28  2023-11-23 12:28:55.461048
29  2023-11-23 12:28:55.492963
30  2023-11-23 12:28:55.524878
31  2023-11-23 12:28:55.556793
32  2023-11-23 12:28:55.588707
33  2023-11-23 12:28:55.620620
34  2023-11-23 12:28:55.652536
35  2023-11-23 12:28:55.684485
36  2023-11-23 12:28:55.716406
37  2023-11-23 12:28:55.748310
38  2023-11-23 12:28:55.780226
39  2023-11-23 12:28:55.812140
40  2023-11-23 12:28:55.860979
41  2023-11-23 12:28:55.892894
42  2023-11-23 12:28:55.924809
43  2023-11-23 12:28:55.956723
44  2023-11-23 12:28:55.988638
45  2023-11-23 12:28:56.020553
46  2023-11-23 12:28:56.052499
47  2023-11-23 12:28:56.084424
48  2023-11-23 12:28:56.116327
49  2023-11-23 12:28:56.148243
50  2023-11-23 12:28:56.180178
51  2023-11-23 12:28:56.212092
52  2023-11-23 12:28:56.261058
53  2023-11-23 12:28:56.292876
54  2023-11-23 12:28:56.324791
55  2023-11-23 12:28:56.356712
56  2023-11-23 12:28:56.388773
57  2023-11-23 12:28:56.420694
58  2023-11-23 12:28:56.452600
59  2023-11-23 12:28:56.484514
60  2023-11-23 12:28:56.516430
61  2023-11-23 12:28:56.548421
62  2023-11-23 12:28:56.580353
63  2023-11-23 12:28:56.612267
64  2023-11-23 12:28:56.661168
65  2023-11-23 12:28:56.693051
66  2023-11-23 12:28:56.724978
67  2023-11-23 12:28:56.756912
68  2023-11-23 12:28:56.788832
69  2023-11-23 12:28:56.820709
70  2023-11-23 12:28:56.852625
71  2023-11-23 12:28:56.884539
72  2023-11-23 12:28:56.916485
73  2023-11-23 12:28:56.948368
74  2023-11-23 12:28:56.980283
75  2023-11-23 12:28:57.012198
76  2023-11-23 12:28:57.061067
77  2023-11-23 12:28:57.092992
78  2023-11-23 12:28:57.124896
79  2023-11-23 12:28:57.157000
80  2023-11-23 12:28:57.188901
81  2023-11-23 12:28:57.220816
82  2023-11-23 12:28:57.252731
83  2023-11-23 12:28:57.284646
84  2023-11-23 12:28:57.316560
85  2023-11-23 12:28:57.348477
86  2023-11-23 12:28:57.381393
87  2023-11-23 12:28:57.413303
88  2023-11-23 12:28:57.460177
89  2023-11-23 12:28:57.493090
90  2023-11-23 12:28:57.525003
91  2023-11-23 12:28:57.556918
92  2023-11-23 12:28:57.588832
93  2023-11-23 12:28:57.620748
94  2023-11-23 12:28:57.652662
95  2023-11-23 12:28:57.684576
96  2023-11-23 12:28:57.716491
97  2023-11-23 12:28:57.748156
98  2023-11-23 12:28:57.780102
99  2023-11-23 12:28:57.812983
100  2023-11-23 12:28:57.860935
101  2023-11-23 12:28:57.892900
102  2023-11-23 12:28:57.924814
103  2023-11-23 12:28:57.956807
104  2023-11-23 12:28:57.989043
105  2023-11-23 12:28:58.020958
106  2023-11-23 12:28:58.052872
107  2023-11-23 12:28:58.084787
108  2023-11-23 12:28:58.116702
109  2023-11-23 12:28:58.148617
110  2023-11-23 12:28:58.180544
111  2023-11-23 12:28:58.212446
112  2023-11-23 12:28:58.260318
113  2023-11-23 12:28:58.292333
114  2023-11-23 12:28:58.324248
115  2023-11-23 12:28:58.357161
116  2023-11-23 12:28:58.388076
117  2023-11-23 12:28:58.420968
118  2023-11-23 12:28:58.452874
119  2023-11-23 12:28:58.484789
120  2023-11-23 12:28:58.516703
121  2023-11-23 12:28:58.548618
122  2023-11-23 12:28:58.580531
123  2023-11-23 12:28:58.628439
124  2023-11-23 12:28:58.660358
125  2023-11-23 12:28:58.692264
126  2023-11-23 12:28:58.724179
127  2023-11-23 12:28:58.756135
128  2023-11-23 12:28:58.789043
129  2023-11-23 12:28:58.820961
130  2023-11-23 12:28:58.852898
131  2023-11-23 12:28:58.884813
132  2023-11-23 12:28:58.916727
133  2023-11-23 12:28:58.948642
134  2023-11-23 12:28:58.980557
135  2023-11-23 12:28:59.028429
136  2023-11-23 12:28:59.060343
137  2023-11-23 12:28:59.092258
138  2023-11-23 12:28:59.124173
139  2023-11-23 12:28:59.156087
140  2023-11-23 12:28:59.189000
141  2023-11-23 12:28:59.220914
142  2023-11-23 12:28:59.252917
143  2023-11-23 12:28:59.284829
144  2023-11-23 12:28:59.316744
145  2023-11-23 12:28:59.348628
146  2023-11-23 12:28:59.380543
147  2023-11-23 12:28:59.428414
148  2023-11-23 12:28:59.460361
149  2023-11-23 12:28:59.492321
150  2023-11-23 12:28:59.524236
151  2023-11-23 12:28:59.556165
152  2023-11-23 12:28:59.589031
153  2023-11-23 12:28:59.620976
154  2023-11-23 12:28:59.652891
155  2023-11-23 12:28:59.684808
156  2023-11-23 12:28:59.716720
157  2023-11-23 12:28:59.748635
158  2023-11-23 12:28:59.780569
159  2023-11-23 12:28:59.828428
160  2023-11-23 12:28:59.860338
161  2023-11-23 12:28:59.892254
162  2023-11-23 12:28:59.925132
163  2023-11-23 12:28:59.957048
164  2023-11-23 12:28:59.988957
165  2023-11-23 12:29:00.020837
166  2023-11-23 12:29:00.052794
167  2023-11-23 12:29:00.084699
168  2023-11-23 12:29:00.116582
169  2023-11-23 12:29:00.148496
170  2023-11-23 12:29:00.180411
171  2023-11-23 12:29:00.228322
172  2023-11-23 12:29:00.260200
173  2023-11-23 12:29:00.292148
174  2023-11-23 12:29:00.325065
175  2023-11-23 12:29:00.356988
176  2023-11-23 12:29:00.388895
177  2023-11-23 12:29:00.420809
178  2023-11-23 12:29:00.452724
179  2023-11-23 12:29:00.484638
180  2023-11-23 12:29:00.516553
181  2023-11-23 12:29:00.548507
182  2023-11-23 12:29:00.580381
183  2023-11-23 12:29:00.628253
184  2023-11-23 12:29:00.660168
185  2023-11-23 12:29:00.693080
186  2023-11-23 12:29:00.724995
187  2023-11-23 12:29:00.756909
188  2023-11-23 12:29:00.788861
189  2023-11-23 12:29:00.820775
190  2023-11-23 12:29:00.852691
191  2023-11-23 12:29:00.884614
192  2023-11-23 12:29:00.916520
193  2023-11-23 12:29:00.948434
194  2023-11-23 12:29:00.980349
195  2023-11-23 12:29:01.029220
196  2023-11-23 12:29:01.061134
197  2023-11-23 12:29:01.093048
198  2023-11-23 12:29:01.124962
199  2023-11-23 12:29:01.156877
200  2023-11-23 12:29:01.188791
201  2023-11-23 12:29:01.220706
202  2023-11-23 12:29:01.252621
203  2023-11-23 12:29:01.284536
204  2023-11-23 12:29:01.316450
205  2023-11-23 12:29:01.348365
206  2023-11-23 12:29:01.380280
207  2023-11-23 12:29:01.429159
208  2023-11-23 12:29:01.461066
209  2023-11-23 12:29:01.492981
210  2023-11-23 12:29:01.524927
211  2023-11-23 12:29:01.556808
212  2023-11-23 12:29:01.588728
213  2023-11-23 12:29:01.620640
214  2023-11-23 12:29:01.652730
215  2023-11-23 12:29:01.684609
216  2023-11-23 12:29:01.716531
217  2023-11-23 12:29:01.748608
218  2023-11-23 12:29:01.780528
219  2023-11-23 12:29:01.828878
220  2023-11-23 12:29:01.860793
221  2023-11-23 12:29:01.892741
222  2023-11-23 12:29:01.924623
223  2023-11-23 12:29:01.956538
224  2023-11-23 12:29:01.988452
225  2023-11-23 12:29:02.020493
226  2023-11-23 12:29:02.052362
227  2023-11-23 12:29:02.084377
228  2023-11-23 12:29:02.116342
229  2023-11-23 12:29:02.148256
230  2023-11-23 12:29:02.181200
231  2023-11-23 12:29:02.229041
232  2023-11-23 12:29:02.260956
233  2023-11-23 12:29:02.292911
234  2023-11-23 12:29:02.324937
235  2023-11-23 12:29:02.356883
236  2023-11-23 12:29:02.388787
237  2023-11-23 12:29:02.420681
238  2023-11-23 12:29:02.452595
239  2023-11-23 12:29:02.484510
240  2023-11-23 12:29:02.516454
241  2023-11-23 12:29:02.548339
242  2023-11-23 12:29:02.596244
243  2023-11-23 12:29:02.628126
244  2023-11-23 12:29:02.661075
245  2023-11-23 12:29:02.692977
246  2023-11-23 12:29:02.724867
247  2023-11-23 12:29:02.756782
248  2023-11-23 12:29:02.788697
249  2023-11-23 12:29:02.820663
250  2023-11-23 12:29:02.852526
251  2023-11-23 12:29:02.884467
252  2023-11-23 12:29:02.917354
253  2023-11-23 12:29:02.948270
254  2023-11-23 12:29:02.997141
255  2023-11-23 12:29:03.028057
256  2023-11-23 12:29:03.060959
257  2023-11-23 12:29:03.092922
258  2023-11-23 12:29:03.124871
259  2023-11-23 12:29:03.156792
260  2023-11-23 12:29:03.188697
261  2023-11-23 12:29:03.220610
262  2023-11-23 12:29:03.252497
263  2023-11-23 12:29:03.284437
264  2023-11-23 12:29:03.316371
265  2023-11-23 12:29:03.348386
266  2023-11-23 12:29:03.396221
267  2023-11-23 12:29:03.428137
268  2023-11-23 12:29:03.461088
269  2023-11-23 12:29:03.493019
270  2023-11-23 12:29:03.524909
271  2023-11-23 12:29:03.556847
272  2023-11-23 12:29:03.588881
273  2023-11-23 12:29:03.620785
274  2023-11-23 12:29:03.652695
275  2023-11-23 12:29:03.684584
276  2023-11-23 12:29:03.716575
277  2023-11-23 12:29:03.748541
278  2023-11-23 12:29:03.796426
279  2023-11-23 12:29:03.828318
280  2023-11-23 12:29:03.860223
281  2023-11-23 12:29:03.892137
282  2023-11-23 12:29:03.924055
283  2023-11-23 12:29:03.956974
284  2023-11-23 12:29:03.988880
285  2023-11-23 12:29:04.020802
286  2023-11-23 12:29:04.052708
287  2023-11-23 12:29:04.084592
288  2023-11-23 12:29:04.116557
289  2023-11-23 12:29:04.148461
290  2023-11-23 12:29:04.196424
291  2023-11-23 12:29:04.228338
292  2023-11-23 12:29:04.260295
293  2023-11-23 12:29:04.292200
294  2023-11-23 12:29:04.324082
295  2023-11-23 12:29:04.357000
296  2023-11-23 12:29:04.388966
297  2023-11-23 12:29:04.420981
298  2023-11-23 12:29:04.452899
299  2023-11-23 12:29:04.484780
300  2023-11-23 12:29:04.516695
301  2023-11-23 12:29:04.548644
302  2023-11-23 12:29:04.596481
303  2023-11-23 12:29:04.628431
304  2023-11-23 12:29:04.660361
305  2023-11-23 12:29:04.692279
306  2023-11-23 12:29:04.725137
307  2023-11-23 12:29:04.756090
308  2023-11-23 12:29:04.789018
309  2023-11-23 12:29:04.820913
310  2023-11-23 12:29:04.852827
311  2023-11-23 12:29:04.884742
312  2023-11-23 12:29:04.916658
313  2023-11-23 12:29:04.948573
314  2023-11-23 12:29:04.996475
315  2023-11-23 12:29:05.028358
316  2023-11-23 12:29:05.060274
317  2023-11-23 12:29:05.092197
318  2023-11-23 12:29:05.124108
319  2023-11-23 12:29:05.156983
320  2023-11-23 12:29:05.188898
321  2023-11-23 12:29:05.220845
322  2023-11-23 12:29:05.252761
323  2023-11-23 12:29:05.284676
324  2023-11-23 12:29:05.316556
325  2023-11-23 12:29:05.348523
326  2023-11-23 12:29:05.396383
327  2023-11-23 12:29:05.428294
328  2023-11-23 12:29:05.460220
329  2023-11-23 12:29:05.492271
330  2023-11-23 12:29:05.524179
331  2023-11-23 12:29:05.557094
332  2023-11-23 12:29:05.588212
333  2023-11-23 12:29:05.620210
334  2023-11-23 12:29:05.652131
335  2023-11-23 12:29:05.684995
336  2023-11-23 12:29:05.716910
337  2023-11-23 12:29:05.748824
338  2023-11-23 12:29:05.796728
339  2023-11-23 12:29:05.828745
340  2023-11-23 12:29:05.860652
341  2023-11-23 12:29:05.892585
342  2023-11-23 12:29:05.924638
343  2023-11-23 12:29:05.956526
344  2023-11-23 12:29:05.988484
345  2023-11-23 12:29:06.020400
346  2023-11-23 12:29:06.052304
347  2023-11-23 12:29:06.085321
348  2023-11-23 12:29:06.117238
349  2023-11-23 12:29:06.165136
350  2023-11-23 12:29:06.197056
351  2023-11-23 12:29:06.228988
352  2023-11-23 12:29:06.260881
353  2023-11-23 12:29:06.292768
354  2023-11-23 12:29:06.324683
355  2023-11-23 12:29:06.356629
356  2023-11-23 12:29:06.388565
357  2023-11-23 12:29:06.420566
358  2023-11-23 12:29:06.452478
359  2023-11-23 12:29:06.484401
360  2023-11-23 12:29:06.516272
361  2023-11-23 12:29:06.564178
362  2023-11-23 12:29:06.597088
363  2023-11-23 12:29:06.629003
364  2023-11-23 12:29:06.660916
365  2023-11-23 12:29:06.692800
366  2023-11-23 12:29:06.724745
367  2023-11-23 12:29:06.756682
368  2023-11-23 12:29:06.788596
369  2023-11-23 12:29:06.820511
370  2023-11-23 12:29:06.852513
371  2023-11-23 12:29:06.884431
372  2023-11-23 12:29:06.916340
373  2023-11-23 12:29:06.964225
374  2023-11-23 12:29:06.996123
375  2023-11-23 12:29:07.029034
376  2023-11-23 12:29:07.060955
377  2023-11-23 12:29:07.092946
378  2023-11-23 12:29:07.124865
379  2023-11-23 12:29:07.156775
380  2023-11-23 12:29:07.188619
381  2023-11-23 12:29:07.220608
382  2023-11-23 12:29:07.252515
383  2023-11-23 12:29:07.284426
384  2023-11-23 12:29:07.316310
385  2023-11-23 12:29:07.364218
386  2023-11-23 12:29:07.396133
387  2023-11-23 12:29:07.428047
388  2023-11-23 12:29:07.460963
389  2023-11-23 12:29:07.492871
390  2023-11-23 12:29:07.524783
391  2023-11-23 12:29:07.556700
392  2023-11-23 12:29:07.588618
393  2023-11-23 12:29:07.620544
394  2023-11-23 12:29:07.652447
395  2023-11-23 12:29:07.684360
396  2023-11-23 12:29:07.716273
397  2023-11-23 12:29:07.765174
398  2023-11-23 12:29:07.797056
399  2023-11-23 12:29:07.828940
400  2023-11-23 12:29:07.860888
401  2023-11-23 12:29:07.892804
402  2023-11-23 12:29:07.924712
403  2023-11-23 12:29:07.956637
404  2023-11-23 12:29:07.988555
405  2023-11-23 12:29:08.020427
406  2023-11-23 12:29:08.052376
407  2023-11-23 12:29:08.084318
408  2023-11-23 12:29:08.116233
409  2023-11-23 12:29:08.164153
410  2023-11-23 12:29:08.196068
411  2023-11-23 12:29:08.229001
412  2023-11-23 12:29:08.260963
413  2023-11-23 12:29:08.292886
414  2023-11-23 12:29:08.324793
415  2023-11-23 12:29:08.356708
416  2023-11-23 12:29:08.388627
417  2023-11-23 12:29:08.420551
418  2023-11-23 12:29:08.452455
419  2023-11-23 12:29:08.484374
420  2023-11-23 12:29:08.517281
421  2023-11-23 12:29:08.564162
422  2023-11-23 12:29:08.597081
423  2023-11-23 12:29:08.628993
424  2023-11-23 12:29:08.660895
425  2023-11-23 12:29:08.692808
426  2023-11-23 12:29:08.724723
427  2023-11-23 12:29:08.756643
428  2023-11-23 12:29:08.788570
429  2023-11-23 12:29:08.820483
430  2023-11-23 12:29:08.852384
431  2023-11-23 12:29:08.884296
432  2023-11-23 12:29:08.917180
433  2023-11-23 12:29:08.964057
434  2023-11-23 12:29:08.997029
435  2023-11-23 12:29:09.028910
436  2023-11-23 12:29:09.060822
437  2023-11-23 12:29:09.092739
438  2023-11-23 12:29:09.124660
439  2023-11-23 12:29:09.156576
440  2023-11-23 12:29:09.188499
441  2023-11-23 12:29:09.220418
442  2023-11-23 12:29:09.252313
443  2023-11-23 12:29:09.284230
444  2023-11-23 12:29:09.316144
445  2023-11-23 12:29:09.365013
446  2023-11-23 12:29:09.396926
447  2023-11-23 12:29:09.428841
448  2023-11-23 12:29:09.460764
449  2023-11-23 12:29:09.492678
450  2023-11-23 12:29:09.524722
451  2023-11-23 12:29:09.556640
452  2023-11-23 12:29:09.588569
453  2023-11-23 12:29:09.620484
454  2023-11-23 12:29:09.652384
455  2023-11-23 12:29:09.684300
456  2023-11-23 12:29:09.716221
457  2023-11-23 12:29:09.764087
458  2023-11-23 12:29:09.797004
459  2023-11-23 12:29:09.828878
460  2023-11-23 12:29:09.860793
461  2023-11-23 12:29:09.892761
462  2023-11-23 12:29:09.924654
463  2023-11-23 12:29:09.956569
464  2023-11-23 12:29:09.988478
465  2023-11-23 12:29:10.020419
466  2023-11-23 12:29:10.052317
467  2023-11-23 12:29:10.084230
468  2023-11-23 12:29:10.133096
469  2023-11-23 12:29:10.164014
470  2023-11-23 12:29:10.196926
471  2023-11-23 12:29:10.228808
472  2023-11-23 12:29:10.260723
473  2023-11-23 12:29:10.292671
474  2023-11-23 12:29:10.324583
475  2023-11-23 12:29:10.356508
476  2023-11-23 12:29:10.388433
477  2023-11-23 12:29:10.420330
478  2023-11-23 12:29:10.453243
479  2023-11-23 12:29:10.484159
480  2023-11-23 12:29:10.533029
481  2023-11-23 12:29:10.564959
482  2023-11-23 12:29:10.596857
483  2023-11-23 12:29:10.628739
484  2023-11-23 12:29:10.660654
485  2023-11-23 12:29:10.692603
486  2023-11-23 12:29:10.724515
487  2023-11-23 12:29:10.756426
488  2023-11-23 12:29:10.788347
489  2023-11-23 12:29:10.820227
490  2023-11-23 12:29:10.852142
491  2023-11-23 12:29:10.885054
492  2023-11-23 12:29:10.932926
493  2023-11-23 12:29:10.964879
494  2023-11-23 12:29:10.996790
495  2023-11-23 12:29:11.028783
496  2023-11-23 12:29:11.060698
497  2023-11-23 12:29:11.092612
498  2023-11-23 12:29:11.124573
499  2023-11-23 12:29:11.156473
500  2023-11-23 12:29:11.188394
501  2023-11-23 12:29:11.220271
502  2023-11-23 12:29:11.252222
503  2023-11-23 12:29:11.284134
504  2023-11-23 12:29:11.332970
505  2023-11-23 12:29:11.364884
506  2023-11-23 12:29:11.396799
507  2023-11-23 12:29:11.428714
508  2023-11-23 12:29:11.460628
509  2023-11-23 12:29:11.492543
510  2023-11-23 12:29:11.524458
511  2023-11-23 12:29:11.556374
512  2023-11-23 12:29:11.588341
513  2023-11-23 12:29:11.620202
514  2023-11-23 12:29:11.652228
515  2023-11-23 12:29:11.684180
516  2023-11-23 12:29:11.733012
517  2023-11-23 12:29:11.765030
518  2023-11-23 12:29:11.796944
519  2023-11-23 12:29:11.828859
520  2023-11-23 12:29:11.860773
521  2023-11-23 12:29:11.892688
522  2023-11-23 12:29:11.924603
523  2023-11-23 12:29:11.956517
524  2023-11-23 12:29:11.988432
525  2023-11-23 12:29:12.020347
526  2023-11-23 12:29:12.052261
527  2023-11-23 12:29:12.084176
528  2023-11-23 12:29:12.133045
529  2023-11-23 12:29:12.164960
530  2023-11-23 12:29:12.196875
531  2023-11-23 12:29:12.228942
532  2023-11-23 12:29:12.260857
533  2023-11-23 12:29:12.292771
534  2023-11-23 12:29:12.324686
535  2023-11-23 12:29:12.356601
536  2023-11-23 12:29:12.388515
537  2023-11-23 12:29:12.420430
538  2023-11-23 12:29:12.453385
539  2023-11-23 12:29:12.484259
540  2023-11-23 12:29:12.533130
541  2023-11-23 12:29:12.564046
542  2023-11-23 12:29:12.596958
543  2023-11-23 12:29:12.628873
544  2023-11-23 12:29:12.660788
545  2023-11-23 12:29:12.692702
546  2023-11-23 12:29:12.724617
547  2023-11-23 12:29:12.756532
548  2023-11-23 12:29:12.788490
549  2023-11-23 12:29:12.820361
550  2023-11-23 12:29:12.852275
551  2023-11-23 12:29:12.885187
552  2023-11-23 12:29:12.933060
553  2023-11-23 12:29:12.964974
554  2023-11-23 12:29:12.996923
555  2023-11-23 12:29:13.028803
556  2023-11-23 12:29:13.060718
557  2023-11-23 12:29:13.092633
558  2023-11-23 12:29:13.124587
559  2023-11-23 12:29:13.156463
560  2023-11-23 12:29:13.188377
561  2023-11-23 12:29:13.220291
562  2023-11-23 12:29:13.252242
563  2023-11-23 12:29:13.284165
564  2023-11-23 12:29:13.332024
565  2023-11-23 12:29:13.364905
566  2023-11-23 12:29:13.396820
567  2023-11-23 12:29:13.428734
568  2023-11-23 12:29:13.460649
569  2023-11-23 12:29:13.492564
570  2023-11-23 12:29:13.524478
571  2023-11-23 12:29:13.556399
572  2023-11-23 12:29:13.588308
573  2023-11-23 12:29:13.620222
574  2023-11-23 12:29:13.653134
575  2023-11-23 12:29:13.701006
576  2023-11-23 12:29:13.732921
577  2023-11-23 12:29:13.764836
578  2023-11-23 12:29:13.796750
579  2023-11-23 12:29:13.828815
580  2023-11-23 12:29:13.860580
581  2023-11-23 12:29:13.892566
582  2023-11-23 12:29:13.924481
583  2023-11-23 12:29:13.956429
584  2023-11-23 12:29:13.989309
585  2023-11-23 12:29:14.020225
586  2023-11-23 12:29:14.052140
587  2023-11-23 12:29:14.100012
588  2023-11-23 12:29:14.133050
589  2023-11-23 12:29:14.165046
590  2023-11-23 12:29:14.196909
591  2023-11-23 12:29:14.228823
592  2023-11-23 12:29:14.260738
593  2023-11-23 12:29:14.292653
594  2023-11-23 12:29:14.324567
595  2023-11-23 12:29:14.356482
596  2023-11-23 12:29:14.388397
597  2023-11-23 12:29:14.420345
598  2023-11-23 12:29:14.452226
599  2023-11-23 12:29:14.500098
600  2023-11-23 12:29:14.533010
601  2023-11-23 12:29:14.564925
602  2023-11-23 12:29:14.596839
603  2023-11-23 12:29:14.628754
604  2023-11-23 12:29:14.660669
605  2023-11-23 12:29:14.692584
606  2023-11-23 12:29:14.724498
607  2023-11-23 12:29:14.756413
608  2023-11-23 12:29:14.788328
609  2023-11-23 12:29:14.820418
610  2023-11-23 12:29:14.852338
611  2023-11-23 12:29:14.901208
612  2023-11-23 12:29:14.933123
613  2023-11-23 12:29:14.965037
614  2023-11-23 12:29:14.996952
615  2023-11-23 12:29:15.028872
616  2023-11-23 12:29:15.060781
617  2023-11-23 12:29:15.092696
618  2023-11-23 12:29:15.124610
619  2023-11-23 12:29:15.156527
620  2023-11-23 12:29:15.188604
621  2023-11-23 12:29:15.220483
622  2023-11-23 12:29:15.252393
623  2023-11-23 12:29:15.300380
624  2023-11-23 12:29:15.333258
625  2023-11-23 12:29:15.365184
626  2023-11-23 12:29:15.396589
627  2023-11-23 12:29:15.429034
628  2023-11-23 12:29:15.460950
629  2023-11-23 12:29:15.492862
630  2023-11-23 12:29:15.524940
631  2023-11-23 12:29:15.556980
632  2023-11-23 12:29:15.588930
633  2023-11-23 12:29:15.620840
634  2023-11-23 12:29:15.652724
635  2023-11-23 12:29:15.700647
636  2023-11-23 12:29:15.732635
637  2023-11-23 12:29:15.764549
638  2023-11-23 12:29:15.796572
639  2023-11-23 12:29:15.828589
640  2023-11-23 12:29:15.860535
641  2023-11-23 12:29:15.892587
642  2023-11-23 12:29:15.924533
643  2023-11-23 12:29:15.956451
644  2023-11-23 12:29:15.988331
645  2023-11-23 12:29:16.020245
646  2023-11-23 12:29:16.052160
647  2023-11-23 12:29:16.100032
648  2023-11-23 12:29:16.132944
649  2023-11-23 12:29:16.164859
650  2023-11-23 12:29:16.196774
651  2023-11-23 12:29:16.228689
652  2023-11-23 12:29:16.260603
653  2023-11-23 12:29:16.292519
654  2023-11-23 12:29:16.324432
655  2023-11-23 12:29:16.356347
656  2023-11-23 12:29:16.388262
657  2023-11-23 12:29:16.420176
658  2023-11-23 12:29:16.453088
659  2023-11-23 12:29:16.500960
660  2023-11-23 12:29:16.532875
661  2023-11-23 12:29:16.564790
662  2023-11-23 12:29:16.596704
663  2023-11-23 12:29:16.628619
664  2023-11-23 12:29:16.660535
665  2023-11-23 12:29:16.692448
666  2023-11-23 12:29:16.724363
667  2023-11-23 12:29:16.756278
668  2023-11-23 12:29:16.789222
669  2023-11-23 12:29:16.821105
670  2023-11-23 12:29:16.853019
671  2023-11-23 12:29:16.900891
672  2023-11-23 12:29:16.932806
673  2023-11-23 12:29:16.964721
674  2023-11-23 12:29:16.996683
675  2023-11-23 12:29:17.028550
676  2023-11-23 12:29:17.060464
677  2023-11-23 12:29:17.092500
678  2023-11-23 12:29:17.124466
679  2023-11-23 12:29:17.156329
680  2023-11-23 12:29:17.188244
681  2023-11-23 12:29:17.220158
682  2023-11-23 12:29:17.252108
683  2023-11-23 12:29:17.300942
684  2023-11-23 12:29:17.332888
685  2023-11-23 12:29:17.364772
686  2023-11-23 12:29:17.396699
687  2023-11-23 12:29:17.428601
688  2023-11-23 12:29:17.460550
689  2023-11-23 12:29:17.492471
690  2023-11-23 12:29:17.524393
691  2023-11-23 12:29:17.556307
692  2023-11-23 12:29:17.588222
693  2023-11-23 12:29:17.620137
694  2023-11-23 12:29:17.669006
695  2023-11-23 12:29:17.700921
696  2023-11-23 12:29:17.732934
697  2023-11-23 12:29:17.764929
698  2023-11-23 12:29:17.796936
699  2023-11-23 12:29:17.828845
700  2023-11-23 12:29:17.860759
701  2023-11-23 12:29:17.892674
702  2023-11-23 12:29:17.924589
703  2023-11-23 12:29:17.956503
704  2023-11-23 12:29:17.988418
705  2023-11-23 12:29:18.020333
706  2023-11-23 12:29:18.068205
707  2023-11-23 12:29:18.100119
708  2023-11-23 12:29:18.132034
709  2023-11-23 12:29:18.164946
710  2023-11-23 12:29:18.196861
711  2023-11-23 12:29:18.228776
712  2023-11-23 12:29:18.260690
713  2023-11-23 12:29:18.292606
714  2023-11-23 12:29:18.324522
715  2023-11-23 12:29:18.356434
716  2023-11-23 12:29:18.388349
717  2023-11-23 12:29:18.420303
718  2023-11-23 12:29:18.468136
719  2023-11-23 12:29:18.500096
720  2023-11-23 12:29:18.533015
721  2023-11-23 12:29:18.564877
722  2023-11-23 12:29:18.596792
723  2023-11-23 12:29:18.628738
724  2023-11-23 12:29:18.660653
725  2023-11-23 12:29:18.692544
726  2023-11-23 12:29:18.724450
727  2023-11-23 12:29:18.756414
728  2023-11-23 12:29:18.788310
729  2023-11-23 12:29:18.820194
730  2023-11-23 12:29:18.869064
731  2023-11-23 12:29:18.900978
732  2023-11-23 12:29:18.933017
733  2023-11-23 12:29:18.964963
734  2023-11-23 12:29:18.996972
735  2023-11-23 12:29:19.028888
736  2023-11-23 12:29:19.060804
737  2023-11-23 12:29:19.092718
738  2023-11-23 12:29:19.124633
739  2023-11-23 12:29:19.156548
740  2023-11-23 12:29:19.188463
741  2023-11-23 12:29:19.220377
742  2023-11-23 12:29:19.268249
743  2023-11-23 12:29:19.300164
744  2023-11-23 12:29:19.332079
745  2023-11-23 12:29:19.364992
746  2023-11-23 12:29:19.396905
747  2023-11-23 12:29:19.428820
748  2023-11-23 12:29:19.460735
749  2023-11-23 12:29:19.492649
750  2023-11-23 12:29:19.524564
751  2023-11-23 12:29:19.556616
752  2023-11-23 12:29:19.588579
753  2023-11-23 12:29:19.620491
754  2023-11-23 12:29:19.668364
755  2023-11-23 12:29:19.700278
756  2023-11-23 12:29:19.732193
757  2023-11-23 12:29:19.765105
758  2023-11-23 12:29:19.797020
759  2023-11-23 12:29:19.828934
760  2023-11-23 12:29:19.860858
761  2023-11-23 12:29:19.892764
762  2023-11-23 12:29:19.924678
763  2023-11-23 12:29:19.956632
764  2023-11-23 12:29:19.988616
765  2023-11-23 12:29:20.020525
766  2023-11-23 12:29:20.068455
767  2023-11-23 12:29:20.100365
768  2023-11-23 12:29:20.132280
769  2023-11-23 12:29:20.164237
770  2023-11-23 12:29:20.196109
771  2023-11-23 12:29:20.229022
772  2023-11-23 12:29:20.260936
773  2023-11-23 12:29:20.292883
774  2023-11-23 12:29:20.324765
775  2023-11-23 12:29:20.356680
776  2023-11-23 12:29:20.388595
777  2023-11-23 12:29:20.420538
778  2023-11-23 12:29:20.468382
779  2023-11-23 12:29:20.500377
780  2023-11-23 12:29:20.532377
781  2023-11-23 12:29:20.564446
782  2023-11-23 12:29:20.596360
783  2023-11-23 12:29:20.628355
784  2023-11-23 12:29:20.660404
785  2023-11-23 12:29:20.692265
786  2023-11-23 12:29:20.724179
787  2023-11-23 12:29:20.756131
788  2023-11-23 12:29:20.789050
789  2023-11-23 12:29:20.820921
790  2023-11-23 12:29:20.868793
791  2023-11-23 12:29:20.900708
792  2023-11-23 12:29:20.932778
793  2023-11-23 12:29:20.964687
794  2023-11-23 12:29:20.996601
795  2023-11-23 12:29:21.028516
796  2023-11-23 12:29:21.060431
797  2023-11-23 12:29:21.092345
798  2023-11-23 12:29:21.124260
799  2023-11-23 12:29:21.156175
800  2023-11-23 12:29:21.188208
801  2023-11-23 12:29:21.236080
802  2023-11-23 12:29:21.268992
803  2023-11-23 12:29:21.300907
804  2023-11-23 12:29:21.332985
805  2023-11-23 12:29:21.364900
806  2023-11-23 12:29:21.396814
807  2023-11-23 12:29:21.428729
808  2023-11-23 12:29:21.460644
809  2023-11-23 12:29:21.492558
810  2023-11-23 12:29:21.524482
811  2023-11-23 12:29:21.556388
812  2023-11-23 12:29:21.588302
813  2023-11-23 12:29:21.636287
814  2023-11-23 12:29:21.668306
815  2023-11-23 12:29:21.701167
816  2023-11-23 12:29:21.733082
817  2023-11-23 12:29:21.765095
818  2023-11-23 12:29:21.797009
819  2023-11-23 12:29:21.828955
820  2023-11-23 12:29:21.860871
821  2023-11-23 12:29:21.892782
822  2023-11-23 12:29:21.924697
823  2023-11-23 12:29:21.956649
824  2023-11-23 12:29:21.988527
825  2023-11-23 12:29:22.036430
826  2023-11-23 12:29:22.068313
827  2023-11-23 12:29:22.101227
828  2023-11-23 12:29:22.132142
829  2023-11-23 12:29:22.165057
830  2023-11-23 12:29:22.196969
831  2023-11-23 12:29:22.228884
832  2023-11-23 12:29:22.260798
833  2023-11-23 12:29:22.292715
834  2023-11-23 12:29:22.324630
835  2023-11-23 12:29:22.356687
836  2023-11-23 12:29:22.389654
837  2023-11-23 12:29:22.436474
838  2023-11-23 12:29:22.469507
839  2023-11-23 12:29:22.500552
840  2023-11-23 12:29:22.533404
841  2023-11-23 12:29:22.564425
842  2023-11-23 12:29:22.596447
843  2023-11-23 12:29:22.629361
844  2023-11-23 12:29:22.660322
845  2023-11-23 12:29:22.693236
846  2023-11-23 12:29:22.725135
847  2023-11-23 12:29:22.757051
848  2023-11-23 12:29:22.788934
849  2023-11-23 12:29:22.836806
850  2023-11-23 12:29:22.868726
851  2023-11-23 12:29:22.900634
852  2023-11-23 12:29:22.932583
853  2023-11-23 12:29:22.964464
854  2023-11-23 12:29:22.996386
855  2023-11-23 12:29:23.028293
856  2023-11-23 12:29:23.060207
857  2023-11-23 12:29:23.093121
858  2023-11-23 12:29:23.125119
859  2023-11-23 12:29:23.156983
860  2023-11-23 12:29:23.188918
861  2023-11-23 12:29:23.236769
862  2023-11-23 12:29:23.268684
863  2023-11-23 12:29:23.300633
864  2023-11-23 12:29:23.332550
865  2023-11-23 12:29:23.364429
866  2023-11-23 12:29:23.397370
867  2023-11-23 12:29:23.428257
868  2023-11-23 12:29:23.461200
869  2023-11-23 12:29:23.492086
870  2023-11-23 12:29:23.524002
871  2023-11-23 12:29:23.556953
872  2023-11-23 12:29:23.588875
873  2023-11-23 12:29:23.636864
874  2023-11-23 12:29:23.668817
875  2023-11-23 12:29:23.700845
876  2023-11-23 12:29:23.732760
877  2023-11-23 12:29:23.764675
878  2023-11-23 12:29:23.796597
879  2023-11-23 12:29:23.828504
880  2023-11-23 12:29:23.861474
881  2023-11-23 12:29:23.892333
882  2023-11-23 12:29:23.924248
883  2023-11-23 12:29:23.956174
884  2023-11-23 12:29:23.989103
885  2023-11-23 12:29:24.036980
886  2023-11-23 12:29:24.068894
887  2023-11-23 12:29:24.100949
888  2023-11-23 12:29:24.132691
889  2023-11-23 12:29:24.164605
890  2023-11-23 12:29:24.196524
891  2023-11-23 12:29:24.228436
892  2023-11-23 12:29:24.260382
893  2023-11-23 12:29:24.293333
894  2023-11-23 12:29:24.325250
895  2023-11-23 12:29:24.357161
896  2023-11-23 12:29:24.389077
897  2023-11-23 12:29:24.436948
898  2023-11-23 12:29:24.468864
899  2023-11-23 12:29:24.500898
900  2023-11-23 12:29:24.532836
901  2023-11-23 12:29:24.564726
902  2023-11-23 12:29:24.596684
903  2023-11-23 12:29:24.628731
904  2023-11-23 12:29:24.660749
905  2023-11-23 12:29:24.692761
906  2023-11-23 12:29:24.724674
907  2023-11-23 12:29:24.756589
908  2023-11-23 12:29:24.789542
909  2023-11-23 12:29:24.836415
910  2023-11-23 12:29:24.869337
911  2023-11-23 12:29:24.900206
912  2023-11-23 12:29:24.933128
913  2023-11-23 12:29:24.965074
914  2023-11-23 12:29:24.996982
915  2023-11-23 12:29:25.028894
916  2023-11-23 12:29:25.060809
917  2023-11-23 12:29:25.092723
918  2023-11-23 12:29:25.124640
919  2023-11-23 12:29:25.156635
920  2023-11-23 12:29:25.205487
921  2023-11-23 12:29:25.236533
922  2023-11-23 12:29:25.268491
923  2023-11-23 12:29:25.300400
924  2023-11-23 12:29:25.332318
925  2023-11-23 12:29:25.364227
926  2023-11-23 12:29:25.396148
927  2023-11-23 12:29:25.428088
928  2023-11-23 12:29:25.460961
929  2023-11-23 12:29:25.492939
930  2023-11-23 12:29:25.524845
931  2023-11-23 12:29:25.556731
932  2023-11-23 12:29:25.604673
933  2023-11-23 12:29:25.636749
934  2023-11-23 12:29:25.668696
935  2023-11-23 12:29:25.700609
936  2023-11-23 12:29:25.732652
937  2023-11-23 12:29:25.764563
938  2023-11-23 12:29:25.796493
939  2023-11-23 12:29:25.828396
940  2023-11-23 12:29:25.860318
941  2023-11-23 12:29:25.892235
942  2023-11-23 12:29:25.924145
943  2023-11-23 12:29:25.957053
944  2023-11-23 12:29:26.004928
945  2023-11-23 12:29:26.036838
946  2023-11-23 12:29:26.068752
947  2023-11-23 12:29:26.100668
948  2023-11-23 12:29:26.132590
949  2023-11-23 12:29:26.164510
950  2023-11-23 12:29:26.196387
951  2023-11-23 12:29:26.228329
952  2023-11-23 12:29:26.260242
953  2023-11-23 12:29:26.292158
954  2023-11-23 12:29:26.325036
955  2023-11-23 12:29:26.356951
956  2023-11-23 12:29:26.404823
957  2023-11-23 12:29:26.436737
958  2023-11-23 12:29:26.468684
959  2023-11-23 12:29:26.500599
960  2023-11-23 12:29:26.532528
961  2023-11-23 12:29:26.564433
962  2023-11-23 12:29:26.596311
963  2023-11-23 12:29:26.628261
964  2023-11-23 12:29:26.660176
965  2023-11-23 12:29:26.692088
966  2023-11-23 12:29:26.724999
967  2023-11-23 12:29:26.756913
968  2023-11-23 12:29:26.804788
969  2023-11-23 12:29:26.836668
970  2023-11-23 12:29:26.868686
971  2023-11-23 12:29:26.900743
972  2023-11-23 12:29:26.932660
973  2023-11-23 12:29:26.964574
974  2023-11-23 12:29:26.997455
975  2023-11-23 12:29:27.028514
976  2023-11-23 12:29:27.060437
977  2023-11-23 12:29:27.092341
978  2023-11-23 12:29:27.124257
979  2023-11-23 12:29:27.157134
980  2023-11-23 12:29:27.205003
981  2023-11-23 12:29:27.236966
982  2023-11-23 12:29:27.268832
983  2023-11-23 12:29:27.300779
984  2023-11-23 12:29:27.332705
985  2023-11-23 12:29:27.364610
986  2023-11-23 12:29:27.396527
987  2023-11-23 12:29:27.428445
988  2023-11-23 12:29:27.460352
989  2023-11-23 12:29:27.492269
990  2023-11-23 12:29:27.524191
991  2023-11-23 12:29:27.556105
992  2023-11-23 12:29:27.604964
993  2023-11-23 12:29:27.636848
994  2023-11-23 12:29:27.668799
995  2023-11-23 12:29:27.700708
996  2023-11-23 12:29:27.732625
997  2023-11-23 12:29:27.764537
998  2023-11-23 12:29:27.796456
999  2023-11-23 12:29:27.828336
1000  2023-11-23 12:29:27.860284
1001  2023-11-23 12:29:27.892197
1002  2023-11-23 12:29:27.924133
1003  2023-11-23 12:29:27.957045
1004  2023-11-23 12:29:28.004899
1005  2023-11-23 12:29:28.036779
1006  2023-11-23 12:29:28.068725
1007  2023-11-23 12:29:28.100648
1008  2023-11-23 12:29:28.132561
1009  2023-11-23 12:29:28.164469
1010  2023-11-23 12:29:28.196384
1011  2023-11-23 12:29:28.228300
1012  2023-11-23 12:29:28.260213
1013  2023-11-23 12:29:28.292126
1014  2023-11-23 12:29:28.325047
1015  2023-11-23 12:29:28.356963
1016  2023-11-23 12:29:28.404827
1017  2023-11-23 12:29:28.436742
1018  2023-11-23 12:29:28.468670
1019  2023-11-23 12:29:28.500659
1020  2023-11-23 12:29:28.532572
1021  2023-11-23 12:29:28.564535
1022  2023-11-23 12:29:28.596434
1023  2023-11-23 12:29:28.628316
1024  2023-11-23 12:29:28.660230
1025  2023-11-23 12:29:28.692179
1026  2023-11-23 12:29:28.725093
1027  2023-11-23 12:29:28.772985
1028  2023-11-23 12:29:28.804873
1029  2023-11-23 12:29:28.836794
1030  2023-11-23 12:29:28.868701
1031  2023-11-23 12:29:28.900625
1032  2023-11-23 12:29:28.932533
1033  2023-11-23 12:29:28.964455
1034  2023-11-23 12:29:28.996361
1035  2023-11-23 12:29:29.028274
1036  2023-11-23 12:29:29.060193
1037  2023-11-23 12:29:29.092146
1038  2023-11-23 12:29:29.124148
1039  2023-11-23 12:29:29.173026
1040  2023-11-23 12:29:29.204938
1041  2023-11-23 12:29:29.236840
1042  2023-11-23 12:29:29.268753
1043  2023-11-23 12:29:29.300669
1044  2023-11-23 12:29:29.332585
1045  2023-11-23 12:29:29.364498
1046  2023-11-23 12:29:29.396426
1047  2023-11-23 12:29:29.428337
1048  2023-11-23 12:29:29.460241
1049  2023-11-23 12:29:29.492155
1050  2023-11-23 12:29:29.525070
1051  2023-11-23 12:29:29.572943
1052  2023-11-23 12:29:29.604862
1053  2023-11-23 12:29:29.636770
1054  2023-11-23 12:29:29.668684
1055  2023-11-23 12:29:29.700601
1056  2023-11-23 12:29:29.732695
1057  2023-11-23 12:29:29.764428
1058  2023-11-23 12:29:29.796347
1059  2023-11-23 12:29:29.829272
1060  2023-11-23 12:29:29.861181
1061  2023-11-23 12:29:29.892088
1062  2023-11-23 12:29:29.924998
1063  2023-11-23 12:29:29.972870
1064  2023-11-23 12:29:30.004794
1065  2023-11-23 12:29:30.036718
1066  2023-11-23 12:29:30.068625
1067  2023-11-23 12:29:30.100530
1068  2023-11-23 12:29:30.132447
1069  2023-11-23 12:29:30.165325
1070  2023-11-23 12:29:30.196278
1071  2023-11-23 12:29:30.228187
1072  2023-11-23 12:29:30.260121
1073  2023-11-23 12:29:30.292985
1074  2023-11-23 12:29:30.324899
1075  2023-11-23 12:29:30.372832
1076  2023-11-23 12:29:30.404686
1077  2023-11-23 12:29:30.436635
1078  2023-11-23 12:29:30.468557
1079  2023-11-23 12:29:30.500461
1080  2023-11-23 12:29:30.533342
1081  2023-11-23 12:29:30.564289
1082  2023-11-23 12:29:30.596203
1083  2023-11-23 12:29:30.629119
1084  2023-11-23 12:29:30.661034
1085  2023-11-23 12:29:30.692946
1086  2023-11-23 12:29:30.724864
1087  2023-11-23 12:29:30.772732
1088  2023-11-23 12:29:30.804647
1089  2023-11-23 12:29:30.836562
1090  2023-11-23 12:29:30.868479
1091  2023-11-23 12:29:30.900392
1092  2023-11-23 12:29:30.932307
1093  2023-11-23 12:29:30.964223
1094  2023-11-23 12:29:30.996139
1095  2023-11-23 12:29:31.028049
1096  2023-11-23 12:29:31.060931
1097  2023-11-23 12:29:31.092877
1098  2023-11-23 12:29:31.124793
1099  2023-11-23 12:29:31.172674
1100  2023-11-23 12:29:31.204590
1101  2023-11-23 12:29:31.236493
1102  2023-11-23 12:29:31.268415
1103  2023-11-23 12:29:31.300324
1104  2023-11-23 12:29:31.332243
1105  2023-11-23 12:29:31.364161
1106  2023-11-23 12:29:31.397064
1107  2023-11-23 12:29:31.428958
1108  2023-11-23 12:29:31.460900
1109  2023-11-23 12:29:31.492814
1110  2023-11-23 12:29:31.524724
1111  2023-11-23 12:29:31.572595
1112  2023-11-23 12:29:31.604519
1113  2023-11-23 12:29:31.636429
1114  2023-11-23 12:29:31.668345
1115  2023-11-23 12:29:31.700256
1116  2023-11-23 12:29:31.732167
1117  2023-11-23 12:29:31.765085
1118  2023-11-23 12:29:31.796996
1119  2023-11-23 12:29:31.828878
1120  2023-11-23 12:29:31.860906
1121  2023-11-23 12:29:31.892948
1122  2023-11-23 12:29:31.924940
1123  2023-11-23 12:29:31.972875
1124  2023-11-23 12:29:32.004823
1125  2023-11-23 12:29:32.036736
1126  2023-11-23 12:29:32.068651
1127  2023-11-23 12:29:32.100534
1128  2023-11-23 12:29:32.132448
1129  2023-11-23 12:29:32.164414
1130  2023-11-23 12:29:32.196313
1131  2023-11-23 12:29:32.228227
1132  2023-11-23 12:29:32.260107
1133  2023-11-23 12:29:32.293019
1134  2023-11-23 12:29:32.324934
1135  2023-11-23 12:29:32.372805
1136  2023-11-23 12:29:32.404751
1137  2023-11-23 12:29:32.436673
1138  2023-11-23 12:29:32.468563
1139  2023-11-23 12:29:32.500509
1140  2023-11-23 12:29:32.532423
1141  2023-11-23 12:29:32.564372
1142  2023-11-23 12:29:32.596289
1143  2023-11-23 12:29:32.628243
1144  2023-11-23 12:29:32.660247
1145  2023-11-23 12:29:32.692122
1146  2023-11-23 12:29:32.740992
1147  2023-11-23 12:29:32.772906
1148  2023-11-23 12:29:32.804896
1149  2023-11-23 12:29:32.836841
1150  2023-11-23 12:29:32.868762
1151  2023-11-23 12:29:32.900851
1152  2023-11-23 12:29:32.932817
1153  2023-11-23 12:29:32.964807
1154  2023-11-23 12:29:32.996729
1155  2023-11-23 12:29:33.028634
1156  2023-11-23 12:29:33.060518
1157  2023-11-23 12:29:33.092432
1158  2023-11-23 12:29:33.140304
1159  2023-11-23 12:29:33.172219
1160  2023-11-23 12:29:33.204176
1161  2023-11-23 12:29:33.236050
1162  2023-11-23 12:29:33.268961
1163  2023-11-23 12:29:33.300875
1164  2023-11-23 12:29:33.332790
1165  2023-11-23 12:29:33.364704
1166  2023-11-23 12:29:33.396619
1167  2023-11-23 12:29:33.428534
1168  2023-11-23 12:29:33.460448
1169  2023-11-23 12:29:33.492363
1170  2023-11-23 12:29:33.540235
1171  2023-11-23 12:29:33.572150
1172  2023-11-23 12:29:33.604065
1173  2023-11-23 12:29:33.636976
1174  2023-11-23 12:29:33.668891
1175  2023-11-23 12:29:33.700806
1176  2023-11-23 12:29:33.732720
1177  2023-11-23 12:29:33.764635
1178  2023-11-23 12:29:33.796550
1179  2023-11-23 12:29:33.828465
1180  2023-11-23 12:29:33.860379
1181  2023-11-23 12:29:33.892294
1182  2023-11-23 12:29:33.940166
1183  2023-11-23 12:29:33.972080
1184  2023-11-23 12:29:34.004992
1185  2023-11-23 12:29:34.036907
1186  2023-11-23 12:29:34.068822
1187  2023-11-23 12:29:34.100737
1188  2023-11-23 12:29:34.132651
1189  2023-11-23 12:29:34.164566
1190  2023-11-23 12:29:34.196481
1191  2023-11-23 12:29:34.228395
1192  2023-11-23 12:29:34.260344
1193  2023-11-23 12:29:34.293222
1194  2023-11-23 12:29:34.340097
1195  2023-11-23 12:29:34.373009
1196  2023-11-23 12:29:34.404923
1197  2023-11-23 12:29:34.436838
1198  2023-11-23 12:29:34.468753
1199  2023-11-23 12:29:34.500685
1200  2023-11-23 12:29:34.532232
1201  2023-11-23 12:29:34.564228
1202  2023-11-23 12:29:34.596143
1203  2023-11-23 12:29:34.628094
1204  2023-11-23 12:29:34.660989
1205  2023-11-23 12:29:34.692884
1206  2023-11-23 12:29:34.740756
1207  2023-11-23 12:29:34.772670
1208  2023-11-23 12:29:34.804620
1209  2023-11-23 12:29:34.836574
1210  2023-11-23 12:29:34.868449
1211  2023-11-23 12:29:34.900500
1212  2023-11-23 12:29:34.932414
1213  2023-11-23 12:29:34.964366
1214  2023-11-23 12:29:34.996274
1215  2023-11-23 12:29:35.028159
1216  2023-11-23 12:29:35.061070
1217  2023-11-23 12:29:35.092985
1218  2023-11-23 12:29:35.140857
1219  2023-11-23 12:29:35.172772
1220  2023-11-23 12:29:35.204687
1221  2023-11-23 12:29:35.236601
1222  2023-11-23 12:29:35.268525
1223  2023-11-23 12:29:35.300431
1224  2023-11-23 12:29:35.332345
1225  2023-11-23 12:29:35.364260
1226  2023-11-23 12:29:35.396175
1227  2023-11-23 12:29:35.429086
1228  2023-11-23 12:29:35.461001
1229  2023-11-23 12:29:35.492916
1230  2023-11-23 12:29:35.540788
1231  2023-11-23 12:29:35.572703
1232  2023-11-23 12:29:35.604617
1233  2023-11-23 12:29:35.636532
1234  2023-11-23 12:29:35.668447
1235  2023-11-23 12:29:35.700361
1236  2023-11-23 12:29:35.732276
1237  2023-11-23 12:29:35.764266
1238  2023-11-23 12:29:35.796181
1239  2023-11-23 12:29:35.828095
1240  2023-11-23 12:29:35.861007
1241  2023-11-23 12:29:35.892922
1242  2023-11-23 12:29:35.940794
1243  2023-11-23 12:29:35.972709
1244  2023-11-23 12:29:36.004691
1245  2023-11-23 12:29:36.036649
1246  2023-11-23 12:29:36.068563
1247  2023-11-23 12:29:36.100484
1248  2023-11-23 12:29:36.132392
1249  2023-11-23 12:29:36.164307
1250  2023-11-23 12:29:36.197263
1251  2023-11-23 12:29:36.228136
1252  2023-11-23 12:29:36.261049
1253  2023-11-23 12:29:36.308920
1254  2023-11-23 12:29:36.340835
1255  2023-11-23 12:29:36.372782
1256  2023-11-23 12:29:36.404664
1257  2023-11-23 12:29:36.436579
1258  2023-11-23 12:29:36.468494
1259  2023-11-23 12:29:36.500444
1260  2023-11-23 12:29:36.532354
1261  2023-11-23 12:29:36.564238
1262  2023-11-23 12:29:36.596153
1263  2023-11-23 12:29:36.628100
1264  2023-11-23 12:29:36.661012
1265  2023-11-23 12:29:36.708882
1266  2023-11-23 12:29:36.740800
1267  2023-11-23 12:29:36.772681
1268  2023-11-23 12:29:36.804595
1269  2023-11-23 12:29:36.836551
1270  2023-11-23 12:29:36.868465
1271  2023-11-23 12:29:36.900340
1272  2023-11-23 12:29:36.932254
1273  2023-11-23 12:29:36.964203
1274  2023-11-23 12:29:36.996113
1275  2023-11-23 12:29:37.028995
1276  2023-11-23 12:29:37.060910
1277  2023-11-23 12:29:37.108921
1278  2023-11-23 12:29:37.140836
1279  2023-11-23 12:29:37.172785
1280  2023-11-23 12:29:37.204699
1281  2023-11-23 12:29:37.236580
1282  2023-11-23 12:29:37.268495
1283  2023-11-23 12:29:37.300410
1284  2023-11-23 12:29:37.332425
1285  2023-11-23 12:29:37.364340
1286  2023-11-23 12:29:37.396254
1287  2023-11-23 12:29:37.428169
1288  2023-11-23 12:29:37.461081
1289  2023-11-23 12:29:37.508953
1290  2023-11-23 12:29:37.540868
1291  2023-11-23 12:29:37.572782
1292  2023-11-23 12:29:37.604697
1293  2023-11-23 12:29:37.636612
1294  2023-11-23 12:29:37.668534
1295  2023-11-23 12:29:37.700441
1296  2023-11-23 12:29:37.732356
1297  2023-11-23 12:29:37.764271
1298  2023-11-23 12:29:37.796185
1299  2023-11-23 12:29:37.828100
1300  2023-11-23 12:29:37.860158
1301  2023-11-23 12:29:37.909028
1302  2023-11-23 12:29:37.940942
1303  2023-11-23 12:29:37.972857
1304  2023-11-23 12:29:38.004772
1305  2023-11-23 12:29:38.036687
1306  2023-11-23 12:29:38.068601
1307  2023-11-23 12:29:38.100524
1308  2023-11-23 12:29:38.132430
1309  2023-11-23 12:29:38.164511
1310  2023-11-23 12:29:38.196432
1311  2023-11-23 12:29:38.229282
1312  2023-11-23 12:29:38.260199
1313  2023-11-23 12:29:38.308071
1314  2023-11-23 12:29:38.340983
1315  2023-11-23 12:29:38.372933
1316  2023-11-23 12:29:38.404812
1317  2023-11-23 12:29:38.436727
1318  2023-11-23 12:29:38.468642
1319  2023-11-23 12:29:38.500588
1320  2023-11-23 12:29:38.532525
1321  2023-11-23 12:29:38.564386
1322  2023-11-23 12:29:38.596300
1323  2023-11-23 12:29:38.628251
1324  2023-11-23 12:29:38.660164
1325  2023-11-23 12:29:38.709034
1326  2023-11-23 12:29:38.740914
1327  2023-11-23 12:29:38.772828
1328  2023-11-23 12:29:38.804743
1329  2023-11-23 12:29:38.836691
1330  2023-11-23 12:29:38.868607
1331  2023-11-23 12:29:38.900487
1332  2023-11-23 12:29:38.932402
1333  2023-11-23 12:29:38.964354
1334  2023-11-23 12:29:38.996266
1335  2023-11-23 12:29:39.028146
1336  2023-11-23 12:29:39.060060
1337  2023-11-23 12:29:39.108930
1338  2023-11-23 12:29:39.140845
1339  2023-11-23 12:29:39.172790
1340  2023-11-23 12:29:39.204705
1341  2023-11-23 12:29:39.236589
1342  2023-11-23 12:29:39.268503
1343  2023-11-23 12:29:39.300418
1344  2023-11-23 12:29:39.332333
1345  2023-11-23 12:29:39.364247
1346  2023-11-23 12:29:39.396162
1347  2023-11-23 12:29:39.428077
1348  2023-11-23 12:29:39.460996
1349  2023-11-23 12:29:39.508861
1350  2023-11-23 12:29:39.540775
1351  2023-11-23 12:29:39.572690
1352  2023-11-23 12:29:39.604605
1353  2023-11-23 12:29:39.636527
1354  2023-11-23 12:29:39.668434
1355  2023-11-23 12:29:39.700349
1356  2023-11-23 12:29:39.732263
1357  2023-11-23 12:29:39.764302
1358  2023-11-23 12:29:39.796217
1359  2023-11-23 12:29:39.828131
1360  2023-11-23 12:29:39.861043
1361  2023-11-23 12:29:39.908916
1362  2023-11-23 12:29:39.940830
1363  2023-11-23 12:29:39.972745
1364  2023-11-23 12:29:40.004661
1365  2023-11-23 12:29:40.036623
1366  2023-11-23 12:29:40.068489
1367  2023-11-23 12:29:40.100403
1368  2023-11-23 12:29:40.132318
1369  2023-11-23 12:29:40.164267
1370  2023-11-23 12:29:40.196149
1371  2023-11-23 12:29:40.229061
1372  2023-11-23 12:29:40.276933
1373  2023-11-23 12:29:40.308995
1374  2023-11-23 12:29:40.340938
1375  2023-11-23 12:29:40.372955
1376  2023-11-23 12:29:40.404812
1377  2023-11-23 12:29:40.436726
1378  2023-11-23 12:29:40.468641
1379  2023-11-23 12:29:40.500596
1380  2023-11-23 12:29:40.532470
1381  2023-11-23 12:29:40.564385
1382  2023-11-23 12:29:40.596300
1383  2023-11-23 12:29:40.628248
1384  2023-11-23 12:29:40.677084
1385  2023-11-23 12:29:40.709033
1386  2023-11-23 12:29:40.740913
1387  2023-11-23 12:29:40.772828
1388  2023-11-23 12:29:40.804742
1389  2023-11-23 12:29:40.836714
1390  2023-11-23 12:29:40.868572
1391  2023-11-23 12:29:40.900641
1392  2023-11-23 12:29:40.932556
1393  2023-11-23 12:29:40.964475
1394  2023-11-23 12:29:40.996385
1395  2023-11-23 12:29:41.028300
1396  2023-11-23 12:29:41.076172
1397  2023-11-23 12:29:41.108086
1398  2023-11-23 12:29:41.140998
1399  2023-11-23 12:29:41.172913
1400  2023-11-23 12:29:41.204828
1401  2023-11-23 12:29:41.236742
1402  2023-11-23 12:29:41.268657
1403  2023-11-23 12:29:41.300572
1404  2023-11-23 12:29:41.332486
1405  2023-11-23 12:29:41.364401
1406  2023-11-23 12:29:41.396316
1407  2023-11-23 12:29:41.428361
1408  2023-11-23 12:29:41.476233
1409  2023-11-23 12:29:41.508147
1410  2023-11-23 12:29:41.541103
1411  2023-11-23 12:29:41.572974
1412  2023-11-23 12:29:41.604889
1413  2023-11-23 12:29:41.636803
1414  2023-11-23 12:29:41.668809
1415  2023-11-23 12:29:41.700805
1416  2023-11-23 12:29:41.732687
1417  2023-11-23 12:29:41.764602
1418  2023-11-23 12:29:41.796564
1419  2023-11-23 12:29:41.828466
1420  2023-11-23 12:29:41.876338
1421  2023-11-23 12:29:41.908218
1422  2023-11-23 12:29:41.940133
1423  2023-11-23 12:29:41.972047
1424  2023-11-23 12:29:42.005006
1425  2023-11-23 12:29:42.036907
1426  2023-11-23 12:29:42.068789
1427  2023-11-23 12:29:42.100703
1428  2023-11-23 12:29:42.132618
1429  2023-11-23 12:29:42.164533
1430  2023-11-23 12:29:42.196447
1431  2023-11-23 12:29:42.228362
1432  2023-11-23 12:29:42.276234
1433  2023-11-23 12:29:42.308149
1434  2023-11-23 12:29:42.341062
1435  2023-11-23 12:29:42.372975
1436  2023-11-23 12:29:42.404891
1437  2023-11-23 12:29:42.436805
1438  2023-11-23 12:29:42.468720
1439  2023-11-23 12:29:42.500634
1440  2023-11-23 12:29:42.532556
1441  2023-11-23 12:29:42.565462
1442  2023-11-23 12:29:42.597377
1443  2023-11-23 12:29:42.628293
1444  2023-11-23 12:29:42.677163
1445  2023-11-23 12:29:42.708080
1446  2023-11-23 12:29:42.740992
1447  2023-11-23 12:29:42.772980
1448  2023-11-23 12:29:42.804894
1449  2023-11-23 12:29:42.836966
1450  2023-11-23 12:29:42.869948
1451  2023-11-23 12:29:42.900903
1452  2023-11-23 12:29:42.932814
1453  2023-11-23 12:29:42.965773
1454  2023-11-23 12:29:42.997722
1455  2023-11-23 12:29:43.028725
1456  2023-11-23 12:29:43.076600
1457  2023-11-23 12:29:43.109510
1458  2023-11-23 12:29:43.141467
1459  2023-11-23 12:29:43.173416
1460  2023-11-23 12:29:43.205442
1461  2023-11-23 12:29:43.237346
1462  2023-11-23 12:29:43.269274
1463  2023-11-23 12:29:43.301172
1464  2023-11-23 12:29:43.333096
1465  2023-11-23 12:29:43.364972
1466  2023-11-23 12:29:43.396921
1467  2023-11-23 12:29:43.428803
1468  2023-11-23 12:29:43.476890
1469  2023-11-23 12:29:43.508795
1470  2023-11-23 12:29:43.540703
1471  2023-11-23 12:29:43.572585
1472  2023-11-23 12:29:43.604504
1473  2023-11-23 12:29:43.636415
1474  2023-11-23 12:29:43.668390
1475  2023-11-23 12:29:43.700249
1476  2023-11-23 12:29:43.732158
1477  2023-11-23 12:29:43.765085
1478  2023-11-23 12:29:43.797017
1479  2023-11-23 12:29:43.828931
1480  2023-11-23 12:29:43.876824
1481  2023-11-23 12:29:43.908717
1482  2023-11-23 12:29:43.940626
1483  2023-11-23 12:29:43.972548
1484  2023-11-23 12:29:44.004480
1485  2023-11-23 12:29:44.037345
1486  2023-11-23 12:29:44.069258
1487  2023-11-23 12:29:44.100206
1488  2023-11-23 12:29:44.132088
1489  2023-11-23 12:29:44.165048
1490  2023-11-23 12:29:44.196916
1491  2023-11-23 12:29:44.244787
1492  2023-11-23 12:29:44.276742
1493  2023-11-23 12:29:44.309651
1494  2023-11-23 12:29:44.341564
1495  2023-11-23 12:29:44.372501
1496  2023-11-23 12:29:44.404395
1497  2023-11-23 12:29:44.437311
1498  2023-11-23 12:29:44.469230
1499  2023-11-23 12:29:44.502140
1500  2023-11-23 12:29:44.533018
1501  2023-11-23 12:29:44.564949
1502  2023-11-23 12:29:44.596849
1503  2023-11-23 12:29:44.644752
1504  2023-11-23 12:29:44.676635
1505  2023-11-23 12:29:44.708581
1506  2023-11-23 12:29:44.741507
1507  2023-11-23 12:29:44.773443
1508  2023-11-23 12:29:44.804292
1509  2023-11-23 12:29:44.836248
1510  2023-11-23 12:29:44.869245
1511  2023-11-23 12:29:44.901189
1512  2023-11-23 12:29:44.933131
1513  2023-11-23 12:29:44.965036
1514  2023-11-23 12:29:44.996928
1515  2023-11-23 12:29:45.044800
1516  2023-11-23 12:29:45.076726
1517  2023-11-23 12:29:45.108633
1518  2023-11-23 12:29:45.140554
1519  2023-11-23 12:29:45.173426
1520  2023-11-23 12:29:45.204377
1521  2023-11-23 12:29:45.236258
1522  2023-11-23 12:29:45.268207
1523  2023-11-23 12:29:45.301085
1524  2023-11-23 12:29:45.333034
1525  2023-11-23 12:29:45.364913
1526  2023-11-23 12:29:45.396866
1527  2023-11-23 12:29:45.444700
1528  2023-11-23 12:29:45.476614
1529  2023-11-23 12:29:45.508586
1530  2023-11-23 12:29:45.540492
1531  2023-11-23 12:29:45.573357
1532  2023-11-23 12:29:45.604273
1533  2023-11-23 12:29:45.636265
1534  2023-11-23 12:29:45.668213
1535  2023-11-23 12:29:45.701125
1536  2023-11-23 12:29:45.733016
1537  2023-11-23 12:29:45.764954
1538  2023-11-23 12:29:45.796869
1539  2023-11-23 12:29:45.844742
1540  2023-11-23 12:29:45.876661
1541  2023-11-23 12:29:45.908574
1542  2023-11-23 12:29:45.940480
1543  2023-11-23 12:29:45.972401
1544  2023-11-23 12:29:46.004281
1545  2023-11-23 12:29:46.036234
1546  2023-11-23 12:29:46.069153
1547  2023-11-23 12:29:46.101074
1548  2023-11-23 12:29:46.132987
1549  2023-11-23 12:29:46.164980
1550  2023-11-23 12:29:46.196893
1551  2023-11-23 12:29:46.244767
1552  2023-11-23 12:29:46.276680
1553  2023-11-23 12:29:46.308593
1554  2023-11-23 12:29:46.340519
1555  2023-11-23 12:29:46.372392
1556  2023-11-23 12:29:46.404340
1557  2023-11-23 12:29:46.436221
1558  2023-11-23 12:29:46.468178
1559  2023-11-23 12:29:46.501049
1560  2023-11-23 12:29:46.532962
1561  2023-11-23 12:29:46.565041
1562  2023-11-23 12:29:46.596939
1563  2023-11-23 12:29:46.644906
1564  2023-11-23 12:29:46.676821
1565  2023-11-23 12:29:46.708703
1566  2023-11-23 12:29:46.740629
1567  2023-11-23 12:29:46.772574
1568  2023-11-23 12:29:46.804446
1569  2023-11-23 12:29:46.836401
1570  2023-11-23 12:29:46.868308
1571  2023-11-23 12:29:46.900226
1572  2023-11-23 12:29:46.932140
1573  2023-11-23 12:29:46.965096
1574  2023-11-23 12:29:46.997036
1575  2023-11-23 12:29:47.045000
1576  2023-11-23 12:29:47.076867
1577  2023-11-23 12:29:47.108820
1578  2023-11-23 12:29:47.140728
1579  2023-11-23 12:29:47.172643
1580  2023-11-23 12:29:47.204534
1581  2023-11-23 12:29:47.236440
1582  2023-11-23 12:29:47.268355
1583  2023-11-23 12:29:47.301268
1584  2023-11-23 12:29:47.333216
1585  2023-11-23 12:29:47.365139
1586  2023-11-23 12:29:47.397011
1587  2023-11-23 12:29:47.444915
1588  2023-11-23 12:29:47.476798
1589  2023-11-23 12:29:47.508712
1590  2023-11-23 12:29:47.540661
1591  2023-11-23 12:29:47.572546
1592  2023-11-23 12:29:47.604494
1593  2023-11-23 12:29:47.636371
1594  2023-11-23 12:29:47.668335
1595  2023-11-23 12:29:47.700263
1596  2023-11-23 12:29:47.732178
1597  2023-11-23 12:29:47.764092
1598  2023-11-23 12:29:47.812962
1599  2023-11-23 12:29:47.844960
1600  2023-11-23 12:29:47.876868
1601  2023-11-23 12:29:47.908747
1602  2023-11-23 12:29:47.940695
1603  2023-11-23 12:29:47.972609
1604  2023-11-23 12:29:48.004521
1605  2023-11-23 12:29:48.036407
1606  2023-11-23 12:29:48.068396
1607  2023-11-23 12:29:48.100311
1608  2023-11-23 12:29:48.132225
1609  2023-11-23 12:29:48.164138
1610  2023-11-23 12:29:48.213011
1611  2023-11-23 12:29:48.244924
1612  2023-11-23 12:29:48.276804
1613  2023-11-23 12:29:48.308718
1614  2023-11-23 12:29:48.340666
1615  2023-11-23 12:29:48.372579
1616  2023-11-23 12:29:48.404520
1617  2023-11-23 12:29:48.436377
1618  2023-11-23 12:29:48.468329
1619  2023-11-23 12:29:48.501205
1620  2023-11-23 12:29:48.533120
1621  2023-11-23 12:29:48.565075
1622  2023-11-23 12:29:48.612957
1623  2023-11-23 12:29:48.644852
1624  2023-11-23 12:29:48.676766
1625  2023-11-23 12:29:48.708688
1626  2023-11-23 12:29:48.740594
1627  2023-11-23 12:29:48.772508
1628  2023-11-23 12:29:48.804393
1629  2023-11-23 12:29:48.836358
1630  2023-11-23 12:29:48.868256
1631  2023-11-23 12:29:48.900171
1632  2023-11-23 12:29:48.933082
1633  2023-11-23 12:29:48.965018
1634  2023-11-23 12:29:49.012875
1635  2023-11-23 12:29:49.044782
1636  2023-11-23 12:29:49.076665
1637  2023-11-23 12:29:49.108614
1638  2023-11-23 12:29:49.140536
1639  2023-11-23 12:29:49.172455
1640  2023-11-23 12:29:49.204359
1641  2023-11-23 12:29:49.236239
1642  2023-11-23 12:29:49.268188
1643  2023-11-23 12:29:49.300106
1644  2023-11-23 12:29:49.333012
1645  2023-11-23 12:29:49.364928
1646  2023-11-23 12:29:49.412798
1647  2023-11-23 12:29:49.444715
1648  2023-11-23 12:29:49.476596
1649  2023-11-23 12:29:49.508558
1650  2023-11-23 12:29:49.540461
1651  2023-11-23 12:29:49.573339
1652  2023-11-23 12:29:49.604298
1653  2023-11-23 12:29:49.636203
1654  2023-11-23 12:29:49.669131
1655  2023-11-23 12:29:49.701036
1656  2023-11-23 12:29:49.732951
1657  2023-11-23 12:29:49.764930
1658  2023-11-23 12:29:49.812818
1659  2023-11-23 12:29:49.844718
1660  2023-11-23 12:29:49.876602
1661  2023-11-23 12:29:49.908517
1662  2023-11-23 12:29:49.940429
1663  2023-11-23 12:29:49.972398
1664  2023-11-23 12:29:50.004296
1665  2023-11-23 12:29:50.036238
1666  2023-11-23 12:29:50.068121
1667  2023-11-23 12:29:50.100043
1668  2023-11-23 12:29:50.132962
1669  2023-11-23 12:29:50.164862
1670  2023-11-23 12:29:50.212733
1671  2023-11-23 12:29:50.244647
1672  2023-11-23 12:29:50.276563
1673  2023-11-23 12:29:50.308488
1674  2023-11-23 12:29:50.340396
1675  2023-11-23 12:29:50.372316
1676  2023-11-23 12:29:50.404225
1677  2023-11-23 12:29:50.436149
1678  2023-11-23 12:29:50.469052
1679  2023-11-23 12:29:50.500989
1680  2023-11-23 12:29:50.532967
1681  2023-11-23 12:29:50.564879
1682  2023-11-23 12:29:50.612753
1683  2023-11-23 12:29:50.644759
1684  2023-11-23 12:29:50.676671
1685  2023-11-23 12:29:50.708584
1686  2023-11-23 12:29:50.740469
1687  2023-11-23 12:29:50.772440
1688  2023-11-23 12:29:50.804343
1689  2023-11-23 12:29:50.836264
1690  2023-11-23 12:29:50.868184
1691  2023-11-23 12:29:50.900093
1692  2023-11-23 12:29:50.933005
1693  2023-11-23 12:29:50.965020
1694  2023-11-23 12:29:51.012881
1695  2023-11-23 12:29:51.044776
1696  2023-11-23 12:29:51.076698
1697  2023-11-23 12:29:51.108575
1698  2023-11-23 12:29:51.140523
1699  2023-11-23 12:29:51.172437
1700  2023-11-23 12:29:51.204353
1701  2023-11-23 12:29:51.236274
1702  2023-11-23 12:29:51.268189
1703  2023-11-23 12:29:51.300096
1704  2023-11-23 12:29:51.333013
1705  2023-11-23 12:29:51.364933
1706  2023-11-23 12:29:51.412792
1707  2023-11-23 12:29:51.444707
1708  2023-11-23 12:29:51.476629
1709  2023-11-23 12:29:51.508545
1710  2023-11-23 12:29:51.540556
1711  2023-11-23 12:29:51.573338
1712  2023-11-23 12:29:51.604281
1713  2023-11-23 12:29:51.637191
1714  2023-11-23 12:29:51.669117
1715  2023-11-23 12:29:51.700992
1716  2023-11-23 12:29:51.732906
1717  2023-11-23 12:29:51.780828
1718  2023-11-23 12:29:51.812724
1719  2023-11-23 12:29:51.844638
1720  2023-11-23 12:29:51.876567
1721  2023-11-23 12:29:51.908436
1722  2023-11-23 12:29:51.940351
1723  2023-11-23 12:29:51.972298
1724  2023-11-23 12:29:52.004210
1725  2023-11-23 12:29:52.036131
1726  2023-11-23 12:29:52.069131
1727  2023-11-23 12:29:52.101067
1728  2023-11-23 12:29:52.133012
1729  2023-11-23 12:29:52.180842
1730  2023-11-23 12:29:52.212796
1731  2023-11-23 12:29:52.244704
1732  2023-11-23 12:29:52.276622
1733  2023-11-23 12:29:52.308545
1734  2023-11-23 12:29:52.340448
1735  2023-11-23 12:29:52.372365
1736  2023-11-23 12:29:52.404279
1737  2023-11-23 12:29:52.436196
1738  2023-11-23 12:29:52.468108
1739  2023-11-23 12:29:52.500970
1740  2023-11-23 12:29:52.532974
1741  2023-11-23 12:29:52.580998
1742  2023-11-23 12:29:52.612925
1743  2023-11-23 12:29:52.644982
1744  2023-11-23 12:29:52.676898
1745  2023-11-23 12:29:52.708851
1746  2023-11-23 12:29:52.740854
1747  2023-11-23 12:29:52.772769
1748  2023-11-23 12:29:52.804716
1749  2023-11-23 12:29:52.836634
1750  2023-11-23 12:29:52.868571
1751  2023-11-23 12:29:52.900428
1752  2023-11-23 12:29:52.932343
1753  2023-11-23 12:29:52.980214
1754  2023-11-23 12:29:53.012129
1755  2023-11-23 12:29:53.044075
1756  2023-11-23 12:29:53.076958
1757  2023-11-23 12:29:53.108871
1758  2023-11-23 12:29:53.140785
1759  2023-11-23 12:29:53.172779
1760  2023-11-23 12:29:53.204727
1761  2023-11-23 12:29:53.236643
1762  2023-11-23 12:29:53.268566
1763  2023-11-23 12:29:53.300438
1764  2023-11-23 12:29:53.332448
1765  2023-11-23 12:29:53.380320
1766  2023-11-23 12:29:53.413232
1767  2023-11-23 12:29:53.444184
1768  2023-11-23 12:29:53.476105
1769  2023-11-23 12:29:53.508976
1770  2023-11-23 12:29:53.540890
1771  2023-11-23 12:29:53.572805
1772  2023-11-23 12:29:53.604720
1773  2023-11-23 12:29:53.636635
1774  2023-11-23 12:29:53.668591
1775  2023-11-23 12:29:53.700487
1776  2023-11-23 12:29:53.732379
1777  2023-11-23 12:29:53.780251
1778  2023-11-23 12:29:53.812165
1779  2023-11-23 12:29:53.844110
1780  2023-11-23 12:29:53.877025
1781  2023-11-23 12:29:53.908937
1782  2023-11-23 12:29:53.940821
1783  2023-11-23 12:29:53.972736
1784  2023-11-23 12:29:54.004685
1785  2023-11-23 12:29:54.036599
1786  2023-11-23 12:29:54.068480
1787  2023-11-23 12:29:54.100395
1788  2023-11-23 12:29:54.132310
1789  2023-11-23 12:29:54.180182
1790  2023-11-23 12:29:54.212096
1791  2023-11-23 12:29:54.245008
1792  2023-11-23 12:29:54.276923
1793  2023-11-23 12:29:54.308838
1794  2023-11-23 12:29:54.340752
1795  2023-11-23 12:29:54.372667
1796  2023-11-23 12:29:54.404582
1797  2023-11-23 12:29:54.436496
1798  2023-11-23 12:29:54.468419
1799  2023-11-23 12:29:54.500325
1800  2023-11-23 12:29:54.532240
1801  2023-11-23 12:29:54.580112
1802  2023-11-23 12:29:54.613024
1803  2023-11-23 12:29:54.644939
1804  2023-11-23 12:29:54.676854
1805  2023-11-23 12:29:54.708768
1806  2023-11-23 12:29:54.740683
1807  2023-11-23 12:29:54.772598
1808  2023-11-23 12:29:54.804593
1809  2023-11-23 12:29:54.836528
1810  2023-11-23 12:29:54.868423
1811  2023-11-23 12:29:54.900338
1812  2023-11-23 12:29:54.932304
1813  2023-11-23 12:29:54.980176
1814  2023-11-23 12:29:55.013088
1815  2023-11-23 12:29:55.044006
1816  2023-11-23 12:29:55.076918
1817  2023-11-23 12:29:55.108832
1818  2023-11-23 12:29:55.140818
1819  2023-11-23 12:29:55.172732
1820  2023-11-23 12:29:55.204678
1821  2023-11-23 12:29:55.236561
1822  2023-11-23 12:29:55.268476
1823  2023-11-23 12:29:55.300391
1824  2023-11-23 12:29:55.348263
1825  2023-11-23 12:29:55.380178
1826  2023-11-23 12:29:55.413123
1827  2023-11-23 12:29:55.444120
1828  2023-11-23 12:29:55.476035
1829  2023-11-23 12:29:55.508947
1830  2023-11-23 12:29:55.540901
1831  2023-11-23 12:29:55.572892
1832  2023-11-23 12:29:55.604807
1833  2023-11-23 12:29:55.636876
1834  2023-11-23 12:29:55.668837
1835  2023-11-23 12:29:55.700749
1836  2023-11-23 12:29:55.748615
1837  2023-11-23 12:29:55.780492
1838  2023-11-23 12:29:55.812412
1839  2023-11-23 12:29:55.844321
1840  2023-11-23 12:29:55.877266
1841  2023-11-23 12:29:55.908151
1842  2023-11-23 12:29:55.940065
1843  2023-11-23 12:29:55.972977
1844  2023-11-23 12:29:56.004892
1845  2023-11-23 12:29:56.036843
1846  2023-11-23 12:29:56.068721
1847  2023-11-23 12:29:56.100636
1848  2023-11-23 12:29:56.148508
1849  2023-11-23 12:29:56.180423
1850  2023-11-23 12:29:56.212338
1851  2023-11-23 12:29:56.244252
1852  2023-11-23 12:29:56.277164
1853  2023-11-23 12:29:56.309079
1854  2023-11-23 12:29:56.340994
1855  2023-11-23 12:29:56.372908
1856  2023-11-23 12:29:56.404823
1857  2023-11-23 12:29:56.436839
1858  2023-11-23 12:29:56.468858
1859  2023-11-23 12:29:56.500773
1860  2023-11-23 12:29:56.548647
1861  2023-11-23 12:29:56.581672
1862  2023-11-23 12:29:56.612664
1863  2023-11-23 12:29:56.644611
1864  2023-11-23 12:29:56.676556
1865  2023-11-23 12:29:56.709468
1866  2023-11-23 12:29:56.740385
1867  2023-11-23 12:29:56.773297
1868  2023-11-23 12:29:56.804214
1869  2023-11-23 12:29:56.836129
1870  2023-11-23 12:29:56.869089
1871  2023-11-23 12:29:56.900956
1872  2023-11-23 12:29:56.948858
1873  2023-11-23 12:29:56.980742
1874  2023-11-23 12:29:57.012657
1875  2023-11-23 12:29:57.044608
1876  2023-11-23 12:29:57.076527
1877  2023-11-23 12:29:57.108401
1878  2023-11-23 12:29:57.140316
1879  2023-11-23 12:29:57.172278
1880  2023-11-23 12:29:57.205175
1881  2023-11-23 12:29:57.237058
1882  2023-11-23 12:29:57.268972
1883  2023-11-23 12:29:57.300886
1884  2023-11-23 12:29:57.348758
1885  2023-11-23 12:29:57.380705
1886  2023-11-23 12:29:57.412619
1887  2023-11-23 12:29:57.444502
1888  2023-11-23 12:29:57.476417
1889  2023-11-23 12:29:57.508332
1890  2023-11-23 12:29:57.540246
1891  2023-11-23 12:29:57.572194
1892  2023-11-23 12:29:57.604076
1893  2023-11-23 12:29:57.636992
1894  2023-11-23 12:29:57.668903
1895  2023-11-23 12:29:57.700817
1896  2023-11-23 12:29:57.748689
1897  2023-11-23 12:29:57.780604
1898  2023-11-23 12:29:57.812519
1899  2023-11-23 12:29:57.844433
1900  2023-11-23 12:29:57.877347
1901  2023-11-23 12:29:57.909278
1902  2023-11-23 12:29:57.941175
1903  2023-11-23 12:29:57.972092
1904  2023-11-23 12:29:58.005042
1905  2023-11-23 12:29:58.036951
1906  2023-11-23 12:29:58.068833
1907  2023-11-23 12:29:58.100748
1908  2023-11-23 12:29:58.148693
1909  2023-11-23 12:29:58.180641
1910  2023-11-23 12:29:58.212586
1911  2023-11-23 12:29:58.244503
1912  2023-11-23 12:29:58.276385
1913  2023-11-23 12:29:58.309297
1914  2023-11-23 12:29:58.340251
1915  2023-11-23 12:29:58.372175
1916  2023-11-23 12:29:58.405041
1917  2023-11-23 12:29:58.436956
1918  2023-11-23 12:29:58.468871
1919  2023-11-23 12:29:58.500785
1920  2023-11-23 12:29:58.548657
1921  2023-11-23 12:29:58.580572
1922  2023-11-23 12:29:58.612490
1923  2023-11-23 12:29:58.644401
1924  2023-11-23 12:29:58.676316
1925  2023-11-23 12:29:58.708231
1926  2023-11-23 12:29:58.740145
1927  2023-11-23 12:29:58.773057
1928  2023-11-23 12:29:58.804972
1929  2023-11-23 12:29:58.836887
1930  2023-11-23 12:29:58.868801
1931  2023-11-23 12:29:58.900716
1932  2023-11-23 12:29:58.948588
1933  2023-11-23 12:29:58.980503
1934  2023-11-23 12:29:59.012417
1935  2023-11-23 12:29:59.044495
1936  2023-11-23 12:29:59.076409
1937  2023-11-23 12:29:59.108324
1938  2023-11-23 12:29:59.140239
1939  2023-11-23 12:29:59.173151
1940  2023-11-23 12:29:59.205089
1941  2023-11-23 12:29:59.236980
1942  2023-11-23 12:29:59.268895
1943  2023-11-23 12:29:59.316767
1944  2023-11-23 12:29:59.348681
1945  2023-11-23 12:29:59.380596
1946  2023-11-23 12:29:59.412558
1947  2023-11-23 12:29:59.444425
1948  2023-11-23 12:29:59.476340
1949  2023-11-23 12:29:59.508255
1950  2023-11-23 12:29:59.541071
1951  2023-11-23 12:29:59.573027
1952  2023-11-23 12:29:59.604942
1953  2023-11-23 12:29:59.636857
1954  2023-11-23 12:29:59.668809
1955  2023-11-23 12:29:59.716676
1956  2023-11-23 12:29:59.748592
1957  2023-11-23 12:29:59.780473
1958  2023-11-23 12:29:59.812387
1959  2023-11-23 12:29:59.844302
1960  2023-11-23 12:29:59.876252
1961  2023-11-23 12:29:59.908131
1962  2023-11-23 12:29:59.941043
1963  2023-11-23 12:29:59.972958
1964  2023-11-23 12:30:00.004873
1965  2023-11-23 12:30:00.036820
1966  2023-11-23 12:30:00.068702
1967  2023-11-23 12:30:00.116574
1968  2023-11-23 12:30:00.148489
1969  2023-11-23 12:30:00.180413
1970  2023-11-23 12:30:00.212318
1971  2023-11-23 12:30:00.244233
1972  2023-11-23 12:30:00.276147
1973  2023-11-23 12:30:00.309229
1974  2023-11-23 12:30:00.340146
1975  2023-11-23 12:30:00.373058
1976  2023-11-23 12:30:00.404973
1977  2023-11-23 12:30:00.436888
1978  2023-11-23 12:30:00.468802
1979  2023-11-23 12:30:00.516675
1980  2023-11-23 12:30:00.548741
1981  2023-11-23 12:30:00.580656
1982  2023-11-23 12:30:00.612582
1983  2023-11-23 12:30:00.644485
1984  2023-11-23 12:30:00.676400
1985  2023-11-23 12:30:00.709312
1986  2023-11-23 12:30:00.741228
1987  2023-11-23 12:30:00.772144
1988  2023-11-23 12:30:00.805056
1989  2023-11-23 12:30:00.837023
1990  2023-11-23 12:30:00.868938
1991  2023-11-23 12:30:00.916810
1992  2023-11-23 12:30:00.948792
1993  2023-11-23 12:30:00.980706
1994  2023-11-23 12:30:01.012621
1995  2023-11-23 12:30:01.044571
1996  2023-11-23 12:30:01.076500
1997  2023-11-23 12:30:01.108364
1998  2023-11-23 12:30:01.140279
1999  2023-11-23 12:30:01.173191
2000  2023-11-23 12:30:01.205072
2001  2023-11-23 12:30:01.236986
2002  2023-11-23 12:30:01.268932
2003  2023-11-23 12:30:01.316804
2004  2023-11-23 12:30:01.348718
2005  2023-11-23 12:30:01.380720
2006  2023-11-23 12:30:01.412634
2007  2023-11-23 12:30:01.444601
2008  2023-11-23 12:30:01.476512
2009  2023-11-23 12:30:01.508459
2010  2023-11-23 12:30:01.540478
2011  2023-11-23 12:30:01.572392
2012  2023-11-23 12:30:01.604334
2013  2023-11-23 12:30:01.636249
2014  2023-11-23 12:30:01.668164
2015  2023-11-23 12:30:01.717033
2016  2023-11-23 12:30:01.748948
2017  2023-11-23 12:30:01.780862
2018  2023-11-23 12:30:01.812777
2019  2023-11-23 12:30:01.844692
2020  2023-11-23 12:30:01.876606
2021  2023-11-23 12:30:01.908521
2022  2023-11-23 12:30:01.940436
2023  2023-11-23 12:30:01.972351
2024  2023-11-23 12:30:02.004265
2025  2023-11-23 12:30:02.036180
2026  2023-11-23 12:30:02.068094
2027  2023-11-23 12:30:02.116964
2028  2023-11-23 12:30:02.148879
2029  2023-11-23 12:30:02.180795
2030  2023-11-23 12:30:02.212709
2031  2023-11-23 12:30:02.245647
2032  2023-11-23 12:30:02.276539
2033  2023-11-23 12:30:02.309484
2034  2023-11-23 12:30:02.341365
2035  2023-11-23 12:30:02.374277
2036  2023-11-23 12:30:02.406222
2037  2023-11-23 12:30:02.438107
2038  2023-11-23 12:30:02.470085
2039  2023-11-23 12:30:02.516911
2040  2023-11-23 12:30:02.549832
2041  2023-11-23 12:30:02.581753
2042  2023-11-23 12:30:02.613662
2043  2023-11-23 12:30:02.645676
2044  2023-11-23 12:30:02.677592
2045  2023-11-23 12:30:02.709514
2046  2023-11-23 12:30:02.741440
2047  2023-11-23 12:30:02.773360
2048  2023-11-23 12:30:02.805257
2049  2023-11-23 12:30:02.837178
2050  2023-11-23 12:30:02.885149
2051  2023-11-23 12:30:02.917049
2052  2023-11-23 12:30:02.948969
2053  2023-11-23 12:30:02.980884
2054  2023-11-23 12:30:03.012767
2055  2023-11-23 12:30:03.044731
2056  2023-11-23 12:30:03.076641
2057  2023-11-23 12:30:03.108510
2058  2023-11-23 12:30:03.141461
2059  2023-11-23 12:30:03.173388
2060  2023-11-23 12:30:03.205230
2061  2023-11-23 12:30:03.237212
2062  2023-11-23 12:30:03.285084
2063  2023-11-23 12:30:03.317001
2064  2023-11-23 12:30:03.348914
2065  2023-11-23 12:30:03.380828
2066  2023-11-23 12:30:03.412821
2067  2023-11-23 12:30:03.444740
2068  2023-11-23 12:30:03.476652
2069  2023-11-23 12:30:03.508565
2070  2023-11-23 12:30:03.540449
2071  2023-11-23 12:30:03.572395
2072  2023-11-23 12:30:03.604295
2073  2023-11-23 12:30:03.637226
2074  2023-11-23 12:30:03.684064
2075  2023-11-23 12:30:03.717011
2076  2023-11-23 12:30:03.748910
2077  2023-11-23 12:30:03.780839
2078  2023-11-23 12:30:03.812752
2079  2023-11-23 12:30:03.844668
2080  2023-11-23 12:30:03.876581
2081  2023-11-23 12:30:03.908501
2082  2023-11-23 12:30:03.942422
2083  2023-11-23 12:30:03.972328
2084  2023-11-23 12:30:04.005206
2085  2023-11-23 12:30:04.038163
2086  2023-11-23 12:30:04.084993
2087  2023-11-23 12:30:04.116907
2088  2023-11-23 12:30:04.149846
2089  2023-11-23 12:30:04.180737
2090  2023-11-23 12:30:04.212681
2091  2023-11-23 12:30:04.244599
2092  2023-11-23 12:30:04.277523
2093  2023-11-23 12:30:04.308428
2094  2023-11-23 12:30:04.341354
2095  2023-11-23 12:30:04.373363
2096  2023-11-23 12:30:04.405231
2097  2023-11-23 12:30:04.437147
2098  2023-11-23 12:30:04.485168
2099  2023-11-23 12:30:04.517083
2100  2023-11-23 12:30:04.549155
2101  2023-11-23 12:30:04.582066
2102  2023-11-23 12:30:04.612983
2103  2023-11-23 12:30:04.644898
2104  2023-11-23 12:30:04.676843
2105  2023-11-23 12:30:04.708759
2106  2023-11-23 12:30:04.741675
2107  2023-11-23 12:30:04.773596
2108  2023-11-23 12:30:04.804512
2109  2023-11-23 12:30:04.836427
2110  2023-11-23 12:30:04.884260
2111  2023-11-23 12:30:04.916217
2112  2023-11-23 12:30:04.949121
2113  2023-11-23 12:30:04.981040
2114  2023-11-23 12:30:05.013077
2115  2023-11-23 12:30:05.045001
2116  2023-11-23 12:30:05.076913
2117  2023-11-23 12:30:05.108825
2118  2023-11-23 12:30:05.140738
2119  2023-11-23 12:30:05.172655
2120  2023-11-23 12:30:05.204574
2121  2023-11-23 12:30:05.236451
2122  2023-11-23 12:30:05.284359
2123  2023-11-23 12:30:05.316238
2124  2023-11-23 12:30:05.348153
2125  2023-11-23 12:30:05.381099
2126  2023-11-23 12:30:05.412981
2127  2023-11-23 12:30:05.444893
2128  2023-11-23 12:30:05.476808
2129  2023-11-23 12:30:05.508895
2130  2023-11-23 12:30:05.540812
2131  2023-11-23 12:30:05.572725
2132  2023-11-23 12:30:05.604608
2133  2023-11-23 12:30:05.636561
2134  2023-11-23 12:30:05.684395
2135  2023-11-23 12:30:05.716342
2136  2023-11-23 12:30:05.748257
2137  2023-11-23 12:30:05.780187
2138  2023-11-23 12:30:05.813091
2139  2023-11-23 12:30:05.845031
2140  2023-11-23 12:30:05.876918
2141  2023-11-23 12:30:05.908828
2142  2023-11-23 12:30:05.940755
2143  2023-11-23 12:30:05.972688
2144  2023-11-23 12:30:06.004583
2145  2023-11-23 12:30:06.036497
2146  2023-11-23 12:30:06.084359
2147  2023-11-23 12:30:06.116277
2148  2023-11-23 12:30:06.148188
2149  2023-11-23 12:30:06.181098
2150  2023-11-23 12:30:06.213017
2151  2023-11-23 12:30:06.244896
2152  2023-11-23 12:30:06.276811
2153  2023-11-23 12:30:06.308760
2154  2023-11-23 12:30:06.340642
2155  2023-11-23 12:30:06.372516
2156  2023-11-23 12:30:06.404430
2157  2023-11-23 12:30:06.436384
2158  2023-11-23 12:30:06.484290
2159  2023-11-23 12:30:06.516170
2160  2023-11-23 12:30:06.548125
2161  2023-11-23 12:30:06.581033
2162  2023-11-23 12:30:06.612943
2163  2023-11-23 12:30:06.644826
2164  2023-11-23 12:30:06.676740
2165  2023-11-23 12:30:06.708686
2166  2023-11-23 12:30:06.741621
2167  2023-11-23 12:30:06.772525
2168  2023-11-23 12:30:06.804399
2169  2023-11-23 12:30:06.852310
2170  2023-11-23 12:30:06.884228
2171  2023-11-23 12:30:06.917136
2172  2023-11-23 12:30:06.949051
2173  2023-11-23 12:30:06.980979
2174  2023-11-23 12:30:07.012876
2175  2023-11-23 12:30:07.044791
2176  2023-11-23 12:30:07.076826
2177  2023-11-23 12:30:07.108709
2178  2023-11-23 12:30:07.140654
2179  2023-11-23 12:30:07.172581
2180  2023-11-23 12:30:07.204492
2181  2023-11-23 12:30:07.252369
2182  2023-11-23 12:30:07.284285
2183  2023-11-23 12:30:07.316154
2184  2023-11-23 12:30:07.348106
2185  2023-11-23 12:30:07.381039
2186  2023-11-23 12:30:07.412927
2187  2023-11-23 12:30:07.444840
2188  2023-11-23 12:30:07.476762
2189  2023-11-23 12:30:07.508671
2190  2023-11-23 12:30:07.540642
2191  2023-11-23 12:30:07.572663
2192  2023-11-23 12:30:07.604582
2193  2023-11-23 12:30:07.652450
2194  2023-11-23 12:30:07.684377
2195  2023-11-23 12:30:07.716302
2196  2023-11-23 12:30:07.748288
2197  2023-11-23 12:30:07.780204
2198  2023-11-23 12:30:07.813116
2199  2023-11-23 12:30:07.845036
2200  2023-11-23 12:30:07.877016
2201  2023-11-23 12:30:07.908957
2202  2023-11-23 12:30:07.940905
2203  2023-11-23 12:30:07.972817
2204  2023-11-23 12:30:08.004732
2205  2023-11-23 12:30:08.052608
2206  2023-11-23 12:30:08.084523
2207  2023-11-23 12:30:08.116402
2208  2023-11-23 12:30:08.148317
2209  2023-11-23 12:30:08.180271
2210  2023-11-23 12:30:08.212181
2211  2023-11-23 12:30:08.244101
2212  2023-11-23 12:30:08.276973
2213  2023-11-23 12:30:08.308926
2214  2023-11-23 12:30:08.340834
2215  2023-11-23 12:30:08.372755
2216  2023-11-23 12:30:08.404663
2217  2023-11-23 12:30:08.452632
2218  2023-11-23 12:30:08.484454
2219  2023-11-23 12:30:08.516370
2220  2023-11-23 12:30:08.548280
2221  2023-11-23 12:30:08.581211
2222  2023-11-23 12:30:08.613107
2223  2023-11-23 12:30:08.645039
2224  2023-11-23 12:30:08.676941
2225  2023-11-23 12:30:08.708819
2226  2023-11-23 12:30:08.740734
2227  2023-11-23 12:30:08.772684
2228  2023-11-23 12:30:08.804597
2229  2023-11-23 12:30:08.852440
2230  2023-11-23 12:30:08.884388
2231  2023-11-23 12:30:08.917261
2232  2023-11-23 12:30:08.949215
2233  2023-11-23 12:30:08.981123
2234  2023-11-23 12:30:09.013042
2235  2023-11-23 12:30:09.044988
2236  2023-11-23 12:30:09.076835
2237  2023-11-23 12:30:09.108749
2238  2023-11-23 12:30:09.140706
2239  2023-11-23 12:30:09.172614
2240  2023-11-23 12:30:09.204528
2241  2023-11-23 12:30:09.252367
2242  2023-11-23 12:30:09.285322
2243  2023-11-23 12:30:09.316340
2244  2023-11-23 12:30:09.348256
2245  2023-11-23 12:30:09.381135
2246  2023-11-23 12:30:09.413079
2247  2023-11-23 12:30:09.444990
2248  2023-11-23 12:30:09.476910
2249  2023-11-23 12:30:09.508788
2250  2023-11-23 12:30:09.540704
2251  2023-11-23 12:30:09.572620
2252  2023-11-23 12:30:09.604563
2253  2023-11-23 12:30:09.652439
2254  2023-11-23 12:30:09.684360
2255  2023-11-23 12:30:09.716267
2256  2023-11-23 12:30:09.748182
2257  2023-11-23 12:30:09.781060
2258  2023-11-23 12:30:09.813031
2259  2023-11-23 12:30:09.844921
2260  2023-11-23 12:30:09.876837
2261  2023-11-23 12:30:09.908750
2262  2023-11-23 12:30:09.940633
2263  2023-11-23 12:30:09.972581
2264  2023-11-23 12:30:10.004513
2265  2023-11-23 12:30:10.052335
2266  2023-11-23 12:30:10.084287
2267  2023-11-23 12:30:10.116200
2268  2023-11-23 12:30:10.148079
2269  2023-11-23 12:30:10.181049
2270  2023-11-23 12:30:10.212956
2271  2023-11-23 12:30:10.244975
2272  2023-11-23 12:30:10.276894
2273  2023-11-23 12:30:10.308805
2274  2023-11-23 12:30:10.340720
2275  2023-11-23 12:30:10.372650
2276  2023-11-23 12:30:10.420510
2277  2023-11-23 12:30:10.452441
2278  2023-11-23 12:30:10.484339
2279  2023-11-23 12:30:10.516258
2280  2023-11-23 12:30:10.548171
2281  2023-11-23 12:30:10.581046
2282  2023-11-23 12:30:10.612998
2283  2023-11-23 12:30:10.644913
2284  2023-11-23 12:30:10.676827
2285  2023-11-23 12:30:10.708739
2286  2023-11-23 12:30:10.740619
2287  2023-11-23 12:30:10.772596
2288  2023-11-23 12:30:10.820461
2289  2023-11-23 12:30:10.852359
2290  2023-11-23 12:30:10.884275
2291  2023-11-23 12:30:10.916190
2292  2023-11-23 12:30:10.948064
2293  2023-11-23 12:30:10.981008
2294  2023-11-23 12:30:11.012930
2295  2023-11-23 12:30:11.044837
2296  2023-11-23 12:30:11.076758
2297  2023-11-23 12:30:11.108669
2298  2023-11-23 12:30:11.140584
2299  2023-11-23 12:30:11.172496
2300  2023-11-23 12:30:11.220369
2301  2023-11-23 12:30:11.252286
2302  2023-11-23 12:30:11.284201
2303  2023-11-23 12:30:11.316113
2304  2023-11-23 12:30:11.348992
2305  2023-11-23 12:30:11.380938
2306  2023-11-23 12:30:11.412858
2307  2023-11-23 12:30:11.444770
2308  2023-11-23 12:30:11.476683
2309  2023-11-23 12:30:11.508598
2310  2023-11-23 12:30:11.540515
2311  2023-11-23 12:30:11.572442
2312  2023-11-23 12:30:11.620303
2313  2023-11-23 12:30:11.652216
2314  2023-11-23 12:30:11.684130
2315  2023-11-23 12:30:11.717042
2316  2023-11-23 12:30:11.748960
2317  2023-11-23 12:30:11.780838
2318  2023-11-23 12:30:11.812752
2319  2023-11-23 12:30:11.844700
2320  2023-11-23 12:30:11.876615
2321  2023-11-23 12:30:11.908533
2322  2023-11-23 12:30:11.940411
2323  2023-11-23 12:30:11.972326
2324  2023-11-23 12:30:12.020292
2325  2023-11-23 12:30:12.052242
2326  2023-11-23 12:30:12.084158
2327  2023-11-23 12:30:12.116096
2328  2023-11-23 12:30:12.148988
2329  2023-11-23 12:30:12.180865
2330  2023-11-23 12:30:12.212779
2331  2023-11-23 12:30:12.244726
2332  2023-11-23 12:30:12.276743
2333  2023-11-23 12:30:12.308655
2334  2023-11-23 12:30:12.340539
2335  2023-11-23 12:30:12.372453
2336  2023-11-23 12:30:12.420325
2337  2023-11-23 12:30:12.452240
2338  2023-11-23 12:30:12.484190
2339  2023-11-23 12:30:12.516109
2340  2023-11-23 12:30:12.549015
2341  2023-11-23 12:30:12.580896
2342  2023-11-23 12:30:12.612810
2343  2023-11-23 12:30:12.644756
2344  2023-11-23 12:30:12.676673
2345  2023-11-23 12:30:12.708617
2346  2023-11-23 12:30:12.740470
2347  2023-11-23 12:30:12.772392
2348  2023-11-23 12:30:12.821281
2349  2023-11-23 12:30:12.852171
2350  2023-11-23 12:30:12.884118
2351  2023-11-23 12:30:12.917040
2352  2023-11-23 12:30:12.948950
2353  2023-11-23 12:30:12.980827
2354  2023-11-23 12:30:13.012741
2355  2023-11-23 12:30:13.044692
2356  2023-11-23 12:30:13.076603
2357  2023-11-23 12:30:13.108517
2358  2023-11-23 12:30:13.140400
2359  2023-11-23 12:30:13.172354
2360  2023-11-23 12:30:13.220187
2361  2023-11-23 12:30:13.252154
2362  2023-11-23 12:30:13.284047
2363  2023-11-23 12:30:13.316928
2364  2023-11-23 12:30:13.348875
2365  2023-11-23 12:30:13.380793
2366  2023-11-23 12:30:13.412711
2367  2023-11-23 12:30:13.444620
2368  2023-11-23 12:30:13.476537
2369  2023-11-23 12:30:13.508453
2370  2023-11-23 12:30:13.540375
2371  2023-11-23 12:30:13.572247
2372  2023-11-23 12:30:13.620153
2373  2023-11-23 12:30:13.652033
2374  2023-11-23 12:30:13.684061
2375  2023-11-23 12:30:13.716937
2376  2023-11-23 12:30:13.748886
2377  2023-11-23 12:30:13.780766
2378  2023-11-23 12:30:13.812681
2379  2023-11-23 12:30:13.844633
2380  2023-11-23 12:30:13.876561
2381  2023-11-23 12:30:13.908456
2382  2023-11-23 12:30:13.940339
2383  2023-11-23 12:30:13.972254
2384  2023-11-23 12:30:14.020126
2385  2023-11-23 12:30:14.053038
2386  2023-11-23 12:30:14.084985
2387  2023-11-23 12:30:14.116914
2388  2023-11-23 12:30:14.148782
2389  2023-11-23 12:30:14.180697
2390  2023-11-23 12:30:14.212611
2391  2023-11-23 12:30:14.244584
2392  2023-11-23 12:30:14.276441
2393  2023-11-23 12:30:14.308356
2394  2023-11-23 12:30:14.340270
2395  2023-11-23 12:30:14.388142
2396  2023-11-23 12:30:14.420087
2397  2023-11-23 12:30:14.453023
2398  2023-11-23 12:30:14.484884
2399  2023-11-23 12:30:14.516805
2400  2023-11-23 12:30:14.548745
2401  2023-11-23 12:30:14.580666
2402  2023-11-23 12:30:14.612542
2403  2023-11-23 12:30:14.644457
2404  2023-11-23 12:30:14.676419
2405  2023-11-23 12:30:14.708328
2406  2023-11-23 12:30:14.740201
2407  2023-11-23 12:30:14.789071
2408  2023-11-23 12:30:14.820985
2409  2023-11-23 12:30:14.852900
2410  2023-11-23 12:30:14.884814
2411  2023-11-23 12:30:14.916729
2412  2023-11-23 12:30:14.948644
2413  2023-11-23 12:30:14.980558
2414  2023-11-23 12:30:15.012473
2415  2023-11-23 12:30:15.044388
2416  2023-11-23 12:30:15.076462
2417  2023-11-23 12:30:15.108339
2418  2023-11-23 12:30:15.140254
2419  2023-11-23 12:30:15.188126
2420  2023-11-23 12:30:15.220041
2421  2023-11-23 12:30:15.252992
2422  2023-11-23 12:30:15.284898
2423  2023-11-23 12:30:15.316782
2424  2023-11-23 12:30:15.348697
2425  2023-11-23 12:30:15.380645
2426  2023-11-23 12:30:15.412561
2427  2023-11-23 12:30:15.444556
2428  2023-11-23 12:30:15.476586
2429  2023-11-23 12:30:15.508534
2430  2023-11-23 12:30:15.540449
2431  2023-11-23 12:30:15.588413
2432  2023-11-23 12:30:15.620327
2433  2023-11-23 12:30:15.652241
2434  2023-11-23 12:30:15.684156
2435  2023-11-23 12:30:15.717068
2436  2023-11-23 12:30:15.748983
2437  2023-11-23 12:30:15.780898
2438  2023-11-23 12:30:15.812812
2439  2023-11-23 12:30:15.844727
2440  2023-11-23 12:30:15.876797
2441  2023-11-23 12:30:15.908712
2442  2023-11-23 12:30:15.940627
2443  2023-11-23 12:30:15.988499
2444  2023-11-23 12:30:16.020413
2445  2023-11-23 12:30:16.052328
2446  2023-11-23 12:30:16.084243
2447  2023-11-23 12:30:16.116158
2448  2023-11-23 12:30:16.149070
2449  2023-11-23 12:30:16.180984
2450  2023-11-23 12:30:16.212899
2451  2023-11-23 12:30:16.244814
2452  2023-11-23 12:30:16.276732
2453  2023-11-23 12:30:16.308643
2454  2023-11-23 12:30:16.340558
2455  2023-11-23 12:30:16.388430
2456  2023-11-23 12:30:16.420344
2457  2023-11-23 12:30:16.452259
2458  2023-11-23 12:30:16.485171
2459  2023-11-23 12:30:16.517086
2460  2023-11-23 12:30:16.549000
2461  2023-11-23 12:30:16.580915
2462  2023-11-23 12:30:16.612830
2463  2023-11-23 12:30:16.644744
2464  2023-11-23 12:30:16.676659
2465  2023-11-23 12:30:16.708574
2466  2023-11-23 12:30:16.740493
2467  2023-11-23 12:30:16.789360
2468  2023-11-23 12:30:16.820275
2469  2023-11-23 12:30:16.852190
2470  2023-11-23 12:30:16.884104
2471  2023-11-23 12:30:16.917054
2472  2023-11-23 12:30:16.948969
2473  2023-11-23 12:30:16.980846
2474  2023-11-23 12:30:17.012876
2475  2023-11-23 12:30:17.044830
2476  2023-11-23 12:30:17.076746
2477  2023-11-23 12:30:17.108620
2478  2023-11-23 12:30:17.140540
2479  2023-11-23 12:30:17.188407
2480  2023-11-23 12:30:17.220454
2481  2023-11-23 12:30:17.252410
2482  2023-11-23 12:30:17.284328
2483  2023-11-23 12:30:17.317195
2484  2023-11-23 12:30:17.349228
2485  2023-11-23 12:30:17.380184
2486  2023-11-23 12:30:17.412093
2487  2023-11-23 12:30:17.444971
2488  2023-11-23 12:30:17.476886
2489  2023-11-23 12:30:17.508800
2490  2023-11-23 12:30:17.540751
2491  2023-11-23 12:30:17.588627
2492  2023-11-23 12:30:17.620551
2493  2023-11-23 12:30:17.652416
2494  2023-11-23 12:30:17.684331
2495  2023-11-23 12:30:17.716399
2496  2023-11-23 12:30:17.748314
2497  2023-11-23 12:30:17.780272
2498  2023-11-23 12:30:17.812143
2499  2023-11-23 12:30:17.845055
2500  2023-11-23 12:30:17.876970
2501  2023-11-23 12:30:17.908997
2502  2023-11-23 12:30:17.956869
2503  2023-11-23 12:30:17.988784
2504  2023-11-23 12:30:18.020698
2505  2023-11-23 12:30:18.052613
2506  2023-11-23 12:30:18.084528
2507  2023-11-23 12:30:18.116442
2508  2023-11-23 12:30:18.148357
2509  2023-11-23 12:30:18.180272
2510  2023-11-23 12:30:18.212186
2511  2023-11-23 12:30:18.245111
2512  2023-11-23 12:30:18.277013
2513  2023-11-23 12:30:18.308928
2514  2023-11-23 12:30:18.356800
2515  2023-11-23 12:30:18.388715
2516  2023-11-23 12:30:18.420629
2517  2023-11-23 12:30:18.452550
2518  2023-11-23 12:30:18.484458
2519  2023-11-23 12:30:18.516496
2520  2023-11-23 12:30:18.548520
2521  2023-11-23 12:30:18.580485
2522  2023-11-23 12:30:18.613468
2523  2023-11-23 12:30:18.644381
2524  2023-11-23 12:30:18.676296
2525  2023-11-23 12:30:18.708241
2526  2023-11-23 12:30:18.756212
2527  2023-11-23 12:30:18.788176
2528  2023-11-23 12:30:18.820081
2529  2023-11-23 12:30:18.852993
2530  2023-11-23 12:30:18.884908
2531  2023-11-23 12:30:18.916858
2532  2023-11-23 12:30:18.948737
2533  2023-11-23 12:30:18.980652
2534  2023-11-23 12:30:19.012567
2535  2023-11-23 12:30:19.044520
2536  2023-11-23 12:30:19.076396
2537  2023-11-23 12:30:19.108311
2538  2023-11-23 12:30:19.156183
2539  2023-11-23 12:30:19.188097
2540  2023-11-23 12:30:19.220149
2541  2023-11-23 12:30:19.253062
2542  2023-11-23 12:30:19.284162
2543  2023-11-23 12:30:19.316160
2544  2023-11-23 12:30:19.349072
2545  2023-11-23 12:30:19.380986
2546  2023-11-23 12:30:19.412901
2547  2023-11-23 12:30:19.444816
2548  2023-11-23 12:30:19.476730
2549  2023-11-23 12:30:19.508645
2550  2023-11-23 12:30:19.556517
2551  2023-11-23 12:30:19.588432
2552  2023-11-23 12:30:19.620346
2553  2023-11-23 12:30:19.652261
2554  2023-11-23 12:30:19.684176
2555  2023-11-23 12:30:19.716090
2556  2023-11-23 12:30:19.749007
2557  2023-11-23 12:30:19.780917
2558  2023-11-23 12:30:19.812832
2559  2023-11-23 12:30:19.844746
2560  2023-11-23 12:30:19.876661
2561  2023-11-23 12:30:19.908576
2562  2023-11-23 12:30:19.956525
2563  2023-11-23 12:30:19.988435
2564  2023-11-23 12:30:20.020349
2565  2023-11-23 12:30:20.052435
2566  2023-11-23 12:30:20.084350
2567  2023-11-23 12:30:20.116298
2568  2023-11-23 12:30:20.149176
2569  2023-11-23 12:30:20.180093
2570  2023-11-23 12:30:20.213096
2571  2023-11-23 12:30:20.245111
2572  2023-11-23 12:30:20.276970
2573  2023-11-23 12:30:20.308885
2574  2023-11-23 12:30:20.356757
2575  2023-11-23 12:30:20.388672
2576  2023-11-23 12:30:20.420620
2577  2023-11-23 12:30:20.452531
2578  2023-11-23 12:30:20.484416
2579  2023-11-23 12:30:20.516403
2580  2023-11-23 12:30:20.548318
2581  2023-11-23 12:30:20.580270
2582  2023-11-23 12:30:20.612147
2583  2023-11-23 12:30:20.645059
2584  2023-11-23 12:30:20.676974
2585  2023-11-23 12:30:20.708923
2586  2023-11-23 12:30:20.756798
2587  2023-11-23 12:30:20.788730
2588  2023-11-23 12:30:20.820690
2589  2023-11-23 12:30:20.852685
2590  2023-11-23 12:30:20.884599
2591  2023-11-23 12:30:20.916558
2592  2023-11-23 12:30:20.948429
2593  2023-11-23 12:30:20.980343
2594  2023-11-23 12:30:21.012258
2595  2023-11-23 12:30:21.044205
2596  2023-11-23 12:30:21.076088
2597  2023-11-23 12:30:21.109004
2598  2023-11-23 12:30:21.156872
2599  2023-11-23 12:30:21.188786
2600  2023-11-23 12:30:21.220701
2601  2023-11-23 12:30:21.252616
2602  2023-11-23 12:30:21.284542
2603  2023-11-23 12:30:21.316445
2604  2023-11-23 12:30:21.348360
2605  2023-11-23 12:30:21.380274
2606  2023-11-23 12:30:21.412189
2607  2023-11-23 12:30:21.445108
2608  2023-11-23 12:30:21.477113
2609  2023-11-23 12:30:21.508930
2610  2023-11-23 12:30:21.556802
2611  2023-11-23 12:30:21.588717
2612  2023-11-23 12:30:21.620632
2613  2023-11-23 12:30:21.652660
2614  2023-11-23 12:30:21.684575
2615  2023-11-23 12:30:21.716495
2616  2023-11-23 12:30:21.748455
2617  2023-11-23 12:30:21.780319
2618  2023-11-23 12:30:21.812234
2619  2023-11-23 12:30:21.846193
2620  2023-11-23 12:30:21.878031
2621  2023-11-23 12:30:21.924924
2622  2023-11-23 12:30:21.957880
2623  2023-11-23 12:30:21.989796
2624  2023-11-23 12:30:22.021775
2625  2023-11-23 12:30:22.053689
2626  2023-11-23 12:30:22.085605
2627  2023-11-23 12:30:22.118485
2628  2023-11-23 12:30:22.149435
2629  2023-11-23 12:30:22.182315
2630  2023-11-23 12:30:22.213232
2631  2023-11-23 12:30:22.245146
2632  2023-11-23 12:30:22.277220
2633  2023-11-23 12:30:22.325366
2634  2023-11-23 12:30:22.357230
2635  2023-11-23 12:30:22.389184
2636  2023-11-23 12:30:22.421060
2637  2023-11-23 12:30:22.452975
2638  2023-11-23 12:30:22.485933
2639  2023-11-23 12:30:22.517800
2640  2023-11-23 12:30:22.549747
2641  2023-11-23 12:30:22.581661
2642  2023-11-23 12:30:22.613576
2643  2023-11-23 12:30:22.645507
2644  2023-11-23 12:30:22.677405
2645  2023-11-23 12:30:22.725279
2646  2023-11-23 12:30:22.757191
2647  2023-11-23 12:30:22.789109
2648  2023-11-23 12:30:22.821992
2649  2023-11-23 12:30:22.852938
2650  2023-11-23 12:30:22.885818
2651  2023-11-23 12:30:22.916765
2652  2023-11-23 12:30:22.949679
2653  2023-11-23 12:30:22.981567
2654  2023-11-23 12:30:23.013511
2655  2023-11-23 12:30:23.045429
2656  2023-11-23 12:30:23.077335
2657  2023-11-23 12:30:23.125213
2658  2023-11-23 12:30:23.157258
2659  2023-11-23 12:30:23.189166
2660  2023-11-23 12:30:23.221248
2661  2023-11-23 12:30:23.253198
2662  2023-11-23 12:30:23.285103
2663  2023-11-23 12:30:23.317023
2664  2023-11-23 12:30:23.349056
2665  2023-11-23 12:30:23.380967
2666  2023-11-23 12:30:23.412887
2667  2023-11-23 12:30:23.444800
2668  2023-11-23 12:30:23.476712
2669  2023-11-23 12:30:23.524587
2670  2023-11-23 12:30:23.556532
2671  2023-11-23 12:30:23.588494
2672  2023-11-23 12:30:23.620433
2673  2023-11-23 12:30:23.652342
2674  2023-11-23 12:30:23.684231
2675  2023-11-23 12:30:23.717123
2676  2023-11-23 12:30:23.748239
2677  2023-11-23 12:30:23.781107
2678  2023-11-23 12:30:23.813054
2679  2023-11-23 12:30:23.844942
2680  2023-11-23 12:30:23.876883
2681  2023-11-23 12:30:23.924754
2682  2023-11-23 12:30:23.956669
2683  2023-11-23 12:30:23.988586
2684  2023-11-23 12:30:24.020503
2685  2023-11-23 12:30:24.052414
2686  2023-11-23 12:30:24.084346
2687  2023-11-23 12:30:24.117243
2688  2023-11-23 12:30:24.150151
2689  2023-11-23 12:30:24.182073
2690  2023-11-23 12:30:24.212952
2691  2023-11-23 12:30:24.244867
2692  2023-11-23 12:30:24.277814
2693  2023-11-23 12:30:24.324654
2694  2023-11-23 12:30:24.357603
2695  2023-11-23 12:30:24.388642
2696  2023-11-23 12:30:24.422564
2697  2023-11-23 12:30:24.452490
2698  2023-11-23 12:30:24.484368
2699  2023-11-23 12:30:24.517310
2700  2023-11-23 12:30:24.549216
2701  2023-11-23 12:30:24.582137
2702  2023-11-23 12:30:24.614047
2703  2023-11-23 12:30:24.644958
2704  2023-11-23 12:30:24.676838
2705  2023-11-23 12:30:24.724875
2706  2023-11-23 12:30:24.756797
2707  2023-11-23 12:30:24.788711
2708  2023-11-23 12:30:24.821706
2709  2023-11-23 12:30:24.853607
2710  2023-11-23 12:30:24.884501
2711  2023-11-23 12:30:24.916590
2712  2023-11-23 12:30:24.949500
2713  2023-11-23 12:30:24.981413
2714  2023-11-23 12:30:25.013348
2715  2023-11-23 12:30:25.044220
2716  2023-11-23 12:30:25.077158
2717  2023-11-23 12:30:25.125030
2718  2023-11-23 12:30:25.156913
2719  2023-11-23 12:30:25.188877
2720  2023-11-23 12:30:25.220776
2721  2023-11-23 12:30:25.252699
2722  2023-11-23 12:30:25.284574
2723  2023-11-23 12:30:25.316488
2724  2023-11-23 12:30:25.348438
2725  2023-11-23 12:30:25.381348
2726  2023-11-23 12:30:25.413262
2727  2023-11-23 12:30:25.444177
2728  2023-11-23 12:30:25.493052
2729  2023-11-23 12:30:25.524979
2730  2023-11-23 12:30:25.556845
2731  2023-11-23 12:30:25.588791
2732  2023-11-23 12:30:25.620706
2733  2023-11-23 12:30:25.652621
2734  2023-11-23 12:30:25.684504
2735  2023-11-23 12:30:25.716455
2736  2023-11-23 12:30:25.748370
2737  2023-11-23 12:30:25.781245
2738  2023-11-23 12:30:25.813186
2739  2023-11-23 12:30:25.844109
2740  2023-11-23 12:30:25.892978
2741  2023-11-23 12:30:25.924890
2742  2023-11-23 12:30:25.956807
2743  2023-11-23 12:30:25.988719
2744  2023-11-23 12:30:26.020638
2745  2023-11-23 12:30:26.052584
2746  2023-11-23 12:30:26.084523
2747  2023-11-23 12:30:26.116396
2748  2023-11-23 12:30:26.148346
2749  2023-11-23 12:30:26.180256
2750  2023-11-23 12:30:26.213163
2751  2023-11-23 12:30:26.244087
2752  2023-11-23 12:30:26.292970
2753  2023-11-23 12:30:26.324955
2754  2023-11-23 12:30:26.357018
2755  2023-11-23 12:30:26.388984
2756  2023-11-23 12:30:26.420945
2757  2023-11-23 12:30:26.452903
2758  2023-11-23 12:30:26.484904
2759  2023-11-23 12:30:26.516818
2760  2023-11-23 12:30:26.548769
2761  2023-11-23 12:30:26.580656
2762  2023-11-23 12:30:26.612608
2763  2023-11-23 12:30:26.644557
2764  2023-11-23 12:30:26.692411
2765  2023-11-23 12:30:26.724263
2766  2023-11-23 12:30:26.756251
2767  2023-11-23 12:30:26.788165
2768  2023-11-23 12:30:26.820079
2769  2023-11-23 12:30:26.852993
2770  2023-11-23 12:30:26.884907
2771  2023-11-23 12:30:26.916826
2772  2023-11-23 12:30:26.948718
2773  2023-11-23 12:30:26.980667
2774  2023-11-23 12:30:27.012570
2775  2023-11-23 12:30:27.044480
2776  2023-11-23 12:30:27.092355
2777  2023-11-23 12:30:27.125234
2778  2023-11-23 12:30:27.157183
2779  2023-11-23 12:30:27.189096
2780  2023-11-23 12:30:27.221010
2781  2023-11-23 12:30:27.252938
2782  2023-11-23 12:30:27.284861
2783  2023-11-23 12:30:27.316720
2784  2023-11-23 12:30:27.348635
2785  2023-11-23 12:30:27.380585
2786  2023-11-23 12:30:27.412467
2787  2023-11-23 12:30:27.444413
2788  2023-11-23 12:30:27.493301
2789  2023-11-23 12:30:27.524200
2790  2023-11-23 12:30:27.556114
2791  2023-11-23 12:30:27.589024
2792  2023-11-23 12:30:27.620941
2793  2023-11-23 12:30:27.652852
2794  2023-11-23 12:30:27.684772
2795  2023-11-23 12:30:27.716685
2796  2023-11-23 12:30:27.748599
2797  2023-11-23 12:30:27.780516
2798  2023-11-23 12:30:27.812443
2799  2023-11-23 12:30:27.844433
2800  2023-11-23 12:30:27.892368
2801  2023-11-23 12:30:27.924282
2802  2023-11-23 12:30:27.956197
2803  2023-11-23 12:30:27.988127
2804  2023-11-23 12:30:28.021056
2805  2023-11-23 12:30:28.052941
2806  2023-11-23 12:30:28.084853
2807  2023-11-23 12:30:28.116737
2808  2023-11-23 12:30:28.148652
2809  2023-11-23 12:30:28.180599
2810  2023-11-23 12:30:28.212515
2811  2023-11-23 12:30:28.244451
2812  2023-11-23 12:30:28.292306
2813  2023-11-23 12:30:28.324332
2814  2023-11-23 12:30:28.356247
2815  2023-11-23 12:30:28.388161
2816  2023-11-23 12:30:28.420076
2817  2023-11-23 12:30:28.452987
2818  2023-11-23 12:30:28.484901
2819  2023-11-23 12:30:28.516785
2820  2023-11-23 12:30:28.548739
2821  2023-11-23 12:30:28.580647
2822  2023-11-23 12:30:28.613534
2823  2023-11-23 12:30:28.644477
2824  2023-11-23 12:30:28.692367
2825  2023-11-23 12:30:28.724262
2826  2023-11-23 12:30:28.756175
2827  2023-11-23 12:30:28.789059
2828  2023-11-23 12:30:28.821009
2829  2023-11-23 12:30:28.852919
2830  2023-11-23 12:30:28.884834
2831  2023-11-23 12:30:28.916750
2832  2023-11-23 12:30:28.948630
2833  2023-11-23 12:30:28.980586
2834  2023-11-23 12:30:29.012496
2835  2023-11-23 12:30:29.044409
2836  2023-11-23 12:30:29.092282
2837  2023-11-23 12:30:29.124162
2838  2023-11-23 12:30:29.156119
2839  2023-11-23 12:30:29.188990
2840  2023-11-23 12:30:29.220935
2841  2023-11-23 12:30:29.252850
2842  2023-11-23 12:30:29.284762
2843  2023-11-23 12:30:29.316646
2844  2023-11-23 12:30:29.348565
2845  2023-11-23 12:30:29.380517
2846  2023-11-23 12:30:29.412445
2847  2023-11-23 12:30:29.460295
2848  2023-11-23 12:30:29.492209
2849  2023-11-23 12:30:29.524124
2850  2023-11-23 12:30:29.557056
2851  2023-11-23 12:30:29.588920
2852  2023-11-23 12:30:29.620864
2853  2023-11-23 12:30:29.652781
2854  2023-11-23 12:30:29.684695
2855  2023-11-23 12:30:29.716633
2856  2023-11-23 12:30:29.748620
2857  2023-11-23 12:30:29.780583
2858  2023-11-23 12:30:29.812479
2859  2023-11-23 12:30:29.860351
2860  2023-11-23 12:30:29.892268
2861  2023-11-23 12:30:29.924188
2862  2023-11-23 12:30:29.957088
2863  2023-11-23 12:30:29.989000
2864  2023-11-23 12:30:30.020923
2865  2023-11-23 12:30:30.052842
2866  2023-11-23 12:30:30.084730
2867  2023-11-23 12:30:30.116637
2868  2023-11-23 12:30:30.148593
2869  2023-11-23 12:30:30.180465
2870  2023-11-23 12:30:30.212384
2871  2023-11-23 12:30:30.260284
2872  2023-11-23 12:30:30.293166
2873  2023-11-23 12:30:30.325143
2874  2023-11-23 12:30:30.357061
2875  2023-11-23 12:30:30.389077
2876  2023-11-23 12:30:30.420985
2877  2023-11-23 12:30:30.452893
2878  2023-11-23 12:30:30.484807
2879  2023-11-23 12:30:30.516794
2880  2023-11-23 12:30:30.548708
2881  2023-11-23 12:30:30.580622
2882  2023-11-23 12:30:30.612537
2883  2023-11-23 12:30:30.660426
2884  2023-11-23 12:30:30.692323
2885  2023-11-23 12:30:30.724238
2886  2023-11-23 12:30:30.756155
2887  2023-11-23 12:30:30.789088
2888  2023-11-23 12:30:30.820986
2889  2023-11-23 12:30:30.852896
2890  2023-11-23 12:30:30.884811
2891  2023-11-23 12:30:30.916728
2892  2023-11-23 12:30:30.948606
2893  2023-11-23 12:30:30.980560
2894  2023-11-23 12:30:31.012467
2895  2023-11-23 12:30:31.060344
2896  2023-11-23 12:30:31.092256
2897  2023-11-23 12:30:31.124251
2898  2023-11-23 12:30:31.156168
2899  2023-11-23 12:30:31.189084
2900  2023-11-23 12:30:31.220995
2901  2023-11-23 12:30:31.252910
2902  2023-11-23 12:30:31.284821
2903  2023-11-23 12:30:31.316737
2904  2023-11-23 12:30:31.348675
2905  2023-11-23 12:30:31.380596
2906  2023-11-23 12:30:31.412479
2907  2023-11-23 12:30:31.460352
2908  2023-11-23 12:30:31.492270
2909  2023-11-23 12:30:31.524181
2910  2023-11-23 12:30:31.556113
2911  2023-11-23 12:30:31.589017
2912  2023-11-23 12:30:31.620930
2913  2023-11-23 12:30:31.652841
2914  2023-11-23 12:30:31.684755
2915  2023-11-23 12:30:31.716675
2916  2023-11-23 12:30:31.748551
2917  2023-11-23 12:30:31.780499
2918  2023-11-23 12:30:31.812428
2919  2023-11-23 12:30:31.860290
2920  2023-11-23 12:30:31.892205
2921  2023-11-23 12:30:31.925079
2922  2023-11-23 12:30:31.956085
2923  2023-11-23 12:30:31.988992
2924  2023-11-23 12:30:32.020907
2925  2023-11-23 12:30:32.052823
2926  2023-11-23 12:30:32.084769
2927  2023-11-23 12:30:32.116751
2928  2023-11-23 12:30:32.148634
2929  2023-11-23 12:30:32.180592
2930  2023-11-23 12:30:32.212499
2931  2023-11-23 12:30:32.260372
2932  2023-11-23 12:30:32.292295
2933  2023-11-23 12:30:32.324165
2934  2023-11-23 12:30:32.356120
2935  2023-11-23 12:30:32.389033
2936  2023-11-23 12:30:32.420942
2937  2023-11-23 12:30:32.452856
2938  2023-11-23 12:30:32.484768
2939  2023-11-23 12:30:32.516682
2940  2023-11-23 12:30:32.548603
2941  2023-11-23 12:30:32.580528
2942  2023-11-23 12:30:32.612394
2943  2023-11-23 12:30:32.660301
2944  2023-11-23 12:30:32.692212
2945  2023-11-23 12:30:32.724128
2946  2023-11-23 12:30:32.757059
2947  2023-11-23 12:30:32.788958
2948  2023-11-23 12:30:32.820837
2949  2023-11-23 12:30:32.852752
2950  2023-11-23 12:30:32.884705
2951  2023-11-23 12:30:32.916613
2952  2023-11-23 12:30:32.948498
2953  2023-11-23 12:30:32.980451
2954  2023-11-23 12:30:33.028325
2955  2023-11-23 12:30:33.060199
2956  2023-11-23 12:30:33.092113
2957  2023-11-23 12:30:33.125026
2958  2023-11-23 12:30:33.156940
2959  2023-11-23 12:30:33.188855
2960  2023-11-23 12:30:33.220769
2961  2023-11-23 12:30:33.252683
2962  2023-11-23 12:30:33.284628
2963  2023-11-23 12:30:33.316547
2964  2023-11-23 12:30:33.348467
2965  2023-11-23 12:30:33.380342
2966  2023-11-23 12:30:33.428253
2967  2023-11-23 12:30:33.461126
2968  2023-11-23 12:30:33.493041
2969  2023-11-23 12:30:33.524985
2970  2023-11-23 12:30:33.556900
2971  2023-11-23 12:30:33.588817
2972  2023-11-23 12:30:33.620735
2973  2023-11-23 12:30:33.652614
2974  2023-11-23 12:30:33.684581
2975  2023-11-23 12:30:33.716475
2976  2023-11-23 12:30:33.748392
2977  2023-11-23 12:30:33.780272
2978  2023-11-23 12:30:33.828181
2979  2023-11-23 12:30:33.861056
2980  2023-11-23 12:30:33.892971
2981  2023-11-23 12:30:33.924930
2982  2023-11-23 12:30:33.956841
2983  2023-11-23 12:30:33.988748
2984  2023-11-23 12:30:34.020630
2985  2023-11-23 12:30:34.052545
2986  2023-11-23 12:30:34.084495
2987  2023-11-23 12:30:34.116427
2988  2023-11-23 12:30:34.148324
2989  2023-11-23 12:30:34.180203
2990  2023-11-23 12:30:34.228108
2991  2023-11-23 12:30:34.260987
2992  2023-11-23 12:30:34.292902
2993  2023-11-23 12:30:34.324857
2994  2023-11-23 12:30:34.356774
2995  2023-11-23 12:30:34.388679
2996  2023-11-23 12:30:34.420560
2997  2023-11-23 12:30:34.452475
2998  2023-11-23 12:30:34.484447
2999  2023-11-23 12:30:34.516335
3000  2023-11-23 12:30:34.548249
3001  2023-11-23 12:30:34.581168
3002  2023-11-23 12:30:34.629019
3003  2023-11-23 12:30:34.660919
3004  2023-11-23 12:30:34.692832
3005  2023-11-23 12:30:34.724747
3006  2023-11-23 12:30:34.756721
3007  2023-11-23 12:30:34.788629
3008  2023-11-23 12:30:34.820495
3009  2023-11-23 12:30:34.852406
3010  2023-11-23 12:30:34.884321
3011  2023-11-23 12:30:34.916242
3012  2023-11-23 12:30:34.948183
3013  2023-11-23 12:30:34.980106
3014  2023-11-23 12:30:35.028934
3015  2023-11-23 12:30:35.060849
3016  2023-11-23 12:30:35.092803
3017  2023-11-23 12:30:35.124718
3018  2023-11-23 12:30:35.156593
3019  2023-11-23 12:30:35.188508
3020  2023-11-23 12:30:35.220458
3021  2023-11-23 12:30:35.252374
3022  2023-11-23 12:30:35.284251
3023  2023-11-23 12:30:35.316357
3024  2023-11-23 12:30:35.349234
3025  2023-11-23 12:30:35.380183
3026  2023-11-23 12:30:35.429064
3027  2023-11-23 12:30:35.460936
3028  2023-11-23 12:30:35.492850
3029  2023-11-23 12:30:35.524765
3030  2023-11-23 12:30:35.556680
3031  2023-11-23 12:30:35.588663
3032  2023-11-23 12:30:35.620679
3033  2023-11-23 12:30:35.652638
3034  2023-11-23 12:30:35.684553
3035  2023-11-23 12:30:35.716468
3036  2023-11-23 12:30:35.748429
3037  2023-11-23 12:30:35.780297
3038  2023-11-23 12:30:35.828208
3039  2023-11-23 12:30:35.860229
3040  2023-11-23 12:30:35.892143
3041  2023-11-23 12:30:35.924092
3042  2023-11-23 12:30:35.956970
3043  2023-11-23 12:30:35.988884
3044  2023-11-23 12:30:36.020799
3045  2023-11-23 12:30:36.052714
3046  2023-11-23 12:30:36.084666
3047  2023-11-23 12:30:36.116543
3048  2023-11-23 12:30:36.148458
3049  2023-11-23 12:30:36.180373
3050  2023-11-23 12:30:36.228245
3051  2023-11-23 12:30:36.260159
3052  2023-11-23 12:30:36.292074
3053  2023-11-23 12:30:36.324986
3054  2023-11-23 12:30:36.356770
3055  2023-11-23 12:30:36.388685
3056  2023-11-23 12:30:36.420600
3057  2023-11-23 12:30:36.452645
3058  2023-11-23 12:30:36.484710
3059  2023-11-23 12:30:36.516679
3060  2023-11-23 12:30:36.548713
3061  2023-11-23 12:30:36.580628
3062  2023-11-23 12:30:36.628506
3063  2023-11-23 12:30:36.660453
3064  2023-11-23 12:30:36.692329
3065  2023-11-23 12:30:36.724244
3066  2023-11-23 12:30:36.756159
3067  2023-11-23 12:30:36.789104
3068  2023-11-23 12:30:36.820985
3069  2023-11-23 12:30:36.852900
3070  2023-11-23 12:30:36.884954
3071  2023-11-23 12:30:36.916909
3072  2023-11-23 12:30:36.948784
3073  2023-11-23 12:30:36.996690
3074  2023-11-23 12:30:37.028572
3075  2023-11-23 12:30:37.060486
3076  2023-11-23 12:30:37.092415
3077  2023-11-23 12:30:37.124348
3078  2023-11-23 12:30:37.156230
3079  2023-11-23 12:30:37.188278
3080  2023-11-23 12:30:37.220333
3081  2023-11-23 12:30:37.252283
3082  2023-11-23 12:30:37.284163
3083  2023-11-23 12:30:37.317075
3084  2023-11-23 12:30:37.348989
3085  2023-11-23 12:30:37.396861
3086  2023-11-23 12:30:37.428776
3087  2023-11-23 12:30:37.460870
3088  2023-11-23 12:30:37.492785
3089  2023-11-23 12:30:37.524700
3090  2023-11-23 12:30:37.556614
3091  2023-11-23 12:30:37.588637
3092  2023-11-23 12:30:37.620554
3093  2023-11-23 12:30:37.652660
3094  2023-11-23 12:30:37.684575
3095  2023-11-23 12:30:37.716490
3096  2023-11-23 12:30:37.748404
3097  2023-11-23 12:30:37.796276
3098  2023-11-23 12:30:37.828222
3099  2023-11-23 12:30:37.860106
3100  2023-11-23 12:30:37.893020
3101  2023-11-23 12:30:37.924937
3102  2023-11-23 12:30:37.956880
3103  2023-11-23 12:30:37.988762
3104  2023-11-23 12:30:38.020676
3105  2023-11-23 12:30:38.052591
3106  2023-11-23 12:30:38.084541
3107  2023-11-23 12:30:38.116463
3108  2023-11-23 12:30:38.148335
3109  2023-11-23 12:30:38.196207
3110  2023-11-23 12:30:38.228122
3111  2023-11-23 12:30:38.261034
3112  2023-11-23 12:30:38.292981
3113  2023-11-23 12:30:38.324168
3114  2023-11-23 12:30:38.357080
3115  2023-11-23 12:30:38.388995
3116  2023-11-23 12:30:38.420941
3117  2023-11-23 12:30:38.452824
3118  2023-11-23 12:30:38.484739
3119  2023-11-23 12:30:38.516653
3120  2023-11-23 12:30:38.548601
3121  2023-11-23 12:30:38.596440
3122  2023-11-23 12:30:38.628398
3123  2023-11-23 12:30:38.660269
3124  2023-11-23 12:30:38.692184
3125  2023-11-23 12:30:38.725096
3126  2023-11-23 12:30:38.757014
3127  2023-11-23 12:30:38.788925
3128  2023-11-23 12:30:38.820840
3129  2023-11-23 12:30:38.852755
3130  2023-11-23 12:30:38.884669
3131  2023-11-23 12:30:38.916702
3132  2023-11-23 12:30:38.948617
3133  2023-11-23 12:30:38.996489
3134  2023-11-23 12:30:39.028404
3135  2023-11-23 12:30:39.060318
3136  2023-11-23 12:30:39.092233
3137  2023-11-23 12:30:39.125145
3138  2023-11-23 12:30:39.157071
3139  2023-11-23 12:30:39.188974
3140  2023-11-23 12:30:39.220902
3141  2023-11-23 12:30:39.252804
3142  2023-11-23 12:30:39.284718
3143  2023-11-23 12:30:39.316633
3144  2023-11-23 12:30:39.348670
3145  2023-11-23 12:30:39.396542
3146  2023-11-23 12:30:39.428457
3147  2023-11-23 12:30:39.460372
3148  2023-11-23 12:30:39.492287
3149  2023-11-23 12:30:39.525198
3150  2023-11-23 12:30:39.557113
3151  2023-11-23 12:30:39.589083
3152  2023-11-23 12:30:39.620978
3153  2023-11-23 12:30:39.652857
3154  2023-11-23 12:30:39.684771
3155  2023-11-23 12:30:39.716686
3156  2023-11-23 12:30:39.748681
3157  2023-11-23 12:30:39.796667
3158  2023-11-23 12:30:39.828588
3159  2023-11-23 12:30:39.860462
3160  2023-11-23 12:30:39.892377
3161  2023-11-23 12:30:39.924328
3162  2023-11-23 12:30:39.956241
3163  2023-11-23 12:30:39.989122
3164  2023-11-23 12:30:40.021033
3165  2023-11-23 12:30:40.052948
3166  2023-11-23 12:30:40.084904
3167  2023-11-23 12:30:40.116857
3168  2023-11-23 12:30:40.148760
3169  2023-11-23 12:30:40.196601
3170  2023-11-23 12:30:40.228517
3171  2023-11-23 12:30:40.260429
3172  2023-11-23 12:30:40.292343
3173  2023-11-23 12:30:40.324292
3174  2023-11-23 12:30:40.356205
3175  2023-11-23 12:30:40.388089
3176  2023-11-23 12:30:40.421006
3177  2023-11-23 12:30:40.452962
3178  2023-11-23 12:30:40.484876
3179  2023-11-23 12:30:40.516791
3180  2023-11-23 12:30:40.564770
3181  2023-11-23 12:30:40.596684
3182  2023-11-23 12:30:40.628636
3183  2023-11-23 12:30:40.660548
3184  2023-11-23 12:30:40.692428
3185  2023-11-23 12:30:40.724343
3186  2023-11-23 12:30:40.756294
3187  2023-11-23 12:30:40.788209
3188  2023-11-23 12:30:40.821084
3189  2023-11-23 12:30:40.852999
3190  2023-11-23 12:30:40.884914
3191  2023-11-23 12:30:40.916828
3192  2023-11-23 12:30:40.964700
3193  2023-11-23 12:30:40.996615
3194  2023-11-23 12:30:41.028531
3195  2023-11-23 12:30:41.060444
3196  2023-11-23 12:30:41.092400
3197  2023-11-23 12:30:41.124314
3198  2023-11-23 12:30:41.156188
3199  2023-11-23 12:30:41.188103
3200  2023-11-23 12:30:41.221042
3201  2023-11-23 12:30:41.253115
3202  2023-11-23 12:30:41.285030
3203  2023-11-23 12:30:41.316944
3204  2023-11-23 12:30:41.364816
3205  2023-11-23 12:30:41.396731
3206  2023-11-23 12:30:41.428646
3207  2023-11-23 12:30:41.460561
3208  2023-11-23 12:30:41.492638
3209  2023-11-23 12:30:41.524552
3210  2023-11-23 12:30:41.556466
3211  2023-11-23 12:30:41.588435
3212  2023-11-23 12:30:41.620382
3213  2023-11-23 12:30:41.652297
3214  2023-11-23 12:30:41.684219
3215  2023-11-23 12:30:41.717091
3216  2023-11-23 12:30:41.765035
3217  2023-11-23 12:30:41.796996
3218  2023-11-23 12:30:41.828905
3219  2023-11-23 12:30:41.860951
3220  2023-11-23 12:30:41.892866
3221  2023-11-23 12:30:41.924781
3222  2023-11-23 12:30:41.956695
3223  2023-11-23 12:30:41.988610
3224  2023-11-23 12:30:42.020524
3225  2023-11-23 12:30:42.052439
3226  2023-11-23 12:30:42.084354
3227  2023-11-23 12:30:42.116268
3228  2023-11-23 12:30:42.165138
3229  2023-11-23 12:30:42.197053
3230  2023-11-23 12:30:42.228967
3231  2023-11-23 12:30:42.260882
3232  2023-11-23 12:30:42.292947
3233  2023-11-23 12:30:42.324862
3234  2023-11-23 12:30:42.356776
3235  2023-11-23 12:30:42.388691
3236  2023-11-23 12:30:42.420606
3237  2023-11-23 12:30:42.452521
3238  2023-11-23 12:30:42.484549
3239  2023-11-23 12:30:42.518505
3240  2023-11-23 12:30:42.564335
3241  2023-11-23 12:30:42.596396
3242  2023-11-23 12:30:42.628310
3243  2023-11-23 12:30:42.660227
3244  2023-11-23 12:30:42.693137
3245  2023-11-23 12:30:42.727096
3246  2023-11-23 12:30:42.757044
3247  2023-11-23 12:30:42.790023
3248  2023-11-23 12:30:42.821954
3249  2023-11-23 12:30:42.854859
3250  2023-11-23 12:30:42.885766
3251  2023-11-23 12:30:42.918685
3252  2023-11-23 12:30:42.965560
3253  2023-11-23 12:30:42.998466
3254  2023-11-23 12:30:43.030393
3255  2023-11-23 12:30:43.062312
3256  2023-11-23 12:30:43.094299
3257  2023-11-23 12:30:43.126211
3258  2023-11-23 12:30:43.158125
3259  2023-11-23 12:30:43.190042
3260  2023-11-23 12:30:43.221955
3261  2023-11-23 12:30:43.253870
3262  2023-11-23 12:30:43.285786
3263  2023-11-23 12:30:43.317699
3264  2023-11-23 12:30:43.365585
3265  2023-11-23 12:30:43.397487
3266  2023-11-23 12:30:43.429400
3267  2023-11-23 12:30:43.461315
3268  2023-11-23 12:30:43.493286
3269  2023-11-23 12:30:43.526223
3270  2023-11-23 12:30:43.558117
3271  2023-11-23 12:30:43.590020
3272  2023-11-23 12:30:43.621935
3273  2023-11-23 12:30:43.653882
3274  2023-11-23 12:30:43.684882
3275  2023-11-23 12:30:43.717796
3276  2023-11-23 12:30:43.765663
3277  2023-11-23 12:30:43.797577
3278  2023-11-23 12:30:43.829496
3279  2023-11-23 12:30:43.861409
3280  2023-11-23 12:30:43.893400
3281  2023-11-23 12:30:43.925345
3282  2023-11-23 12:30:43.957460
3283  2023-11-23 12:30:43.989271
3284  2023-11-23 12:30:44.021182
3285  2023-11-23 12:30:44.053115
3286  2023-11-23 12:30:44.085101
3287  2023-11-23 12:30:44.117987
3288  2023-11-23 12:30:44.164888
3289  2023-11-23 12:30:44.197819
3290  2023-11-23 12:30:44.228717
3291  2023-11-23 12:30:44.261627
3292  2023-11-23 12:30:44.293542
3293  2023-11-23 12:30:44.325457
3294  2023-11-23 12:30:44.357338
3295  2023-11-23 12:30:44.389287
3296  2023-11-23 12:30:44.421201
3297  2023-11-23 12:30:44.453120
3298  2023-11-23 12:30:44.485031
3299  2023-11-23 12:30:44.532904
3300  2023-11-23 12:30:44.564815
3301  2023-11-23 12:30:44.596731
3302  2023-11-23 12:30:44.628647
3303  2023-11-23 12:30:44.660565
3304  2023-11-23 12:30:44.692477
3305  2023-11-23 12:30:44.724391
3306  2023-11-23 12:30:44.756305
3307  2023-11-23 12:30:44.788229
3308  2023-11-23 12:30:44.821166
3309  2023-11-23 12:30:44.853049
3310  2023-11-23 12:30:44.884961
3311  2023-11-23 12:30:44.932833
3312  2023-11-23 12:30:44.964748
3313  2023-11-23 12:30:44.996665
3314  2023-11-23 12:30:45.028582
3315  2023-11-23 12:30:45.060495
3316  2023-11-23 12:30:45.092408
3317  2023-11-23 12:30:45.125286
3318  2023-11-23 12:30:45.157248
3319  2023-11-23 12:30:45.189115
3320  2023-11-23 12:30:45.220065
3321  2023-11-23 12:30:45.252978
3322  2023-11-23 12:30:45.284962
3323  2023-11-23 12:30:45.332882
3324  2023-11-23 12:30:45.364796
3325  2023-11-23 12:30:45.396664
3326  2023-11-23 12:30:45.430619
3327  2023-11-23 12:30:45.462529
3328  2023-11-23 12:30:45.494455
3329  2023-11-23 12:30:45.524358
3330  2023-11-23 12:30:45.556264
3331  2023-11-23 12:30:45.589149
3332  2023-11-23 12:30:45.622105
3333  2023-11-23 12:30:45.654006
3334  2023-11-23 12:30:45.684893
3335  2023-11-23 12:30:45.733935
3336  2023-11-23 12:30:45.764803
3337  2023-11-23 12:30:45.796752
3338  2023-11-23 12:30:45.830629
3339  2023-11-23 12:30:45.861601
3340  2023-11-23 12:30:45.893489
3341  2023-11-23 12:30:45.924413
3342  2023-11-23 12:30:45.957389
3343  2023-11-23 12:30:45.990390
3344  2023-11-23 12:30:46.021357
3345  2023-11-23 12:30:46.053249
3346  2023-11-23 12:30:46.085169
3347  2023-11-23 12:30:46.134036
3348  2023-11-23 12:30:46.164949
3349  2023-11-23 12:30:46.196861
3350  2023-11-23 12:30:46.228785
3351  2023-11-23 12:30:46.261690
3352  2023-11-23 12:30:46.293604
3353  2023-11-23 12:30:46.325519
3354  2023-11-23 12:30:46.356448
3355  2023-11-23 12:30:46.389348
3356  2023-11-23 12:30:46.421267
3357  2023-11-23 12:30:46.453145
3358  2023-11-23 12:30:46.485059
3359  2023-11-23 12:30:46.532966
3360  2023-11-23 12:30:46.564880
3361  2023-11-23 12:30:46.596796
3362  2023-11-23 12:30:46.629697
3363  2023-11-23 12:30:46.661647
3364  2023-11-23 12:30:46.692547
3365  2023-11-23 12:30:46.724454
3366  2023-11-23 12:30:46.756371
3367  2023-11-23 12:30:46.789277
3368  2023-11-23 12:30:46.821194
3369  2023-11-23 12:30:46.853107
3370  2023-11-23 12:30:46.884989
3371  2023-11-23 12:30:46.932893
3372  2023-11-23 12:30:46.964816
3373  2023-11-23 12:30:46.996852
3374  2023-11-23 12:30:47.028768
3375  2023-11-23 12:30:47.060683
3376  2023-11-23 12:30:47.093605
3377  2023-11-23 12:30:47.124516
3378  2023-11-23 12:30:47.156449
3379  2023-11-23 12:30:47.188343
3380  2023-11-23 12:30:47.221254
3381  2023-11-23 12:30:47.252171
3382  2023-11-23 12:30:47.284054
3383  2023-11-23 12:30:47.332978
3384  2023-11-23 12:30:47.364839
3385  2023-11-23 12:30:47.396784
3386  2023-11-23 12:30:47.428700
3387  2023-11-23 12:30:47.460625
3388  2023-11-23 12:30:47.492530
3389  2023-11-23 12:30:47.524450
3390  2023-11-23 12:30:47.556358
3391  2023-11-23 12:30:47.588348
3392  2023-11-23 12:30:47.621259
3393  2023-11-23 12:30:47.652175
3394  2023-11-23 12:30:47.685056
3395  2023-11-23 12:30:47.732960
3396  2023-11-23 12:30:47.764876
3397  2023-11-23 12:30:47.796791
3398  2023-11-23 12:30:47.828708
3399  2023-11-23 12:30:47.860634
3400  2023-11-23 12:30:47.892539
3401  2023-11-23 12:30:47.924451
3402  2023-11-23 12:30:47.956364
3403  2023-11-23 12:30:47.988882
3404  2023-11-23 12:30:48.020800
3405  2023-11-23 12:30:48.052740
3406  2023-11-23 12:30:48.100609
3407  2023-11-23 12:30:48.132521
3408  2023-11-23 12:30:48.164439
3409  2023-11-23 12:30:48.196339
3410  2023-11-23 12:30:48.228246
3411  2023-11-23 12:30:48.260175
3412  2023-11-23 12:30:48.292067
3413  2023-11-23 12:30:48.325010
3414  2023-11-23 12:30:48.356901
3415  2023-11-23 12:30:48.388817
3416  2023-11-23 12:30:48.420740
3417  2023-11-23 12:30:48.452647
3418  2023-11-23 12:30:48.501529
3419  2023-11-23 12:30:48.532452
3420  2023-11-23 12:30:48.564354
3421  2023-11-23 12:30:48.596268
3422  2023-11-23 12:30:48.629174
3423  2023-11-23 12:30:48.661088
3424  2023-11-23 12:30:48.693003
3425  2023-11-23 12:30:48.724926
3426  2023-11-23 12:30:48.756847
3427  2023-11-23 12:30:48.788760
3428  2023-11-23 12:30:48.820665
3429  2023-11-23 12:30:48.852595
3430  2023-11-23 12:30:48.900451
3431  2023-11-23 12:30:48.932363
3432  2023-11-23 12:30:48.964281
3433  2023-11-23 12:30:48.996204
3434  2023-11-23 12:30:49.028105
3435  2023-11-23 12:30:49.061037
3436  2023-11-23 12:30:49.092932
3437  2023-11-23 12:30:49.124848
3438  2023-11-23 12:30:49.156762
3439  2023-11-23 12:30:49.188677
3440  2023-11-23 12:30:49.220593
3441  2023-11-23 12:30:49.252516
3442  2023-11-23 12:30:49.300379
3443  2023-11-23 12:30:49.332292
3444  2023-11-23 12:30:49.364209
3445  2023-11-23 12:30:49.396124
3446  2023-11-23 12:30:49.429052
3447  2023-11-23 12:30:49.460948
3448  2023-11-23 12:30:49.492863
3449  2023-11-23 12:30:49.524777
3450  2023-11-23 12:30:49.556698
3451  2023-11-23 12:30:49.588608
3452  2023-11-23 12:30:49.620532
3453  2023-11-23 12:30:49.652450
3454  2023-11-23 12:30:49.701312
3455  2023-11-23 12:30:49.732229
3456  2023-11-23 12:30:49.765138
3457  2023-11-23 12:30:49.797035
3458  2023-11-23 12:30:49.828935
3459  2023-11-23 12:30:49.860883
3460  2023-11-23 12:30:49.892799
3461  2023-11-23 12:30:49.924718
3462  2023-11-23 12:30:49.956593
3463  2023-11-23 12:30:49.988545
3464  2023-11-23 12:30:50.020453
3465  2023-11-23 12:30:50.052372
3466  2023-11-23 12:30:50.100243
3467  2023-11-23 12:30:50.132175
3468  2023-11-23 12:30:50.164070
3469  2023-11-23 12:30:50.196981
3470  2023-11-23 12:30:50.228898
3471  2023-11-23 12:30:50.260845
3472  2023-11-23 12:30:50.292822
3473  2023-11-23 12:30:50.324744
3474  2023-11-23 12:30:50.356740
3475  2023-11-23 12:30:50.388660
3476  2023-11-23 12:30:50.420579
3477  2023-11-23 12:30:50.452485
3478  2023-11-23 12:30:50.500365
3479  2023-11-23 12:30:50.532270
3480  2023-11-23 12:30:50.564184
3481  2023-11-23 12:30:50.597114
3482  2023-11-23 12:30:50.629011
3483  2023-11-23 12:30:50.660926
3484  2023-11-23 12:30:50.692851
3485  2023-11-23 12:30:50.724759
3486  2023-11-23 12:30:50.756681
3487  2023-11-23 12:30:50.788691
3488  2023-11-23 12:30:50.820617
3489  2023-11-23 12:30:50.852531
3490  2023-11-23 12:30:50.900394
3491  2023-11-23 12:30:50.932320
3492  2023-11-23 12:30:50.964226
3493  2023-11-23 12:30:50.997145
3494  2023-11-23 12:30:51.029017
3495  2023-11-23 12:30:51.060962
3496  2023-11-23 12:30:51.092877
3497  2023-11-23 12:30:51.124793
3498  2023-11-23 12:30:51.157709
3499  2023-11-23 12:30:51.188628
3500  2023-11-23 12:30:51.220542
3501  2023-11-23 12:30:51.252458
3502  2023-11-23 12:30:51.300321
3503  2023-11-23 12:30:51.333204
3504  2023-11-23 12:30:51.365165
3505  2023-11-23 12:30:51.397071
3506  2023-11-23 12:30:51.428979
3507  2023-11-23 12:30:51.460867
3508  2023-11-23 12:30:51.492777
3509  2023-11-23 12:30:51.524691
3510  2023-11-23 12:30:51.556635
3511  2023-11-23 12:30:51.588553
3512  2023-11-23 12:30:51.620469
3513  2023-11-23 12:30:51.652382
3514  2023-11-23 12:30:51.700263
3515  2023-11-23 12:30:51.732169
3516  2023-11-23 12:30:51.765091
3517  2023-11-23 12:30:51.796996
3518  2023-11-23 12:30:51.828928
3519  2023-11-23 12:30:51.860826
3520  2023-11-23 12:30:51.892739
3521  2023-11-23 12:30:51.924662
3522  2023-11-23 12:30:51.956540
3523  2023-11-23 12:30:51.988483
3524  2023-11-23 12:30:52.020397
3525  2023-11-23 12:30:52.068279
3526  2023-11-23 12:30:52.100189
3527  2023-11-23 12:30:52.133103
3528  2023-11-23 12:30:52.165022
3529  2023-11-23 12:30:52.196927
3530  2023-11-23 12:30:52.228840
3531  2023-11-23 12:30:52.260755
3532  2023-11-23 12:30:52.292672
3533  2023-11-23 12:30:52.324554
3534  2023-11-23 12:30:52.356501
3535  2023-11-23 12:30:52.388461
3536  2023-11-23 12:30:52.420373
3537  2023-11-23 12:30:52.468213
3538  2023-11-23 12:30:52.500132
3539  2023-11-23 12:30:52.532075
3540  2023-11-23 12:30:52.564955
3541  2023-11-23 12:30:52.596869
3542  2023-11-23 12:30:52.628815
3543  2023-11-23 12:30:52.660731
3544  2023-11-23 12:30:52.692646
3545  2023-11-23 12:30:52.724563
3546  2023-11-23 12:30:52.756534
3547  2023-11-23 12:30:52.788453
3548  2023-11-23 12:30:52.820367
3549  2023-11-23 12:30:52.868240
3550  2023-11-23 12:30:52.900151
3551  2023-11-23 12:30:52.933068
3552  2023-11-23 12:30:52.964984
3553  2023-11-23 12:30:52.996907
3554  2023-11-23 12:30:53.028849
3555  2023-11-23 12:30:53.060764
3556  2023-11-23 12:30:53.092652
3557  2023-11-23 12:30:53.124660
3558  2023-11-23 12:30:53.156575
3559  2023-11-23 12:30:53.188490
3560  2023-11-23 12:30:53.220410
3561  2023-11-23 12:30:53.268278
