
1  2023-11-01 13:40:59.540388
2  2023-11-01 13:40:59.587263
3  2023-11-01 13:40:59.619207
4  2023-11-01 13:40:59.665105
5  2023-11-01 13:40:59.712977
6  2023-11-01 13:40:59.744892
7  2023-11-01 13:40:59.792764
8  2023-11-01 13:40:59.840651
9  2023-11-01 13:40:59.872551
10  2023-11-01 13:40:59.920464
11  2023-11-01 13:40:59.967298
12  2023-11-01 13:40:59.998215
13  2023-11-01 13:41:00.046232
14  2023-11-01 13:41:00.078002
15  2023-11-01 13:41:00.125874
16  2023-11-01 13:41:00.173746
17  2023-11-01 13:41:00.205661
18  2023-11-01 13:41:00.253687
19  2023-11-01 13:41:00.300527
20  2023-11-01 13:41:00.331538
21  2023-11-01 13:41:00.379442
22  2023-11-01 13:41:00.411325
23  2023-11-01 13:41:00.459197
24  2023-11-01 13:41:00.508105
25  2023-11-01 13:41:00.538984
26  2023-11-01 13:41:00.586856
27  2023-11-01 13:41:00.633731
28  2023-11-01 13:41:00.665679
29  2023-11-01 13:41:00.713521
30  2023-11-01 13:41:00.745476
31  2023-11-01 13:41:00.793304
32  2023-11-01 13:41:00.841252
33  2023-11-01 13:41:00.872334
34  2023-11-01 13:41:00.919966
35  2023-11-01 13:41:00.967838
36  2023-11-01 13:41:00.999818
37  2023-11-01 13:41:01.046674
38  2023-11-01 13:41:01.077545
39  2023-11-01 13:41:01.123472
40  2023-11-01 13:41:01.171294
41  2023-11-01 13:41:01.203209
42  2023-11-01 13:41:01.251130
43  2023-11-01 13:41:01.297956
44  2023-11-01 13:41:01.329871
45  2023-11-01 13:41:01.377743
46  2023-11-01 13:41:01.425654
47  2023-11-01 13:41:01.457562
48  2023-11-01 13:41:01.505401
49  2023-11-01 13:41:01.536638
50  2023-11-01 13:41:01.583511
51  2023-11-01 13:41:01.629389
52  2023-11-01 13:41:01.661303
53  2023-11-01 13:41:01.707181
54  2023-11-01 13:41:01.753058
55  2023-11-01 13:41:01.800962
56  2023-11-01 13:41:01.832876
57  2023-11-01 13:41:01.880869
58  2023-11-01 13:41:01.912632
59  2023-11-01 13:41:01.960504
60  2023-11-01 13:41:02.007559
61  2023-11-01 13:41:02.038468
62  2023-11-01 13:41:02.086339
63  2023-11-01 13:41:02.133711
64  2023-11-01 13:41:02.165630
65  2023-11-01 13:41:02.212553
66  2023-11-01 13:41:02.244467
67  2023-11-01 13:41:02.291301
68  2023-11-01 13:41:02.338222
69  2023-11-01 13:41:02.369193
70  2023-11-01 13:41:02.416099
71  2023-11-01 13:41:02.464066
72  2023-11-01 13:41:02.495980
73  2023-11-01 13:41:02.543816
74  2023-11-01 13:41:02.591729
75  2023-11-01 13:41:02.622652
76  2023-11-01 13:41:02.669480
77  2023-11-01 13:41:02.717382
78  2023-11-01 13:41:02.749313
79  2023-11-01 13:41:02.797139
80  2023-11-01 13:41:02.829103
81  2023-11-01 13:41:02.876975
82  2023-11-01 13:41:02.924847
83  2023-11-01 13:41:02.955051
84  2023-11-01 13:41:03.002961
85  2023-11-01 13:41:03.050828
86  2023-11-01 13:41:03.081824
87  2023-11-01 13:41:03.128668
88  2023-11-01 13:41:03.175573
89  2023-11-01 13:41:03.206460
90  2023-11-01 13:41:03.252370
91  2023-11-01 13:41:03.300210
92  2023-11-01 13:41:03.332171
93  2023-11-01 13:41:03.379996
94  2023-11-01 13:41:03.411911
95  2023-11-01 13:41:03.459799
96  2023-11-01 13:41:03.507718
97  2023-11-01 13:41:03.539633
98  2023-11-01 13:41:03.587551
99  2023-11-01 13:41:03.619537
100  2023-11-01 13:41:03.667459
101  2023-11-01 13:41:03.715475
102  2023-11-01 13:41:03.747355
103  2023-11-01 13:41:03.795429
104  2023-11-01 13:41:03.842273
105  2023-11-01 13:41:03.874187
106  2023-11-01 13:41:03.922145
107  2023-11-01 13:41:03.954215
108  2023-11-01 13:41:04.002055
109  2023-11-01 13:41:04.049927
110  2023-11-01 13:41:04.081876
111  2023-11-01 13:41:04.129714
112  2023-11-01 13:41:04.161662
113  2023-11-01 13:41:04.208504
114  2023-11-01 13:41:04.256594
115  2023-11-01 13:41:04.288476
116  2023-11-01 13:41:04.336348
117  2023-11-01 13:41:04.384251
118  2023-11-01 13:41:04.416201
119  2023-11-01 13:41:04.464008
120  2023-11-01 13:41:04.496085
121  2023-11-01 13:41:04.543793
122  2023-11-01 13:41:04.590668
123  2023-11-01 13:41:04.622683
124  2023-11-01 13:41:04.670555
125  2023-11-01 13:41:04.702470
126  2023-11-01 13:41:04.750388
127  2023-11-01 13:41:04.798214
128  2023-11-01 13:41:04.830129
129  2023-11-01 13:41:04.878001
130  2023-11-01 13:41:04.924925
131  2023-11-01 13:41:04.955849
132  2023-11-01 13:41:05.002716
133  2023-11-01 13:41:05.050540
134  2023-11-01 13:41:05.082486
135  2023-11-01 13:41:05.130326
136  2023-11-01 13:41:05.162208
137  2023-11-01 13:41:05.210225
138  2023-11-01 13:41:05.257967
139  2023-11-01 13:41:05.289881
140  2023-11-01 13:41:05.337788
141  2023-11-01 13:41:05.369700
142  2023-11-01 13:41:05.417540
143  2023-11-01 13:41:05.464449
144  2023-11-01 13:41:05.496331
145  2023-11-01 13:41:05.544203
146  2023-11-01 13:41:05.591077
147  2023-11-01 13:41:05.622992
148  2023-11-01 13:41:05.670901
149  2023-11-01 13:41:05.702893
150  2023-11-01 13:41:05.750786
151  2023-11-01 13:41:05.798816
152  2023-11-01 13:41:05.830695
153  2023-11-01 13:41:05.876571
154  2023-11-01 13:41:05.924490
155  2023-11-01 13:41:05.956396
156  2023-11-01 13:41:06.003233
157  2023-11-01 13:41:06.050137
158  2023-11-01 13:41:06.082022
159  2023-11-01 13:41:06.129934
160  2023-11-01 13:41:06.160891
161  2023-11-01 13:41:06.208732
162  2023-11-01 13:41:06.256724
163  2023-11-01 13:41:06.288664
164  2023-11-01 13:41:06.336631
165  2023-11-01 13:41:06.382505
166  2023-11-01 13:41:06.414376
167  2023-11-01 13:41:06.462289
168  2023-11-01 13:41:06.494206
169  2023-11-01 13:41:06.541071
170  2023-11-01 13:41:06.587913
171  2023-11-01 13:41:06.633820
172  2023-11-01 13:41:06.665735
173  2023-11-01 13:41:06.713578
174  2023-11-01 13:41:06.745528
175  2023-11-01 13:41:06.793363
176  2023-11-01 13:41:06.841267
177  2023-11-01 13:41:06.873183
178  2023-11-01 13:41:06.921022
179  2023-11-01 13:41:06.952937
180  2023-11-01 13:41:07.000871
181  2023-11-01 13:41:07.048681
182  2023-11-01 13:41:07.080672
183  2023-11-01 13:41:07.128540
184  2023-11-01 13:41:07.175454
185  2023-11-01 13:41:07.207383
186  2023-11-01 13:41:07.255201
187  2023-11-01 13:41:07.287116
188  2023-11-01 13:41:07.335053
189  2023-11-01 13:41:07.382997
190  2023-11-01 13:41:07.414912
191  2023-11-01 13:41:07.460848
192  2023-11-01 13:41:07.508722
193  2023-11-01 13:41:07.540648
194  2023-11-01 13:41:07.588481
195  2023-11-01 13:41:07.620491
196  2023-11-01 13:41:07.667997
197  2023-11-01 13:41:07.715943
198  2023-11-01 13:41:07.747870
199  2023-11-01 13:41:07.794699
200  2023-11-01 13:41:07.842571
201  2023-11-01 13:41:07.874520
202  2023-11-01 13:41:07.921406
203  2023-11-01 13:41:07.953327
204  2023-11-01 13:41:08.001148
205  2023-11-01 13:41:08.047025
206  2023-11-01 13:41:08.078995
207  2023-11-01 13:41:08.126857
208  2023-11-01 13:41:08.173687
209  2023-11-01 13:41:08.205601
210  2023-11-01 13:41:08.253473
211  2023-11-01 13:41:08.301497
212  2023-11-01 13:41:08.333367
213  2023-11-01 13:41:08.381343
214  2023-11-01 13:41:08.413206
215  2023-11-01 13:41:08.461128
216  2023-11-01 13:41:08.508950
217  2023-11-01 13:41:08.540865
218  2023-11-01 13:41:08.586907
219  2023-11-01 13:41:08.634660
220  2023-11-01 13:41:08.666591
221  2023-11-01 13:41:08.714533
222  2023-11-01 13:41:08.745452
223  2023-11-01 13:41:08.792325
224  2023-11-01 13:41:08.840198
225  2023-11-01 13:41:08.872160
226  2023-11-01 13:41:08.919984
227  2023-11-01 13:41:08.967901
228  2023-11-01 13:41:08.999802
229  2023-11-01 13:41:09.047679
230  2023-11-01 13:41:09.079593
231  2023-11-01 13:41:09.127465
232  2023-11-01 13:41:09.174373
233  2023-11-01 13:41:09.206289
234  2023-11-01 13:41:09.254127
235  2023-11-01 13:41:09.286042
236  2023-11-01 13:41:09.334969
237  2023-11-01 13:41:09.381864
238  2023-11-01 13:41:09.413804
239  2023-11-01 13:41:09.462721
240  2023-11-01 13:41:09.510601
241  2023-11-01 13:41:09.541496
242  2023-11-01 13:41:09.589335
243  2023-11-01 13:41:09.620297
244  2023-11-01 13:41:09.667176
245  2023-11-01 13:41:09.714035
246  2023-11-01 13:41:09.744952
247  2023-11-01 13:41:09.792824
248  2023-11-01 13:41:09.840663
249  2023-11-01 13:41:09.872611
250  2023-11-01 13:41:09.920482
251  2023-11-01 13:41:09.967368
252  2023-11-01 13:41:09.998280
253  2023-11-01 13:41:10.046245
254  2023-11-01 13:41:10.078317
255  2023-11-01 13:41:10.126195
256  2023-11-01 13:41:10.174030
257  2023-11-01 13:41:10.204984
258  2023-11-01 13:41:10.251852
259  2023-11-01 13:41:10.298695
260  2023-11-01 13:41:10.330610
261  2023-11-01 13:41:10.377530
262  2023-11-01 13:41:10.425357
263  2023-11-01 13:41:10.457272
264  2023-11-01 13:41:10.505145
265  2023-11-01 13:41:10.536095
266  2023-11-01 13:41:10.583020
267  2023-11-01 13:41:10.630940
268  2023-11-01 13:41:10.662854
269  2023-11-01 13:41:10.709805
270  2023-11-01 13:41:10.756708
271  2023-11-01 13:41:10.788592
272  2023-11-01 13:41:10.836501
273  2023-11-01 13:41:10.884373
274  2023-11-01 13:41:10.916420
275  2023-11-01 13:41:10.964339
276  2023-11-01 13:41:10.996313
277  2023-11-01 13:41:11.044215
278  2023-11-01 13:41:11.092087
279  2023-11-01 13:41:11.124018
280  2023-11-01 13:41:11.171844
281  2023-11-01 13:41:11.203758
282  2023-11-01 13:41:11.251650
283  2023-11-01 13:41:11.299533
284  2023-11-01 13:41:11.331468
285  2023-11-01 13:41:11.379333
286  2023-11-01 13:41:11.411468
287  2023-11-01 13:41:11.459157
288  2023-11-01 13:41:11.507083
289  2023-11-01 13:41:11.538976
290  2023-11-01 13:41:11.586813
291  2023-11-01 13:41:11.634699
292  2023-11-01 13:41:11.666599
293  2023-11-01 13:41:11.714478
294  2023-11-01 13:41:11.746384
295  2023-11-01 13:41:11.794257
296  2023-11-01 13:41:11.842129
297  2023-11-01 13:41:11.874114
298  2023-11-01 13:41:11.921987
299  2023-11-01 13:41:11.953905
300  2023-11-01 13:41:12.001824
301  2023-11-01 13:41:12.049648
302  2023-11-01 13:41:12.081560
303  2023-11-01 13:41:12.129433
304  2023-11-01 13:41:12.161365
305  2023-11-01 13:41:12.209188
306  2023-11-01 13:41:12.257111
307  2023-11-01 13:41:12.289021
308  2023-11-01 13:41:12.336891
309  2023-11-01 13:41:12.383754
310  2023-11-01 13:41:12.414670
311  2023-11-01 13:41:12.462561
312  2023-11-01 13:41:12.494458
313  2023-11-01 13:41:12.542331
314  2023-11-01 13:41:12.590206
315  2023-11-01 13:41:12.622118
316  2023-11-01 13:41:12.670083
317  2023-11-01 13:41:12.717862
318  2023-11-01 13:41:12.749859
319  2023-11-01 13:41:12.797746
320  2023-11-01 13:41:12.829614
321  2023-11-01 13:41:12.877518
322  2023-11-01 13:41:12.924501
323  2023-11-01 13:41:12.955389
324  2023-11-01 13:41:13.003271
325  2023-11-01 13:41:13.051098
326  2023-11-01 13:41:13.083012
327  2023-11-01 13:41:13.130883
328  2023-11-01 13:41:13.162798
329  2023-11-01 13:41:13.208675
330  2023-11-01 13:41:13.256547
331  2023-11-01 13:41:13.288462
332  2023-11-01 13:41:13.335376
333  2023-11-01 13:41:13.383209
334  2023-11-01 13:41:13.415123
335  2023-11-01 13:41:13.461041
336  2023-11-01 13:41:13.508876
337  2023-11-01 13:41:13.540788
338  2023-11-01 13:41:13.588796
339  2023-11-01 13:41:13.620711
340  2023-11-01 13:41:13.666621
341  2023-11-01 13:41:13.714493
342  2023-11-01 13:41:13.746410
343  2023-11-01 13:41:13.794282
344  2023-11-01 13:41:13.842175
345  2023-11-01 13:41:13.873069
346  2023-11-01 13:41:13.921025
347  2023-11-01 13:41:13.952950
348  2023-11-01 13:41:14.000827
349  2023-11-01 13:41:14.048701
350  2023-11-01 13:41:14.080593
351  2023-11-01 13:41:14.128486
352  2023-11-01 13:41:14.176376
353  2023-11-01 13:41:14.208225
354  2023-11-01 13:41:14.256150
355  2023-11-01 13:41:14.288059
356  2023-11-01 13:41:14.335933
357  2023-11-01 13:41:14.383790
358  2023-11-01 13:41:14.415702
359  2023-11-01 13:41:14.463592
360  2023-11-01 13:41:14.495495
361  2023-11-01 13:41:14.542387
362  2023-11-01 13:41:14.589235
363  2023-11-01 13:41:14.621124
364  2023-11-01 13:41:14.669079
365  2023-11-01 13:41:14.716915
366  2023-11-01 13:41:14.748815
367  2023-11-01 13:41:14.794690
368  2023-11-01 13:41:14.842580
369  2023-11-01 13:41:14.874445
370  2023-11-01 13:41:14.922496
371  2023-11-01 13:41:14.954591
372  2023-11-01 13:41:15.002505
373  2023-11-01 13:41:15.050410
374  2023-11-01 13:41:15.082352
375  2023-11-01 13:41:15.130325
376  2023-11-01 13:41:15.162248
377  2023-11-01 13:41:15.210164
378  2023-11-01 13:41:15.258005
379  2023-11-01 13:41:15.289919
380  2023-11-01 13:41:15.336841
381  2023-11-01 13:41:15.383795
382  2023-11-01 13:41:15.414712
383  2023-11-01 13:41:15.462585
384  2023-11-01 13:41:15.509459
385  2023-11-01 13:41:15.541374
386  2023-11-01 13:41:15.589334
387  2023-11-01 13:41:15.621249
388  2023-11-01 13:41:15.669154
389  2023-11-01 13:41:15.716994
390  2023-11-01 13:41:15.748909
391  2023-11-01 13:41:15.796816
392  2023-11-01 13:41:15.828702
393  2023-11-01 13:41:15.876677
394  2023-11-01 13:41:15.924549
395  2023-11-01 13:41:15.956464
396  2023-11-01 13:41:16.004337
397  2023-11-01 13:41:16.036251
398  2023-11-01 13:41:16.084123
399  2023-11-01 13:41:16.132028
400  2023-11-01 13:41:16.163910
401  2023-11-01 13:41:16.211782
402  2023-11-01 13:41:16.258705
403  2023-11-01 13:41:16.289621
404  2023-11-01 13:41:16.336033
405  2023-11-01 13:41:16.384096
406  2023-11-01 13:41:16.415972
407  2023-11-01 13:41:16.462932
408  2023-11-01 13:41:16.508811
409  2023-11-01 13:41:16.540730
410  2023-11-01 13:41:16.587603
411  2023-11-01 13:41:16.634680
412  2023-11-01 13:41:16.666670
413  2023-11-01 13:41:16.714542
414  2023-11-01 13:41:16.746471
415  2023-11-01 13:41:16.793302
416  2023-11-01 13:41:16.840174
417  2023-11-01 13:41:16.872123
418  2023-11-01 13:41:16.919961
419  2023-11-01 13:41:16.966838
420  2023-11-01 13:41:16.998811
421  2023-11-01 13:41:17.044732
422  2023-11-01 13:41:17.092618
423  2023-11-01 13:41:17.123521
424  2023-11-01 13:41:17.170445
425  2023-11-01 13:41:17.217319
426  2023-11-01 13:41:17.248220
427  2023-11-01 13:41:17.294099
428  2023-11-01 13:41:17.341986
429  2023-11-01 13:41:17.373883
430  2023-11-01 13:41:17.421771
431  2023-11-01 13:41:17.453687
432  2023-11-01 13:41:17.501368
433  2023-11-01 13:41:17.549240
434  2023-11-01 13:41:17.581155
435  2023-11-01 13:41:17.628133
436  2023-11-01 13:41:17.674987
437  2023-11-01 13:41:17.706918
438  2023-11-01 13:41:17.754733
439  2023-11-01 13:41:17.786696
440  2023-11-01 13:41:17.834553
441  2023-11-01 13:41:17.883392
442  2023-11-01 13:41:17.914350
443  2023-11-01 13:41:17.962185
444  2023-11-01 13:41:17.994099
445  2023-11-01 13:41:18.041965
446  2023-11-01 13:41:18.089948
447  2023-11-01 13:41:18.121958
448  2023-11-01 13:41:18.169780
449  2023-11-01 13:41:18.217606
450  2023-11-01 13:41:18.249521
451  2023-11-01 13:41:18.297393
452  2023-11-01 13:41:18.330314
453  2023-11-01 13:41:18.377226
454  2023-11-01 13:41:18.425052
455  2023-11-01 13:41:18.456966
456  2023-11-01 13:41:18.504887
457  2023-11-01 13:41:18.536800
458  2023-11-01 13:41:18.584625
459  2023-11-01 13:41:18.632647
460  2023-11-01 13:41:18.664555
461  2023-11-01 13:41:18.711444
462  2023-11-01 13:41:18.758290
463  2023-11-01 13:41:18.790312
464  2023-11-01 13:41:18.839075
465  2023-11-01 13:41:18.870993
466  2023-11-01 13:41:18.916866
467  2023-11-01 13:41:18.963741
468  2023-11-01 13:41:18.995656
469  2023-11-01 13:41:19.043528
470  2023-11-01 13:41:19.091400
471  2023-11-01 13:41:19.122994
472  2023-11-01 13:41:19.170866
473  2023-11-01 13:41:19.202812
474  2023-11-01 13:41:19.250698
475  2023-11-01 13:41:19.298605
476  2023-11-01 13:41:19.330519
477  2023-11-01 13:41:19.378391
478  2023-11-01 13:41:19.426332
479  2023-11-01 13:41:19.458250
480  2023-11-01 13:41:19.506089
481  2023-11-01 13:41:19.538036
482  2023-11-01 13:41:19.585937
483  2023-11-01 13:41:19.633841
484  2023-11-01 13:41:19.665869
485  2023-11-01 13:41:19.713595
486  2023-11-01 13:41:19.745510
487  2023-11-01 13:41:19.793415
488  2023-11-01 13:41:19.841254
489  2023-11-01 13:41:19.873169
490  2023-11-01 13:41:19.921089
491  2023-11-01 13:41:19.952956
492  2023-11-01 13:41:20.000858
493  2023-11-01 13:41:20.048748
494  2023-11-01 13:41:20.080662
495  2023-11-01 13:41:20.128534
496  2023-11-01 13:41:20.175464
497  2023-11-01 13:41:20.206463
498  2023-11-01 13:41:20.254402
499  2023-11-01 13:41:20.286444
500  2023-11-01 13:41:20.334325
501  2023-11-01 13:41:20.382324
502  2023-11-01 13:41:20.414337
503  2023-11-01 13:41:20.462207
504  2023-11-01 13:41:20.494123
505  2023-11-01 13:41:20.542000
506  2023-11-01 13:41:20.589908
507  2023-11-01 13:41:20.621797
508  2023-11-01 13:41:20.668806
509  2023-11-01 13:41:20.715680
510  2023-11-01 13:41:20.747581
511  2023-11-01 13:41:20.795423
512  2023-11-01 13:41:20.842487
513  2023-11-01 13:41:20.873249
514  2023-11-01 13:41:20.920310
515  2023-11-01 13:41:20.967212
516  2023-11-01 13:41:20.999130
517  2023-11-01 13:41:21.045974
518  2023-11-01 13:41:21.077889
519  2023-11-01 13:41:21.125761
520  2023-11-01 13:41:21.173665
521  2023-11-01 13:41:21.205582
522  2023-11-01 13:41:21.253420
523  2023-11-01 13:41:21.301325
524  2023-11-01 13:41:21.333207
525  2023-11-01 13:41:21.381079
526  2023-11-01 13:41:21.412994
527  2023-11-01 13:41:21.460899
528  2023-11-01 13:41:21.508738
529  2023-11-01 13:41:21.540685
530  2023-11-01 13:41:21.587527
531  2023-11-01 13:41:21.634402
532  2023-11-01 13:41:21.666317
533  2023-11-01 13:41:21.714328
534  2023-11-01 13:41:21.746258
535  2023-11-01 13:41:21.793181
536  2023-11-01 13:41:21.840042
537  2023-11-01 13:41:21.871922
538  2023-11-01 13:41:21.919826
539  2023-11-01 13:41:21.967704
540  2023-11-01 13:41:21.999613
541  2023-11-01 13:41:22.047485
542  2023-11-01 13:41:22.079398
543  2023-11-01 13:41:22.127285
544  2023-11-01 13:41:22.175156
545  2023-11-01 13:41:22.207141
546  2023-11-01 13:41:22.253949
547  2023-11-01 13:41:22.299832
548  2023-11-01 13:41:22.330698
549  2023-11-01 13:41:22.378617
550  2023-11-01 13:41:22.424587
551  2023-11-01 13:41:22.456502
552  2023-11-01 13:41:22.503550
553  2023-11-01 13:41:22.550394
554  2023-11-01 13:41:22.582308
555  2023-11-01 13:41:22.629184
556  2023-11-01 13:41:22.661132
557  2023-11-01 13:41:22.709010
558  2023-11-01 13:41:22.756997
559  2023-11-01 13:41:22.788757
560  2023-11-01 13:41:22.836639
561  2023-11-01 13:41:22.884501
562  2023-11-01 13:41:22.916526
563  2023-11-01 13:41:22.964489
564  2023-11-01 13:41:22.996369
565  2023-11-01 13:41:23.044241
566  2023-11-01 13:41:23.092263
567  2023-11-01 13:41:23.124177
568  2023-11-01 13:41:23.171052
569  2023-11-01 13:41:23.217927
570  2023-11-01 13:41:23.249842
571  2023-11-01 13:41:23.297714
572  2023-11-01 13:41:23.329674
573  2023-11-01 13:41:23.377500
574  2023-11-01 13:41:23.425425
575  2023-11-01 13:41:23.456301
576  2023-11-01 13:41:23.504208
577  2023-11-01 13:41:23.536113
578  2023-11-01 13:41:23.584083
579  2023-11-01 13:41:23.631854
580  2023-11-01 13:41:23.662740
581  2023-11-01 13:41:23.709661
582  2023-11-01 13:41:23.757540
583  2023-11-01 13:41:23.789642
584  2023-11-01 13:41:23.837558
585  2023-11-01 13:41:23.883453
586  2023-11-01 13:41:23.915351
587  2023-11-01 13:41:23.963212
588  2023-11-01 13:41:23.995122
589  2023-11-01 13:41:24.041038
590  2023-11-01 13:41:24.089881
591  2023-11-01 13:41:24.120762
592  2023-11-01 13:41:24.169669
593  2023-11-01 13:41:24.216628
594  2023-11-01 13:41:24.248521
595  2023-11-01 13:41:24.296393
596  2023-11-01 13:41:24.328307
597  2023-11-01 13:41:24.376236
598  2023-11-01 13:41:24.424051
599  2023-11-01 13:41:24.455965
600  2023-11-01 13:41:24.503880
601  2023-11-01 13:41:24.550712
602  2023-11-01 13:41:24.581836
603  2023-11-01 13:41:24.627879
604  2023-11-01 13:41:24.674754
605  2023-11-01 13:41:24.706669
606  2023-11-01 13:41:24.754541
607  2023-11-01 13:41:24.786541
608  2023-11-01 13:41:24.832483
609  2023-11-01 13:41:24.880310
610  2023-11-01 13:41:24.912224
611  2023-11-01 13:41:24.960228
612  2023-11-01 13:41:25.008069
613  2023-11-01 13:41:25.039022
614  2023-11-01 13:41:25.085910
615  2023-11-01 13:41:25.133780
616  2023-11-01 13:41:25.165694
617  2023-11-01 13:41:25.212563
618  2023-11-01 13:41:25.259434
619  2023-11-01 13:41:25.291313
620  2023-11-01 13:41:25.339231
621  2023-11-01 13:41:25.371131
622  2023-11-01 13:41:25.417222
623  2023-11-01 13:41:25.464005
624  2023-11-01 13:41:25.495920
625  2023-11-01 13:41:25.543799
626  2023-11-01 13:41:25.591677
627  2023-11-01 13:41:25.623578
628  2023-11-01 13:41:25.671487
629  2023-11-01 13:41:25.703365
630  2023-11-01 13:41:25.749242
631  2023-11-01 13:41:25.797114
632  2023-11-01 13:41:25.829029
633  2023-11-01 13:41:25.876901
634  2023-11-01 13:41:25.924773
635  2023-11-01 13:41:25.956687
636  2023-11-01 13:41:26.004579
637  2023-11-01 13:41:26.036500
638  2023-11-01 13:41:26.084346
639  2023-11-01 13:41:26.132218
640  2023-11-01 13:41:26.163136
641  2023-11-01 13:41:26.210012
642  2023-11-01 13:41:26.257884
643  2023-11-01 13:41:26.287804
644  2023-11-01 13:41:26.335721
645  2023-11-01 13:41:26.382551
646  2023-11-01 13:41:26.414453
647  2023-11-01 13:41:26.462553
648  2023-11-01 13:41:26.494467
649  2023-11-01 13:41:26.542006
650  2023-11-01 13:41:26.589867
651  2023-11-01 13:41:26.621792
652  2023-11-01 13:41:26.669715
653  2023-11-01 13:41:26.717622
654  2023-11-01 13:41:26.749557
655  2023-11-01 13:41:26.797429
656  2023-11-01 13:41:26.829324
657  2023-11-01 13:41:26.876403
658  2023-11-01 13:41:26.923080
659  2023-11-01 13:41:26.954015
660  2023-11-01 13:41:27.001881
661  2023-11-01 13:41:27.049703
662  2023-11-01 13:41:27.081668
663  2023-11-01 13:41:27.129490
664  2023-11-01 13:41:27.161455
665  2023-11-01 13:41:27.209308
666  2023-11-01 13:41:27.257161
667  2023-11-01 13:41:27.289064
668  2023-11-01 13:41:27.336977
669  2023-11-01 13:41:27.383855
670  2023-11-01 13:41:27.415763
671  2023-11-01 13:41:27.462601
672  2023-11-01 13:41:27.494515
673  2023-11-01 13:41:27.542431
674  2023-11-01 13:41:27.590259
675  2023-11-01 13:41:27.620179
676  2023-11-01 13:41:27.666205
677  2023-11-01 13:41:27.713928
678  2023-11-01 13:41:27.758840
679  2023-11-01 13:41:27.789761
680  2023-11-01 13:41:27.835640
681  2023-11-01 13:41:27.883530
682  2023-11-01 13:41:27.915650
683  2023-11-01 13:41:27.963312
684  2023-11-01 13:41:27.995214
685  2023-11-01 13:41:28.043082
686  2023-11-01 13:41:28.090922
687  2023-11-01 13:41:28.122874
688  2023-11-01 13:41:28.170746
689  2023-11-01 13:41:28.202703
690  2023-11-01 13:41:28.250664
691  2023-11-01 13:41:28.298490
692  2023-11-01 13:41:28.330438
693  2023-11-01 13:41:28.378321
694  2023-11-01 13:41:28.426221
695  2023-11-01 13:41:28.458098
696  2023-11-01 13:41:28.505988
697  2023-11-01 13:41:28.537882
698  2023-11-01 13:41:28.585774
699  2023-11-01 13:41:28.633744
700  2023-11-01 13:41:28.665815
701  2023-11-01 13:41:28.712669
702  2023-11-01 13:41:28.744552
703  2023-11-01 13:41:28.792441
704  2023-11-01 13:41:28.840313
705  2023-11-01 13:41:28.872244
706  2023-11-01 13:41:28.920025
707  2023-11-01 13:41:28.967087
708  2023-11-01 13:41:28.998971
709  2023-11-01 13:41:29.045819
710  2023-11-01 13:41:29.077734
711  2023-11-01 13:41:29.125606
712  2023-11-01 13:41:29.173479
713  2023-11-01 13:41:29.205393
714  2023-11-01 13:41:29.253265
715  2023-11-01 13:41:29.301138
716  2023-11-01 13:41:29.333052
717  2023-11-01 13:41:29.379936
718  2023-11-01 13:41:29.411841
719  2023-11-01 13:41:29.459714
720  2023-11-01 13:41:29.507585
721  2023-11-01 13:41:29.539500
722  2023-11-01 13:41:29.587372
723  2023-11-01 13:41:29.619412
724  2023-11-01 13:41:29.667284
725  2023-11-01 13:41:29.715156
726  2023-11-01 13:41:29.747071
727  2023-11-01 13:41:29.794943
728  2023-11-01 13:41:29.842815
729  2023-11-01 13:41:29.874730
730  2023-11-01 13:41:29.921604
731  2023-11-01 13:41:29.952522
732  2023-11-01 13:41:30.000442
733  2023-11-01 13:41:30.048266
734  2023-11-01 13:41:30.080180
735  2023-11-01 13:41:30.128085
736  2023-11-01 13:41:30.175925
737  2023-11-01 13:41:30.207839
738  2023-11-01 13:41:30.255711
739  2023-11-01 13:41:30.287626
740  2023-11-01 13:41:30.335529
741  2023-11-01 13:41:30.383370
742  2023-11-01 13:41:30.415285
743  2023-11-01 13:41:30.463197
744  2023-11-01 13:41:30.495072
745  2023-11-01 13:41:30.542944
746  2023-11-01 13:41:30.590847
747  2023-11-01 13:41:30.622855
748  2023-11-01 13:41:30.670784
749  2023-11-01 13:41:30.702694
750  2023-11-01 13:41:30.748564
751  2023-11-01 13:41:30.796313
752  2023-11-01 13:41:30.828210
753  2023-11-01 13:41:30.876232
754  2023-11-01 13:41:30.924221
755  2023-11-01 13:41:30.956133
756  2023-11-01 13:41:31.004039
757  2023-11-01 13:41:31.035962
758  2023-11-01 13:41:31.083792
759  2023-11-01 13:41:31.130700
760  2023-11-01 13:41:31.161621
761  2023-11-01 13:41:31.209489
762  2023-11-01 13:41:31.258334
763  2023-11-01 13:41:31.289254
764  2023-11-01 13:41:31.337159
765  2023-11-01 13:41:31.369063
766  2023-11-01 13:41:31.416947
767  2023-11-01 13:41:31.465778
768  2023-11-01 13:41:31.496813
769  2023-11-01 13:41:31.544675
770  2023-11-01 13:41:31.592571
771  2023-11-01 13:41:31.624471
772  2023-11-01 13:41:31.672352
773  2023-11-01 13:41:31.704260
774  2023-11-01 13:41:31.752239
775  2023-11-01 13:41:31.799998
776  2023-11-01 13:41:31.831917
777  2023-11-01 13:41:31.879782
778  2023-11-01 13:41:31.911665
779  2023-11-01 13:41:31.959571
780  2023-11-01 13:41:32.007487
781  2023-11-01 13:41:32.039432
782  2023-11-01 13:41:32.087455
783  2023-11-01 13:41:32.119370
784  2023-11-01 13:41:32.167245
785  2023-11-01 13:41:32.214156
786  2023-11-01 13:41:32.246032
787  2023-11-01 13:41:32.293904
788  2023-11-01 13:41:32.342845
789  2023-11-01 13:41:32.373730
790  2023-11-01 13:41:32.419568
791  2023-11-01 13:41:32.467440
792  2023-11-01 13:41:32.498357
793  2023-11-01 13:41:32.545308
794  2023-11-01 13:41:32.592203
795  2023-11-01 13:41:32.623121
796  2023-11-01 13:41:32.671042
797  2023-11-01 13:41:32.702954
798  2023-11-01 13:41:32.748833
799  2023-11-01 13:41:32.796688
800  2023-11-01 13:41:32.828603
801  2023-11-01 13:41:32.875483
802  2023-11-01 13:41:32.923319
803  2023-11-01 13:41:32.955266
804  2023-11-01 13:41:33.003141
805  2023-11-01 13:41:33.051011
806  2023-11-01 13:41:33.082923
807  2023-11-01 13:41:33.130764
808  2023-11-01 13:41:33.162709
809  2023-11-01 13:41:33.210583
810  2023-11-01 13:41:33.258526
811  2023-11-01 13:41:33.290410
812  2023-11-01 13:41:33.338324
813  2023-11-01 13:41:33.370233
814  2023-11-01 13:41:33.418118
815  2023-11-01 13:41:33.465989
816  2023-11-01 13:41:33.498001
817  2023-11-01 13:41:33.544879
818  2023-11-01 13:41:33.592741
819  2023-11-01 13:41:33.624686
820  2023-11-01 13:41:33.671532
821  2023-11-01 13:41:33.703404
822  2023-11-01 13:41:33.749466
823  2023-11-01 13:41:33.797291
824  2023-11-01 13:41:33.829206
825  2023-11-01 13:41:33.877119
826  2023-11-01 13:41:33.923953
827  2023-11-01 13:41:33.955867
828  2023-11-01 13:41:34.003739
829  2023-11-01 13:41:34.050614
830  2023-11-01 13:41:34.081531
831  2023-11-01 13:41:34.129466
832  2023-11-01 13:41:34.161407
833  2023-11-01 13:41:34.209337
834  2023-11-01 13:41:34.257133
835  2023-11-01 13:41:34.289047
836  2023-11-01 13:41:34.337025
837  2023-11-01 13:41:34.383953
838  2023-11-01 13:41:34.414871
839  2023-11-01 13:41:34.462789
840  2023-11-01 13:41:34.494704
841  2023-11-01 13:41:34.542636
842  2023-11-01 13:41:34.590509
843  2023-11-01 13:41:34.622423
844  2023-11-01 13:41:34.668487
845  2023-11-01 13:41:34.716333
846  2023-11-01 13:41:34.748249
847  2023-11-01 13:41:34.796175
848  2023-11-01 13:41:34.828125
849  2023-11-01 13:41:34.874996
850  2023-11-01 13:41:34.920840
851  2023-11-01 13:41:34.952755
852  2023-11-01 13:41:35.000676
853  2023-11-01 13:41:35.048548
854  2023-11-01 13:41:35.080447
855  2023-11-01 13:41:35.126342
856  2023-11-01 13:41:35.174173
857  2023-11-01 13:41:35.206140
858  2023-11-01 13:41:35.253982
859  2023-11-01 13:41:35.285904
860  2023-11-01 13:41:35.333779
861  2023-11-01 13:41:35.381642
862  2023-11-01 13:41:35.413637
863  2023-11-01 13:41:35.461552
864  2023-11-01 13:41:35.509422
865  2023-11-01 13:41:35.541296
866  2023-11-01 13:41:35.589167
867  2023-11-01 13:41:35.620087
868  2023-11-01 13:41:35.665962
869  2023-11-01 13:41:35.712837
870  2023-11-01 13:41:35.744751
871  2023-11-01 13:41:35.792623
872  2023-11-01 13:41:35.840673
873  2023-11-01 13:41:35.872456
874  2023-11-01 13:41:35.920349
875  2023-11-01 13:41:35.967305
876  2023-11-01 13:41:35.998221
877  2023-11-01 13:41:36.046155
878  2023-11-01 13:41:36.078136
879  2023-11-01 13:41:36.125977
880  2023-11-01 13:41:36.174028
881  2023-11-01 13:41:36.205895
882  2023-11-01 13:41:36.252838
883  2023-11-01 13:41:36.299833
884  2023-11-01 13:41:36.331754
885  2023-11-01 13:41:36.379652
886  2023-11-01 13:41:36.411568
887  2023-11-01 13:41:36.459406
888  2023-11-01 13:41:36.507335
889  2023-11-01 13:41:36.539232
890  2023-11-01 13:41:36.587099
891  2023-11-01 13:41:36.633976
892  2023-11-01 13:41:36.664857
893  2023-11-01 13:41:36.712801
894  2023-11-01 13:41:36.744770
895  2023-11-01 13:41:36.792591
896  2023-11-01 13:41:36.840523
897  2023-11-01 13:41:36.872410
898  2023-11-01 13:41:36.920251
899  2023-11-01 13:41:36.967125
900  2023-11-01 13:41:36.998076
901  2023-11-01 13:41:37.045932
902  2023-11-01 13:41:37.077943
903  2023-11-01 13:41:37.125828
904  2023-11-01 13:41:37.173669
905  2023-11-01 13:41:37.205597
906  2023-11-01 13:41:37.253475
907  2023-11-01 13:41:37.300490
908  2023-11-01 13:41:37.331355
909  2023-11-01 13:41:37.379304
910  2023-11-01 13:41:37.411193
911  2023-11-01 13:41:37.456121
912  2023-11-01 13:41:37.503045
913  2023-11-01 13:41:37.549902
914  2023-11-01 13:41:37.581785
915  2023-11-01 13:41:37.629722
916  2023-11-01 13:41:37.661638
917  2023-11-01 13:41:37.709558
918  2023-11-01 13:41:37.756433
919  2023-11-01 13:41:37.788347
920  2023-11-01 13:41:37.836257
921  2023-11-01 13:41:37.884091
922  2023-11-01 13:41:37.916040
923  2023-11-01 13:41:37.963880
924  2023-11-01 13:41:37.994836
925  2023-11-01 13:41:38.041707
926  2023-11-01 13:41:38.089658
927  2023-11-01 13:41:38.121535
928  2023-11-01 13:41:38.168437
929  2023-11-01 13:41:38.216326
930  2023-11-01 13:41:38.247225
931  2023-11-01 13:41:38.295113
932  2023-11-01 13:41:38.343007
933  2023-11-01 13:41:38.374856
934  2023-11-01 13:41:38.422774
935  2023-11-01 13:41:38.454678
936  2023-11-01 13:41:38.502494
937  2023-11-01 13:41:38.550408
938  2023-11-01 13:41:38.582308
939  2023-11-01 13:41:38.628271
940  2023-11-01 13:41:38.675178
941  2023-11-01 13:41:38.707092
942  2023-11-01 13:41:38.753935
943  2023-11-01 13:41:38.785849
944  2023-11-01 13:41:38.833722
945  2023-11-01 13:41:38.881708
946  2023-11-01 13:41:38.913622
947  2023-11-01 13:41:38.961494
948  2023-11-01 13:41:39.009412
949  2023-11-01 13:41:39.041479
950  2023-11-01 13:41:39.089519
951  2023-11-01 13:41:39.121439
952  2023-11-01 13:41:39.169353
953  2023-11-01 13:41:39.217276
954  2023-11-01 13:41:39.249190
955  2023-11-01 13:41:39.297104
956  2023-11-01 13:41:39.329060
957  2023-11-01 13:41:39.375987
958  2023-11-01 13:41:39.422822
959  2023-11-01 13:41:39.453727
960  2023-11-01 13:41:39.501647
961  2023-11-01 13:41:39.548506
962  2023-11-01 13:41:39.579423
963  2023-11-01 13:41:39.627266
964  2023-11-01 13:41:39.675169
965  2023-11-01 13:41:39.707085
966  2023-11-01 13:41:39.754922
967  2023-11-01 13:41:39.786837
968  2023-11-01 13:41:39.834740
969  2023-11-01 13:41:39.882581
970  2023-11-01 13:41:39.914543
971  2023-11-01 13:41:39.962404
972  2023-11-01 13:41:39.994346
973  2023-11-01 13:41:40.042185
974  2023-11-01 13:41:40.090058
975  2023-11-01 13:41:40.121941
976  2023-11-01 13:41:40.169854
977  2023-11-01 13:41:40.217724
978  2023-11-01 13:41:40.249642
979  2023-11-01 13:41:40.297747
980  2023-11-01 13:41:40.329514
981  2023-11-01 13:41:40.377370
982  2023-11-01 13:41:40.425211
983  2023-11-01 13:41:40.457179
984  2023-11-01 13:41:40.505031
985  2023-11-01 13:41:40.536943
986  2023-11-01 13:41:40.584784
987  2023-11-01 13:41:40.632683
988  2023-11-01 13:41:40.664633
989  2023-11-01 13:41:40.712475
990  2023-11-01 13:41:40.744389
991  2023-11-01 13:41:40.792230
992  2023-11-01 13:41:40.840138
993  2023-11-01 13:41:40.872054
994  2023-11-01 13:41:40.919924
995  2023-11-01 13:41:40.966765
996  2023-11-01 13:41:40.997716
997  2023-11-01 13:41:41.045583
998  2023-11-01 13:41:41.077502
999  2023-11-01 13:41:41.125370
1000  2023-11-01 13:41:41.173293
1001  2023-11-01 13:41:41.204163
1002  2023-11-01 13:41:41.252037
1003  2023-11-01 13:41:41.299906
1004  2023-11-01 13:41:41.331910
1005  2023-11-01 13:41:41.379696
1006  2023-11-01 13:41:41.411614
1007  2023-11-01 13:41:41.459619
1008  2023-11-01 13:41:41.507539
1009  2023-11-01 13:41:41.539461
1010  2023-11-01 13:41:41.587278
1011  2023-11-01 13:41:41.619192
1012  2023-11-01 13:41:41.667098
1013  2023-11-01 13:41:41.714967
1014  2023-11-01 13:41:41.746885
1015  2023-11-01 13:41:41.794724
1016  2023-11-01 13:41:41.842661
1017  2023-11-01 13:41:41.874547
1018  2023-11-01 13:41:41.919390
1019  2023-11-01 13:41:41.967294
1020  2023-11-01 13:41:41.999211
1021  2023-11-01 13:41:42.047049
1022  2023-11-01 13:41:42.078964
1023  2023-11-01 13:41:42.125838
1024  2023-11-01 13:41:42.173757
1025  2023-11-01 13:41:42.205656
1026  2023-11-01 13:41:42.253523
1027  2023-11-01 13:41:42.299474
1028  2023-11-01 13:41:42.331358
1029  2023-11-01 13:41:42.379263
1030  2023-11-01 13:41:42.411177
1031  2023-11-01 13:41:42.458053
1032  2023-11-01 13:41:42.504925
1033  2023-11-01 13:41:42.535860
1034  2023-11-01 13:41:42.582722
1035  2023-11-01 13:41:42.630559
1036  2023-11-01 13:41:42.662482
1037  2023-11-01 13:41:42.710381
1038  2023-11-01 13:41:42.758252
1039  2023-11-01 13:41:42.790163
1040  2023-11-01 13:41:42.838039
1041  2023-11-01 13:41:42.883916
1042  2023-11-01 13:41:42.915829
1043  2023-11-01 13:41:42.963711
1044  2023-11-01 13:41:42.995634
1045  2023-11-01 13:41:43.043500
1046  2023-11-01 13:41:43.091358
1047  2023-11-01 13:41:43.123295
1048  2023-11-01 13:41:43.171143
1049  2023-11-01 13:41:43.217001
1050  2023-11-01 13:41:43.248906
1051  2023-11-01 13:41:43.297821
1052  2023-11-01 13:41:43.327695
1053  2023-11-01 13:41:43.374615
1054  2023-11-01 13:41:43.422442
1055  2023-11-01 13:41:43.454357
1056  2023-11-01 13:41:43.502277
1057  2023-11-01 13:41:43.550218
1058  2023-11-01 13:41:43.581130
1059  2023-11-01 13:41:43.628107
1060  2023-11-01 13:41:43.674958
1061  2023-11-01 13:41:43.707925
1062  2023-11-01 13:41:43.754764
1063  2023-11-01 13:41:43.786627
1064  2023-11-01 13:41:43.834532
1065  2023-11-01 13:41:43.882371
1066  2023-11-01 13:41:43.914330
1067  2023-11-01 13:41:43.960196
1068  2023-11-01 13:41:44.007112
1069  2023-11-01 13:41:44.037989
1070  2023-11-01 13:41:44.083863
1071  2023-11-01 13:41:44.131745
1072  2023-11-01 13:41:44.163650
1073  2023-11-01 13:41:44.211532
1074  2023-11-01 13:41:44.259363
1075  2023-11-01 13:41:44.291051
1076  2023-11-01 13:41:44.339056
1077  2023-11-01 13:41:44.370929
1078  2023-11-01 13:41:44.418970
1079  2023-11-01 13:41:44.466671
1080  2023-11-01 13:41:44.498554
1081  2023-11-01 13:41:44.546456
1082  2023-11-01 13:41:44.578385
1083  2023-11-01 13:41:44.626213
1084  2023-11-01 13:41:44.674117
1085  2023-11-01 13:41:44.705034
1086  2023-11-01 13:41:44.751932
1087  2023-11-01 13:41:44.799886
1088  2023-11-01 13:41:44.831828
1089  2023-11-01 13:41:44.879739
1090  2023-11-01 13:41:44.911688
1091  2023-11-01 13:41:44.959526
1092  2023-11-01 13:41:45.007431
1093  2023-11-01 13:41:45.039345
1094  2023-11-01 13:41:45.087185
1095  2023-11-01 13:41:45.119099
1096  2023-11-01 13:41:45.167006
1097  2023-11-01 13:41:45.214843
1098  2023-11-01 13:41:45.246758
1099  2023-11-01 13:41:45.294688
1100  2023-11-01 13:41:45.342611
1101  2023-11-01 13:41:45.372511
1102  2023-11-01 13:41:45.420352
1103  2023-11-01 13:41:45.467228
1104  2023-11-01 13:41:45.497147
1105  2023-11-01 13:41:45.544066
1106  2023-11-01 13:41:45.591934
1107  2023-11-01 13:41:45.623808
1108  2023-11-01 13:41:45.671723
1109  2023-11-01 13:41:45.703626
1110  2023-11-01 13:41:45.751498
1111  2023-11-01 13:41:45.799391
1112  2023-11-01 13:41:45.831304
1113  2023-11-01 13:41:45.879286
1114  2023-11-01 13:41:45.911166
1115  2023-11-01 13:41:45.959217
1116  2023-11-01 13:41:46.006100
1117  2023-11-01 13:41:46.036998
1118  2023-11-01 13:41:46.084875
1119  2023-11-01 13:41:46.132788
1120  2023-11-01 13:41:46.164662
1121  2023-11-01 13:41:46.211532
1122  2023-11-01 13:41:46.258376
1123  2023-11-01 13:41:46.290290
1124  2023-11-01 13:41:46.337196
1125  2023-11-01 13:41:46.384041
1126  2023-11-01 13:41:46.415956
1127  2023-11-01 13:41:46.463827
1128  2023-11-01 13:41:46.495742
1129  2023-11-01 13:41:46.544642
1130  2023-11-01 13:41:46.592527
1131  2023-11-01 13:41:46.622403
1132  2023-11-01 13:41:46.668360
1133  2023-11-01 13:41:46.715343
1134  2023-11-01 13:41:46.747418
1135  2023-11-01 13:41:46.795202
1136  2023-11-01 13:41:46.842072
1137  2023-11-01 13:41:46.873984
1138  2023-11-01 13:41:46.921825
1139  2023-11-01 13:41:46.953740
1140  2023-11-01 13:41:47.001645
1141  2023-11-01 13:41:47.049484
1142  2023-11-01 13:41:47.081399
1143  2023-11-01 13:41:47.129271
1144  2023-11-01 13:41:47.161186
1145  2023-11-01 13:41:47.209086
1146  2023-11-01 13:41:47.256930
1147  2023-11-01 13:41:47.288845
1148  2023-11-01 13:41:47.336758
1149  2023-11-01 13:41:47.383591
1150  2023-11-01 13:41:47.415506
1151  2023-11-01 13:41:47.463149
1152  2023-11-01 13:41:47.495065
1153  2023-11-01 13:41:47.542937
1154  2023-11-01 13:41:47.590925
1155  2023-11-01 13:41:47.622804
1156  2023-11-01 13:41:47.668683
1157  2023-11-01 13:41:47.716601
1158  2023-11-01 13:41:47.748501
1159  2023-11-01 13:41:47.794380
1160  2023-11-01 13:41:47.842247
1161  2023-11-01 13:41:47.874162
1162  2023-11-01 13:41:47.922038
1163  2023-11-01 13:41:47.953961
1164  2023-11-01 13:41:48.001824
1165  2023-11-01 13:41:48.049665
1166  2023-11-01 13:41:48.081609
1167  2023-11-01 13:41:48.129481
1168  2023-11-01 13:41:48.161410
1169  2023-11-01 13:41:48.207289
1170  2023-11-01 13:41:48.254118
1171  2023-11-01 13:41:48.286033
1172  2023-11-01 13:41:48.333938
1173  2023-11-01 13:41:48.381777
1174  2023-11-01 13:41:48.413692
1175  2023-11-01 13:41:48.461564
1176  2023-11-01 13:41:48.509483
1177  2023-11-01 13:41:48.541579
1178  2023-11-01 13:41:48.589223
1179  2023-11-01 13:41:48.621137
1180  2023-11-01 13:41:48.669009
1181  2023-11-01 13:41:48.716882
1182  2023-11-01 13:41:48.748827
1183  2023-11-01 13:41:48.795700
1184  2023-11-01 13:41:48.827585
1185  2023-11-01 13:41:48.875492
1186  2023-11-01 13:41:48.922474
1187  2023-11-01 13:41:48.953357
1188  2023-11-01 13:41:49.001265
1189  2023-11-01 13:41:49.049101
1190  2023-11-01 13:41:49.081016
1191  2023-11-01 13:41:49.129888
1192  2023-11-01 13:41:49.160803
1193  2023-11-01 13:41:49.208720
1194  2023-11-01 13:41:49.256547
1195  2023-11-01 13:41:49.288561
1196  2023-11-01 13:41:49.336402
1197  2023-11-01 13:41:49.384274
1198  2023-11-01 13:41:49.416221
1199  2023-11-01 13:41:49.464162
1200  2023-11-01 13:41:49.496035
1201  2023-11-01 13:41:49.543942
1202  2023-11-01 13:41:49.591852
1203  2023-11-01 13:41:49.623767
1204  2023-11-01 13:41:49.671669
1205  2023-11-01 13:41:49.703588
1206  2023-11-01 13:41:49.749477
1207  2023-11-01 13:41:49.797334
1208  2023-11-01 13:41:49.829256
1209  2023-11-01 13:41:49.877143
1210  2023-11-01 13:41:49.924995
1211  2023-11-01 13:41:49.956910
1212  2023-11-01 13:41:50.004802
1213  2023-11-01 13:41:50.036671
1214  2023-11-01 13:41:50.084571
1215  2023-11-01 13:41:50.132464
1216  2023-11-01 13:41:50.164545
1217  2023-11-01 13:41:50.212375
1218  2023-11-01 13:41:50.244302
1219  2023-11-01 13:41:50.292129
1220  2023-11-01 13:41:50.340976
1221  2023-11-01 13:41:50.372007
1222  2023-11-01 13:41:50.419877
1223  2023-11-01 13:41:50.467750
1224  2023-11-01 13:41:50.499632
1225  2023-11-01 13:41:50.547551
1226  2023-11-01 13:41:50.579452
1227  2023-11-01 13:41:50.627330
1228  2023-11-01 13:41:50.674200
1229  2023-11-01 13:41:50.705132
1230  2023-11-01 13:41:50.752988
1231  2023-11-01 13:41:50.798865
1232  2023-11-01 13:41:50.831778
1233  2023-11-01 13:41:50.878656
1234  2023-11-01 13:41:50.925494
1235  2023-11-01 13:41:50.956447
1236  2023-11-01 13:41:51.004317
1237  2023-11-01 13:41:51.036264
1238  2023-11-01 13:41:51.084071
1239  2023-11-01 13:41:51.131943
1240  2023-11-01 13:41:51.163889
1241  2023-11-01 13:41:51.211764
1242  2023-11-01 13:41:51.259602
1243  2023-11-01 13:41:51.291516
1244  2023-11-01 13:41:51.339436
1245  2023-11-01 13:41:51.371337
1246  2023-11-01 13:41:51.419175
1247  2023-11-01 13:41:51.467083
1248  2023-11-01 13:41:51.499022
1249  2023-11-01 13:41:51.547005
1250  2023-11-01 13:41:51.578919
1251  2023-11-01 13:41:51.626760
1252  2023-11-01 13:41:51.673560
1253  2023-11-01 13:41:51.705505
1254  2023-11-01 13:41:51.753333
1255  2023-11-01 13:41:51.801293
1256  2023-11-01 13:41:51.833154
1257  2023-11-01 13:41:51.880992
1258  2023-11-01 13:41:51.912938
1259  2023-11-01 13:41:51.960779
1260  2023-11-01 13:41:52.008696
1261  2023-11-01 13:41:52.039622
1262  2023-11-01 13:41:52.087440
1263  2023-11-01 13:41:52.119480
1264  2023-11-01 13:41:52.167361
1265  2023-11-01 13:41:52.215280
1266  2023-11-01 13:41:52.247194
1267  2023-11-01 13:41:52.295066
1268  2023-11-01 13:41:52.341974
1269  2023-11-01 13:41:52.372930
1270  2023-11-01 13:41:52.420772
1271  2023-11-01 13:41:52.466751
1272  2023-11-01 13:41:52.498723
1273  2023-11-01 13:41:52.546588
1274  2023-11-01 13:41:52.577501
1275  2023-11-01 13:41:52.624378
1276  2023-11-01 13:41:52.671253
1277  2023-11-01 13:41:52.703176
1278  2023-11-01 13:41:52.751035
1279  2023-11-01 13:41:52.798912
1280  2023-11-01 13:41:52.830795
1281  2023-11-01 13:41:52.878705
1282  2023-11-01 13:41:52.925571
1283  2023-11-01 13:41:52.957457
1284  2023-11-01 13:41:53.005422
1285  2023-11-01 13:41:53.036335
1286  2023-11-01 13:41:53.083249
1287  2023-11-01 13:41:53.131268
1288  2023-11-01 13:41:53.162185
1289  2023-11-01 13:41:53.209093
1290  2023-11-01 13:41:53.256932
1291  2023-11-01 13:41:53.288846
1292  2023-11-01 13:41:53.335757
1293  2023-11-01 13:41:53.383593
1294  2023-11-01 13:41:53.415508
1295  2023-11-01 13:41:53.463431
1296  2023-11-01 13:41:53.495295
1297  2023-11-01 13:41:53.544203
1298  2023-11-01 13:41:53.591039
1299  2023-11-01 13:41:53.622954
1300  2023-11-01 13:41:53.670866
1301  2023-11-01 13:41:53.717706
1302  2023-11-01 13:41:53.749615
1303  2023-11-01 13:41:53.797553
1304  2023-11-01 13:41:53.829435
1305  2023-11-01 13:41:53.877274
1306  2023-11-01 13:41:53.925252
1307  2023-11-01 13:41:53.956210
1308  2023-11-01 13:41:54.003044
1309  2023-11-01 13:41:54.050967
1310  2023-11-01 13:41:54.082864
1311  2023-11-01 13:41:54.130703
1312  2023-11-01 13:41:54.162623
1313  2023-11-01 13:41:54.210518
1314  2023-11-01 13:41:54.258459
1315  2023-11-01 13:41:54.290338
1316  2023-11-01 13:41:54.338326
1317  2023-11-01 13:41:54.370233
1318  2023-11-01 13:41:54.418101
1319  2023-11-01 13:41:54.465974
1320  2023-11-01 13:41:54.496894
1321  2023-11-01 13:41:54.544741
1322  2023-11-01 13:41:54.592681
1323  2023-11-01 13:41:54.624609
1324  2023-11-01 13:41:54.672472
1325  2023-11-01 13:41:54.703402
1326  2023-11-01 13:41:54.750262
1327  2023-11-01 13:41:54.797151
1328  2023-11-01 13:41:54.829053
1329  2023-11-01 13:41:54.875957
1330  2023-11-01 13:41:54.922910
1331  2023-11-01 13:41:54.954683
1332  2023-11-01 13:41:55.001589
1333  2023-11-01 13:41:55.049430
1334  2023-11-01 13:41:55.081376
1335  2023-11-01 13:41:55.129216
1336  2023-11-01 13:41:55.162130
1337  2023-11-01 13:41:55.209038
1338  2023-11-01 13:41:55.257201
1339  2023-11-01 13:41:55.289153
1340  2023-11-01 13:41:55.336066
1341  2023-11-01 13:41:55.382903
1342  2023-11-01 13:41:55.413820
1343  2023-11-01 13:41:55.460695
1344  2023-11-01 13:41:55.508654
1345  2023-11-01 13:41:55.540614
1346  2023-11-01 13:41:55.588506
1347  2023-11-01 13:41:55.620570
1348  2023-11-01 13:41:55.666464
1349  2023-11-01 13:41:55.713337
1350  2023-11-01 13:41:55.744245
1351  2023-11-01 13:41:55.792079
1352  2023-11-01 13:41:55.838017
1353  2023-11-01 13:41:55.869921
1354  2023-11-01 13:41:55.917804
1355  2023-11-01 13:41:55.965658
1356  2023-11-01 13:41:55.997577
1357  2023-11-01 13:41:56.044406
1358  2023-11-01 13:41:56.092310
1359  2023-11-01 13:41:56.122197
1360  2023-11-01 13:41:56.168113
1361  2023-11-01 13:41:56.215950
1362  2023-11-01 13:41:56.247861
1363  2023-11-01 13:41:56.295926
1364  2023-11-01 13:41:56.327752
1365  2023-11-01 13:41:56.375658
1366  2023-11-01 13:41:56.423496
1367  2023-11-01 13:41:56.455505
1368  2023-11-01 13:41:56.503384
1369  2023-11-01 13:41:56.551255
1370  2023-11-01 13:41:56.583169
1371  2023-11-01 13:41:56.631043
1372  2023-11-01 13:41:56.660961
1373  2023-11-01 13:41:56.708866
1374  2023-11-01 13:41:56.756705
1375  2023-11-01 13:41:56.788699
1376  2023-11-01 13:41:56.836607
1377  2023-11-01 13:41:56.884479
1378  2023-11-01 13:41:56.916394
1379  2023-11-01 13:41:56.965265
1380  2023-11-01 13:41:56.996180
1381  2023-11-01 13:41:57.044052
1382  2023-11-01 13:41:57.092002
1383  2023-11-01 13:41:57.123917
1384  2023-11-01 13:41:57.171324
1385  2023-11-01 13:41:57.203294
1386  2023-11-01 13:41:57.251143
1387  2023-11-01 13:41:57.298027
1388  2023-11-01 13:41:57.329948
1389  2023-11-01 13:41:57.377874
1390  2023-11-01 13:41:57.423771
1391  2023-11-01 13:41:57.455695
1392  2023-11-01 13:41:57.503554
1393  2023-11-01 13:41:57.550436
1394  2023-11-01 13:41:57.581307
1395  2023-11-01 13:41:57.628194
1396  2023-11-01 13:41:57.676078
1397  2023-11-01 13:41:57.707980
1398  2023-11-01 13:41:57.754819
1399  2023-11-01 13:41:57.786734
1400  2023-11-01 13:41:57.834825
1401  2023-11-01 13:41:57.881513
1402  2023-11-01 13:41:57.913428
1403  2023-11-01 13:41:57.961268
1404  2023-11-01 13:41:58.009239
1405  2023-11-01 13:41:58.041091
1406  2023-11-01 13:41:58.088927
1407  2023-11-01 13:41:58.120841
1408  2023-11-01 13:41:58.168756
1409  2023-11-01 13:41:58.216709
1410  2023-11-01 13:41:58.248623
1411  2023-11-01 13:41:58.296496
1412  2023-11-01 13:41:58.327413
1413  2023-11-01 13:41:58.374288
1414  2023-11-01 13:41:58.422160
1415  2023-11-01 13:41:58.454074
1416  2023-11-01 13:41:58.501947
1417  2023-11-01 13:41:58.549921
1418  2023-11-01 13:41:58.581952
1419  2023-11-01 13:41:58.629916
1420  2023-11-01 13:41:58.660968
1421  2023-11-01 13:41:58.707853
1422  2023-11-01 13:41:58.755706
1423  2023-11-01 13:41:58.787626
1424  2023-11-01 13:41:58.835528
1425  2023-11-01 13:41:58.883400
1426  2023-11-01 13:41:58.915314
1427  2023-11-01 13:41:58.963186
1428  2023-11-01 13:41:58.994104
1429  2023-11-01 13:41:59.041015
1430  2023-11-01 13:41:59.088883
1431  2023-11-01 13:41:59.120799
1432  2023-11-01 13:41:59.166694
1433  2023-11-01 13:41:59.214562
1434  2023-11-01 13:41:59.245524
1435  2023-11-01 13:41:59.292444
1436  2023-11-01 13:41:59.340264
1437  2023-11-01 13:41:59.372221
1438  2023-11-01 13:41:59.420050
1439  2023-11-01 13:41:59.468921
1440  2023-11-01 13:41:59.500900
1441  2023-11-01 13:41:59.547746
1442  2023-11-01 13:41:59.579647
1443  2023-11-01 13:41:59.627526
1444  2023-11-01 13:41:59.675398
1445  2023-11-01 13:41:59.707314
1446  2023-11-01 13:41:59.753254
1447  2023-11-01 13:41:59.801163
1448  2023-11-01 13:41:59.833075
1449  2023-11-01 13:41:59.880920
1450  2023-11-01 13:41:59.912957
1451  2023-11-01 13:41:59.960785
1452  2023-11-01 13:42:00.007707
1453  2023-11-01 13:42:00.039616
1454  2023-11-01 13:42:00.087446
1455  2023-11-01 13:42:00.119361
1456  2023-11-01 13:42:00.167234
1457  2023-11-01 13:42:00.213110
1458  2023-11-01 13:42:00.245025
1459  2023-11-01 13:42:00.291900
1460  2023-11-01 13:42:00.339772
1461  2023-11-01 13:42:00.371836
1462  2023-11-01 13:42:00.419590
1463  2023-11-01 13:42:00.467431
1464  2023-11-01 13:42:00.499346
1465  2023-11-01 13:42:00.547249
1466  2023-11-01 13:42:00.579164
1467  2023-11-01 13:42:00.627004
1468  2023-11-01 13:42:00.674877
1469  2023-11-01 13:42:00.706824
1470  2023-11-01 13:42:00.754663
1471  2023-11-01 13:42:00.786608
1472  2023-11-01 13:42:00.834450
1473  2023-11-01 13:42:00.882353
1474  2023-11-01 13:42:00.914237
1475  2023-11-01 13:42:00.962109
1476  2023-11-01 13:42:00.994032
1477  2023-11-01 13:42:01.041863
1478  2023-11-01 13:42:01.089736
1479  2023-11-01 13:42:01.121747
1480  2023-11-01 13:42:01.169811
1481  2023-11-01 13:42:01.216932
1482  2023-11-01 13:42:01.247827
1483  2023-11-01 13:42:01.295706
1484  2023-11-01 13:42:01.327605
1485  2023-11-01 13:42:01.374489
1486  2023-11-01 13:42:01.421324
1487  2023-11-01 13:42:01.453274
1488  2023-11-01 13:42:01.501163
1489  2023-11-01 13:42:01.549017
1490  2023-11-01 13:42:01.580899
1491  2023-11-01 13:42:01.628769
1492  2023-11-01 13:42:01.660684
1493  2023-11-01 13:42:01.708647
1494  2023-11-01 13:42:01.756568
1495  2023-11-01 13:42:01.788576
1496  2023-11-01 13:42:01.836462
1497  2023-11-01 13:42:01.884330
1498  2023-11-01 13:42:01.916263
1499  2023-11-01 13:42:01.964111
1500  2023-11-01 13:42:02.008989
1501  2023-11-01 13:42:02.039919
1502  2023-11-01 13:42:02.087745
1503  2023-11-01 13:42:02.119659
1504  2023-11-01 13:42:02.167574
1505  2023-11-01 13:42:02.215502
1506  2023-11-01 13:42:02.247453
1507  2023-11-01 13:42:02.295325
1508  2023-11-01 13:42:02.342232
1509  2023-11-01 13:42:02.374152
1510  2023-11-01 13:42:02.421986
1511  2023-11-01 13:42:02.453901
1512  2023-11-01 13:42:02.501773
1513  2023-11-01 13:42:02.548648
1514  2023-11-01 13:42:02.579675
1515  2023-11-01 13:42:02.627600
1516  2023-11-01 13:42:02.675472
1517  2023-11-01 13:42:02.707387
1518  2023-11-01 13:42:02.755360
1519  2023-11-01 13:42:02.787284
1520  2023-11-01 13:42:02.834119
1521  2023-11-01 13:42:02.881027
1522  2023-11-01 13:42:02.911945
1523  2023-11-01 13:42:02.959804
1524  2023-11-01 13:42:03.007782
1525  2023-11-01 13:42:03.039853
1526  2023-11-01 13:42:03.087911
1527  2023-11-01 13:42:03.119791
1528  2023-11-01 13:42:03.167749
1529  2023-11-01 13:42:03.215621
1530  2023-11-01 13:42:03.247519
1531  2023-11-01 13:42:03.294395
1532  2023-11-01 13:42:03.341276
1533  2023-11-01 13:42:03.373185
1534  2023-11-01 13:42:03.420028
1535  2023-11-01 13:42:03.466967
1536  2023-11-01 13:42:03.498979
1537  2023-11-01 13:42:03.545869
1538  2023-11-01 13:42:03.591811
1539  2023-11-01 13:42:03.623725
1540  2023-11-01 13:42:03.671789
1541  2023-11-01 13:42:03.703547
1542  2023-11-01 13:42:03.751384
1543  2023-11-01 13:42:03.798266
1544  2023-11-01 13:42:03.830174
1545  2023-11-01 13:42:03.877084
1546  2023-11-01 13:42:03.923923
1547  2023-11-01 13:42:03.955811
1548  2023-11-01 13:42:04.003734
1549  2023-11-01 13:42:04.050652
1550  2023-11-01 13:42:04.081574
1551  2023-11-01 13:42:04.129431
1552  2023-11-01 13:42:04.161346
1553  2023-11-01 13:42:04.209148
1554  2023-11-01 13:42:04.257115
1555  2023-11-01 13:42:04.289029
1556  2023-11-01 13:42:04.336934
1557  2023-11-01 13:42:04.383803
1558  2023-11-01 13:42:04.415804
1559  2023-11-01 13:42:04.461634
1560  2023-11-01 13:42:04.509550
1561  2023-11-01 13:42:04.541566
1562  2023-11-01 13:42:04.589293
1563  2023-11-01 13:42:04.621240
1564  2023-11-01 13:42:04.669113
1565  2023-11-01 13:42:04.716996
1566  2023-11-01 13:42:04.748900
1567  2023-11-01 13:42:04.796778
1568  2023-11-01 13:42:04.828700
1569  2023-11-01 13:42:04.876566
1570  2023-11-01 13:42:04.924432
1571  2023-11-01 13:42:04.956444
1572  2023-11-01 13:42:05.004384
1573  2023-11-01 13:42:05.036277
1574  2023-11-01 13:42:05.084142
1575  2023-11-01 13:42:05.132015
1576  2023-11-01 13:42:05.163928
1577  2023-11-01 13:42:05.211801
1578  2023-11-01 13:42:05.257705
1579  2023-11-01 13:42:05.289606
1580  2023-11-01 13:42:05.337469
1581  2023-11-01 13:42:05.385322
1582  2023-11-01 13:42:05.417238
1583  2023-11-01 13:42:05.464082
1584  2023-11-01 13:42:05.495993
1585  2023-11-01 13:42:05.541903
1586  2023-11-01 13:42:05.589743
1587  2023-11-01 13:42:05.619758
1588  2023-11-01 13:42:05.667666
1589  2023-11-01 13:42:05.715539
1590  2023-11-01 13:42:05.747453
1591  2023-11-01 13:42:05.795458
1592  2023-11-01 13:42:05.827511
1593  2023-11-01 13:42:05.875243
1594  2023-11-01 13:42:05.921153
1595  2023-11-01 13:42:05.953076
1596  2023-11-01 13:42:05.999942
1597  2023-11-01 13:42:06.047833
1598  2023-11-01 13:42:06.079812
1599  2023-11-01 13:42:06.127601
1600  2023-11-01 13:42:06.175492
1601  2023-11-01 13:42:06.207387
1602  2023-11-01 13:42:06.253284
1603  2023-11-01 13:42:06.301106
1604  2023-11-01 13:42:06.333020
1605  2023-11-01 13:42:06.380926
1606  2023-11-01 13:42:06.412841
1607  2023-11-01 13:42:06.460709
1608  2023-11-01 13:42:06.507594
1609  2023-11-01 13:42:06.538525
1610  2023-11-01 13:42:06.586389
1611  2023-11-01 13:42:06.634262
1612  2023-11-01 13:42:06.667172
1613  2023-11-01 13:42:06.715046
1614  2023-11-01 13:42:06.744952
1615  2023-11-01 13:42:06.792946
1616  2023-11-01 13:42:06.840688
1617  2023-11-01 13:42:06.872650
1618  2023-11-01 13:42:06.920496
1619  2023-11-01 13:42:06.952398
1620  2023-11-01 13:42:07.000263
1621  2023-11-01 13:42:07.048356
1622  2023-11-01 13:42:07.080270
1623  2023-11-01 13:42:07.128126
1624  2023-11-01 13:42:07.174005
1625  2023-11-01 13:42:07.205887
1626  2023-11-01 13:42:07.253759
1627  2023-11-01 13:42:07.285696
1628  2023-11-01 13:42:07.333635
1629  2023-11-01 13:42:07.381506
1630  2023-11-01 13:42:07.413421
1631  2023-11-01 13:42:07.461293
1632  2023-11-01 13:42:07.509165
1633  2023-11-01 13:42:07.541127
1634  2023-11-01 13:42:07.588952
1635  2023-11-01 13:42:07.620866
1636  2023-11-01 13:42:07.666874
1637  2023-11-01 13:42:07.714746
1638  2023-11-01 13:42:07.746692
1639  2023-11-01 13:42:07.793574
1640  2023-11-01 13:42:07.839501
1641  2023-11-01 13:42:07.871417
1642  2023-11-01 13:42:07.919276
1643  2023-11-01 13:42:07.966161
1644  2023-11-01 13:42:07.997080
1645  2023-11-01 13:42:08.044943
1646  2023-11-01 13:42:08.092774
1647  2023-11-01 13:42:08.124722
1648  2023-11-01 13:42:08.172605
1649  2023-11-01 13:42:08.204513
1650  2023-11-01 13:42:08.252348
1651  2023-11-01 13:42:08.300252
1652  2023-11-01 13:42:08.332181
1653  2023-11-01 13:42:08.380156
1654  2023-11-01 13:42:08.412104
1655  2023-11-01 13:42:08.459941
1656  2023-11-01 13:42:08.507841
1657  2023-11-01 13:42:08.539764
1658  2023-11-01 13:42:08.587642
1659  2023-11-01 13:42:08.619457
1660  2023-11-01 13:42:08.667376
1661  2023-11-01 13:42:08.715235
1662  2023-11-01 13:42:08.747171
1663  2023-11-01 13:42:08.794030
1664  2023-11-01 13:42:08.841911
1665  2023-11-01 13:42:08.873809
1666  2023-11-01 13:42:08.921681
1667  2023-11-01 13:42:08.953608
1668  2023-11-01 13:42:09.002573
1669  2023-11-01 13:42:09.049544
1670  2023-11-01 13:42:09.081559
1671  2023-11-01 13:42:09.128419
1672  2023-11-01 13:42:09.176294
1673  2023-11-01 13:42:09.208247
1674  2023-11-01 13:42:09.256084
1675  2023-11-01 13:42:09.287995
1676  2023-11-01 13:42:09.336001
1677  2023-11-01 13:42:09.383902
1678  2023-11-01 13:42:09.415812
1679  2023-11-01 13:42:09.463721
1680  2023-11-01 13:42:09.494573
1681  2023-11-01 13:42:09.541558
1682  2023-11-01 13:42:09.588482
1683  2023-11-01 13:42:09.620504
1684  2023-11-01 13:42:09.668376
1685  2023-11-01 13:42:09.716299
1686  2023-11-01 13:42:09.747268
1687  2023-11-01 13:42:09.794143
1688  2023-11-01 13:42:09.842066
1689  2023-11-01 13:42:09.873930
1690  2023-11-01 13:42:09.922089
1691  2023-11-01 13:42:09.953839
1692  2023-11-01 13:42:10.001679
1693  2023-11-01 13:42:10.049596
1694  2023-11-01 13:42:10.081503
1695  2023-11-01 13:42:10.129338
1696  2023-11-01 13:42:10.161253
1697  2023-11-01 13:42:10.207415
1698  2023-11-01 13:42:10.255245
1699  2023-11-01 13:42:10.287206
1700  2023-11-01 13:42:10.335032
1701  2023-11-01 13:42:10.381955
1702  2023-11-01 13:42:10.412875
1703  2023-11-01 13:42:10.460727
1704  2023-11-01 13:42:10.508601
1705  2023-11-01 13:42:10.539520
1706  2023-11-01 13:42:10.586485
1707  2023-11-01 13:42:10.634362
1708  2023-11-01 13:42:10.664316
1709  2023-11-01 13:42:10.713246
1710  2023-11-01 13:42:10.759104
1711  2023-11-01 13:42:10.791018
1712  2023-11-01 13:42:10.839877
1713  2023-11-01 13:42:10.870763
1714  2023-11-01 13:42:10.918640
1715  2023-11-01 13:42:10.965650
1716  2023-11-01 13:42:10.995583
1717  2023-11-01 13:42:11.042477
1718  2023-11-01 13:42:11.090364
1719  2023-11-01 13:42:11.121287
1720  2023-11-01 13:42:11.168209
1721  2023-11-01 13:42:11.216156
1722  2023-11-01 13:42:11.248083
1723  2023-11-01 13:42:11.293918
1724  2023-11-01 13:42:11.341839
1725  2023-11-01 13:42:11.373737
1726  2023-11-01 13:42:11.421623
1727  2023-11-01 13:42:11.453492
1728  2023-11-01 13:42:11.501394
1729  2023-11-01 13:42:11.549271
1730  2023-11-01 13:42:11.581153
1731  2023-11-01 13:42:11.627076
1732  2023-11-01 13:42:11.674950
1733  2023-11-01 13:42:11.706829
1734  2023-11-01 13:42:11.752742
1735  2023-11-01 13:42:11.800734
1736  2023-11-01 13:42:11.832609
1737  2023-11-01 13:42:11.880507
1738  2023-11-01 13:42:11.913425
1739  2023-11-01 13:42:11.960265
1740  2023-11-01 13:42:12.008188
1741  2023-11-01 13:42:12.040068
1742  2023-11-01 13:42:12.087974
1743  2023-11-01 13:42:12.119870
1744  2023-11-01 13:42:12.167715
1745  2023-11-01 13:42:12.216658
1746  2023-11-01 13:42:12.247498
1747  2023-11-01 13:42:12.296404
1748  2023-11-01 13:42:12.327331
1749  2023-11-01 13:42:12.376288
1750  2023-11-01 13:42:12.424205
1751  2023-11-01 13:42:12.456102
1752  2023-11-01 13:42:12.504000
1753  2023-11-01 13:42:12.551861
1754  2023-11-01 13:42:12.582763
1755  2023-11-01 13:42:12.630656
1756  2023-11-01 13:42:12.662569
1757  2023-11-01 13:42:12.710441
1758  2023-11-01 13:42:12.756269
1759  2023-11-01 13:42:12.787187
1760  2023-11-01 13:42:12.835059
1761  2023-11-01 13:42:12.880971
1762  2023-11-01 13:42:12.912898
1763  2023-11-01 13:42:12.960723
1764  2023-11-01 13:42:13.008671
1765  2023-11-01 13:42:13.040510
1766  2023-11-01 13:42:13.088500
1767  2023-11-01 13:42:13.120437
1768  2023-11-01 13:42:13.166260
1769  2023-11-01 13:42:13.214180
1770  2023-11-01 13:42:13.246078
1771  2023-11-01 13:42:13.294043
1772  2023-11-01 13:42:13.341844
1773  2023-11-01 13:42:13.373735
1774  2023-11-01 13:42:13.421626
1775  2023-11-01 13:42:13.452553
1776  2023-11-01 13:42:13.498609
1777  2023-11-01 13:42:13.545491
1778  2023-11-01 13:42:13.578370
1779  2023-11-01 13:42:13.625286
1780  2023-11-01 13:42:13.674170
1781  2023-11-01 13:42:13.705075
1782  2023-11-01 13:42:13.753098
1783  2023-11-01 13:42:13.800957
1784  2023-11-01 13:42:13.832839
1785  2023-11-01 13:42:13.880761
1786  2023-11-01 13:42:13.911666
1787  2023-11-01 13:42:13.958566
1788  2023-11-01 13:42:14.007372
1789  2023-11-01 13:42:14.039338
1790  2023-11-01 13:42:14.086197
1791  2023-11-01 13:42:14.134074
1792  2023-11-01 13:42:14.166091
1793  2023-11-01 13:42:14.213972
1794  2023-11-01 13:42:14.245874
1795  2023-11-01 13:42:14.293746
1796  2023-11-01 13:42:14.339592
1797  2023-11-01 13:42:14.371324
1798  2023-11-01 13:42:14.419196
1799  2023-11-01 13:42:14.467068
1800  2023-11-01 13:42:14.498983
1801  2023-11-01 13:42:14.546855
1802  2023-11-01 13:42:14.578770
1803  2023-11-01 13:42:14.626641
1804  2023-11-01 13:42:14.674514
1805  2023-11-01 13:42:14.706428
1806  2023-11-01 13:42:14.754345
1807  2023-11-01 13:42:14.801175
1808  2023-11-01 13:42:14.832092
1809  2023-11-01 13:42:14.879019
1810  2023-11-01 13:42:14.910935
1811  2023-11-01 13:42:14.958754
1812  2023-11-01 13:42:15.006674
1813  2023-11-01 13:42:15.038579
1814  2023-11-01 13:42:15.086444
1815  2023-11-01 13:42:15.134285
1816  2023-11-01 13:42:15.166200
1817  2023-11-01 13:42:15.214141
1818  2023-11-01 13:42:15.246056
1819  2023-11-01 13:42:15.294003
1820  2023-11-01 13:42:15.341921
1821  2023-11-01 13:42:15.374037
1822  2023-11-01 13:42:15.421661
1823  2023-11-01 13:42:15.453617
1824  2023-11-01 13:42:15.501479
1825  2023-11-01 13:42:15.549353
1826  2023-11-01 13:42:15.581339
1827  2023-11-01 13:42:15.629258
1828  2023-11-01 13:42:15.661162
1829  2023-11-01 13:42:15.709054
1830  2023-11-01 13:42:15.756910
1831  2023-11-01 13:42:15.788952
1832  2023-11-01 13:42:15.836804
1833  2023-11-01 13:42:15.883641
1834  2023-11-01 13:42:15.914608
1835  2023-11-01 13:42:15.961464
1836  2023-11-01 13:42:16.009360
1837  2023-11-01 13:42:16.042282
1838  2023-11-01 13:42:16.089124
1839  2023-11-01 13:42:16.121036
1840  2023-11-01 13:42:16.168908
1841  2023-11-01 13:42:16.216779
1842  2023-11-01 13:42:16.248662
1843  2023-11-01 13:42:16.296567
1844  2023-11-01 13:42:16.328495
1845  2023-11-01 13:42:16.376369
1846  2023-11-01 13:42:16.424243
1847  2023-11-01 13:42:16.456280
1848  2023-11-01 13:42:16.504116
1849  2023-11-01 13:42:16.537027
1850  2023-11-01 13:42:16.584042
1851  2023-11-01 13:42:16.631889
1852  2023-11-01 13:42:16.663830
1853  2023-11-01 13:42:16.711825
1854  2023-11-01 13:42:16.758801
1855  2023-11-01 13:42:16.789740
1856  2023-11-01 13:42:16.837552
1857  2023-11-01 13:42:16.869473
1858  2023-11-01 13:42:16.917380
1859  2023-11-01 13:42:16.965261
1860  2023-11-01 13:42:16.997176
1861  2023-11-01 13:42:17.045043
1862  2023-11-01 13:42:17.093103
1863  2023-11-01 13:42:17.122974
1864  2023-11-01 13:42:17.168851
1865  2023-11-01 13:42:17.215776
1866  2023-11-01 13:42:17.247693
1867  2023-11-01 13:42:17.295707
1868  2023-11-01 13:42:17.327674
1869  2023-11-01 13:42:17.375640
1870  2023-11-01 13:42:17.423810
1871  2023-11-01 13:42:17.455486
1872  2023-11-01 13:42:17.501392
1873  2023-11-01 13:42:17.548347
1874  2023-11-01 13:42:17.579258
1875  2023-11-01 13:42:17.627134
1876  2023-11-01 13:42:17.674031
1877  2023-11-01 13:42:17.704907
1878  2023-11-01 13:42:17.751798
1879  2023-11-01 13:42:17.798659
1880  2023-11-01 13:42:17.830590
1881  2023-11-01 13:42:17.876528
1882  2023-11-01 13:42:17.922375
1883  2023-11-01 13:42:17.954321
1884  2023-11-01 13:42:18.002162
1885  2023-11-01 13:42:18.050191
1886  2023-11-01 13:42:18.082132
1887  2023-11-01 13:42:18.130003
1888  2023-11-01 13:42:18.161920
1889  2023-11-01 13:42:18.207923
1890  2023-11-01 13:42:18.255832
1891  2023-11-01 13:42:18.287793
1892  2023-11-01 13:42:18.335804
1893  2023-11-01 13:42:18.383706
1894  2023-11-01 13:42:18.415655
1895  2023-11-01 13:42:18.463462
1896  2023-11-01 13:42:18.495377
1897  2023-11-01 13:42:18.543357
1898  2023-11-01 13:42:18.590330
1899  2023-11-01 13:42:18.621294
1900  2023-11-01 13:42:18.669119
1901  2023-11-01 13:42:18.717041
1902  2023-11-01 13:42:18.748949
1903  2023-11-01 13:42:18.795781
1904  2023-11-01 13:42:18.841708
1905  2023-11-01 13:42:18.873618
1906  2023-11-01 13:42:18.920480
1907  2023-11-01 13:42:18.952399
1908  2023-11-01 13:42:19.000277
1909  2023-11-01 13:42:19.048159
1910  2023-11-01 13:42:19.079053
1911  2023-11-01 13:42:19.126931
1912  2023-11-01 13:42:19.174813
1913  2023-11-01 13:42:19.206771
1914  2023-11-01 13:42:19.254694
1915  2023-11-01 13:42:19.286568
1916  2023-11-01 13:42:19.332447
1917  2023-11-01 13:42:19.378492
1918  2023-11-01 13:42:19.425418
1919  2023-11-01 13:42:19.456342
1920  2023-11-01 13:42:19.502279
1921  2023-11-01 13:42:19.548219
1922  2023-11-01 13:42:19.580109
1923  2023-11-01 13:42:19.627978
1924  2023-11-01 13:42:19.675861
1925  2023-11-01 13:42:19.707803
1926  2023-11-01 13:42:19.755695
1927  2023-11-01 13:42:19.787620
1928  2023-11-01 13:42:19.835513
1929  2023-11-01 13:42:19.883447
1930  2023-11-01 13:42:19.915362
1931  2023-11-01 13:42:19.963381
1932  2023-11-01 13:42:19.995287
1933  2023-11-01 13:42:20.044110
1934  2023-11-01 13:42:20.091043
1935  2023-11-01 13:42:20.122927
1936  2023-11-01 13:42:20.170831
1937  2023-11-01 13:42:20.202836
1938  2023-11-01 13:42:20.250685
1939  2023-11-01 13:42:20.298558
1940  2023-11-01 13:42:20.329471
1941  2023-11-01 13:42:20.376376
1942  2023-11-01 13:42:20.424221
1943  2023-11-01 13:42:20.456142
1944  2023-11-01 13:42:20.504058
1945  2023-11-01 13:42:20.536967
1946  2023-11-01 13:42:20.583889
1947  2023-11-01 13:42:20.631746
1948  2023-11-01 13:42:20.663661
1949  2023-11-01 13:42:20.711502
1950  2023-11-01 13:42:20.759406
1951  2023-11-01 13:42:20.791319
1952  2023-11-01 13:42:20.839160
1953  2023-11-01 13:42:20.871078
1954  2023-11-01 13:42:20.918995
1955  2023-11-01 13:42:20.966852
1956  2023-11-01 13:42:20.998736
1957  2023-11-01 13:42:21.046636
1958  2023-11-01 13:42:21.078521
1959  2023-11-01 13:42:21.126424
1960  2023-11-01 13:42:21.174309
1961  2023-11-01 13:42:21.206185
1962  2023-11-01 13:42:21.254097
1963  2023-11-01 13:42:21.286001
1964  2023-11-01 13:42:21.333935
1965  2023-11-01 13:42:21.381932
1966  2023-11-01 13:42:21.413849
1967  2023-11-01 13:42:21.461709
1968  2023-11-01 13:42:21.509583
1969  2023-11-01 13:42:21.541467
1970  2023-11-01 13:42:21.589369
1971  2023-11-01 13:42:21.621171
1972  2023-11-01 13:42:21.669164
1973  2023-11-01 13:42:21.717076
1974  2023-11-01 13:42:21.749025
1975  2023-11-01 13:42:21.797866
1976  2023-11-01 13:42:21.828811
1977  2023-11-01 13:42:21.875651
1978  2023-11-01 13:42:21.923565
1979  2023-11-01 13:42:21.955483
1980  2023-11-01 13:42:22.003487
1981  2023-11-01 13:42:22.051329
1982  2023-11-01 13:42:22.083354
1983  2023-11-01 13:42:22.128208
1984  2023-11-01 13:42:22.176190
1985  2023-11-01 13:42:22.208105
1986  2023-11-01 13:42:22.256011
1987  2023-11-01 13:42:22.287924
1988  2023-11-01 13:42:22.335763
1989  2023-11-01 13:42:22.383749
1990  2023-11-01 13:42:22.415673
1991  2023-11-01 13:42:22.462494
1992  2023-11-01 13:42:22.509416
1993  2023-11-01 13:42:22.541334
1994  2023-11-01 13:42:22.589293
1995  2023-11-01 13:42:22.621118
1996  2023-11-01 13:42:22.667945
1997  2023-11-01 13:42:22.714852
1998  2023-11-01 13:42:22.746892
1999  2023-11-01 13:42:22.794713
2000  2023-11-01 13:42:22.842698
2001  2023-11-01 13:42:22.874630
2002  2023-11-01 13:42:22.922481
2003  2023-11-01 13:42:22.953366
2004  2023-11-01 13:42:23.001285
2005  2023-11-01 13:42:23.049164
2006  2023-11-01 13:42:23.081059
2007  2023-11-01 13:42:23.128932
2008  2023-11-01 13:42:23.160846
2009  2023-11-01 13:42:23.208734
2010  2023-11-01 13:42:23.256601
2011  2023-11-01 13:42:23.288503
2012  2023-11-01 13:42:23.336344
2013  2023-11-01 13:42:23.384214
2014  2023-11-01 13:42:23.416174
2015  2023-11-01 13:42:23.464060
2016  2023-11-01 13:42:23.495947
2017  2023-11-01 13:42:23.543789
2018  2023-11-01 13:42:23.591660
2019  2023-11-01 13:42:23.622703
2020  2023-11-01 13:42:23.669486
2021  2023-11-01 13:42:23.717351
2022  2023-11-01 13:42:23.749277
2023  2023-11-01 13:42:23.797205
2024  2023-11-01 13:42:23.829088
2025  2023-11-01 13:42:23.876938
2026  2023-11-01 13:42:23.924803
2027  2023-11-01 13:42:23.956698
2028  2023-11-01 13:42:24.004571
2029  2023-11-01 13:42:24.050511
2030  2023-11-01 13:42:24.082427
2031  2023-11-01 13:42:24.130316
2032  2023-11-01 13:42:24.162213
2033  2023-11-01 13:42:24.210100
2034  2023-11-01 13:42:24.257954
2035  2023-11-01 13:42:24.289871
2036  2023-11-01 13:42:24.337757
2037  2023-11-01 13:42:24.369671
2038  2023-11-01 13:42:24.418545
2039  2023-11-01 13:42:24.466413
2040  2023-11-01 13:42:24.498329
2041  2023-11-01 13:42:24.546187
2042  2023-11-01 13:42:24.591068
2043  2023-11-01 13:42:24.622982
2044  2023-11-01 13:42:24.670822
2045  2023-11-01 13:42:24.702737
2046  2023-11-01 13:42:24.750643
2047  2023-11-01 13:42:24.798481
2048  2023-11-01 13:42:24.830395
2049  2023-11-01 13:42:24.877319
2050  2023-11-01 13:42:24.925296
2051  2023-11-01 13:42:24.957094
2052  2023-11-01 13:42:25.002975
2053  2023-11-01 13:42:25.049846
2054  2023-11-01 13:42:25.081825
2055  2023-11-01 13:42:25.129733
2056  2023-11-01 13:42:25.161770
2057  2023-11-01 13:42:25.208766
2058  2023-11-01 13:42:25.254627
2059  2023-11-01 13:42:25.300473
2060  2023-11-01 13:42:25.332389
2061  2023-11-01 13:42:25.380260
2062  2023-11-01 13:42:25.412236
2063  2023-11-01 13:42:25.460082
2064  2023-11-01 13:42:25.507919
2065  2023-11-01 13:42:25.539932
2066  2023-11-01 13:42:25.587836
2067  2023-11-01 13:42:25.619767
2068  2023-11-01 13:42:25.667638
2069  2023-11-01 13:42:25.715508
2070  2023-11-01 13:42:25.747378
2071  2023-11-01 13:42:25.795300
2072  2023-11-01 13:42:25.843209
2073  2023-11-01 13:42:25.872044
2074  2023-11-01 13:42:25.919941
2075  2023-11-01 13:42:25.966791
2076  2023-11-01 13:42:25.997709
2077  2023-11-01 13:42:26.044585
2078  2023-11-01 13:42:26.092455
2079  2023-11-01 13:42:26.124370
2080  2023-11-01 13:42:26.170280
2081  2023-11-01 13:42:26.217193
2082  2023-11-01 13:42:26.248079
2083  2023-11-01 13:42:26.295947
2084  2023-11-01 13:42:26.328022
2085  2023-11-01 13:42:26.375700
2086  2023-11-01 13:42:26.423607
2087  2023-11-01 13:42:26.455555
2088  2023-11-01 13:42:26.503412
2089  2023-11-01 13:42:26.550269
2090  2023-11-01 13:42:26.581183
2091  2023-11-01 13:42:26.629053
2092  2023-11-01 13:42:26.660970
2093  2023-11-01 13:42:26.708932
2094  2023-11-01 13:42:26.756712
2095  2023-11-01 13:42:26.788626
2096  2023-11-01 13:42:26.836525
2097  2023-11-01 13:42:26.884387
2098  2023-11-01 13:42:26.916287
2099  2023-11-01 13:42:26.965137
2100  2023-11-01 13:42:26.996074
2101  2023-11-01 13:42:27.043950
2102  2023-11-01 13:42:27.091817
2103  2023-11-01 13:42:27.123736
2104  2023-11-01 13:42:27.171572
2105  2023-11-01 13:42:27.203535
2106  2023-11-01 13:42:27.251390
2107  2023-11-01 13:42:27.299264
2108  2023-11-01 13:42:27.331235
2109  2023-11-01 13:42:27.379131
2110  2023-11-01 13:42:27.425012
2111  2023-11-01 13:42:27.456952
2112  2023-11-01 13:42:27.504798
2113  2023-11-01 13:42:27.536716
2114  2023-11-01 13:42:27.584787
2115  2023-11-01 13:42:27.632674
2116  2023-11-01 13:42:27.664576
2117  2023-11-01 13:42:27.713453
2118  2023-11-01 13:42:27.745360
2119  2023-11-01 13:42:27.793231
2120  2023-11-01 13:42:27.841104
2121  2023-11-01 13:42:27.873033
2122  2023-11-01 13:42:27.920860
2123  2023-11-01 13:42:27.968782
2124  2023-11-01 13:42:28.000677
2125  2023-11-01 13:42:28.047571
2126  2023-11-01 13:42:28.079467
2127  2023-11-01 13:42:28.127339
2128  2023-11-01 13:42:28.175179
2129  2023-11-01 13:42:28.207094
2130  2023-11-01 13:42:28.254997
2131  2023-11-01 13:42:28.285917
2132  2023-11-01 13:42:28.333755
2133  2023-11-01 13:42:28.381660
2134  2023-11-01 13:42:28.413574
2135  2023-11-01 13:42:28.461547
2136  2023-11-01 13:42:28.509419
2137  2023-11-01 13:42:28.541381
2138  2023-11-01 13:42:28.588244
2139  2023-11-01 13:42:28.619126
2140  2023-11-01 13:42:28.666998
2141  2023-11-01 13:42:28.714901
2142  2023-11-01 13:42:28.746818
2143  2023-11-01 13:42:28.793660
2144  2023-11-01 13:42:28.840572
2145  2023-11-01 13:42:28.872483
2146  2023-11-01 13:42:28.920323
2147  2023-11-01 13:42:28.967197
2148  2023-11-01 13:42:28.998259
2149  2023-11-01 13:42:29.045051
2150  2023-11-01 13:42:29.092894
2151  2023-11-01 13:42:29.124824
2152  2023-11-01 13:42:29.172759
2153  2023-11-01 13:42:29.205234
2154  2023-11-01 13:42:29.251274
2155  2023-11-01 13:42:29.299111
2156  2023-11-01 13:42:29.331067
2157  2023-11-01 13:42:29.378954
2158  2023-11-01 13:42:29.410838
2159  2023-11-01 13:42:29.458748
2160  2023-11-01 13:42:29.506582
2161  2023-11-01 13:42:29.538516
2162  2023-11-01 13:42:29.586374
2163  2023-11-01 13:42:29.632262
2164  2023-11-01 13:42:29.664162
2165  2023-11-01 13:42:29.712054
2166  2023-11-01 13:42:29.758920
2167  2023-11-01 13:42:29.790838
2168  2023-11-01 13:42:29.838663
2169  2023-11-01 13:42:29.870578
2170  2023-11-01 13:42:29.918481
2171  2023-11-01 13:42:29.966488
2172  2023-11-01 13:42:29.997406
2173  2023-11-01 13:42:30.044337
2174  2023-11-01 13:42:30.092153
2175  2023-11-01 13:42:30.123106
2176  2023-11-01 13:42:30.170976
2177  2023-11-01 13:42:30.202889
2178  2023-11-01 13:42:30.250794
2179  2023-11-01 13:42:30.298729
2180  2023-11-01 13:42:30.330644
2181  2023-11-01 13:42:30.378675
2182  2023-11-01 13:42:30.425398
2183  2023-11-01 13:42:30.457105
2184  2023-11-01 13:42:30.505010
2185  2023-11-01 13:42:30.536924
2186  2023-11-01 13:42:30.584764
2187  2023-11-01 13:42:30.632682
2188  2023-11-01 13:42:30.664551
2189  2023-11-01 13:42:30.712456
2190  2023-11-01 13:42:30.744385
2191  2023-11-01 13:42:30.792210
2192  2023-11-01 13:42:30.840086
2193  2023-11-01 13:42:30.872029
2194  2023-11-01 13:42:30.919871
2195  2023-11-01 13:42:30.967773
2196  2023-11-01 13:42:30.998631
2197  2023-11-01 13:42:31.046533
2198  2023-11-01 13:42:31.078437
2199  2023-11-01 13:42:31.126320
2200  2023-11-01 13:42:31.174238
2201  2023-11-01 13:42:31.206107
2202  2023-11-01 13:42:31.253979
2203  2023-11-01 13:42:31.285892
2204  2023-11-01 13:42:31.333764
2205  2023-11-01 13:42:31.381637
2206  2023-11-01 13:42:31.411559
2207  2023-11-01 13:42:31.457433
2208  2023-11-01 13:42:31.503313
2209  2023-11-01 13:42:31.551183
2210  2023-11-01 13:42:31.583099
2211  2023-11-01 13:42:31.630971
2212  2023-11-01 13:42:31.662889
2213  2023-11-01 13:42:31.711780
2214  2023-11-01 13:42:31.759625
2215  2023-11-01 13:42:31.791544
2216  2023-11-01 13:42:31.839413
2217  2023-11-01 13:42:31.871336
2218  2023-11-01 13:42:31.919239
2219  2023-11-01 13:42:31.966043
2220  2023-11-01 13:42:31.999014
2221  2023-11-01 13:42:32.044867
2222  2023-11-01 13:42:32.092740
2223  2023-11-01 13:42:32.123658
2224  2023-11-01 13:42:32.170542
2225  2023-11-01 13:42:32.202452
2226  2023-11-01 13:42:32.250284
2227  2023-11-01 13:42:32.297158
2228  2023-11-01 13:42:32.328076
2229  2023-11-01 13:42:32.376048
2230  2023-11-01 13:42:32.423888
2231  2023-11-01 13:42:32.453938
2232  2023-11-01 13:42:32.501842
2233  2023-11-01 13:42:32.549712
2234  2023-11-01 13:42:32.581626
2235  2023-11-01 13:42:32.629513
2236  2023-11-01 13:42:32.661425
2237  2023-11-01 13:42:32.709293
2238  2023-11-01 13:42:32.757158
2239  2023-11-01 13:42:32.789075
2240  2023-11-01 13:42:32.836981
2241  2023-11-01 13:42:32.883817
2242  2023-11-01 13:42:32.914739
2243  2023-11-01 13:42:32.962643
2244  2023-11-01 13:42:32.994522
2245  2023-11-01 13:42:33.042397
2246  2023-11-01 13:42:33.088407
2247  2023-11-01 13:42:33.120189
2248  2023-11-01 13:42:33.168027
2249  2023-11-01 13:42:33.215088
2250  2023-11-01 13:42:33.247000
2251  2023-11-01 13:42:33.294887
2252  2023-11-01 13:42:33.339755
2253  2023-11-01 13:42:33.371669
2254  2023-11-01 13:42:33.417642
2255  2023-11-01 13:42:33.465481
2256  2023-11-01 13:42:33.497396
2257  2023-11-01 13:42:33.545312
2258  2023-11-01 13:42:33.592142
2259  2023-11-01 13:42:33.624057
2260  2023-11-01 13:42:33.671964
2261  2023-11-01 13:42:33.703875
2262  2023-11-01 13:42:33.751716
2263  2023-11-01 13:42:33.799626
2264  2023-11-01 13:42:33.831544
2265  2023-11-01 13:42:33.879418
2266  2023-11-01 13:42:33.911329
2267  2023-11-01 13:42:33.959308
2268  2023-11-01 13:42:34.007067
2269  2023-11-01 13:42:34.038992
2270  2023-11-01 13:42:34.086820
2271  2023-11-01 13:42:34.133923
2272  2023-11-01 13:42:34.164947
2273  2023-11-01 13:42:34.212807
2274  2023-11-01 13:42:34.244720
2275  2023-11-01 13:42:34.292594
2276  2023-11-01 13:42:34.340466
2277  2023-11-01 13:42:34.372349
2278  2023-11-01 13:42:34.420256
2279  2023-11-01 13:42:34.467339
2280  2023-11-01 13:42:34.498046
2281  2023-11-01 13:42:34.545919
2282  2023-11-01 13:42:34.577879
2283  2023-11-01 13:42:34.624741
2284  2023-11-01 13:42:34.672614
2285  2023-11-01 13:42:34.704516
2286  2023-11-01 13:42:34.752384
2287  2023-11-01 13:42:34.799208
2288  2023-11-01 13:42:34.832170
2289  2023-11-01 13:42:34.879026
2290  2023-11-01 13:42:34.911956
2291  2023-11-01 13:42:34.956845
2292  2023-11-01 13:42:35.004788
2293  2023-11-01 13:42:35.036824
2294  2023-11-01 13:42:35.084768
2295  2023-11-01 13:42:35.130712
2296  2023-11-01 13:42:35.162626
2297  2023-11-01 13:42:35.210550
2298  2023-11-01 13:42:35.258423
2299  2023-11-01 13:42:35.290286
2300  2023-11-01 13:42:35.338262
2301  2023-11-01 13:42:35.384108
2302  2023-11-01 13:42:35.416122
2303  2023-11-01 13:42:35.463994
2304  2023-11-01 13:42:35.496016
2305  2023-11-01 13:42:35.544040
2306  2023-11-01 13:42:35.591879
2307  2023-11-01 13:42:35.623794
2308  2023-11-01 13:42:35.671698
2309  2023-11-01 13:42:35.703623
2310  2023-11-01 13:42:35.751453
2311  2023-11-01 13:42:35.799327
2312  2023-11-01 13:42:35.831259
2313  2023-11-01 13:42:35.879159
2314  2023-11-01 13:42:35.911027
2315  2023-11-01 13:42:35.958899
2316  2023-11-01 13:42:36.005986
2317  2023-11-01 13:42:36.036894
2318  2023-11-01 13:42:36.084764
2319  2023-11-01 13:42:36.132707
2320  2023-11-01 13:42:36.164622
2321  2023-11-01 13:42:36.212619
2322  2023-11-01 13:42:36.244521
2323  2023-11-01 13:42:36.292460
2324  2023-11-01 13:42:36.339304
2325  2023-11-01 13:42:36.370221
2326  2023-11-01 13:42:36.418179
2327  2023-11-01 13:42:36.464061
2328  2023-11-01 13:42:36.495986
2329  2023-11-01 13:42:36.543876
2330  2023-11-01 13:42:36.591856
2331  2023-11-01 13:42:36.621751
2332  2023-11-01 13:42:36.669623
2333  2023-11-01 13:42:36.715509
2334  2023-11-01 13:42:36.746418
2335  2023-11-01 13:42:36.794257
2336  2023-11-01 13:42:36.842233
2337  2023-11-01 13:42:36.874222
2338  2023-11-01 13:42:36.922108
2339  2023-11-01 13:42:36.954089
2340  2023-11-01 13:42:36.999985
2341  2023-11-01 13:42:37.045868
2342  2023-11-01 13:42:37.077783
2343  2023-11-01 13:42:37.125766
2344  2023-11-01 13:42:37.173699
2345  2023-11-01 13:42:37.205624
2346  2023-11-01 13:42:37.251501
2347  2023-11-01 13:42:37.299417
2348  2023-11-01 13:42:37.331377
2349  2023-11-01 13:42:37.379248
2350  2023-11-01 13:42:37.411176
2351  2023-11-01 13:42:37.457993
2352  2023-11-01 13:42:37.504985
2353  2023-11-01 13:42:37.535916
2354  2023-11-01 13:42:37.583782
2355  2023-11-01 13:42:37.630665
2356  2023-11-01 13:42:37.662577
2357  2023-11-01 13:42:37.710445
2358  2023-11-01 13:42:37.758307
2359  2023-11-01 13:42:37.790222
2360  2023-11-01 13:42:37.838093
2361  2023-11-01 13:42:37.869975
2362  2023-11-01 13:42:37.917960
2363  2023-11-01 13:42:37.966819
2364  2023-11-01 13:42:37.997739
2365  2023-11-01 13:42:38.047625
2366  2023-11-01 13:42:38.077523
2367  2023-11-01 13:42:38.125392
2368  2023-11-01 13:42:38.174232
2369  2023-11-01 13:42:38.205182
2370  2023-11-01 13:42:38.253053
2371  2023-11-01 13:42:38.300923
2372  2023-11-01 13:42:38.332842
2373  2023-11-01 13:42:38.379738
2374  2023-11-01 13:42:38.411626
2375  2023-11-01 13:42:38.459468
2376  2023-11-01 13:42:38.509427
2377  2023-11-01 13:42:38.539286
2378  2023-11-01 13:42:38.588326
2379  2023-11-01 13:42:38.633195
2380  2023-11-01 13:42:38.663194
2381  2023-11-01 13:42:38.711196
2382  2023-11-01 13:42:38.759040
2383  2023-11-01 13:42:38.790955
2384  2023-11-01 13:42:38.838857
2385  2023-11-01 13:42:38.883788
2386  2023-11-01 13:42:38.914673
2387  2023-11-01 13:42:38.962579
2388  2023-11-01 13:42:39.009420
2389  2023-11-01 13:42:39.040337
2390  2023-11-01 13:42:39.088210
2391  2023-11-01 13:42:39.120124
2392  2023-11-01 13:42:39.168119
2393  2023-11-01 13:42:39.215978
2394  2023-11-01 13:42:39.247955
2395  2023-11-01 13:42:39.294913
2396  2023-11-01 13:42:39.340821
2397  2023-11-01 13:42:39.372834
2398  2023-11-01 13:42:39.420726
2399  2023-11-01 13:42:39.465752
2400  2023-11-01 13:42:39.496707
2401  2023-11-01 13:42:39.544611
2402  2023-11-01 13:42:39.591623
2403  2023-11-01 13:42:39.622541
2404  2023-11-01 13:42:39.669447
2405  2023-11-01 13:42:39.716290
2406  2023-11-01 13:42:39.747290
2407  2023-11-01 13:42:39.795165
2408  2023-11-01 13:42:39.842037
2409  2023-11-01 13:42:39.873046
2410  2023-11-01 13:42:39.920916
2411  2023-11-01 13:42:39.952831
2412  2023-11-01 13:42:40.000672
2413  2023-11-01 13:42:40.046601
2414  2023-11-01 13:42:40.092476
2415  2023-11-01 13:42:40.125402
2416  2023-11-01 13:42:40.170258
2417  2023-11-01 13:42:40.218091
2418  2023-11-01 13:42:40.249008
2419  2023-11-01 13:42:40.297019
2420  2023-11-01 13:42:40.328934
2421  2023-11-01 13:42:40.376840
2422  2023-11-01 13:42:40.424678
2423  2023-11-01 13:42:40.456593
2424  2023-11-01 13:42:40.504502
2425  2023-11-01 13:42:40.536418
2426  2023-11-01 13:42:40.584251
2427  2023-11-01 13:42:40.632162
2428  2023-11-01 13:42:40.664038
2429  2023-11-01 13:42:40.711946
2430  2023-11-01 13:42:40.758785
2431  2023-11-01 13:42:40.789703
2432  2023-11-01 13:42:40.837611
2433  2023-11-01 13:42:40.869524
2434  2023-11-01 13:42:40.917361
2435  2023-11-01 13:42:40.965265
2436  2023-11-01 13:42:40.997195
2437  2023-11-01 13:42:41.045020
2438  2023-11-01 13:42:41.091937
2439  2023-11-01 13:42:41.122848
2440  2023-11-01 13:42:41.170716
2441  2023-11-01 13:42:41.202693
2442  2023-11-01 13:42:41.250601
2443  2023-11-01 13:42:41.298445
2444  2023-11-01 13:42:41.330327
2445  2023-11-01 13:42:41.378302
2446  2023-11-01 13:42:41.426186
2447  2023-11-01 13:42:41.458109
2448  2023-11-01 13:42:41.505970
2449  2023-11-01 13:42:41.537897
2450  2023-11-01 13:42:41.585748
2451  2023-11-01 13:42:41.633583
2452  2023-11-01 13:42:41.665486
2453  2023-11-01 13:42:41.713354
2454  2023-11-01 13:42:41.745271
2455  2023-11-01 13:42:41.793141
2456  2023-11-01 13:42:41.841050
2457  2023-11-01 13:42:41.872992
2458  2023-11-01 13:42:41.920910
2459  2023-11-01 13:42:41.952814
2460  2023-11-01 13:42:42.000682
2461  2023-11-01 13:42:42.048557
2462  2023-11-01 13:42:42.080472
2463  2023-11-01 13:42:42.128393
2464  2023-11-01 13:42:42.176245
2465  2023-11-01 13:42:42.208145
2466  2023-11-01 13:42:42.256000
2467  2023-11-01 13:42:42.287916
2468  2023-11-01 13:42:42.335791
2469  2023-11-01 13:42:42.383668
2470  2023-11-01 13:42:42.415587
2471  2023-11-01 13:42:42.463446
2472  2023-11-01 13:42:42.495376
2473  2023-11-01 13:42:42.543231
2474  2023-11-01 13:42:42.591122
2475  2023-11-01 13:42:42.623034
2476  2023-11-01 13:42:42.670859
2477  2023-11-01 13:42:42.702774
2478  2023-11-01 13:42:42.750681
2479  2023-11-01 13:42:42.798573
2480  2023-11-01 13:42:42.830487
2481  2023-11-01 13:42:42.878448
2482  2023-11-01 13:42:42.926289
2483  2023-11-01 13:42:42.958352
2484  2023-11-01 13:42:43.003316
2485  2023-11-01 13:42:43.050148
2486  2023-11-01 13:42:43.080112
2487  2023-11-01 13:42:43.127939
2488  2023-11-01 13:42:43.173852
2489  2023-11-01 13:42:43.205765
2490  2023-11-01 13:42:43.253747
2491  2023-11-01 13:42:43.300527
2492  2023-11-01 13:42:43.333391
2493  2023-11-01 13:42:43.380264
2494  2023-11-01 13:42:43.412179
2495  2023-11-01 13:42:43.460152
2496  2023-11-01 13:42:43.507993
2497  2023-11-01 13:42:43.539909
2498  2023-11-01 13:42:43.587838
2499  2023-11-01 13:42:43.619822
2500  2023-11-01 13:42:43.667695
2501  2023-11-01 13:42:43.715724
2502  2023-11-01 13:42:43.747703
2503  2023-11-01 13:42:43.795580
2504  2023-11-01 13:42:43.827535
2505  2023-11-01 13:42:43.875459
2506  2023-11-01 13:42:43.921388
2507  2023-11-01 13:42:43.953304
2508  2023-11-01 13:42:44.001369
2509  2023-11-01 13:42:44.047128
2510  2023-11-01 13:42:44.079043
2511  2023-11-01 13:42:44.126931
2512  2023-11-01 13:42:44.173839
2513  2023-11-01 13:42:44.204881
2514  2023-11-01 13:42:44.253831
2515  2023-11-01 13:42:44.300737
2516  2023-11-01 13:42:44.332689
2517  2023-11-01 13:42:44.379565
2518  2023-11-01 13:42:44.412475
2519  2023-11-01 13:42:44.459344
2520  2023-11-01 13:42:44.507233
2521  2023-11-01 13:42:44.539143
2522  2023-11-01 13:42:44.587011
2523  2023-11-01 13:42:44.619925
2524  2023-11-01 13:42:44.666866
2525  2023-11-01 13:42:44.715859
2526  2023-11-01 13:42:44.746838
2527  2023-11-01 13:42:44.795676
2528  2023-11-01 13:42:44.842581
2529  2023-11-01 13:42:44.874497
2530  2023-11-01 13:42:44.923487
2531  2023-11-01 13:42:44.955358
2532  2023-11-01 13:42:45.002282
2533  2023-11-01 13:42:45.047112
2534  2023-11-01 13:42:45.092027
2535  2023-11-01 13:42:45.123942
2536  2023-11-01 13:42:45.171822
2537  2023-11-01 13:42:45.203757
2538  2023-11-01 13:42:45.251298
2539  2023-11-01 13:42:45.299141
2540  2023-11-01 13:42:45.330094
2541  2023-11-01 13:42:45.376982
2542  2023-11-01 13:42:45.424915
2543  2023-11-01 13:42:45.456830
2544  2023-11-01 13:42:45.504653
2545  2023-11-01 13:42:45.536609
2546  2023-11-01 13:42:45.584482
2547  2023-11-01 13:42:45.632361
2548  2023-11-01 13:42:45.664289
2549  2023-11-01 13:42:45.712140
2550  2023-11-01 13:42:45.744048
2551  2023-11-01 13:42:45.791918
2552  2023-11-01 13:42:45.837796
2553  2023-11-01 13:42:45.869678
2554  2023-11-01 13:42:45.917551
2555  2023-11-01 13:42:45.966474
2556  2023-11-01 13:42:45.997415
2557  2023-11-01 13:42:46.045245
2558  2023-11-01 13:42:46.094112
2559  2023-11-01 13:42:46.123169
2560  2023-11-01 13:42:46.170088
2561  2023-11-01 13:42:46.218914
2562  2023-11-01 13:42:46.250864
2563  2023-11-01 13:42:46.298736
2564  2023-11-01 13:42:46.328619
2565  2023-11-01 13:42:46.375494
2566  2023-11-01 13:42:46.423366
2567  2023-11-01 13:42:46.455452
2568  2023-11-01 13:42:46.503211
2569  2023-11-01 13:42:46.550097
2570  2023-11-01 13:42:46.581060
2571  2023-11-01 13:42:46.629043
2572  2023-11-01 13:42:46.660923
2573  2023-11-01 13:42:46.708844
2574  2023-11-01 13:42:46.754758
2575  2023-11-01 13:42:46.786682
2576  2023-11-01 13:42:46.834598
2577  2023-11-01 13:42:46.882513
2578  2023-11-01 13:42:46.914550
2579  2023-11-01 13:42:46.961326
2580  2023-11-01 13:42:47.008333
2581  2023-11-01 13:42:47.040255
2582  2023-11-01 13:42:47.088088
2583  2023-11-01 13:42:47.120043
2584  2023-11-01 13:42:47.167907
2585  2023-11-01 13:42:47.215747
2586  2023-11-01 13:42:47.247690
2587  2023-11-01 13:42:47.295579
2588  2023-11-01 13:42:47.327448
2589  2023-11-01 13:42:47.375363
2590  2023-11-01 13:42:47.423240
2591  2023-11-01 13:42:47.455150
2592  2023-11-01 13:42:47.503012
2593  2023-11-01 13:42:47.549877
2594  2023-11-01 13:42:47.580837
2595  2023-11-01 13:42:47.627722
2596  2023-11-01 13:42:47.676639
2597  2023-11-01 13:42:47.707563
2598  2023-11-01 13:42:47.754383
2599  2023-11-01 13:42:47.801301
2600  2023-11-01 13:42:47.834256
2601  2023-11-01 13:42:47.881196
2602  2023-11-01 13:42:47.914113
2603  2023-11-01 13:42:47.958053
2604  2023-11-01 13:42:48.005968
2605  2023-11-01 13:42:48.037883
2606  2023-11-01 13:42:48.085712
2607  2023-11-01 13:42:48.133618
2608  2023-11-01 13:42:48.163536
2609  2023-11-01 13:42:48.209425
2610  2023-11-01 13:42:48.257308
2611  2023-11-01 13:42:48.289227
2612  2023-11-01 13:42:48.335115
2613  2023-11-01 13:42:48.382956
2614  2023-11-01 13:42:48.412839
2615  2023-11-01 13:42:48.460711
2616  2023-11-01 13:42:48.508628
2617  2023-11-01 13:42:48.540531
2618  2023-11-01 13:42:48.588448
2619  2023-11-01 13:42:48.620346
2620  2023-11-01 13:42:48.667198
2621  2023-11-01 13:42:48.716100
2622  2023-11-01 13:42:48.747988
2623  2023-11-01 13:42:48.795897
2624  2023-11-01 13:42:48.843688
2625  2023-11-01 13:42:48.875603
2626  2023-11-01 13:42:48.921635
2627  2023-11-01 13:42:48.953563
2628  2023-11-01 13:42:49.001418
2629  2023-11-01 13:42:49.049301
2630  2023-11-01 13:42:49.080182
2631  2023-11-01 13:42:49.126058
2632  2023-11-01 13:42:49.173979
2633  2023-11-01 13:42:49.205879
2634  2023-11-01 13:42:49.253717
2635  2023-11-01 13:42:49.285632
2636  2023-11-01 13:42:49.333535
2637  2023-11-01 13:42:49.381376
2638  2023-11-01 13:42:49.413290
2639  2023-11-01 13:42:49.461162
2640  2023-11-01 13:42:49.507094
2641  2023-11-01 13:42:49.539001
2642  2023-11-01 13:42:49.586924
2643  2023-11-01 13:42:49.633793
2644  2023-11-01 13:42:49.664799
2645  2023-11-01 13:42:49.712757
2646  2023-11-01 13:42:49.744636
2647  2023-11-01 13:42:49.790556
2648  2023-11-01 13:42:49.838419
2649  2023-11-01 13:42:49.870334
2650  2023-11-01 13:42:49.918216
2651  2023-11-01 13:42:49.966045
2652  2023-11-01 13:42:49.998000
2653  2023-11-01 13:42:50.045878
2654  2023-11-01 13:42:50.077779
2655  2023-11-01 13:42:50.123661
2656  2023-11-01 13:42:50.171526
2657  2023-11-01 13:42:50.203481
2658  2023-11-01 13:42:50.251419
2659  2023-11-01 13:42:50.299294
2660  2023-11-01 13:42:50.331452
2661  2023-11-01 13:42:50.378375
2662  2023-11-01 13:42:50.427250
2663  2023-11-01 13:42:50.457196
2664  2023-11-01 13:42:50.505053
2665  2023-11-01 13:42:50.536951
2666  2023-11-01 13:42:50.585841
2667  2023-11-01 13:42:50.632696
2668  2023-11-01 13:42:50.664610
2669  2023-11-01 13:42:50.712573
2670  2023-11-01 13:42:50.760453
2671  2023-11-01 13:42:50.792351
2672  2023-11-01 13:42:50.838301
2673  2023-11-01 13:42:50.869255
2674  2023-11-01 13:42:50.916091
2675  2023-11-01 13:42:50.963997
2676  2023-11-01 13:42:50.995911
2677  2023-11-01 13:42:51.043750
2678  2023-11-01 13:42:51.090676
2679  2023-11-01 13:42:51.121542
2680  2023-11-01 13:42:51.167451
2681  2023-11-01 13:42:51.215322
2682  2023-11-01 13:42:51.247238
2683  2023-11-01 13:42:51.295111
2684  2023-11-01 13:42:51.341993
2685  2023-11-01 13:42:51.372873
2686  2023-11-01 13:42:51.420780
2687  2023-11-01 13:42:51.452659
2688  2023-11-01 13:42:51.499532
2689  2023-11-01 13:42:51.546585
2690  2023-11-01 13:42:51.592470
2691  2023-11-01 13:42:51.624578
2692  2023-11-01 13:42:51.672473
2693  2023-11-01 13:42:51.705218
2694  2023-11-01 13:42:51.752158
2695  2023-11-01 13:42:51.800036
2696  2023-11-01 13:42:51.831958
2697  2023-11-01 13:42:51.880817
2698  2023-11-01 13:42:51.912759
2699  2023-11-01 13:42:51.959615
2700  2023-11-01 13:42:52.008561
2701  2023-11-01 13:42:52.038466
2702  2023-11-01 13:42:52.086305
2703  2023-11-01 13:42:52.134204
2704  2023-11-01 13:42:52.168123
2705  2023-11-01 13:42:52.213964
2706  2023-11-01 13:42:52.244881
2707  2023-11-01 13:42:52.291810
2708  2023-11-01 13:42:52.339628
2709  2023-11-01 13:42:52.371543
2710  2023-11-01 13:42:52.419415
2711  2023-11-01 13:42:52.467287
2712  2023-11-01 13:42:52.499202
2713  2023-11-01 13:42:52.547074
2714  2023-11-01 13:42:52.578988
2715  2023-11-01 13:42:52.626986
2716  2023-11-01 13:42:52.674858
2717  2023-11-01 13:42:52.706773
2718  2023-11-01 13:42:52.754644
2719  2023-11-01 13:42:52.786559
2720  2023-11-01 13:42:52.834485
2721  2023-11-01 13:42:52.882303
2722  2023-11-01 13:42:52.912255
2723  2023-11-01 13:42:52.958104
2724  2023-11-01 13:42:53.006005
2725  2023-11-01 13:42:53.037923
2726  2023-11-01 13:42:53.085793
2727  2023-11-01 13:42:53.133664
2728  2023-11-01 13:42:53.164584
2729  2023-11-01 13:42:53.211454
2730  2023-11-01 13:42:53.259331
2731  2023-11-01 13:42:53.290215
2732  2023-11-01 13:42:53.338177
2733  2023-11-01 13:42:53.369095
2734  2023-11-01 13:42:53.418109
2735  2023-11-01 13:42:53.464998
2736  2023-11-01 13:42:53.497894
2737  2023-11-01 13:42:53.545780
2738  2023-11-01 13:42:53.593655
2739  2023-11-01 13:42:53.625567
2740  2023-11-01 13:42:53.674465
2741  2023-11-01 13:42:53.706337
2742  2023-11-01 13:42:53.753242
2743  2023-11-01 13:42:53.800057
2744  2023-11-01 13:42:53.831975
2745  2023-11-01 13:42:53.879844
2746  2023-11-01 13:42:53.912795
2747  2023-11-01 13:42:53.959668
2748  2023-11-01 13:42:54.005541
2749  2023-11-01 13:42:54.038421
2750  2023-11-01 13:42:54.084297
2751  2023-11-01 13:42:54.132183
2752  2023-11-01 13:42:54.163119
2753  2023-11-01 13:42:54.209961
2754  2023-11-01 13:42:54.257867
2755  2023-11-01 13:42:54.289748
2756  2023-11-01 13:42:54.335661
2757  2023-11-01 13:42:54.383811
2758  2023-11-01 13:42:54.415542
2759  2023-11-01 13:42:54.463451
2760  2023-11-01 13:42:54.494752
2761  2023-11-01 13:42:54.540720
2762  2023-11-01 13:42:54.587735
2763  2023-11-01 13:42:54.634484
2764  2023-11-01 13:42:54.666401
2765  2023-11-01 13:42:54.714225
2766  2023-11-01 13:42:54.746173
2767  2023-11-01 13:42:54.795020
2768  2023-11-01 13:42:54.841929
2769  2023-11-01 13:42:54.873875
2770  2023-11-01 13:42:54.921709
2771  2023-11-01 13:42:54.953586
2772  2023-11-01 13:42:55.001503
2773  2023-11-01 13:42:55.050328
2774  2023-11-01 13:42:55.081288
2775  2023-11-01 13:42:55.128118
2776  2023-11-01 13:42:55.175037
2777  2023-11-01 13:42:55.207906
2778  2023-11-01 13:42:55.254818
2779  2023-11-01 13:42:55.286733
2780  2023-11-01 13:42:55.334568
2781  2023-11-01 13:42:55.382483
2782  2023-11-01 13:42:55.413358
2783  2023-11-01 13:42:55.463253
2784  2023-11-01 13:42:55.510132
2785  2023-11-01 13:42:55.541063
2786  2023-11-01 13:42:55.587889
2787  2023-11-01 13:42:55.619804
2788  2023-11-01 13:42:55.665710
2789  2023-11-01 13:42:55.713554
2790  2023-11-01 13:42:55.745468
2791  2023-11-01 13:42:55.792389
2792  2023-11-01 13:42:55.838253
2793  2023-11-01 13:42:55.869170
2794  2023-11-01 13:42:55.916060
2795  2023-11-01 13:42:55.962926
2796  2023-11-01 13:42:56.008797
2797  2023-11-01 13:42:56.039685
2798  2023-11-01 13:42:56.086588
2799  2023-11-01 13:42:56.134466
2800  2023-11-01 13:42:56.167379
2801  2023-11-01 13:42:56.214249
2802  2023-11-01 13:42:56.247173
2803  2023-11-01 13:42:56.294045
2804  2023-11-01 13:42:56.341032
2805  2023-11-01 13:42:56.372792
2806  2023-11-01 13:42:56.420664
2807  2023-11-01 13:42:56.452579
2808  2023-11-01 13:42:56.501454
2809  2023-11-01 13:42:56.548323
2810  2023-11-01 13:42:56.580237
2811  2023-11-01 13:42:56.629108
2812  2023-11-01 13:42:56.675982
2813  2023-11-01 13:42:56.707896
2814  2023-11-01 13:42:56.755768
2815  2023-11-01 13:42:56.787683
2816  2023-11-01 13:42:56.835555
2817  2023-11-01 13:42:56.883427
2818  2023-11-01 13:42:56.915344
2819  2023-11-01 13:42:56.961249
2820  2023-11-01 13:42:57.008094
2821  2023-11-01 13:42:57.039038
2822  2023-11-01 13:42:57.086884
2823  2023-11-01 13:42:57.133792
2824  2023-11-01 13:42:57.164718
2825  2023-11-01 13:42:57.211582
2826  2023-11-01 13:42:57.258497
2827  2023-11-01 13:42:57.290341
2828  2023-11-01 13:42:57.338262
2829  2023-11-01 13:42:57.370375
2830  2023-11-01 13:42:57.418038
2831  2023-11-01 13:42:57.465910
2832  2023-11-01 13:42:57.497847
2833  2023-11-01 13:42:57.545705
2834  2023-11-01 13:42:57.577586
2835  2023-11-01 13:42:57.625482
2836  2023-11-01 13:42:57.673584
2837  2023-11-01 13:42:57.705286
2838  2023-11-01 13:42:57.754153
2839  2023-11-01 13:42:57.800012
2840  2023-11-01 13:42:57.832923
2841  2023-11-01 13:42:57.878799
2842  2023-11-01 13:42:57.925675
2843  2023-11-01 13:42:57.958557
2844  2023-11-01 13:42:58.006426
2845  2023-11-01 13:42:58.038352
2846  2023-11-01 13:42:58.086213
2847  2023-11-01 13:42:58.134100
2848  2023-11-01 13:42:58.166034
2849  2023-11-01 13:42:58.211978
2850  2023-11-01 13:42:58.258852
2851  2023-11-01 13:42:58.290767
2852  2023-11-01 13:42:58.338705
2853  2023-11-01 13:42:58.370646
2854  2023-11-01 13:42:58.417520
2855  2023-11-01 13:42:58.464428
2856  2023-11-01 13:42:58.496344
2857  2023-11-01 13:42:58.544182
2858  2023-11-01 13:42:58.590108
2859  2023-11-01 13:42:58.622143
2860  2023-11-01 13:42:58.669010
2861  2023-11-01 13:42:58.714882
2862  2023-11-01 13:42:58.745820
2863  2023-11-01 13:42:58.793768
2864  2023-11-01 13:42:58.839763
2865  2023-11-01 13:42:58.871697
2866  2023-11-01 13:42:58.919556
2867  2023-11-01 13:42:58.968377
2868  2023-11-01 13:42:58.999295
2869  2023-11-01 13:42:59.045222
2870  2023-11-01 13:42:59.093429
2871  2023-11-01 13:42:59.125469
2872  2023-11-01 13:42:59.173331
2873  2023-11-01 13:42:59.205299
2874  2023-11-01 13:42:59.253190
2875  2023-11-01 13:42:59.302086
2876  2023-11-01 13:42:59.332975
2877  2023-11-01 13:42:59.382902
2878  2023-11-01 13:42:59.413845
2879  2023-11-01 13:42:59.459696
2880  2023-11-01 13:42:59.505617
2881  2023-11-01 13:42:59.537517
2882  2023-11-01 13:42:59.585392
2883  2023-11-01 13:42:59.633267
2884  2023-11-01 13:42:59.665149
2885  2023-11-01 13:42:59.712986
2886  2023-11-01 13:42:59.744900
2887  2023-11-01 13:42:59.792804
2888  2023-11-01 13:42:59.840644
2889  2023-11-01 13:42:59.872592
2890  2023-11-01 13:42:59.918471
2891  2023-11-01 13:42:59.966386
2892  2023-11-01 13:42:59.998264
2893  2023-11-01 13:43:00.046141
2894  2023-11-01 13:43:00.078279
2895  2023-11-01 13:43:00.125999
2896  2023-11-01 13:43:00.173870
2897  2023-11-01 13:43:00.205821
2898  2023-11-01 13:43:00.253788
2899  2023-11-01 13:43:00.285745
2900  2023-11-01 13:43:00.333611
2901  2023-11-01 13:43:00.381536
2902  2023-11-01 13:43:00.413412
2903  2023-11-01 13:43:00.461284
2904  2023-11-01 13:43:00.508159
2905  2023-11-01 13:43:00.540073
2906  2023-11-01 13:43:00.587963
2907  2023-11-01 13:43:00.619966
2908  2023-11-01 13:43:00.667840
2909  2023-11-01 13:43:00.715927
2910  2023-11-01 13:43:00.747841
2911  2023-11-01 13:43:00.795713
2912  2023-11-01 13:43:00.827293
2913  2023-11-01 13:43:00.875229
2914  2023-11-01 13:43:00.923100
2915  2023-11-01 13:43:00.955015
2916  2023-11-01 13:43:01.002886
2917  2023-11-01 13:43:01.050758
2918  2023-11-01 13:43:01.082687
2919  2023-11-01 13:43:01.130544
2920  2023-11-01 13:43:01.162459
2921  2023-11-01 13:43:01.210334
2922  2023-11-01 13:43:01.258209
2923  2023-11-01 13:43:01.290133
2924  2023-11-01 13:43:01.337961
2925  2023-11-01 13:43:01.369876
2926  2023-11-01 13:43:01.416779
2927  2023-11-01 13:43:01.464670
2928  2023-11-01 13:43:01.496576
2929  2023-11-01 13:43:01.543450
2930  2023-11-01 13:43:01.590315
2931  2023-11-01 13:43:01.622239
2932  2023-11-01 13:43:01.670118
2933  2023-11-01 13:43:01.716946
2934  2023-11-01 13:43:01.748862
2935  2023-11-01 13:43:01.796805
2936  2023-11-01 13:43:01.841646
2937  2023-11-01 13:43:01.873659
2938  2023-11-01 13:43:01.921564
2939  2023-11-01 13:43:01.953479
2940  2023-11-01 13:43:02.001397
2941  2023-11-01 13:43:02.049224
2942  2023-11-01 13:43:02.081138
2943  2023-11-01 13:43:02.129037
2944  2023-11-01 13:43:02.160955
2945  2023-11-01 13:43:02.208883
2946  2023-11-01 13:43:02.256883
2947  2023-11-01 13:43:02.288797
2948  2023-11-01 13:43:02.336761
2949  2023-11-01 13:43:02.382739
2950  2023-11-01 13:43:02.414654
2951  2023-11-01 13:43:02.459504
2952  2023-11-01 13:43:02.507376
2953  2023-11-01 13:43:02.538293
2954  2023-11-01 13:43:02.584207
2955  2023-11-01 13:43:02.632044
2956  2023-11-01 13:43:02.663958
2957  2023-11-01 13:43:02.710833
2958  2023-11-01 13:43:02.757742
2959  2023-11-01 13:43:02.789718
2960  2023-11-01 13:43:02.837598
2961  2023-11-01 13:43:02.869654
2962  2023-11-01 13:43:02.917481
2963  2023-11-01 13:43:02.964392
2964  2023-11-01 13:43:02.996310
2965  2023-11-01 13:43:03.044178
2966  2023-11-01 13:43:03.092135
2967  2023-11-01 13:43:03.124044
2968  2023-11-01 13:43:03.171912
2969  2023-11-01 13:43:03.203786
2970  2023-11-01 13:43:03.251689
2971  2023-11-01 13:43:03.300555
2972  2023-11-01 13:43:03.329473
2973  2023-11-01 13:43:03.376323
2974  2023-11-01 13:43:03.424195
2975  2023-11-01 13:43:03.456110
2976  2023-11-01 13:43:03.502029
2977  2023-11-01 13:43:03.549892
2978  2023-11-01 13:43:03.580862
2979  2023-11-01 13:43:03.627707
2980  2023-11-01 13:43:03.675112
2981  2023-11-01 13:43:03.707052
2982  2023-11-01 13:43:03.754903
2983  2023-11-01 13:43:03.786787
2984  2023-11-01 13:43:03.834660
2985  2023-11-01 13:43:03.882562
2986  2023-11-01 13:43:03.914478
2987  2023-11-01 13:43:03.962352
2988  2023-11-01 13:43:04.008235
2989  2023-11-01 13:43:04.039150
2990  2023-11-01 13:43:04.086115
2991  2023-11-01 13:43:04.133959
2992  2023-11-01 13:43:04.165881
2993  2023-11-01 13:43:04.214742
2994  2023-11-01 13:43:04.245667
2995  2023-11-01 13:43:04.294522
2996  2023-11-01 13:43:04.340373
2997  2023-11-01 13:43:04.374315
2998  2023-11-01 13:43:04.420195
2999  2023-11-01 13:43:04.468032
3000  2023-11-01 13:43:04.499980
3001  2023-11-01 13:43:04.547866
3002  2023-11-01 13:43:04.592698
3003  2023-11-01 13:43:04.624612
3004  2023-11-01 13:43:04.672661
3005  2023-11-01 13:43:04.704430
3006  2023-11-01 13:43:04.751274
3007  2023-11-01 13:43:04.799180
3008  2023-11-01 13:43:04.831115
3009  2023-11-01 13:43:04.879036
3010  2023-11-01 13:43:04.910848
3011  2023-11-01 13:43:04.958793
3012  2023-11-01 13:43:05.006665
3013  2023-11-01 13:43:05.038649
3014  2023-11-01 13:43:05.085524
3015  2023-11-01 13:43:05.133399
3016  2023-11-01 13:43:05.165315
3017  2023-11-01 13:43:05.212238
3018  2023-11-01 13:43:05.259112
3019  2023-11-01 13:43:05.290061
3020  2023-11-01 13:43:05.336903
3021  2023-11-01 13:43:05.383617
3022  2023-11-01 13:43:05.414568
3023  2023-11-01 13:43:05.462406
3024  2023-11-01 13:43:05.508542
3025  2023-11-01 13:43:05.541431
3026  2023-11-01 13:43:05.588304
3027  2023-11-01 13:43:05.620216
3028  2023-11-01 13:43:05.667106
3029  2023-11-01 13:43:05.714964
3030  2023-11-01 13:43:05.746883
3031  2023-11-01 13:43:05.794771
3032  2023-11-01 13:43:05.842621
3033  2023-11-01 13:43:05.874540
3034  2023-11-01 13:43:05.923422
3035  2023-11-01 13:43:05.955323
3036  2023-11-01 13:43:06.003222
3037  2023-11-01 13:43:06.051176
3038  2023-11-01 13:43:06.083092
3039  2023-11-01 13:43:06.131017
3040  2023-11-01 13:43:06.162930
3041  2023-11-01 13:43:06.210820
3042  2023-11-01 13:43:06.258713
3043  2023-11-01 13:43:06.290640
3044  2023-11-01 13:43:06.339502
3045  2023-11-01 13:43:06.371411
3046  2023-11-01 13:43:06.418282
3047  2023-11-01 13:43:06.467174
3048  2023-11-01 13:43:06.497069
3049  2023-11-01 13:43:06.542963
3050  2023-11-01 13:43:06.589791
3051  2023-11-01 13:43:06.621706
3052  2023-11-01 13:43:06.669625
3053  2023-11-01 13:43:06.717450
3054  2023-11-01 13:43:06.749478
3055  2023-11-01 13:43:06.797318
3056  2023-11-01 13:43:06.829304
3057  2023-11-01 13:43:06.877169
3058  2023-11-01 13:43:06.925046
3059  2023-11-01 13:43:06.954968
3060  2023-11-01 13:43:07.002840
3061  2023-11-01 13:43:07.050711
3062  2023-11-01 13:43:07.083623
3063  2023-11-01 13:43:07.130498
3064  2023-11-01 13:43:07.162410
3065  2023-11-01 13:43:07.209286
3066  2023-11-01 13:43:07.255131
3067  2023-11-01 13:43:07.286077
3068  2023-11-01 13:43:07.333921
3069  2023-11-01 13:43:07.381824
3070  2023-11-01 13:43:07.413739
3071  2023-11-01 13:43:07.461615
3072  2023-11-01 13:43:07.507488
3073  2023-11-01 13:43:07.539422
3074  2023-11-01 13:43:07.587294
3075  2023-11-01 13:43:07.619191
3076  2023-11-01 13:43:07.666195
3077  2023-11-01 13:43:07.713939
3078  2023-11-01 13:43:07.758817
3079  2023-11-01 13:43:07.790700
3080  2023-11-01 13:43:07.838596
3081  2023-11-01 13:43:07.870531
3082  2023-11-01 13:43:07.918358
3083  2023-11-01 13:43:07.966360
3084  2023-11-01 13:43:07.998174
3085  2023-11-01 13:43:08.046044
3086  2023-11-01 13:43:08.077932
3087  2023-11-01 13:43:08.125842
3088  2023-11-01 13:43:08.173712
3089  2023-11-01 13:43:08.205628
3090  2023-11-01 13:43:08.252468
3091  2023-11-01 13:43:08.298380
3092  2023-11-01 13:43:08.330316
3093  2023-11-01 13:43:08.376164
3094  2023-11-01 13:43:08.424041
3095  2023-11-01 13:43:08.455949
3096  2023-11-01 13:43:08.501831
3097  2023-11-01 13:43:08.549714
3098  2023-11-01 13:43:08.581632
3099  2023-11-01 13:43:08.627515
3100  2023-11-01 13:43:08.676366
3101  2023-11-01 13:43:08.708279
3102  2023-11-01 13:43:08.756145
3103  2023-11-01 13:43:08.788067
3104  2023-11-01 13:43:08.835961
3105  2023-11-01 13:43:08.883819
3106  2023-11-01 13:43:08.915732
3107  2023-11-01 13:43:08.963654
3108  2023-11-01 13:43:08.996596
3109  2023-11-01 13:43:09.044383
3110  2023-11-01 13:43:09.090278
3111  2023-11-01 13:43:09.124173
3112  2023-11-01 13:43:09.170045
3113  2023-11-01 13:43:09.217886
3114  2023-11-01 13:43:09.247806
3115  2023-11-01 13:43:09.295718
3116  2023-11-01 13:43:09.329633
3117  2023-11-01 13:43:09.374499
3118  2023-11-01 13:43:09.421342
3119  2023-11-01 13:43:09.453336
3120  2023-11-01 13:43:09.500863
3121  2023-11-01 13:43:09.548766
3122  2023-11-01 13:43:09.580680
3123  2023-11-01 13:43:09.628553
3124  2023-11-01 13:43:09.675505
3125  2023-11-01 13:43:09.706435
3126  2023-11-01 13:43:09.754262
3127  2023-11-01 13:43:09.801167
3128  2023-11-01 13:43:09.833083
3129  2023-11-01 13:43:09.880955
3130  2023-11-01 13:43:09.912869
3131  2023-11-01 13:43:09.958752
3132  2023-11-01 13:43:10.007586
3133  2023-11-01 13:43:10.038538
3134  2023-11-01 13:43:10.086408
3135  2023-11-01 13:43:10.134248
3136  2023-11-01 13:43:10.165204
3137  2023-11-01 13:43:10.213089
3138  2023-11-01 13:43:10.244993
3139  2023-11-01 13:43:10.291826
3140  2023-11-01 13:43:10.338734
3141  2023-11-01 13:43:10.370647
3142  2023-11-01 13:43:10.417526
3143  2023-11-01 13:43:10.465395
3144  2023-11-01 13:43:10.495339
3145  2023-11-01 13:43:10.542158
3146  2023-11-01 13:43:10.588036
3147  2023-11-01 13:43:10.619950
3148  2023-11-01 13:43:10.667859
3149  2023-11-01 13:43:10.715729
3150  2023-11-01 13:43:10.746645
3151  2023-11-01 13:43:10.794532
3152  2023-11-01 13:43:10.842355
3153  2023-11-01 13:43:10.873303
3154  2023-11-01 13:43:10.921175
3155  2023-11-01 13:43:10.953090
3156  2023-11-01 13:43:10.999986
3157  2023-11-01 13:43:11.048077
3158  2023-11-01 13:43:11.079721
3159  2023-11-01 13:43:11.127635
3160  2023-11-01 13:43:11.175497
3161  2023-11-01 13:43:11.207417
3162  2023-11-01 13:43:11.254287
3163  2023-11-01 13:43:11.286200
3164  2023-11-01 13:43:11.333045
3165  2023-11-01 13:43:11.379950
3166  2023-11-01 13:43:11.411868
3167  2023-11-01 13:43:11.459731
3168  2023-11-01 13:43:11.507624
3169  2023-11-01 13:43:11.539541
3170  2023-11-01 13:43:11.587431
3171  2023-11-01 13:43:11.619448
3172  2023-11-01 13:43:11.667353
3173  2023-11-01 13:43:11.715191
3174  2023-11-01 13:43:11.747113
3175  2023-11-01 13:43:11.795011
3176  2023-11-01 13:43:11.842854
3177  2023-11-01 13:43:11.872804
3178  2023-11-01 13:43:11.920661
3179  2023-11-01 13:43:11.968516
3180  2023-11-01 13:43:12.000441
3181  2023-11-01 13:43:12.048304
3182  2023-11-01 13:43:12.080217
3183  2023-11-01 13:43:12.125066
3184  2023-11-01 13:43:12.172972
3185  2023-11-01 13:43:12.204853
3186  2023-11-01 13:43:12.252725
3187  2023-11-01 13:43:12.300629
3188  2023-11-01 13:43:12.331558
3189  2023-11-01 13:43:12.378489
3190  2023-11-01 13:43:12.425405
3191  2023-11-01 13:43:12.456322
3192  2023-11-01 13:43:12.502228
3193  2023-11-01 13:43:12.549113
3194  2023-11-01 13:43:12.580042
3195  2023-11-01 13:43:12.627900
3196  2023-11-01 13:43:12.675787
3197  2023-11-01 13:43:12.707702
3198  2023-11-01 13:43:12.755558
3199  2023-11-01 13:43:12.787485
3200  2023-11-01 13:43:12.835357
3201  2023-11-01 13:43:12.883219
3202  2023-11-01 13:43:12.915122
3203  2023-11-01 13:43:12.963004
3204  2023-11-01 13:43:12.993959
3205  2023-11-01 13:43:13.039796
3206  2023-11-01 13:43:13.087670
3207  2023-11-01 13:43:13.120716
3208  2023-11-01 13:43:13.167570
3209  2023-11-01 13:43:13.216451
3210  2023-11-01 13:43:13.248459
3211  2023-11-01 13:43:13.296334
3212  2023-11-01 13:43:13.328245
3213  2023-11-01 13:43:13.376110
3214  2023-11-01 13:43:13.421961
3215  2023-11-01 13:43:13.455903
3216  2023-11-01 13:43:13.500778
3217  2023-11-01 13:43:13.547659
3218  2023-11-01 13:43:13.579582
3219  2023-11-01 13:43:13.627452
3220  2023-11-01 13:43:13.675319
3221  2023-11-01 13:43:13.707230
3222  2023-11-01 13:43:13.755215
3223  2023-11-01 13:43:13.786986
3224  2023-11-01 13:43:13.834892
3225  2023-11-01 13:43:13.882775
3226  2023-11-01 13:43:13.914683
3227  2023-11-01 13:43:13.961520
3228  2023-11-01 13:43:14.008432
3229  2023-11-01 13:43:14.040346
3230  2023-11-01 13:43:14.088181
3231  2023-11-01 13:43:14.120126
3232  2023-11-01 13:43:14.168004
3233  2023-11-01 13:43:14.215840
3234  2023-11-01 13:43:14.247755
3235  2023-11-01 13:43:14.295627
3236  2023-11-01 13:43:14.327541
3237  2023-11-01 13:43:14.375465
3238  2023-11-01 13:43:14.422319
3239  2023-11-01 13:43:14.453245
3240  2023-11-01 13:43:14.500107
3241  2023-11-01 13:43:14.546956
3242  2023-11-01 13:43:14.578959
3243  2023-11-01 13:43:14.625795
3244  2023-11-01 13:43:14.673763
3245  2023-11-01 13:43:14.705694
3246  2023-11-01 13:43:14.753556
3247  2023-11-01 13:43:14.800423
3248  2023-11-01 13:43:14.831390
3249  2023-11-01 13:43:14.879296
3250  2023-11-01 13:43:14.911211
3251  2023-11-01 13:43:14.959230
3252  2023-11-01 13:43:15.007104
3253  2023-11-01 13:43:15.039027
3254  2023-11-01 13:43:15.087888
3255  2023-11-01 13:43:15.135781
3256  2023-11-01 13:43:15.164686
3257  2023-11-01 13:43:15.212569
3258  2023-11-01 13:43:15.244471
3259  2023-11-01 13:43:15.292309
3260  2023-11-01 13:43:15.340227
3261  2023-11-01 13:43:15.372098
3262  2023-11-01 13:43:15.419968
3263  2023-11-01 13:43:15.466994
3264  2023-11-01 13:43:15.496885
3265  2023-11-01 13:43:15.544790
3266  2023-11-01 13:43:15.591666
3267  2023-11-01 13:43:15.622581
3268  2023-11-01 13:43:15.670454
3269  2023-11-01 13:43:15.702381
3270  2023-11-01 13:43:15.750244
3271  2023-11-01 13:43:15.798112
3272  2023-11-01 13:43:15.830031
3273  2023-11-01 13:43:15.876874
3274  2023-11-01 13:43:15.924766
3275  2023-11-01 13:43:15.956688
3276  2023-11-01 13:43:16.005553
3277  2023-11-01 13:43:16.050439
3278  2023-11-01 13:43:16.082350
3279  2023-11-01 13:43:16.130191
3280  2023-11-01 13:43:16.162142
3281  2023-11-01 13:43:16.210009
3282  2023-11-01 13:43:16.257913
3283  2023-11-01 13:43:16.289795
3284  2023-11-01 13:43:16.337670
3285  2023-11-01 13:43:16.385543
3286  2023-11-01 13:43:16.417455
3287  2023-11-01 13:43:16.462337
3288  2023-11-01 13:43:16.511207
3289  2023-11-01 13:43:16.543122
3290  2023-11-01 13:43:16.588970
3291  2023-11-01 13:43:16.619883
3292  2023-11-01 13:43:16.666792
3293  2023-11-01 13:43:16.712670
3294  2023-11-01 13:43:16.744585
3295  2023-11-01 13:43:16.792422
3296  2023-11-01 13:43:16.840327
3297  2023-11-01 13:43:16.872258
3298  2023-11-01 13:43:16.920112
3299  2023-11-01 13:43:16.966988
3300  2023-11-01 13:43:16.999059
3301  2023-11-01 13:43:17.046814
3302  2023-11-01 13:43:17.078730
3303  2023-11-01 13:43:17.126601
3304  2023-11-01 13:43:17.175473
3305  2023-11-01 13:43:17.205443
3306  2023-11-01 13:43:17.252308
3307  2023-11-01 13:43:17.299214
3308  2023-11-01 13:43:17.331089
3309  2023-11-01 13:43:17.378974
3310  2023-11-01 13:43:17.411068
3311  2023-11-01 13:43:17.459028
3312  2023-11-01 13:43:17.506908
3313  2023-11-01 13:43:17.538822
3314  2023-11-01 13:43:17.586687
3315  2023-11-01 13:43:17.633552
3316  2023-11-01 13:43:17.664475
3317  2023-11-01 13:43:17.712355
3318  2023-11-01 13:43:17.758225
3319  2023-11-01 13:43:17.790143
3320  2023-11-01 13:43:17.838027
3321  2023-11-01 13:43:17.870036
3322  2023-11-01 13:43:17.917888
3323  2023-11-01 13:43:17.966828
3324  2023-11-01 13:43:17.998807
3325  2023-11-01 13:43:18.043703
3326  2023-11-01 13:43:18.091525
3327  2023-11-01 13:43:18.123440
3328  2023-11-01 13:43:18.170327
3329  2023-11-01 13:43:18.202305
3330  2023-11-01 13:43:18.249291
3331  2023-11-01 13:43:18.295106
3332  2023-11-01 13:43:18.340939
3333  2023-11-01 13:43:18.372888
3334  2023-11-01 13:43:18.420752
3335  2023-11-01 13:43:18.466642
3336  2023-11-01 13:43:18.498565
3337  2023-11-01 13:43:18.546413
3338  2023-11-01 13:43:18.578337
3339  2023-11-01 13:43:18.626398
3340  2023-11-01 13:43:18.674273
3341  2023-11-01 13:43:18.706173
3342  2023-11-01 13:43:18.754053
3343  2023-11-01 13:43:18.786136
3344  2023-11-01 13:43:18.833840
3345  2023-11-01 13:43:18.881804
3346  2023-11-01 13:43:18.913703
3347  2023-11-01 13:43:18.961568
3348  2023-11-01 13:43:19.009447
3349  2023-11-01 13:43:19.041354
3350  2023-11-01 13:43:19.089254
3351  2023-11-01 13:43:19.121168
3352  2023-11-01 13:43:19.168945
3353  2023-11-01 13:43:19.215908
3354  2023-11-01 13:43:19.247821
3355  2023-11-01 13:43:19.296699
3356  2023-11-01 13:43:19.342540
3357  2023-11-01 13:43:19.374491
3358  2023-11-01 13:43:19.418336
3359  2023-11-01 13:43:19.466243
3360  2023-11-01 13:43:19.498157
3361  2023-11-01 13:43:19.546028
3362  2023-11-01 13:43:19.591873
3363  2023-11-01 13:43:19.622842
3364  2023-11-01 13:43:19.670698
3365  2023-11-01 13:43:19.702577
3366  2023-11-01 13:43:19.750479
3367  2023-11-01 13:43:19.798321
3368  2023-11-01 13:43:19.830468
3369  2023-11-01 13:43:19.878139
3370  2023-11-01 13:43:19.926054
3371  2023-11-01 13:43:19.956974
3372  2023-11-01 13:43:20.003832
3373  2023-11-01 13:43:20.049773
3374  2023-11-01 13:43:20.081683
3375  2023-11-01 13:43:20.129570
3376  2023-11-01 13:43:20.161472
3377  2023-11-01 13:43:20.208347
3378  2023-11-01 13:43:20.253224
3379  2023-11-01 13:43:20.302079
3380  2023-11-01 13:43:20.330983
3381  2023-11-01 13:43:20.376900
3382  2023-11-01 13:43:20.425735
3383  2023-11-01 13:43:20.456647
3384  2023-11-01 13:43:20.504565
3385  2023-11-01 13:43:20.536436
3386  2023-11-01 13:43:20.584467
3387  2023-11-01 13:43:20.632179
3388  2023-11-01 13:43:20.664093
3389  2023-11-01 13:43:20.712005
3390  2023-11-01 13:43:20.743929
3391  2023-11-01 13:43:20.791752
3392  2023-11-01 13:43:20.837675
3393  2023-11-01 13:43:20.883537
3394  2023-11-01 13:43:20.915452
3395  2023-11-01 13:43:20.963377
3396  2023-11-01 13:43:20.995330
3397  2023-11-01 13:43:21.043203
3398  2023-11-01 13:43:21.091138
3399  2023-11-01 13:43:21.123073
3400  2023-11-01 13:43:21.169925
3401  2023-11-01 13:43:21.216797
3402  2023-11-01 13:43:21.248714
3403  2023-11-01 13:43:21.296601
3404  2023-11-01 13:43:21.328499
3405  2023-11-01 13:43:21.377395
3406  2023-11-01 13:43:21.424258
3407  2023-11-01 13:43:21.456173
3408  2023-11-01 13:43:21.504044
3409  2023-11-01 13:43:21.548926
3410  2023-11-01 13:43:21.580830
3411  2023-11-01 13:43:21.629680
3412  2023-11-01 13:43:21.661585
3413  2023-11-01 13:43:21.709548
3414  2023-11-01 13:43:21.757359
3415  2023-11-01 13:43:21.786244
3416  2023-11-01 13:43:21.834274
3417  2023-11-01 13:43:21.882148
3418  2023-11-01 13:43:21.914064
3419  2023-11-01 13:43:21.961936
3420  2023-11-01 13:43:22.008814
3421  2023-11-01 13:43:22.039729
3422  2023-11-01 13:43:22.087749
3423  2023-11-01 13:43:22.133660
3424  2023-11-01 13:43:22.165643
3425  2023-11-01 13:43:22.213450
3426  2023-11-01 13:43:22.245328
3427  2023-11-01 13:43:22.293237
3428  2023-11-01 13:43:22.341109
3429  2023-11-01 13:43:22.373031
3430  2023-11-01 13:43:22.418911
3431  2023-11-01 13:43:22.466769
3432  2023-11-01 13:43:22.498699
3433  2023-11-01 13:43:22.546560
3434  2023-11-01 13:43:22.578471
3435  2023-11-01 13:43:22.626342
3436  2023-11-01 13:43:22.674217
3437  2023-11-01 13:43:22.706144
3438  2023-11-01 13:43:22.754002
3439  2023-11-01 13:43:22.785915
3440  2023-11-01 13:43:22.832758
3441  2023-11-01 13:43:22.879665
3442  2023-11-01 13:43:22.911581
3443  2023-11-01 13:43:22.959468
3444  2023-11-01 13:43:23.007306
3445  2023-11-01 13:43:23.039303
3446  2023-11-01 13:43:23.087177
3447  2023-11-01 13:43:23.119093
3448  2023-11-01 13:43:23.167966
3449  2023-11-01 13:43:23.212959
3450  2023-11-01 13:43:23.245848
3451  2023-11-01 13:43:23.292757
3452  2023-11-01 13:43:23.340642
3453  2023-11-01 13:43:23.370506
3454  2023-11-01 13:43:23.416383
3455  2023-11-01 13:43:23.464256
3456  2023-11-01 13:43:23.496171
3457  2023-11-01 13:43:23.543085
3458  2023-11-01 13:43:23.590918
3459  2023-11-01 13:43:23.621835
3460  2023-11-01 13:43:23.668760
3461  2023-11-01 13:43:23.716582
3462  2023-11-01 13:43:23.748527
3463  2023-11-01 13:43:23.797425
3464  2023-11-01 13:43:23.829331
3465  2023-11-01 13:43:23.874194
3466  2023-11-01 13:43:23.922064
3467  2023-11-01 13:43:23.953979
3468  2023-11-01 13:43:24.001850
3469  2023-11-01 13:43:24.047772
3470  2023-11-01 13:43:24.079654
3471  2023-11-01 13:43:24.127532
3472  2023-11-01 13:43:24.175394
3473  2023-11-01 13:43:24.208267
3474  2023-11-01 13:43:24.252182
3475  2023-11-01 13:43:24.300056
3476  2023-11-01 13:43:24.331936
3477  2023-11-01 13:43:24.379850
3478  2023-11-01 13:43:24.411724
3479  2023-11-01 13:43:24.460630
3480  2023-11-01 13:43:24.508515
3481  2023-11-01 13:43:24.538454
3482  2023-11-01 13:43:24.585339
3483  2023-11-01 13:43:24.632245
3484  2023-11-01 13:43:24.664128
3485  2023-11-01 13:43:24.712033
3486  2023-11-01 13:43:24.743917
3487  2023-11-01 13:43:24.791787
3488  2023-11-01 13:43:24.839695
3489  2023-11-01 13:43:24.871604
3490  2023-11-01 13:43:24.917451
3491  2023-11-01 13:43:24.965381
3492  2023-11-01 13:43:24.997263
3493  2023-11-01 13:43:25.045242
3494  2023-11-01 13:43:25.092113
3495  2023-11-01 13:43:25.123027
3496  2023-11-01 13:43:25.170903
3497  2023-11-01 13:43:25.202828
3498  2023-11-01 13:43:25.250689
3499  2023-11-01 13:43:25.298574
3500  2023-11-01 13:43:25.330472
3501  2023-11-01 13:43:25.378348
3502  2023-11-01 13:43:25.425223
3503  2023-11-01 13:43:25.456154
3504  2023-11-01 13:43:25.504012
3505  2023-11-01 13:43:25.535903
3506  2023-11-01 13:43:25.583800
3507  2023-11-01 13:43:25.630639
3508  2023-11-01 13:43:25.662587
3509  2023-11-01 13:43:25.709481
3510  2023-11-01 13:43:25.758348
3511  2023-11-01 13:43:25.789216
3512  2023-11-01 13:43:25.836329
3513  2023-11-01 13:43:25.883193
3514  2023-11-01 13:43:25.913182
3515  2023-11-01 13:43:25.961023
3516  2023-11-01 13:43:26.008940
3517  2023-11-01 13:43:26.040943
3518  2023-11-01 13:43:26.088781
3519  2023-11-01 13:43:26.119699
3520  2023-11-01 13:43:26.167580
3521  2023-11-01 13:43:26.214446
3522  2023-11-01 13:43:26.245363
3523  2023-11-01 13:43:26.293235
3524  2023-11-01 13:43:26.341180
3525  2023-11-01 13:43:26.373061
3526  2023-11-01 13:43:26.420894
3527  2023-11-01 13:43:26.466771
3528  2023-11-01 13:43:26.498726
3529  2023-11-01 13:43:26.546598
3530  2023-11-01 13:43:26.591438
3531  2023-11-01 13:43:26.623391
3532  2023-11-01 13:43:26.671273
3533  2023-11-01 13:43:26.703190
3534  2023-11-01 13:43:26.751052
3535  2023-11-01 13:43:26.798933
3536  2023-11-01 13:43:26.830831
3537  2023-11-01 13:43:26.878711
3538  2023-11-01 13:43:26.925710
3539  2023-11-01 13:43:26.957740
3540  2023-11-01 13:43:27.004713
3541  2023-11-01 13:43:27.051609
3542  2023-11-01 13:43:27.083498
3543  2023-11-01 13:43:27.130349
3544  2023-11-01 13:43:27.175277
3545  2023-11-01 13:43:27.206178
3546  2023-11-01 13:43:27.254017
3547  2023-11-01 13:43:27.285932
3548  2023-11-01 13:43:27.333920
3549  2023-11-01 13:43:27.381773
3550  2023-11-01 13:43:27.413787
3551  2023-11-01 13:43:27.461625
3552  2023-11-01 13:43:27.509497
3553  2023-11-01 13:43:27.541488
3554  2023-11-01 13:43:27.587408
3555  2023-11-01 13:43:27.634283
3556  2023-11-01 13:43:27.665232
3557  2023-11-01 13:43:27.712107
3558  2023-11-01 13:43:27.744022
3559  2023-11-01 13:43:27.791862
3560  2023-11-01 13:43:27.838773
3561  2023-11-01 13:43:27.869657
