
1  2023-12-01 16:10:47.305401
2  2023-12-01 16:10:47.336870
3  2023-12-01 16:10:47.369108
4  2023-12-01 16:10:47.417932
5  2023-12-01 16:10:47.449698
6  2023-12-01 16:10:47.481774
7  2023-12-01 16:10:47.513218
8  2023-12-01 16:10:47.545022
9  2023-12-01 16:10:47.577148
10  2023-12-01 16:10:47.609046
11  2023-12-01 16:10:47.641386
12  2023-12-01 16:10:47.673468
13  2023-12-01 16:10:47.705463
14  2023-12-01 16:10:47.737572
15  2023-12-01 16:10:47.769855
16  2023-12-01 16:10:47.818102
17  2023-12-01 16:10:47.849685
18  2023-12-01 16:10:47.881270
19  2023-12-01 16:10:47.913458
20  2023-12-01 16:10:47.945154
21  2023-12-01 16:10:47.977164
22  2023-12-01 16:10:48.009446
23  2023-12-01 16:10:48.041443
24  2023-12-01 16:10:48.073112
25  2023-12-01 16:10:48.105531
26  2023-12-01 16:10:48.137987
27  2023-12-01 16:10:48.170098
28  2023-12-01 16:10:48.217997
29  2023-12-01 16:10:48.249670
30  2023-12-01 16:10:48.280885
31  2023-12-01 16:10:48.314127
32  2023-12-01 16:10:48.345484
33  2023-12-01 16:10:48.377395
34  2023-12-01 16:10:48.409494
35  2023-12-01 16:10:48.441407
36  2023-12-01 16:10:48.473501
37  2023-12-01 16:10:48.504982
38  2023-12-01 16:10:48.537568
39  2023-12-01 16:10:48.569518
40  2023-12-01 16:10:48.617108
41  2023-12-01 16:10:48.649731
42  2023-12-01 16:10:48.681582
43  2023-12-01 16:10:48.712981
44  2023-12-01 16:10:48.745357
45  2023-12-01 16:10:48.777611
46  2023-12-01 16:10:48.810081
47  2023-12-01 16:10:48.841811
48  2023-12-01 16:10:48.874147
49  2023-12-01 16:10:48.905070
50  2023-12-01 16:10:48.937232
51  2023-12-01 16:10:48.968982
52  2023-12-01 16:10:49.017632
53  2023-12-01 16:10:49.050092
54  2023-12-01 16:10:49.081994
55  2023-12-01 16:10:49.113634
56  2023-12-01 16:10:49.146108
57  2023-12-01 16:10:49.177844
58  2023-12-01 16:10:49.209548
59  2023-12-01 16:10:49.241676
60  2023-12-01 16:10:49.273836
61  2023-12-01 16:10:49.305579
62  2023-12-01 16:10:49.337622
63  2023-12-01 16:10:49.370053
64  2023-12-01 16:10:49.417480
65  2023-12-01 16:10:49.448977
66  2023-12-01 16:10:49.481647
67  2023-12-01 16:10:49.513618
68  2023-12-01 16:10:49.545912
69  2023-12-01 16:10:49.577125
70  2023-12-01 16:10:49.609405
71  2023-12-01 16:10:49.641435
72  2023-12-01 16:10:49.673791
73  2023-12-01 16:10:49.705109
74  2023-12-01 16:10:49.738138
75  2023-12-01 16:10:49.769048
76  2023-12-01 16:10:49.817837
77  2023-12-01 16:10:49.850064
78  2023-12-01 16:10:49.881416
79  2023-12-01 16:10:49.913838
80  2023-12-01 16:10:49.945858
81  2023-12-01 16:10:49.976823
82  2023-12-01 16:10:50.009291
83  2023-12-01 16:10:50.041236
84  2023-12-01 16:10:50.073215
85  2023-12-01 16:10:50.105063
86  2023-12-01 16:10:50.136852
87  2023-12-01 16:10:50.169986
88  2023-12-01 16:10:50.218015
89  2023-12-01 16:10:50.250064
90  2023-12-01 16:10:50.281073
91  2023-12-01 16:10:50.313987
92  2023-12-01 16:10:50.345968
93  2023-12-01 16:10:50.377184
94  2023-12-01 16:10:50.409294
95  2023-12-01 16:10:50.441084
96  2023-12-01 16:10:50.473268
97  2023-12-01 16:10:50.505039
98  2023-12-01 16:10:50.536983
99  2023-12-01 16:10:50.568864
100  2023-12-01 16:10:50.617698
101  2023-12-01 16:10:50.649902
102  2023-12-01 16:10:50.681430
103  2023-12-01 16:10:50.713139
104  2023-12-01 16:10:50.745799
105  2023-12-01 16:10:50.777136
106  2023-12-01 16:10:50.809154
107  2023-12-01 16:10:50.841658
108  2023-12-01 16:10:50.873043
109  2023-12-01 16:10:50.905245
110  2023-12-01 16:10:50.937671
111  2023-12-01 16:10:50.970207
112  2023-12-01 16:10:51.017063
113  2023-12-01 16:10:51.049716
114  2023-12-01 16:10:51.081750
115  2023-12-01 16:10:51.113510
116  2023-12-01 16:10:51.145886
117  2023-12-01 16:10:51.177172
118  2023-12-01 16:10:51.209184
119  2023-12-01 16:10:51.241362
120  2023-12-01 16:10:51.273547
121  2023-12-01 16:10:51.305073
122  2023-12-01 16:10:51.337939
123  2023-12-01 16:10:51.369840
124  2023-12-01 16:10:51.417916
125  2023-12-01 16:10:51.449271
126  2023-12-01 16:10:51.481403
127  2023-12-01 16:10:51.513203
128  2023-12-01 16:10:51.545159
129  2023-12-01 16:10:51.576945
130  2023-12-01 16:10:51.609412
131  2023-12-01 16:10:51.641447
132  2023-12-01 16:10:51.673786
133  2023-12-01 16:10:51.705550
134  2023-12-01 16:10:51.737757
135  2023-12-01 16:10:51.769544
136  2023-12-01 16:10:51.817113
137  2023-12-01 16:10:51.849908
138  2023-12-01 16:10:51.881989
139  2023-12-01 16:10:51.913076
140  2023-12-01 16:10:51.945580
141  2023-12-01 16:10:51.977016
142  2023-12-01 16:10:52.009287
143  2023-12-01 16:10:52.041270
144  2023-12-01 16:10:52.073222
145  2023-12-01 16:10:52.105321
146  2023-12-01 16:10:52.138110
147  2023-12-01 16:10:52.169287
148  2023-12-01 16:10:52.217471
149  2023-12-01 16:10:52.249271
150  2023-12-01 16:10:52.281837
151  2023-12-01 16:10:52.313684
152  2023-12-01 16:10:52.345675
153  2023-12-01 16:10:52.376911
154  2023-12-01 16:10:52.409774
155  2023-12-01 16:10:52.441235
156  2023-12-01 16:10:52.474051
157  2023-12-01 16:10:52.506077
158  2023-12-01 16:10:52.537858
159  2023-12-01 16:10:52.570062
160  2023-12-01 16:10:52.617296
161  2023-12-01 16:10:52.649263
162  2023-12-01 16:10:52.681328
163  2023-12-01 16:10:52.713210
164  2023-12-01 16:10:52.745834
165  2023-12-01 16:10:52.777874
166  2023-12-01 16:10:52.809894
167  2023-12-01 16:10:52.841698
168  2023-12-01 16:10:52.873069
169  2023-12-01 16:10:52.905121
170  2023-12-01 16:10:52.937638
171  2023-12-01 16:10:52.969934
172  2023-12-01 16:10:53.018052
173  2023-12-01 16:10:53.049704
174  2023-12-01 16:10:53.081657
175  2023-12-01 16:10:53.113167
176  2023-12-01 16:10:53.145165
177  2023-12-01 16:10:53.177779
178  2023-12-01 16:10:53.209635
179  2023-12-01 16:10:53.241361
180  2023-12-01 16:10:53.273842
181  2023-12-01 16:10:53.305731
182  2023-12-01 16:10:53.337941
183  2023-12-01 16:10:53.369244
184  2023-12-01 16:10:53.417647
185  2023-12-01 16:10:53.449577
186  2023-12-01 16:10:53.480986
187  2023-12-01 16:10:53.513785
188  2023-12-01 16:10:53.545847
189  2023-12-01 16:10:53.577883
190  2023-12-01 16:10:53.609393
191  2023-12-01 16:10:53.641878
192  2023-12-01 16:10:53.673848
193  2023-12-01 16:10:53.705571
194  2023-12-01 16:10:53.737264
195  2023-12-01 16:10:53.769066
196  2023-12-01 16:10:53.817678
197  2023-12-01 16:10:53.849127
198  2023-12-01 16:10:53.881393
199  2023-12-01 16:10:53.913437
200  2023-12-01 16:10:53.945792
201  2023-12-01 16:10:53.976915
202  2023-12-01 16:10:54.009637
203  2023-12-01 16:10:54.041946
204  2023-12-01 16:10:54.073218
205  2023-12-01 16:10:54.105853
206  2023-12-01 16:10:54.137983
207  2023-12-01 16:10:54.169863
208  2023-12-01 16:10:54.217042
209  2023-12-01 16:10:54.249295
210  2023-12-01 16:10:54.281498
211  2023-12-01 16:10:54.313153
212  2023-12-01 16:10:54.345612
213  2023-12-01 16:10:54.377983
214  2023-12-01 16:10:54.409192
215  2023-12-01 16:10:54.441530
216  2023-12-01 16:10:54.473443
217  2023-12-01 16:10:54.506086
218  2023-12-01 16:10:54.538064
219  2023-12-01 16:10:54.569890
220  2023-12-01 16:10:54.616982
221  2023-12-01 16:10:54.649587
222  2023-12-01 16:10:54.681641
223  2023-12-01 16:10:54.713751
224  2023-12-01 16:10:54.745857
225  2023-12-01 16:10:54.777648
226  2023-12-01 16:10:54.809051
227  2023-12-01 16:10:54.841783
228  2023-12-01 16:10:54.873840
229  2023-12-01 16:10:54.905807
230  2023-12-01 16:10:54.937410
231  2023-12-01 16:10:54.970177
232  2023-12-01 16:10:55.017728
233  2023-12-01 16:10:55.049874
234  2023-12-01 16:10:55.081798
235  2023-12-01 16:10:55.113654
236  2023-12-01 16:10:55.145724
237  2023-12-01 16:10:55.177799
238  2023-12-01 16:10:55.209334
239  2023-12-01 16:10:55.241458
240  2023-12-01 16:10:55.274042
241  2023-12-01 16:10:55.305515
242  2023-12-01 16:10:55.337165
243  2023-12-01 16:10:55.370323
244  2023-12-01 16:10:55.417413
245  2023-12-01 16:10:55.449236
246  2023-12-01 16:10:55.481086
247  2023-12-01 16:10:55.513643
248  2023-12-01 16:10:55.545651
249  2023-12-01 16:10:55.577645
250  2023-12-01 16:10:55.609334
251  2023-12-01 16:10:55.640907
252  2023-12-01 16:10:55.673919
253  2023-12-01 16:10:55.705109
254  2023-12-01 16:10:55.737496
255  2023-12-01 16:10:55.769165
256  2023-12-01 16:10:55.818047
257  2023-12-01 16:10:55.848966
258  2023-12-01 16:10:55.881649
259  2023-12-01 16:10:55.912986
260  2023-12-01 16:10:55.945484
261  2023-12-01 16:10:55.978052
262  2023-12-01 16:10:56.009977
263  2023-12-01 16:10:56.041347
264  2023-12-01 16:10:56.073518
265  2023-12-01 16:10:56.106044
266  2023-12-01 16:10:56.137529
267  2023-12-01 16:10:56.169780
268  2023-12-01 16:10:56.218164
269  2023-12-01 16:10:56.249233
270  2023-12-01 16:10:56.281707
271  2023-12-01 16:10:56.313347
272  2023-12-01 16:10:56.345655
273  2023-12-01 16:10:56.376945
274  2023-12-01 16:10:56.409128
275  2023-12-01 16:10:56.441069
276  2023-12-01 16:10:56.473801
277  2023-12-01 16:10:56.505662
278  2023-12-01 16:10:56.536901
279  2023-12-01 16:10:56.570312
280  2023-12-01 16:10:56.617231
281  2023-12-01 16:10:56.649128
282  2023-12-01 16:10:56.680987
283  2023-12-01 16:10:56.712986
284  2023-12-01 16:10:56.745245
285  2023-12-01 16:10:56.777821
286  2023-12-01 16:10:56.809324
287  2023-12-01 16:10:56.841991
288  2023-12-01 16:10:56.872958
289  2023-12-01 16:10:56.905193
290  2023-12-01 16:10:56.937110
291  2023-12-01 16:10:56.969168
292  2023-12-01 16:10:57.017911
293  2023-12-01 16:10:57.049115
294  2023-12-01 16:10:57.081680
295  2023-12-01 16:10:57.113857
296  2023-12-01 16:10:57.144942
297  2023-12-01 16:10:57.177872
298  2023-12-01 16:10:57.209168
299  2023-12-01 16:10:57.241907
300  2023-12-01 16:10:57.274155
301  2023-12-01 16:10:57.305619
302  2023-12-01 16:10:57.338348
303  2023-12-01 16:10:57.369959
304  2023-12-01 16:10:57.418145
305  2023-12-01 16:10:57.449442
306  2023-12-01 16:10:57.481417
307  2023-12-01 16:10:57.513180
308  2023-12-01 16:10:57.545234
309  2023-12-01 16:10:57.577073
310  2023-12-01 16:10:57.609542
311  2023-12-01 16:10:57.641100
312  2023-12-01 16:10:57.673864
313  2023-12-01 16:10:57.706172
314  2023-12-01 16:10:57.738022
315  2023-12-01 16:10:57.769475
316  2023-12-01 16:10:57.817602
317  2023-12-01 16:10:57.849448
318  2023-12-01 16:10:57.881646
319  2023-12-01 16:10:57.913085
320  2023-12-01 16:10:57.945565
321  2023-12-01 16:10:57.977283
322  2023-12-01 16:10:58.008932
323  2023-12-01 16:10:58.041392
324  2023-12-01 16:10:58.073019
325  2023-12-01 16:10:58.106040
326  2023-12-01 16:10:58.138278
327  2023-12-01 16:10:58.169886
328  2023-12-01 16:10:58.218080
329  2023-12-01 16:10:58.249055
330  2023-12-01 16:10:58.281075
331  2023-12-01 16:10:58.313995
332  2023-12-01 16:10:58.345284
333  2023-12-01 16:10:58.377268
334  2023-12-01 16:10:58.409224
335  2023-12-01 16:10:58.441255
336  2023-12-01 16:10:58.473801
337  2023-12-01 16:10:58.506050
338  2023-12-01 16:10:58.537716
339  2023-12-01 16:10:58.569682
340  2023-12-01 16:10:58.616988
341  2023-12-01 16:10:58.649825
342  2023-12-01 16:10:58.682051
343  2023-12-01 16:10:58.713859
344  2023-12-01 16:10:58.745648
345  2023-12-01 16:10:58.777176
346  2023-12-01 16:10:58.809469
347  2023-12-01 16:10:58.841970
348  2023-12-01 16:10:58.873962
349  2023-12-01 16:10:58.907672
350  2023-12-01 16:10:58.937557
351  2023-12-01 16:10:58.970013
352  2023-12-01 16:10:59.017480
353  2023-12-01 16:10:59.049761
354  2023-12-01 16:10:59.080993
355  2023-12-01 16:10:59.113646
356  2023-12-01 16:10:59.145399
357  2023-12-01 16:10:59.177127
358  2023-12-01 16:10:59.209526
359  2023-12-01 16:10:59.240963
360  2023-12-01 16:10:59.274029
361  2023-12-01 16:10:59.307282
362  2023-12-01 16:10:59.338277
363  2023-12-01 16:10:59.370043
364  2023-12-01 16:10:59.416952
365  2023-12-01 16:10:59.449760
366  2023-12-01 16:10:59.482099
367  2023-12-01 16:10:59.513113
368  2023-12-01 16:10:59.545065
369  2023-12-01 16:10:59.577308
370  2023-12-01 16:10:59.609303
371  2023-12-01 16:10:59.641699
372  2023-12-01 16:10:59.673187
373  2023-12-01 16:10:59.706292
374  2023-12-01 16:10:59.737799
375  2023-12-01 16:10:59.769723
376  2023-12-01 16:10:59.816717
377  2023-12-01 16:10:59.850025
378  2023-12-01 16:10:59.881696
379  2023-12-01 16:10:59.913071
380  2023-12-01 16:10:59.945094
381  2023-12-01 16:10:59.977282
382  2023-12-01 16:11:00.009534
383  2023-12-01 16:11:00.041629
384  2023-12-01 16:11:00.074080
385  2023-12-01 16:11:00.106306
386  2023-12-01 16:11:00.137036
387  2023-12-01 16:11:00.169546
388  2023-12-01 16:11:00.216762
389  2023-12-01 16:11:00.249714
390  2023-12-01 16:11:00.281578
391  2023-12-01 16:11:00.313596
392  2023-12-01 16:11:00.345413
393  2023-12-01 16:11:00.377414
394  2023-12-01 16:11:00.409686
395  2023-12-01 16:11:00.440881
396  2023-12-01 16:11:00.473913
397  2023-12-01 16:11:00.505799
398  2023-12-01 16:11:00.538163
399  2023-12-01 16:11:00.570090
400  2023-12-01 16:11:00.618047
401  2023-12-01 16:11:00.649852
402  2023-12-01 16:11:00.680768
403  2023-12-01 16:11:00.713434
404  2023-12-01 16:11:00.744846
405  2023-12-01 16:11:00.777906
406  2023-12-01 16:11:00.808877
407  2023-12-01 16:11:00.841035
408  2023-12-01 16:11:00.874038
409  2023-12-01 16:11:00.905331
410  2023-12-01 16:11:00.938390
411  2023-12-01 16:11:00.970426
412  2023-12-01 16:11:01.017220
413  2023-12-01 16:11:01.049970
414  2023-12-01 16:11:01.081788
415  2023-12-01 16:11:01.113429
416  2023-12-01 16:11:01.145694
417  2023-12-01 16:11:01.178051
418  2023-12-01 16:11:01.209167
419  2023-12-01 16:11:01.241638
420  2023-12-01 16:11:01.273796
421  2023-12-01 16:11:01.305851
422  2023-12-01 16:11:01.337972
423  2023-12-01 16:11:01.370514
424  2023-12-01 16:11:01.416990
425  2023-12-01 16:11:01.449154
426  2023-12-01 16:11:01.481986
427  2023-12-01 16:11:01.513785
428  2023-12-01 16:11:01.546013
429  2023-12-01 16:11:01.577333
430  2023-12-01 16:11:01.609410
431  2023-12-01 16:11:01.641694
432  2023-12-01 16:11:01.674035
433  2023-12-01 16:11:01.706220
434  2023-12-01 16:11:01.737257
435  2023-12-01 16:11:01.769134
436  2023-12-01 16:11:01.817542
437  2023-12-01 16:11:01.850115
438  2023-12-01 16:11:01.881094
439  2023-12-01 16:11:01.913449
440  2023-12-01 16:11:01.945079
441  2023-12-01 16:11:01.977569
442  2023-12-01 16:11:02.009450
443  2023-12-01 16:11:02.041261
444  2023-12-01 16:11:02.074034
445  2023-12-01 16:11:02.106272
446  2023-12-01 16:11:02.138387
447  2023-12-01 16:11:02.170303
448  2023-12-01 16:11:02.217480
449  2023-12-01 16:11:02.250290
450  2023-12-01 16:11:02.281791
451  2023-12-01 16:11:02.313025
452  2023-12-01 16:11:02.345851
453  2023-12-01 16:11:02.377714
454  2023-12-01 16:11:02.408812
455  2023-12-01 16:11:02.440840
456  2023-12-01 16:11:02.472974
457  2023-12-01 16:11:02.506373
458  2023-12-01 16:11:02.538168
459  2023-12-01 16:11:02.570105
460  2023-12-01 16:11:02.617255
461  2023-12-01 16:11:02.650339
462  2023-12-01 16:11:02.682119
463  2023-12-01 16:11:02.713461
464  2023-12-01 16:11:02.745988
465  2023-12-01 16:11:02.778031
466  2023-12-01 16:11:02.809877
467  2023-12-01 16:11:02.840891
468  2023-12-01 16:11:02.873372
469  2023-12-01 16:11:02.905848
470  2023-12-01 16:11:02.937731
471  2023-12-01 16:11:02.970331
472  2023-12-01 16:11:03.018045
473  2023-12-01 16:11:03.050054
474  2023-12-01 16:11:03.081909
475  2023-12-01 16:11:03.113013
476  2023-12-01 16:11:03.146052
477  2023-12-01 16:11:03.177943
478  2023-12-01 16:11:03.209571
479  2023-12-01 16:11:03.241795
480  2023-12-01 16:11:03.273718
481  2023-12-01 16:11:03.305711
482  2023-12-01 16:11:03.338259
483  2023-12-01 16:11:03.369277
484  2023-12-01 16:11:03.417530
485  2023-12-01 16:11:03.449762
486  2023-12-01 16:11:03.481994
487  2023-12-01 16:11:03.514008
488  2023-12-01 16:11:03.546065
489  2023-12-01 16:11:03.577324
490  2023-12-01 16:11:03.609773
491  2023-12-01 16:11:03.641662
492  2023-12-01 16:11:03.673866
493  2023-12-01 16:11:03.706051
494  2023-12-01 16:11:03.737908
495  2023-12-01 16:11:03.769945
496  2023-12-01 16:11:03.817475
497  2023-12-01 16:11:03.849340
498  2023-12-01 16:11:03.880774
499  2023-12-01 16:11:03.912897
500  2023-12-01 16:11:03.945656
501  2023-12-01 16:11:03.977230
502  2023-12-01 16:11:04.009678
503  2023-12-01 16:11:04.041316
504  2023-12-01 16:11:04.072880
505  2023-12-01 16:11:04.106202
506  2023-12-01 16:11:04.138015
507  2023-12-01 16:11:04.169490
508  2023-12-01 16:11:04.218312
509  2023-12-01 16:11:04.249255
510  2023-12-01 16:11:04.281282
511  2023-12-01 16:11:04.313943
512  2023-12-01 16:11:04.345943
513  2023-12-01 16:11:04.376911
514  2023-12-01 16:11:04.409550
515  2023-12-01 16:11:04.441345
516  2023-12-01 16:11:04.473679
517  2023-12-01 16:11:04.505355
518  2023-12-01 16:11:04.537348
519  2023-12-01 16:11:04.570024
520  2023-12-01 16:11:04.617712
521  2023-12-01 16:11:04.650198
522  2023-12-01 16:11:04.681727
523  2023-12-01 16:11:04.713667
524  2023-12-01 16:11:04.746057
525  2023-12-01 16:11:04.777930
526  2023-12-01 16:11:04.809717
527  2023-12-01 16:11:04.841835
528  2023-12-01 16:11:04.874112
529  2023-12-01 16:11:04.906287
530  2023-12-01 16:11:04.937704
531  2023-12-01 16:11:04.968723
532  2023-12-01 16:11:05.016992
533  2023-12-01 16:11:05.049118
534  2023-12-01 16:11:05.081747
535  2023-12-01 16:11:05.113751
536  2023-12-01 16:11:05.146045
537  2023-12-01 16:11:05.177295
538  2023-12-01 16:11:05.209851
539  2023-12-01 16:11:05.241780
540  2023-12-01 16:11:05.273579
541  2023-12-01 16:11:05.306410
542  2023-12-01 16:11:05.338045
543  2023-12-01 16:11:05.369511
544  2023-12-01 16:11:05.417626
545  2023-12-01 16:11:05.449747
546  2023-12-01 16:11:05.481064
547  2023-12-01 16:11:05.513712
548  2023-12-01 16:11:05.545648
549  2023-12-01 16:11:05.577020
550  2023-12-01 16:11:05.609022
551  2023-12-01 16:11:05.641428
552  2023-12-01 16:11:05.674113
553  2023-12-01 16:11:05.706309
554  2023-12-01 16:11:05.737631
555  2023-12-01 16:11:05.770133
556  2023-12-01 16:11:05.817851
557  2023-12-01 16:11:05.849651
558  2023-12-01 16:11:05.881330
559  2023-12-01 16:11:05.913011
560  2023-12-01 16:11:05.944977
561  2023-12-01 16:11:05.976989
562  2023-12-01 16:11:06.009193
563  2023-12-01 16:11:06.041504
564  2023-12-01 16:11:06.073186
565  2023-12-01 16:11:06.105096
566  2023-12-01 16:11:06.137473
567  2023-12-01 16:11:06.169281
568  2023-12-01 16:11:06.217638
569  2023-12-01 16:11:06.249607
570  2023-12-01 16:11:06.281682
571  2023-12-01 16:11:06.313117
572  2023-12-01 16:11:06.345170
573  2023-12-01 16:11:06.377717
574  2023-12-01 16:11:06.409556
575  2023-12-01 16:11:06.441790
576  2023-12-01 16:11:06.473940
577  2023-12-01 16:11:06.505827
578  2023-12-01 16:11:06.537541
579  2023-12-01 16:11:06.569521
580  2023-12-01 16:11:06.617069
581  2023-12-01 16:11:06.649090
582  2023-12-01 16:11:06.681652
583  2023-12-01 16:11:06.713120
584  2023-12-01 16:11:06.745143
585  2023-12-01 16:11:06.777159
586  2023-12-01 16:11:06.809494
587  2023-12-01 16:11:06.842041
588  2023-12-01 16:11:06.874144
589  2023-12-01 16:11:06.906318
590  2023-12-01 16:11:06.938030
591  2023-12-01 16:11:06.969238
592  2023-12-01 16:11:07.017083
593  2023-12-01 16:11:07.049736
594  2023-12-01 16:11:07.081122
595  2023-12-01 16:11:07.112916
596  2023-12-01 16:11:07.144825
597  2023-12-01 16:11:07.177452
598  2023-12-01 16:11:07.209481
599  2023-12-01 16:11:07.241230
600  2023-12-01 16:11:07.272988
601  2023-12-01 16:11:07.306242
602  2023-12-01 16:11:07.338018
603  2023-12-01 16:11:07.369689
604  2023-12-01 16:11:07.418079
605  2023-12-01 16:11:07.449872
606  2023-12-01 16:11:07.481922
607  2023-12-01 16:11:07.513232
608  2023-12-01 16:11:07.544901
609  2023-12-01 16:11:07.577235
610  2023-12-01 16:11:07.609616
611  2023-12-01 16:11:07.642818
612  2023-12-01 16:11:07.673343
613  2023-12-01 16:11:07.706274
614  2023-12-01 16:11:07.737377
615  2023-12-01 16:11:07.768813
616  2023-12-01 16:11:07.817706
617  2023-12-01 16:11:07.849165
618  2023-12-01 16:11:07.881764
619  2023-12-01 16:11:07.913733
620  2023-12-01 16:11:07.945297
621  2023-12-01 16:11:07.977385
622  2023-12-01 16:11:08.008723
623  2023-12-01 16:11:08.041533
624  2023-12-01 16:11:08.074231
625  2023-12-01 16:11:08.106045
626  2023-12-01 16:11:08.138124
627  2023-12-01 16:11:08.170029
628  2023-12-01 16:11:08.217802
629  2023-12-01 16:11:08.249731
630  2023-12-01 16:11:08.281548
631  2023-12-01 16:11:08.312995
632  2023-12-01 16:11:08.345246
633  2023-12-01 16:11:08.377510
634  2023-12-01 16:11:08.409711
635  2023-12-01 16:11:08.442223
636  2023-12-01 16:11:08.473139
637  2023-12-01 16:11:08.505517
638  2023-12-01 16:11:08.537264
639  2023-12-01 16:11:08.570501
640  2023-12-01 16:11:08.617523
641  2023-12-01 16:11:08.650065
642  2023-12-01 16:11:08.681123
643  2023-12-01 16:11:08.713865
644  2023-12-01 16:11:08.745016
645  2023-12-01 16:11:08.777232
646  2023-12-01 16:11:08.809804
647  2023-12-01 16:11:08.841262
648  2023-12-01 16:11:08.873753
649  2023-12-01 16:11:08.905238
650  2023-12-01 16:11:08.937959
651  2023-12-01 16:11:08.970504
652  2023-12-01 16:11:09.017648
653  2023-12-01 16:11:09.050055
654  2023-12-01 16:11:09.081118
655  2023-12-01 16:11:09.113498
656  2023-12-01 16:11:09.145782
657  2023-12-01 16:11:09.177203
658  2023-12-01 16:11:09.210020
659  2023-12-01 16:11:09.241647
660  2023-12-01 16:11:09.273762
661  2023-12-01 16:11:09.305882
662  2023-12-01 16:11:09.338037
663  2023-12-01 16:11:09.369034
664  2023-12-01 16:11:09.417519
665  2023-12-01 16:11:09.449124
666  2023-12-01 16:11:09.481824
667  2023-12-01 16:11:09.513513
668  2023-12-01 16:11:09.545626
669  2023-12-01 16:11:09.577684
670  2023-12-01 16:11:09.609640
671  2023-12-01 16:11:09.642477
672  2023-12-01 16:11:09.674247
673  2023-12-01 16:11:09.706286
674  2023-12-01 16:11:09.738358
675  2023-12-01 16:11:09.770136
676  2023-12-01 16:11:09.817267
677  2023-12-01 16:11:09.850136
678  2023-12-01 16:11:09.881630
679  2023-12-01 16:11:09.913608
680  2023-12-01 16:11:09.945680
681  2023-12-01 16:11:09.977306
682  2023-12-01 16:11:10.010547
683  2023-12-01 16:11:10.042141
684  2023-12-01 16:11:10.074285
685  2023-12-01 16:11:10.106329
686  2023-12-01 16:11:10.138549
687  2023-12-01 16:11:10.169796
688  2023-12-01 16:11:10.216995
689  2023-12-01 16:11:10.249119
690  2023-12-01 16:11:10.282120
691  2023-12-01 16:11:10.314132
692  2023-12-01 16:11:10.344967
693  2023-12-01 16:11:10.377460
694  2023-12-01 16:11:10.409727
695  2023-12-01 16:11:10.440913
696  2023-12-01 16:11:10.473103
697  2023-12-01 16:11:10.506380
698  2023-12-01 16:11:10.537719
699  2023-12-01 16:11:10.570063
700  2023-12-01 16:11:10.617059
701  2023-12-01 16:11:10.649948
702  2023-12-01 16:11:10.681573
703  2023-12-01 16:11:10.713081
704  2023-12-01 16:11:10.745908
705  2023-12-01 16:11:10.777421
706  2023-12-01 16:11:10.810565
707  2023-12-01 16:11:10.841943
708  2023-12-01 16:11:10.874099
709  2023-12-01 16:11:10.905967
710  2023-12-01 16:11:10.938070
711  2023-12-01 16:11:10.968823
712  2023-12-01 16:11:11.017596
713  2023-12-01 16:11:11.049576
714  2023-12-01 16:11:11.081126
715  2023-12-01 16:11:11.113167
716  2023-12-01 16:11:11.145964
717  2023-12-01 16:11:11.177595
718  2023-12-01 16:11:11.209715
719  2023-12-01 16:11:11.241933
720  2023-12-01 16:11:11.274366
721  2023-12-01 16:11:11.306290
722  2023-12-01 16:11:11.338280
723  2023-12-01 16:11:11.370292
724  2023-12-01 16:11:11.417955
725  2023-12-01 16:11:11.448989
726  2023-12-01 16:11:11.481166
727  2023-12-01 16:11:11.513322
728  2023-12-01 16:11:11.545238
729  2023-12-01 16:11:11.577332
730  2023-12-01 16:11:11.609461
731  2023-12-01 16:11:11.642322
732  2023-12-01 16:11:11.674235
733  2023-12-01 16:11:11.706063
734  2023-12-01 16:11:11.738052
735  2023-12-01 16:11:11.770767
736  2023-12-01 16:11:11.817880
737  2023-12-01 16:11:11.850068
738  2023-12-01 16:11:11.881550
739  2023-12-01 16:11:11.914088
740  2023-12-01 16:11:11.946161
741  2023-12-01 16:11:11.977319
742  2023-12-01 16:11:12.009944
743  2023-12-01 16:11:12.042062
744  2023-12-01 16:11:12.073806
745  2023-12-01 16:11:12.105720
746  2023-12-01 16:11:12.137072
747  2023-12-01 16:11:12.169018
748  2023-12-01 16:11:12.217069
749  2023-12-01 16:11:12.249854
750  2023-12-01 16:11:12.281929
751  2023-12-01 16:11:12.313973
752  2023-12-01 16:11:12.346030
753  2023-12-01 16:11:12.377398
754  2023-12-01 16:11:12.409588
755  2023-12-01 16:11:12.441888
756  2023-12-01 16:11:12.474270
757  2023-12-01 16:11:12.505780
758  2023-12-01 16:11:12.538278
759  2023-12-01 16:11:12.569787
760  2023-12-01 16:11:12.617705
761  2023-12-01 16:11:12.649203
762  2023-12-01 16:11:12.681024
763  2023-12-01 16:11:12.713415
764  2023-12-01 16:11:12.745690
765  2023-12-01 16:11:12.778417
766  2023-12-01 16:11:12.810785
767  2023-12-01 16:11:12.841165
768  2023-12-01 16:11:12.874297
769  2023-12-01 16:11:12.906127
770  2023-12-01 16:11:12.938535
771  2023-12-01 16:11:12.969852
772  2023-12-01 16:11:13.017846
773  2023-12-01 16:11:13.049868
774  2023-12-01 16:11:13.081126
775  2023-12-01 16:11:13.113764
776  2023-12-01 16:11:13.145951
777  2023-12-01 16:11:13.177329
778  2023-12-01 16:11:13.208971
779  2023-12-01 16:11:13.242015
780  2023-12-01 16:11:13.273323
781  2023-12-01 16:11:13.306254
782  2023-12-01 16:11:13.338062
783  2023-12-01 16:11:13.369289
784  2023-12-01 16:11:13.417056
785  2023-12-01 16:11:13.449059
786  2023-12-01 16:11:13.481652
787  2023-12-01 16:11:13.513002
788  2023-12-01 16:11:13.545871
789  2023-12-01 16:11:13.578044
790  2023-12-01 16:11:13.610157
791  2023-12-01 16:11:13.641758
792  2023-12-01 16:11:13.674068
793  2023-12-01 16:11:13.705170
794  2023-12-01 16:11:13.737023
795  2023-12-01 16:11:13.769669
796  2023-12-01 16:11:13.817783
797  2023-12-01 16:11:13.849126
798  2023-12-01 16:11:13.881060
799  2023-12-01 16:11:13.913775
800  2023-12-01 16:11:13.945136
801  2023-12-01 16:11:13.978229
802  2023-12-01 16:11:14.010474
803  2023-12-01 16:11:14.042524
804  2023-12-01 16:11:14.073715
805  2023-12-01 16:11:14.106343
806  2023-12-01 16:11:14.138047
807  2023-12-01 16:11:14.169694
808  2023-12-01 16:11:14.216977
809  2023-12-01 16:11:14.249280
810  2023-12-01 16:11:14.281115
811  2023-12-01 16:11:14.313430
812  2023-12-01 16:11:14.346172
813  2023-12-01 16:11:14.377509
814  2023-12-01 16:11:14.410033
815  2023-12-01 16:11:14.442020
816  2023-12-01 16:11:14.473260
817  2023-12-01 16:11:14.505271
818  2023-12-01 16:11:14.537926
819  2023-12-01 16:11:14.569628
820  2023-12-01 16:11:14.617805
821  2023-12-01 16:11:14.650063
822  2023-12-01 16:11:14.681251
823  2023-12-01 16:11:14.714008
824  2023-12-01 16:11:14.745922
825  2023-12-01 16:11:14.777776
826  2023-12-01 16:11:14.808869
827  2023-12-01 16:11:14.841811
828  2023-12-01 16:11:14.873512
829  2023-12-01 16:11:14.906355
830  2023-12-01 16:11:14.938386
831  2023-12-01 16:11:14.969364
832  2023-12-01 16:11:15.017304
833  2023-12-01 16:11:15.050099
834  2023-12-01 16:11:15.081053
835  2023-12-01 16:11:15.113122
836  2023-12-01 16:11:15.145187
837  2023-12-01 16:11:15.177683
838  2023-12-01 16:11:15.209552
839  2023-12-01 16:11:15.241876
840  2023-12-01 16:11:15.273755
841  2023-12-01 16:11:15.305202
842  2023-12-01 16:11:15.336989
843  2023-12-01 16:11:15.370080
844  2023-12-01 16:11:15.417127
845  2023-12-01 16:11:15.449972
846  2023-12-01 16:11:15.482084
847  2023-12-01 16:11:15.513063
848  2023-12-01 16:11:15.546218
849  2023-12-01 16:11:15.577488
850  2023-12-01 16:11:15.610742
851  2023-12-01 16:11:15.643012
852  2023-12-01 16:11:15.674414
853  2023-12-01 16:11:15.705977
854  2023-12-01 16:11:15.738338
855  2023-12-01 16:11:15.769139
856  2023-12-01 16:11:15.816699
857  2023-12-01 16:11:15.849579
858  2023-12-01 16:11:15.881426
859  2023-12-01 16:11:15.913126
860  2023-12-01 16:11:15.945777
861  2023-12-01 16:11:15.977649
862  2023-12-01 16:11:16.009386
863  2023-12-01 16:11:16.042447
864  2023-12-01 16:11:16.074375
865  2023-12-01 16:11:16.106313
866  2023-12-01 16:11:16.138030
867  2023-12-01 16:11:16.170235
868  2023-12-01 16:11:16.217068
869  2023-12-01 16:11:16.249150
870  2023-12-01 16:11:16.280824
871  2023-12-01 16:11:16.313778
872  2023-12-01 16:11:16.346260
873  2023-12-01 16:11:16.377500
874  2023-12-01 16:11:16.408996
875  2023-12-01 16:11:16.441379
876  2023-12-01 16:11:16.473507
877  2023-12-01 16:11:16.505274
878  2023-12-01 16:11:16.538268
879  2023-12-01 16:11:16.569978
880  2023-12-01 16:11:16.617129
881  2023-12-01 16:11:16.649711
882  2023-12-01 16:11:16.681087
883  2023-12-01 16:11:16.713425
884  2023-12-01 16:11:16.746119
885  2023-12-01 16:11:16.777527
886  2023-12-01 16:11:16.809994
887  2023-12-01 16:11:16.842132
888  2023-12-01 16:11:16.873759
889  2023-12-01 16:11:16.906129
890  2023-12-01 16:11:16.937044
891  2023-12-01 16:11:16.969132
892  2023-12-01 16:11:17.017671
893  2023-12-01 16:11:17.049691
894  2023-12-01 16:11:17.081175
895  2023-12-01 16:11:17.113275
896  2023-12-01 16:11:17.145038
897  2023-12-01 16:11:17.178007
898  2023-12-01 16:11:17.209113
899  2023-12-01 16:11:17.241887
900  2023-12-01 16:11:17.273318
901  2023-12-01 16:11:17.307463
902  2023-12-01 16:11:17.338064
903  2023-12-01 16:11:17.369118
904  2023-12-01 16:11:17.418075
905  2023-12-01 16:11:17.450040
906  2023-12-01 16:11:17.481024
907  2023-12-01 16:11:17.512969
908  2023-12-01 16:11:17.545265
909  2023-12-01 16:11:17.578496
910  2023-12-01 16:11:17.609707
911  2023-12-01 16:11:17.641070
912  2023-12-01 16:11:17.673820
913  2023-12-01 16:11:17.706085
914  2023-12-01 16:11:17.737736
915  2023-12-01 16:11:17.769994
916  2023-12-01 16:11:17.818052
917  2023-12-01 16:11:17.850408
918  2023-12-01 16:11:17.882083
919  2023-12-01 16:11:17.913081
920  2023-12-01 16:11:17.946308
921  2023-12-01 16:11:17.977782
922  2023-12-01 16:11:18.010302
923  2023-12-01 16:11:18.041173
924  2023-12-01 16:11:18.073110
925  2023-12-01 16:11:18.106310
926  2023-12-01 16:11:18.138250
927  2023-12-01 16:11:18.170412
928  2023-12-01 16:11:18.218050
929  2023-12-01 16:11:18.249803
930  2023-12-01 16:11:18.282119
931  2023-12-01 16:11:18.313669
932  2023-12-01 16:11:18.346590
933  2023-12-01 16:11:18.377679
934  2023-12-01 16:11:18.408875
935  2023-12-01 16:11:18.442208
936  2023-12-01 16:11:18.474657
937  2023-12-01 16:11:18.506237
938  2023-12-01 16:11:18.538225
939  2023-12-01 16:11:18.568832
940  2023-12-01 16:11:18.618156
941  2023-12-01 16:11:18.650166
942  2023-12-01 16:11:18.682027
943  2023-12-01 16:11:18.713708
944  2023-12-01 16:11:18.746254
945  2023-12-01 16:11:18.778420
946  2023-12-01 16:11:18.810308
947  2023-12-01 16:11:18.842006
948  2023-12-01 16:11:18.873361
949  2023-12-01 16:11:18.905235
950  2023-12-01 16:11:18.938270
951  2023-12-01 16:11:18.970272
952  2023-12-01 16:11:19.018107
953  2023-12-01 16:11:19.050005
954  2023-12-01 16:11:19.082105
955  2023-12-01 16:11:19.113780
956  2023-12-01 16:11:19.146139
957  2023-12-01 16:11:19.177529
958  2023-12-01 16:11:19.210079
959  2023-12-01 16:11:19.241158
960  2023-12-01 16:11:19.273719
961  2023-12-01 16:11:19.306684
962  2023-12-01 16:11:19.337959
963  2023-12-01 16:11:19.370029
964  2023-12-01 16:11:19.417981
965  2023-12-01 16:11:19.449035
966  2023-12-01 16:11:19.480955
967  2023-12-01 16:11:19.513939
968  2023-12-01 16:11:19.545510
969  2023-12-01 16:11:19.577290
970  2023-12-01 16:11:19.610121
971  2023-12-01 16:11:19.641519
972  2023-12-01 16:11:19.673509
973  2023-12-01 16:11:19.704880
974  2023-12-01 16:11:19.737982
975  2023-12-01 16:11:19.770847
976  2023-12-01 16:11:19.818034
977  2023-12-01 16:11:19.849317
978  2023-12-01 16:11:19.881642
979  2023-12-01 16:11:19.913661
980  2023-12-01 16:11:19.945938
981  2023-12-01 16:11:19.978153
982  2023-12-01 16:11:20.009559
983  2023-12-01 16:11:20.041581
984  2023-12-01 16:11:20.073456
985  2023-12-01 16:11:20.105354
986  2023-12-01 16:11:20.138069
987  2023-12-01 16:11:20.168970
988  2023-12-01 16:11:20.217672
989  2023-12-01 16:11:20.248908
990  2023-12-01 16:11:20.281655
991  2023-12-01 16:11:20.313823
992  2023-12-01 16:11:20.345742
993  2023-12-01 16:11:20.377608
994  2023-12-01 16:11:20.410511
995  2023-12-01 16:11:20.441806
996  2023-12-01 16:11:20.473692
997  2023-12-01 16:11:20.505665
998  2023-12-01 16:11:20.538051
999  2023-12-01 16:11:20.569076
1000  2023-12-01 16:11:20.617744
1001  2023-12-01 16:11:20.649655
1002  2023-12-01 16:11:20.681684
1003  2023-12-01 16:11:20.713743
1004  2023-12-01 16:11:20.745211
1005  2023-12-01 16:11:20.778492
1006  2023-12-01 16:11:20.809784
1007  2023-12-01 16:11:20.841047
1008  2023-12-01 16:11:20.874013
1009  2023-12-01 16:11:20.906184
1010  2023-12-01 16:11:20.938298
1011  2023-12-01 16:11:20.970359
1012  2023-12-01 16:11:21.017537
1013  2023-12-01 16:11:21.049481
1014  2023-12-01 16:11:21.081504
1015  2023-12-01 16:11:21.113787
1016  2023-12-01 16:11:21.145981
1017  2023-12-01 16:11:21.179049
1018  2023-12-01 16:11:21.209125
1019  2023-12-01 16:11:21.240816
1020  2023-12-01 16:11:21.274122
1021  2023-12-01 16:11:21.307052
1022  2023-12-01 16:11:21.337714
1023  2023-12-01 16:11:21.369721
1024  2023-12-01 16:11:21.418371
1025  2023-12-01 16:11:21.449526
1026  2023-12-01 16:11:21.481370
1027  2023-12-01 16:11:21.513894
1028  2023-12-01 16:11:21.546641
1029  2023-12-01 16:11:21.577614
1030  2023-12-01 16:11:21.610019
1031  2023-12-01 16:11:21.642117
1032  2023-12-01 16:11:21.673514
1033  2023-12-01 16:11:21.707218
1034  2023-12-01 16:11:21.736777
1035  2023-12-01 16:11:21.769423
1036  2023-12-01 16:11:21.816733
1037  2023-12-01 16:11:21.849056
1038  2023-12-01 16:11:21.881787
1039  2023-12-01 16:11:21.912993
1040  2023-12-01 16:11:21.945920
1041  2023-12-01 16:11:21.978710
1042  2023-12-01 16:11:22.010477
1043  2023-12-01 16:11:22.042162
1044  2023-12-01 16:11:22.074171
1045  2023-12-01 16:11:22.106861
1046  2023-12-01 16:11:22.138964
1047  2023-12-01 16:11:22.171032
1048  2023-12-01 16:11:22.216895
1049  2023-12-01 16:11:22.248871
1050  2023-12-01 16:11:22.281130
1051  2023-12-01 16:11:22.313101
1052  2023-12-01 16:11:22.345136
1053  2023-12-01 16:11:22.377702
1054  2023-12-01 16:11:22.409015
1055  2023-12-01 16:11:22.442162
1056  2023-12-01 16:11:22.473962
1057  2023-12-01 16:11:22.505968
1058  2023-12-01 16:11:22.538533
1059  2023-12-01 16:11:22.570713
1060  2023-12-01 16:11:22.617368
1061  2023-12-01 16:11:22.649431
1062  2023-12-01 16:11:22.681062
1063  2023-12-01 16:11:22.713835
1064  2023-12-01 16:11:22.745401
1065  2023-12-01 16:11:22.778950
1066  2023-12-01 16:11:22.810119
1067  2023-12-01 16:11:22.841027
1068  2023-12-01 16:11:22.872987
1069  2023-12-01 16:11:22.905425
1070  2023-12-01 16:11:22.937652
1071  2023-12-01 16:11:22.970762
1072  2023-12-01 16:11:23.018006
1073  2023-12-01 16:11:23.049229
1074  2023-12-01 16:11:23.081265
1075  2023-12-01 16:11:23.113075
1076  2023-12-01 16:11:23.145639
1077  2023-12-01 16:11:23.178306
1078  2023-12-01 16:11:23.210385
1079  2023-12-01 16:11:23.241976
1080  2023-12-01 16:11:23.273962
1081  2023-12-01 16:11:23.306406
1082  2023-12-01 16:11:23.337733
1083  2023-12-01 16:11:23.369769
1084  2023-12-01 16:11:23.417133
1085  2023-12-01 16:11:23.449071
1086  2023-12-01 16:11:23.481759
1087  2023-12-01 16:11:23.513902
1088  2023-12-01 16:11:23.545572
1089  2023-12-01 16:11:23.577587
1090  2023-12-01 16:11:23.611208
1091  2023-12-01 16:11:23.641191
1092  2023-12-01 16:11:23.674489
1093  2023-12-01 16:11:23.706418
1094  2023-12-01 16:11:23.738228
1095  2023-12-01 16:11:23.770025
1096  2023-12-01 16:11:23.817176
1097  2023-12-01 16:11:23.849861
1098  2023-12-01 16:11:23.881642
1099  2023-12-01 16:11:23.913457
1100  2023-12-01 16:11:23.945198
1101  2023-12-01 16:11:23.977800
1102  2023-12-01 16:11:24.008891
1103  2023-12-01 16:11:24.041650
1104  2023-12-01 16:11:24.074081
1105  2023-12-01 16:11:24.106338
1106  2023-12-01 16:11:24.138265
1107  2023-12-01 16:11:24.169789
1108  2023-12-01 16:11:24.217242
1109  2023-12-01 16:11:24.249120
1110  2023-12-01 16:11:24.280941
1111  2023-12-01 16:11:24.314002
1112  2023-12-01 16:11:24.345607
1113  2023-12-01 16:11:24.377606
1114  2023-12-01 16:11:24.409057
1115  2023-12-01 16:11:24.441984
1116  2023-12-01 16:11:24.472950
1117  2023-12-01 16:11:24.505718
1118  2023-12-01 16:11:24.536904
1119  2023-12-01 16:11:24.569631
1120  2023-12-01 16:11:24.617259
1121  2023-12-01 16:11:24.649618
1122  2023-12-01 16:11:24.681924
1123  2023-12-01 16:11:24.713243
1124  2023-12-01 16:11:24.745290
1125  2023-12-01 16:11:24.777732
1126  2023-12-01 16:11:24.810880
1127  2023-12-01 16:11:24.841722
1128  2023-12-01 16:11:24.873578
1129  2023-12-01 16:11:24.906280
1130  2023-12-01 16:11:24.937561
1131  2023-12-01 16:11:24.969754
1132  2023-12-01 16:11:25.017384
1133  2023-12-01 16:11:25.049421
1134  2023-12-01 16:11:25.081653
1135  2023-12-01 16:11:25.113342
1136  2023-12-01 16:11:25.145751
1137  2023-12-01 16:11:25.177672
1138  2023-12-01 16:11:25.209574
1139  2023-12-01 16:11:25.241944
1140  2023-12-01 16:11:25.274129
1141  2023-12-01 16:11:25.305691
1142  2023-12-01 16:11:25.337846
1143  2023-12-01 16:11:25.369512
1144  2023-12-01 16:11:25.417784
1145  2023-12-01 16:11:25.449750
1146  2023-12-01 16:11:25.481148
1147  2023-12-01 16:11:25.514077
1148  2023-12-01 16:11:25.545265
1149  2023-12-01 16:11:25.577716
1150  2023-12-01 16:11:25.609969
1151  2023-12-01 16:11:25.641533
1152  2023-12-01 16:11:25.673568
1153  2023-12-01 16:11:25.705208
1154  2023-12-01 16:11:25.738350
1155  2023-12-01 16:11:25.769027
1156  2023-12-01 16:11:25.818256
1157  2023-12-01 16:11:25.849813
1158  2023-12-01 16:11:25.881714
1159  2023-12-01 16:11:25.914049
1160  2023-12-01 16:11:25.945284
1161  2023-12-01 16:11:25.978569
1162  2023-12-01 16:11:26.010026
1163  2023-12-01 16:11:26.041233
1164  2023-12-01 16:11:26.073218
1165  2023-12-01 16:11:26.105170
1166  2023-12-01 16:11:26.137790
1167  2023-12-01 16:11:26.169236
1168  2023-12-01 16:11:26.216903
1169  2023-12-01 16:11:26.249952
1170  2023-12-01 16:11:26.281718
1171  2023-12-01 16:11:26.313743
1172  2023-12-01 16:11:26.345778
1173  2023-12-01 16:11:26.377749
1174  2023-12-01 16:11:26.409650
1175  2023-12-01 16:11:26.441922
1176  2023-12-01 16:11:26.473584
1177  2023-12-01 16:11:26.506094
1178  2023-12-01 16:11:26.538017
1179  2023-12-01 16:11:26.569832
1180  2023-12-01 16:11:26.617590
1181  2023-12-01 16:11:26.648998
1182  2023-12-01 16:11:26.681688
1183  2023-12-01 16:11:26.713250
1184  2023-12-01 16:11:26.745305
1185  2023-12-01 16:11:26.778064
1186  2023-12-01 16:11:26.809924
1187  2023-12-01 16:11:26.841809
1188  2023-12-01 16:11:26.873711
1189  2023-12-01 16:11:26.904861
1190  2023-12-01 16:11:26.937794
1191  2023-12-01 16:11:26.970127
1192  2023-12-01 16:11:27.017008
1193  2023-12-01 16:11:27.049790
1194  2023-12-01 16:11:27.081685
1195  2023-12-01 16:11:27.113398
1196  2023-12-01 16:11:27.145337
1197  2023-12-01 16:11:27.177599
1198  2023-12-01 16:11:27.209209
1199  2023-12-01 16:11:27.241809
1200  2023-12-01 16:11:27.273610
1201  2023-12-01 16:11:27.306208
1202  2023-12-01 16:11:27.337929
1203  2023-12-01 16:11:27.369133
1204  2023-12-01 16:11:27.417094
1205  2023-12-01 16:11:27.449136
1206  2023-12-01 16:11:27.481688
1207  2023-12-01 16:11:27.513127
1208  2023-12-01 16:11:27.545736
1209  2023-12-01 16:11:27.576988
1210  2023-12-01 16:11:27.609663
1211  2023-12-01 16:11:27.641536
1212  2023-12-01 16:11:27.674114
1213  2023-12-01 16:11:27.705184
1214  2023-12-01 16:11:27.737075
1215  2023-12-01 16:11:27.769588
1216  2023-12-01 16:11:27.817648
1217  2023-12-01 16:11:27.849922
1218  2023-12-01 16:11:27.882154
1219  2023-12-01 16:11:27.913094
1220  2023-12-01 16:11:27.945734
1221  2023-12-01 16:11:27.977341
1222  2023-12-01 16:11:28.009242
1223  2023-12-01 16:11:28.041637
1224  2023-12-01 16:11:28.073364
1225  2023-12-01 16:11:28.106087
1226  2023-12-01 16:11:28.137507
1227  2023-12-01 16:11:28.169089
1228  2023-12-01 16:11:28.217139
1229  2023-12-01 16:11:28.249481
1230  2023-12-01 16:11:28.280816
1231  2023-12-01 16:11:28.313472
1232  2023-12-01 16:11:28.345521
1233  2023-12-01 16:11:28.377335
1234  2023-12-01 16:11:28.409663
1235  2023-12-01 16:11:28.440993
1236  2023-12-01 16:11:28.473620
1237  2023-12-01 16:11:28.505750
1238  2023-12-01 16:11:28.537616
1239  2023-12-01 16:11:28.569869
1240  2023-12-01 16:11:28.617660
1241  2023-12-01 16:11:28.650007
1242  2023-12-01 16:11:28.681238
1243  2023-12-01 16:11:28.713723
1244  2023-12-01 16:11:28.745347
1245  2023-12-01 16:11:28.777655
1246  2023-12-01 16:11:28.809565
1247  2023-12-01 16:11:28.841322
1248  2023-12-01 16:11:28.873154
1249  2023-12-01 16:11:28.905005
1250  2023-12-01 16:11:28.937770
1251  2023-12-01 16:11:28.969333
1252  2023-12-01 16:11:29.018016
1253  2023-12-01 16:11:29.049991
1254  2023-12-01 16:11:29.082118
1255  2023-12-01 16:11:29.114072
1256  2023-12-01 16:11:29.146058
1257  2023-12-01 16:11:29.177299
1258  2023-12-01 16:11:29.209875
1259  2023-12-01 16:11:29.241765
1260  2023-12-01 16:11:29.273659
1261  2023-12-01 16:11:29.306427
1262  2023-12-01 16:11:29.337415
1263  2023-12-01 16:11:29.368950
1264  2023-12-01 16:11:29.417131
1265  2023-12-01 16:11:29.449559
1266  2023-12-01 16:11:29.482161
1267  2023-12-01 16:11:29.513755
1268  2023-12-01 16:11:29.545008
1269  2023-12-01 16:11:29.577093
1270  2023-12-01 16:11:29.609858
1271  2023-12-01 16:11:29.641547
1272  2023-12-01 16:11:29.673976
1273  2023-12-01 16:11:29.706254
1274  2023-12-01 16:11:29.737180
1275  2023-12-01 16:11:29.769974
1276  2023-12-01 16:11:29.817740
1277  2023-12-01 16:11:29.849872
1278  2023-12-01 16:11:29.880838
1279  2023-12-01 16:11:29.913152
1280  2023-12-01 16:11:29.945541
1281  2023-12-01 16:11:29.977344
1282  2023-12-01 16:11:30.009653
1283  2023-12-01 16:11:30.041812
1284  2023-12-01 16:11:30.073689
1285  2023-12-01 16:11:30.106386
1286  2023-12-01 16:11:30.137119
1287  2023-12-01 16:11:30.169716
1288  2023-12-01 16:11:30.217579
1289  2023-12-01 16:11:30.248951
1290  2023-12-01 16:11:30.280868
1291  2023-12-01 16:11:30.312782
1292  2023-12-01 16:11:30.345070
1293  2023-12-01 16:11:30.378106
1294  2023-12-01 16:11:30.409407
1295  2023-12-01 16:11:30.441161
1296  2023-12-01 16:11:30.473299
1297  2023-12-01 16:11:30.505592
1298  2023-12-01 16:11:30.537853
1299  2023-12-01 16:11:30.569365
1300  2023-12-01 16:11:30.617271
1301  2023-12-01 16:11:30.649709
1302  2023-12-01 16:11:30.681577
1303  2023-12-01 16:11:30.713028
1304  2023-12-01 16:11:30.745684
1305  2023-12-01 16:11:30.777929
1306  2023-12-01 16:11:30.809103
1307  2023-12-01 16:11:30.841427
1308  2023-12-01 16:11:30.873696
1309  2023-12-01 16:11:30.905971
1310  2023-12-01 16:11:30.937660
1311  2023-12-01 16:11:30.969622
1312  2023-12-01 16:11:31.017137
1313  2023-12-01 16:11:31.049650
1314  2023-12-01 16:11:31.082084
1315  2023-12-01 16:11:31.113829
1316  2023-12-01 16:11:31.145536
1317  2023-12-01 16:11:31.176763
1318  2023-12-01 16:11:31.209012
1319  2023-12-01 16:11:31.241312
1320  2023-12-01 16:11:31.273833
1321  2023-12-01 16:11:31.306061
1322  2023-12-01 16:11:31.337898
1323  2023-12-01 16:11:31.368876
1324  2023-12-01 16:11:31.418022
1325  2023-12-01 16:11:31.449118
1326  2023-12-01 16:11:31.481968
1327  2023-12-01 16:11:31.513806
1328  2023-12-01 16:11:31.545712
1329  2023-12-01 16:11:31.577065
1330  2023-12-01 16:11:31.609122
1331  2023-12-01 16:11:31.641736
1332  2023-12-01 16:11:31.673703
1333  2023-12-01 16:11:31.705902
1334  2023-12-01 16:11:31.737607
1335  2023-12-01 16:11:31.769729
1336  2023-12-01 16:11:31.817430
1337  2023-12-01 16:11:31.849154
1338  2023-12-01 16:11:31.881091
1339  2023-12-01 16:11:31.913717
1340  2023-12-01 16:11:31.944870
1341  2023-12-01 16:11:31.977367
1342  2023-12-01 16:11:32.009481
1343  2023-12-01 16:11:32.041402
1344  2023-12-01 16:11:32.073361
1345  2023-12-01 16:11:32.105181
1346  2023-12-01 16:11:32.137881
1347  2023-12-01 16:11:32.169921
1348  2023-12-01 16:11:32.218070
1349  2023-12-01 16:11:32.249133
1350  2023-12-01 16:11:32.281267
1351  2023-12-01 16:11:32.313270
1352  2023-12-01 16:11:32.346294
1353  2023-12-01 16:11:32.377793
1354  2023-12-01 16:11:32.408910
1355  2023-12-01 16:11:32.441101
1356  2023-12-01 16:11:32.473541
1357  2023-12-01 16:11:32.506401
1358  2023-12-01 16:11:32.537947
1359  2023-12-01 16:11:32.569171
1360  2023-12-01 16:11:32.617119
1361  2023-12-01 16:11:32.649177
1362  2023-12-01 16:11:32.681717
1363  2023-12-01 16:11:32.713082
1364  2023-12-01 16:11:32.745592
1365  2023-12-01 16:11:32.777966
1366  2023-12-01 16:11:32.809812
1367  2023-12-01 16:11:32.841089
1368  2023-12-01 16:11:32.873754
1369  2023-12-01 16:11:32.905659
1370  2023-12-01 16:11:32.937583
1371  2023-12-01 16:11:32.969957
1372  2023-12-01 16:11:33.018560
1373  2023-12-01 16:11:33.049010
1374  2023-12-01 16:11:33.081250
1375  2023-12-01 16:11:33.113207
1376  2023-12-01 16:11:33.145164
1377  2023-12-01 16:11:33.176992
1378  2023-12-01 16:11:33.209160
1379  2023-12-01 16:11:33.241229
1380  2023-12-01 16:11:33.273843
1381  2023-12-01 16:11:33.306078
1382  2023-12-01 16:11:33.337965
1383  2023-12-01 16:11:33.369919
1384  2023-12-01 16:11:33.418299
1385  2023-12-01 16:11:33.449082
1386  2023-12-01 16:11:33.481932
1387  2023-12-01 16:11:33.513915
1388  2023-12-01 16:11:33.545817
1389  2023-12-01 16:11:33.577752
1390  2023-12-01 16:11:33.609279
1391  2023-12-01 16:11:33.641317
1392  2023-12-01 16:11:33.672914
1393  2023-12-01 16:11:33.705139
1394  2023-12-01 16:11:33.737352
1395  2023-12-01 16:11:33.770167
1396  2023-12-01 16:11:33.817826
1397  2023-12-01 16:11:33.849743
1398  2023-12-01 16:11:33.881902
1399  2023-12-01 16:11:33.913915
1400  2023-12-01 16:11:33.944796
1401  2023-12-01 16:11:33.977799
1402  2023-12-01 16:11:34.009306
1403  2023-12-01 16:11:34.041484
1404  2023-12-01 16:11:34.073776
1405  2023-12-01 16:11:34.106305
1406  2023-12-01 16:11:34.137598
1407  2023-12-01 16:11:34.170024
1408  2023-12-01 16:11:34.217422
1409  2023-12-01 16:11:34.249144
1410  2023-12-01 16:11:34.281605
1411  2023-12-01 16:11:34.313830
1412  2023-12-01 16:11:34.345501
1413  2023-12-01 16:11:34.377458
1414  2023-12-01 16:11:34.409229
1415  2023-12-01 16:11:34.441054
1416  2023-12-01 16:11:34.472961
1417  2023-12-01 16:11:34.505196
1418  2023-12-01 16:11:34.537758
1419  2023-12-01 16:11:34.570083
1420  2023-12-01 16:11:34.618091
1421  2023-12-01 16:11:34.650358
1422  2023-12-01 16:11:34.681014
1423  2023-12-01 16:11:34.713466
1424  2023-12-01 16:11:34.745576
1425  2023-12-01 16:11:34.777387
1426  2023-12-01 16:11:34.808997
1427  2023-12-01 16:11:34.841315
1428  2023-12-01 16:11:34.872857
1429  2023-12-01 16:11:34.905037
1430  2023-12-01 16:11:34.938094
1431  2023-12-01 16:11:34.970598
1432  2023-12-01 16:11:35.017993
1433  2023-12-01 16:11:35.050022
1434  2023-12-01 16:11:35.081081
1435  2023-12-01 16:11:35.113272
1436  2023-12-01 16:11:35.145276
1437  2023-12-01 16:11:35.178085
1438  2023-12-01 16:11:35.209290
1439  2023-12-01 16:11:35.241460
1440  2023-12-01 16:11:35.273797
1441  2023-12-01 16:11:35.305854
1442  2023-12-01 16:11:35.336853
1443  2023-12-01 16:11:35.369717
1444  2023-12-01 16:11:35.417568
1445  2023-12-01 16:11:35.449829
1446  2023-12-01 16:11:35.481068
1447  2023-12-01 16:11:35.513799
1448  2023-12-01 16:11:35.545912
1449  2023-12-01 16:11:35.577375
1450  2023-12-01 16:11:35.609434
1451  2023-12-01 16:11:35.641803
1452  2023-12-01 16:11:35.672856
1453  2023-12-01 16:11:35.705143
1454  2023-12-01 16:11:35.738185
1455  2023-12-01 16:11:35.770096
1456  2023-12-01 16:11:35.817678
1457  2023-12-01 16:11:35.850167
1458  2023-12-01 16:11:35.880871
1459  2023-12-01 16:11:35.913123
1460  2023-12-01 16:11:35.946286
1461  2023-12-01 16:11:35.977136
1462  2023-12-01 16:11:36.009823
1463  2023-12-01 16:11:36.041861
1464  2023-12-01 16:11:36.073575
1465  2023-12-01 16:11:36.105536
1466  2023-12-01 16:11:36.138262
1467  2023-12-01 16:11:36.169253
1468  2023-12-01 16:11:36.218203
1469  2023-12-01 16:11:36.250076
1470  2023-12-01 16:11:36.281905
1471  2023-12-01 16:11:36.313529
1472  2023-12-01 16:11:36.345408
1473  2023-12-01 16:11:36.377816
1474  2023-12-01 16:11:36.409520
1475  2023-12-01 16:11:36.441494
1476  2023-12-01 16:11:36.473293
1477  2023-12-01 16:11:36.505857
1478  2023-12-01 16:11:36.537840
1479  2023-12-01 16:11:36.569325
1480  2023-12-01 16:11:36.617939
1481  2023-12-01 16:11:36.650017
1482  2023-12-01 16:11:36.681055
1483  2023-12-01 16:11:36.713896
1484  2023-12-01 16:11:36.745455
1485  2023-12-01 16:11:36.777854
1486  2023-12-01 16:11:36.809241
1487  2023-12-01 16:11:36.841306
1488  2023-12-01 16:11:36.873896
1489  2023-12-01 16:11:36.905354
1490  2023-12-01 16:11:36.937976
1491  2023-12-01 16:11:36.969237
1492  2023-12-01 16:11:37.018029
1493  2023-12-01 16:11:37.050011
1494  2023-12-01 16:11:37.081111
1495  2023-12-01 16:11:37.113330
1496  2023-12-01 16:11:37.145042
1497  2023-12-01 16:11:37.177968
1498  2023-12-01 16:11:37.210171
1499  2023-12-01 16:11:37.242065
1500  2023-12-01 16:11:37.273854
1501  2023-12-01 16:11:37.305273
1502  2023-12-01 16:11:37.338083
1503  2023-12-01 16:11:37.370111
1504  2023-12-01 16:11:37.417827
1505  2023-12-01 16:11:37.448817
1506  2023-12-01 16:11:37.481709
1507  2023-12-01 16:11:37.513665
1508  2023-12-01 16:11:37.545061
1509  2023-12-01 16:11:37.577025
1510  2023-12-01 16:11:37.609424
1511  2023-12-01 16:11:37.641836
1512  2023-12-01 16:11:37.674097
1513  2023-12-01 16:11:37.706039
1514  2023-12-01 16:11:37.738060
1515  2023-12-01 16:11:37.770250
1516  2023-12-01 16:11:37.818075
1517  2023-12-01 16:11:37.849302
1518  2023-12-01 16:11:37.881070
1519  2023-12-01 16:11:37.913984
1520  2023-12-01 16:11:37.945484
1521  2023-12-01 16:11:37.977482
1522  2023-12-01 16:11:38.009185
1523  2023-12-01 16:11:38.041294
1524  2023-12-01 16:11:38.073475
1525  2023-12-01 16:11:38.105647
1526  2023-12-01 16:11:38.138000
1527  2023-12-01 16:11:38.170390
1528  2023-12-01 16:11:38.218319
1529  2023-12-01 16:11:38.249958
1530  2023-12-01 16:11:38.282029
1531  2023-12-01 16:11:38.313769
1532  2023-12-01 16:11:38.346014
1533  2023-12-01 16:11:38.376948
1534  2023-12-01 16:11:38.410263
1535  2023-12-01 16:11:38.441807
1536  2023-12-01 16:11:38.473883
1537  2023-12-01 16:11:38.506373
1538  2023-12-01 16:11:38.537305
1539  2023-12-01 16:11:38.569708
1540  2023-12-01 16:11:38.617686
1541  2023-12-01 16:11:38.648818
1542  2023-12-01 16:11:38.681747
1543  2023-12-01 16:11:38.713744
1544  2023-12-01 16:11:38.745316
1545  2023-12-01 16:11:38.777649
1546  2023-12-01 16:11:38.809540
1547  2023-12-01 16:11:38.841696
1548  2023-12-01 16:11:38.873896
1549  2023-12-01 16:11:38.906311
1550  2023-12-01 16:11:38.938036
1551  2023-12-01 16:11:38.969927
1552  2023-12-01 16:11:39.017860
1553  2023-12-01 16:11:39.050194
1554  2023-12-01 16:11:39.081498
1555  2023-12-01 16:11:39.113425
1556  2023-12-01 16:11:39.145480
1557  2023-12-01 16:11:39.177626
1558  2023-12-01 16:11:39.209781
1559  2023-12-01 16:11:39.241568
1560  2023-12-01 16:11:39.273889
1561  2023-12-01 16:11:39.306094
1562  2023-12-01 16:11:39.338260
1563  2023-12-01 16:11:39.370051
1564  2023-12-01 16:11:39.417559
1565  2023-12-01 16:11:39.449513
1566  2023-12-01 16:11:39.481982
1567  2023-12-01 16:11:39.513600
1568  2023-12-01 16:11:39.545734
1569  2023-12-01 16:11:39.578056
1570  2023-12-01 16:11:39.610213
1571  2023-12-01 16:11:39.641484
1572  2023-12-01 16:11:39.672908
1573  2023-12-01 16:11:39.705137
1574  2023-12-01 16:11:39.737004
1575  2023-12-01 16:11:39.769971
1576  2023-12-01 16:11:39.817674
1577  2023-12-01 16:11:39.850289
1578  2023-12-01 16:11:39.881918
1579  2023-12-01 16:11:39.913095
1580  2023-12-01 16:11:39.945357
1581  2023-12-01 16:11:39.977147
1582  2023-12-01 16:11:40.010620
1583  2023-12-01 16:11:40.042559
1584  2023-12-01 16:11:40.073954
1585  2023-12-01 16:11:40.105284
1586  2023-12-01 16:11:40.137996
1587  2023-12-01 16:11:40.169750
1588  2023-12-01 16:11:40.217259
1589  2023-12-01 16:11:40.249290
1590  2023-12-01 16:11:40.281793
1591  2023-12-01 16:11:40.313815
1592  2023-12-01 16:11:40.345967
1593  2023-12-01 16:11:40.377131
1594  2023-12-01 16:11:40.409697
1595  2023-12-01 16:11:40.442064
1596  2023-12-01 16:11:40.473967
1597  2023-12-01 16:11:40.506070
1598  2023-12-01 16:11:40.537371
1599  2023-12-01 16:11:40.569123
1600  2023-12-01 16:11:40.617789
1601  2023-12-01 16:11:40.649807
1602  2023-12-01 16:11:40.682146
1603  2023-12-01 16:11:40.713849
1604  2023-12-01 16:11:40.745590
1605  2023-12-01 16:11:40.777247
1606  2023-12-01 16:11:40.809221
1607  2023-12-01 16:11:40.841927
1608  2023-12-01 16:11:40.873966
1609  2023-12-01 16:11:40.906029
1610  2023-12-01 16:11:40.937896
1611  2023-12-01 16:11:40.969301
1612  2023-12-01 16:11:41.018055
1613  2023-12-01 16:11:41.050141
1614  2023-12-01 16:11:41.081701
1615  2023-12-01 16:11:41.113107
1616  2023-12-01 16:11:41.146031
1617  2023-12-01 16:11:41.177090
1618  2023-12-01 16:11:41.209449
1619  2023-12-01 16:11:41.241772
1620  2023-12-01 16:11:41.273759
1621  2023-12-01 16:11:41.305133
1622  2023-12-01 16:11:41.337883
1623  2023-12-01 16:11:41.369844
1624  2023-12-01 16:11:41.418038
1625  2023-12-01 16:11:41.449837
1626  2023-12-01 16:11:41.482071
1627  2023-12-01 16:11:41.513964
1628  2023-12-01 16:11:41.545935
1629  2023-12-01 16:11:41.577079
1630  2023-12-01 16:11:41.609673
1631  2023-12-01 16:11:41.641630
1632  2023-12-01 16:11:41.673876
1633  2023-12-01 16:11:41.705926
1634  2023-12-01 16:11:41.737704
1635  2023-12-01 16:11:41.769965
1636  2023-12-01 16:11:41.817381
1637  2023-12-01 16:11:41.849513
1638  2023-12-01 16:11:41.882029
1639  2023-12-01 16:11:41.913696
1640  2023-12-01 16:11:41.945984
1641  2023-12-01 16:11:41.977905
1642  2023-12-01 16:11:42.009344
1643  2023-12-01 16:11:42.041395
1644  2023-12-01 16:11:42.073211
1645  2023-12-01 16:11:42.105782
1646  2023-12-01 16:11:42.137082
1647  2023-12-01 16:11:42.169208
1648  2023-12-01 16:11:42.217953
1649  2023-12-01 16:11:42.250382
1650  2023-12-01 16:11:42.282004
1651  2023-12-01 16:11:42.313812
1652  2023-12-01 16:11:42.345852
1653  2023-12-01 16:11:42.376836
1654  2023-12-01 16:11:42.408984
1655  2023-12-01 16:11:42.441768
1656  2023-12-01 16:11:42.473740
1657  2023-12-01 16:11:42.505774
1658  2023-12-01 16:11:42.537642
1659  2023-12-01 16:11:42.570152
1660  2023-12-01 16:11:42.617252
1661  2023-12-01 16:11:42.650169
1662  2023-12-01 16:11:42.681883
1663  2023-12-01 16:11:42.713147
1664  2023-12-01 16:11:42.745603
1665  2023-12-01 16:11:42.777546
1666  2023-12-01 16:11:42.809328
1667  2023-12-01 16:11:42.841514
1668  2023-12-01 16:11:42.874092
1669  2023-12-01 16:11:42.905600
1670  2023-12-01 16:11:42.937607
1671  2023-12-01 16:11:42.969996
1672  2023-12-01 16:11:43.017673
1673  2023-12-01 16:11:43.050050
1674  2023-12-01 16:11:43.082001
1675  2023-12-01 16:11:43.113104
1676  2023-12-01 16:11:43.145628
1677  2023-12-01 16:11:43.177998
1678  2023-12-01 16:11:43.210299
1679  2023-12-01 16:11:43.241343
1680  2023-12-01 16:11:43.273004
1681  2023-12-01 16:11:43.305957
1682  2023-12-01 16:11:43.337953
1683  2023-12-01 16:11:43.369582
1684  2023-12-01 16:11:43.417861
1685  2023-12-01 16:11:43.449936
1686  2023-12-01 16:11:43.481636
1687  2023-12-01 16:11:43.513554
1688  2023-12-01 16:11:43.545258
1689  2023-12-01 16:11:43.576999
1690  2023-12-01 16:11:43.609966
1691  2023-12-01 16:11:43.642004
1692  2023-12-01 16:11:43.674008
1693  2023-12-01 16:11:43.705420
1694  2023-12-01 16:11:43.737487
1695  2023-12-01 16:11:43.769395
1696  2023-12-01 16:11:43.817608
1697  2023-12-01 16:11:43.849511
1698  2023-12-01 16:11:43.881757
1699  2023-12-01 16:11:43.913422
1700  2023-12-01 16:11:43.944998
1701  2023-12-01 16:11:43.977430
1702  2023-12-01 16:11:44.009470
1703  2023-12-01 16:11:44.040652
1704  2023-12-01 16:11:44.073545
1705  2023-12-01 16:11:44.105291
1706  2023-12-01 16:11:44.137583
1707  2023-12-01 16:11:44.169188
1708  2023-12-01 16:11:44.217045
1709  2023-12-01 16:11:44.249446
1710  2023-12-01 16:11:44.282194
1711  2023-12-01 16:11:44.313707
1712  2023-12-01 16:11:44.345793
1713  2023-12-01 16:11:44.378051
1714  2023-12-01 16:11:44.409387
1715  2023-12-01 16:11:44.441668
1716  2023-12-01 16:11:44.473953
1717  2023-12-01 16:11:44.505822
1718  2023-12-01 16:11:44.537562
1719  2023-12-01 16:11:44.568978
1720  2023-12-01 16:11:44.617818
1721  2023-12-01 16:11:44.650143
1722  2023-12-01 16:11:44.682092
1723  2023-12-01 16:11:44.713788
1724  2023-12-01 16:11:44.746023
1725  2023-12-01 16:11:44.778005
1726  2023-12-01 16:11:44.809467
1727  2023-12-01 16:11:44.841673
1728  2023-12-01 16:11:44.874416
1729  2023-12-01 16:11:44.905776
1730  2023-12-01 16:11:44.937979
1731  2023-12-01 16:11:44.969198
1732  2023-12-01 16:11:45.017958
1733  2023-12-01 16:11:45.049103
1734  2023-12-01 16:11:45.081021
1735  2023-12-01 16:11:45.112935
1736  2023-12-01 16:11:45.145611
1737  2023-12-01 16:11:45.177213
1738  2023-12-01 16:11:45.209287
1739  2023-12-01 16:11:45.241293
1740  2023-12-01 16:11:45.274206
1741  2023-12-01 16:11:45.305459
1742  2023-12-01 16:11:45.337492
1743  2023-12-01 16:11:45.370137
1744  2023-12-01 16:11:45.417149
1745  2023-12-01 16:11:45.449842
1746  2023-12-01 16:11:45.481783
1747  2023-12-01 16:11:45.513826
1748  2023-12-01 16:11:45.545104
1749  2023-12-01 16:11:45.577275
1750  2023-12-01 16:11:45.608736
1751  2023-12-01 16:11:45.641514
1752  2023-12-01 16:11:45.673045
1753  2023-12-01 16:11:45.705144
1754  2023-12-01 16:11:45.737770
1755  2023-12-01 16:11:45.769971
1756  2023-12-01 16:11:45.818035
1757  2023-12-01 16:11:45.850063
1758  2023-12-01 16:11:45.881448
1759  2023-12-01 16:11:45.913506
1760  2023-12-01 16:11:45.945937
1761  2023-12-01 16:11:45.977251
1762  2023-12-01 16:11:46.010222
1763  2023-12-01 16:11:46.041849
1764  2023-12-01 16:11:46.073128
1765  2023-12-01 16:11:46.105952
1766  2023-12-01 16:11:46.137057
1767  2023-12-01 16:11:46.168785
1768  2023-12-01 16:11:46.217720
1769  2023-12-01 16:11:46.249695
1770  2023-12-01 16:11:46.281135
1771  2023-12-01 16:11:46.314010
1772  2023-12-01 16:11:46.346023
1773  2023-12-01 16:11:46.378165
1774  2023-12-01 16:11:46.409301
1775  2023-12-01 16:11:46.441701
1776  2023-12-01 16:11:46.473977
1777  2023-12-01 16:11:46.506492
1778  2023-12-01 16:11:46.537364
1779  2023-12-01 16:11:46.569550
1780  2023-12-01 16:11:46.617142
1781  2023-12-01 16:11:46.649751
1782  2023-12-01 16:11:46.681315
1783  2023-12-01 16:11:46.712972
1784  2023-12-01 16:11:46.745385
1785  2023-12-01 16:11:46.777454
1786  2023-12-01 16:11:46.809354
1787  2023-12-01 16:11:46.841735
1788  2023-12-01 16:11:46.874135
1789  2023-12-01 16:11:46.905148
1790  2023-12-01 16:11:46.937245
1791  2023-12-01 16:11:46.969298
1792  2023-12-01 16:11:47.017684
1793  2023-12-01 16:11:47.049682
1794  2023-12-01 16:11:47.081520
1795  2023-12-01 16:11:47.113692
1796  2023-12-01 16:11:47.145842
1797  2023-12-01 16:11:47.178225
1798  2023-12-01 16:11:47.209430
1799  2023-12-01 16:11:47.241349
1800  2023-12-01 16:11:47.273175
1801  2023-12-01 16:11:47.305761
1802  2023-12-01 16:11:47.337901
1803  2023-12-01 16:11:47.370003
1804  2023-12-01 16:11:47.417607
1805  2023-12-01 16:11:47.450070
1806  2023-12-01 16:11:47.482086
1807  2023-12-01 16:11:47.513579
1808  2023-12-01 16:11:47.545966
1809  2023-12-01 16:11:47.577209
1810  2023-12-01 16:11:47.609297
1811  2023-12-01 16:11:47.641603
1812  2023-12-01 16:11:47.673112
1813  2023-12-01 16:11:47.705838
1814  2023-12-01 16:11:47.737794
1815  2023-12-01 16:11:47.769881
1816  2023-12-01 16:11:47.817170
1817  2023-12-01 16:11:47.850097
1818  2023-12-01 16:11:47.881380
1819  2023-12-01 16:11:47.913938
1820  2023-12-01 16:11:47.946094
1821  2023-12-01 16:11:47.978332
1822  2023-12-01 16:11:48.010044
1823  2023-12-01 16:11:48.042265
1824  2023-12-01 16:11:48.073775
1825  2023-12-01 16:11:48.105975
1826  2023-12-01 16:11:48.138046
1827  2023-12-01 16:11:48.169259
1828  2023-12-01 16:11:48.217828
1829  2023-12-01 16:11:48.249474
1830  2023-12-01 16:11:48.281704
1831  2023-12-01 16:11:48.314062
1832  2023-12-01 16:11:48.345942
1833  2023-12-01 16:11:48.377423
1834  2023-12-01 16:11:48.409567
1835  2023-12-01 16:11:48.441628
1836  2023-12-01 16:11:48.474083
1837  2023-12-01 16:11:48.506295
1838  2023-12-01 16:11:48.537827
1839  2023-12-01 16:11:48.569216
1840  2023-12-01 16:11:48.617830
1841  2023-12-01 16:11:48.649019
1842  2023-12-01 16:11:48.682085
1843  2023-12-01 16:11:48.714070
1844  2023-12-01 16:11:48.746039
1845  2023-12-01 16:11:48.777510
1846  2023-12-01 16:11:48.810422
1847  2023-12-01 16:11:48.841978
1848  2023-12-01 16:11:48.874371
1849  2023-12-01 16:11:48.905059
1850  2023-12-01 16:11:48.937016
1851  2023-12-01 16:11:48.969292
1852  2023-12-01 16:11:49.017193
1853  2023-12-01 16:11:49.049148
1854  2023-12-01 16:11:49.081672
1855  2023-12-01 16:11:49.113916
1856  2023-12-01 16:11:49.145011
1857  2023-12-01 16:11:49.177348
1858  2023-12-01 16:11:49.209630
1859  2023-12-01 16:11:49.241055
1860  2023-12-01 16:11:49.274082
1861  2023-12-01 16:11:49.306042
1862  2023-12-01 16:11:49.337809
1863  2023-12-01 16:11:49.370146
1864  2023-12-01 16:11:49.417930
1865  2023-12-01 16:11:49.450017
1866  2023-12-01 16:11:49.481206
1867  2023-12-01 16:11:49.513049
1868  2023-12-01 16:11:49.546042
1869  2023-12-01 16:11:49.577515
1870  2023-12-01 16:11:49.610066
1871  2023-12-01 16:11:49.641795
1872  2023-12-01 16:11:49.674148
1873  2023-12-01 16:11:49.706134
1874  2023-12-01 16:11:49.737858
1875  2023-12-01 16:11:49.769558
1876  2023-12-01 16:11:49.817541
1877  2023-12-01 16:11:49.849907
1878  2023-12-01 16:11:49.881095
1879  2023-12-01 16:11:49.913894
1880  2023-12-01 16:11:49.946007
1881  2023-12-01 16:11:49.977386
1882  2023-12-01 16:11:50.009695
1883  2023-12-01 16:11:50.041148
1884  2023-12-01 16:11:50.073724
1885  2023-12-01 16:11:50.105971
1886  2023-12-01 16:11:50.137379
1887  2023-12-01 16:11:50.170147
1888  2023-12-01 16:11:50.217904
1889  2023-12-01 16:11:50.249048
1890  2023-12-01 16:11:50.281276
1891  2023-12-01 16:11:50.313736
1892  2023-12-01 16:11:50.345805
1893  2023-12-01 16:11:50.377886
1894  2023-12-01 16:11:50.410382
1895  2023-12-01 16:11:50.441759
1896  2023-12-01 16:11:50.473126
1897  2023-12-01 16:11:50.506385
1898  2023-12-01 16:11:50.537553
1899  2023-12-01 16:11:50.569492
1900  2023-12-01 16:11:50.617022
1901  2023-12-01 16:11:50.650081
1902  2023-12-01 16:11:50.681576
1903  2023-12-01 16:11:50.713680
1904  2023-12-01 16:11:50.745707
1905  2023-12-01 16:11:50.778157
1906  2023-12-01 16:11:50.810433
1907  2023-12-01 16:11:50.841308
1908  2023-12-01 16:11:50.873151
1909  2023-12-01 16:11:50.905261
1910  2023-12-01 16:11:50.937295
1911  2023-12-01 16:11:50.969875
1912  2023-12-01 16:11:51.017926
1913  2023-12-01 16:11:51.049951
1914  2023-12-01 16:11:51.081589
1915  2023-12-01 16:11:51.112865
1916  2023-12-01 16:11:51.145802
1917  2023-12-01 16:11:51.177497
1918  2023-12-01 16:11:51.209784
1919  2023-12-01 16:11:51.242099
1920  2023-12-01 16:11:51.274150
1921  2023-12-01 16:11:51.306350
1922  2023-12-01 16:11:51.337000
1923  2023-12-01 16:11:51.369148
1924  2023-12-01 16:11:51.418108
1925  2023-12-01 16:11:51.449964
1926  2023-12-01 16:11:51.481153
1927  2023-12-01 16:11:51.514056
1928  2023-12-01 16:11:51.546233
1929  2023-12-01 16:11:51.577441
1930  2023-12-01 16:11:51.609783
1931  2023-12-01 16:11:51.641715
1932  2023-12-01 16:11:51.673805
1933  2023-12-01 16:11:51.706050
1934  2023-12-01 16:11:51.737241
1935  2023-12-01 16:11:51.770068
1936  2023-12-01 16:11:51.818101
1937  2023-12-01 16:11:51.850401
1938  2023-12-01 16:11:51.881860
1939  2023-12-01 16:11:51.913891
1940  2023-12-01 16:11:51.946014
1941  2023-12-01 16:11:51.977257
1942  2023-12-01 16:11:52.009140
1943  2023-12-01 16:11:52.041515
1944  2023-12-01 16:11:52.072969
1945  2023-12-01 16:11:52.105823
1946  2023-12-01 16:11:52.137559
1947  2023-12-01 16:11:52.169325
1948  2023-12-01 16:11:52.217179
1949  2023-12-01 16:11:52.249090
1950  2023-12-01 16:11:52.281271
1951  2023-12-01 16:11:52.313688
1952  2023-12-01 16:11:52.346091
1953  2023-12-01 16:11:52.379771
1954  2023-12-01 16:11:52.409596
1955  2023-12-01 16:11:52.444089
1956  2023-12-01 16:11:52.476098
1957  2023-12-01 16:11:52.505624
1958  2023-12-01 16:11:52.538232
1959  2023-12-01 16:11:52.569269
1960  2023-12-01 16:11:52.619937
1961  2023-12-01 16:11:52.649081
1962  2023-12-01 16:11:52.681152
1963  2023-12-01 16:11:52.713255
1964  2023-12-01 16:11:52.745499
1965  2023-12-01 16:11:52.777376
1966  2023-12-01 16:11:52.809584
1967  2023-12-01 16:11:52.843369
1968  2023-12-01 16:11:52.874150
1969  2023-12-01 16:11:52.905383
1970  2023-12-01 16:11:52.940042
1971  2023-12-01 16:11:52.971155
1972  2023-12-01 16:11:53.020409
1973  2023-12-01 16:11:53.051127
1974  2023-12-01 16:11:53.081007
1975  2023-12-01 16:11:53.113490
1976  2023-12-01 16:11:53.145816
1977  2023-12-01 16:11:53.178616
1978  2023-12-01 16:11:53.210711
1979  2023-12-01 16:11:53.242286
1980  2023-12-01 16:11:53.274608
1981  2023-12-01 16:11:53.305024
1982  2023-12-01 16:11:53.338515
1983  2023-12-01 16:11:53.370317
1984  2023-12-01 16:11:53.419127
1985  2023-12-01 16:11:53.450116
1986  2023-12-01 16:11:53.481027
1987  2023-12-01 16:11:53.514181
1988  2023-12-01 16:11:53.547307
1989  2023-12-01 16:11:53.579610
1990  2023-12-01 16:11:53.611564
1991  2023-12-01 16:11:53.643191
1992  2023-12-01 16:11:53.674777
1993  2023-12-01 16:11:53.706240
1994  2023-12-01 16:11:53.738608
1995  2023-12-01 16:11:53.770349
1996  2023-12-01 16:11:53.817561
1997  2023-12-01 16:11:53.850195
1998  2023-12-01 16:11:53.882152
1999  2023-12-01 16:11:53.914118
2000  2023-12-01 16:11:53.946496
2001  2023-12-01 16:11:53.979293
2002  2023-12-01 16:11:54.009620
2003  2023-12-01 16:11:54.042873
2004  2023-12-01 16:11:54.074034
2005  2023-12-01 16:11:54.107273
2006  2023-12-01 16:11:54.138275
2007  2023-12-01 16:11:54.170320
2008  2023-12-01 16:11:54.219007
2009  2023-12-01 16:11:54.251181
2010  2023-12-01 16:11:54.281644
2011  2023-12-01 16:11:54.315255
2012  2023-12-01 16:11:54.345888
2013  2023-12-01 16:11:54.378567
2014  2023-12-01 16:11:54.409615
2015  2023-12-01 16:11:54.441966
2016  2023-12-01 16:11:54.474174
2017  2023-12-01 16:11:54.505820
2018  2023-12-01 16:11:54.538119
2019  2023-12-01 16:11:54.570041
2020  2023-12-01 16:11:54.618969
2021  2023-12-01 16:11:54.650957
2022  2023-12-01 16:11:54.683035
2023  2023-12-01 16:11:54.714069
2024  2023-12-01 16:11:54.746545
2025  2023-12-01 16:11:54.778776
2026  2023-12-01 16:11:54.810094
2027  2023-12-01 16:11:54.841977
2028  2023-12-01 16:11:54.874189
2029  2023-12-01 16:11:54.906151
2030  2023-12-01 16:11:54.937273
2031  2023-12-01 16:11:54.970152
2032  2023-12-01 16:11:55.019075
2033  2023-12-01 16:11:55.050096
2034  2023-12-01 16:11:55.081984
2035  2023-12-01 16:11:55.113289
2036  2023-12-01 16:11:55.147283
2037  2023-12-01 16:11:55.178879
2038  2023-12-01 16:11:55.210018
2039  2023-12-01 16:11:55.241955
2040  2023-12-01 16:11:55.273972
2041  2023-12-01 16:11:55.305878
2042  2023-12-01 16:11:55.338484
2043  2023-12-01 16:11:55.369672
2044  2023-12-01 16:11:55.418872
2045  2023-12-01 16:11:55.449001
2046  2023-12-01 16:11:55.481567
2047  2023-12-01 16:11:55.513710
2048  2023-12-01 16:11:55.545333
2049  2023-12-01 16:11:55.577410
2050  2023-12-01 16:11:55.610210
2051  2023-12-01 16:11:55.641993
2052  2023-12-01 16:11:55.673790
2053  2023-12-01 16:11:55.705748
2054  2023-12-01 16:11:55.737641
2055  2023-12-01 16:11:55.769639
2056  2023-12-01 16:11:55.818717
2057  2023-12-01 16:11:55.848998
2058  2023-12-01 16:11:55.881339
2059  2023-12-01 16:11:55.913031
2060  2023-12-01 16:11:55.945435
2061  2023-12-01 16:11:55.977998
2062  2023-12-01 16:11:56.009921
2063  2023-12-01 16:11:56.041904
2064  2023-12-01 16:11:56.073556
2065  2023-12-01 16:11:56.105212
2066  2023-12-01 16:11:56.137040
2067  2023-12-01 16:11:56.169159
2068  2023-12-01 16:11:56.217508
2069  2023-12-01 16:11:56.249552
2070  2023-12-01 16:11:56.281509
2071  2023-12-01 16:11:56.314236
2072  2023-12-01 16:11:56.345176
2073  2023-12-01 16:11:56.377283
2074  2023-12-01 16:11:56.409968
2075  2023-12-01 16:11:56.441998
2076  2023-12-01 16:11:56.474397
2077  2023-12-01 16:11:56.505232
2078  2023-12-01 16:11:56.537220
2079  2023-12-01 16:11:56.570282
2080  2023-12-01 16:11:56.617767
2081  2023-12-01 16:11:56.649135
2082  2023-12-01 16:11:56.681611
2083  2023-12-01 16:11:56.713656
2084  2023-12-01 16:11:56.745491
2085  2023-12-01 16:11:56.777814
2086  2023-12-01 16:11:56.810290
2087  2023-12-01 16:11:56.841415
2088  2023-12-01 16:11:56.873086
2089  2023-12-01 16:11:56.905068
2090  2023-12-01 16:11:56.937119
2091  2023-12-01 16:11:56.970025
2092  2023-12-01 16:11:57.017729
2093  2023-12-01 16:11:57.049955
2094  2023-12-01 16:11:57.081470
2095  2023-12-01 16:11:57.113002
2096  2023-12-01 16:11:57.144806
2097  2023-12-01 16:11:57.177534
2098  2023-12-01 16:11:57.210266
2099  2023-12-01 16:11:57.241189
2100  2023-12-01 16:11:57.273512
2101  2023-12-01 16:11:57.305950
2102  2023-12-01 16:11:57.337757
2103  2023-12-01 16:11:57.370575
2104  2023-12-01 16:11:57.417731
2105  2023-12-01 16:11:57.449745
2106  2023-12-01 16:11:57.481692
2107  2023-12-01 16:11:57.513960
2108  2023-12-01 16:11:57.546265
2109  2023-12-01 16:11:57.578808
2110  2023-12-01 16:11:57.609214
2111  2023-12-01 16:11:57.641646
2112  2023-12-01 16:11:57.673658
2113  2023-12-01 16:11:57.705391
2114  2023-12-01 16:11:57.737262
2115  2023-12-01 16:11:57.769615
2116  2023-12-01 16:11:57.818610
2117  2023-12-01 16:11:57.850028
2118  2023-12-01 16:11:57.881499
2119  2023-12-01 16:11:57.913815
2120  2023-12-01 16:11:57.946045
2121  2023-12-01 16:11:57.977754
2122  2023-12-01 16:11:58.010688
2123  2023-12-01 16:11:58.041569
2124  2023-12-01 16:11:58.073553
2125  2023-12-01 16:11:58.108521
2126  2023-12-01 16:11:58.138154
2127  2023-12-01 16:11:58.170570
2128  2023-12-01 16:11:58.217623
2129  2023-12-01 16:11:58.249779
2130  2023-12-01 16:11:58.281352
2131  2023-12-01 16:11:58.312874
2132  2023-12-01 16:11:58.345962
2133  2023-12-01 16:11:58.379382
2134  2023-12-01 16:11:58.410417
2135  2023-12-01 16:11:58.441370
2136  2023-12-01 16:11:58.473421
2137  2023-12-01 16:11:58.506562
2138  2023-12-01 16:11:58.536974
2139  2023-12-01 16:11:58.570325
2140  2023-12-01 16:11:58.617193
2141  2023-12-01 16:11:58.651137
2142  2023-12-01 16:11:58.681476
2143  2023-12-01 16:11:58.713192
2144  2023-12-01 16:11:58.744949
2145  2023-12-01 16:11:58.777238
2146  2023-12-01 16:11:58.810731
2147  2023-12-01 16:11:58.841763
2148  2023-12-01 16:11:58.873282
2149  2023-12-01 16:11:58.906180
2150  2023-12-01 16:11:58.937750
2151  2023-12-01 16:11:58.969775
2152  2023-12-01 16:11:59.018592
2153  2023-12-01 16:11:59.049940
2154  2023-12-01 16:11:59.081028
2155  2023-12-01 16:11:59.113502
2156  2023-12-01 16:11:59.145195
2157  2023-12-01 16:11:59.180359
2158  2023-12-01 16:11:59.211004
2159  2023-12-01 16:11:59.241830
2160  2023-12-01 16:11:59.274005
2161  2023-12-01 16:11:59.304927
2162  2023-12-01 16:11:59.337144
2163  2023-12-01 16:11:59.369358
2164  2023-12-01 16:11:59.418177
2165  2023-12-01 16:11:59.450214
2166  2023-12-01 16:11:59.481812
2167  2023-12-01 16:11:59.513987
2168  2023-12-01 16:11:59.545568
2169  2023-12-01 16:11:59.578171
2170  2023-12-01 16:11:59.609618
2171  2023-12-01 16:11:59.641825
2172  2023-12-01 16:11:59.673886
2173  2023-12-01 16:11:59.705801
2174  2023-12-01 16:11:59.737849
2175  2023-12-01 16:11:59.769726
2176  2023-12-01 16:11:59.817392
2177  2023-12-01 16:11:59.849382
2178  2023-12-01 16:11:59.881589
2179  2023-12-01 16:11:59.912741
2180  2023-12-01 16:11:59.945030
2181  2023-12-01 16:11:59.980335
2182  2023-12-01 16:12:00.010242
2183  2023-12-01 16:12:00.041984
2184  2023-12-01 16:12:00.073105
2185  2023-12-01 16:12:00.105190
2186  2023-12-01 16:12:00.137007
2187  2023-12-01 16:12:00.169425
2188  2023-12-01 16:12:00.218131
2189  2023-12-01 16:12:00.251168
2190  2023-12-01 16:12:00.281677
2191  2023-12-01 16:12:00.313036
2192  2023-12-01 16:12:00.345354
2193  2023-12-01 16:12:00.377251
2194  2023-12-01 16:12:00.409382
2195  2023-12-01 16:12:00.441481
2196  2023-12-01 16:12:00.473301
2197  2023-12-01 16:12:00.505481
2198  2023-12-01 16:12:00.537707
2199  2023-12-01 16:12:00.569446
2200  2023-12-01 16:12:00.617804
2201  2023-12-01 16:12:00.649608
2202  2023-12-01 16:12:00.681106
2203  2023-12-01 16:12:00.714059
2204  2023-12-01 16:12:00.744808
2205  2023-12-01 16:12:00.777065
2206  2023-12-01 16:12:00.809319
2207  2023-12-01 16:12:00.841176
2208  2023-12-01 16:12:00.873998
2209  2023-12-01 16:12:00.905661
2210  2023-12-01 16:12:00.937609
2211  2023-12-01 16:12:00.969028
2212  2023-12-01 16:12:01.017674
2213  2023-12-01 16:12:01.050414
2214  2023-12-01 16:12:01.081633
2215  2023-12-01 16:12:01.113744
2216  2023-12-01 16:12:01.145373
2217  2023-12-01 16:12:01.178481
2218  2023-12-01 16:12:01.209996
2219  2023-12-01 16:12:01.241921
2220  2023-12-01 16:12:01.274014
2221  2023-12-01 16:12:01.305756
2222  2023-12-01 16:12:01.337193
2223  2023-12-01 16:12:01.369815
2224  2023-12-01 16:12:01.417108
2225  2023-12-01 16:12:01.449116
2226  2023-12-01 16:12:01.481553
2227  2023-12-01 16:12:01.513025
2228  2023-12-01 16:12:01.545638
2229  2023-12-01 16:12:01.577412
2230  2023-12-01 16:12:01.609847
2231  2023-12-01 16:12:01.641676
2232  2023-12-01 16:12:01.673818
2233  2023-12-01 16:12:01.706018
2234  2023-12-01 16:12:01.737668
2235  2023-12-01 16:12:01.769839
2236  2023-12-01 16:12:01.817229
2237  2023-12-01 16:12:01.849156
2238  2023-12-01 16:12:01.881596
2239  2023-12-01 16:12:01.913516
2240  2023-12-01 16:12:01.945350
2241  2023-12-01 16:12:01.977552
2242  2023-12-01 16:12:02.009757
2243  2023-12-01 16:12:02.041661
2244  2023-12-01 16:12:02.073886
2245  2023-12-01 16:12:02.105832
2246  2023-12-01 16:12:02.137306
2247  2023-12-01 16:12:02.169675
2248  2023-12-01 16:12:02.217255
2249  2023-12-01 16:12:02.249794
2250  2023-12-01 16:12:02.281563
2251  2023-12-01 16:12:02.313314
2252  2023-12-01 16:12:02.345637
2253  2023-12-01 16:12:02.377278
2254  2023-12-01 16:12:02.409446
2255  2023-12-01 16:12:02.441482
2256  2023-12-01 16:12:02.473715
2257  2023-12-01 16:12:02.505876
2258  2023-12-01 16:12:02.537213
2259  2023-12-01 16:12:02.568831
2260  2023-12-01 16:12:02.618019
2261  2023-12-01 16:12:02.649588
2262  2023-12-01 16:12:02.682197
2263  2023-12-01 16:12:02.713802
2264  2023-12-01 16:12:02.746006
2265  2023-12-01 16:12:02.777304
2266  2023-12-01 16:12:02.809305
2267  2023-12-01 16:12:02.841871
2268  2023-12-01 16:12:02.873297
2269  2023-12-01 16:12:02.905721
2270  2023-12-01 16:12:02.937030
2271  2023-12-01 16:12:02.969030
2272  2023-12-01 16:12:03.017192
2273  2023-12-01 16:12:03.049357
2274  2023-12-01 16:12:03.080779
2275  2023-12-01 16:12:03.113483
2276  2023-12-01 16:12:03.145387
2277  2023-12-01 16:12:03.177846
2278  2023-12-01 16:12:03.209301
2279  2023-12-01 16:12:03.241386
2280  2023-12-01 16:12:03.273301
2281  2023-12-01 16:12:03.305400
2282  2023-12-01 16:12:03.337873
2283  2023-12-01 16:12:03.369783
2284  2023-12-01 16:12:03.417710
2285  2023-12-01 16:12:03.449146
2286  2023-12-01 16:12:03.481597
2287  2023-12-01 16:12:03.513856
2288  2023-12-01 16:12:03.546084
2289  2023-12-01 16:12:03.577673
2290  2023-12-01 16:12:03.610037
2291  2023-12-01 16:12:03.640912
2292  2023-12-01 16:12:03.673043
2293  2023-12-01 16:12:03.704885
2294  2023-12-01 16:12:03.737789
2295  2023-12-01 16:12:03.769814
2296  2023-12-01 16:12:03.817999
2297  2023-12-01 16:12:03.849167
2298  2023-12-01 16:12:03.881683
2299  2023-12-01 16:12:03.913961
2300  2023-12-01 16:12:03.946159
2301  2023-12-01 16:12:03.976885
2302  2023-12-01 16:12:04.009271
2303  2023-12-01 16:12:04.041182
2304  2023-12-01 16:12:04.073916
2305  2023-12-01 16:12:04.105119
2306  2023-12-01 16:12:04.137031
2307  2023-12-01 16:12:04.169292
2308  2023-12-01 16:12:04.217177
2309  2023-12-01 16:12:04.249141
2310  2023-12-01 16:12:04.281051
2311  2023-12-01 16:12:04.313841
2312  2023-12-01 16:12:04.345283
2313  2023-12-01 16:12:04.377609
2314  2023-12-01 16:12:04.409531
2315  2023-12-01 16:12:04.441540
2316  2023-12-01 16:12:04.473813
2317  2023-12-01 16:12:04.505175
2318  2023-12-01 16:12:04.537769
2319  2023-12-01 16:12:04.569161
2320  2023-12-01 16:12:04.617107
2321  2023-12-01 16:12:04.649254
2322  2023-12-01 16:12:04.681671
2323  2023-12-01 16:12:04.713105
2324  2023-12-01 16:12:04.744815
2325  2023-12-01 16:12:04.777357
2326  2023-12-01 16:12:04.809273
2327  2023-12-01 16:12:04.841933
2328  2023-12-01 16:12:04.873277
2329  2023-12-01 16:12:04.905766
2330  2023-12-01 16:12:04.937255
2331  2023-12-01 16:12:04.969762
2332  2023-12-01 16:12:05.017982
2333  2023-12-01 16:12:05.049773
2334  2023-12-01 16:12:05.081243
2335  2023-12-01 16:12:05.113749
2336  2023-12-01 16:12:05.145262
2337  2023-12-01 16:12:05.177300
2338  2023-12-01 16:12:05.209902
2339  2023-12-01 16:12:05.241408
2340  2023-12-01 16:12:05.273690
2341  2023-12-01 16:12:05.304940
2342  2023-12-01 16:12:05.337761
2343  2023-12-01 16:12:05.369218
2344  2023-12-01 16:12:05.417074
2345  2023-12-01 16:12:05.449451
2346  2023-12-01 16:12:05.481227
2347  2023-12-01 16:12:05.513647
2348  2023-12-01 16:12:05.545898
2349  2023-12-01 16:12:05.577579
2350  2023-12-01 16:12:05.609786
2351  2023-12-01 16:12:05.641020
2352  2023-12-01 16:12:05.673227
2353  2023-12-01 16:12:05.705245
2354  2023-12-01 16:12:05.737612
2355  2023-12-01 16:12:05.769212
2356  2023-12-01 16:12:05.817234
2357  2023-12-01 16:12:05.849480
2358  2023-12-01 16:12:05.881369
2359  2023-12-01 16:12:05.912896
2360  2023-12-01 16:12:05.944813
2361  2023-12-01 16:12:05.977520
2362  2023-12-01 16:12:06.009674
2363  2023-12-01 16:12:06.041780
2364  2023-12-01 16:12:06.074004
2365  2023-12-01 16:12:06.105281
2366  2023-12-01 16:12:06.137362
2367  2023-12-01 16:12:06.169867
2368  2023-12-01 16:12:06.218005
2369  2023-12-01 16:12:06.249739
2370  2023-12-01 16:12:06.281800
2371  2023-12-01 16:12:06.313414
2372  2023-12-01 16:12:06.345511
2373  2023-12-01 16:12:06.377581
2374  2023-12-01 16:12:06.409111
2375  2023-12-01 16:12:06.441265
2376  2023-12-01 16:12:06.473062
2377  2023-12-01 16:12:06.505792
2378  2023-12-01 16:12:06.537765
2379  2023-12-01 16:12:06.569613
2380  2023-12-01 16:12:06.618151
2381  2023-12-01 16:12:06.649218
2382  2023-12-01 16:12:06.681616
2383  2023-12-01 16:12:06.713692
2384  2023-12-01 16:12:06.745323
2385  2023-12-01 16:12:06.777814
2386  2023-12-01 16:12:06.809696
2387  2023-12-01 16:12:06.841074
2388  2023-12-01 16:12:06.873673
2389  2023-12-01 16:12:06.905659
2390  2023-12-01 16:12:06.937831
2391  2023-12-01 16:12:06.968764
2392  2023-12-01 16:12:07.018087
2393  2023-12-01 16:12:07.050001
2394  2023-12-01 16:12:07.080965
2395  2023-12-01 16:12:07.113224
2396  2023-12-01 16:12:07.145466
2397  2023-12-01 16:12:07.177638
2398  2023-12-01 16:12:07.208941
2399  2023-12-01 16:12:07.241270
2400  2023-12-01 16:12:07.274128
2401  2023-12-01 16:12:07.305879
2402  2023-12-01 16:12:07.337783
2403  2023-12-01 16:12:07.369727
2404  2023-12-01 16:12:07.417704
2405  2023-12-01 16:12:07.449637
2406  2023-12-01 16:12:07.481493
2407  2023-12-01 16:12:07.513638
2408  2023-12-01 16:12:07.545260
2409  2023-12-01 16:12:07.577142
2410  2023-12-01 16:12:07.609081
2411  2023-12-01 16:12:07.641224
2412  2023-12-01 16:12:07.673383
2413  2023-12-01 16:12:07.705125
2414  2023-12-01 16:12:07.737449
2415  2023-12-01 16:12:07.769796
2416  2023-12-01 16:12:07.817995
2417  2023-12-01 16:12:07.849519
2418  2023-12-01 16:12:07.881142
2419  2023-12-01 16:12:07.913832
2420  2023-12-01 16:12:07.945503
2421  2023-12-01 16:12:07.977240
2422  2023-12-01 16:12:08.009147
2423  2023-12-01 16:12:08.041244
2424  2023-12-01 16:12:08.073420
2425  2023-12-01 16:12:08.105294
2426  2023-12-01 16:12:08.137584
2427  2023-12-01 16:12:08.170013
2428  2023-12-01 16:12:08.217928
2429  2023-12-01 16:12:08.249141
2430  2023-12-01 16:12:08.281208
2431  2023-12-01 16:12:08.313378
2432  2023-12-01 16:12:08.345395
2433  2023-12-01 16:12:08.377454
2434  2023-12-01 16:12:08.409181
2435  2023-12-01 16:12:08.441538
2436  2023-12-01 16:12:08.473451
2437  2023-12-01 16:12:08.505708
2438  2023-12-01 16:12:08.537789
2439  2023-12-01 16:12:08.569742
2440  2023-12-01 16:12:08.617337
2441  2023-12-01 16:12:08.649180
2442  2023-12-01 16:12:08.681034
2443  2023-12-01 16:12:08.713171
2444  2023-12-01 16:12:08.745398
2445  2023-12-01 16:12:08.776885
2446  2023-12-01 16:12:08.809033
2447  2023-12-01 16:12:08.841311
2448  2023-12-01 16:12:08.873300
2449  2023-12-01 16:12:08.905824
2450  2023-12-01 16:12:08.937952
2451  2023-12-01 16:12:08.969116
2452  2023-12-01 16:12:09.017267
2453  2023-12-01 16:12:09.049697
2454  2023-12-01 16:12:09.081790
2455  2023-12-01 16:12:09.113073
2456  2023-12-01 16:12:09.145338
2457  2023-12-01 16:12:09.177217
2458  2023-12-01 16:12:09.209171
2459  2023-12-01 16:12:09.241071
2460  2023-12-01 16:12:09.273252
2461  2023-12-01 16:12:09.305161
2462  2023-12-01 16:12:09.337727
2463  2023-12-01 16:12:09.369695
2464  2023-12-01 16:12:09.417103
2465  2023-12-01 16:12:09.449188
2466  2023-12-01 16:12:09.481103
2467  2023-12-01 16:12:09.513138
2468  2023-12-01 16:12:09.545069
2469  2023-12-01 16:12:09.577539
2470  2023-12-01 16:12:09.609613
2471  2023-12-01 16:12:09.640992
2472  2023-12-01 16:12:09.673351
2473  2023-12-01 16:12:09.704859
2474  2023-12-01 16:12:09.737013
2475  2023-12-01 16:12:09.769749
2476  2023-12-01 16:12:09.817865
2477  2023-12-01 16:12:09.850043
2478  2023-12-01 16:12:09.881915
2479  2023-12-01 16:12:09.913068
2480  2023-12-01 16:12:09.944964
2481  2023-12-01 16:12:09.977687
2482  2023-12-01 16:12:10.009192
2483  2023-12-01 16:12:10.041178
2484  2023-12-01 16:12:10.073859
2485  2023-12-01 16:12:10.105164
2486  2023-12-01 16:12:10.137883
2487  2023-12-01 16:12:10.169153
2488  2023-12-01 16:12:10.218088
2489  2023-12-01 16:12:10.249664
2490  2023-12-01 16:12:10.281508
2491  2023-12-01 16:12:10.313103
2492  2023-12-01 16:12:10.345078
2493  2023-12-01 16:12:10.377710
2494  2023-12-01 16:12:10.409118
2495  2023-12-01 16:12:10.441334
2496  2023-12-01 16:12:10.473374
2497  2023-12-01 16:12:10.505799
2498  2023-12-01 16:12:10.537654
2499  2023-12-01 16:12:10.570036
2500  2023-12-01 16:12:10.616915
2501  2023-12-01 16:12:10.649035
2502  2023-12-01 16:12:10.681762
2503  2023-12-01 16:12:10.713258
2504  2023-12-01 16:12:10.744891
2505  2023-12-01 16:12:10.777686
2506  2023-12-01 16:12:10.809861
2507  2023-12-01 16:12:10.841315
2508  2023-12-01 16:12:10.873388
2509  2023-12-01 16:12:10.905254
2510  2023-12-01 16:12:10.937380
2511  2023-12-01 16:12:10.969159
2512  2023-12-01 16:12:11.017592
2513  2023-12-01 16:12:11.049142
2514  2023-12-01 16:12:11.081771
2515  2023-12-01 16:12:11.113844
2516  2023-12-01 16:12:11.144968
2517  2023-12-01 16:12:11.177052
2518  2023-12-01 16:12:11.209032
2519  2023-12-01 16:12:11.241818
2520  2023-12-01 16:12:11.274102
2521  2023-12-01 16:12:11.305258
2522  2023-12-01 16:12:11.337257
2523  2023-12-01 16:12:11.369832
2524  2023-12-01 16:12:11.417735
2525  2023-12-01 16:12:11.449514
2526  2023-12-01 16:12:11.481368
2527  2023-12-01 16:12:11.513709
2528  2023-12-01 16:12:11.545182
2529  2023-12-01 16:12:11.577684
2530  2023-12-01 16:12:11.609532
2531  2023-12-01 16:12:11.642089
2532  2023-12-01 16:12:11.673869
2533  2023-12-01 16:12:11.704855
2534  2023-12-01 16:12:11.737359
2535  2023-12-01 16:12:11.769306
2536  2023-12-01 16:12:11.817276
2537  2023-12-01 16:12:11.848845
2538  2023-12-01 16:12:11.881171
2539  2023-12-01 16:12:11.913577
2540  2023-12-01 16:12:11.945904
2541  2023-12-01 16:12:11.977917
2542  2023-12-01 16:12:12.009282
2543  2023-12-01 16:12:12.041326
2544  2023-12-01 16:12:12.074122
2545  2023-12-01 16:12:12.105309
2546  2023-12-01 16:12:12.138116
2547  2023-12-01 16:12:12.169768
2548  2023-12-01 16:12:12.217354
2549  2023-12-01 16:12:12.249286
2550  2023-12-01 16:12:12.280982
2551  2023-12-01 16:12:12.313286
2552  2023-12-01 16:12:12.345322
2553  2023-12-01 16:12:12.377700
2554  2023-12-01 16:12:12.409254
2555  2023-12-01 16:12:12.441635
2556  2023-12-01 16:12:12.473338
2557  2023-12-01 16:12:12.505976
2558  2023-12-01 16:12:12.537940
2559  2023-12-01 16:12:12.569769
2560  2023-12-01 16:12:12.618107
2561  2023-12-01 16:12:12.648917
2562  2023-12-01 16:12:12.681131
2563  2023-12-01 16:12:12.713142
2564  2023-12-01 16:12:12.745046
2565  2023-12-01 16:12:12.777051
2566  2023-12-01 16:12:12.809420
2567  2023-12-01 16:12:12.841401
2568  2023-12-01 16:12:12.873157
2569  2023-12-01 16:12:12.905167
2570  2023-12-01 16:12:12.936984
2571  2023-12-01 16:12:12.969176
2572  2023-12-01 16:12:13.018187
2573  2023-12-01 16:12:13.049770
2574  2023-12-01 16:12:13.081657
2575  2023-12-01 16:12:13.113251
2576  2023-12-01 16:12:13.145002
2577  2023-12-01 16:12:13.177875
2578  2023-12-01 16:12:13.209040
2579  2023-12-01 16:12:13.241277
2580  2023-12-01 16:12:13.273278
2581  2023-12-01 16:12:13.305246
2582  2023-12-01 16:12:13.337159
2583  2023-12-01 16:12:13.369840
2584  2023-12-01 16:12:13.418094
2585  2023-12-01 16:12:13.450107
2586  2023-12-01 16:12:13.481209
2587  2023-12-01 16:12:13.512869
2588  2023-12-01 16:12:13.544942
2589  2023-12-01 16:12:13.577502
2590  2023-12-01 16:12:13.609798
2591  2023-12-01 16:12:13.641281
2592  2023-12-01 16:12:13.673325
2593  2023-12-01 16:12:13.705799
2594  2023-12-01 16:12:13.737850
2595  2023-12-01 16:12:13.769966
2596  2023-12-01 16:12:13.817065
2597  2023-12-01 16:12:13.848987
2598  2023-12-01 16:12:13.881037
2599  2023-12-01 16:12:13.912971
2600  2023-12-01 16:12:13.945102
2601  2023-12-01 16:12:13.977856
2602  2023-12-01 16:12:14.009517
2603  2023-12-01 16:12:14.041487
2604  2023-12-01 16:12:14.073417
2605  2023-12-01 16:12:14.105755
2606  2023-12-01 16:12:14.137797
2607  2023-12-01 16:12:14.169410
2608  2023-12-01 16:12:14.217292
2609  2023-12-01 16:12:14.250077
2610  2023-12-01 16:12:14.281752
2611  2023-12-01 16:12:14.313816
2612  2023-12-01 16:12:14.345597
2613  2023-12-01 16:12:14.377198
2614  2023-12-01 16:12:14.409768
2615  2023-12-01 16:12:14.441314
2616  2023-12-01 16:12:14.473559
2617  2023-12-01 16:12:14.505584
2618  2023-12-01 16:12:14.537281
2619  2023-12-01 16:12:14.569738
2620  2023-12-01 16:12:14.618003
2621  2023-12-01 16:12:14.649871
2622  2023-12-01 16:12:14.681400
2623  2023-12-01 16:12:14.713483
2624  2023-12-01 16:12:14.745813
2625  2023-12-01 16:12:14.776959
2626  2023-12-01 16:12:14.809565
2627  2023-12-01 16:12:14.841429
2628  2023-12-01 16:12:14.873160
2629  2023-12-01 16:12:14.905300
2630  2023-12-01 16:12:14.937697
2631  2023-12-01 16:12:14.969685
2632  2023-12-01 16:12:15.017209
2633  2023-12-01 16:12:15.050129
2634  2023-12-01 16:12:15.081899
2635  2023-12-01 16:12:15.113675
2636  2023-12-01 16:12:15.145726
2637  2023-12-01 16:12:15.177683
2638  2023-12-01 16:12:15.209623
2639  2023-12-01 16:12:15.241459
2640  2023-12-01 16:12:15.273326
2641  2023-12-01 16:12:15.305866
2642  2023-12-01 16:12:15.338052
2643  2023-12-01 16:12:15.369931
2644  2023-12-01 16:12:15.417237
2645  2023-12-01 16:12:15.449039
2646  2023-12-01 16:12:15.480922
2647  2023-12-01 16:12:15.513188
2648  2023-12-01 16:12:15.545656
2649  2023-12-01 16:12:15.576817
2650  2023-12-01 16:12:15.610329
2651  2023-12-01 16:12:15.641550
2652  2023-12-01 16:12:15.673398
2653  2023-12-01 16:12:15.705234
2654  2023-12-01 16:12:15.737183
2655  2023-12-01 16:12:15.770018
2656  2023-12-01 16:12:15.817763
2657  2023-12-01 16:12:15.850116
2658  2023-12-01 16:12:15.881857
2659  2023-12-01 16:12:15.913737
2660  2023-12-01 16:12:15.945605
2661  2023-12-01 16:12:15.977666
2662  2023-12-01 16:12:16.009518
2663  2023-12-01 16:12:16.040794
2664  2023-12-01 16:12:16.073555
2665  2023-12-01 16:12:16.105080
2666  2023-12-01 16:12:16.137807
2667  2023-12-01 16:12:16.169862
2668  2023-12-01 16:12:16.218195
2669  2023-12-01 16:12:16.250045
2670  2023-12-01 16:12:16.281068
2671  2023-12-01 16:12:16.313667
2672  2023-12-01 16:12:16.345303
2673  2023-12-01 16:12:16.377208
2674  2023-12-01 16:12:16.409230
2675  2023-12-01 16:12:16.441874
2676  2023-12-01 16:12:16.473644
2677  2023-12-01 16:12:16.505943
2678  2023-12-01 16:12:16.537780
2679  2023-12-01 16:12:16.569371
2680  2023-12-01 16:12:16.617039
2681  2023-12-01 16:12:16.650107
2682  2023-12-01 16:12:16.681131
2683  2023-12-01 16:12:16.713155
2684  2023-12-01 16:12:16.745480
2685  2023-12-01 16:12:16.777762
2686  2023-12-01 16:12:16.809739
2687  2023-12-01 16:12:16.841731
2688  2023-12-01 16:12:16.873458
2689  2023-12-01 16:12:16.905039
2690  2023-12-01 16:12:16.937841
2691  2023-12-01 16:12:16.969509
2692  2023-12-01 16:12:17.017762
2693  2023-12-01 16:12:17.049039
2694  2023-12-01 16:12:17.081708
2695  2023-12-01 16:12:17.112882
2696  2023-12-01 16:12:17.145898
2697  2023-12-01 16:12:17.176886
2698  2023-12-01 16:12:17.209156
2699  2023-12-01 16:12:17.241444
2700  2023-12-01 16:12:17.273322
2701  2023-12-01 16:12:17.305782
2702  2023-12-01 16:12:17.337913
2703  2023-12-01 16:12:17.369288
2704  2023-12-01 16:12:17.417920
2705  2023-12-01 16:12:17.449711
2706  2023-12-01 16:12:17.481693
2707  2023-12-01 16:12:17.513276
2708  2023-12-01 16:12:17.545502
2709  2023-12-01 16:12:17.577176
2710  2023-12-01 16:12:17.609356
2711  2023-12-01 16:12:17.642204
2712  2023-12-01 16:12:17.673118
2713  2023-12-01 16:12:17.705331
2714  2023-12-01 16:12:17.737130
2715  2023-12-01 16:12:17.769010
2716  2023-12-01 16:12:17.816855
2717  2023-12-01 16:12:17.849801
2718  2023-12-01 16:12:17.881791
2719  2023-12-01 16:12:17.913655
2720  2023-12-01 16:12:17.945721
2721  2023-12-01 16:12:17.976823
2722  2023-12-01 16:12:18.010150
2723  2023-12-01 16:12:18.041358
2724  2023-12-01 16:12:18.073190
2725  2023-12-01 16:12:18.105786
2726  2023-12-01 16:12:18.137040
2727  2023-12-01 16:12:18.169149
2728  2023-12-01 16:12:18.217719
2729  2023-12-01 16:12:18.249678
2730  2023-12-01 16:12:18.281202
2731  2023-12-01 16:12:18.313335
2732  2023-12-01 16:12:18.345783
2733  2023-12-01 16:12:18.377052
2734  2023-12-01 16:12:18.409274
2735  2023-12-01 16:12:18.441398
2736  2023-12-01 16:12:18.473270
2737  2023-12-01 16:12:18.505877
2738  2023-12-01 16:12:18.536873
2739  2023-12-01 16:12:18.569040
2740  2023-12-01 16:12:18.617582
2741  2023-12-01 16:12:18.649907
2742  2023-12-01 16:12:18.681217
2743  2023-12-01 16:12:18.713726
2744  2023-12-01 16:12:18.745105
2745  2023-12-01 16:12:18.776910
2746  2023-12-01 16:12:18.809178
2747  2023-12-01 16:12:18.842139
2748  2023-12-01 16:12:18.873726
2749  2023-12-01 16:12:18.904968
2750  2023-12-01 16:12:18.936776
2751  2023-12-01 16:12:18.969773
2752  2023-12-01 16:12:19.017068
2753  2023-12-01 16:12:19.049715
2754  2023-12-01 16:12:19.081354
2755  2023-12-01 16:12:19.113579
2756  2023-12-01 16:12:19.145449
2757  2023-12-01 16:12:19.177538
2758  2023-12-01 16:12:19.209020
2759  2023-12-01 16:12:19.241760
2760  2023-12-01 16:12:19.273721
2761  2023-12-01 16:12:19.304759
2762  2023-12-01 16:12:19.336773
2763  2023-12-01 16:12:19.369093
2764  2023-12-01 16:12:19.417688
2765  2023-12-01 16:12:19.449528
2766  2023-12-01 16:12:19.481038
2767  2023-12-01 16:12:19.513550
2768  2023-12-01 16:12:19.545659
2769  2023-12-01 16:12:19.577239
2770  2023-12-01 16:12:19.608992
2771  2023-12-01 16:12:19.641442
2772  2023-12-01 16:12:19.673261
2773  2023-12-01 16:12:19.705501
2774  2023-12-01 16:12:19.736992
2775  2023-12-01 16:12:19.769906
2776  2023-12-01 16:12:19.817702
2777  2023-12-01 16:12:19.849229
2778  2023-12-01 16:12:19.881045
2779  2023-12-01 16:12:19.913034
2780  2023-12-01 16:12:19.945534
2781  2023-12-01 16:12:19.977074
2782  2023-12-01 16:12:20.009294
2783  2023-12-01 16:12:20.041568
2784  2023-12-01 16:12:20.073729
2785  2023-12-01 16:12:20.105719
2786  2023-12-01 16:12:20.137910
2787  2023-12-01 16:12:20.169792
2788  2023-12-01 16:12:20.216930
2789  2023-12-01 16:12:20.249114
2790  2023-12-01 16:12:20.281169
2791  2023-12-01 16:12:20.313142
2792  2023-12-01 16:12:20.345458
2793  2023-12-01 16:12:20.376956
2794  2023-12-01 16:12:20.408920
2795  2023-12-01 16:12:20.441829
2796  2023-12-01 16:12:20.472902
2797  2023-12-01 16:12:20.505934
2798  2023-12-01 16:12:20.537920
2799  2023-12-01 16:12:20.569312
2800  2023-12-01 16:12:20.617014
2801  2023-12-01 16:12:20.649729
2802  2023-12-01 16:12:20.681172
2803  2023-12-01 16:12:20.713799
2804  2023-12-01 16:12:20.744887
2805  2023-12-01 16:12:20.777022
2806  2023-12-01 16:12:20.809031
2807  2023-12-01 16:12:20.841571
2808  2023-12-01 16:12:20.873575
2809  2023-12-01 16:12:20.905156
2810  2023-12-01 16:12:20.937054
2811  2023-12-01 16:12:20.969777
2812  2023-12-01 16:12:21.017407
2813  2023-12-01 16:12:21.049042
2814  2023-12-01 16:12:21.081658
2815  2023-12-01 16:12:21.113580
2816  2023-12-01 16:12:21.145531
2817  2023-12-01 16:12:21.176954
2818  2023-12-01 16:12:21.209148
2819  2023-12-01 16:12:21.241371
2820  2023-12-01 16:12:21.273111
2821  2023-12-01 16:12:21.305776
2822  2023-12-01 16:12:21.337782
2823  2023-12-01 16:12:21.369072
2824  2023-12-01 16:12:21.417738
2825  2023-12-01 16:12:21.449715
2826  2023-12-01 16:12:21.481160
2827  2023-12-01 16:12:21.513341
2828  2023-12-01 16:12:21.545632
2829  2023-12-01 16:12:21.577976
2830  2023-12-01 16:12:21.609377
2831  2023-12-01 16:12:21.641589
2832  2023-12-01 16:12:21.673115
2833  2023-12-01 16:12:21.705042
2834  2023-12-01 16:12:21.737304
2835  2023-12-01 16:12:21.769403
2836  2023-12-01 16:12:21.817842
2837  2023-12-01 16:12:21.849708
2838  2023-12-01 16:12:21.881131
2839  2023-12-01 16:12:21.913350
2840  2023-12-01 16:12:21.945656
2841  2023-12-01 16:12:21.976961
2842  2023-12-01 16:12:22.009411
2843  2023-12-01 16:12:22.041482
2844  2023-12-01 16:12:22.073131
2845  2023-12-01 16:12:22.105788
2846  2023-12-01 16:12:22.137657
2847  2023-12-01 16:12:22.170068
2848  2023-12-01 16:12:22.217843
2849  2023-12-01 16:12:22.249234
2850  2023-12-01 16:12:22.281013
2851  2023-12-01 16:12:22.313716
2852  2023-12-01 16:12:22.345339
2853  2023-12-01 16:12:22.377951
2854  2023-12-01 16:12:22.409687
2855  2023-12-01 16:12:22.441574
2856  2023-12-01 16:12:22.474295
2857  2023-12-01 16:12:22.505125
2858  2023-12-01 16:12:22.537141
2859  2023-12-01 16:12:22.569113
2860  2023-12-01 16:12:22.617677
2861  2023-12-01 16:12:22.649086
2862  2023-12-01 16:12:22.681699
2863  2023-12-01 16:12:22.713689
2864  2023-12-01 16:12:22.745853
2865  2023-12-01 16:12:22.777005
2866  2023-12-01 16:12:22.809373
2867  2023-12-01 16:12:22.841556
2868  2023-12-01 16:12:22.874140
2869  2023-12-01 16:12:22.905108
2870  2023-12-01 16:12:22.938210
2871  2023-12-01 16:12:22.969632
2872  2023-12-01 16:12:23.017244
2873  2023-12-01 16:12:23.049173
2874  2023-12-01 16:12:23.080744
2875  2023-12-01 16:12:23.113149
2876  2023-12-01 16:12:23.144907
2877  2023-12-01 16:12:23.177262
2878  2023-12-01 16:12:23.209809
2879  2023-12-01 16:12:23.241591
2880  2023-12-01 16:12:23.273765
2881  2023-12-01 16:12:23.305917
2882  2023-12-01 16:12:23.337995
2883  2023-12-01 16:12:23.369701
2884  2023-12-01 16:12:23.417708
2885  2023-12-01 16:12:23.449044
2886  2023-12-01 16:12:23.480856
2887  2023-12-01 16:12:23.513142
2888  2023-12-01 16:12:23.545620
2889  2023-12-01 16:12:23.577466
2890  2023-12-01 16:12:23.609831
2891  2023-12-01 16:12:23.641747
2892  2023-12-01 16:12:23.673788
2893  2023-12-01 16:12:23.705764
2894  2023-12-01 16:12:23.737249
2895  2023-12-01 16:12:23.769373
2896  2023-12-01 16:12:23.817689
2897  2023-12-01 16:12:23.849797
2898  2023-12-01 16:12:23.881667
2899  2023-12-01 16:12:23.913371
2900  2023-12-01 16:12:23.945684
2901  2023-12-01 16:12:23.977056
2902  2023-12-01 16:12:24.009236
2903  2023-12-01 16:12:24.041296
2904  2023-12-01 16:12:24.073399
2905  2023-12-01 16:12:24.105866
2906  2023-12-01 16:12:24.138097
2907  2023-12-01 16:12:24.169008
2908  2023-12-01 16:12:24.217752
2909  2023-12-01 16:12:24.249740
2910  2023-12-01 16:12:24.280739
2911  2023-12-01 16:12:24.313967
2912  2023-12-01 16:12:24.345884
2913  2023-12-01 16:12:24.377783
2914  2023-12-01 16:12:24.409317
2915  2023-12-01 16:12:24.441650
2916  2023-12-01 16:12:24.473666
2917  2023-12-01 16:12:24.505939
2918  2023-12-01 16:12:24.537860
2919  2023-12-01 16:12:24.569826
2920  2023-12-01 16:12:24.617721
2921  2023-12-01 16:12:24.649552
2922  2023-12-01 16:12:24.681703
2923  2023-12-01 16:12:24.713205
2924  2023-12-01 16:12:24.744943
2925  2023-12-01 16:12:24.777512
2926  2023-12-01 16:12:24.809121
2927  2023-12-01 16:12:24.841668
2928  2023-12-01 16:12:24.873767
2929  2023-12-01 16:12:24.905836
2930  2023-12-01 16:12:24.937261
2931  2023-12-01 16:12:24.970232
2932  2023-12-01 16:12:25.017051
2933  2023-12-01 16:12:25.049045
2934  2023-12-01 16:12:25.080856
2935  2023-12-01 16:12:25.114496
2936  2023-12-01 16:12:25.145675
2937  2023-12-01 16:12:25.177078
2938  2023-12-01 16:12:25.209573
2939  2023-12-01 16:12:25.241710
2940  2023-12-01 16:12:25.273697
2941  2023-12-01 16:12:25.305538
2942  2023-12-01 16:12:25.337774
2943  2023-12-01 16:12:25.369813
2944  2023-12-01 16:12:25.417099
2945  2023-12-01 16:12:25.449910
2946  2023-12-01 16:12:25.481101
2947  2023-12-01 16:12:25.513450
2948  2023-12-01 16:12:25.545078
2949  2023-12-01 16:12:25.577830
2950  2023-12-01 16:12:25.609472
2951  2023-12-01 16:12:25.641657
2952  2023-12-01 16:12:25.674113
2953  2023-12-01 16:12:25.705555
2954  2023-12-01 16:12:25.737586
2955  2023-12-01 16:12:25.769234
2956  2023-12-01 16:12:25.817226
2957  2023-12-01 16:12:25.849700
2958  2023-12-01 16:12:25.881681
2959  2023-12-01 16:12:25.913729
2960  2023-12-01 16:12:25.945617
2961  2023-12-01 16:12:25.977200
2962  2023-12-01 16:12:26.009334
2963  2023-12-01 16:12:26.041687
2964  2023-12-01 16:12:26.073311
2965  2023-12-01 16:12:26.105390
2966  2023-12-01 16:12:26.137355
2967  2023-12-01 16:12:26.170097
2968  2023-12-01 16:12:26.217170
2969  2023-12-01 16:12:26.249665
2970  2023-12-01 16:12:26.281777
2971  2023-12-01 16:12:26.313704
2972  2023-12-01 16:12:26.345595
2973  2023-12-01 16:12:26.377189
2974  2023-12-01 16:12:26.409305
2975  2023-12-01 16:12:26.441698
2976  2023-12-01 16:12:26.473180
2977  2023-12-01 16:12:26.505877
2978  2023-12-01 16:12:26.537767
2979  2023-12-01 16:12:26.569989
2980  2023-12-01 16:12:26.617861
2981  2023-12-01 16:12:26.649789
2982  2023-12-01 16:12:26.681739
2983  2023-12-01 16:12:26.713288
2984  2023-12-01 16:12:26.746006
2985  2023-12-01 16:12:26.777234
2986  2023-12-01 16:12:26.809183
2987  2023-12-01 16:12:26.841704
2988  2023-12-01 16:12:26.873673
2989  2023-12-01 16:12:26.905807
2990  2023-12-01 16:12:26.937011
2991  2023-12-01 16:12:26.969988
2992  2023-12-01 16:12:27.017501
2993  2023-12-01 16:12:27.049807
2994  2023-12-01 16:12:27.081711
2995  2023-12-01 16:12:27.113711
2996  2023-12-01 16:12:27.145118
2997  2023-12-01 16:12:27.177046
2998  2023-12-01 16:12:27.209689
2999  2023-12-01 16:12:27.241720
3000  2023-12-01 16:12:27.273886
3001  2023-12-01 16:12:27.306116
3002  2023-12-01 16:12:27.337998
3003  2023-12-01 16:12:27.370012
3004  2023-12-01 16:12:27.417107
3005  2023-12-01 16:12:27.449769
3006  2023-12-01 16:12:27.481185
3007  2023-12-01 16:12:27.513297
3008  2023-12-01 16:12:27.545691
3009  2023-12-01 16:12:27.577747
3010  2023-12-01 16:12:27.610042
3011  2023-12-01 16:12:27.641678
3012  2023-12-01 16:12:27.673343
3013  2023-12-01 16:12:27.705540
3014  2023-12-01 16:12:27.737852
3015  2023-12-01 16:12:27.769338
3016  2023-12-01 16:12:27.817163
3017  2023-12-01 16:12:27.849172
3018  2023-12-01 16:12:27.881642
3019  2023-12-01 16:12:27.912962
3020  2023-12-01 16:12:27.945015
3021  2023-12-01 16:12:27.977093
3022  2023-12-01 16:12:28.009967
3023  2023-12-01 16:12:28.041730
3024  2023-12-01 16:12:28.073090
3025  2023-12-01 16:12:28.107882
3026  2023-12-01 16:12:28.139916
3027  2023-12-01 16:12:28.169479
3028  2023-12-01 16:12:28.219151
3029  2023-12-01 16:12:28.250293
3030  2023-12-01 16:12:28.281020
3031  2023-12-01 16:12:28.313376
3032  2023-12-01 16:12:28.346761
3033  2023-12-01 16:12:28.379124
3034  2023-12-01 16:12:28.410861
3035  2023-12-01 16:12:28.443006
3036  2023-12-01 16:12:28.474945
3037  2023-12-01 16:12:28.507236
3038  2023-12-01 16:12:28.538246
3039  2023-12-01 16:12:28.571349
3040  2023-12-01 16:12:28.617044
3041  2023-12-01 16:12:28.651338
3042  2023-12-01 16:12:28.683387
3043  2023-12-01 16:12:28.714569
3044  2023-12-01 16:12:28.746955
3045  2023-12-01 16:12:28.778047
3046  2023-12-01 16:12:28.810329
3047  2023-12-01 16:12:28.843324
3048  2023-12-01 16:12:28.875353
3049  2023-12-01 16:12:28.906909
3050  2023-12-01 16:12:28.939166
3051  2023-12-01 16:12:28.971395
3052  2023-12-01 16:12:29.019052
3053  2023-12-01 16:12:29.051050
3054  2023-12-01 16:12:29.082571
3055  2023-12-01 16:12:29.114445
3056  2023-12-01 16:12:29.146874
3057  2023-12-01 16:12:29.179371
3058  2023-12-01 16:12:29.210399
3059  2023-12-01 16:12:29.243752
3060  2023-12-01 16:12:29.275014
3061  2023-12-01 16:12:29.306639
3062  2023-12-01 16:12:29.339112
3063  2023-12-01 16:12:29.371198
3064  2023-12-01 16:12:29.418049
3065  2023-12-01 16:12:29.449953
3066  2023-12-01 16:12:29.481938
3067  2023-12-01 16:12:29.514645
3068  2023-12-01 16:12:29.546835
3069  2023-12-01 16:12:29.578695
3070  2023-12-01 16:12:29.610094
3071  2023-12-01 16:12:29.642769
3072  2023-12-01 16:12:29.674960
3073  2023-12-01 16:12:29.707102
3074  2023-12-01 16:12:29.738923
3075  2023-12-01 16:12:29.770931
3076  2023-12-01 16:12:29.819117
3077  2023-12-01 16:12:29.850323
3078  2023-12-01 16:12:29.882625
3079  2023-12-01 16:12:29.914071
3080  2023-12-01 16:12:29.946924
3081  2023-12-01 16:12:29.977906
3082  2023-12-01 16:12:30.010590
3083  2023-12-01 16:12:30.042652
3084  2023-12-01 16:12:30.073519
3085  2023-12-01 16:12:30.106040
3086  2023-12-01 16:12:30.138548
3087  2023-12-01 16:12:30.170582
3088  2023-12-01 16:12:30.218983
3089  2023-12-01 16:12:30.249961
3090  2023-12-01 16:12:30.281610
3091  2023-12-01 16:12:30.314491
3092  2023-12-01 16:12:30.346744
3093  2023-12-01 16:12:30.378715
3094  2023-12-01 16:12:30.410265
3095  2023-12-01 16:12:30.442344
3096  2023-12-01 16:12:30.473957
3097  2023-12-01 16:12:30.505685
3098  2023-12-01 16:12:30.538585
3099  2023-12-01 16:12:30.569780
3100  2023-12-01 16:12:30.617660
3101  2023-12-01 16:12:30.650140
3102  2023-12-01 16:12:30.682013
3103  2023-12-01 16:12:30.713438
3104  2023-12-01 16:12:30.745289
3105  2023-12-01 16:12:30.778238
3106  2023-12-01 16:12:30.810155
3107  2023-12-01 16:12:30.842026
3108  2023-12-01 16:12:30.874419
3109  2023-12-01 16:12:30.905602
3110  2023-12-01 16:12:30.938600
3111  2023-12-01 16:12:30.970617
3112  2023-12-01 16:12:31.017576
3113  2023-12-01 16:12:31.049745
3114  2023-12-01 16:12:31.081656
3115  2023-12-01 16:12:31.113704
3116  2023-12-01 16:12:31.145617
3117  2023-12-01 16:12:31.177536
3118  2023-12-01 16:12:31.209522
3119  2023-12-01 16:12:31.241226
3120  2023-12-01 16:12:31.275098
3121  2023-12-01 16:12:31.307262
3122  2023-12-01 16:12:31.337218
3123  2023-12-01 16:12:31.370398
3124  2023-12-01 16:12:31.417290
3125  2023-12-01 16:12:31.449823
3126  2023-12-01 16:12:31.481332
3127  2023-12-01 16:12:31.513263
3128  2023-12-01 16:12:31.545806
3129  2023-12-01 16:12:31.577265
3130  2023-12-01 16:12:31.609418
3131  2023-12-01 16:12:31.642329
3132  2023-12-01 16:12:31.674203
3133  2023-12-01 16:12:31.705245
3134  2023-12-01 16:12:31.737243
3135  2023-12-01 16:12:31.769446
3136  2023-12-01 16:12:31.816997
3137  2023-12-01 16:12:31.848907
3138  2023-12-01 16:12:31.881168
3139  2023-12-01 16:12:31.913712
3140  2023-12-01 16:12:31.944993
3141  2023-12-01 16:12:31.977876
3142  2023-12-01 16:12:32.009481
3143  2023-12-01 16:12:32.041462
3144  2023-12-01 16:12:32.073783
3145  2023-12-01 16:12:32.106095
3146  2023-12-01 16:12:32.139111
3147  2023-12-01 16:12:32.169699
3148  2023-12-01 16:12:32.216966
3149  2023-12-01 16:12:32.248948
3150  2023-12-01 16:12:32.280854
3151  2023-12-01 16:12:32.313553
3152  2023-12-01 16:12:32.345368
3153  2023-12-01 16:12:32.377471
3154  2023-12-01 16:12:32.410075
3155  2023-12-01 16:12:32.442041
3156  2023-12-01 16:12:32.473243
3157  2023-12-01 16:12:32.505859
3158  2023-12-01 16:12:32.536756
3159  2023-12-01 16:12:32.570072
3160  2023-12-01 16:12:32.617302
3161  2023-12-01 16:12:32.649701
3162  2023-12-01 16:12:32.681715
3163  2023-12-01 16:12:32.713389
3164  2023-12-01 16:12:32.747055
3165  2023-12-01 16:12:32.777242
3166  2023-12-01 16:12:32.808971
3167  2023-12-01 16:12:32.841884
3168  2023-12-01 16:12:32.873192
3169  2023-12-01 16:12:32.906684
3170  2023-12-01 16:12:32.937795
3171  2023-12-01 16:12:32.969520
3172  2023-12-01 16:12:33.016895
3173  2023-12-01 16:12:33.049050
3174  2023-12-01 16:12:33.081261
3175  2023-12-01 16:12:33.113677
3176  2023-12-01 16:12:33.145658
3177  2023-12-01 16:12:33.179018
3178  2023-12-01 16:12:33.209326
3179  2023-12-01 16:12:33.241543
3180  2023-12-01 16:12:33.273268
3181  2023-12-01 16:12:33.305593
3182  2023-12-01 16:12:33.338510
3183  2023-12-01 16:12:33.370419
3184  2023-12-01 16:12:33.418403
3185  2023-12-01 16:12:33.450581
3186  2023-12-01 16:12:33.481464
3187  2023-12-01 16:12:33.513676
3188  2023-12-01 16:12:33.546980
3189  2023-12-01 16:12:33.578853
3190  2023-12-01 16:12:33.610145
3191  2023-12-01 16:12:33.641316
3192  2023-12-01 16:12:33.673815
3193  2023-12-01 16:12:33.705819
3194  2023-12-01 16:12:33.737503
3195  2023-12-01 16:12:33.769350
3196  2023-12-01 16:12:33.818149
3197  2023-12-01 16:12:33.849430
3198  2023-12-01 16:12:33.881743
3199  2023-12-01 16:12:33.913230
3200  2023-12-01 16:12:33.946914
3201  2023-12-01 16:12:33.978173
3202  2023-12-01 16:12:34.011126
3203  2023-12-01 16:12:34.041025
3204  2023-12-01 16:12:34.073863
3205  2023-12-01 16:12:34.107095
3206  2023-12-01 16:12:34.137737
3207  2023-12-01 16:12:34.169711
3208  2023-12-01 16:12:34.219097
3209  2023-12-01 16:12:34.250317
3210  2023-12-01 16:12:34.281151
3211  2023-12-01 16:12:34.313282
3212  2023-12-01 16:12:34.346654
3213  2023-12-01 16:12:34.378201
3214  2023-12-01 16:12:34.410971
3215  2023-12-01 16:12:34.440947
3216  2023-12-01 16:12:34.473085
3217  2023-12-01 16:12:34.507904
3218  2023-12-01 16:12:34.537830
3219  2023-12-01 16:12:34.569807
3220  2023-12-01 16:12:34.617665
3221  2023-12-01 16:12:34.650122
3222  2023-12-01 16:12:34.681357
3223  2023-12-01 16:12:34.713316
3224  2023-12-01 16:12:34.745780
3225  2023-12-01 16:12:34.778216
3226  2023-12-01 16:12:34.810681
3227  2023-12-01 16:12:34.841493
3228  2023-12-01 16:12:34.873498
3229  2023-12-01 16:12:34.906238
3230  2023-12-01 16:12:34.939964
3231  2023-12-01 16:12:34.969800
3232  2023-12-01 16:12:35.017527
3233  2023-12-01 16:12:35.049891
3234  2023-12-01 16:12:35.081190
3235  2023-12-01 16:12:35.113668
3236  2023-12-01 16:12:35.145291
3237  2023-12-01 16:12:35.179222
3238  2023-12-01 16:12:35.210266
3239  2023-12-01 16:12:35.240911
3240  2023-12-01 16:12:35.273574
3241  2023-12-01 16:12:35.305412
3242  2023-12-01 16:12:35.338071
3243  2023-12-01 16:12:35.370575
3244  2023-12-01 16:12:35.417255
3245  2023-12-01 16:12:35.449229
3246  2023-12-01 16:12:35.482311
3247  2023-12-01 16:12:35.513413
3248  2023-12-01 16:12:35.544771
3249  2023-12-01 16:12:35.577982
3250  2023-12-01 16:12:35.610420
3251  2023-12-01 16:12:35.641360
3252  2023-12-01 16:12:35.674084
3253  2023-12-01 16:12:35.705807
3254  2023-12-01 16:12:35.738261
3255  2023-12-01 16:12:35.769683
3256  2023-12-01 16:12:35.817013
3257  2023-12-01 16:12:35.849112
3258  2023-12-01 16:12:35.881089
3259  2023-12-01 16:12:35.912757
3260  2023-12-01 16:12:35.945748
3261  2023-12-01 16:12:35.977957
3262  2023-12-01 16:12:36.010284
3263  2023-12-01 16:12:36.041249
3264  2023-12-01 16:12:36.073698
3265  2023-12-01 16:12:36.105618
3266  2023-12-01 16:12:36.138405
3267  2023-12-01 16:12:36.169342
3268  2023-12-01 16:12:36.216948
3269  2023-12-01 16:12:36.248972
3270  2023-12-01 16:12:36.281381
3271  2023-12-01 16:12:36.313854
3272  2023-12-01 16:12:36.345801
3273  2023-12-01 16:12:36.379030
3274  2023-12-01 16:12:36.408931
3275  2023-12-01 16:12:36.441842
3276  2023-12-01 16:12:36.473866
3277  2023-12-01 16:12:36.505858
3278  2023-12-01 16:12:36.537747
3279  2023-12-01 16:12:36.569723
3280  2023-12-01 16:12:36.617624
3281  2023-12-01 16:12:36.648899
3282  2023-12-01 16:12:36.681929
3283  2023-12-01 16:12:36.712956
3284  2023-12-01 16:12:36.745391
3285  2023-12-01 16:12:36.777593
3286  2023-12-01 16:12:36.809851
3287  2023-12-01 16:12:36.841451
3288  2023-12-01 16:12:36.874015
3289  2023-12-01 16:12:36.905731
3290  2023-12-01 16:12:36.938436
3291  2023-12-01 16:12:36.969640
3292  2023-12-01 16:12:37.017646
3293  2023-12-01 16:12:37.049614
3294  2023-12-01 16:12:37.081708
3295  2023-12-01 16:12:37.113625
3296  2023-12-01 16:12:37.144826
3297  2023-12-01 16:12:37.177626
3298  2023-12-01 16:12:37.210678
3299  2023-12-01 16:12:37.241600
3300  2023-12-01 16:12:37.273467
3301  2023-12-01 16:12:37.305575
3302  2023-12-01 16:12:37.338304
3303  2023-12-01 16:12:37.369234
3304  2023-12-01 16:12:37.417484
3305  2023-12-01 16:12:37.449240
3306  2023-12-01 16:12:37.480981
3307  2023-12-01 16:12:37.513717
3308  2023-12-01 16:12:37.546082
3309  2023-12-01 16:12:37.577336
3310  2023-12-01 16:12:37.609444
3311  2023-12-01 16:12:37.641758
3312  2023-12-01 16:12:37.673877
3313  2023-12-01 16:12:37.705790
3314  2023-12-01 16:12:37.737281
3315  2023-12-01 16:12:37.769620
3316  2023-12-01 16:12:37.817835
3317  2023-12-01 16:12:37.849143
3318  2023-12-01 16:12:37.881700
3319  2023-12-01 16:12:37.913373
3320  2023-12-01 16:12:37.945964
3321  2023-12-01 16:12:37.977485
3322  2023-12-01 16:12:38.009095
3323  2023-12-01 16:12:38.041127
3324  2023-12-01 16:12:38.073477
3325  2023-12-01 16:12:38.105795
3326  2023-12-01 16:12:38.136931
3327  2023-12-01 16:12:38.168908
3328  2023-12-01 16:12:38.217212
3329  2023-12-01 16:12:38.249395
3330  2023-12-01 16:12:38.281189
3331  2023-12-01 16:12:38.312991
3332  2023-12-01 16:12:38.345005
3333  2023-12-01 16:12:38.377014
3334  2023-12-01 16:12:38.409428
3335  2023-12-01 16:12:38.441164
3336  2023-12-01 16:12:38.473138
3337  2023-12-01 16:12:38.505928
3338  2023-12-01 16:12:38.537834
3339  2023-12-01 16:12:38.569834
3340  2023-12-01 16:12:38.617434
3341  2023-12-01 16:12:38.649413
3342  2023-12-01 16:12:38.681292
3343  2023-12-01 16:12:38.713076
3344  2023-12-01 16:12:38.745623
3345  2023-12-01 16:12:38.777809
3346  2023-12-01 16:12:38.809733
3347  2023-12-01 16:12:38.841814
3348  2023-12-01 16:12:38.873700
3349  2023-12-01 16:12:38.905920
3350  2023-12-01 16:12:38.937362
3351  2023-12-01 16:12:38.969764
3352  2023-12-01 16:12:39.016855
3353  2023-12-01 16:12:39.049679
3354  2023-12-01 16:12:39.081089
3355  2023-12-01 16:12:39.113422
3356  2023-12-01 16:12:39.145121
3357  2023-12-01 16:12:39.177584
3358  2023-12-01 16:12:39.209566
3359  2023-12-01 16:12:39.241592
3360  2023-12-01 16:12:39.273236
3361  2023-12-01 16:12:39.305154
3362  2023-12-01 16:12:39.337153
3363  2023-12-01 16:12:39.369529
3364  2023-12-01 16:12:39.417524
3365  2023-12-01 16:12:39.449053
3366  2023-12-01 16:12:39.481120
3367  2023-12-01 16:12:39.513145
3368  2023-12-01 16:12:39.545409
3369  2023-12-01 16:12:39.577117
3370  2023-12-01 16:12:39.609287
3371  2023-12-01 16:12:39.643359
3372  2023-12-01 16:12:39.673441
3373  2023-12-01 16:12:39.705782
3374  2023-12-01 16:12:39.737060
3375  2023-12-01 16:12:39.769388
3376  2023-12-01 16:12:39.817009
3377  2023-12-01 16:12:39.849200
3378  2023-12-01 16:12:39.881238
3379  2023-12-01 16:12:39.912919
3380  2023-12-01 16:12:39.945226
3381  2023-12-01 16:12:39.977225
3382  2023-12-01 16:12:40.008859
3383  2023-12-01 16:12:40.042082
3384  2023-12-01 16:12:40.073761
3385  2023-12-01 16:12:40.105212
3386  2023-12-01 16:12:40.137652
3387  2023-12-01 16:12:40.169871
3388  2023-12-01 16:12:40.216928
3389  2023-12-01 16:12:40.249767
3390  2023-12-01 16:12:40.281156
3391  2023-12-01 16:12:40.313821
3392  2023-12-01 16:12:40.345872
3393  2023-12-01 16:12:40.377480
3394  2023-12-01 16:12:40.409655
3395  2023-12-01 16:12:40.442141
3396  2023-12-01 16:12:40.473083
3397  2023-12-01 16:12:40.505185
3398  2023-12-01 16:12:40.537032
3399  2023-12-01 16:12:40.569962
3400  2023-12-01 16:12:40.617197
3401  2023-12-01 16:12:40.648825
3402  2023-12-01 16:12:40.681819
3403  2023-12-01 16:12:40.713831
3404  2023-12-01 16:12:40.745543
3405  2023-12-01 16:12:40.777250
3406  2023-12-01 16:12:40.809316
3407  2023-12-01 16:12:40.841690
3408  2023-12-01 16:12:40.873680
3409  2023-12-01 16:12:40.905593
3410  2023-12-01 16:12:40.937743
3411  2023-12-01 16:12:40.969289
3412  2023-12-01 16:12:41.017055
3413  2023-12-01 16:12:41.049781
3414  2023-12-01 16:12:41.081327
3415  2023-12-01 16:12:41.113515
3416  2023-12-01 16:12:41.145855
3417  2023-12-01 16:12:41.177328
3418  2023-12-01 16:12:41.209670
3419  2023-12-01 16:12:41.241713
3420  2023-12-01 16:12:41.272975
3421  2023-12-01 16:12:41.305979
3422  2023-12-01 16:12:41.337789
3423  2023-12-01 16:12:41.369822
3424  2023-12-01 16:12:41.417364
3425  2023-12-01 16:12:41.449178
3426  2023-12-01 16:12:41.481344
3427  2023-12-01 16:12:41.513203
3428  2023-12-01 16:12:41.545190
3429  2023-12-01 16:12:41.577237
3430  2023-12-01 16:12:41.609791
3431  2023-12-01 16:12:41.641042
3432  2023-12-01 16:12:41.673801
3433  2023-12-01 16:12:41.705182
3434  2023-12-01 16:12:41.737692
3435  2023-12-01 16:12:41.769316
3436  2023-12-01 16:12:41.817092
3437  2023-12-01 16:12:41.848790
3438  2023-12-01 16:12:41.881365
3439  2023-12-01 16:12:41.913481
3440  2023-12-01 16:12:41.945633
3441  2023-12-01 16:12:41.977686
3442  2023-12-01 16:12:42.009719
3443  2023-12-01 16:12:42.041839
3444  2023-12-01 16:12:42.073167
3445  2023-12-01 16:12:42.105231
3446  2023-12-01 16:12:42.137856
3447  2023-12-01 16:12:42.169782
3448  2023-12-01 16:12:42.217107
3449  2023-12-01 16:12:42.249199
3450  2023-12-01 16:12:42.281362
3451  2023-12-01 16:12:42.313878
3452  2023-12-01 16:12:42.345357
3453  2023-12-01 16:12:42.377195
3454  2023-12-01 16:12:42.409901
3455  2023-12-01 16:12:42.441628
3456  2023-12-01 16:12:42.473798
3457  2023-12-01 16:12:42.505720
3458  2023-12-01 16:12:42.537225
3459  2023-12-01 16:12:42.569811
3460  2023-12-01 16:12:42.617741
3461  2023-12-01 16:12:42.649038
3462  2023-12-01 16:12:42.681766
3463  2023-12-01 16:12:42.713223
3464  2023-12-01 16:12:42.746030
3465  2023-12-01 16:12:42.777381
3466  2023-12-01 16:12:42.809729
3467  2023-12-01 16:12:42.841011
3468  2023-12-01 16:12:42.873661
3469  2023-12-01 16:12:42.905310
3470  2023-12-01 16:12:42.937864
3471  2023-12-01 16:12:42.969305
3472  2023-12-01 16:12:43.017667
3473  2023-12-01 16:12:43.049730
3474  2023-12-01 16:12:43.081268
3475  2023-12-01 16:12:43.113814
3476  2023-12-01 16:12:43.146060
3477  2023-12-01 16:12:43.177362
3478  2023-12-01 16:12:43.209827
3479  2023-12-01 16:12:43.241681
3480  2023-12-01 16:12:43.273807
3481  2023-12-01 16:12:43.305970
3482  2023-12-01 16:12:43.337835
3483  2023-12-01 16:12:43.369813
3484  2023-12-01 16:12:43.417749
3485  2023-12-01 16:12:43.449185
3486  2023-12-01 16:12:43.481057
3487  2023-12-01 16:12:43.513818
3488  2023-12-01 16:12:43.545148
3489  2023-12-01 16:12:43.576918
3490  2023-12-01 16:12:43.608859
3491  2023-12-01 16:12:43.641577
3492  2023-12-01 16:12:43.673808
3493  2023-12-01 16:12:43.705790
3494  2023-12-01 16:12:43.737560
3495  2023-12-01 16:12:43.768980
3496  2023-12-01 16:12:43.817738
3497  2023-12-01 16:12:43.848985
3498  2023-12-01 16:12:43.881703
3499  2023-12-01 16:12:43.913737
3500  2023-12-01 16:12:43.945229
3501  2023-12-01 16:12:43.977704
3502  2023-12-01 16:12:44.009751
3503  2023-12-01 16:12:44.041112
3504  2023-12-01 16:12:44.073820
3505  2023-12-01 16:12:44.105785
3506  2023-12-01 16:12:44.137057
3507  2023-12-01 16:12:44.169143
3508  2023-12-01 16:12:44.217912
3509  2023-12-01 16:12:44.249862
3510  2023-12-01 16:12:44.280978
3511  2023-12-01 16:12:44.313477
3512  2023-12-01 16:12:44.345324
3513  2023-12-01 16:12:44.377471
3514  2023-12-01 16:12:44.409786
3515  2023-12-01 16:12:44.441575
3516  2023-12-01 16:12:44.473267
3517  2023-12-01 16:12:44.505173
3518  2023-12-01 16:12:44.537772
3519  2023-12-01 16:12:44.569912
3520  2023-12-01 16:12:44.617632
3521  2023-12-01 16:12:44.649601
3522  2023-12-01 16:12:44.681124
3523  2023-12-01 16:12:44.713364
3524  2023-12-01 16:12:44.745513
3525  2023-12-01 16:12:44.777431
3526  2023-12-01 16:12:44.809814
3527  2023-12-01 16:12:44.841099
3528  2023-12-01 16:12:44.874005
3529  2023-12-01 16:12:44.905181
3530  2023-12-01 16:12:44.937072
3531  2023-12-01 16:12:44.969902
3532  2023-12-01 16:12:45.017825
3533  2023-12-01 16:12:45.049799
3534  2023-12-01 16:12:45.080775
3535  2023-12-01 16:12:45.113309
3536  2023-12-01 16:12:45.145915
3537  2023-12-01 16:12:45.177428
3538  2023-12-01 16:12:45.209664
3539  2023-12-01 16:12:45.241138
3540  2023-12-01 16:12:45.273753
3541  2023-12-01 16:12:45.305733
3542  2023-12-01 16:12:45.337237
3543  2023-12-01 16:12:45.369497
3544  2023-12-01 16:12:45.417679
3545  2023-12-01 16:12:45.449401
3546  2023-12-01 16:12:45.481329
3547  2023-12-01 16:12:45.513557
3548  2023-12-01 16:12:45.545700
3549  2023-12-01 16:12:45.577366
3550  2023-12-01 16:12:45.609741
3551  2023-12-01 16:12:45.641148
3552  2023-12-01 16:12:45.673792
3553  2023-12-01 16:12:45.705407
3554  2023-12-01 16:12:45.738074
3555  2023-12-01 16:12:45.769824
3556  2023-12-01 16:12:45.817810
3557  2023-12-01 16:12:45.849562
3558  2023-12-01 16:12:45.881059
3559  2023-12-01 16:12:45.913299
3560  2023-12-01 16:12:45.946141
3561  2023-12-01 16:12:45.977662
