
1  2023-11-01 14:11:29.311772
2  2023-11-01 14:11:29.343682
3  2023-11-01 14:11:29.375691
4  2023-11-01 14:11:29.407644
5  2023-11-01 14:11:29.439520
6  2023-11-01 14:11:29.471435
7  2023-11-01 14:11:29.504117
8  2023-11-01 14:11:29.536035
9  2023-11-01 14:11:29.567951
10  2023-11-01 14:11:29.615822
11  2023-11-01 14:11:29.647745
12  2023-11-01 14:11:29.679691
13  2023-11-01 14:11:29.711698
14  2023-11-01 14:11:29.743616
15  2023-11-01 14:11:29.775491
16  2023-11-01 14:11:29.807404
17  2023-11-01 14:11:29.839319
18  2023-11-01 14:11:29.871234
19  2023-11-01 14:11:29.903149
20  2023-11-01 14:11:29.936061
21  2023-11-01 14:11:29.967975
22  2023-11-01 14:11:30.015907
23  2023-11-01 14:11:30.047938
24  2023-11-01 14:11:30.079766
25  2023-11-01 14:11:30.111681
26  2023-11-01 14:11:30.143565
27  2023-11-01 14:11:30.175471
28  2023-11-01 14:11:30.207354
29  2023-11-01 14:11:30.239316
30  2023-11-01 14:11:30.272181
31  2023-11-01 14:11:30.303158
32  2023-11-01 14:11:30.336008
33  2023-11-01 14:11:30.367923
34  2023-11-01 14:11:30.415795
35  2023-11-01 14:11:30.447710
36  2023-11-01 14:11:30.479629
37  2023-11-01 14:11:30.511539
38  2023-11-01 14:11:30.543455
39  2023-11-01 14:11:30.575370
40  2023-11-01 14:11:30.607283
41  2023-11-01 14:11:30.639238
42  2023-11-01 14:11:30.671152
43  2023-11-01 14:11:30.703028
44  2023-11-01 14:11:30.735940
45  2023-11-01 14:11:30.767890
46  2023-11-01 14:11:30.815725
47  2023-11-01 14:11:30.847682
48  2023-11-01 14:11:30.879559
49  2023-11-01 14:11:30.911469
50  2023-11-01 14:11:30.943384
51  2023-11-01 14:11:30.975351
52  2023-11-01 14:11:31.007307
53  2023-11-01 14:11:31.039155
54  2023-11-01 14:11:31.072098
55  2023-11-01 14:11:31.103982
56  2023-11-01 14:11:31.135937
57  2023-11-01 14:11:31.167811
58  2023-11-01 14:11:31.215683
59  2023-11-01 14:11:31.247628
60  2023-11-01 14:11:31.279469
61  2023-11-01 14:11:31.311140
62  2023-11-01 14:11:31.343087
63  2023-11-01 14:11:31.376066
64  2023-11-01 14:11:31.407023
65  2023-11-01 14:11:31.438938
66  2023-11-01 14:11:31.471850
67  2023-11-01 14:11:31.503719
68  2023-11-01 14:11:31.535665
69  2023-11-01 14:11:31.567591
70  2023-11-01 14:11:31.615466
71  2023-11-01 14:11:31.647337
72  2023-11-01 14:11:31.679250
73  2023-11-01 14:11:31.711212
74  2023-11-01 14:11:31.743101
75  2023-11-01 14:11:31.776035
76  2023-11-01 14:11:31.806993
77  2023-11-01 14:11:31.839907
78  2023-11-01 14:11:31.871854
79  2023-11-01 14:11:31.903768
80  2023-11-01 14:11:31.935695
81  2023-11-01 14:11:31.967565
82  2023-11-01 14:11:32.015437
83  2023-11-01 14:11:32.047351
84  2023-11-01 14:11:32.079316
85  2023-11-01 14:11:32.111696
86  2023-11-01 14:11:32.143663
87  2023-11-01 14:11:32.175570
88  2023-11-01 14:11:32.207494
89  2023-11-01 14:11:32.239423
90  2023-11-01 14:11:32.271290
91  2023-11-01 14:11:32.303204
92  2023-11-01 14:11:32.335119
93  2023-11-01 14:11:32.367082
94  2023-11-01 14:11:32.414948
95  2023-11-01 14:11:32.447818
96  2023-11-01 14:11:32.479732
97  2023-11-01 14:11:32.511647
98  2023-11-01 14:11:32.543339
99  2023-11-01 14:11:32.575257
100  2023-11-01 14:11:32.607205
101  2023-11-01 14:11:32.639120
102  2023-11-01 14:11:32.672037
103  2023-11-01 14:11:32.702914
104  2023-11-01 14:11:32.735889
105  2023-11-01 14:11:32.767807
106  2023-11-01 14:11:32.815676
107  2023-11-01 14:11:32.847592
108  2023-11-01 14:11:32.879596
109  2023-11-01 14:11:32.911440
110  2023-11-01 14:11:32.943418
111  2023-11-01 14:11:32.976335
112  2023-11-01 14:11:33.008208
113  2023-11-01 14:11:33.040155
114  2023-11-01 14:11:33.072036
115  2023-11-01 14:11:33.103949
116  2023-11-01 14:11:33.135903
117  2023-11-01 14:11:33.167778
118  2023-11-01 14:11:33.215686
119  2023-11-01 14:11:33.247600
120  2023-11-01 14:11:33.279515
121  2023-11-01 14:11:33.311428
122  2023-11-01 14:11:33.343309
123  2023-11-01 14:11:33.375224
124  2023-11-01 14:11:33.407184
125  2023-11-01 14:11:33.439097
126  2023-11-01 14:11:33.471500
127  2023-11-01 14:11:33.503382
128  2023-11-01 14:11:33.535331
129  2023-11-01 14:11:33.567261
130  2023-11-01 14:11:33.615492
131  2023-11-01 14:11:33.647529
132  2023-11-01 14:11:33.679421
133  2023-11-01 14:11:33.711324
134  2023-11-01 14:11:33.743239
135  2023-11-01 14:11:33.775239
136  2023-11-01 14:11:33.807153
137  2023-11-01 14:11:33.839068
138  2023-11-01 14:11:33.872070
139  2023-11-01 14:11:33.903027
140  2023-11-01 14:11:33.935931
141  2023-11-01 14:11:33.967852
142  2023-11-01 14:11:34.015686
143  2023-11-01 14:11:34.047635
144  2023-11-01 14:11:34.079548
145  2023-11-01 14:11:34.111463
146  2023-11-01 14:11:34.143392
147  2023-11-01 14:11:34.175315
148  2023-11-01 14:11:34.207220
149  2023-11-01 14:11:34.239122
150  2023-11-01 14:11:34.271037
151  2023-11-01 14:11:34.303949
152  2023-11-01 14:11:34.335830
153  2023-11-01 14:11:34.367783
154  2023-11-01 14:11:34.415690
155  2023-11-01 14:11:34.447591
156  2023-11-01 14:11:34.479471
157  2023-11-01 14:11:34.511386
158  2023-11-01 14:11:34.543301
159  2023-11-01 14:11:34.575248
160  2023-11-01 14:11:34.607169
161  2023-11-01 14:11:34.639178
162  2023-11-01 14:11:34.671059
163  2023-11-01 14:11:34.703013
164  2023-11-01 14:11:34.735892
165  2023-11-01 14:11:34.767801
166  2023-11-01 14:11:34.815838
167  2023-11-01 14:11:34.847760
168  2023-11-01 14:11:34.879748
169  2023-11-01 14:11:34.911661
170  2023-11-01 14:11:34.943060
171  2023-11-01 14:11:34.975096
172  2023-11-01 14:11:35.007003
173  2023-11-01 14:11:35.039920
174  2023-11-01 14:11:35.071835
175  2023-11-01 14:11:35.103742
176  2023-11-01 14:11:35.135656
177  2023-11-01 14:11:35.167571
178  2023-11-01 14:11:35.215277
179  2023-11-01 14:11:35.247196
180  2023-11-01 14:11:35.279107
181  2023-11-01 14:11:35.311191
182  2023-11-01 14:11:35.343109
183  2023-11-01 14:11:35.375985
184  2023-11-01 14:11:35.406943
185  2023-11-01 14:11:35.439845
186  2023-11-01 14:11:35.471281
187  2023-11-01 14:11:35.503241
188  2023-11-01 14:11:35.535316
189  2023-11-01 14:11:35.567215
190  2023-11-01 14:11:35.615096
191  2023-11-01 14:11:35.647006
192  2023-11-01 14:11:35.679872
193  2023-11-01 14:11:35.711872
194  2023-11-01 14:11:35.743817
195  2023-11-01 14:11:35.775731
196  2023-11-01 14:11:35.807646
197  2023-11-01 14:11:35.839529
198  2023-11-01 14:11:35.871476
199  2023-11-01 14:11:35.903358
200  2023-11-01 14:11:35.935255
201  2023-11-01 14:11:35.967248
202  2023-11-01 14:11:36.015086
203  2023-11-01 14:11:36.047000
204  2023-11-01 14:11:36.079912
205  2023-11-01 14:11:36.111886
206  2023-11-01 14:11:36.143742
207  2023-11-01 14:11:36.175771
208  2023-11-01 14:11:36.207717
209  2023-11-01 14:11:36.239639
210  2023-11-01 14:11:36.271547
211  2023-11-01 14:11:36.303430
212  2023-11-01 14:11:36.335345
213  2023-11-01 14:11:36.367303
214  2023-11-01 14:11:36.415131
215  2023-11-01 14:11:36.447084
216  2023-11-01 14:11:36.479958
217  2023-11-01 14:11:36.511873
218  2023-11-01 14:11:36.542957
219  2023-11-01 14:11:36.574971
220  2023-11-01 14:11:36.607926
221  2023-11-01 14:11:36.639839
222  2023-11-01 14:11:36.671715
223  2023-11-01 14:11:36.703662
224  2023-11-01 14:11:36.735544
225  2023-11-01 14:11:36.767458
226  2023-11-01 14:11:36.815332
227  2023-11-01 14:11:36.847282
228  2023-11-01 14:11:36.879192
229  2023-11-01 14:11:36.911111
230  2023-11-01 14:11:36.943035
231  2023-11-01 14:11:36.975901
232  2023-11-01 14:11:37.007943
233  2023-11-01 14:11:37.039963
234  2023-11-01 14:11:37.071876
235  2023-11-01 14:11:37.103790
236  2023-11-01 14:11:37.135705
237  2023-11-01 14:11:37.167620
238  2023-11-01 14:11:37.215492
239  2023-11-01 14:11:37.247408
240  2023-11-01 14:11:37.279357
241  2023-11-01 14:11:37.312233
242  2023-11-01 14:11:37.343188
243  2023-11-01 14:11:37.376064
244  2023-11-01 14:11:37.406980
245  2023-11-01 14:11:37.439892
246  2023-11-01 14:11:37.471806
247  2023-11-01 14:11:37.503721
248  2023-11-01 14:11:37.535636
249  2023-11-01 14:11:37.567550
250  2023-11-01 14:11:37.615428
251  2023-11-01 14:11:37.647386
252  2023-11-01 14:11:37.679252
253  2023-11-01 14:11:37.712164
254  2023-11-01 14:11:37.743081
255  2023-11-01 14:11:37.776034
256  2023-11-01 14:11:37.807908
257  2023-11-01 14:11:37.839822
258  2023-11-01 14:11:37.871737
259  2023-11-01 14:11:37.903683
260  2023-11-01 14:11:37.935566
261  2023-11-01 14:11:37.967485
262  2023-11-01 14:11:38.015353
263  2023-11-01 14:11:38.047268
264  2023-11-01 14:11:38.079228
265  2023-11-01 14:11:38.112139
266  2023-11-01 14:11:38.143012
267  2023-11-01 14:11:38.175924
268  2023-11-01 14:11:38.207838
269  2023-11-01 14:11:38.239784
270  2023-11-01 14:11:38.271668
271  2023-11-01 14:11:38.303582
272  2023-11-01 14:11:38.335497
273  2023-11-01 14:11:38.367439
274  2023-11-01 14:11:38.415468
275  2023-11-01 14:11:38.447383
276  2023-11-01 14:11:38.479297
277  2023-11-01 14:11:38.511212
278  2023-11-01 14:11:38.543127
279  2023-11-01 14:11:38.575152
280  2023-11-01 14:11:38.608112
281  2023-11-01 14:11:38.639030
282  2023-11-01 14:11:38.671942
283  2023-11-01 14:11:38.703856
284  2023-11-01 14:11:38.735771
285  2023-11-01 14:11:38.767692
286  2023-11-01 14:11:38.815564
287  2023-11-01 14:11:38.847478
288  2023-11-01 14:11:38.879394
289  2023-11-01 14:11:38.911454
290  2023-11-01 14:11:38.943368
291  2023-11-01 14:11:38.975291
292  2023-11-01 14:11:39.007198
293  2023-11-01 14:11:39.039113
294  2023-11-01 14:11:39.072025
295  2023-11-01 14:11:39.103939
296  2023-11-01 14:11:39.135854
297  2023-11-01 14:11:39.167782
298  2023-11-01 14:11:39.215640
299  2023-11-01 14:11:39.247555
300  2023-11-01 14:11:39.279470
301  2023-11-01 14:11:39.311385
302  2023-11-01 14:11:39.343299
303  2023-11-01 14:11:39.375214
304  2023-11-01 14:11:39.407169
305  2023-11-01 14:11:39.440073
306  2023-11-01 14:11:39.470958
307  2023-11-01 14:11:39.503359
308  2023-11-01 14:11:39.535627
309  2023-11-01 14:11:39.567541
310  2023-11-01 14:11:39.615497
311  2023-11-01 14:11:39.647382
312  2023-11-01 14:11:39.679289
313  2023-11-01 14:11:39.711204
314  2023-11-01 14:11:39.743119
315  2023-11-01 14:11:39.776030
316  2023-11-01 14:11:39.806948
317  2023-11-01 14:11:39.839864
318  2023-11-01 14:11:39.871866
319  2023-11-01 14:11:39.903779
320  2023-11-01 14:11:39.935117
321  2023-11-01 14:11:39.967080
322  2023-11-01 14:11:40.014952
323  2023-11-01 14:11:40.047864
324  2023-11-01 14:11:40.079328
325  2023-11-01 14:11:40.111247
326  2023-11-01 14:11:40.143210
327  2023-11-01 14:11:40.175125
328  2023-11-01 14:11:40.207040
329  2023-11-01 14:11:40.238954
330  2023-11-01 14:11:40.271993
331  2023-11-01 14:11:40.303908
332  2023-11-01 14:11:40.335822
333  2023-11-01 14:11:40.367737
334  2023-11-01 14:11:40.415609
335  2023-11-01 14:11:40.447313
336  2023-11-01 14:11:40.480124
337  2023-11-01 14:11:40.511041
338  2023-11-01 14:11:40.543954
339  2023-11-01 14:11:40.575868
340  2023-11-01 14:11:40.607783
341  2023-11-01 14:11:40.639698
342  2023-11-01 14:11:40.671613
343  2023-11-01 14:11:40.703527
344  2023-11-01 14:11:40.735293
345  2023-11-01 14:11:40.767240
346  2023-11-01 14:11:40.815270
347  2023-11-01 14:11:40.847195
348  2023-11-01 14:11:40.879250
349  2023-11-01 14:11:40.911164
350  2023-11-01 14:11:40.943113
351  2023-11-01 14:11:40.974994
352  2023-11-01 14:11:41.007909
353  2023-11-01 14:11:41.039821
354  2023-11-01 14:11:41.071774
355  2023-11-01 14:11:41.103692
356  2023-11-01 14:11:41.135646
357  2023-11-01 14:11:41.167527
358  2023-11-01 14:11:41.215450
359  2023-11-01 14:11:41.247365
360  2023-11-01 14:11:41.279317
361  2023-11-01 14:11:41.311194
362  2023-11-01 14:11:41.343181
363  2023-11-01 14:11:41.376093
364  2023-11-01 14:11:41.407053
365  2023-11-01 14:11:41.438967
366  2023-11-01 14:11:41.471951
367  2023-11-01 14:11:41.502981
368  2023-11-01 14:11:41.535896
369  2023-11-01 14:11:41.567807
370  2023-11-01 14:11:41.615680
371  2023-11-01 14:11:41.647594
372  2023-11-01 14:11:41.679509
373  2023-11-01 14:11:41.711423
374  2023-11-01 14:11:41.743338
375  2023-11-01 14:11:41.775253
376  2023-11-01 14:11:41.807168
377  2023-11-01 14:11:41.839082
378  2023-11-01 14:11:41.870997
379  2023-11-01 14:11:41.903909
380  2023-11-01 14:11:41.935824
381  2023-11-01 14:11:41.967738
382  2023-11-01 14:11:42.015792
383  2023-11-01 14:11:42.047706
384  2023-11-01 14:11:42.079621
385  2023-11-01 14:11:42.111536
386  2023-11-01 14:11:42.143451
387  2023-11-01 14:11:42.175365
388  2023-11-01 14:11:42.207280
389  2023-11-01 14:11:42.239229
390  2023-11-01 14:11:42.271111
391  2023-11-01 14:11:42.303024
392  2023-11-01 14:11:42.335936
393  2023-11-01 14:11:42.367884
394  2023-11-01 14:11:42.415723
395  2023-11-01 14:11:42.447671
396  2023-11-01 14:11:42.479585
397  2023-11-01 14:11:42.511467
398  2023-11-01 14:11:42.543485
399  2023-11-01 14:11:42.575430
400  2023-11-01 14:11:42.607358
401  2023-11-01 14:11:42.639229
402  2023-11-01 14:11:42.671237
403  2023-11-01 14:11:42.703197
404  2023-11-01 14:11:42.735106
405  2023-11-01 14:11:42.766981
406  2023-11-01 14:11:42.815851
407  2023-11-01 14:11:42.847765
408  2023-11-01 14:11:42.879680
409  2023-11-01 14:11:42.911726
410  2023-11-01 14:11:42.943641
411  2023-11-01 14:11:42.975556
412  2023-11-01 14:11:43.007470
413  2023-11-01 14:11:43.039477
414  2023-11-01 14:11:43.071392
415  2023-11-01 14:11:43.103307
416  2023-11-01 14:11:43.135221
417  2023-11-01 14:11:43.167136
418  2023-11-01 14:11:43.215015
419  2023-11-01 14:11:43.247920
420  2023-11-01 14:11:43.279845
421  2023-11-01 14:11:43.311762
422  2023-11-01 14:11:43.343665
423  2023-11-01 14:11:43.375680
424  2023-11-01 14:11:43.407640
425  2023-11-01 14:11:43.439743
426  2023-11-01 14:11:43.471756
427  2023-11-01 14:11:43.502943
428  2023-11-01 14:11:43.535854
429  2023-11-01 14:11:43.567736
430  2023-11-01 14:11:43.615652
431  2023-11-01 14:11:43.647665
432  2023-11-01 14:11:43.679579
433  2023-11-01 14:11:43.711494
434  2023-11-01 14:11:43.743416
435  2023-11-01 14:11:43.775323
436  2023-11-01 14:11:43.807238
437  2023-11-01 14:11:43.839153
438  2023-11-01 14:11:43.871068
439  2023-11-01 14:11:43.902983
440  2023-11-01 14:11:43.935894
441  2023-11-01 14:11:43.967944
442  2023-11-01 14:11:44.015816
443  2023-11-01 14:11:44.047731
444  2023-11-01 14:11:44.079646
445  2023-11-01 14:11:44.111560
446  2023-11-01 14:11:44.143475
447  2023-11-01 14:11:44.175077
448  2023-11-01 14:11:44.207990
449  2023-11-01 14:11:44.239910
450  2023-11-01 14:11:44.271819
451  2023-11-01 14:11:44.303733
452  2023-11-01 14:11:44.335648
453  2023-11-01 14:11:44.367563
454  2023-11-01 14:11:44.415446
455  2023-11-01 14:11:44.447349
456  2023-11-01 14:11:44.479400
457  2023-11-01 14:11:44.511443
458  2023-11-01 14:11:44.543478
459  2023-11-01 14:11:44.575393
460  2023-11-01 14:11:44.607476
461  2023-11-01 14:11:44.639390
462  2023-11-01 14:11:44.671305
463  2023-11-01 14:11:44.703219
464  2023-11-01 14:11:44.735294
465  2023-11-01 14:11:44.767294
466  2023-11-01 14:11:44.815245
467  2023-11-01 14:11:44.847164
468  2023-11-01 14:11:44.879118
469  2023-11-01 14:11:44.911114
470  2023-11-01 14:11:44.943034
471  2023-11-01 14:11:44.975899
472  2023-11-01 14:11:45.007814
473  2023-11-01 14:11:45.039729
474  2023-11-01 14:11:45.071768
475  2023-11-01 14:11:45.103682
476  2023-11-01 14:11:45.135715
477  2023-11-01 14:11:45.167749
478  2023-11-01 14:11:45.215613
479  2023-11-01 14:11:45.247527
480  2023-11-01 14:11:45.279442
481  2023-11-01 14:11:45.311358
482  2023-11-01 14:11:45.343271
483  2023-11-01 14:11:45.375186
484  2023-11-01 14:11:45.407101
485  2023-11-01 14:11:45.439015
486  2023-11-01 14:11:45.471937
487  2023-11-01 14:11:45.503842
488  2023-11-01 14:11:45.535757
489  2023-11-01 14:11:45.567673
490  2023-11-01 14:11:45.615575
491  2023-11-01 14:11:45.647490
492  2023-11-01 14:11:45.679373
493  2023-11-01 14:11:45.711287
494  2023-11-01 14:11:45.743243
495  2023-11-01 14:11:45.775576
496  2023-11-01 14:11:45.807565
497  2023-11-01 14:11:45.839434
498  2023-11-01 14:11:45.871457
499  2023-11-01 14:11:45.903464
500  2023-11-01 14:11:45.935362
501  2023-11-01 14:11:45.967274
502  2023-11-01 14:11:46.015146
503  2023-11-01 14:11:46.047060
504  2023-11-01 14:11:46.079094
505  2023-11-01 14:11:46.111009
506  2023-11-01 14:11:46.143921
507  2023-11-01 14:11:46.175836
508  2023-11-01 14:11:46.207750
509  2023-11-01 14:11:46.239665
510  2023-11-01 14:11:46.271580
511  2023-11-01 14:11:46.303494
512  2023-11-01 14:11:46.335456
513  2023-11-01 14:11:46.367371
514  2023-11-01 14:11:46.415292
515  2023-11-01 14:11:46.447321
516  2023-11-01 14:11:46.479235
517  2023-11-01 14:11:46.511150
518  2023-11-01 14:11:46.543132
519  2023-11-01 14:11:46.575047
520  2023-11-01 14:11:46.607959
521  2023-11-01 14:11:46.639874
522  2023-11-01 14:11:46.671788
523  2023-11-01 14:11:46.703703
524  2023-11-01 14:11:46.735617
525  2023-11-01 14:11:46.767532
526  2023-11-01 14:11:46.815683
527  2023-11-01 14:11:46.847587
528  2023-11-01 14:11:46.879502
529  2023-11-01 14:11:46.911416
530  2023-11-01 14:11:46.943331
531  2023-11-01 14:11:46.975260
532  2023-11-01 14:11:47.007160
533  2023-11-01 14:11:47.040073
534  2023-11-01 14:11:47.072026
535  2023-11-01 14:11:47.103903
536  2023-11-01 14:11:47.135826
537  2023-11-01 14:11:47.167743
538  2023-11-01 14:11:47.215604
539  2023-11-01 14:11:47.247518
540  2023-11-01 14:11:47.279433
541  2023-11-01 14:11:47.311351
542  2023-11-01 14:11:47.343262
543  2023-11-01 14:11:47.375177
544  2023-11-01 14:11:47.407097
545  2023-11-01 14:11:47.439656
546  2023-11-01 14:11:47.471568
547  2023-11-01 14:11:47.503580
548  2023-11-01 14:11:47.535527
549  2023-11-01 14:11:47.567463
550  2023-11-01 14:11:47.615324
551  2023-11-01 14:11:47.647327
552  2023-11-01 14:11:47.679314
553  2023-11-01 14:11:47.711215
554  2023-11-01 14:11:47.744168
555  2023-11-01 14:11:47.776198
556  2023-11-01 14:11:47.807081
557  2023-11-01 14:11:47.839007
558  2023-11-01 14:11:47.871965
559  2023-11-01 14:11:47.903853
560  2023-11-01 14:11:47.935771
561  2023-11-01 14:11:47.967807
562  2023-11-01 14:11:48.015682
563  2023-11-01 14:11:48.047585
564  2023-11-01 14:11:48.079423
565  2023-11-01 14:11:48.111534
566  2023-11-01 14:11:48.143414
567  2023-11-01 14:11:48.175325
568  2023-11-01 14:11:48.207239
569  2023-11-01 14:11:48.239163
570  2023-11-01 14:11:48.271107
571  2023-11-01 14:11:48.303128
572  2023-11-01 14:11:48.335991
573  2023-11-01 14:11:48.368057
574  2023-11-01 14:11:48.415919
575  2023-11-01 14:11:48.448061
576  2023-11-01 14:11:48.478998
577  2023-11-01 14:11:48.511870
578  2023-11-01 14:11:48.543816
579  2023-11-01 14:11:48.575690
580  2023-11-01 14:11:48.607650
581  2023-11-01 14:11:48.639521
582  2023-11-01 14:11:48.671435
583  2023-11-01 14:11:48.703382
584  2023-11-01 14:11:48.735429
585  2023-11-01 14:11:48.768399
586  2023-11-01 14:11:48.816411
587  2023-11-01 14:11:48.847414
588  2023-11-01 14:11:48.879345
589  2023-11-01 14:11:48.911302
590  2023-11-01 14:11:48.944187
591  2023-11-01 14:11:48.975109
592  2023-11-01 14:11:49.006952
593  2023-11-01 14:11:49.039863
594  2023-11-01 14:11:49.071778
595  2023-11-01 14:11:49.103772
596  2023-11-01 14:11:49.135685
597  2023-11-01 14:11:49.167595
598  2023-11-01 14:11:49.215527
599  2023-11-01 14:11:49.247441
600  2023-11-01 14:11:49.279429
601  2023-11-01 14:11:49.311346
602  2023-11-01 14:11:49.343292
603  2023-11-01 14:11:49.375206
604  2023-11-01 14:11:49.407126
605  2023-11-01 14:11:49.439039
606  2023-11-01 14:11:49.471916
607  2023-11-01 14:11:49.503864
608  2023-11-01 14:11:49.535154
609  2023-11-01 14:11:49.567084
610  2023-11-01 14:11:49.614941
611  2023-11-01 14:11:49.647851
612  2023-11-01 14:11:49.679735
613  2023-11-01 14:11:49.711649
614  2023-11-01 14:11:49.743604
615  2023-11-01 14:11:49.775515
616  2023-11-01 14:11:49.807432
617  2023-11-01 14:11:49.839341
618  2023-11-01 14:11:49.871223
619  2023-11-01 14:11:49.904173
620  2023-11-01 14:11:49.935053
621  2023-11-01 14:11:49.966998
622  2023-11-01 14:11:50.015878
623  2023-11-01 14:11:50.047278
624  2023-11-01 14:11:50.079159
625  2023-11-01 14:11:50.111672
626  2023-11-01 14:11:50.143585
627  2023-11-01 14:11:50.175499
628  2023-11-01 14:11:50.207427
629  2023-11-01 14:11:50.239424
630  2023-11-01 14:11:50.270914
631  2023-11-01 14:11:50.303826
632  2023-11-01 14:11:50.335747
633  2023-11-01 14:11:50.367660
634  2023-11-01 14:11:50.415734
635  2023-11-01 14:11:50.447689
636  2023-11-01 14:11:50.479550
637  2023-11-01 14:11:50.511432
638  2023-11-01 14:11:50.544129
639  2023-11-01 14:11:50.575167
640  2023-11-01 14:11:50.608035
641  2023-11-01 14:11:50.638989
642  2023-11-01 14:11:50.671912
643  2023-11-01 14:11:50.703815
644  2023-11-01 14:11:50.735736
645  2023-11-01 14:11:50.767742
646  2023-11-01 14:11:50.815589
647  2023-11-01 14:11:50.847470
648  2023-11-01 14:11:50.879421
649  2023-11-01 14:11:50.911330
650  2023-11-01 14:11:50.943261
651  2023-11-01 14:11:50.975162
652  2023-11-01 14:11:51.007077
653  2023-11-01 14:11:51.038995
654  2023-11-01 14:11:51.071913
655  2023-11-01 14:11:51.103820
656  2023-11-01 14:11:51.135734
657  2023-11-01 14:11:51.167647
658  2023-11-01 14:11:51.215517
659  2023-11-01 14:11:51.247429
660  2023-11-01 14:11:51.280347
661  2023-11-01 14:11:51.311249
662  2023-11-01 14:11:51.343145
663  2023-11-01 14:11:51.375093
664  2023-11-01 14:11:51.407011
665  2023-11-01 14:11:51.439916
666  2023-11-01 14:11:51.471835
667  2023-11-01 14:11:51.503083
668  2023-11-01 14:11:51.535005
669  2023-11-01 14:11:51.567917
670  2023-11-01 14:11:51.615785
671  2023-11-01 14:11:51.647699
672  2023-11-01 14:11:51.679616
673  2023-11-01 14:11:51.711496
674  2023-11-01 14:11:51.743449
675  2023-11-01 14:11:51.775357
676  2023-11-01 14:11:51.807275
677  2023-11-01 14:11:51.839186
678  2023-11-01 14:11:51.871101
679  2023-11-01 14:11:51.903020
680  2023-11-01 14:11:51.935931
681  2023-11-01 14:11:51.966848
682  2023-11-01 14:11:52.015716
683  2023-11-01 14:11:52.047628
684  2023-11-01 14:11:52.079543
685  2023-11-01 14:11:52.111427
686  2023-11-01 14:11:52.143342
687  2023-11-01 14:11:52.175288
688  2023-11-01 14:11:52.207205
689  2023-11-01 14:11:52.239117
690  2023-11-01 14:11:52.272034
691  2023-11-01 14:11:52.303950
692  2023-11-01 14:11:52.335865
693  2023-11-01 14:11:52.367772
694  2023-11-01 14:11:52.415645
695  2023-11-01 14:11:52.447936
696  2023-11-01 14:11:52.479823
697  2023-11-01 14:11:52.511782
698  2023-11-01 14:11:52.543517
699  2023-11-01 14:11:52.575463
700  2023-11-01 14:11:52.607393
701  2023-11-01 14:11:52.639295
702  2023-11-01 14:11:52.671219
703  2023-11-01 14:11:52.703126
704  2023-11-01 14:11:52.735042
705  2023-11-01 14:11:52.766955
706  2023-11-01 14:11:52.815827
707  2023-11-01 14:11:52.847739
708  2023-11-01 14:11:52.879651
709  2023-11-01 14:11:52.911566
710  2023-11-01 14:11:52.943481
711  2023-11-01 14:11:52.975362
712  2023-11-01 14:11:53.007325
713  2023-11-01 14:11:53.039225
714  2023-11-01 14:11:53.071146
715  2023-11-01 14:11:53.103054
716  2023-11-01 14:11:53.134969
717  2023-11-01 14:11:53.167908
718  2023-11-01 14:11:53.215720
719  2023-11-01 14:11:53.247659
720  2023-11-01 14:11:53.279580
721  2023-11-01 14:11:53.311494
722  2023-11-01 14:11:53.343421
723  2023-11-01 14:11:53.375332
724  2023-11-01 14:11:53.407242
725  2023-11-01 14:11:53.439156
726  2023-11-01 14:11:53.471067
727  2023-11-01 14:11:53.502983
728  2023-11-01 14:11:53.535864
729  2023-11-01 14:11:53.567811
730  2023-11-01 14:11:53.615682
731  2023-11-01 14:11:53.647602
732  2023-11-01 14:11:53.679518
733  2023-11-01 14:11:53.711425
734  2023-11-01 14:11:53.743341
735  2023-11-01 14:11:53.775224
736  2023-11-01 14:11:53.807175
737  2023-11-01 14:11:53.839089
738  2023-11-01 14:11:53.871004
739  2023-11-01 14:11:53.903916
740  2023-11-01 14:11:53.935799
741  2023-11-01 14:11:53.967743
742  2023-11-01 14:11:54.015581
743  2023-11-01 14:11:54.047533
744  2023-11-01 14:11:54.079444
745  2023-11-01 14:11:54.111383
746  2023-11-01 14:11:54.144238
747  2023-11-01 14:11:54.175154
748  2023-11-01 14:11:54.207105
749  2023-11-01 14:11:54.239987
750  2023-11-01 14:11:54.271930
751  2023-11-01 14:11:54.303842
752  2023-11-01 14:11:54.335757
753  2023-11-01 14:11:54.367672
754  2023-11-01 14:11:54.415512
755  2023-11-01 14:11:54.447459
756  2023-11-01 14:11:54.479376
757  2023-11-01 14:11:54.511289
758  2023-11-01 14:11:54.543171
759  2023-11-01 14:11:54.575085
760  2023-11-01 14:11:54.607034
761  2023-11-01 14:11:54.639943
762  2023-11-01 14:11:54.671868
763  2023-11-01 14:11:54.703774
764  2023-11-01 14:11:54.735696
765  2023-11-01 14:11:54.767602
766  2023-11-01 14:11:54.815443
767  2023-11-01 14:11:54.847392
768  2023-11-01 14:11:54.879314
769  2023-11-01 14:11:54.911224
770  2023-11-01 14:11:54.943140
771  2023-11-01 14:11:54.975016
772  2023-11-01 14:11:55.006966
773  2023-11-01 14:11:55.039878
774  2023-11-01 14:11:55.071791
775  2023-11-01 14:11:55.103672
776  2023-11-01 14:11:55.135587
777  2023-11-01 14:11:55.167502
778  2023-11-01 14:11:55.215374
779  2023-11-01 14:11:55.247294
780  2023-11-01 14:11:55.280201
781  2023-11-01 14:11:55.312116
782  2023-11-01 14:11:55.343065
783  2023-11-01 14:11:55.375471
784  2023-11-01 14:11:55.407387
785  2023-11-01 14:11:55.439334
786  2023-11-01 14:11:55.471246
787  2023-11-01 14:11:55.503169
788  2023-11-01 14:11:55.535094
789  2023-11-01 14:11:55.566994
790  2023-11-01 14:11:55.615840
791  2023-11-01 14:11:55.647744
792  2023-11-01 14:11:55.679657
793  2023-11-01 14:11:55.711610
794  2023-11-01 14:11:55.743488
795  2023-11-01 14:11:55.775403
796  2023-11-01 14:11:55.807318
797  2023-11-01 14:11:55.839265
798  2023-11-01 14:11:55.871177
799  2023-11-01 14:11:55.903093
800  2023-11-01 14:11:55.934976
801  2023-11-01 14:11:55.967888
802  2023-11-01 14:11:56.015760
803  2023-11-01 14:11:56.047675
804  2023-11-01 14:11:56.079590
805  2023-11-01 14:11:56.111504
806  2023-11-01 14:11:56.143419
807  2023-11-01 14:11:56.175333
808  2023-11-01 14:11:56.207248
809  2023-11-01 14:11:56.239852
810  2023-11-01 14:11:56.271825
811  2023-11-01 14:11:56.303731
812  2023-11-01 14:11:56.335645
813  2023-11-01 14:11:56.367560
814  2023-11-01 14:11:56.415432
815  2023-11-01 14:11:56.448387
816  2023-11-01 14:11:56.479383
817  2023-11-01 14:11:56.511260
818  2023-11-01 14:11:56.543174
819  2023-11-01 14:11:56.575089
820  2023-11-01 14:11:56.608011
821  2023-11-01 14:11:56.639916
822  2023-11-01 14:11:56.671830
823  2023-11-01 14:11:56.703745
824  2023-11-01 14:11:56.735695
825  2023-11-01 14:11:56.767576
826  2023-11-01 14:11:56.815478
827  2023-11-01 14:11:56.847361
828  2023-11-01 14:11:56.879276
829  2023-11-01 14:11:56.911225
830  2023-11-01 14:11:56.943149
831  2023-11-01 14:11:56.975020
832  2023-11-01 14:11:57.007932
833  2023-11-01 14:11:57.039846
834  2023-11-01 14:11:57.071802
835  2023-11-01 14:11:57.103676
836  2023-11-01 14:11:57.135590
837  2023-11-01 14:11:57.167505
838  2023-11-01 14:11:57.215377
839  2023-11-01 14:11:57.247297
840  2023-11-01 14:11:57.280204
841  2023-11-01 14:11:57.312159
842  2023-11-01 14:11:57.343036
843  2023-11-01 14:11:57.375948
844  2023-11-01 14:11:57.407869
845  2023-11-01 14:11:57.439914
846  2023-11-01 14:11:57.471828
847  2023-11-01 14:11:57.503743
848  2023-11-01 14:11:57.535658
849  2023-11-01 14:11:57.567572
850  2023-11-01 14:11:57.615444
851  2023-11-01 14:11:57.647359
852  2023-11-01 14:11:57.679274
853  2023-11-01 14:11:57.711188
854  2023-11-01 14:11:57.743103
855  2023-11-01 14:11:57.775018
856  2023-11-01 14:11:57.807930
857  2023-11-01 14:11:57.839846
858  2023-11-01 14:11:57.871759
859  2023-11-01 14:11:57.903736
860  2023-11-01 14:11:57.935621
861  2023-11-01 14:11:57.967503
862  2023-11-01 14:11:58.015375
863  2023-11-01 14:11:58.047290
864  2023-11-01 14:11:58.079205
865  2023-11-01 14:11:58.112153
866  2023-11-01 14:11:58.143065
867  2023-11-01 14:11:58.175946
868  2023-11-01 14:11:58.207861
869  2023-11-01 14:11:58.239819
870  2023-11-01 14:11:58.271716
871  2023-11-01 14:11:58.303605
872  2023-11-01 14:11:58.335519
873  2023-11-01 14:11:58.367466
874  2023-11-01 14:11:58.415306
875  2023-11-01 14:11:58.447267
876  2023-11-01 14:11:58.479135
877  2023-11-01 14:11:58.511050
878  2023-11-01 14:11:58.543317
879  2023-11-01 14:11:58.575232
880  2023-11-01 14:11:58.607146
881  2023-11-01 14:11:58.639061
882  2023-11-01 14:11:58.670976
883  2023-11-01 14:11:58.703888
884  2023-11-01 14:11:58.735803
885  2023-11-01 14:11:58.767717
886  2023-11-01 14:11:58.815711
887  2023-11-01 14:11:58.847764
888  2023-11-01 14:11:58.879541
889  2023-11-01 14:11:58.911457
890  2023-11-01 14:11:58.944408
891  2023-11-01 14:11:58.975318
892  2023-11-01 14:11:59.007199
893  2023-11-01 14:11:59.039114
894  2023-11-01 14:11:59.071065
895  2023-11-01 14:11:59.103081
896  2023-11-01 14:11:59.135004
897  2023-11-01 14:11:59.167916
898  2023-11-01 14:11:59.215788
899  2023-11-01 14:11:59.246985
900  2023-11-01 14:11:59.279897
901  2023-11-01 14:11:59.311811
902  2023-11-01 14:11:59.343726
903  2023-11-01 14:11:59.375641
904  2023-11-01 14:11:59.407555
905  2023-11-01 14:11:59.439470
906  2023-11-01 14:11:59.471387
907  2023-11-01 14:11:59.503307
908  2023-11-01 14:11:59.535214
909  2023-11-01 14:11:59.567129
910  2023-11-01 14:11:59.615998
911  2023-11-01 14:11:59.647913
912  2023-11-01 14:11:59.679828
913  2023-11-01 14:11:59.711742
914  2023-11-01 14:11:59.743657
915  2023-11-01 14:11:59.775572
916  2023-11-01 14:11:59.807486
917  2023-11-01 14:11:59.839401
918  2023-11-01 14:11:59.871316
919  2023-11-01 14:11:59.903233
920  2023-11-01 14:11:59.936143
921  2023-11-01 14:11:59.967192
922  2023-11-01 14:12:00.015065
923  2023-11-01 14:12:00.046978
924  2023-11-01 14:12:00.079891
925  2023-11-01 14:12:00.111841
926  2023-11-01 14:12:00.143720
927  2023-11-01 14:12:00.175643
928  2023-11-01 14:12:00.207692
929  2023-11-01 14:12:00.239641
930  2023-11-01 14:12:00.271552
931  2023-11-01 14:12:00.303448
932  2023-11-01 14:12:00.335456
933  2023-11-01 14:12:00.367402
934  2023-11-01 14:12:00.415242
935  2023-11-01 14:12:00.447192
936  2023-11-01 14:12:00.479105
937  2023-11-01 14:12:00.510986
938  2023-11-01 14:12:00.543009
939  2023-11-01 14:12:00.575922
940  2023-11-01 14:12:00.607865
941  2023-11-01 14:12:00.639750
942  2023-11-01 14:12:00.671765
943  2023-11-01 14:12:00.703730
944  2023-11-01 14:12:00.735654
945  2023-11-01 14:12:00.767607
946  2023-11-01 14:12:00.815652
947  2023-11-01 14:12:00.847579
948  2023-11-01 14:12:00.879493
949  2023-11-01 14:12:00.911206
950  2023-11-01 14:12:00.943122
951  2023-11-01 14:12:00.975037
952  2023-11-01 14:12:01.007949
953  2023-11-01 14:12:01.039869
954  2023-11-01 14:12:01.071778
955  2023-11-01 14:12:01.103693
956  2023-11-01 14:12:01.135608
957  2023-11-01 14:12:01.167522
958  2023-11-01 14:12:01.215394
959  2023-11-01 14:12:01.247309
960  2023-11-01 14:12:01.279224
961  2023-11-01 14:12:01.311279
962  2023-11-01 14:12:01.343194
963  2023-11-01 14:12:01.375109
964  2023-11-01 14:12:01.407023
965  2023-11-01 14:12:01.438938
966  2023-11-01 14:12:01.471850
967  2023-11-01 14:12:01.503765
968  2023-11-01 14:12:01.535680
969  2023-11-01 14:12:01.567594
970  2023-11-01 14:12:01.615466
971  2023-11-01 14:12:01.648379
972  2023-11-01 14:12:01.679296
973  2023-11-01 14:12:01.711210
974  2023-11-01 14:12:01.743125
975  2023-11-01 14:12:01.776064
976  2023-11-01 14:12:01.807952
977  2023-11-01 14:12:01.838976
978  2023-11-01 14:12:01.871871
979  2023-11-01 14:12:01.903772
980  2023-11-01 14:12:01.935696
981  2023-11-01 14:12:01.967622
982  2023-11-01 14:12:02.015576
983  2023-11-01 14:12:02.047490
984  2023-11-01 14:12:02.079483
985  2023-11-01 14:12:02.111429
986  2023-11-01 14:12:02.143312
987  2023-11-01 14:12:02.175781
988  2023-11-01 14:12:02.207695
989  2023-11-01 14:12:02.239683
990  2023-11-01 14:12:02.271946
991  2023-11-01 14:12:02.303904
992  2023-11-01 14:12:02.335868
993  2023-11-01 14:12:02.367783
994  2023-11-01 14:12:02.415918
995  2023-11-01 14:12:02.447928
996  2023-11-01 14:12:02.479911
997  2023-11-01 14:12:02.511826
998  2023-11-01 14:12:02.543801
999  2023-11-01 14:12:02.575718
1000  2023-11-01 14:12:02.607630
1001  2023-11-01 14:12:02.639662
1002  2023-11-01 14:12:02.671576
1003  2023-11-01 14:12:02.703491
1004  2023-11-01 14:12:02.735406
1005  2023-11-01 14:12:02.767320
1006  2023-11-01 14:12:02.816190
1007  2023-11-01 14:12:02.847185
1008  2023-11-01 14:12:02.879117
1009  2023-11-01 14:12:02.911031
1010  2023-11-01 14:12:02.943180
1011  2023-11-01 14:12:02.976092
1012  2023-11-01 14:12:03.008142
1013  2023-11-01 14:12:03.039059
1014  2023-11-01 14:12:03.071974
1015  2023-11-01 14:12:03.103248
1016  2023-11-01 14:12:03.135250
1017  2023-11-01 14:12:03.167293
1018  2023-11-01 14:12:03.215253
1019  2023-11-01 14:12:03.247173
1020  2023-11-01 14:12:03.279055
1021  2023-11-01 14:12:03.311045
1022  2023-11-01 14:12:03.343921
1023  2023-11-01 14:12:03.375957
1024  2023-11-01 14:12:03.407929
1025  2023-11-01 14:12:03.439839
1026  2023-11-01 14:12:03.471805
1027  2023-11-01 14:12:03.503858
1028  2023-11-01 14:12:03.535825
1029  2023-11-01 14:12:03.567445
1030  2023-11-01 14:12:03.615280
1031  2023-11-01 14:12:03.647270
1032  2023-11-01 14:12:03.679276
1033  2023-11-01 14:12:03.711306
1034  2023-11-01 14:12:03.743197
1035  2023-11-01 14:12:03.775147
1036  2023-11-01 14:12:03.807033
1037  2023-11-01 14:12:03.839940
1038  2023-11-01 14:12:03.871909
1039  2023-11-01 14:12:03.903805
1040  2023-11-01 14:12:03.935684
1041  2023-11-01 14:12:03.967725
1042  2023-11-01 14:12:04.015597
1043  2023-11-01 14:12:04.047512
1044  2023-11-01 14:12:04.079678
1045  2023-11-01 14:12:04.111652
1046  2023-11-01 14:12:04.143566
1047  2023-11-01 14:12:04.175603
1048  2023-11-01 14:12:04.207517
1049  2023-11-01 14:12:04.239487
1050  2023-11-01 14:12:04.271402
1051  2023-11-01 14:12:04.303317
1052  2023-11-01 14:12:04.335237
1053  2023-11-01 14:12:04.367146
1054  2023-11-01 14:12:04.415018
1055  2023-11-01 14:12:04.447962
1056  2023-11-01 14:12:04.479882
1057  2023-11-01 14:12:04.511759
1058  2023-11-01 14:12:04.543817
1059  2023-11-01 14:12:04.575732
1060  2023-11-01 14:12:04.607647
1061  2023-11-01 14:12:04.639561
1062  2023-11-01 14:12:04.671556
1063  2023-11-01 14:12:04.703528
1064  2023-11-01 14:12:04.735502
1065  2023-11-01 14:12:04.766997
1066  2023-11-01 14:12:04.815904
1067  2023-11-01 14:12:04.847868
1068  2023-11-01 14:12:04.879783
1069  2023-11-01 14:12:04.911737
1070  2023-11-01 14:12:04.943654
1071  2023-11-01 14:12:04.975488
1072  2023-11-01 14:12:05.007494
1073  2023-11-01 14:12:05.039408
1074  2023-11-01 14:12:05.071323
1075  2023-11-01 14:12:05.103238
1076  2023-11-01 14:12:05.136271
1077  2023-11-01 14:12:05.167187
1078  2023-11-01 14:12:05.216195
1079  2023-11-01 14:12:05.248103
1080  2023-11-01 14:12:05.280145
1081  2023-11-01 14:12:05.312056
1082  2023-11-01 14:12:05.344105
1083  2023-11-01 14:12:05.376022
1084  2023-11-01 14:12:05.408069
1085  2023-11-01 14:12:05.439983
1086  2023-11-01 14:12:05.471898
1087  2023-11-01 14:12:05.503812
1088  2023-11-01 14:12:05.535893
1089  2023-11-01 14:12:05.567880
1090  2023-11-01 14:12:05.615786
1091  2023-11-01 14:12:05.647758
1092  2023-11-01 14:12:05.679673
1093  2023-11-01 14:12:05.711587
1094  2023-11-01 14:12:05.743502
1095  2023-11-01 14:12:05.775419
1096  2023-11-01 14:12:05.807331
1097  2023-11-01 14:12:05.839209
1098  2023-11-01 14:12:05.871123
1099  2023-11-01 14:12:05.903171
1100  2023-11-01 14:12:05.936116
1101  2023-11-01 14:12:05.968057
1102  2023-11-01 14:12:06.016079
1103  2023-11-01 14:12:06.046959
1104  2023-11-01 14:12:06.079903
1105  2023-11-01 14:12:06.111338
1106  2023-11-01 14:12:06.143914
1107  2023-11-01 14:12:06.174943
1108  2023-11-01 14:12:06.207898
1109  2023-11-01 14:12:06.239772
1110  2023-11-01 14:12:06.271717
1111  2023-11-01 14:12:06.303668
1112  2023-11-01 14:12:06.335656
1113  2023-11-01 14:12:06.367670
1114  2023-11-01 14:12:06.415549
1115  2023-11-01 14:12:06.447485
1116  2023-11-01 14:12:06.479420
1117  2023-11-01 14:12:06.512324
1118  2023-11-01 14:12:06.544194
1119  2023-11-01 14:12:06.575574
1120  2023-11-01 14:12:06.607603
1121  2023-11-01 14:12:06.639521
1122  2023-11-01 14:12:06.672425
1123  2023-11-01 14:12:06.704336
1124  2023-11-01 14:12:06.736219
1125  2023-11-01 14:12:06.767168
1126  2023-11-01 14:12:06.816006
1127  2023-11-01 14:12:06.847953
1128  2023-11-01 14:12:06.879867
1129  2023-11-01 14:12:06.911749
1130  2023-11-01 14:12:06.943716
1131  2023-11-01 14:12:06.975628
1132  2023-11-01 14:12:07.007493
1133  2023-11-01 14:12:07.039409
1134  2023-11-01 14:12:07.071357
1135  2023-11-01 14:12:07.103238
1136  2023-11-01 14:12:07.135151
1137  2023-11-01 14:12:07.168063
1138  2023-11-01 14:12:07.214938
1139  2023-11-01 14:12:07.246853
1140  2023-11-01 14:12:07.279803
1141  2023-11-01 14:12:07.311713
1142  2023-11-01 14:12:07.343626
1143  2023-11-01 14:12:07.375510
1144  2023-11-01 14:12:07.407424
1145  2023-11-01 14:12:07.439379
1146  2023-11-01 14:12:07.471285
1147  2023-11-01 14:12:07.503200
1148  2023-11-01 14:12:07.535116
1149  2023-11-01 14:12:07.568026
1150  2023-11-01 14:12:07.615868
1151  2023-11-01 14:12:07.647783
1152  2023-11-01 14:12:07.679728
1153  2023-11-01 14:12:07.711648
1154  2023-11-01 14:12:07.743567
1155  2023-11-01 14:12:07.775496
1156  2023-11-01 14:12:07.807523
1157  2023-11-01 14:12:07.839469
1158  2023-11-01 14:12:07.871469
1159  2023-11-01 14:12:07.903454
1160  2023-11-01 14:12:07.935521
1161  2023-11-01 14:12:07.967436
1162  2023-11-01 14:12:08.015372
1163  2023-11-01 14:12:08.047407
1164  2023-11-01 14:12:08.079321
1165  2023-11-01 14:12:08.111236
1166  2023-11-01 14:12:08.143151
1167  2023-11-01 14:12:08.175122
1168  2023-11-01 14:12:08.207084
1169  2023-11-01 14:12:08.239741
1170  2023-11-01 14:12:08.271713
1171  2023-11-01 14:12:08.303661
1172  2023-11-01 14:12:08.335591
1173  2023-11-01 14:12:08.367493
1174  2023-11-01 14:12:08.415371
1175  2023-11-01 14:12:08.447245
1176  2023-11-01 14:12:08.479158
1177  2023-11-01 14:12:08.511108
1178  2023-11-01 14:12:08.543021
1179  2023-11-01 14:12:08.574936
1180  2023-11-01 14:12:08.607846
1181  2023-11-01 14:12:08.639767
1182  2023-11-01 14:12:08.671694
1183  2023-11-01 14:12:08.703593
1184  2023-11-01 14:12:08.735504
1185  2023-11-01 14:12:08.767431
1186  2023-11-01 14:12:08.815260
1187  2023-11-01 14:12:08.847210
1188  2023-11-01 14:12:08.879089
1189  2023-11-01 14:12:08.911037
1190  2023-11-01 14:12:08.942954
1191  2023-11-01 14:12:08.975880
1192  2023-11-01 14:12:09.007780
1193  2023-11-01 14:12:09.039699
1194  2023-11-01 14:12:09.071611
1195  2023-11-01 14:12:09.103525
1196  2023-11-01 14:12:09.135453
1197  2023-11-01 14:12:09.167370
1198  2023-11-01 14:12:09.215224
1199  2023-11-01 14:12:09.247138
1200  2023-11-01 14:12:09.279106
1201  2023-11-01 14:12:09.312010
1202  2023-11-01 14:12:09.343955
1203  2023-11-01 14:12:09.375869
1204  2023-11-01 14:12:09.407755
1205  2023-11-01 14:12:09.439700
1206  2023-11-01 14:12:09.471616
1207  2023-11-01 14:12:09.503535
1208  2023-11-01 14:12:09.535469
1209  2023-11-01 14:12:09.567358
1210  2023-11-01 14:12:09.615239
1211  2023-11-01 14:12:09.647144
1212  2023-11-01 14:12:09.679060
1213  2023-11-01 14:12:09.710978
1214  2023-11-01 14:12:09.743784
1215  2023-11-01 14:12:09.775661
1216  2023-11-01 14:12:09.807788
1217  2023-11-01 14:12:09.839699
1218  2023-11-01 14:12:09.871609
1219  2023-11-01 14:12:09.903525
1220  2023-11-01 14:12:09.935452
1221  2023-11-01 14:12:09.967355
1222  2023-11-01 14:12:10.015228
1223  2023-11-01 14:12:10.047146
1224  2023-11-01 14:12:10.079061
1225  2023-11-01 14:12:10.110969
1226  2023-11-01 14:12:10.143880
1227  2023-11-01 14:12:10.175796
1228  2023-11-01 14:12:10.207712
1229  2023-11-01 14:12:10.239624
1230  2023-11-01 14:12:10.271541
1231  2023-11-01 14:12:10.303456
1232  2023-11-01 14:12:10.335374
1233  2023-11-01 14:12:10.367286
1234  2023-11-01 14:12:10.415153
1235  2023-11-01 14:12:10.447072
1236  2023-11-01 14:12:10.478990
1237  2023-11-01 14:12:10.511897
1238  2023-11-01 14:12:10.543812
1239  2023-11-01 14:12:10.575726
1240  2023-11-01 14:12:10.607642
1241  2023-11-01 14:12:10.639557
1242  2023-11-01 14:12:10.671484
1243  2023-11-01 14:12:10.703384
1244  2023-11-01 14:12:10.735327
1245  2023-11-01 14:12:10.768182
1246  2023-11-01 14:12:10.815056
1247  2023-11-01 14:12:10.847997
1248  2023-11-01 14:12:10.879919
1249  2023-11-01 14:12:10.911828
1250  2023-11-01 14:12:10.943754
1251  2023-11-01 14:12:10.975658
1252  2023-11-01 14:12:11.007575
1253  2023-11-01 14:12:11.039487
1254  2023-11-01 14:12:11.071408
1255  2023-11-01 14:12:11.103320
1256  2023-11-01 14:12:11.135230
1257  2023-11-01 14:12:11.167143
1258  2023-11-01 14:12:11.215026
1259  2023-11-01 14:12:11.247905
1260  2023-11-01 14:12:11.279886
1261  2023-11-01 14:12:11.311801
1262  2023-11-01 14:12:11.343714
1263  2023-11-01 14:12:11.375707
1264  2023-11-01 14:12:11.407621
1265  2023-11-01 14:12:11.439538
1266  2023-11-01 14:12:11.471464
1267  2023-11-01 14:12:11.503375
1268  2023-11-01 14:12:11.535299
1269  2023-11-01 14:12:11.567194
1270  2023-11-01 14:12:11.615095
1271  2023-11-01 14:12:11.647978
1272  2023-11-01 14:12:11.679903
1273  2023-11-01 14:12:11.711806
1274  2023-11-01 14:12:11.743720
1275  2023-11-01 14:12:11.775635
1276  2023-11-01 14:12:11.807553
1277  2023-11-01 14:12:11.839468
1278  2023-11-01 14:12:11.871349
1279  2023-11-01 14:12:11.903308
1280  2023-11-01 14:12:11.935208
1281  2023-11-01 14:12:11.967125
1282  2023-11-01 14:12:12.014964
1283  2023-11-01 14:12:12.047908
1284  2023-11-01 14:12:12.079826
1285  2023-11-01 14:12:12.111744
1286  2023-11-01 14:12:12.143652
1287  2023-11-01 14:12:12.175653
1288  2023-11-01 14:12:12.207639
1289  2023-11-01 14:12:12.239582
1290  2023-11-01 14:12:12.271672
1291  2023-11-01 14:12:12.303728
1292  2023-11-01 14:12:12.335645
1293  2023-11-01 14:12:12.367558
1294  2023-11-01 14:12:12.415396
1295  2023-11-01 14:12:12.447342
1296  2023-11-01 14:12:12.479259
1297  2023-11-01 14:12:12.511173
1298  2023-11-01 14:12:12.543087
1299  2023-11-01 14:12:12.575022
1300  2023-11-01 14:12:12.607924
1301  2023-11-01 14:12:12.639829
1302  2023-11-01 14:12:12.671744
1303  2023-11-01 14:12:12.703669
1304  2023-11-01 14:12:12.735569
1305  2023-11-01 14:12:12.767496
1306  2023-11-01 14:12:12.815363
1307  2023-11-01 14:12:12.847281
1308  2023-11-01 14:12:12.879193
1309  2023-11-01 14:12:12.911108
1310  2023-11-01 14:12:12.942991
1311  2023-11-01 14:12:12.975933
1312  2023-11-01 14:12:13.007845
1313  2023-11-01 14:12:13.039768
1314  2023-11-01 14:12:13.071688
1315  2023-11-01 14:12:13.103592
1316  2023-11-01 14:12:13.135506
1317  2023-11-01 14:12:13.167434
1318  2023-11-01 14:12:13.215258
1319  2023-11-01 14:12:13.247207
1320  2023-11-01 14:12:13.279121
1321  2023-11-01 14:12:13.311033
1322  2023-11-01 14:12:13.343916
1323  2023-11-01 14:12:13.375829
1324  2023-11-01 14:12:13.407775
1325  2023-11-01 14:12:13.439692
1326  2023-11-01 14:12:13.471573
1327  2023-11-01 14:12:13.503488
1328  2023-11-01 14:12:13.535444
1329  2023-11-01 14:12:13.567349
1330  2023-11-01 14:12:13.615222
1331  2023-11-01 14:12:13.647134
1332  2023-11-01 14:12:13.679054
1333  2023-11-01 14:12:13.710963
1334  2023-11-01 14:12:13.743881
1335  2023-11-01 14:12:13.775760
1336  2023-11-01 14:12:13.807674
1337  2023-11-01 14:12:13.839621
1338  2023-11-01 14:12:13.871537
1339  2023-11-01 14:12:13.903473
1340  2023-11-01 14:12:13.935365
1341  2023-11-01 14:12:13.967269
1342  2023-11-01 14:12:14.016106
1343  2023-11-01 14:12:14.047028
1344  2023-11-01 14:12:14.079936
1345  2023-11-01 14:12:14.111238
1346  2023-11-01 14:12:14.143161
1347  2023-11-01 14:12:14.175036
1348  2023-11-01 14:12:14.207948
1349  2023-11-01 14:12:14.239911
1350  2023-11-01 14:12:14.271809
1351  2023-11-01 14:12:14.303726
1352  2023-11-01 14:12:14.335607
1353  2023-11-01 14:12:14.367659
1354  2023-11-01 14:12:14.415603
1355  2023-11-01 14:12:14.447550
1356  2023-11-01 14:12:14.479469
1357  2023-11-01 14:12:14.511378
1358  2023-11-01 14:12:14.543296
1359  2023-11-01 14:12:14.575211
1360  2023-11-01 14:12:14.607124
1361  2023-11-01 14:12:14.639039
1362  2023-11-01 14:12:14.671918
1363  2023-11-01 14:12:14.703870
1364  2023-11-01 14:12:14.735747
1365  2023-11-01 14:12:14.767662
1366  2023-11-01 14:12:14.815534
1367  2023-11-01 14:12:14.847448
1368  2023-11-01 14:12:14.879363
1369  2023-11-01 14:12:14.911332
1370  2023-11-01 14:12:14.943226
1371  2023-11-01 14:12:14.975107
1372  2023-11-01 14:12:15.007022
1373  2023-11-01 14:12:15.039934
1374  2023-11-01 14:12:15.071849
1375  2023-11-01 14:12:15.103763
1376  2023-11-01 14:12:15.135678
1377  2023-11-01 14:12:15.167592
1378  2023-11-01 14:12:15.215464
1379  2023-11-01 14:12:15.247379
1380  2023-11-01 14:12:15.279294
1381  2023-11-01 14:12:15.311209
1382  2023-11-01 14:12:15.343123
1383  2023-11-01 14:12:15.375038
1384  2023-11-01 14:12:15.407977
1385  2023-11-01 14:12:15.439897
1386  2023-11-01 14:12:15.471779
1387  2023-11-01 14:12:15.503694
1388  2023-11-01 14:12:15.535641
1389  2023-11-01 14:12:15.567927
1390  2023-11-01 14:12:15.615882
1391  2023-11-01 14:12:15.647794
1392  2023-11-01 14:12:15.679678
1393  2023-11-01 14:12:15.711593
1394  2023-11-01 14:12:15.743507
1395  2023-11-01 14:12:15.775422
1396  2023-11-01 14:12:15.807336
1397  2023-11-01 14:12:15.839251
1398  2023-11-01 14:12:15.871166
1399  2023-11-01 14:12:15.903081
1400  2023-11-01 14:12:15.934995
1401  2023-11-01 14:12:15.967907
1402  2023-11-01 14:12:16.015779
1403  2023-11-01 14:12:16.047694
1404  2023-11-01 14:12:16.079608
1405  2023-11-01 14:12:16.111523
1406  2023-11-01 14:12:16.143438
1407  2023-11-01 14:12:16.175365
1408  2023-11-01 14:12:16.207268
1409  2023-11-01 14:12:16.239182
1410  2023-11-01 14:12:16.271097
1411  2023-11-01 14:12:16.303011
1412  2023-11-01 14:12:16.335934
1413  2023-11-01 14:12:16.367838
1414  2023-11-01 14:12:16.415710
1415  2023-11-01 14:12:16.447625
1416  2023-11-01 14:12:16.479539
1417  2023-11-01 14:12:16.511454
1418  2023-11-01 14:12:16.543489
1419  2023-11-01 14:12:16.575283
1420  2023-11-01 14:12:16.607198
1421  2023-11-01 14:12:16.639113
1422  2023-11-01 14:12:16.671027
1423  2023-11-01 14:12:16.703941
1424  2023-11-01 14:12:16.735857
1425  2023-11-01 14:12:16.767810
1426  2023-11-01 14:12:16.815674
1427  2023-11-01 14:12:16.847557
1428  2023-11-01 14:12:16.879471
1429  2023-11-01 14:12:16.911424
1430  2023-11-01 14:12:16.943337
1431  2023-11-01 14:12:16.975318
1432  2023-11-01 14:12:17.007233
1433  2023-11-01 14:12:17.039147
1434  2023-11-01 14:12:17.071062
1435  2023-11-01 14:12:17.102977
1436  2023-11-01 14:12:17.135889
1437  2023-11-01 14:12:17.167803
1438  2023-11-01 14:12:17.215675
1439  2023-11-01 14:12:17.247591
1440  2023-11-01 14:12:17.279505
1441  2023-11-01 14:12:17.311419
1442  2023-11-01 14:12:17.343334
1443  2023-11-01 14:12:17.375249
1444  2023-11-01 14:12:17.407163
1445  2023-11-01 14:12:17.439078
1446  2023-11-01 14:12:17.471999
1447  2023-11-01 14:12:17.503905
1448  2023-11-01 14:12:17.535819
1449  2023-11-01 14:12:17.567735
1450  2023-11-01 14:12:17.615606
1451  2023-11-01 14:12:17.647552
1452  2023-11-01 14:12:17.679436
1453  2023-11-01 14:12:17.711350
1454  2023-11-01 14:12:17.743265
1455  2023-11-01 14:12:17.775228
1456  2023-11-01 14:12:17.808092
1457  2023-11-01 14:12:17.839009
1458  2023-11-01 14:12:17.871921
1459  2023-11-01 14:12:17.903876
1460  2023-11-01 14:12:17.935887
1461  2023-11-01 14:12:17.967876
1462  2023-11-01 14:12:18.015784
1463  2023-11-01 14:12:18.047699
1464  2023-11-01 14:12:18.079040
1465  2023-11-01 14:12:18.111033
1466  2023-11-01 14:12:18.143909
1467  2023-11-01 14:12:18.175824
1468  2023-11-01 14:12:18.207739
1469  2023-11-01 14:12:18.239653
1470  2023-11-01 14:12:18.271568
1471  2023-11-01 14:12:18.303482
1472  2023-11-01 14:12:18.335428
1473  2023-11-01 14:12:18.367312
1474  2023-11-01 14:12:18.415324
1475  2023-11-01 14:12:18.447238
1476  2023-11-01 14:12:18.480151
1477  2023-11-01 14:12:18.511068
1478  2023-11-01 14:12:18.543986
1479  2023-11-01 14:12:18.575895
1480  2023-11-01 14:12:18.607830
1481  2023-11-01 14:12:18.639724
1482  2023-11-01 14:12:18.671724
1483  2023-11-01 14:12:18.703616
1484  2023-11-01 14:12:18.735536
1485  2023-11-01 14:12:18.767449
1486  2023-11-01 14:12:18.815914
1487  2023-11-01 14:12:18.847885
1488  2023-11-01 14:12:18.879778
1489  2023-11-01 14:12:18.911654
1490  2023-11-01 14:12:18.943568
1491  2023-11-01 14:12:18.975535
1492  2023-11-01 14:12:19.007580
1493  2023-11-01 14:12:19.039495
1494  2023-11-01 14:12:19.071410
1495  2023-11-01 14:12:19.103324
1496  2023-11-01 14:12:19.135239
1497  2023-11-01 14:12:19.167154
1498  2023-11-01 14:12:19.215026
1499  2023-11-01 14:12:19.247938
1500  2023-11-01 14:12:19.279852
1501  2023-11-01 14:12:19.311853
1502  2023-11-01 14:12:19.343768
1503  2023-11-01 14:12:19.375747
1504  2023-11-01 14:12:19.407709
1505  2023-11-01 14:12:19.439622
1506  2023-11-01 14:12:19.471573
1507  2023-11-01 14:12:19.503489
1508  2023-11-01 14:12:19.535414
1509  2023-11-01 14:12:19.567408
1510  2023-11-01 14:12:19.615410
1511  2023-11-01 14:12:19.647261
1512  2023-11-01 14:12:19.679220
1513  2023-11-01 14:12:19.711224
1514  2023-11-01 14:12:19.743178
1515  2023-11-01 14:12:19.775432
1516  2023-11-01 14:12:19.807385
1517  2023-11-01 14:12:19.839299
1518  2023-11-01 14:12:19.871214
1519  2023-11-01 14:12:19.903164
1520  2023-11-01 14:12:19.935188
1521  2023-11-01 14:12:19.967227
1522  2023-11-01 14:12:20.015100
1523  2023-11-01 14:12:20.048012
1524  2023-11-01 14:12:20.079926
1525  2023-11-01 14:12:20.111877
1526  2023-11-01 14:12:20.143756
1527  2023-11-01 14:12:20.175789
1528  2023-11-01 14:12:20.207833
1529  2023-11-01 14:12:20.239785
1530  2023-11-01 14:12:20.271662
1531  2023-11-01 14:12:20.303687
1532  2023-11-01 14:12:20.335604
1533  2023-11-01 14:12:20.367517
1534  2023-11-01 14:12:20.415389
1535  2023-11-01 14:12:20.447304
1536  2023-11-01 14:12:20.479218
1537  2023-11-01 14:12:20.511370
1538  2023-11-01 14:12:20.543283
1539  2023-11-01 14:12:20.575260
1540  2023-11-01 14:12:20.607175
1541  2023-11-01 14:12:20.640087
1542  2023-11-01 14:12:20.671004
1543  2023-11-01 14:12:20.703916
1544  2023-11-01 14:12:20.735831
1545  2023-11-01 14:12:20.767745
1546  2023-11-01 14:12:20.815373
1547  2023-11-01 14:12:20.847287
1548  2023-11-01 14:12:20.879202
1549  2023-11-01 14:12:20.911195
1550  2023-11-01 14:12:20.943174
1551  2023-11-01 14:12:20.975038
1552  2023-11-01 14:12:21.007950
1553  2023-11-01 14:12:21.039865
1554  2023-11-01 14:12:21.071785
1555  2023-11-01 14:12:21.103696
1556  2023-11-01 14:12:21.135609
1557  2023-11-01 14:12:21.167605
1558  2023-11-01 14:12:21.215477
1559  2023-11-01 14:12:21.247471
1560  2023-11-01 14:12:21.279431
1561  2023-11-01 14:12:21.311416
1562  2023-11-01 14:12:21.343297
1563  2023-11-01 14:12:21.375211
1564  2023-11-01 14:12:21.407217
1565  2023-11-01 14:12:21.439181
1566  2023-11-01 14:12:21.471135
1567  2023-11-01 14:12:21.503051
1568  2023-11-01 14:12:21.535964
1569  2023-11-01 14:12:21.567928
1570  2023-11-01 14:12:21.615682
1571  2023-11-01 14:12:21.647636
1572  2023-11-01 14:12:21.679543
1573  2023-11-01 14:12:21.711459
1574  2023-11-01 14:12:21.743381
1575  2023-11-01 14:12:21.775359
1576  2023-11-01 14:12:21.807221
1577  2023-11-01 14:12:21.839136
1578  2023-11-01 14:12:21.871170
1579  2023-11-01 14:12:21.903156
1580  2023-11-01 14:12:21.935085
1581  2023-11-01 14:12:21.967000
1582  2023-11-01 14:12:22.015052
1583  2023-11-01 14:12:22.047039
1584  2023-11-01 14:12:22.078954
1585  2023-11-01 14:12:22.111866
1586  2023-11-01 14:12:22.143781
1587  2023-11-01 14:12:22.175742
1588  2023-11-01 14:12:22.207656
1589  2023-11-01 14:12:22.239145
1590  2023-11-01 14:12:22.272096
1591  2023-11-01 14:12:22.303105
1592  2023-11-01 14:12:22.336010
1593  2023-11-01 14:12:22.367924
1594  2023-11-01 14:12:22.415796
1595  2023-11-01 14:12:22.447700
1596  2023-11-01 14:12:22.479618
1597  2023-11-01 14:12:22.511585
1598  2023-11-01 14:12:22.543610
1599  2023-11-01 14:12:22.575055
1600  2023-11-01 14:12:22.608045
1601  2023-11-01 14:12:22.638962
1602  2023-11-01 14:12:22.671875
1603  2023-11-01 14:12:22.703789
1604  2023-11-01 14:12:22.735704
1605  2023-11-01 14:12:22.767619
1606  2023-11-01 14:12:22.815491
1607  2023-11-01 14:12:22.847405
1608  2023-11-01 14:12:22.879320
1609  2023-11-01 14:12:22.911235
1610  2023-11-01 14:12:22.943149
1611  2023-11-01 14:12:22.975064
1612  2023-11-01 14:12:23.007976
1613  2023-11-01 14:12:23.039016
1614  2023-11-01 14:12:23.071928
1615  2023-11-01 14:12:23.102992
1616  2023-11-01 14:12:23.135904
1617  2023-11-01 14:12:23.167820
1618  2023-11-01 14:12:23.215691
1619  2023-11-01 14:12:23.247606
1620  2023-11-01 14:12:23.279758
1621  2023-11-01 14:12:23.311673
1622  2023-11-01 14:12:23.344778
1623  2023-11-01 14:12:23.375662
1624  2023-11-01 14:12:23.407578
1625  2023-11-01 14:12:23.439285
1626  2023-11-01 14:12:23.471229
1627  2023-11-01 14:12:23.503188
1628  2023-11-01 14:12:23.535258
1629  2023-11-01 14:12:23.568172
1630  2023-11-01 14:12:23.616128
1631  2023-11-01 14:12:23.648042
1632  2023-11-01 14:12:23.680045
1633  2023-11-01 14:12:23.711959
1634  2023-11-01 14:12:23.743907
1635  2023-11-01 14:12:23.775831
1636  2023-11-01 14:12:23.807703
1637  2023-11-01 14:12:23.840628
1638  2023-11-01 14:12:23.872550
1639  2023-11-01 14:12:23.904476
1640  2023-11-01 14:12:23.935439
1641  2023-11-01 14:12:23.968455
1642  2023-11-01 14:12:24.016336
1643  2023-11-01 14:12:24.048156
1644  2023-11-01 14:12:24.080099
1645  2023-11-01 14:12:24.112152
1646  2023-11-01 14:12:24.144106
1647  2023-11-01 14:12:24.176021
1648  2023-11-01 14:12:24.207940
1649  2023-11-01 14:12:24.239850
1650  2023-11-01 14:12:24.271763
1651  2023-11-01 14:12:24.303646
1652  2023-11-01 14:12:24.335593
1653  2023-11-01 14:12:24.367606
1654  2023-11-01 14:12:24.415448
1655  2023-11-01 14:12:24.447364
1656  2023-11-01 14:12:24.479277
1657  2023-11-01 14:12:24.511192
1658  2023-11-01 14:12:24.544138
1659  2023-11-01 14:12:24.575021
1660  2023-11-01 14:12:24.607976
1661  2023-11-01 14:12:24.639892
1662  2023-11-01 14:12:24.671616
1663  2023-11-01 14:12:24.703526
1664  2023-11-01 14:12:24.735440
1665  2023-11-01 14:12:24.767366
1666  2023-11-01 14:12:24.815233
1667  2023-11-01 14:12:24.847110
1668  2023-11-01 14:12:24.879084
1669  2023-11-01 14:12:24.911056
1670  2023-11-01 14:12:24.943137
1671  2023-11-01 14:12:24.975052
1672  2023-11-01 14:12:25.007963
1673  2023-11-01 14:12:25.039879
1674  2023-11-01 14:12:25.071794
1675  2023-11-01 14:12:25.103707
1676  2023-11-01 14:12:25.136653
1677  2023-11-01 14:12:25.168567
1678  2023-11-01 14:12:25.216585
1679  2023-11-01 14:12:25.248494
1680  2023-11-01 14:12:25.279416
1681  2023-11-01 14:12:25.312291
1682  2023-11-01 14:12:25.344240
1683  2023-11-01 14:12:25.376121
1684  2023-11-01 14:12:25.407996
1685  2023-11-01 14:12:25.439955
1686  2023-11-01 14:12:25.471917
1687  2023-11-01 14:12:25.503782
1688  2023-11-01 14:12:25.535697
1689  2023-11-01 14:12:25.567645
1690  2023-11-01 14:12:25.616524
1691  2023-11-01 14:12:25.648429
1692  2023-11-01 14:12:25.679354
1693  2023-11-01 14:12:25.711229
1694  2023-11-01 14:12:25.743174
1695  2023-11-01 14:12:25.775103
1696  2023-11-01 14:12:25.808001
1697  2023-11-01 14:12:25.839884
1698  2023-11-01 14:12:25.871881
1699  2023-11-01 14:12:25.903833
1700  2023-11-01 14:12:25.935749
1701  2023-11-01 14:12:25.967695
1702  2023-11-01 14:12:26.015568
1703  2023-11-01 14:12:26.047484
1704  2023-11-01 14:12:26.079407
1705  2023-11-01 14:12:26.111318
1706  2023-11-01 14:12:26.143223
1707  2023-11-01 14:12:26.175108
1708  2023-11-01 14:12:26.207053
1709  2023-11-01 14:12:26.239968
1710  2023-11-01 14:12:26.271848
1711  2023-11-01 14:12:26.303811
1712  2023-11-01 14:12:26.335709
1713  2023-11-01 14:12:26.367625
1714  2023-11-01 14:12:26.415497
1715  2023-11-01 14:12:26.447410
1716  2023-11-01 14:12:26.479341
1717  2023-11-01 14:12:26.511252
1718  2023-11-01 14:12:26.544172
1719  2023-11-01 14:12:26.575072
1720  2023-11-01 14:12:26.607988
1721  2023-11-01 14:12:26.639865
1722  2023-11-01 14:12:26.671812
1723  2023-11-01 14:12:26.703721
1724  2023-11-01 14:12:26.735644
1725  2023-11-01 14:12:26.767560
1726  2023-11-01 14:12:26.815432
1727  2023-11-01 14:12:26.847346
1728  2023-11-01 14:12:26.879259
1729  2023-11-01 14:12:26.911171
1730  2023-11-01 14:12:26.943087
1731  2023-11-01 14:12:26.975002
1732  2023-11-01 14:12:27.006933
1733  2023-11-01 14:12:27.039828
1734  2023-11-01 14:12:27.071744
1735  2023-11-01 14:12:27.103662
1736  2023-11-01 14:12:27.135540
1737  2023-11-01 14:12:27.167500
1738  2023-11-01 14:12:27.215359
1739  2023-11-01 14:12:27.247278
1740  2023-11-01 14:12:27.279192
1741  2023-11-01 14:12:27.311102
1742  2023-11-01 14:12:27.344031
1743  2023-11-01 14:12:27.375936
1744  2023-11-01 14:12:27.407861
1745  2023-11-01 14:12:27.439766
1746  2023-11-01 14:12:27.471683
1747  2023-11-01 14:12:27.503587
1748  2023-11-01 14:12:27.535504
1749  2023-11-01 14:12:27.567438
1750  2023-11-01 14:12:27.615291
1751  2023-11-01 14:12:27.647203
1752  2023-11-01 14:12:27.679122
1753  2023-11-01 14:12:27.711035
1754  2023-11-01 14:12:27.743947
1755  2023-11-01 14:12:27.775858
1756  2023-11-01 14:12:27.807773
1757  2023-11-01 14:12:27.839690
1758  2023-11-01 14:12:27.871613
1759  2023-11-01 14:12:27.903520
1760  2023-11-01 14:12:27.936434
1761  2023-11-01 14:12:27.967356
1762  2023-11-01 14:12:28.015219
1763  2023-11-01 14:12:28.047136
1764  2023-11-01 14:12:28.079051
1765  2023-11-01 14:12:28.110976
1766  2023-11-01 14:12:28.143883
1767  2023-11-01 14:12:28.175791
1768  2023-11-01 14:12:28.207706
1769  2023-11-01 14:12:28.239626
1770  2023-11-01 14:12:28.271537
1771  2023-11-01 14:12:28.303456
1772  2023-11-01 14:12:28.335377
1773  2023-11-01 14:12:28.367281
1774  2023-11-01 14:12:28.415150
1775  2023-11-01 14:12:28.447073
1776  2023-11-01 14:12:28.479979
1777  2023-11-01 14:12:28.511917
1778  2023-11-01 14:12:28.543808
1779  2023-11-01 14:12:28.575721
1780  2023-11-01 14:12:28.607634
1781  2023-11-01 14:12:28.639568
1782  2023-11-01 14:12:28.671491
1783  2023-11-01 14:12:28.703382
1784  2023-11-01 14:12:28.735316
1785  2023-11-01 14:12:28.767213
1786  2023-11-01 14:12:28.815081
1787  2023-11-01 14:12:28.847001
1788  2023-11-01 14:12:28.879907
1789  2023-11-01 14:12:28.911822
1790  2023-11-01 14:12:28.943707
1791  2023-11-01 14:12:28.975667
1792  2023-11-01 14:12:29.007566
1793  2023-11-01 14:12:29.039497
1794  2023-11-01 14:12:29.071405
1795  2023-11-01 14:12:29.103280
1796  2023-11-01 14:12:29.135228
1797  2023-11-01 14:12:29.168136
1798  2023-11-01 14:12:29.215990
1799  2023-11-01 14:12:29.247032
1800  2023-11-01 14:12:29.279938
1801  2023-11-01 14:12:29.311886
1802  2023-11-01 14:12:29.343797
1803  2023-11-01 14:12:29.375713
1804  2023-11-01 14:12:29.407596
1805  2023-11-01 14:12:29.439548
1806  2023-11-01 14:12:29.471466
1807  2023-11-01 14:12:29.503339
1808  2023-11-01 14:12:29.535286
1809  2023-11-01 14:12:29.567213
1810  2023-11-01 14:12:29.615079
1811  2023-11-01 14:12:29.647999
1812  2023-11-01 14:12:29.679898
1813  2023-11-01 14:12:29.711782
1814  2023-11-01 14:12:29.743739
1815  2023-11-01 14:12:29.775650
1816  2023-11-01 14:12:29.807558
1817  2023-11-01 14:12:29.839477
1818  2023-11-01 14:12:29.871400
1819  2023-11-01 14:12:29.903305
1820  2023-11-01 14:12:29.935184
1821  2023-11-01 14:12:29.967135
1822  2023-11-01 14:12:30.015004
1823  2023-11-01 14:12:30.047927
1824  2023-11-01 14:12:30.079847
1825  2023-11-01 14:12:30.111744
1826  2023-11-01 14:12:30.143248
1827  2023-11-01 14:12:30.175159
1828  2023-11-01 14:12:30.207073
1829  2023-11-01 14:12:30.239985
1830  2023-11-01 14:12:30.271916
1831  2023-11-01 14:12:30.303815
1832  2023-11-01 14:12:30.335729
1833  2023-11-01 14:12:30.367658
1834  2023-11-01 14:12:30.415518
1835  2023-11-01 14:12:30.447432
1836  2023-11-01 14:12:30.479313
1837  2023-11-01 14:12:30.511262
1838  2023-11-01 14:12:30.543173
1839  2023-11-01 14:12:30.575095
1840  2023-11-01 14:12:30.608018
1841  2023-11-01 14:12:30.639914
1842  2023-11-01 14:12:30.671832
1843  2023-11-01 14:12:30.703712
1844  2023-11-01 14:12:30.735664
1845  2023-11-01 14:12:30.767575
1846  2023-11-01 14:12:30.815447
1847  2023-11-01 14:12:30.847361
1848  2023-11-01 14:12:30.879282
1849  2023-11-01 14:12:30.911191
1850  2023-11-01 14:12:30.943107
1851  2023-11-01 14:12:30.975019
1852  2023-11-01 14:12:31.007938
1853  2023-11-01 14:12:31.039847
1854  2023-11-01 14:12:31.071768
1855  2023-11-01 14:12:31.103643
1856  2023-11-01 14:12:31.135557
1857  2023-11-01 14:12:31.167506
1858  2023-11-01 14:12:31.215379
1859  2023-11-01 14:12:31.247233
1860  2023-11-01 14:12:31.279248
1861  2023-11-01 14:12:31.311157
1862  2023-11-01 14:12:31.343072
1863  2023-11-01 14:12:31.374961
1864  2023-11-01 14:12:31.407934
1865  2023-11-01 14:12:31.439818
1866  2023-11-01 14:12:31.471906
1867  2023-11-01 14:12:31.503771
1868  2023-11-01 14:12:31.535719
1869  2023-11-01 14:12:31.567634
1870  2023-11-01 14:12:31.615509
1871  2023-11-01 14:12:31.647420
1872  2023-11-01 14:12:31.679333
1873  2023-11-01 14:12:31.711250
1874  2023-11-01 14:12:31.743166
1875  2023-11-01 14:12:31.775084
1876  2023-11-01 14:12:31.806991
1877  2023-11-01 14:12:31.839911
1878  2023-11-01 14:12:31.871823
1879  2023-11-01 14:12:31.903702
1880  2023-11-01 14:12:31.935616
1881  2023-11-01 14:12:31.967562
1882  2023-11-01 14:12:32.015386
1883  2023-11-01 14:12:32.047301
1884  2023-11-01 14:12:32.079277
1885  2023-11-01 14:12:32.111286
1886  2023-11-01 14:12:32.143198
1887  2023-11-01 14:12:32.175108
1888  2023-11-01 14:12:32.207034
1889  2023-11-01 14:12:32.239906
1890  2023-11-01 14:12:32.271880
1891  2023-11-01 14:12:32.303768
1892  2023-11-01 14:12:32.335648
1893  2023-11-01 14:12:32.367597
1894  2023-11-01 14:12:32.415440
1895  2023-11-01 14:12:32.447384
1896  2023-11-01 14:12:32.479299
1897  2023-11-01 14:12:32.511210
1898  2023-11-01 14:12:32.543127
1899  2023-11-01 14:12:32.575038
1900  2023-11-01 14:12:32.607920
1901  2023-11-01 14:12:32.639866
1902  2023-11-01 14:12:32.671786
1903  2023-11-01 14:12:32.703699
1904  2023-11-01 14:12:32.735578
1905  2023-11-01 14:12:32.767493
1906  2023-11-01 14:12:32.815365
1907  2023-11-01 14:12:32.847280
1908  2023-11-01 14:12:32.879234
1909  2023-11-01 14:12:32.911144
1910  2023-11-01 14:12:32.943054
1911  2023-11-01 14:12:32.975936
1912  2023-11-01 14:12:33.007850
1913  2023-11-01 14:12:33.039805
1914  2023-11-01 14:12:33.071714
1915  2023-11-01 14:12:33.103626
1916  2023-11-01 14:12:33.135509
1917  2023-11-01 14:12:33.167424
1918  2023-11-01 14:12:33.215336
1919  2023-11-01 14:12:33.247252
1920  2023-11-01 14:12:33.280125
1921  2023-11-01 14:12:33.312072
1922  2023-11-01 14:12:33.342990
1923  2023-11-01 14:12:33.375868
1924  2023-11-01 14:12:33.407889
1925  2023-11-01 14:12:33.439804
1926  2023-11-01 14:12:33.471687
1927  2023-11-01 14:12:33.503633
1928  2023-11-01 14:12:33.535550
1929  2023-11-01 14:12:33.567464
1930  2023-11-01 14:12:33.615337
1931  2023-11-01 14:12:33.647251
1932  2023-11-01 14:12:33.679169
1933  2023-11-01 14:12:33.711082
1934  2023-11-01 14:12:33.742993
1935  2023-11-01 14:12:33.775912
1936  2023-11-01 14:12:33.807788
1937  2023-11-01 14:12:33.839703
1938  2023-11-01 14:12:33.871666
1939  2023-11-01 14:12:33.903565
1940  2023-11-01 14:12:33.935447
1941  2023-11-01 14:12:33.967405
1942  2023-11-01 14:12:34.015234
1943  2023-11-01 14:12:34.047149
1944  2023-11-01 14:12:34.079098
1945  2023-11-01 14:12:34.111951
1946  2023-11-01 14:12:34.143932
1947  2023-11-01 14:12:34.175846
1948  2023-11-01 14:12:34.207761
1949  2023-11-01 14:12:34.239676
1950  2023-11-01 14:12:34.271591
1951  2023-11-01 14:12:34.303737
1952  2023-11-01 14:12:34.335686
1953  2023-11-01 14:12:34.367556
1954  2023-11-01 14:12:34.415467
1955  2023-11-01 14:12:34.447436
1956  2023-11-01 14:12:34.479335
1957  2023-11-01 14:12:34.511211
1958  2023-11-01 14:12:34.543126
1959  2023-11-01 14:12:34.575042
1960  2023-11-01 14:12:34.606957
1961  2023-11-01 14:12:34.639867
1962  2023-11-01 14:12:34.671837
1963  2023-11-01 14:12:34.703697
1964  2023-11-01 14:12:34.735644
1965  2023-11-01 14:12:34.767526
1966  2023-11-01 14:12:34.815428
1967  2023-11-01 14:12:34.847313
1968  2023-11-01 14:12:34.879349
1969  2023-11-01 14:12:34.911264
1970  2023-11-01 14:12:34.943217
1971  2023-11-01 14:12:34.975093
1972  2023-11-01 14:12:35.007008
1973  2023-11-01 14:12:35.039075
1974  2023-11-01 14:12:35.071096
1975  2023-11-01 14:12:35.102978
1976  2023-11-01 14:12:35.135889
1977  2023-11-01 14:12:35.167804
1978  2023-11-01 14:12:35.215676
1979  2023-11-01 14:12:35.247591
1980  2023-11-01 14:12:35.279539
1981  2023-11-01 14:12:35.311420
1982  2023-11-01 14:12:35.343335
1983  2023-11-01 14:12:35.375249
1984  2023-11-01 14:12:35.407208
1985  2023-11-01 14:12:35.439920
1986  2023-11-01 14:12:35.471782
1987  2023-11-01 14:12:35.503697
1988  2023-11-01 14:12:35.535644
1989  2023-11-01 14:12:35.567557
1990  2023-11-01 14:12:35.616220
1991  2023-11-01 14:12:35.647104
1992  2023-11-01 14:12:35.679019
1993  2023-11-01 14:12:35.711929
1994  2023-11-01 14:12:35.743844
1995  2023-11-01 14:12:35.775758
1996  2023-11-01 14:12:35.807673
1997  2023-11-01 14:12:35.839588
1998  2023-11-01 14:12:35.871502
1999  2023-11-01 14:12:35.903417
2000  2023-11-01 14:12:35.935332
2001  2023-11-01 14:12:35.967246
2002  2023-11-01 14:12:36.016155
2003  2023-11-01 14:12:36.047033
2004  2023-11-01 14:12:36.079062
2005  2023-11-01 14:12:36.112012
2006  2023-11-01 14:12:36.143946
2007  2023-11-01 14:12:36.175803
2008  2023-11-01 14:12:36.207719
2009  2023-11-01 14:12:36.239678
2010  2023-11-01 14:12:36.271577
2011  2023-11-01 14:12:36.303462
2012  2023-11-01 14:12:36.335377
2013  2023-11-01 14:12:36.367339
2014  2023-11-01 14:12:36.415287
2015  2023-11-01 14:12:36.447237
2016  2023-11-01 14:12:36.479152
2017  2023-11-01 14:12:36.511031
2018  2023-11-01 14:12:36.543943
2019  2023-11-01 14:12:36.575917
2020  2023-11-01 14:12:36.607808
2021  2023-11-01 14:12:36.639687
2022  2023-11-01 14:12:36.671602
2023  2023-11-01 14:12:36.703591
2024  2023-11-01 14:12:36.735460
2025  2023-11-01 14:12:36.767425
2026  2023-11-01 14:12:36.815331
2027  2023-11-01 14:12:36.847212
2028  2023-11-01 14:12:36.879127
2029  2023-11-01 14:12:36.911076
2030  2023-11-01 14:12:36.943007
2031  2023-11-01 14:12:36.975868
2032  2023-11-01 14:12:37.007902
2033  2023-11-01 14:12:37.039814
2034  2023-11-01 14:12:37.071838
2035  2023-11-01 14:12:37.103753
2036  2023-11-01 14:12:37.135668
2037  2023-11-01 14:12:37.167582
2038  2023-11-01 14:12:37.215454
2039  2023-11-01 14:12:37.247369
2040  2023-11-01 14:12:37.279285
2041  2023-11-01 14:12:37.311199
2042  2023-11-01 14:12:37.343113
2043  2023-11-01 14:12:37.375028
2044  2023-11-01 14:12:37.407094
2045  2023-11-01 14:12:37.439009
2046  2023-11-01 14:12:37.471930
2047  2023-11-01 14:12:37.503902
2048  2023-11-01 14:12:37.535924
2049  2023-11-01 14:12:37.567799
2050  2023-11-01 14:12:37.615721
2051  2023-11-01 14:12:37.647670
2052  2023-11-01 14:12:37.679617
2053  2023-11-01 14:12:37.711532
2054  2023-11-01 14:12:37.743513
2055  2023-11-01 14:12:37.775471
2056  2023-11-01 14:12:37.807342
2057  2023-11-01 14:12:37.839927
2058  2023-11-01 14:12:37.871840
2059  2023-11-01 14:12:37.903829
2060  2023-11-01 14:12:37.935748
2061  2023-11-01 14:12:37.967621
2062  2023-11-01 14:12:38.015575
2063  2023-11-01 14:12:38.047545
2064  2023-11-01 14:12:38.079460
2065  2023-11-01 14:12:38.111686
2066  2023-11-01 14:12:38.143369
2067  2023-11-01 14:12:38.175280
2068  2023-11-01 14:12:38.207195
2069  2023-11-01 14:12:38.239151
2070  2023-11-01 14:12:38.271058
2071  2023-11-01 14:12:38.303936
2072  2023-11-01 14:12:38.335851
2073  2023-11-01 14:12:38.367767
2074  2023-11-01 14:12:38.415638
2075  2023-11-01 14:12:38.447552
2076  2023-11-01 14:12:38.479467
2077  2023-11-01 14:12:38.511491
2078  2023-11-01 14:12:38.543406
2079  2023-11-01 14:12:38.575320
2080  2023-11-01 14:12:38.607470
2081  2023-11-01 14:12:38.639385
2082  2023-11-01 14:12:38.671299
2083  2023-11-01 14:12:38.703214
2084  2023-11-01 14:12:38.735129
2085  2023-11-01 14:12:38.767144
2086  2023-11-01 14:12:38.815016
2087  2023-11-01 14:12:38.846931
2088  2023-11-01 14:12:38.879844
2089  2023-11-01 14:12:38.911758
2090  2023-11-01 14:12:38.943673
2091  2023-11-01 14:12:38.975605
2092  2023-11-01 14:12:39.007502
2093  2023-11-01 14:12:39.039417
2094  2023-11-01 14:12:39.071332
2095  2023-11-01 14:12:39.104245
2096  2023-11-01 14:12:39.135161
2097  2023-11-01 14:12:39.167076
2098  2023-11-01 14:12:39.215953
2099  2023-11-01 14:12:39.247939
2100  2023-11-01 14:12:39.279859
2101  2023-11-01 14:12:39.311811
2102  2023-11-01 14:12:39.343821
2103  2023-11-01 14:12:39.375737
2104  2023-11-01 14:12:39.407688
2105  2023-11-01 14:12:39.439730
2106  2023-11-01 14:12:39.471427
2107  2023-11-01 14:12:39.503283
2108  2023-11-01 14:12:39.536309
2109  2023-11-01 14:12:39.567195
2110  2023-11-01 14:12:39.616026
2111  2023-11-01 14:12:39.647940
2112  2023-11-01 14:12:39.679855
2113  2023-11-01 14:12:39.711569
2114  2023-11-01 14:12:39.743483
2115  2023-11-01 14:12:39.775398
2116  2023-11-01 14:12:39.807418
2117  2023-11-01 14:12:39.839328
2118  2023-11-01 14:12:39.871374
2119  2023-11-01 14:12:39.903289
2120  2023-11-01 14:12:39.935203
2121  2023-11-01 14:12:39.968115
2122  2023-11-01 14:12:40.015987
2123  2023-11-01 14:12:40.047902
2124  2023-11-01 14:12:40.079817
2125  2023-11-01 14:12:40.111564
2126  2023-11-01 14:12:40.143479
2127  2023-11-01 14:12:40.175393
2128  2023-11-01 14:12:40.207308
2129  2023-11-01 14:12:40.239223
2130  2023-11-01 14:12:40.271271
2131  2023-11-01 14:12:40.303265
2132  2023-11-01 14:12:40.336288
2133  2023-11-01 14:12:40.367245
2134  2023-11-01 14:12:40.415174
2135  2023-11-01 14:12:40.447132
2136  2023-11-01 14:12:40.479043
2137  2023-11-01 14:12:40.511915
2138  2023-11-01 14:12:40.543814
2139  2023-11-01 14:12:40.575730
2140  2023-11-01 14:12:40.607644
2141  2023-11-01 14:12:40.639559
2142  2023-11-01 14:12:40.671535
2143  2023-11-01 14:12:40.703525
2144  2023-11-01 14:12:40.735520
2145  2023-11-01 14:12:40.767405
2146  2023-11-01 14:12:40.815306
2147  2023-11-01 14:12:40.847191
2148  2023-11-01 14:12:40.879106
2149  2023-11-01 14:12:40.911116
2150  2023-11-01 14:12:40.943064
2151  2023-11-01 14:12:40.975943
2152  2023-11-01 14:12:41.007858
2153  2023-11-01 14:12:41.039772
2154  2023-11-01 14:12:41.071687
2155  2023-11-01 14:12:41.103636
2156  2023-11-01 14:12:41.135516
2157  2023-11-01 14:12:41.167475
2158  2023-11-01 14:12:41.215406
2159  2023-11-01 14:12:41.247320
2160  2023-11-01 14:12:41.279334
2161  2023-11-01 14:12:41.311413
2162  2023-11-01 14:12:41.343328
2163  2023-11-01 14:12:41.375242
2164  2023-11-01 14:12:41.407201
2165  2023-11-01 14:12:41.439072
2166  2023-11-01 14:12:41.471984
2167  2023-11-01 14:12:41.503899
2168  2023-11-01 14:12:41.535920
2169  2023-11-01 14:12:41.567835
2170  2023-11-01 14:12:41.616739
2171  2023-11-01 14:12:41.647621
2172  2023-11-01 14:12:41.679536
2173  2023-11-01 14:12:41.711450
2174  2023-11-01 14:12:41.743569
2175  2023-11-01 14:12:41.775387
2176  2023-11-01 14:12:41.808338
2177  2023-11-01 14:12:41.840251
2178  2023-11-01 14:12:41.872246
2179  2023-11-01 14:12:41.904166
2180  2023-11-01 14:12:41.937115
2181  2023-11-01 14:12:41.968136
2182  2023-11-01 14:12:42.016970
2183  2023-11-01 14:12:42.048885
2184  2023-11-01 14:12:42.079907
2185  2023-11-01 14:12:42.112884
2186  2023-11-01 14:12:42.144796
2187  2023-11-01 14:12:42.176709
2188  2023-11-01 14:12:42.207595
2189  2023-11-01 14:12:42.240541
2190  2023-11-01 14:12:42.272465
2191  2023-11-01 14:12:42.304371
2192  2023-11-01 14:12:42.336280
2193  2023-11-01 14:12:42.368199
2194  2023-11-01 14:12:42.416070
2195  2023-11-01 14:12:42.448982
2196  2023-11-01 14:12:42.480008
2197  2023-11-01 14:12:42.511908
2198  2023-11-01 14:12:42.543891
2199  2023-11-01 14:12:42.575794
2200  2023-11-01 14:12:42.607799
2201  2023-11-01 14:12:42.639765
2202  2023-11-01 14:12:42.671679
2203  2023-11-01 14:12:42.703592
2204  2023-11-01 14:12:42.735478
2205  2023-11-01 14:12:42.767428
2206  2023-11-01 14:12:42.816291
2207  2023-11-01 14:12:42.848180
2208  2023-11-01 14:12:42.879207
2209  2023-11-01 14:12:42.911223
2210  2023-11-01 14:12:42.943166
2211  2023-11-01 14:12:42.976048
2212  2023-11-01 14:12:43.007002
2213  2023-11-01 14:12:43.038916
2214  2023-11-01 14:12:43.071963
2215  2023-11-01 14:12:43.103946
2216  2023-11-01 14:12:43.135829
2217  2023-11-01 14:12:43.167811
2218  2023-11-01 14:12:43.215826
2219  2023-11-01 14:12:43.247741
2220  2023-11-01 14:12:43.279665
2221  2023-11-01 14:12:43.311574
2222  2023-11-01 14:12:43.343489
2223  2023-11-01 14:12:43.375404
2224  2023-11-01 14:12:43.407323
2225  2023-11-01 14:12:43.439233
2226  2023-11-01 14:12:43.471143
2227  2023-11-01 14:12:43.504038
2228  2023-11-01 14:12:43.535939
2229  2023-11-01 14:12:43.568882
2230  2023-11-01 14:12:43.616766
2231  2023-11-01 14:12:43.648674
2232  2023-11-01 14:12:43.679613
2233  2023-11-01 14:12:43.711502
2234  2023-11-01 14:12:43.744416
2235  2023-11-01 14:12:43.777297
2236  2023-11-01 14:12:43.808210
2237  2023-11-01 14:12:43.839131
2238  2023-11-01 14:12:43.871101
2239  2023-11-01 14:12:43.904989
2240  2023-11-01 14:12:43.935870
2241  2023-11-01 14:12:43.967785
2242  2023-11-01 14:12:44.015698
2243  2023-11-01 14:12:44.047631
2244  2023-11-01 14:12:44.079485
2245  2023-11-01 14:12:44.111433
2246  2023-11-01 14:12:44.144348
2247  2023-11-01 14:12:44.175552
2248  2023-11-01 14:12:44.207607
2249  2023-11-01 14:12:44.239551
2250  2023-11-01 14:12:44.271470
2251  2023-11-01 14:12:44.303351
2252  2023-11-01 14:12:44.336324
2253  2023-11-01 14:12:44.368176
2254  2023-11-01 14:12:44.416097
2255  2023-11-01 14:12:44.447994
2256  2023-11-01 14:12:44.479915
2257  2023-11-01 14:12:44.511827
2258  2023-11-01 14:12:44.543855
2259  2023-11-01 14:12:44.575757
2260  2023-11-01 14:12:44.607666
2261  2023-11-01 14:12:44.639580
2262  2023-11-01 14:12:44.671493
2263  2023-11-01 14:12:44.703411
2264  2023-11-01 14:12:44.735325
2265  2023-11-01 14:12:44.767239
2266  2023-11-01 14:12:44.815113
2267  2023-11-01 14:12:44.847023
2268  2023-11-01 14:12:44.879946
2269  2023-11-01 14:12:44.911853
2270  2023-11-01 14:12:44.943785
2271  2023-11-01 14:12:44.975680
2272  2023-11-01 14:12:45.007596
2273  2023-11-01 14:12:45.039510
2274  2023-11-01 14:12:45.071436
2275  2023-11-01 14:12:45.103355
2276  2023-11-01 14:12:45.135254
2277  2023-11-01 14:12:45.168171
2278  2023-11-01 14:12:45.215038
2279  2023-11-01 14:12:45.246957
2280  2023-11-01 14:12:45.279882
2281  2023-11-01 14:12:45.311786
2282  2023-11-01 14:12:45.343693
2283  2023-11-01 14:12:45.375579
2284  2023-11-01 14:12:45.407526
2285  2023-11-01 14:12:45.439438
2286  2023-11-01 14:12:45.471322
2287  2023-11-01 14:12:45.503440
2288  2023-11-01 14:12:45.535306
2289  2023-11-01 14:12:45.567250
2290  2023-11-01 14:12:45.615089
2291  2023-11-01 14:12:45.647032
2292  2023-11-01 14:12:45.678951
2293  2023-11-01 14:12:45.711858
2294  2023-11-01 14:12:45.743775
2295  2023-11-01 14:12:45.775725
2296  2023-11-01 14:12:45.807737
2297  2023-11-01 14:12:45.839651
2298  2023-11-01 14:12:45.871564
2299  2023-11-01 14:12:45.903484
2300  2023-11-01 14:12:45.935393
2301  2023-11-01 14:12:45.967312
2302  2023-11-01 14:12:46.015183
2303  2023-11-01 14:12:46.048094
2304  2023-11-01 14:12:46.080015
2305  2023-11-01 14:12:46.111989
2306  2023-11-01 14:12:46.143895
2307  2023-11-01 14:12:46.175813
2308  2023-11-01 14:12:46.207727
2309  2023-11-01 14:12:46.239637
2310  2023-11-01 14:12:46.271521
2311  2023-11-01 14:12:46.303436
2312  2023-11-01 14:12:46.335382
2313  2023-11-01 14:12:46.367300
2314  2023-11-01 14:12:46.400179
2315  2023-11-01 14:12:46.448086
2316  2023-11-01 14:12:46.479966
2317  2023-11-01 14:12:46.511925
2318  2023-11-01 14:12:46.543826
2319  2023-11-01 14:12:46.575800
2320  2023-11-01 14:12:46.607844
2321  2023-11-01 14:12:46.639752
2322  2023-11-01 14:12:46.671632
2323  2023-11-01 14:12:46.703578
2324  2023-11-01 14:12:46.735497
2325  2023-11-01 14:12:46.767409
2326  2023-11-01 14:12:46.799330
2327  2023-11-01 14:12:46.847514
2328  2023-11-01 14:12:46.879443
2329  2023-11-01 14:12:46.911354
2330  2023-11-01 14:12:46.943265
2331  2023-11-01 14:12:46.975179
2332  2023-11-01 14:12:47.007091
2333  2023-11-01 14:12:47.039005
2334  2023-11-01 14:12:47.071926
2335  2023-11-01 14:12:47.103837
2336  2023-11-01 14:12:47.135757
2337  2023-11-01 14:12:47.167661
2338  2023-11-01 14:12:47.199577
2339  2023-11-01 14:12:47.247466
2340  2023-11-01 14:12:47.279371
2341  2023-11-01 14:12:47.311280
2342  2023-11-01 14:12:47.343200
2343  2023-11-01 14:12:47.375107
2344  2023-11-01 14:12:47.407020
2345  2023-11-01 14:12:47.439933
2346  2023-11-01 14:12:47.471848
2347  2023-11-01 14:12:47.503729
2348  2023-11-01 14:12:47.535677
2349  2023-11-01 14:12:47.567593
2350  2023-11-01 14:12:47.599509
2351  2023-11-01 14:12:47.647381
2352  2023-11-01 14:12:47.679295
2353  2023-11-01 14:12:47.711209
2354  2023-11-01 14:12:47.743120
2355  2023-11-01 14:12:47.776017
2356  2023-11-01 14:12:47.806955
2357  2023-11-01 14:12:47.839863
2358  2023-11-01 14:12:47.871758
2359  2023-11-01 14:12:47.903695
2360  2023-11-01 14:12:47.935576
2361  2023-11-01 14:12:47.967524
2362  2023-11-01 14:12:47.999440
2363  2023-11-01 14:12:48.047333
2364  2023-11-01 14:12:48.079227
2365  2023-11-01 14:12:48.111136
2366  2023-11-01 14:12:48.143377
2367  2023-11-01 14:12:48.175286
2368  2023-11-01 14:12:48.207286
2369  2023-11-01 14:12:48.239279
2370  2023-11-01 14:12:48.271273
2371  2023-11-01 14:12:48.303230
2372  2023-11-01 14:12:48.335136
2373  2023-11-01 14:12:48.367051
2374  2023-11-01 14:12:48.399057
2375  2023-11-01 14:12:48.447950
2376  2023-11-01 14:12:48.479941
2377  2023-11-01 14:12:48.511860
2378  2023-11-01 14:12:48.543769
2379  2023-11-01 14:12:48.575683
2380  2023-11-01 14:12:48.607596
2381  2023-11-01 14:12:48.639518
2382  2023-11-01 14:12:48.671443
2383  2023-11-01 14:12:48.703344
2384  2023-11-01 14:12:48.735255
2385  2023-11-01 14:12:48.767178
2386  2023-11-01 14:12:48.799086
2387  2023-11-01 14:12:48.846962
2388  2023-11-01 14:12:48.879872
2389  2023-11-01 14:12:48.911786
2390  2023-11-01 14:12:48.943703
2391  2023-11-01 14:12:48.975582
2392  2023-11-01 14:12:49.007527
2393  2023-11-01 14:12:49.039447
2394  2023-11-01 14:12:49.072325
2395  2023-11-01 14:12:49.103241
2396  2023-11-01 14:12:49.136160
2397  2023-11-01 14:12:49.167104
2398  2023-11-01 14:12:49.200038
2399  2023-11-01 14:12:49.247860
2400  2023-11-01 14:12:49.279806
2401  2023-11-01 14:12:49.311716
2402  2023-11-01 14:12:49.343630
2403  2023-11-01 14:12:49.375513
2404  2023-11-01 14:12:49.407476
2405  2023-11-01 14:12:49.439393
2406  2023-11-01 14:12:49.471319
2407  2023-11-01 14:12:49.503208
2408  2023-11-01 14:12:49.535118
2409  2023-11-01 14:12:49.568045
2410  2023-11-01 14:12:49.599952
2411  2023-11-01 14:12:49.647818
2412  2023-11-01 14:12:49.679731
2413  2023-11-01 14:12:49.711647
2414  2023-11-01 14:12:49.743561
2415  2023-11-01 14:12:49.775476
2416  2023-11-01 14:12:49.807390
2417  2023-11-01 14:12:49.839303
2418  2023-11-01 14:12:49.871288
2419  2023-11-01 14:12:49.903326
2420  2023-11-01 14:12:49.936189
2421  2023-11-01 14:12:49.967143
2422  2023-11-01 14:12:49.999167
2423  2023-11-01 14:12:50.047058
2424  2023-11-01 14:12:50.079952
2425  2023-11-01 14:12:50.111879
2426  2023-11-01 14:12:50.143747
2427  2023-11-01 14:12:50.175693
2428  2023-11-01 14:12:50.207616
2429  2023-11-01 14:12:50.239531
2430  2023-11-01 14:12:50.271461
2431  2023-11-01 14:12:50.303369
2432  2023-11-01 14:12:50.335268
2433  2023-11-01 14:12:50.368148
2434  2023-11-01 14:12:50.399098
2435  2023-11-01 14:12:50.447935
2436  2023-11-01 14:12:50.479881
2437  2023-11-01 14:12:50.511795
2438  2023-11-01 14:12:50.543709
2439  2023-11-01 14:12:50.575594
2440  2023-11-01 14:12:50.607508
2441  2023-11-01 14:12:50.639461
2442  2023-11-01 14:12:50.672365
2443  2023-11-01 14:12:50.703280
2444  2023-11-01 14:12:50.736242
2445  2023-11-01 14:12:50.768156
2446  2023-11-01 14:12:50.800073
2447  2023-11-01 14:12:50.847943
2448  2023-11-01 14:12:50.879862
2449  2023-11-01 14:12:50.911842
2450  2023-11-01 14:12:50.943698
2451  2023-11-01 14:12:50.975602
2452  2023-11-01 14:12:51.007516
2453  2023-11-01 14:12:51.039472
2454  2023-11-01 14:12:51.071377
2455  2023-11-01 14:12:51.103764
2456  2023-11-01 14:12:51.135761
2457  2023-11-01 14:12:51.167386
2458  2023-11-01 14:12:51.199339
2459  2023-11-01 14:12:51.247173
2460  2023-11-01 14:12:51.279121
2461  2023-11-01 14:12:51.311041
2462  2023-11-01 14:12:51.343952
2463  2023-11-01 14:12:51.375962
2464  2023-11-01 14:12:51.407879
2465  2023-11-01 14:12:51.439828
2466  2023-11-01 14:12:51.471742
2467  2023-11-01 14:12:51.503655
2468  2023-11-01 14:12:51.535536
2469  2023-11-01 14:12:51.567450
2470  2023-11-01 14:12:51.599402
2471  2023-11-01 14:12:51.648235
2472  2023-11-01 14:12:51.679184
2473  2023-11-01 14:12:51.711098
2474  2023-11-01 14:12:51.743011
2475  2023-11-01 14:12:51.775894
2476  2023-11-01 14:12:51.807841
2477  2023-11-01 14:12:51.839753
2478  2023-11-01 14:12:51.871672
2479  2023-11-01 14:12:51.903561
2480  2023-11-01 14:12:51.935466
2481  2023-11-01 14:12:51.967381
2482  2023-11-01 14:12:51.999325
2483  2023-11-01 14:12:52.047168
2484  2023-11-01 14:12:52.079114
2485  2023-11-01 14:12:52.111043
2486  2023-11-01 14:12:52.143909
2487  2023-11-01 14:12:52.175824
2488  2023-11-01 14:12:52.207738
2489  2023-11-01 14:12:52.239688
2490  2023-11-01 14:12:52.271568
2491  2023-11-01 14:12:52.303509
2492  2023-11-01 14:12:52.335397
2493  2023-11-01 14:12:52.367355
2494  2023-11-01 14:12:52.399280
2495  2023-11-01 14:12:52.447688
2496  2023-11-01 14:12:52.479615
2497  2023-11-01 14:12:52.511572
2498  2023-11-01 14:12:52.543486
2499  2023-11-01 14:12:52.575549
2500  2023-11-01 14:12:52.607447
2501  2023-11-01 14:12:52.639183
2502  2023-11-01 14:12:52.671139
2503  2023-11-01 14:12:52.704010
2504  2023-11-01 14:12:52.735959
2505  2023-11-01 14:12:52.767839
2506  2023-11-01 14:12:52.799754
2507  2023-11-01 14:12:52.847885
2508  2023-11-01 14:12:52.879800
2509  2023-11-01 14:12:52.911715
2510  2023-11-01 14:12:52.943630
2511  2023-11-01 14:12:52.975579
2512  2023-11-01 14:12:53.007475
2513  2023-11-01 14:12:53.039373
2514  2023-11-01 14:12:53.071290
2515  2023-11-01 14:12:53.103238
2516  2023-11-01 14:12:53.135117
2517  2023-11-01 14:12:53.168030
2518  2023-11-01 14:12:53.199944
2519  2023-11-01 14:12:53.247981
2520  2023-11-01 14:12:53.279898
2521  2023-11-01 14:12:53.311849
2522  2023-11-01 14:12:53.343725
2523  2023-11-01 14:12:53.375640
2524  2023-11-01 14:12:53.407592
2525  2023-11-01 14:12:53.439504
2526  2023-11-01 14:12:53.471387
2527  2023-11-01 14:12:53.503299
2528  2023-11-01 14:12:53.535214
2529  2023-11-01 14:12:53.567130
2530  2023-11-01 14:12:53.599043
2531  2023-11-01 14:12:53.647990
2532  2023-11-01 14:12:53.679946
2533  2023-11-01 14:12:53.711044
2534  2023-11-01 14:12:53.743990
2535  2023-11-01 14:12:53.775921
2536  2023-11-01 14:12:53.807786
2537  2023-11-01 14:12:53.839700
2538  2023-11-01 14:12:53.871645
2539  2023-11-01 14:12:53.903570
2540  2023-11-01 14:12:53.935447
2541  2023-11-01 14:12:53.967359
2542  2023-11-01 14:12:53.999274
2543  2023-11-01 14:12:54.047146
2544  2023-11-01 14:12:54.079060
2545  2023-11-01 14:12:54.111011
2546  2023-11-01 14:12:54.143887
2547  2023-11-01 14:12:54.175802
2548  2023-11-01 14:12:54.207716
2549  2023-11-01 14:12:54.239631
2550  2023-11-01 14:12:54.271546
2551  2023-11-01 14:12:54.303461
2552  2023-11-01 14:12:54.335415
2553  2023-11-01 14:12:54.367329
2554  2023-11-01 14:12:54.399244
2555  2023-11-01 14:12:54.447116
2556  2023-11-01 14:12:54.479031
2557  2023-11-01 14:12:54.511943
2558  2023-11-01 14:12:54.543940
2559  2023-11-01 14:12:54.575913
2560  2023-11-01 14:12:54.607820
2561  2023-11-01 14:12:54.639735
2562  2023-11-01 14:12:54.671650
2563  2023-11-01 14:12:54.703564
2564  2023-11-01 14:12:54.735511
2565  2023-11-01 14:12:54.768391
2566  2023-11-01 14:12:54.799308
2567  2023-11-01 14:12:54.847180
2568  2023-11-01 14:12:54.879095
2569  2023-11-01 14:12:54.911009
2570  2023-11-01 14:12:54.943961
2571  2023-11-01 14:12:54.975836
2572  2023-11-01 14:12:55.007864
2573  2023-11-01 14:12:55.039779
2574  2023-11-01 14:12:55.071830
2575  2023-11-01 14:12:55.103753
2576  2023-11-01 14:12:55.135668
2577  2023-11-01 14:12:55.167583
2578  2023-11-01 14:12:55.199533
2579  2023-11-01 14:12:55.247404
2580  2023-11-01 14:12:55.279284
2581  2023-11-01 14:12:55.311199
2582  2023-11-01 14:12:55.343113
2583  2023-11-01 14:12:55.375028
2584  2023-11-01 14:12:55.407940
2585  2023-11-01 14:12:55.439855
2586  2023-11-01 14:12:55.471770
2587  2023-11-01 14:12:55.503684
2588  2023-11-01 14:12:55.535599
2589  2023-11-01 14:12:55.567513
2590  2023-11-01 14:12:55.600426
2591  2023-11-01 14:12:55.647337
2592  2023-11-01 14:12:55.679215
2593  2023-11-01 14:12:55.711129
2594  2023-11-01 14:12:55.744042
2595  2023-11-01 14:12:55.775995
2596  2023-11-01 14:12:55.807871
2597  2023-11-01 14:12:55.839725
2598  2023-11-01 14:12:55.871672
2599  2023-11-01 14:12:55.903555
2600  2023-11-01 14:12:55.935472
2601  2023-11-01 14:12:55.967384
2602  2023-11-01 14:12:55.999298
2603  2023-11-01 14:12:56.047170
2604  2023-11-01 14:12:56.079085
2605  2023-11-01 14:12:56.111997
2606  2023-11-01 14:12:56.144047
2607  2023-11-01 14:12:56.175961
2608  2023-11-01 14:12:56.207917
2609  2023-11-01 14:12:56.239834
2610  2023-11-01 14:12:56.271748
2611  2023-11-01 14:12:56.303709
2612  2023-11-01 14:12:56.335624
2613  2023-11-01 14:12:56.367730
2614  2023-11-01 14:12:56.399699
2615  2023-11-01 14:12:56.447692
2616  2023-11-01 14:12:56.479607
2617  2023-11-01 14:12:56.511490
2618  2023-11-01 14:12:56.543404
2619  2023-11-01 14:12:56.575352
2620  2023-11-01 14:12:56.607265
2621  2023-11-01 14:12:56.639149
2622  2023-11-01 14:12:56.671063
2623  2023-11-01 14:12:56.703975
2624  2023-11-01 14:12:56.735890
2625  2023-11-01 14:12:56.767804
2626  2023-11-01 14:12:56.799720
2627  2023-11-01 14:12:56.847591
2628  2023-11-01 14:12:56.879541
2629  2023-11-01 14:12:56.911420
2630  2023-11-01 14:12:56.943335
2631  2023-11-01 14:12:56.975250
2632  2023-11-01 14:12:57.007164
2633  2023-11-01 14:12:57.039079
2634  2023-11-01 14:12:57.071991
2635  2023-11-01 14:12:57.102974
2636  2023-11-01 14:12:57.135939
2637  2023-11-01 14:12:57.167938
2638  2023-11-01 14:12:57.199944
2639  2023-11-01 14:12:57.247806
2640  2023-11-01 14:12:57.279721
2641  2023-11-01 14:12:57.311635
2642  2023-11-01 14:12:57.343551
2643  2023-11-01 14:12:57.375466
2644  2023-11-01 14:12:57.407412
2645  2023-11-01 14:12:57.439335
2646  2023-11-01 14:12:57.471279
2647  2023-11-01 14:12:57.503197
2648  2023-11-01 14:12:57.536068
2649  2023-11-01 14:12:57.567982
2650  2023-11-01 14:12:57.599960
2651  2023-11-01 14:12:57.647832
2652  2023-11-01 14:12:57.679748
2653  2023-11-01 14:12:57.711661
2654  2023-11-01 14:12:57.743576
2655  2023-11-01 14:12:57.775491
2656  2023-11-01 14:12:57.807406
2657  2023-11-01 14:12:57.839320
2658  2023-11-01 14:12:57.871394
2659  2023-11-01 14:12:57.903358
2660  2023-11-01 14:12:57.935273
2661  2023-11-01 14:12:57.967187
2662  2023-11-01 14:12:57.999102
2663  2023-11-01 14:12:58.047598
2664  2023-11-01 14:12:58.079513
2665  2023-11-01 14:12:58.111427
2666  2023-11-01 14:12:58.143342
2667  2023-11-01 14:12:58.175257
2668  2023-11-01 14:12:58.207171
2669  2023-11-01 14:12:58.240084
2670  2023-11-01 14:12:58.271999
2671  2023-11-01 14:12:58.303913
2672  2023-11-01 14:12:58.335914
2673  2023-11-01 14:12:58.367829
2674  2023-11-01 14:12:58.399744
2675  2023-11-01 14:12:58.447619
2676  2023-11-01 14:12:58.479565
2677  2023-11-01 14:12:58.511459
2678  2023-11-01 14:12:58.543376
2679  2023-11-01 14:12:58.575274
2680  2023-11-01 14:12:58.608271
2681  2023-11-01 14:12:58.639186
2682  2023-11-01 14:12:58.671101
2683  2023-11-01 14:12:58.704075
2684  2023-11-01 14:12:58.734977
2685  2023-11-01 14:12:58.767842
2686  2023-11-01 14:12:58.799757
2687  2023-11-01 14:12:58.847629
2688  2023-11-01 14:12:58.879543
2689  2023-11-01 14:12:58.911493
2690  2023-11-01 14:12:58.943458
2691  2023-11-01 14:12:58.975360
2692  2023-11-01 14:12:59.007242
2693  2023-11-01 14:12:59.039190
2694  2023-11-01 14:12:59.072102
2695  2023-11-01 14:12:59.104017
2696  2023-11-01 14:12:59.135931
2697  2023-11-01 14:12:59.167846
2698  2023-11-01 14:12:59.199761
2699  2023-11-01 14:12:59.247633
2700  2023-11-01 14:12:59.279547
2701  2023-11-01 14:12:59.312494
2702  2023-11-01 14:12:59.343384
2703  2023-11-01 14:12:59.376329
2704  2023-11-01 14:12:59.408390
2705  2023-11-01 14:12:59.440310
2706  2023-11-01 14:12:59.472242
2707  2023-11-01 14:12:59.505153
2708  2023-11-01 14:12:59.536522
2709  2023-11-01 14:12:59.568491
2710  2023-11-01 14:12:59.600405
2711  2023-11-01 14:12:59.648269
2712  2023-11-01 14:12:59.680158
2713  2023-11-01 14:12:59.712246
2714  2023-11-01 14:12:59.745172
2715  2023-11-01 14:12:59.777065
2716  2023-11-01 14:12:59.808980
2717  2023-11-01 14:12:59.840894
2718  2023-11-01 14:12:59.872834
2719  2023-11-01 14:12:59.904739
2720  2023-11-01 14:12:59.936658
2721  2023-11-01 14:12:59.968292
2722  2023-11-01 14:13:00.000278
2723  2023-11-01 14:13:00.048143
2724  2023-11-01 14:13:00.080245
2725  2023-11-01 14:13:00.112130
2726  2023-11-01 14:13:00.145086
2727  2023-11-01 14:13:00.175990
2728  2023-11-01 14:13:00.207922
2729  2023-11-01 14:13:00.240827
2730  2023-11-01 14:13:00.271787
2731  2023-11-01 14:13:00.304721
2732  2023-11-01 14:13:00.335668
2733  2023-11-01 14:13:00.367706
2734  2023-11-01 14:13:00.399589
2735  2023-11-01 14:13:00.447489
2736  2023-11-01 14:13:00.479405
2737  2023-11-01 14:13:00.511886
2738  2023-11-01 14:13:00.543817
2739  2023-11-01 14:13:00.575719
2740  2023-11-01 14:13:00.607598
2741  2023-11-01 14:13:00.639511
2742  2023-11-01 14:13:00.671461
2743  2023-11-01 14:13:00.704377
2744  2023-11-01 14:13:00.735374
2745  2023-11-01 14:13:00.768294
2746  2023-11-01 14:13:00.800156
2747  2023-11-01 14:13:00.847061
2748  2023-11-01 14:13:00.879973
2749  2023-11-01 14:13:00.911893
2750  2023-11-01 14:13:00.943821
2751  2023-11-01 14:13:00.975717
2752  2023-11-01 14:13:01.007635
2753  2023-11-01 14:13:01.039550
2754  2023-11-01 14:13:01.071461
2755  2023-11-01 14:13:01.104385
2756  2023-11-01 14:13:01.136290
2757  2023-11-01 14:13:01.168174
2758  2023-11-01 14:13:01.199144
2759  2023-11-01 14:13:01.247963
2760  2023-11-01 14:13:01.279970
2761  2023-11-01 14:13:01.311845
2762  2023-11-01 14:13:01.343769
2763  2023-11-01 14:13:01.375673
2764  2023-11-01 14:13:01.407588
2765  2023-11-01 14:13:01.440542
2766  2023-11-01 14:13:01.471453
2767  2023-11-01 14:13:01.503382
2768  2023-11-01 14:13:01.535249
2769  2023-11-01 14:13:01.568174
2770  2023-11-01 14:13:01.599113
2771  2023-11-01 14:13:01.648079
2772  2023-11-01 14:13:01.679008
2773  2023-11-01 14:13:01.711890
2774  2023-11-01 14:13:01.744834
2775  2023-11-01 14:13:01.776748
2776  2023-11-01 14:13:01.808666
2777  2023-11-01 14:13:01.839547
2778  2023-11-01 14:13:01.871497
2779  2023-11-01 14:13:01.904375
2780  2023-11-01 14:13:01.936321
2781  2023-11-01 14:13:01.968236
2782  2023-11-01 14:13:01.999175
2783  2023-11-01 14:13:02.048022
2784  2023-11-01 14:13:02.079950
2785  2023-11-01 14:13:02.111854
2786  2023-11-01 14:13:02.143783
2787  2023-11-01 14:13:02.175680
2788  2023-11-01 14:13:02.207564
2789  2023-11-01 14:13:02.239479
2790  2023-11-01 14:13:02.271456
2791  2023-11-01 14:13:02.304340
2792  2023-11-01 14:13:02.336251
2793  2023-11-01 14:13:02.368171
2794  2023-11-01 14:13:02.400083
2795  2023-11-01 14:13:02.447958
2796  2023-11-01 14:13:02.479836
2797  2023-11-01 14:13:02.511751
2798  2023-11-01 14:13:02.543699
2799  2023-11-01 14:13:02.575609
2800  2023-11-01 14:13:02.607527
2801  2023-11-01 14:13:02.639410
2802  2023-11-01 14:13:02.671367
2803  2023-11-01 14:13:02.704267
2804  2023-11-01 14:13:02.735905
2805  2023-11-01 14:13:02.767887
2806  2023-11-01 14:13:02.799729
2807  2023-11-01 14:13:02.847634
2808  2023-11-01 14:13:02.879678
2809  2023-11-01 14:13:02.911472
2810  2023-11-01 14:13:02.944344
2811  2023-11-01 14:13:02.976291
2812  2023-11-01 14:13:03.007213
2813  2023-11-01 14:13:03.039089
2814  2023-11-01 14:13:03.072036
2815  2023-11-01 14:13:03.104105
2816  2023-11-01 14:13:03.135984
2817  2023-11-01 14:13:03.167080
2818  2023-11-01 14:13:03.199102
2819  2023-11-01 14:13:03.247134
2820  2023-11-01 14:13:03.280046
2821  2023-11-01 14:13:03.312021
2822  2023-11-01 14:13:03.343933
2823  2023-11-01 14:13:03.375883
2824  2023-11-01 14:13:03.407870
2825  2023-11-01 14:13:03.439782
2826  2023-11-01 14:13:03.471701
2827  2023-11-01 14:13:03.503580
2828  2023-11-01 14:13:03.535552
2829  2023-11-01 14:13:03.567507
2830  2023-11-01 14:13:03.599382
2831  2023-11-01 14:13:03.648251
2832  2023-11-01 14:13:03.679215
2833  2023-11-01 14:13:03.711119
2834  2023-11-01 14:13:03.744047
2835  2023-11-01 14:13:03.775080
2836  2023-11-01 14:13:03.806995
2837  2023-11-01 14:13:03.839907
2838  2023-11-01 14:13:03.871806
2839  2023-11-01 14:13:03.903719
2840  2023-11-01 14:13:03.935636
2841  2023-11-01 14:13:03.967552
2842  2023-11-01 14:13:03.999470
2843  2023-11-01 14:13:04.047335
2844  2023-11-01 14:13:04.079251
2845  2023-11-01 14:13:04.111169
2846  2023-11-01 14:13:04.143046
2847  2023-11-01 14:13:04.174998
2848  2023-11-01 14:13:04.207910
2849  2023-11-01 14:13:04.239819
2850  2023-11-01 14:13:04.271702
2851  2023-11-01 14:13:04.303617
2852  2023-11-01 14:13:04.335562
2853  2023-11-01 14:13:04.367476
2854  2023-11-01 14:13:04.399392
2855  2023-11-01 14:13:04.447275
2856  2023-11-01 14:13:04.480178
2857  2023-11-01 14:13:04.512059
2858  2023-11-01 14:13:04.543008
2859  2023-11-01 14:13:04.575921
2860  2023-11-01 14:13:04.607841
2861  2023-11-01 14:13:04.639752
2862  2023-11-01 14:13:04.671633
2863  2023-11-01 14:13:04.703547
2864  2023-11-01 14:13:04.736461
2865  2023-11-01 14:13:04.767408
2866  2023-11-01 14:13:04.799335
2867  2023-11-01 14:13:04.847197
2868  2023-11-01 14:13:04.879254
2869  2023-11-01 14:13:04.911868
2870  2023-11-01 14:13:04.943756
2871  2023-11-01 14:13:04.975771
2872  2023-11-01 14:13:05.007688
2873  2023-11-01 14:13:05.039605
2874  2023-11-01 14:13:05.071515
2875  2023-11-01 14:13:05.103439
2876  2023-11-01 14:13:05.135422
2877  2023-11-01 14:13:05.167336
2878  2023-11-01 14:13:05.199253
2879  2023-11-01 14:13:05.247122
2880  2023-11-01 14:13:05.280045
2881  2023-11-01 14:13:05.311914
2882  2023-11-01 14:13:05.343864
2883  2023-11-01 14:13:05.375777
2884  2023-11-01 14:13:05.407688
2885  2023-11-01 14:13:05.439606
2886  2023-11-01 14:13:05.471523
2887  2023-11-01 14:13:05.503407
2888  2023-11-01 14:13:05.535325
2889  2023-11-01 14:13:05.567273
2890  2023-11-01 14:13:05.599181
2891  2023-11-01 14:13:05.647053
2892  2023-11-01 14:13:05.678968
2893  2023-11-01 14:13:05.711878
2894  2023-11-01 14:13:05.743795
2895  2023-11-01 14:13:05.775674
2896  2023-11-01 14:13:05.807622
2897  2023-11-01 14:13:05.839537
2898  2023-11-01 14:13:05.871452
2899  2023-11-01 14:13:05.903365
2900  2023-11-01 14:13:05.936258
2901  2023-11-01 14:13:05.967199
2902  2023-11-01 14:13:05.999136
2903  2023-11-01 14:13:06.046984
2904  2023-11-01 14:13:06.079896
2905  2023-11-01 14:13:06.111785
2906  2023-11-01 14:13:06.143693
2907  2023-11-01 14:13:06.175605
2908  2023-11-01 14:13:06.207551
2909  2023-11-01 14:13:06.239468
2910  2023-11-01 14:13:06.271352
2911  2023-11-01 14:13:06.303264
2912  2023-11-01 14:13:06.335178
2913  2023-11-01 14:13:06.368133
2914  2023-11-01 14:13:06.400039
2915  2023-11-01 14:13:06.447894
2916  2023-11-01 14:13:06.479823
2917  2023-11-01 14:13:06.511738
2918  2023-11-01 14:13:06.543623
2919  2023-11-01 14:13:06.575537
2920  2023-11-01 14:13:06.607452
2921  2023-11-01 14:13:06.639422
2922  2023-11-01 14:13:06.671315
2923  2023-11-01 14:13:06.703225
2924  2023-11-01 14:13:06.735143
2925  2023-11-01 14:13:06.767072
2926  2023-11-01 14:13:06.799969
2927  2023-11-01 14:13:06.847840
2928  2023-11-01 14:13:06.879757
2929  2023-11-01 14:13:06.911675
2930  2023-11-01 14:13:06.943585
2931  2023-11-01 14:13:06.975467
2932  2023-11-01 14:13:07.007421
2933  2023-11-01 14:13:07.039338
2934  2023-11-01 14:13:07.071251
2935  2023-11-01 14:13:07.103125
2936  2023-11-01 14:13:07.136038
2937  2023-11-01 14:13:07.166988
2938  2023-11-01 14:13:07.199901
2939  2023-11-01 14:13:07.247777
2940  2023-11-01 14:13:07.279685
2941  2023-11-01 14:13:07.311599
2942  2023-11-01 14:13:07.343483
2943  2023-11-01 14:13:07.375461
2944  2023-11-01 14:13:07.407344
2945  2023-11-01 14:13:07.440225
2946  2023-11-01 14:13:07.471143
2947  2023-11-01 14:13:07.503057
2948  2023-11-01 14:13:07.535999
2949  2023-11-01 14:13:07.567885
2950  2023-11-01 14:13:07.599831
2951  2023-11-01 14:13:07.647670
2952  2023-11-01 14:13:07.679631
2953  2023-11-01 14:13:07.711533
2954  2023-11-01 14:13:07.743452
2955  2023-11-01 14:13:07.775360
2956  2023-11-01 14:13:07.807279
2957  2023-11-01 14:13:07.839188
2958  2023-11-01 14:13:07.871112
2959  2023-11-01 14:13:07.904014
2960  2023-11-01 14:13:07.935899
2961  2023-11-01 14:13:07.967952
2962  2023-11-01 14:13:07.999907
2963  2023-11-01 14:13:08.047767
2964  2023-11-01 14:13:08.079756
2965  2023-11-01 14:13:08.111673
2966  2023-11-01 14:13:08.143589
2967  2023-11-01 14:13:08.175468
2968  2023-11-01 14:13:08.207383
2969  2023-11-01 14:13:08.239351
2970  2023-11-01 14:13:08.271245
2971  2023-11-01 14:13:08.303176
2972  2023-11-01 14:13:08.335072
2973  2023-11-01 14:13:08.367952
2974  2023-11-01 14:13:08.399928
2975  2023-11-01 14:13:08.447739
2976  2023-11-01 14:13:08.479654
2977  2023-11-01 14:13:08.511598
2978  2023-11-01 14:13:08.543514
2979  2023-11-01 14:13:08.575429
2980  2023-11-01 14:13:08.607350
2981  2023-11-01 14:13:08.639259
2982  2023-11-01 14:13:08.671192
2983  2023-11-01 14:13:08.703091
2984  2023-11-01 14:13:08.736005
2985  2023-11-01 14:13:08.767883
2986  2023-11-01 14:13:08.799861
2987  2023-11-01 14:13:08.847669
2988  2023-11-01 14:13:08.879633
2989  2023-11-01 14:13:08.911531
2990  2023-11-01 14:13:08.943448
2991  2023-11-01 14:13:08.975328
2992  2023-11-01 14:13:09.007243
2993  2023-11-01 14:13:09.039159
2994  2023-11-01 14:13:09.071074
2995  2023-11-01 14:13:09.103987
2996  2023-11-01 14:13:09.135900
2997  2023-11-01 14:13:09.167831
2998  2023-11-01 14:13:09.199730
2999  2023-11-01 14:13:09.247601
3000  2023-11-01 14:13:09.279574
3001  2023-11-01 14:13:09.311496
3002  2023-11-01 14:13:09.343378
3003  2023-11-01 14:13:09.375419
3004  2023-11-01 14:13:09.407375
3005  2023-11-01 14:13:09.439294
3006  2023-11-01 14:13:09.471369
3007  2023-11-01 14:13:09.503288
3008  2023-11-01 14:13:09.536161
3009  2023-11-01 14:13:09.567078
3010  2023-11-01 14:13:09.599106
3011  2023-11-01 14:13:09.647029
3012  2023-11-01 14:13:09.679027
3013  2023-11-01 14:13:09.711950
3014  2023-11-01 14:13:09.743851
3015  2023-11-01 14:13:09.775734
3016  2023-11-01 14:13:09.807648
3017  2023-11-01 14:13:09.839564
3018  2023-11-01 14:13:09.871512
3019  2023-11-01 14:13:09.904391
3020  2023-11-01 14:13:09.936306
3021  2023-11-01 14:13:09.967222
3022  2023-11-01 14:13:09.999170
3023  2023-11-01 14:13:10.047008
3024  2023-11-01 14:13:10.079921
3025  2023-11-01 14:13:10.111836
3026  2023-11-01 14:13:10.143815
3027  2023-11-01 14:13:10.175778
3028  2023-11-01 14:13:10.207692
3029  2023-11-01 14:13:10.239608
3030  2023-11-01 14:13:10.271582
3031  2023-11-01 14:13:10.303492
3032  2023-11-01 14:13:10.335384
3033  2023-11-01 14:13:10.367298
3034  2023-11-01 14:13:10.399301
3035  2023-11-01 14:13:10.447180
3036  2023-11-01 14:13:10.480108
3037  2023-11-01 14:13:10.511966
3038  2023-11-01 14:13:10.543922
3039  2023-11-01 14:13:10.575826
3040  2023-11-01 14:13:10.607744
3041  2023-11-01 14:13:10.639625
3042  2023-11-01 14:13:10.671540
3043  2023-11-01 14:13:10.703519
3044  2023-11-01 14:13:10.735369
3045  2023-11-01 14:13:10.767283
3046  2023-11-01 14:13:10.799198
3047  2023-11-01 14:13:10.847070
3048  2023-11-01 14:13:10.879982
3049  2023-11-01 14:13:10.911897
3050  2023-11-01 14:13:10.943860
3051  2023-11-01 14:13:10.975727
3052  2023-11-01 14:13:11.007641
3053  2023-11-01 14:13:11.039555
3054  2023-11-01 14:13:11.072469
3055  2023-11-01 14:13:11.103449
3056  2023-11-01 14:13:11.135300
3057  2023-11-01 14:13:11.167214
3058  2023-11-01 14:13:11.199129
3059  2023-11-01 14:13:11.247001
3060  2023-11-01 14:13:11.279913
3061  2023-11-01 14:13:11.311873
3062  2023-11-01 14:13:11.343742
3063  2023-11-01 14:13:11.375669
3064  2023-11-01 14:13:11.407574
3065  2023-11-01 14:13:11.439528
3066  2023-11-01 14:13:11.471401
3067  2023-11-01 14:13:11.503316
3068  2023-11-01 14:13:11.535256
3069  2023-11-01 14:13:11.567297
3070  2023-11-01 14:13:11.599174
3071  2023-11-01 14:13:11.647078
3072  2023-11-01 14:13:11.679959
3073  2023-11-01 14:13:11.711873
3074  2023-11-01 14:13:11.743830
3075  2023-11-01 14:13:11.775743
3076  2023-11-01 14:13:11.807617
3077  2023-11-01 14:13:11.839021
3078  2023-11-01 14:13:11.871968
3079  2023-11-01 14:13:11.903884
3080  2023-11-01 14:13:11.935763
3081  2023-11-01 14:13:11.967677
3082  2023-11-01 14:13:11.999592
3083  2023-11-01 14:13:12.047464
3084  2023-11-01 14:13:12.079383
3085  2023-11-01 14:13:12.111294
3086  2023-11-01 14:13:12.143331
3087  2023-11-01 14:13:12.175246
3088  2023-11-01 14:13:12.207160
3089  2023-11-01 14:13:12.239238
3090  2023-11-01 14:13:12.271107
3091  2023-11-01 14:13:12.304019
3092  2023-11-01 14:13:12.335933
3093  2023-11-01 14:13:12.367848
3094  2023-11-01 14:13:12.399763
3095  2023-11-01 14:13:12.447635
3096  2023-11-01 14:13:12.479549
3097  2023-11-01 14:13:12.511466
3098  2023-11-01 14:13:12.543379
3099  2023-11-01 14:13:12.575308
3100  2023-11-01 14:13:12.608207
3101  2023-11-01 14:13:12.639123
3102  2023-11-01 14:13:12.671037
3103  2023-11-01 14:13:12.703949
3104  2023-11-01 14:13:12.735901
3105  2023-11-01 14:13:12.767779
3106  2023-11-01 14:13:12.799693
3107  2023-11-01 14:13:12.847565
3108  2023-11-01 14:13:12.879480
3109  2023-11-01 14:13:12.911395
3110  2023-11-01 14:13:12.943341
3111  2023-11-01 14:13:12.975224
3112  2023-11-01 14:13:13.007139
3113  2023-11-01 14:13:13.039054
3114  2023-11-01 14:13:13.072006
3115  2023-11-01 14:13:13.103975
3116  2023-11-01 14:13:13.135852
3117  2023-11-01 14:13:13.167767
3118  2023-11-01 14:13:13.199713
3119  2023-11-01 14:13:13.247587
3120  2023-11-01 14:13:13.279468
3121  2023-11-01 14:13:13.311383
3122  2023-11-01 14:13:13.343297
3123  2023-11-01 14:13:13.375212
3124  2023-11-01 14:13:13.407175
3125  2023-11-01 14:13:13.439379
3126  2023-11-01 14:13:13.471284
3127  2023-11-01 14:13:13.503199
3128  2023-11-01 14:13:13.535226
3129  2023-11-01 14:13:13.567140
3130  2023-11-01 14:13:13.599055
3131  2023-11-01 14:13:13.647925
3132  2023-11-01 14:13:13.679839
3133  2023-11-01 14:13:13.711754
3134  2023-11-01 14:13:13.743668
3135  2023-11-01 14:13:13.775584
3136  2023-11-01 14:13:13.807498
3137  2023-11-01 14:13:13.839412
3138  2023-11-01 14:13:13.871327
3139  2023-11-01 14:13:13.903242
3140  2023-11-01 14:13:13.936154
3141  2023-11-01 14:13:13.967071
3142  2023-11-01 14:13:13.999983
3143  2023-11-01 14:13:14.047855
3144  2023-11-01 14:13:14.079770
3145  2023-11-01 14:13:14.111687
3146  2023-11-01 14:13:14.143634
3147  2023-11-01 14:13:14.175516
3148  2023-11-01 14:13:14.207430
3149  2023-11-01 14:13:14.239383
3150  2023-11-01 14:13:14.271292
3151  2023-11-01 14:13:14.304172
3152  2023-11-01 14:13:14.336086
3153  2023-11-01 14:13:14.367042
3154  2023-11-01 14:13:14.399080
3155  2023-11-01 14:13:14.447962
3156  2023-11-01 14:13:14.479861
3157  2023-11-01 14:13:14.511736
3158  2023-11-01 14:13:14.543651
3159  2023-11-01 14:13:14.575607
3160  2023-11-01 14:13:14.607522
3161  2023-11-01 14:13:14.639398
3162  2023-11-01 14:13:14.671319
3163  2023-11-01 14:13:14.703257
3164  2023-11-01 14:13:14.735186
3165  2023-11-01 14:13:14.768059
3166  2023-11-01 14:13:14.799966
3167  2023-11-01 14:13:14.847837
3168  2023-11-01 14:13:14.879725
3169  2023-11-01 14:13:14.911673
3170  2023-11-01 14:13:14.943587
3171  2023-11-01 14:13:14.975515
3172  2023-11-01 14:13:15.007424
3173  2023-11-01 14:13:15.039331
3174  2023-11-01 14:13:15.071275
3175  2023-11-01 14:13:15.103194
3176  2023-11-01 14:13:15.136087
3177  2023-11-01 14:13:15.168002
3178  2023-11-01 14:13:15.199961
3179  2023-11-01 14:13:15.247774
3180  2023-11-01 14:13:15.279721
3181  2023-11-01 14:13:15.311603
3182  2023-11-01 14:13:15.343518
3183  2023-11-01 14:13:15.375433
3184  2023-11-01 14:13:15.407382
3185  2023-11-01 14:13:15.439262
3186  2023-11-01 14:13:15.471254
3187  2023-11-01 14:13:15.503182
3188  2023-11-01 14:13:15.535137
3189  2023-11-01 14:13:15.568009
3190  2023-11-01 14:13:15.599933
3191  2023-11-01 14:13:15.647795
3192  2023-11-01 14:13:15.679710
3193  2023-11-01 14:13:15.711624
3194  2023-11-01 14:13:15.743539
3195  2023-11-01 14:13:15.775454
3196  2023-11-01 14:13:15.807368
3197  2023-11-01 14:13:15.839283
3198  2023-11-01 14:13:15.871198
3199  2023-11-01 14:13:15.903124
3200  2023-11-01 14:13:15.935027
3201  2023-11-01 14:13:15.966942
3202  2023-11-01 14:13:15.999896
3203  2023-11-01 14:13:16.047846
3204  2023-11-01 14:13:16.079771
3205  2023-11-01 14:13:16.111676
3206  2023-11-01 14:13:16.143590
3207  2023-11-01 14:13:16.175505
3208  2023-11-01 14:13:16.207334
3209  2023-11-01 14:13:16.239246
3210  2023-11-01 14:13:16.271208
3211  2023-11-01 14:13:16.304120
3212  2023-11-01 14:13:16.336035
3213  2023-11-01 14:13:16.367949
3214  2023-11-01 14:13:16.399866
3215  2023-11-01 14:13:16.447770
3216  2023-11-01 14:13:16.479661
3217  2023-11-01 14:13:16.511565
3218  2023-11-01 14:13:16.543480
3219  2023-11-01 14:13:16.575428
3220  2023-11-01 14:13:16.607353
3221  2023-11-01 14:13:16.639224
3222  2023-11-01 14:13:16.671138
3223  2023-11-01 14:13:16.703053
3224  2023-11-01 14:13:16.736001
3225  2023-11-01 14:13:16.767880
3226  2023-11-01 14:13:16.799794
3227  2023-11-01 14:13:16.847666
3228  2023-11-01 14:13:16.879581
3229  2023-11-01 14:13:16.911554
3230  2023-11-01 14:13:16.943446
3231  2023-11-01 14:13:16.975325
3232  2023-11-01 14:13:17.007346
3233  2023-11-01 14:13:17.039250
3234  2023-11-01 14:13:17.071223
3235  2023-11-01 14:13:17.103105
3236  2023-11-01 14:13:17.136017
3237  2023-11-01 14:13:17.167931
3238  2023-11-01 14:13:17.199879
3239  2023-11-01 14:13:17.247718
3240  2023-11-01 14:13:17.279633
3241  2023-11-01 14:13:17.311548
3242  2023-11-01 14:13:17.343462
3243  2023-11-01 14:13:17.377405
3244  2023-11-01 14:13:17.408495
3245  2023-11-01 14:13:17.440413
3246  2023-11-01 14:13:17.473393
3247  2023-11-01 14:13:17.505311
3248  2023-11-01 14:13:17.537222
3249  2023-11-01 14:13:17.569131
3250  2023-11-01 14:13:17.601021
3251  2023-11-01 14:13:17.648923
3252  2023-11-01 14:13:17.680843
3253  2023-11-01 14:13:17.712821
3254  2023-11-01 14:13:17.744785
3255  2023-11-01 14:13:17.776698
3256  2023-11-01 14:13:17.808611
3257  2023-11-01 14:13:17.840526
3258  2023-11-01 14:13:17.872441
3259  2023-11-01 14:13:17.904360
3260  2023-11-01 14:13:17.937263
3261  2023-11-01 14:13:17.968187
3262  2023-11-01 14:13:18.000104
3263  2023-11-01 14:13:18.048970
3264  2023-11-01 14:13:18.080884
3265  2023-11-01 14:13:18.112807
3266  2023-11-01 14:13:18.144715
3267  2023-11-01 14:13:18.176633
3268  2023-11-01 14:13:18.208542
3269  2023-11-01 14:13:18.240458
3270  2023-11-01 14:13:18.272373
3271  2023-11-01 14:13:18.304287
3272  2023-11-01 14:13:18.336171
3273  2023-11-01 14:13:18.369112
3274  2023-11-01 14:13:18.401041
3275  2023-11-01 14:13:18.447908
3276  2023-11-01 14:13:18.480825
3277  2023-11-01 14:13:18.511745
3278  2023-11-01 14:13:18.544659
3279  2023-11-01 14:13:18.576584
3280  2023-11-01 14:13:18.608619
3281  2023-11-01 14:13:18.640501
3282  2023-11-01 14:13:18.672450
3283  2023-11-01 14:13:18.704375
3284  2023-11-01 14:13:18.736380
3285  2023-11-01 14:13:18.768297
3286  2023-11-01 14:13:18.799615
3287  2023-11-01 14:13:18.847487
3288  2023-11-01 14:13:18.879411
3289  2023-11-01 14:13:18.912324
3290  2023-11-01 14:13:18.944236
3291  2023-11-01 14:13:18.976148
3292  2023-11-01 14:13:19.008029
3293  2023-11-01 14:13:19.039943
3294  2023-11-01 14:13:19.071890
3295  2023-11-01 14:13:19.103804
3296  2023-11-01 14:13:19.135719
3297  2023-11-01 14:13:19.167639
3298  2023-11-01 14:13:19.199549
3299  2023-11-01 14:13:19.247433
3300  2023-11-01 14:13:19.279334
3301  2023-11-01 14:13:19.311248
3302  2023-11-01 14:13:19.343162
3303  2023-11-01 14:13:19.375069
3304  2023-11-01 14:13:19.407086
3305  2023-11-01 14:13:19.440056
3306  2023-11-01 14:13:19.471010
3307  2023-11-01 14:13:19.503927
3308  2023-11-01 14:13:19.535833
3309  2023-11-01 14:13:19.567731
3310  2023-11-01 14:13:19.599668
3311  2023-11-01 14:13:19.647534
3312  2023-11-01 14:13:19.679449
3313  2023-11-01 14:13:19.711398
3314  2023-11-01 14:13:19.743276
3315  2023-11-01 14:13:19.776221
3316  2023-11-01 14:13:19.808092
3317  2023-11-01 14:13:19.839987
3318  2023-11-01 14:13:19.871912
3319  2023-11-01 14:13:19.903817
3320  2023-11-01 14:13:19.935813
3321  2023-11-01 14:13:19.968914
3322  2023-11-01 14:13:19.999826
3323  2023-11-01 14:13:20.048706
3324  2023-11-01 14:13:20.079619
3325  2023-11-01 14:13:20.111502
3326  2023-11-01 14:13:20.144447
3327  2023-11-01 14:13:20.177358
3328  2023-11-01 14:13:20.208275
3329  2023-11-01 14:13:20.239190
3330  2023-11-01 14:13:20.271117
3331  2023-11-01 14:13:20.305096
3332  2023-11-01 14:13:20.337014
3333  2023-11-01 14:13:20.368923
3334  2023-11-01 14:13:20.399966
3335  2023-11-01 14:13:20.448840
3336  2023-11-01 14:13:20.479757
3337  2023-11-01 14:13:20.511683
3338  2023-11-01 14:13:20.544583
3339  2023-11-01 14:13:20.576620
3340  2023-11-01 14:13:20.608547
3341  2023-11-01 14:13:20.639449
3342  2023-11-01 14:13:20.671329
3343  2023-11-01 14:13:20.704274
3344  2023-11-01 14:13:20.736198
3345  2023-11-01 14:13:20.768237
3346  2023-11-01 14:13:20.799152
3347  2023-11-01 14:13:20.848124
3348  2023-11-01 14:13:20.879006
3349  2023-11-01 14:13:20.911969
3350  2023-11-01 14:13:20.943862
3351  2023-11-01 14:13:20.975910
3352  2023-11-01 14:13:21.007825
3353  2023-11-01 14:13:21.039739
3354  2023-11-01 14:13:21.071661
3355  2023-11-01 14:13:21.104590
3356  2023-11-01 14:13:21.136513
3357  2023-11-01 14:13:21.168403
3358  2023-11-01 14:13:21.199316
3359  2023-11-01 14:13:21.248154
3360  2023-11-01 14:13:21.280098
3361  2023-11-01 14:13:21.312034
3362  2023-11-01 14:13:21.343972
3363  2023-11-01 14:13:21.376001
3364  2023-11-01 14:13:21.408079
3365  2023-11-01 14:13:21.439985
3366  2023-11-01 14:13:21.471867
3367  2023-11-01 14:13:21.503813
3368  2023-11-01 14:13:21.536163
3369  2023-11-01 14:13:21.569084
3370  2023-11-01 14:13:21.598995
3371  2023-11-01 14:13:21.648866
3372  2023-11-01 14:13:21.679817
3373  2023-11-01 14:13:21.711744
3374  2023-11-01 14:13:21.743631
3375  2023-11-01 14:13:21.775549
3376  2023-11-01 14:13:21.807543
3377  2023-11-01 14:13:21.839458
3378  2023-11-01 14:13:21.871374
3379  2023-11-01 14:13:21.903292
3380  2023-11-01 14:13:21.935204
3381  2023-11-01 14:13:21.967232
3382  2023-11-01 14:13:21.999147
3383  2023-11-01 14:13:22.047023
3384  2023-11-01 14:13:22.079934
3385  2023-11-01 14:13:22.111814
3386  2023-11-01 14:13:22.143762
3387  2023-11-01 14:13:22.175678
3388  2023-11-01 14:13:22.207600
3389  2023-11-01 14:13:22.240392
3390  2023-11-01 14:13:22.272358
3391  2023-11-01 14:13:22.303326
3392  2023-11-01 14:13:22.335307
3393  2023-11-01 14:13:22.367230
3394  2023-11-01 14:13:22.400153
3395  2023-11-01 14:13:22.448018
3396  2023-11-01 14:13:22.479898
3397  2023-11-01 14:13:22.511837
3398  2023-11-01 14:13:22.543753
3399  2023-11-01 14:13:22.575665
3400  2023-11-01 14:13:22.607581
3401  2023-11-01 14:13:22.639530
3402  2023-11-01 14:13:22.671433
3403  2023-11-01 14:13:22.703292
3404  2023-11-01 14:13:22.735270
3405  2023-11-01 14:13:22.767176
3406  2023-11-01 14:13:22.799130
3407  2023-11-01 14:13:22.847069
3408  2023-11-01 14:13:22.879970
3409  2023-11-01 14:13:22.911888
3410  2023-11-01 14:13:22.943897
3411  2023-11-01 14:13:22.975812
3412  2023-11-01 14:13:23.007726
3413  2023-11-01 14:13:23.039643
3414  2023-11-01 14:13:23.071525
3415  2023-11-01 14:13:23.103478
3416  2023-11-01 14:13:23.135385
3417  2023-11-01 14:13:23.167300
3418  2023-11-01 14:13:23.199214
3419  2023-11-01 14:13:23.247086
3420  2023-11-01 14:13:23.279001
3421  2023-11-01 14:13:23.311927
3422  2023-11-01 14:13:23.343828
3423  2023-11-01 14:13:23.375746
3424  2023-11-01 14:13:23.407659
3425  2023-11-01 14:13:23.439571
3426  2023-11-01 14:13:23.471486
3427  2023-11-01 14:13:23.503409
3428  2023-11-01 14:13:23.535320
3429  2023-11-01 14:13:23.567234
3430  2023-11-01 14:13:23.599143
3431  2023-11-01 14:13:23.648096
3432  2023-11-01 14:13:23.679964
3433  2023-11-01 14:13:23.711879
3434  2023-11-01 14:13:23.743824
3435  2023-11-01 14:13:23.775709
3436  2023-11-01 14:13:23.807623
3437  2023-11-01 14:13:23.839537
3438  2023-11-01 14:13:23.871570
3439  2023-11-01 14:13:23.903490
3440  2023-11-01 14:13:23.935367
3441  2023-11-01 14:13:23.967323
3442  2023-11-01 14:13:23.999238
3443  2023-11-01 14:13:24.047102
3444  2023-11-01 14:13:24.080017
3445  2023-11-01 14:13:24.111864
3446  2023-11-01 14:13:24.143812
3447  2023-11-01 14:13:24.175726
3448  2023-11-01 14:13:24.207676
3449  2023-11-01 14:13:24.239589
3450  2023-11-01 14:13:24.271505
3451  2023-11-01 14:13:24.303419
3452  2023-11-01 14:13:24.335342
3453  2023-11-01 14:13:24.367247
3454  2023-11-01 14:13:24.399166
3455  2023-11-01 14:13:24.448040
3456  2023-11-01 14:13:24.479962
3457  2023-11-01 14:13:24.511861
3458  2023-11-01 14:13:24.543742
3459  2023-11-01 14:13:24.575692
3460  2023-11-01 14:13:24.607609
3461  2023-11-01 14:13:24.639517
3462  2023-11-01 14:13:24.671448
3463  2023-11-01 14:13:24.703348
3464  2023-11-01 14:13:24.735270
3465  2023-11-01 14:13:24.767145
3466  2023-11-01 14:13:24.799094
3467  2023-11-01 14:13:24.847960
3468  2023-11-01 14:13:24.879878
3469  2023-11-01 14:13:24.911792
3470  2023-11-01 14:13:24.943707
3471  2023-11-01 14:13:24.975588
3472  2023-11-01 14:13:25.007536
3473  2023-11-01 14:13:25.039458
3474  2023-11-01 14:13:25.071383
3475  2023-11-01 14:13:25.103282
3476  2023-11-01 14:13:25.135193
3477  2023-11-01 14:13:25.167080
3478  2023-11-01 14:13:25.199022
3479  2023-11-01 14:13:25.247895
3480  2023-11-01 14:13:25.279787
3481  2023-11-01 14:13:25.311692
3482  2023-11-01 14:13:25.343637
3483  2023-11-01 14:13:25.375519
3484  2023-11-01 14:13:25.407433
3485  2023-11-01 14:13:25.439348
3486  2023-11-01 14:13:25.471263
3487  2023-11-01 14:13:25.503226
3488  2023-11-01 14:13:25.535092
3489  2023-11-01 14:13:25.568007
3490  2023-11-01 14:13:25.599964
3491  2023-11-01 14:13:25.647826
3492  2023-11-01 14:13:25.679736
3493  2023-11-01 14:13:25.711653
3494  2023-11-01 14:13:25.743567
3495  2023-11-01 14:13:25.775452
3496  2023-11-01 14:13:25.807395
3497  2023-11-01 14:13:25.839322
3498  2023-11-01 14:13:25.871230
3499  2023-11-01 14:13:25.903128
3500  2023-11-01 14:13:25.935073
3501  2023-11-01 14:13:25.967967
3502  2023-11-01 14:13:25.999883
3503  2023-11-01 14:13:26.047755
3504  2023-11-01 14:13:26.079668
3505  2023-11-01 14:13:26.111589
3506  2023-11-01 14:13:26.143502
3507  2023-11-01 14:13:26.175380
3508  2023-11-01 14:13:26.207477
3509  2023-11-01 14:13:26.239381
3510  2023-11-01 14:13:26.271295
3511  2023-11-01 14:13:26.303210
3512  2023-11-01 14:13:26.335125
3513  2023-11-01 14:13:26.368040
3514  2023-11-01 14:13:26.399952
3515  2023-11-01 14:13:26.447794
3516  2023-11-01 14:13:26.479741
3517  2023-11-01 14:13:26.511761
3518  2023-11-01 14:13:26.543680
3519  2023-11-01 14:13:26.575671
3520  2023-11-01 14:13:26.607586
3521  2023-11-01 14:13:26.639531
3522  2023-11-01 14:13:26.671449
3523  2023-11-01 14:13:26.703362
3524  2023-11-01 14:13:26.735244
3525  2023-11-01 14:13:26.767196
3526  2023-11-01 14:13:26.800128
3527  2023-11-01 14:13:26.847949
3528  2023-11-01 14:13:26.880028
3529  2023-11-01 14:13:26.911948
3530  2023-11-01 14:13:26.943854
3531  2023-11-01 14:13:26.975736
3532  2023-11-01 14:13:27.007651
3533  2023-11-01 14:13:27.039598
3534  2023-11-01 14:13:27.071518
3535  2023-11-01 14:13:27.103465
3536  2023-11-01 14:13:27.135310
3537  2023-11-01 14:13:27.167225
3538  2023-11-01 14:13:27.199177
3539  2023-11-01 14:13:27.248009
3540  2023-11-01 14:13:27.279958
3541  2023-11-01 14:13:27.311879
3542  2023-11-01 14:13:27.343788
3543  2023-11-01 14:13:27.375667
3544  2023-11-01 14:13:27.407583
3545  2023-11-01 14:13:27.439524
3546  2023-11-01 14:13:27.471452
3547  2023-11-01 14:13:27.503360
3548  2023-11-01 14:13:27.535275
3549  2023-11-01 14:13:27.567187
3550  2023-11-01 14:13:27.599101
3551  2023-11-01 14:13:27.647939
3552  2023-11-01 14:13:27.679889
3553  2023-11-01 14:13:27.711805
3554  2023-11-01 14:13:27.743684
3555  2023-11-01 14:13:27.775598
3556  2023-11-01 14:13:27.807518
3557  2023-11-01 14:13:27.839493
3558  2023-11-01 14:13:27.871385
3559  2023-11-01 14:13:27.903355
3560  2023-11-01 14:13:27.935237
3561  2023-11-01 14:13:27.967252
