
1  2023-11-22 13:54:32.993614
2  2023-11-22 13:54:33.026526
3  2023-11-22 13:54:33.058479
4  2023-11-22 13:54:33.090394
5  2023-11-22 13:54:33.122307
6  2023-11-22 13:54:33.154184
7  2023-11-22 13:54:33.186099
8  2023-11-22 13:54:33.218018
9  2023-11-22 13:54:33.249928
10  2023-11-22 13:54:33.281879
11  2023-11-22 13:54:33.313884
12  2023-11-22 13:54:33.362745
13  2023-11-22 13:54:33.394625
14  2023-11-22 13:54:33.425543
15  2023-11-22 13:54:33.458455
16  2023-11-22 13:54:33.490369
17  2023-11-22 13:54:33.522284
18  2023-11-22 13:54:33.554200
19  2023-11-22 13:54:33.586113
20  2023-11-22 13:54:33.618062
21  2023-11-22 13:54:33.649975
22  2023-11-22 13:54:33.681857
23  2023-11-22 13:54:33.713772
24  2023-11-22 13:54:33.761644
25  2023-11-22 13:54:33.794544
26  2023-11-22 13:54:33.826493
27  2023-11-22 13:54:33.858422
28  2023-11-22 13:54:33.890378
29  2023-11-22 13:54:33.922283
30  2023-11-22 13:54:33.954247
31  2023-11-22 13:54:33.986196
32  2023-11-22 13:54:34.018108
33  2023-11-22 13:54:34.050030
34  2023-11-22 13:54:34.081908
35  2023-11-22 13:54:34.113820
36  2023-11-22 13:54:34.161692
37  2023-11-22 13:54:34.193656
38  2023-11-22 13:54:34.226519
39  2023-11-22 13:54:34.258469
40  2023-11-22 13:54:34.290473
41  2023-11-22 13:54:34.322390
42  2023-11-22 13:54:34.354272
43  2023-11-22 13:54:34.386218
44  2023-11-22 13:54:34.419135
45  2023-11-22 13:54:34.450063
46  2023-11-22 13:54:34.481931
47  2023-11-22 13:54:34.513846
48  2023-11-22 13:54:34.562716
49  2023-11-22 13:54:34.594658
50  2023-11-22 13:54:34.626544
51  2023-11-22 13:54:34.658459
52  2023-11-22 13:54:34.690410
53  2023-11-22 13:54:34.722290
54  2023-11-22 13:54:34.754235
55  2023-11-22 13:54:34.786148
56  2023-11-22 13:54:34.818061
57  2023-11-22 13:54:34.849948
58  2023-11-22 13:54:34.881862
59  2023-11-22 13:54:34.913776
60  2023-11-22 13:54:34.961743
61  2023-11-22 13:54:34.993703
62  2023-11-22 13:54:35.025632
63  2023-11-22 13:54:35.058542
64  2023-11-22 13:54:35.090445
65  2023-11-22 13:54:35.122437
66  2023-11-22 13:54:35.154371
67  2023-11-22 13:54:35.186290
68  2023-11-22 13:54:35.218169
69  2023-11-22 13:54:35.250114
70  2023-11-22 13:54:35.281999
71  2023-11-22 13:54:35.313948
72  2023-11-22 13:54:35.361835
73  2023-11-22 13:54:35.393735
74  2023-11-22 13:54:35.425647
75  2023-11-22 13:54:35.457595
76  2023-11-22 13:54:35.490475
77  2023-11-22 13:54:35.522356
78  2023-11-22 13:54:35.554271
79  2023-11-22 13:54:35.586217
80  2023-11-22 13:54:35.618131
81  2023-11-22 13:54:35.650054
82  2023-11-22 13:54:35.681929
83  2023-11-22 13:54:35.729801
84  2023-11-22 13:54:35.761716
85  2023-11-22 13:54:35.794509
86  2023-11-22 13:54:35.826433
87  2023-11-22 13:54:35.858307
88  2023-11-22 13:54:35.890253
89  2023-11-22 13:54:35.922170
90  2023-11-22 13:54:35.954091
91  2023-11-22 13:54:35.986003
92  2023-11-22 13:54:36.017922
93  2023-11-22 13:54:36.049828
94  2023-11-22 13:54:36.081742
95  2023-11-22 13:54:36.129583
96  2023-11-22 13:54:36.162527
97  2023-11-22 13:54:36.194409
98  2023-11-22 13:54:36.226323
99  2023-11-22 13:54:36.258245
100  2023-11-22 13:54:36.290195
101  2023-11-22 13:54:36.322109
102  2023-11-22 13:54:36.354025
103  2023-11-22 13:54:36.385939
104  2023-11-22 13:54:36.418889
105  2023-11-22 13:54:36.449806
106  2023-11-22 13:54:36.481776
107  2023-11-22 13:54:36.530680
108  2023-11-22 13:54:36.562593
109  2023-11-22 13:54:36.594489
110  2023-11-22 13:54:36.626414
111  2023-11-22 13:54:36.658305
112  2023-11-22 13:54:36.690219
113  2023-11-22 13:54:36.722133
114  2023-11-22 13:54:36.754049
115  2023-11-22 13:54:36.785965
116  2023-11-22 13:54:36.817940
117  2023-11-22 13:54:36.850852
118  2023-11-22 13:54:36.882704
119  2023-11-22 13:54:36.930576
120  2023-11-22 13:54:36.962498
121  2023-11-22 13:54:36.994465
122  2023-11-22 13:54:37.026461
123  2023-11-22 13:54:37.058380
124  2023-11-22 13:54:37.090262
125  2023-11-22 13:54:37.122177
126  2023-11-22 13:54:37.154092
127  2023-11-22 13:54:37.186012
128  2023-11-22 13:54:37.217956
129  2023-11-22 13:54:37.249920
130  2023-11-22 13:54:37.281793
131  2023-11-22 13:54:37.329708
132  2023-11-22 13:54:37.361620
133  2023-11-22 13:54:37.394525
134  2023-11-22 13:54:37.426455
135  2023-11-22 13:54:37.458321
136  2023-11-22 13:54:37.490278
137  2023-11-22 13:54:37.522181
138  2023-11-22 13:54:37.554065
139  2023-11-22 13:54:37.586014
140  2023-11-22 13:54:37.617932
141  2023-11-22 13:54:37.649857
142  2023-11-22 13:54:37.681724
143  2023-11-22 13:54:37.729638
144  2023-11-22 13:54:37.762539
145  2023-11-22 13:54:37.793562
146  2023-11-22 13:54:37.826529
147  2023-11-22 13:54:37.858389
148  2023-11-22 13:54:37.890338
149  2023-11-22 13:54:37.922249
150  2023-11-22 13:54:37.954165
151  2023-11-22 13:54:37.986079
152  2023-11-22 13:54:38.018103
153  2023-11-22 13:54:38.049983
154  2023-11-22 13:54:38.081906
155  2023-11-22 13:54:38.129819
156  2023-11-22 13:54:38.162682
157  2023-11-22 13:54:38.194597
158  2023-11-22 13:54:38.226525
159  2023-11-22 13:54:38.258459
160  2023-11-22 13:54:38.290340
161  2023-11-22 13:54:38.322255
162  2023-11-22 13:54:38.354172
163  2023-11-22 13:54:38.386084
164  2023-11-22 13:54:38.417999
165  2023-11-22 13:54:38.449977
166  2023-11-22 13:54:38.481892
167  2023-11-22 13:54:38.529768
168  2023-11-22 13:54:38.562676
169  2023-11-22 13:54:38.593632
170  2023-11-22 13:54:38.626505
171  2023-11-22 13:54:38.658461
172  2023-11-22 13:54:38.690372
173  2023-11-22 13:54:38.722282
174  2023-11-22 13:54:38.754199
175  2023-11-22 13:54:38.786117
176  2023-11-22 13:54:38.818067
177  2023-11-22 13:54:38.849979
178  2023-11-22 13:54:38.881861
179  2023-11-22 13:54:38.929782
180  2023-11-22 13:54:38.961648
181  2023-11-22 13:54:38.994454
182  2023-11-22 13:54:39.026441
183  2023-11-22 13:54:39.058319
184  2023-11-22 13:54:39.090272
185  2023-11-22 13:54:39.122179
186  2023-11-22 13:54:39.154093
187  2023-11-22 13:54:39.186010
188  2023-11-22 13:54:39.217892
189  2023-11-22 13:54:39.249844
190  2023-11-22 13:54:39.297769
191  2023-11-22 13:54:39.329683
192  2023-11-22 13:54:39.361946
193  2023-11-22 13:54:39.393937
194  2023-11-22 13:54:39.425816
195  2023-11-22 13:54:39.457731
196  2023-11-22 13:54:39.489646
197  2023-11-22 13:54:39.522593
198  2023-11-22 13:54:39.554530
199  2023-11-22 13:54:39.586418
200  2023-11-22 13:54:39.618335
201  2023-11-22 13:54:39.650250
202  2023-11-22 13:54:39.698120
203  2023-11-22 13:54:39.730058
204  2023-11-22 13:54:39.761952
205  2023-11-22 13:54:39.793864
206  2023-11-22 13:54:39.825782
207  2023-11-22 13:54:39.857717
208  2023-11-22 13:54:39.889611
209  2023-11-22 13:54:39.922488
210  2023-11-22 13:54:39.954443
211  2023-11-22 13:54:39.986352
212  2023-11-22 13:54:40.018271
213  2023-11-22 13:54:40.050179
214  2023-11-22 13:54:40.098051
215  2023-11-22 13:54:40.129967
216  2023-11-22 13:54:40.161880
217  2023-11-22 13:54:40.193838
218  2023-11-22 13:54:40.225875
219  2023-11-22 13:54:40.257796
220  2023-11-22 13:54:40.289662
221  2023-11-22 13:54:40.321618
222  2023-11-22 13:54:40.354543
223  2023-11-22 13:54:40.386434
224  2023-11-22 13:54:40.418353
225  2023-11-22 13:54:40.450271
226  2023-11-22 13:54:40.498105
227  2023-11-22 13:54:40.530052
228  2023-11-22 13:54:40.561964
229  2023-11-22 13:54:40.593973
230  2023-11-22 13:54:40.625925
231  2023-11-22 13:54:40.657839
232  2023-11-22 13:54:40.689759
233  2023-11-22 13:54:40.721631
234  2023-11-22 13:54:40.754596
235  2023-11-22 13:54:40.786548
236  2023-11-22 13:54:40.817595
237  2023-11-22 13:54:40.850503
238  2023-11-22 13:54:40.898339
239  2023-11-22 13:54:40.930286
240  2023-11-22 13:54:40.962200
241  2023-11-22 13:54:40.994142
242  2023-11-22 13:54:41.026048
243  2023-11-22 13:54:41.057944
244  2023-11-22 13:54:41.089828
245  2023-11-22 13:54:41.121785
246  2023-11-22 13:54:41.153698
247  2023-11-22 13:54:41.185604
248  2023-11-22 13:54:41.218529
249  2023-11-22 13:54:41.250432
250  2023-11-22 13:54:41.298301
251  2023-11-22 13:54:41.330218
252  2023-11-22 13:54:41.362133
253  2023-11-22 13:54:41.394095
254  2023-11-22 13:54:41.426002
255  2023-11-22 13:54:41.457916
256  2023-11-22 13:54:41.489871
257  2023-11-22 13:54:41.521801
258  2023-11-22 13:54:41.554657
259  2023-11-22 13:54:41.585606
260  2023-11-22 13:54:41.618538
261  2023-11-22 13:54:41.650432
262  2023-11-22 13:54:41.698314
263  2023-11-22 13:54:41.730221
264  2023-11-22 13:54:41.762225
265  2023-11-22 13:54:41.794139
266  2023-11-22 13:54:41.826064
267  2023-11-22 13:54:41.857986
268  2023-11-22 13:54:41.889851
269  2023-11-22 13:54:41.921766
270  2023-11-22 13:54:41.953680
271  2023-11-22 13:54:41.985644
272  2023-11-22 13:54:42.018534
273  2023-11-22 13:54:42.050422
274  2023-11-22 13:54:42.098330
275  2023-11-22 13:54:42.130209
276  2023-11-22 13:54:42.162155
277  2023-11-22 13:54:42.194145
278  2023-11-22 13:54:42.226104
279  2023-11-22 13:54:42.258023
280  2023-11-22 13:54:42.289945
281  2023-11-22 13:54:42.321859
282  2023-11-22 13:54:42.353779
283  2023-11-22 13:54:42.385687
284  2023-11-22 13:54:42.418557
285  2023-11-22 13:54:42.450502
286  2023-11-22 13:54:42.498376
287  2023-11-22 13:54:42.530289
288  2023-11-22 13:54:42.562208
289  2023-11-22 13:54:42.594118
290  2023-11-22 13:54:42.626046
291  2023-11-22 13:54:42.657948
292  2023-11-22 13:54:42.689831
293  2023-11-22 13:54:42.721746
294  2023-11-22 13:54:42.753717
295  2023-11-22 13:54:42.785615
296  2023-11-22 13:54:42.817617
297  2023-11-22 13:54:42.850520
298  2023-11-22 13:54:42.898361
299  2023-11-22 13:54:42.930276
300  2023-11-22 13:54:42.962190
301  2023-11-22 13:54:42.994106
302  2023-11-22 13:54:43.026019
303  2023-11-22 13:54:43.057996
304  2023-11-22 13:54:43.089931
305  2023-11-22 13:54:43.121813
306  2023-11-22 13:54:43.153728
307  2023-11-22 13:54:43.185643
308  2023-11-22 13:54:43.218555
309  2023-11-22 13:54:43.266427
310  2023-11-22 13:54:43.298428
311  2023-11-22 13:54:43.330312
312  2023-11-22 13:54:43.362257
313  2023-11-22 13:54:43.394143
314  2023-11-22 13:54:43.426088
315  2023-11-22 13:54:43.458104
316  2023-11-22 13:54:43.490100
317  2023-11-22 13:54:43.522077
318  2023-11-22 13:54:43.553963
319  2023-11-22 13:54:43.585893
320  2023-11-22 13:54:43.617794
321  2023-11-22 13:54:43.665630
322  2023-11-22 13:54:43.697595
323  2023-11-22 13:54:43.729582
324  2023-11-22 13:54:43.762505
325  2023-11-22 13:54:43.794414
326  2023-11-22 13:54:43.826322
327  2023-11-22 13:54:43.858357
328  2023-11-22 13:54:43.890178
329  2023-11-22 13:54:43.922068
330  2023-11-22 13:54:43.953976
331  2023-11-22 13:54:43.985858
332  2023-11-22 13:54:44.017943
333  2023-11-22 13:54:44.066776
334  2023-11-22 13:54:44.098720
335  2023-11-22 13:54:44.130637
336  2023-11-22 13:54:44.162519
337  2023-11-22 13:54:44.194465
338  2023-11-22 13:54:44.226379
339  2023-11-22 13:54:44.258294
340  2023-11-22 13:54:44.290177
341  2023-11-22 13:54:44.322124
342  2023-11-22 13:54:44.354063
343  2023-11-22 13:54:44.386052
344  2023-11-22 13:54:44.417967
345  2023-11-22 13:54:44.465806
346  2023-11-22 13:54:44.497833
347  2023-11-22 13:54:44.529739
348  2023-11-22 13:54:44.561667
349  2023-11-22 13:54:44.594562
350  2023-11-22 13:54:44.626478
351  2023-11-22 13:54:44.658390
352  2023-11-22 13:54:44.690311
353  2023-11-22 13:54:44.722221
354  2023-11-22 13:54:44.754104
355  2023-11-22 13:54:44.786052
356  2023-11-22 13:54:44.817938
357  2023-11-22 13:54:44.865804
358  2023-11-22 13:54:44.897758
359  2023-11-22 13:54:44.929633
360  2023-11-22 13:54:44.961589
361  2023-11-22 13:54:44.993604
362  2023-11-22 13:54:45.025541
363  2023-11-22 13:54:45.058511
364  2023-11-22 13:54:45.090415
365  2023-11-22 13:54:45.122329
366  2023-11-22 13:54:45.154293
367  2023-11-22 13:54:45.186266
368  2023-11-22 13:54:45.218114
369  2023-11-22 13:54:45.266002
370  2023-11-22 13:54:45.297946
371  2023-11-22 13:54:45.329870
372  2023-11-22 13:54:45.361784
373  2023-11-22 13:54:45.393699
374  2023-11-22 13:54:45.425757
375  2023-11-22 13:54:45.457674
376  2023-11-22 13:54:45.489589
377  2023-11-22 13:54:45.522500
378  2023-11-22 13:54:45.554375
379  2023-11-22 13:54:45.586322
380  2023-11-22 13:54:45.618237
381  2023-11-22 13:54:45.666076
382  2023-11-22 13:54:45.698031
383  2023-11-22 13:54:45.729941
384  2023-11-22 13:54:45.761853
385  2023-11-22 13:54:45.793773
386  2023-11-22 13:54:45.825671
387  2023-11-22 13:54:45.857666
388  2023-11-22 13:54:45.890574
389  2023-11-22 13:54:45.922483
390  2023-11-22 13:54:45.954367
391  2023-11-22 13:54:45.986314
392  2023-11-22 13:54:46.018229
393  2023-11-22 13:54:46.066069
394  2023-11-22 13:54:46.098028
395  2023-11-22 13:54:46.129931
396  2023-11-22 13:54:46.161860
397  2023-11-22 13:54:46.193761
398  2023-11-22 13:54:46.225643
399  2023-11-22 13:54:46.258554
400  2023-11-22 13:54:46.290468
401  2023-11-22 13:54:46.322415
402  2023-11-22 13:54:46.354153
403  2023-11-22 13:54:46.386062
404  2023-11-22 13:54:46.417974
405  2023-11-22 13:54:46.465812
406  2023-11-22 13:54:46.497764
407  2023-11-22 13:54:46.529690
408  2023-11-22 13:54:46.561596
409  2023-11-22 13:54:46.594468
410  2023-11-22 13:54:46.626504
411  2023-11-22 13:54:46.658417
412  2023-11-22 13:54:46.690328
413  2023-11-22 13:54:46.722241
414  2023-11-22 13:54:46.754152
415  2023-11-22 13:54:46.786086
416  2023-11-22 13:54:46.833908
417  2023-11-22 13:54:46.865822
418  2023-11-22 13:54:46.897783
419  2023-11-22 13:54:46.929652
420  2023-11-22 13:54:46.961607
421  2023-11-22 13:54:46.994479
422  2023-11-22 13:54:47.026427
423  2023-11-22 13:54:47.058339
424  2023-11-22 13:54:47.090254
425  2023-11-22 13:54:47.122168
426  2023-11-22 13:54:47.154090
427  2023-11-22 13:54:47.185976
428  2023-11-22 13:54:47.233839
429  2023-11-22 13:54:47.266751
430  2023-11-22 13:54:47.297696
431  2023-11-22 13:54:47.330623
432  2023-11-22 13:54:47.362538
433  2023-11-22 13:54:47.394443
434  2023-11-22 13:54:47.426324
435  2023-11-22 13:54:47.458343
436  2023-11-22 13:54:47.490288
437  2023-11-22 13:54:47.522200
438  2023-11-22 13:54:47.554115
439  2023-11-22 13:54:47.586000
440  2023-11-22 13:54:47.633996
441  2023-11-22 13:54:47.666167
442  2023-11-22 13:54:47.698082
443  2023-11-22 13:54:47.730176
444  2023-11-22 13:54:47.762076
445  2023-11-22 13:54:47.793957
446  2023-11-22 13:54:47.826001
447  2023-11-22 13:54:47.857962
448  2023-11-22 13:54:47.889995
449  2023-11-22 13:54:47.921915
450  2023-11-22 13:54:47.953824
451  2023-11-22 13:54:47.985740
452  2023-11-22 13:54:48.033579
453  2023-11-22 13:54:48.066532
454  2023-11-22 13:54:48.098406
455  2023-11-22 13:54:48.130352
456  2023-11-22 13:54:48.162235
457  2023-11-22 13:54:48.194181
458  2023-11-22 13:54:48.226136
459  2023-11-22 13:54:48.258105
460  2023-11-22 13:54:48.290022
461  2023-11-22 13:54:48.321960
462  2023-11-22 13:54:48.353858
463  2023-11-22 13:54:48.385774
464  2023-11-22 13:54:48.433602
465  2023-11-22 13:54:48.466514
466  2023-11-22 13:54:48.498478
467  2023-11-22 13:54:48.530376
468  2023-11-22 13:54:48.562291
469  2023-11-22 13:54:48.594173
470  2023-11-22 13:54:48.626119
471  2023-11-22 13:54:48.658033
472  2023-11-22 13:54:48.690002
473  2023-11-22 13:54:48.721879
474  2023-11-22 13:54:48.753836
475  2023-11-22 13:54:48.785709
476  2023-11-22 13:54:48.834578
477  2023-11-22 13:54:48.866492
478  2023-11-22 13:54:48.898438
479  2023-11-22 13:54:48.930367
480  2023-11-22 13:54:48.962268
481  2023-11-22 13:54:48.994182
482  2023-11-22 13:54:49.026103
483  2023-11-22 13:54:49.058018
484  2023-11-22 13:54:49.090046
485  2023-11-22 13:54:49.122047
486  2023-11-22 13:54:49.153977
487  2023-11-22 13:54:49.185982
488  2023-11-22 13:54:49.233817
489  2023-11-22 13:54:49.265732
490  2023-11-22 13:54:49.297684
491  2023-11-22 13:54:49.329604
492  2023-11-22 13:54:49.362473
493  2023-11-22 13:54:49.394388
494  2023-11-22 13:54:49.426333
495  2023-11-22 13:54:49.458217
496  2023-11-22 13:54:49.490134
497  2023-11-22 13:54:49.522050
498  2023-11-22 13:54:49.553963
499  2023-11-22 13:54:49.585877
500  2023-11-22 13:54:49.633876
501  2023-11-22 13:54:49.665791
502  2023-11-22 13:54:49.697749
503  2023-11-22 13:54:49.729656
504  2023-11-22 13:54:49.762588
505  2023-11-22 13:54:49.794525
506  2023-11-22 13:54:49.826479
507  2023-11-22 13:54:49.858428
508  2023-11-22 13:54:49.890340
509  2023-11-22 13:54:49.922294
510  2023-11-22 13:54:49.954223
511  2023-11-22 13:54:49.986167
512  2023-11-22 13:54:50.034097
513  2023-11-22 13:54:50.066098
514  2023-11-22 13:54:50.098029
515  2023-11-22 13:54:50.129972
516  2023-11-22 13:54:50.161896
517  2023-11-22 13:54:50.193855
518  2023-11-22 13:54:50.225888
519  2023-11-22 13:54:50.257803
520  2023-11-22 13:54:50.290781
521  2023-11-22 13:54:50.321733
522  2023-11-22 13:54:50.353652
523  2023-11-22 13:54:50.385656
524  2023-11-22 13:54:50.434484
525  2023-11-22 13:54:50.466512
526  2023-11-22 13:54:50.498552
527  2023-11-22 13:54:50.530475
528  2023-11-22 13:54:50.562389
529  2023-11-22 13:54:50.594384
530  2023-11-22 13:54:50.626374
531  2023-11-22 13:54:50.658309
532  2023-11-22 13:54:50.690319
533  2023-11-22 13:54:50.722306
534  2023-11-22 13:54:50.754267
535  2023-11-22 13:54:50.802092
536  2023-11-22 13:54:50.834007
537  2023-11-22 13:54:50.866925
538  2023-11-22 13:54:50.897878
539  2023-11-22 13:54:50.930793
540  2023-11-22 13:54:50.962695
541  2023-11-22 13:54:50.994578
542  2023-11-22 13:54:51.026541
543  2023-11-22 13:54:51.058460
544  2023-11-22 13:54:51.090360
545  2023-11-22 13:54:51.122249
546  2023-11-22 13:54:51.154092
547  2023-11-22 13:54:51.202107
548  2023-11-22 13:54:51.234112
549  2023-11-22 13:54:51.266027
550  2023-11-22 13:54:51.297986
551  2023-11-22 13:54:51.329895
552  2023-11-22 13:54:51.361810
553  2023-11-22 13:54:51.394704
554  2023-11-22 13:54:51.426626
555  2023-11-22 13:54:51.458563
556  2023-11-22 13:54:51.490460
557  2023-11-22 13:54:51.522343
558  2023-11-22 13:54:51.554310
559  2023-11-22 13:54:51.602270
560  2023-11-22 13:54:51.634242
561  2023-11-22 13:54:51.666148
562  2023-11-22 13:54:51.698095
563  2023-11-22 13:54:51.730023
564  2023-11-22 13:54:51.761942
565  2023-11-22 13:54:51.793806
566  2023-11-22 13:54:51.825817
567  2023-11-22 13:54:51.857860
568  2023-11-22 13:54:51.889785
569  2023-11-22 13:54:51.922669
570  2023-11-22 13:54:51.954571
571  2023-11-22 13:54:52.002619
572  2023-11-22 13:54:52.034535
573  2023-11-22 13:54:52.066486
574  2023-11-22 13:54:52.098365
575  2023-11-22 13:54:52.130308
576  2023-11-22 13:54:52.162301
577  2023-11-22 13:54:52.194237
578  2023-11-22 13:54:52.226141
579  2023-11-22 13:54:52.258064
580  2023-11-22 13:54:52.289966
581  2023-11-22 13:54:52.321870
582  2023-11-22 13:54:52.353809
583  2023-11-22 13:54:52.401774
584  2023-11-22 13:54:52.433687
585  2023-11-22 13:54:52.466653
586  2023-11-22 13:54:52.497628
587  2023-11-22 13:54:52.530540
588  2023-11-22 13:54:52.562519
589  2023-11-22 13:54:52.594517
590  2023-11-22 13:54:52.626464
591  2023-11-22 13:54:52.658389
592  2023-11-22 13:54:52.690330
593  2023-11-22 13:54:52.722206
594  2023-11-22 13:54:52.754122
595  2023-11-22 13:54:52.801995
596  2023-11-22 13:54:52.833879
597  2023-11-22 13:54:52.866790
598  2023-11-22 13:54:52.897753
599  2023-11-22 13:54:52.929663
600  2023-11-22 13:54:52.962577
601  2023-11-22 13:54:52.994481
602  2023-11-22 13:54:53.026398
603  2023-11-22 13:54:53.058311
604  2023-11-22 13:54:53.090240
605  2023-11-22 13:54:53.122152
606  2023-11-22 13:54:53.154059
607  2023-11-22 13:54:53.201894
608  2023-11-22 13:54:53.234806
609  2023-11-22 13:54:53.266751
610  2023-11-22 13:54:53.297670
611  2023-11-22 13:54:53.329737
612  2023-11-22 13:54:53.362651
613  2023-11-22 13:54:53.394536
614  2023-11-22 13:54:53.426452
615  2023-11-22 13:54:53.458382
616  2023-11-22 13:54:53.490298
617  2023-11-22 13:54:53.523220
618  2023-11-22 13:54:53.554154
619  2023-11-22 13:54:53.602010
620  2023-11-22 13:54:53.633927
621  2023-11-22 13:54:53.666796
622  2023-11-22 13:54:53.697756
623  2023-11-22 13:54:53.729644
624  2023-11-22 13:54:53.762571
625  2023-11-22 13:54:53.794454
626  2023-11-22 13:54:53.826405
627  2023-11-22 13:54:53.858313
628  2023-11-22 13:54:53.890233
629  2023-11-22 13:54:53.922139
630  2023-11-22 13:54:53.954063
631  2023-11-22 13:54:54.001899
632  2023-11-22 13:54:54.033861
633  2023-11-22 13:54:54.065729
634  2023-11-22 13:54:54.097672
635  2023-11-22 13:54:54.129588
636  2023-11-22 13:54:54.162509
637  2023-11-22 13:54:54.194416
638  2023-11-22 13:54:54.226333
639  2023-11-22 13:54:54.258244
640  2023-11-22 13:54:54.290159
641  2023-11-22 13:54:54.322083
642  2023-11-22 13:54:54.369915
643  2023-11-22 13:54:54.401830
644  2023-11-22 13:54:54.433790
645  2023-11-22 13:54:54.465670
646  2023-11-22 13:54:54.497606
647  2023-11-22 13:54:54.530533
648  2023-11-22 13:54:54.562431
649  2023-11-22 13:54:54.594369
650  2023-11-22 13:54:54.626283
651  2023-11-22 13:54:54.658285
652  2023-11-22 13:54:54.690206
653  2023-11-22 13:54:54.722096
654  2023-11-22 13:54:54.769953
655  2023-11-22 13:54:54.801867
656  2023-11-22 13:54:54.833791
657  2023-11-22 13:54:54.865740
658  2023-11-22 13:54:54.898634
659  2023-11-22 13:54:54.930563
660  2023-11-22 13:54:54.962472
661  2023-11-22 13:54:54.994386
662  2023-11-22 13:54:55.026300
663  2023-11-22 13:54:55.058215
664  2023-11-22 13:54:55.090167
665  2023-11-22 13:54:55.122093
666  2023-11-22 13:54:55.169915
667  2023-11-22 13:54:55.201830
668  2023-11-22 13:54:55.234756
669  2023-11-22 13:54:55.266658
670  2023-11-22 13:54:55.297589
671  2023-11-22 13:54:55.329532
672  2023-11-22 13:54:55.362429
673  2023-11-22 13:54:55.394316
674  2023-11-22 13:54:55.426264
675  2023-11-22 13:54:55.458175
676  2023-11-22 13:54:55.490180
677  2023-11-22 13:54:55.522177
678  2023-11-22 13:54:55.570080
679  2023-11-22 13:54:55.602163
680  2023-11-22 13:54:55.634093
681  2023-11-22 13:54:55.665951
682  2023-11-22 13:54:55.697867
683  2023-11-22 13:54:55.729813
684  2023-11-22 13:54:55.761728
685  2023-11-22 13:54:55.794608
686  2023-11-22 13:54:55.826560
687  2023-11-22 13:54:55.858450
688  2023-11-22 13:54:55.890542
689  2023-11-22 13:54:55.922446
690  2023-11-22 13:54:55.970314
691  2023-11-22 13:54:56.002230
692  2023-11-22 13:54:56.034146
693  2023-11-22 13:54:56.066109
694  2023-11-22 13:54:56.098036
695  2023-11-22 13:54:56.129942
696  2023-11-22 13:54:56.161852
697  2023-11-22 13:54:56.193791
698  2023-11-22 13:54:56.225690
699  2023-11-22 13:54:56.258605
700  2023-11-22 13:54:56.290507
701  2023-11-22 13:54:56.322390
702  2023-11-22 13:54:56.370262
703  2023-11-22 13:54:56.402209
704  2023-11-22 13:54:56.434124
705  2023-11-22 13:54:56.466047
706  2023-11-22 13:54:56.497951
707  2023-11-22 13:54:56.530866
708  2023-11-22 13:54:56.562788
709  2023-11-22 13:54:56.594695
710  2023-11-22 13:54:56.626579
711  2023-11-22 13:54:56.658537
712  2023-11-22 13:54:56.690587
713  2023-11-22 13:54:56.722493
714  2023-11-22 13:54:56.770345
715  2023-11-22 13:54:56.802285
716  2023-11-22 13:54:56.834186
717  2023-11-22 13:54:56.866110
718  2023-11-22 13:54:56.897991
719  2023-11-22 13:54:56.929940
720  2023-11-22 13:54:56.961855
721  2023-11-22 13:54:56.993778
722  2023-11-22 13:54:57.025687
723  2023-11-22 13:54:57.058587
724  2023-11-22 13:54:57.090531
725  2023-11-22 13:54:57.122421
726  2023-11-22 13:54:57.170261
727  2023-11-22 13:54:57.201933
728  2023-11-22 13:54:57.233977
729  2023-11-22 13:54:57.265888
730  2023-11-22 13:54:57.297874
731  2023-11-22 13:54:57.329881
732  2023-11-22 13:54:57.361786
733  2023-11-22 13:54:57.393714
734  2023-11-22 13:54:57.425580
735  2023-11-22 13:54:57.458527
736  2023-11-22 13:54:57.490439
737  2023-11-22 13:54:57.522356
738  2023-11-22 13:54:57.570192
739  2023-11-22 13:54:57.602107
740  2023-11-22 13:54:57.634072
741  2023-11-22 13:54:57.665967
742  2023-11-22 13:54:57.697852
743  2023-11-22 13:54:57.730796
744  2023-11-22 13:54:57.762683
745  2023-11-22 13:54:57.793595
746  2023-11-22 13:54:57.826553
747  2023-11-22 13:54:57.858476
748  2023-11-22 13:54:57.890339
749  2023-11-22 13:54:57.922252
750  2023-11-22 13:54:57.970162
751  2023-11-22 13:54:58.002193
752  2023-11-22 13:54:58.034105
753  2023-11-22 13:54:58.066024
754  2023-11-22 13:54:58.097944
755  2023-11-22 13:54:58.129864
756  2023-11-22 13:54:58.161780
757  2023-11-22 13:54:58.194647
758  2023-11-22 13:54:58.226606
759  2023-11-22 13:54:58.258508
760  2023-11-22 13:54:58.290420
761  2023-11-22 13:54:58.338260
762  2023-11-22 13:54:58.370175
763  2023-11-22 13:54:58.402125
764  2023-11-22 13:54:58.434050
765  2023-11-22 13:54:58.465954
766  2023-11-22 13:54:58.497880
767  2023-11-22 13:54:58.529797
768  2023-11-22 13:54:58.561703
769  2023-11-22 13:54:58.593585
770  2023-11-22 13:54:58.626540
771  2023-11-22 13:54:58.658439
772  2023-11-22 13:54:58.690354
773  2023-11-22 13:54:58.738230
774  2023-11-22 13:54:58.770136
775  2023-11-22 13:54:58.801707
776  2023-11-22 13:54:58.833545
777  2023-11-22 13:54:58.866451
778  2023-11-22 13:54:58.898364
779  2023-11-22 13:54:58.930249
780  2023-11-22 13:54:58.962172
781  2023-11-22 13:54:58.994077
782  2023-11-22 13:54:59.026001
783  2023-11-22 13:54:59.057942
784  2023-11-22 13:54:59.089866
785  2023-11-22 13:54:59.137726
786  2023-11-22 13:54:59.169607
787  2023-11-22 13:54:59.202519
788  2023-11-22 13:54:59.234471
789  2023-11-22 13:54:59.266390
790  2023-11-22 13:54:59.298298
791  2023-11-22 13:54:59.330233
792  2023-11-22 13:54:59.362146
793  2023-11-22 13:54:59.394043
794  2023-11-22 13:54:59.425956
795  2023-11-22 13:54:59.457880
796  2023-11-22 13:54:59.489793
797  2023-11-22 13:54:59.537669
798  2023-11-22 13:54:59.569581
799  2023-11-22 13:54:59.602483
800  2023-11-22 13:54:59.634400
801  2023-11-22 13:54:59.666315
802  2023-11-22 13:54:59.698234
803  2023-11-22 13:54:59.730143
804  2023-11-22 13:54:59.762065
805  2023-11-22 13:54:59.793970
806  2023-11-22 13:54:59.826031
807  2023-11-22 13:54:59.857945
808  2023-11-22 13:54:59.889873
809  2023-11-22 13:54:59.937886
810  2023-11-22 13:54:59.969760
811  2023-11-22 13:55:00.002672
812  2023-11-22 13:55:00.033632
813  2023-11-22 13:55:00.066539
814  2023-11-22 13:55:00.098449
815  2023-11-22 13:55:00.130478
816  2023-11-22 13:55:00.162453
817  2023-11-22 13:55:00.194363
818  2023-11-22 13:55:00.226276
819  2023-11-22 13:55:00.258197
820  2023-11-22 13:55:00.290106
821  2023-11-22 13:55:00.338112
822  2023-11-22 13:55:00.370029
823  2023-11-22 13:55:00.401964
824  2023-11-22 13:55:00.433850
825  2023-11-22 13:55:00.465778
826  2023-11-22 13:55:00.497686
827  2023-11-22 13:55:00.529613
828  2023-11-22 13:55:00.562656
829  2023-11-22 13:55:00.594562
830  2023-11-22 13:55:00.626478
831  2023-11-22 13:55:00.658389
832  2023-11-22 13:55:00.690275
833  2023-11-22 13:55:00.738179
834  2023-11-22 13:55:00.770095
835  2023-11-22 13:55:00.801981
836  2023-11-22 13:55:00.834052
837  2023-11-22 13:55:00.865970
838  2023-11-22 13:55:00.897844
839  2023-11-22 13:55:00.929759
840  2023-11-22 13:55:00.961709
841  2023-11-22 13:55:00.994704
842  2023-11-22 13:55:01.025629
843  2023-11-22 13:55:01.058541
844  2023-11-22 13:55:01.090441
845  2023-11-22 13:55:01.138447
846  2023-11-22 13:55:01.170326
847  2023-11-22 13:55:01.202272
848  2023-11-22 13:55:01.234186
849  2023-11-22 13:55:01.266104
850  2023-11-22 13:55:01.298036
851  2023-11-22 13:55:01.329994
852  2023-11-22 13:55:01.362000
853  2023-11-22 13:55:01.393918
854  2023-11-22 13:55:01.425836
855  2023-11-22 13:55:01.457747
856  2023-11-22 13:55:01.489658
857  2023-11-22 13:55:01.538542
858  2023-11-22 13:55:01.570428
859  2023-11-22 13:55:01.602334
860  2023-11-22 13:55:01.634265
861  2023-11-22 13:55:01.666179
862  2023-11-22 13:55:01.698095
863  2023-11-22 13:55:01.730053
864  2023-11-22 13:55:01.762039
865  2023-11-22 13:55:01.793958
866  2023-11-22 13:55:01.825872
867  2023-11-22 13:55:01.857803
868  2023-11-22 13:55:01.906461
869  2023-11-22 13:55:01.938504
870  2023-11-22 13:55:01.970369
871  2023-11-22 13:55:02.002284
872  2023-11-22 13:55:02.034236
873  2023-11-22 13:55:02.066145
874  2023-11-22 13:55:02.098082
875  2023-11-22 13:55:02.129982
876  2023-11-22 13:55:02.161899
877  2023-11-22 13:55:02.193805
878  2023-11-22 13:55:02.225730
879  2023-11-22 13:55:02.258601
880  2023-11-22 13:55:02.306509
881  2023-11-22 13:55:02.338423
882  2023-11-22 13:55:02.370332
883  2023-11-22 13:55:02.402245
884  2023-11-22 13:55:02.434161
885  2023-11-22 13:55:02.466084
886  2023-11-22 13:55:02.497994
887  2023-11-22 13:55:02.529932
888  2023-11-22 13:55:02.561820
889  2023-11-22 13:55:02.593736
890  2023-11-22 13:55:02.625660
891  2023-11-22 13:55:02.658567
892  2023-11-22 13:55:02.706433
893  2023-11-22 13:55:02.738349
894  2023-11-22 13:55:02.770264
895  2023-11-22 13:55:02.802178
896  2023-11-22 13:55:02.834096
897  2023-11-22 13:55:02.866013
898  2023-11-22 13:55:02.897933
899  2023-11-22 13:55:02.929838
900  2023-11-22 13:55:02.961756
901  2023-11-22 13:55:02.994664
902  2023-11-22 13:55:03.025595
903  2023-11-22 13:55:03.058504
904  2023-11-22 13:55:03.106365
905  2023-11-22 13:55:03.138286
906  2023-11-22 13:55:03.170197
907  2023-11-22 13:55:03.202076
908  2023-11-22 13:55:03.234045
909  2023-11-22 13:55:03.265943
910  2023-11-22 13:55:03.297866
911  2023-11-22 13:55:03.329779
912  2023-11-22 13:55:03.361689
913  2023-11-22 13:55:03.393566
914  2023-11-22 13:55:03.426517
915  2023-11-22 13:55:03.458427
916  2023-11-22 13:55:03.506295
917  2023-11-22 13:55:03.538213
918  2023-11-22 13:55:03.570092
919  2023-11-22 13:55:03.602007
920  2023-11-22 13:55:03.633952
921  2023-11-22 13:55:03.665836
922  2023-11-22 13:55:03.698750
923  2023-11-22 13:55:03.729841
924  2023-11-22 13:55:03.761761
925  2023-11-22 13:55:03.793671
926  2023-11-22 13:55:03.826591
927  2023-11-22 13:55:03.858455
928  2023-11-22 13:55:03.906355
929  2023-11-22 13:55:03.938241
930  2023-11-22 13:55:03.970366
931  2023-11-22 13:55:04.002373
932  2023-11-22 13:55:04.034393
933  2023-11-22 13:55:04.066391
934  2023-11-22 13:55:04.098395
935  2023-11-22 13:55:04.130349
936  2023-11-22 13:55:04.162252
937  2023-11-22 13:55:04.194167
938  2023-11-22 13:55:04.226091
939  2023-11-22 13:55:04.258003
940  2023-11-22 13:55:04.306063
941  2023-11-22 13:55:04.337975
942  2023-11-22 13:55:04.369891
943  2023-11-22 13:55:04.401806
944  2023-11-22 13:55:04.434707
945  2023-11-22 13:55:04.465632
946  2023-11-22 13:55:04.498538
947  2023-11-22 13:55:04.530463
948  2023-11-22 13:55:04.562364
949  2023-11-22 13:55:04.594303
950  2023-11-22 13:55:04.626337
951  2023-11-22 13:55:04.658255
952  2023-11-22 13:55:04.706120
953  2023-11-22 13:55:04.738043
954  2023-11-22 13:55:04.769948
955  2023-11-22 13:55:04.801874
956  2023-11-22 13:55:04.833744
957  2023-11-22 13:55:04.865699
958  2023-11-22 13:55:04.898609
959  2023-11-22 13:55:04.930535
960  2023-11-22 13:55:04.962431
961  2023-11-22 13:55:04.994350
962  2023-11-22 13:55:05.026261
963  2023-11-22 13:55:05.058179
964  2023-11-22 13:55:05.106112
965  2023-11-22 13:55:05.138030
966  2023-11-22 13:55:05.169944
967  2023-11-22 13:55:05.201852
968  2023-11-22 13:55:05.233897
969  2023-11-22 13:55:05.265973
970  2023-11-22 13:55:05.297922
971  2023-11-22 13:55:05.330017
972  2023-11-22 13:55:05.361719
973  2023-11-22 13:55:05.394628
974  2023-11-22 13:55:05.426547
975  2023-11-22 13:55:05.458462
976  2023-11-22 13:55:05.506334
977  2023-11-22 13:55:05.538246
978  2023-11-22 13:55:05.570161
979  2023-11-22 13:55:05.602050
980  2023-11-22 13:55:05.633959
981  2023-11-22 13:55:05.665914
982  2023-11-22 13:55:05.697824
983  2023-11-22 13:55:05.730734
984  2023-11-22 13:55:05.762617
985  2023-11-22 13:55:05.794563
986  2023-11-22 13:55:05.826481
987  2023-11-22 13:55:05.874348
988  2023-11-22 13:55:05.906267
989  2023-11-22 13:55:05.938148
990  2023-11-22 13:55:05.970092
991  2023-11-22 13:55:06.001975
992  2023-11-22 13:55:06.033890
993  2023-11-22 13:55:06.065839
994  2023-11-22 13:55:06.097752
995  2023-11-22 13:55:06.129668
996  2023-11-22 13:55:06.161582
997  2023-11-22 13:55:06.194495
998  2023-11-22 13:55:06.226411
999  2023-11-22 13:55:06.274301
1000  2023-11-22 13:55:06.306197
1001  2023-11-22 13:55:06.338112
1002  2023-11-22 13:55:06.370031
1003  2023-11-22 13:55:06.401946
1004  2023-11-22 13:55:06.433847
1005  2023-11-22 13:55:06.465778
1006  2023-11-22 13:55:06.497697
1007  2023-11-22 13:55:06.529601
1008  2023-11-22 13:55:06.562504
1009  2023-11-22 13:55:06.594438
1010  2023-11-22 13:55:06.626337
1011  2023-11-22 13:55:06.674178
1012  2023-11-22 13:55:06.706124
1013  2023-11-22 13:55:06.738042
1014  2023-11-22 13:55:06.769954
1015  2023-11-22 13:55:06.801837
1016  2023-11-22 13:55:06.833795
1017  2023-11-22 13:55:06.866696
1018  2023-11-22 13:55:06.897614
1019  2023-11-22 13:55:06.930537
1020  2023-11-22 13:55:06.962519
1021  2023-11-22 13:55:06.994459
1022  2023-11-22 13:55:07.026390
1023  2023-11-22 13:55:07.074221
1024  2023-11-22 13:55:07.106136
1025  2023-11-22 13:55:07.138052
1026  2023-11-22 13:55:07.170002
1027  2023-11-22 13:55:07.201880
1028  2023-11-22 13:55:07.233835
1029  2023-11-22 13:55:07.265750
1030  2023-11-22 13:55:07.297654
1031  2023-11-22 13:55:07.329582
1032  2023-11-22 13:55:07.362483
1033  2023-11-22 13:55:07.394395
1034  2023-11-22 13:55:07.426310
1035  2023-11-22 13:55:07.474183
1036  2023-11-22 13:55:07.506096
1037  2023-11-22 13:55:07.538034
1038  2023-11-22 13:55:07.569932
1039  2023-11-22 13:55:07.601837
1040  2023-11-22 13:55:07.633724
1041  2023-11-22 13:55:07.665681
1042  2023-11-22 13:55:07.698592
1043  2023-11-22 13:55:07.730500
1044  2023-11-22 13:55:07.762414
1045  2023-11-22 13:55:07.794329
1046  2023-11-22 13:55:07.826244
1047  2023-11-22 13:55:07.874082
1048  2023-11-22 13:55:07.906035
1049  2023-11-22 13:55:07.937950
1050  2023-11-22 13:55:07.969866
1051  2023-11-22 13:55:08.001784
1052  2023-11-22 13:55:08.033689
1053  2023-11-22 13:55:08.065603
1054  2023-11-22 13:55:08.098484
1055  2023-11-22 13:55:08.130428
1056  2023-11-22 13:55:08.162342
1057  2023-11-22 13:55:08.194257
1058  2023-11-22 13:55:08.226143
1059  2023-11-22 13:55:08.274076
1060  2023-11-22 13:55:08.305961
1061  2023-11-22 13:55:08.337888
1062  2023-11-22 13:55:08.369800
1063  2023-11-22 13:55:08.401672
1064  2023-11-22 13:55:08.434629
1065  2023-11-22 13:55:08.466544
1066  2023-11-22 13:55:08.498414
1067  2023-11-22 13:55:08.530359
1068  2023-11-22 13:55:08.562295
1069  2023-11-22 13:55:08.594187
1070  2023-11-22 13:55:08.626106
1071  2023-11-22 13:55:08.673980
1072  2023-11-22 13:55:08.705901
1073  2023-11-22 13:55:08.737804
1074  2023-11-22 13:55:08.769719
1075  2023-11-22 13:55:08.802604
1076  2023-11-22 13:55:08.834514
1077  2023-11-22 13:55:08.866462
1078  2023-11-22 13:55:08.898382
1079  2023-11-22 13:55:08.930293
1080  2023-11-22 13:55:08.962207
1081  2023-11-22 13:55:08.994123
1082  2023-11-22 13:55:09.026035
1083  2023-11-22 13:55:09.073875
1084  2023-11-22 13:55:09.105837
1085  2023-11-22 13:55:09.137741
1086  2023-11-22 13:55:09.169662
1087  2023-11-22 13:55:09.202530
1088  2023-11-22 13:55:09.234478
1089  2023-11-22 13:55:09.266395
1090  2023-11-22 13:55:09.298274
1091  2023-11-22 13:55:09.330225
1092  2023-11-22 13:55:09.362178
1093  2023-11-22 13:55:09.394059
1094  2023-11-22 13:55:09.442000
1095  2023-11-22 13:55:09.473919
1096  2023-11-22 13:55:09.505838
1097  2023-11-22 13:55:09.537754
1098  2023-11-22 13:55:09.570660
1099  2023-11-22 13:55:09.602573
1100  2023-11-22 13:55:09.634453
1101  2023-11-22 13:55:09.666400
1102  2023-11-22 13:55:09.698313
1103  2023-11-22 13:55:09.730251
1104  2023-11-22 13:55:09.762112
1105  2023-11-22 13:55:09.794064
1106  2023-11-22 13:55:09.842047
1107  2023-11-22 13:55:09.873952
1108  2023-11-22 13:55:09.905876
1109  2023-11-22 13:55:09.937779
1110  2023-11-22 13:55:09.969699
1111  2023-11-22 13:55:10.001622
1112  2023-11-22 13:55:10.034492
1113  2023-11-22 13:55:10.066438
1114  2023-11-22 13:55:10.098356
1115  2023-11-22 13:55:10.130267
1116  2023-11-22 13:55:10.162182
1117  2023-11-22 13:55:10.194100
1118  2023-11-22 13:55:10.241982
1119  2023-11-22 13:55:10.273902
1120  2023-11-22 13:55:10.305768
1121  2023-11-22 13:55:10.337714
1122  2023-11-22 13:55:10.369636
1123  2023-11-22 13:55:10.402537
1124  2023-11-22 13:55:10.434457
1125  2023-11-22 13:55:10.466339
1126  2023-11-22 13:55:10.498285
1127  2023-11-22 13:55:10.530199
1128  2023-11-22 13:55:10.562128
1129  2023-11-22 13:55:10.594037
1130  2023-11-22 13:55:10.641917
1131  2023-11-22 13:55:10.673784
1132  2023-11-22 13:55:10.705732
1133  2023-11-22 13:55:10.737653
1134  2023-11-22 13:55:10.769639
1135  2023-11-22 13:55:10.802548
1136  2023-11-22 13:55:10.834431
1137  2023-11-22 13:55:10.866346
1138  2023-11-22 13:55:10.898292
1139  2023-11-22 13:55:10.930207
1140  2023-11-22 13:55:10.962122
1141  2023-11-22 13:55:10.994051
1142  2023-11-22 13:55:11.041928
1143  2023-11-22 13:55:11.073821
1144  2023-11-22 13:55:11.105736
1145  2023-11-22 13:55:11.138670
1146  2023-11-22 13:55:11.170565
1147  2023-11-22 13:55:11.202478
1148  2023-11-22 13:55:11.234362
1149  2023-11-22 13:55:11.266277
1150  2023-11-22 13:55:11.298223
1151  2023-11-22 13:55:11.330143
1152  2023-11-22 13:55:11.362079
1153  2023-11-22 13:55:11.393970
1154  2023-11-22 13:55:11.441840
1155  2023-11-22 13:55:11.473763
1156  2023-11-22 13:55:11.505679
1157  2023-11-22 13:55:11.537583
1158  2023-11-22 13:55:11.570506
1159  2023-11-22 13:55:11.602412
1160  2023-11-22 13:55:11.634293
1161  2023-11-22 13:55:11.666207
1162  2023-11-22 13:55:11.698157
1163  2023-11-22 13:55:11.730089
1164  2023-11-22 13:55:11.761985
1165  2023-11-22 13:55:11.793891
1166  2023-11-22 13:55:11.841782
1167  2023-11-22 13:55:11.873686
1168  2023-11-22 13:55:11.905603
1169  2023-11-22 13:55:11.938515
1170  2023-11-22 13:55:11.970451
1171  2023-11-22 13:55:12.002341
1172  2023-11-22 13:55:12.034224
1173  2023-11-22 13:55:12.066187
1174  2023-11-22 13:55:12.098087
1175  2023-11-22 13:55:12.129999
1176  2023-11-22 13:55:12.162026
1177  2023-11-22 13:55:12.193942
1178  2023-11-22 13:55:12.241826
1179  2023-11-22 13:55:12.273697
1180  2023-11-22 13:55:12.305616
1181  2023-11-22 13:55:12.338521
1182  2023-11-22 13:55:12.370470
1183  2023-11-22 13:55:12.402383
1184  2023-11-22 13:55:12.434300
1185  2023-11-22 13:55:12.466180
1186  2023-11-22 13:55:12.498126
1187  2023-11-22 13:55:12.530061
1188  2023-11-22 13:55:12.561962
1189  2023-11-22 13:55:12.593882
1190  2023-11-22 13:55:12.641744
1191  2023-11-22 13:55:12.673625
1192  2023-11-22 13:55:12.706537
1193  2023-11-22 13:55:12.738501
1194  2023-11-22 13:55:12.770403
1195  2023-11-22 13:55:12.802312
1196  2023-11-22 13:55:12.834196
1197  2023-11-22 13:55:12.866111
1198  2023-11-22 13:55:12.898059
1199  2023-11-22 13:55:12.929976
1200  2023-11-22 13:55:12.961895
1201  2023-11-22 13:55:12.993769
1202  2023-11-22 13:55:13.041683
1203  2023-11-22 13:55:13.074553
1204  2023-11-22 13:55:13.106513
1205  2023-11-22 13:55:13.138383
1206  2023-11-22 13:55:13.170297
1207  2023-11-22 13:55:13.202251
1208  2023-11-22 13:55:13.234294
1209  2023-11-22 13:55:13.266198
1210  2023-11-22 13:55:13.298175
1211  2023-11-22 13:55:13.330094
1212  2023-11-22 13:55:13.362016
1213  2023-11-22 13:55:13.409876
1214  2023-11-22 13:55:13.441793
1215  2023-11-22 13:55:13.473688
1216  2023-11-22 13:55:13.505589
1217  2023-11-22 13:55:13.538501
1218  2023-11-22 13:55:13.570416
1219  2023-11-22 13:55:13.602330
1220  2023-11-22 13:55:13.634245
1221  2023-11-22 13:55:13.666160
1222  2023-11-22 13:55:13.698105
1223  2023-11-22 13:55:13.730028
1224  2023-11-22 13:55:13.761947
1225  2023-11-22 13:55:13.809818
1226  2023-11-22 13:55:13.841733
1227  2023-11-22 13:55:13.873605
1228  2023-11-22 13:55:13.906517
1229  2023-11-22 13:55:13.938432
1230  2023-11-22 13:55:13.970347
1231  2023-11-22 13:55:14.002261
1232  2023-11-22 13:55:14.034176
1233  2023-11-22 13:55:14.066090
1234  2023-11-22 13:55:14.098037
1235  2023-11-22 13:55:14.129956
1236  2023-11-22 13:55:14.161866
1237  2023-11-22 13:55:14.209740
1238  2023-11-22 13:55:14.242619
1239  2023-11-22 13:55:14.274561
1240  2023-11-22 13:55:14.306490
1241  2023-11-22 13:55:14.338363
1242  2023-11-22 13:55:14.370277
1243  2023-11-22 13:55:14.402193
1244  2023-11-22 13:55:14.434116
1245  2023-11-22 13:55:14.466067
1246  2023-11-22 13:55:14.498013
1247  2023-11-22 13:55:14.529934
1248  2023-11-22 13:55:14.561844
1249  2023-11-22 13:55:14.609724
1250  2023-11-22 13:55:14.641627
1251  2023-11-22 13:55:14.674510
1252  2023-11-22 13:55:14.705655
1253  2023-11-22 13:55:14.737602
1254  2023-11-22 13:55:14.770481
1255  2023-11-22 13:55:14.802396
1256  2023-11-22 13:55:14.834310
1257  2023-11-22 13:55:14.866225
1258  2023-11-22 13:55:14.898170
1259  2023-11-22 13:55:14.930085
1260  2023-11-22 13:55:14.962005
1261  2023-11-22 13:55:15.009841
1262  2023-11-22 13:55:15.041790
1263  2023-11-22 13:55:15.073754
1264  2023-11-22 13:55:15.105669
1265  2023-11-22 13:55:15.137615
1266  2023-11-22 13:55:15.170496
1267  2023-11-22 13:55:15.202410
1268  2023-11-22 13:55:15.234325
1269  2023-11-22 13:55:15.266240
1270  2023-11-22 13:55:15.298185
1271  2023-11-22 13:55:15.330100
1272  2023-11-22 13:55:15.362014
1273  2023-11-22 13:55:15.409856
1274  2023-11-22 13:55:15.441814
1275  2023-11-22 13:55:15.474684
1276  2023-11-22 13:55:15.505600
1277  2023-11-22 13:55:15.538512
1278  2023-11-22 13:55:15.570459
1279  2023-11-22 13:55:15.602439
1280  2023-11-22 13:55:15.634318
1281  2023-11-22 13:55:15.666232
1282  2023-11-22 13:55:15.698333
1283  2023-11-22 13:55:15.730351
1284  2023-11-22 13:55:15.762264
1285  2023-11-22 13:55:15.810106
1286  2023-11-22 13:55:15.842020
1287  2023-11-22 13:55:15.873935
1288  2023-11-22 13:55:15.905850
1289  2023-11-22 13:55:15.937764
1290  2023-11-22 13:55:15.969679
1291  2023-11-22 13:55:16.002591
1292  2023-11-22 13:55:16.034506
1293  2023-11-22 13:55:16.066420
1294  2023-11-22 13:55:16.098369
1295  2023-11-22 13:55:16.130288
1296  2023-11-22 13:55:16.162200
1297  2023-11-22 13:55:16.210037
1298  2023-11-22 13:55:16.241951
1299  2023-11-22 13:55:16.273866
1300  2023-11-22 13:55:16.306812
1301  2023-11-22 13:55:16.337695
1302  2023-11-22 13:55:16.369610
1303  2023-11-22 13:55:16.402522
1304  2023-11-22 13:55:16.434438
1305  2023-11-22 13:55:16.466351
1306  2023-11-22 13:55:16.498300
1307  2023-11-22 13:55:16.530215
1308  2023-11-22 13:55:16.562133
1309  2023-11-22 13:55:16.609967
1310  2023-11-22 13:55:16.641916
1311  2023-11-22 13:55:16.673797
1312  2023-11-22 13:55:16.705711
1313  2023-11-22 13:55:16.737626
1314  2023-11-22 13:55:16.770540
1315  2023-11-22 13:55:16.802453
1316  2023-11-22 13:55:16.834367
1317  2023-11-22 13:55:16.866282
1318  2023-11-22 13:55:16.898231
1319  2023-11-22 13:55:16.930147
1320  2023-11-22 13:55:16.978016
1321  2023-11-22 13:55:17.009898
1322  2023-11-22 13:55:17.041813
1323  2023-11-22 13:55:17.073727
1324  2023-11-22 13:55:17.105677
1325  2023-11-22 13:55:17.137557
1326  2023-11-22 13:55:17.170469
1327  2023-11-22 13:55:17.202383
1328  2023-11-22 13:55:17.234336
1329  2023-11-22 13:55:17.266213
1330  2023-11-22 13:55:17.298161
1331  2023-11-22 13:55:17.330076
1332  2023-11-22 13:55:17.377915
1333  2023-11-22 13:55:17.409829
1334  2023-11-22 13:55:17.441781
1335  2023-11-22 13:55:17.473658
1336  2023-11-22 13:55:17.505573
1337  2023-11-22 13:55:17.538485
1338  2023-11-22 13:55:17.570399
1339  2023-11-22 13:55:17.602314
1340  2023-11-22 13:55:17.634229
1341  2023-11-22 13:55:17.666143
1342  2023-11-22 13:55:17.698112
1343  2023-11-22 13:55:17.730008
1344  2023-11-22 13:55:17.777845
1345  2023-11-22 13:55:17.809759
1346  2023-11-22 13:55:17.842672
1347  2023-11-22 13:55:17.873589
1348  2023-11-22 13:55:17.906501
1349  2023-11-22 13:55:17.938416
1350  2023-11-22 13:55:17.970330
1351  2023-11-22 13:55:18.002245
1352  2023-11-22 13:55:18.034160
1353  2023-11-22 13:55:18.066074
1354  2023-11-22 13:55:18.098022
1355  2023-11-22 13:55:18.129947
1356  2023-11-22 13:55:18.177776
1357  2023-11-22 13:55:18.209690
1358  2023-11-22 13:55:18.241605
1359  2023-11-22 13:55:18.274517
1360  2023-11-22 13:55:18.306432
1361  2023-11-22 13:55:18.338346
1362  2023-11-22 13:55:18.370261
1363  2023-11-22 13:55:18.402176
1364  2023-11-22 13:55:18.434090
1365  2023-11-22 13:55:18.466005
1366  2023-11-22 13:55:18.497945
1367  2023-11-22 13:55:18.529836
1368  2023-11-22 13:55:18.577707
1369  2023-11-22 13:55:18.609621
1370  2023-11-22 13:55:18.642578
1371  2023-11-22 13:55:18.674448
1372  2023-11-22 13:55:18.706362
1373  2023-11-22 13:55:18.738277
1374  2023-11-22 13:55:18.770192
1375  2023-11-22 13:55:18.802107
1376  2023-11-22 13:55:18.834026
1377  2023-11-22 13:55:18.865936
1378  2023-11-22 13:55:18.897892
1379  2023-11-22 13:55:18.929799
1380  2023-11-22 13:55:18.977675
1381  2023-11-22 13:55:19.010549
1382  2023-11-22 13:55:19.042464
1383  2023-11-22 13:55:19.074379
1384  2023-11-22 13:55:19.106326
1385  2023-11-22 13:55:19.138208
1386  2023-11-22 13:55:19.170123
1387  2023-11-22 13:55:19.202037
1388  2023-11-22 13:55:19.233952
1389  2023-11-22 13:55:19.265867
1390  2023-11-22 13:55:19.297830
1391  2023-11-22 13:55:19.329743
1392  2023-11-22 13:55:19.377568
1393  2023-11-22 13:55:19.410480
1394  2023-11-22 13:55:19.442395
1395  2023-11-22 13:55:19.474309
1396  2023-11-22 13:55:19.506224
1397  2023-11-22 13:55:19.538139
1398  2023-11-22 13:55:19.570053
1399  2023-11-22 13:55:19.601968
1400  2023-11-22 13:55:19.633883
1401  2023-11-22 13:55:19.665797
1402  2023-11-22 13:55:19.697836
1403  2023-11-22 13:55:19.729826
1404  2023-11-22 13:55:19.777751
1405  2023-11-22 13:55:19.809666
1406  2023-11-22 13:55:19.841580
1407  2023-11-22 13:55:19.874492
1408  2023-11-22 13:55:19.906407
1409  2023-11-22 13:55:19.938322
1410  2023-11-22 13:55:19.970236
1411  2023-11-22 13:55:20.002151
1412  2023-11-22 13:55:20.034070
1413  2023-11-22 13:55:20.065981
1414  2023-11-22 13:55:20.097953
1415  2023-11-22 13:55:20.129858
1416  2023-11-22 13:55:20.177804
1417  2023-11-22 13:55:20.209686
1418  2023-11-22 13:55:20.241601
1419  2023-11-22 13:55:20.274516
1420  2023-11-22 13:55:20.306428
1421  2023-11-22 13:55:20.338342
1422  2023-11-22 13:55:20.370257
1423  2023-11-22 13:55:20.402205
1424  2023-11-22 13:55:20.434125
1425  2023-11-22 13:55:20.466001
1426  2023-11-22 13:55:20.497961
1427  2023-11-22 13:55:20.529874
1428  2023-11-22 13:55:20.577702
1429  2023-11-22 13:55:20.609658
1430  2023-11-22 13:55:20.641567
1431  2023-11-22 13:55:20.674444
1432  2023-11-22 13:55:20.706358
1433  2023-11-22 13:55:20.738299
1434  2023-11-22 13:55:20.770220
1435  2023-11-22 13:55:20.802103
1436  2023-11-22 13:55:20.834017
1437  2023-11-22 13:55:20.865932
1438  2023-11-22 13:55:20.897895
1439  2023-11-22 13:55:20.945751
1440  2023-11-22 13:55:20.977678
1441  2023-11-22 13:55:21.010547
1442  2023-11-22 13:55:21.042461
1443  2023-11-22 13:55:21.074376
1444  2023-11-22 13:55:21.106291
1445  2023-11-22 13:55:21.138205
1446  2023-11-22 13:55:21.170121
1447  2023-11-22 13:55:21.202035
1448  2023-11-22 13:55:21.233949
1449  2023-11-22 13:55:21.265864
1450  2023-11-22 13:55:21.297821
1451  2023-11-22 13:55:21.345651
1452  2023-11-22 13:55:21.378563
1453  2023-11-22 13:55:21.410478
1454  2023-11-22 13:55:21.442392
1455  2023-11-22 13:55:21.474307
1456  2023-11-22 13:55:21.506222
1457  2023-11-22 13:55:21.538167
1458  2023-11-22 13:55:21.570051
1459  2023-11-22 13:55:21.601998
1460  2023-11-22 13:55:21.633880
1461  2023-11-22 13:55:21.665795
1462  2023-11-22 13:55:21.697767
1463  2023-11-22 13:55:21.745581
1464  2023-11-22 13:55:21.778538
1465  2023-11-22 13:55:21.810439
1466  2023-11-22 13:55:21.842323
1467  2023-11-22 13:55:21.874238
1468  2023-11-22 13:55:21.906152
1469  2023-11-22 13:55:21.938118
1470  2023-11-22 13:55:21.969982
1471  2023-11-22 13:55:22.001896
1472  2023-11-22 13:55:22.033811
1473  2023-11-22 13:55:22.065757
1474  2023-11-22 13:55:22.097669
1475  2023-11-22 13:55:22.146543
1476  2023-11-22 13:55:22.178424
1477  2023-11-22 13:55:22.210339
1478  2023-11-22 13:55:22.242254
1479  2023-11-22 13:55:22.274207
1480  2023-11-22 13:55:22.306083
1481  2023-11-22 13:55:22.337998
1482  2023-11-22 13:55:22.369912
1483  2023-11-22 13:55:22.401859
1484  2023-11-22 13:55:22.434739
1485  2023-11-22 13:55:22.465656
1486  2023-11-22 13:55:22.497747
1487  2023-11-22 13:55:22.545688
1488  2023-11-22 13:55:22.577603
1489  2023-11-22 13:55:22.610523
1490  2023-11-22 13:55:22.642430
1491  2023-11-22 13:55:22.674344
1492  2023-11-22 13:55:22.706259
1493  2023-11-22 13:55:22.738174
1494  2023-11-22 13:55:22.770088
1495  2023-11-22 13:55:22.802003
1496  2023-11-22 13:55:22.833918
1497  2023-11-22 13:55:22.865832
1498  2023-11-22 13:55:22.897795
1499  2023-11-22 13:55:22.945619
1500  2023-11-22 13:55:22.978532
1501  2023-11-22 13:55:23.010446
1502  2023-11-22 13:55:23.042360
1503  2023-11-22 13:55:23.074304
1504  2023-11-22 13:55:23.106202
1505  2023-11-22 13:55:23.138141
1506  2023-11-22 13:55:23.170021
1507  2023-11-22 13:55:23.201934
1508  2023-11-22 13:55:23.233887
1509  2023-11-22 13:55:23.265801
1510  2023-11-22 13:55:23.297720
1511  2023-11-22 13:55:23.346547
1512  2023-11-22 13:55:23.378462
1513  2023-11-22 13:55:23.410376
1514  2023-11-22 13:55:23.442336
1515  2023-11-22 13:55:23.474307
1516  2023-11-22 13:55:23.506222
1517  2023-11-22 13:55:23.538136
1518  2023-11-22 13:55:23.570081
1519  2023-11-22 13:55:23.601966
1520  2023-11-22 13:55:23.633880
1521  2023-11-22 13:55:23.665795
1522  2023-11-22 13:55:23.697747
1523  2023-11-22 13:55:23.746579
1524  2023-11-22 13:55:23.778494
1525  2023-11-22 13:55:23.810408
1526  2023-11-22 13:55:23.842323
1527  2023-11-22 13:55:23.874238
1528  2023-11-22 13:55:23.906152
1529  2023-11-22 13:55:23.938067
1530  2023-11-22 13:55:23.969982
1531  2023-11-22 13:55:24.001896
1532  2023-11-22 13:55:24.033811
1533  2023-11-22 13:55:24.065726
1534  2023-11-22 13:55:24.097677
1535  2023-11-22 13:55:24.146510
1536  2023-11-22 13:55:24.178424
1537  2023-11-22 13:55:24.210339
1538  2023-11-22 13:55:24.242254
1539  2023-11-22 13:55:24.274349
1540  2023-11-22 13:55:24.306271
1541  2023-11-22 13:55:24.338185
1542  2023-11-22 13:55:24.370100
1543  2023-11-22 13:55:24.402014
1544  2023-11-22 13:55:24.434188
1545  2023-11-22 13:55:24.466102
1546  2023-11-22 13:55:24.498056
1547  2023-11-22 13:55:24.546135
1548  2023-11-22 13:55:24.578050
1549  2023-11-22 13:55:24.609965
1550  2023-11-22 13:55:24.641879
1551  2023-11-22 13:55:24.673794
1552  2023-11-22 13:55:24.705709
1553  2023-11-22 13:55:24.737623
1554  2023-11-22 13:55:24.770536
1555  2023-11-22 13:55:24.802450
1556  2023-11-22 13:55:24.834365
1557  2023-11-22 13:55:24.866280
1558  2023-11-22 13:55:24.914152
1559  2023-11-22 13:55:24.946066
1560  2023-11-22 13:55:24.977981
1561  2023-11-22 13:55:25.009896
1562  2023-11-22 13:55:25.041810
1563  2023-11-22 13:55:25.073725
1564  2023-11-22 13:55:25.105696
1565  2023-11-22 13:55:25.138554
1566  2023-11-22 13:55:25.170466
1567  2023-11-22 13:55:25.202381
1568  2023-11-22 13:55:25.234298
1569  2023-11-22 13:55:25.266213
1570  2023-11-22 13:55:25.314122
1571  2023-11-22 13:55:25.346046
1572  2023-11-22 13:55:25.377912
1573  2023-11-22 13:55:25.409826
1574  2023-11-22 13:55:25.441775
1575  2023-11-22 13:55:25.473699
1576  2023-11-22 13:55:25.506568
1577  2023-11-22 13:55:25.538482
1578  2023-11-22 13:55:25.570397
1579  2023-11-22 13:55:25.602312
1580  2023-11-22 13:55:25.634226
1581  2023-11-22 13:55:25.666141
1582  2023-11-22 13:55:25.714013
1583  2023-11-22 13:55:25.745928
1584  2023-11-22 13:55:25.777843
1585  2023-11-22 13:55:25.809757
1586  2023-11-22 13:55:25.841672
1587  2023-11-22 13:55:25.873586
1588  2023-11-22 13:55:25.906499
1589  2023-11-22 13:55:25.938413
1590  2023-11-22 13:55:25.970328
1591  2023-11-22 13:55:26.002243
1592  2023-11-22 13:55:26.034157
1593  2023-11-22 13:55:26.066072
1594  2023-11-22 13:55:26.113944
1595  2023-11-22 13:55:26.145859
1596  2023-11-22 13:55:26.177773
1597  2023-11-22 13:55:26.209688
1598  2023-11-22 13:55:26.241603
1599  2023-11-22 13:55:26.273616
1600  2023-11-22 13:55:26.306528
1601  2023-11-22 13:55:26.338442
1602  2023-11-22 13:55:26.370357
1603  2023-11-22 13:55:26.402272
1604  2023-11-22 13:55:26.434187
1605  2023-11-22 13:55:26.466101
1606  2023-11-22 13:55:26.513977
1607  2023-11-22 13:55:26.545888
1608  2023-11-22 13:55:26.577802
1609  2023-11-22 13:55:26.609717
1610  2023-11-22 13:55:26.642663
1611  2023-11-22 13:55:26.674544
1612  2023-11-22 13:55:26.706459
1613  2023-11-22 13:55:26.738373
1614  2023-11-22 13:55:26.770293
1615  2023-11-22 13:55:26.802203
1616  2023-11-22 13:55:26.834117
1617  2023-11-22 13:55:26.866032
1618  2023-11-22 13:55:26.913904
1619  2023-11-22 13:55:26.945819
1620  2023-11-22 13:55:26.977766
1621  2023-11-22 13:55:27.009648
1622  2023-11-22 13:55:27.042560
1623  2023-11-22 13:55:27.074475
1624  2023-11-22 13:55:27.106462
1625  2023-11-22 13:55:27.138495
1626  2023-11-22 13:55:27.170410
1627  2023-11-22 13:55:27.202324
1628  2023-11-22 13:55:27.234330
1629  2023-11-22 13:55:27.266245
1630  2023-11-22 13:55:27.314117
1631  2023-11-22 13:55:27.346031
1632  2023-11-22 13:55:27.377946
1633  2023-11-22 13:55:27.409860
1634  2023-11-22 13:55:27.441775
1635  2023-11-22 13:55:27.473690
1636  2023-11-22 13:55:27.506602
1637  2023-11-22 13:55:27.538517
1638  2023-11-22 13:55:27.570431
1639  2023-11-22 13:55:27.602346
1640  2023-11-22 13:55:27.634261
1641  2023-11-22 13:55:27.666175
1642  2023-11-22 13:55:27.714049
1643  2023-11-22 13:55:27.745962
1644  2023-11-22 13:55:27.777877
1645  2023-11-22 13:55:27.809791
1646  2023-11-22 13:55:27.841706
1647  2023-11-22 13:55:27.874618
1648  2023-11-22 13:55:27.906533
1649  2023-11-22 13:55:27.938447
1650  2023-11-22 13:55:27.970362
1651  2023-11-22 13:55:28.002277
1652  2023-11-22 13:55:28.034191
1653  2023-11-22 13:55:28.066106
1654  2023-11-22 13:55:28.114085
1655  2023-11-22 13:55:28.146052
1656  2023-11-22 13:55:28.177949
1657  2023-11-22 13:55:28.209829
1658  2023-11-22 13:55:28.241744
1659  2023-11-22 13:55:28.273660
1660  2023-11-22 13:55:28.306573
1661  2023-11-22 13:55:28.338486
1662  2023-11-22 13:55:28.370400
1663  2023-11-22 13:55:28.402359
1664  2023-11-22 13:55:28.434231
1665  2023-11-22 13:55:28.482103
1666  2023-11-22 13:55:28.514063
1667  2023-11-22 13:55:28.545931
1668  2023-11-22 13:55:28.577845
1669  2023-11-22 13:55:28.609803
1670  2023-11-22 13:55:28.641704
1671  2023-11-22 13:55:28.673589
1672  2023-11-22 13:55:28.706502
1673  2023-11-22 13:55:28.738442
1674  2023-11-22 13:55:28.770355
1675  2023-11-22 13:55:28.802248
1676  2023-11-22 13:55:28.834160
1677  2023-11-22 13:55:28.882032
1678  2023-11-22 13:55:28.913947
1679  2023-11-22 13:55:28.945909
1680  2023-11-22 13:55:28.977815
1681  2023-11-22 13:55:29.009691
1682  2023-11-22 13:55:29.042603
1683  2023-11-22 13:55:29.074518
1684  2023-11-22 13:55:29.106432
1685  2023-11-22 13:55:29.138347
1686  2023-11-22 13:55:29.170262
1687  2023-11-22 13:55:29.202176
1688  2023-11-22 13:55:29.234091
1689  2023-11-22 13:55:29.281963
1690  2023-11-22 13:55:29.313878
1691  2023-11-22 13:55:29.345792
1692  2023-11-22 13:55:29.377707
1693  2023-11-22 13:55:29.409622
1694  2023-11-22 13:55:29.442534
1695  2023-11-22 13:55:29.474448
1696  2023-11-22 13:55:29.506363
1697  2023-11-22 13:55:29.538278
1698  2023-11-22 13:55:29.570192
1699  2023-11-22 13:55:29.602107
1700  2023-11-22 13:55:29.634022
1701  2023-11-22 13:55:29.681894
1702  2023-11-22 13:55:29.714806
1703  2023-11-22 13:55:29.745723
1704  2023-11-22 13:55:29.777638
1705  2023-11-22 13:55:29.810550
1706  2023-11-22 13:55:29.842464
1707  2023-11-22 13:55:29.874379
1708  2023-11-22 13:55:29.906294
1709  2023-11-22 13:55:29.938209
1710  2023-11-22 13:55:29.970123
1711  2023-11-22 13:55:30.002038
1712  2023-11-22 13:55:30.033953
1713  2023-11-22 13:55:30.081825
1714  2023-11-22 13:55:30.113739
1715  2023-11-22 13:55:30.145685
1716  2023-11-22 13:55:30.178566
1717  2023-11-22 13:55:30.210481
1718  2023-11-22 13:55:30.242395
1719  2023-11-22 13:55:30.274341
1720  2023-11-22 13:55:30.306225
1721  2023-11-22 13:55:30.338139
1722  2023-11-22 13:55:30.370054
1723  2023-11-22 13:55:30.402009
1724  2023-11-22 13:55:30.433919
1725  2023-11-22 13:55:30.481938
1726  2023-11-22 13:55:30.513808
1727  2023-11-22 13:55:30.545831
1728  2023-11-22 13:55:30.577746
1729  2023-11-22 13:55:30.609738
1730  2023-11-22 13:55:30.641651
1731  2023-11-22 13:55:30.674539
1732  2023-11-22 13:55:30.706446
1733  2023-11-22 13:55:30.738393
1734  2023-11-22 13:55:30.770275
1735  2023-11-22 13:55:30.802191
1736  2023-11-22 13:55:30.834105
1737  2023-11-22 13:55:30.881977
1738  2023-11-22 13:55:30.913891
1739  2023-11-22 13:55:30.945806
1740  2023-11-22 13:55:30.977725
1741  2023-11-22 13:55:31.009635
1742  2023-11-22 13:55:31.042547
1743  2023-11-22 13:55:31.074462
1744  2023-11-22 13:55:31.106377
1745  2023-11-22 13:55:31.138291
1746  2023-11-22 13:55:31.170206
1747  2023-11-22 13:55:31.202231
1748  2023-11-22 13:55:31.234146
1749  2023-11-22 13:55:31.282018
1750  2023-11-22 13:55:31.314025
1751  2023-11-22 13:55:31.346004
1752  2023-11-22 13:55:31.377919
1753  2023-11-22 13:55:31.409834
1754  2023-11-22 13:55:31.441748
1755  2023-11-22 13:55:31.473827
1756  2023-11-22 13:55:31.505741
1757  2023-11-22 13:55:31.537656
1758  2023-11-22 13:55:31.570568
1759  2023-11-22 13:55:31.602483
1760  2023-11-22 13:55:31.634398
1761  2023-11-22 13:55:31.682388
1762  2023-11-22 13:55:31.714304
1763  2023-11-22 13:55:31.746218
1764  2023-11-22 13:55:31.778133
1765  2023-11-22 13:55:31.810093
1766  2023-11-22 13:55:31.841962
1767  2023-11-22 13:55:31.873877
1768  2023-11-22 13:55:31.905791
1769  2023-11-22 13:55:31.937744
1770  2023-11-22 13:55:31.969621
1771  2023-11-22 13:55:32.002533
1772  2023-11-22 13:55:32.034448
1773  2023-11-22 13:55:32.082320
1774  2023-11-22 13:55:32.114280
1775  2023-11-22 13:55:32.146179
1776  2023-11-22 13:55:32.178064
1777  2023-11-22 13:55:32.209978
1778  2023-11-22 13:55:32.241893
1779  2023-11-22 13:55:32.273838
1780  2023-11-22 13:55:32.305723
1781  2023-11-22 13:55:32.337637
1782  2023-11-22 13:55:32.369625
1783  2023-11-22 13:55:32.402522
1784  2023-11-22 13:55:32.450486
1785  2023-11-22 13:55:32.482399
1786  2023-11-22 13:55:32.514281
1787  2023-11-22 13:55:32.546196
1788  2023-11-22 13:55:32.578111
1789  2023-11-22 13:55:32.610025
1790  2023-11-22 13:55:32.641940
1791  2023-11-22 13:55:32.673854
1792  2023-11-22 13:55:32.705877
1793  2023-11-22 13:55:32.737792
1794  2023-11-22 13:55:32.769706
1795  2023-11-22 13:55:32.801621
1796  2023-11-22 13:55:32.850529
1797  2023-11-22 13:55:32.882405
1798  2023-11-22 13:55:32.914320
1799  2023-11-22 13:55:32.946234
1800  2023-11-22 13:55:32.978149
1801  2023-11-22 13:55:33.010064
1802  2023-11-22 13:55:33.041978
1803  2023-11-22 13:55:33.073893
1804  2023-11-22 13:55:33.106805
1805  2023-11-22 13:55:33.137722
1806  2023-11-22 13:55:33.169637
1807  2023-11-22 13:55:33.202551
1808  2023-11-22 13:55:33.250452
1809  2023-11-22 13:55:33.282336
1810  2023-11-22 13:55:33.314251
1811  2023-11-22 13:55:33.346165
1812  2023-11-22 13:55:33.378080
1813  2023-11-22 13:55:33.409995
1814  2023-11-22 13:55:33.441910
1815  2023-11-22 13:55:33.473824
1816  2023-11-22 13:55:33.505739
1817  2023-11-22 13:55:33.537653
1818  2023-11-22 13:55:33.570565
1819  2023-11-22 13:55:33.602517
1820  2023-11-22 13:55:33.650386
1821  2023-11-22 13:55:33.682299
1822  2023-11-22 13:55:33.714181
1823  2023-11-22 13:55:33.746096
1824  2023-11-22 13:55:33.778046
1825  2023-11-22 13:55:33.809958
1826  2023-11-22 13:55:33.841840
1827  2023-11-22 13:55:33.873755
1828  2023-11-22 13:55:33.905669
1829  2023-11-22 13:55:33.937640
1830  2023-11-22 13:55:33.970496
1831  2023-11-22 13:55:34.002411
1832  2023-11-22 13:55:34.050315
1833  2023-11-22 13:55:34.082197
1834  2023-11-22 13:55:34.114112
1835  2023-11-22 13:55:34.146027
1836  2023-11-22 13:55:34.177943
1837  2023-11-22 13:55:34.209856
1838  2023-11-22 13:55:34.241771
1839  2023-11-22 13:55:34.273685
1840  2023-11-22 13:55:34.306598
1841  2023-11-22 13:55:34.338512
1842  2023-11-22 13:55:34.370427
1843  2023-11-22 13:55:34.402342
1844  2023-11-22 13:55:34.450240
1845  2023-11-22 13:55:34.482175
1846  2023-11-22 13:55:34.514076
1847  2023-11-22 13:55:34.545958
1848  2023-11-22 13:55:34.577973
1849  2023-11-22 13:55:34.609932
1850  2023-11-22 13:55:34.641847
1851  2023-11-22 13:55:34.674723
1852  2023-11-22 13:55:34.706629
1853  2023-11-22 13:55:34.738550
1854  2023-11-22 13:55:34.770491
1855  2023-11-22 13:55:34.802373
1856  2023-11-22 13:55:34.850300
1857  2023-11-22 13:55:34.882160
1858  2023-11-22 13:55:34.914074
1859  2023-11-22 13:55:34.946025
1860  2023-11-22 13:55:34.977942
1861  2023-11-22 13:55:35.009818
1862  2023-11-22 13:55:35.041746
1863  2023-11-22 13:55:35.073648
1864  2023-11-22 13:55:35.106593
1865  2023-11-22 13:55:35.138475
1866  2023-11-22 13:55:35.170389
1867  2023-11-22 13:55:35.202304
1868  2023-11-22 13:55:35.250209
1869  2023-11-22 13:55:35.282091
1870  2023-11-22 13:55:35.314005
1871  2023-11-22 13:55:35.345920
1872  2023-11-22 13:55:35.377835
1873  2023-11-22 13:55:35.409749
1874  2023-11-22 13:55:35.441690
1875  2023-11-22 13:55:35.473579
1876  2023-11-22 13:55:35.506491
1877  2023-11-22 13:55:35.538405
1878  2023-11-22 13:55:35.570320
1879  2023-11-22 13:55:35.603265
1880  2023-11-22 13:55:35.650139
1881  2023-11-22 13:55:35.682023
1882  2023-11-22 13:55:35.713936
1883  2023-11-22 13:55:35.746849
1884  2023-11-22 13:55:35.777881
1885  2023-11-22 13:55:35.810794
1886  2023-11-22 13:55:35.842714
1887  2023-11-22 13:55:35.874645
1888  2023-11-22 13:55:35.905635
1889  2023-11-22 13:55:35.938581
1890  2023-11-22 13:55:35.971566
1891  2023-11-22 13:55:36.019467
1892  2023-11-22 13:55:36.051367
1893  2023-11-22 13:55:36.083295
1894  2023-11-22 13:55:36.115199
1895  2023-11-22 13:55:36.147112
1896  2023-11-22 13:55:36.179027
1897  2023-11-22 13:55:36.210941
1898  2023-11-22 13:55:36.242856
1899  2023-11-22 13:55:36.274811
1900  2023-11-22 13:55:36.306726
1901  2023-11-22 13:55:36.338646
1902  2023-11-22 13:55:36.370526
1903  2023-11-22 13:55:36.418482
1904  2023-11-22 13:55:36.450407
1905  2023-11-22 13:55:36.483324
1906  2023-11-22 13:55:36.515226
1907  2023-11-22 13:55:36.547153
1908  2023-11-22 13:55:36.579059
1909  2023-11-22 13:55:36.610972
1910  2023-11-22 13:55:36.642853
1911  2023-11-22 13:55:36.674801
1912  2023-11-22 13:55:36.706723
1913  2023-11-22 13:55:36.738633
1914  2023-11-22 13:55:36.770543
1915  2023-11-22 13:55:36.818389
1916  2023-11-22 13:55:36.850331
1917  2023-11-22 13:55:36.882212
1918  2023-11-22 13:55:36.914127
1919  2023-11-22 13:55:36.947070
1920  2023-11-22 13:55:36.978954
1921  2023-11-22 13:55:37.010902
1922  2023-11-22 13:55:37.042817
1923  2023-11-22 13:55:37.074729
1924  2023-11-22 13:55:37.106655
1925  2023-11-22 13:55:37.138569
1926  2023-11-22 13:55:37.170472
1927  2023-11-22 13:55:37.218443
1928  2023-11-22 13:55:37.250362
1929  2023-11-22 13:55:37.282242
1930  2023-11-22 13:55:37.314155
1931  2023-11-22 13:55:37.346071
1932  2023-11-22 13:55:37.377985
1933  2023-11-22 13:55:37.410941
1934  2023-11-22 13:55:37.441814
1935  2023-11-22 13:55:37.474752
1936  2023-11-22 13:55:37.506672
1937  2023-11-22 13:55:37.538590
1938  2023-11-22 13:55:37.570507
1939  2023-11-22 13:55:37.618381
1940  2023-11-22 13:55:37.650258
1941  2023-11-22 13:55:37.682173
1942  2023-11-22 13:55:37.714087
1943  2023-11-22 13:55:37.746040
1944  2023-11-22 13:55:37.777955
1945  2023-11-22 13:55:37.809875
1946  2023-11-22 13:55:37.841745
1947  2023-11-22 13:55:37.874688
1948  2023-11-22 13:55:37.906604
1949  2023-11-22 13:55:37.938542
1950  2023-11-22 13:55:37.970433
1951  2023-11-22 13:55:38.018389
1952  2023-11-22 13:55:38.050301
1953  2023-11-22 13:55:38.082215
1954  2023-11-22 13:55:38.114100
1955  2023-11-22 13:55:38.146054
1956  2023-11-22 13:55:38.177929
1957  2023-11-22 13:55:38.209844
1958  2023-11-22 13:55:38.241757
1959  2023-11-22 13:55:38.273702
1960  2023-11-22 13:55:38.306584
1961  2023-11-22 13:55:38.338537
1962  2023-11-22 13:55:38.370452
1963  2023-11-22 13:55:38.417605
1964  2023-11-22 13:55:38.450522
1965  2023-11-22 13:55:38.482435
1966  2023-11-22 13:55:38.514513
1967  2023-11-22 13:55:38.546463
1968  2023-11-22 13:55:38.578375
1969  2023-11-22 13:55:38.610290
1970  2023-11-22 13:55:38.642338
1971  2023-11-22 13:55:38.674256
1972  2023-11-22 13:55:38.706173
1973  2023-11-22 13:55:38.738082
1974  2023-11-22 13:55:38.770005
1975  2023-11-22 13:55:38.817868
1976  2023-11-22 13:55:38.849782
1977  2023-11-22 13:55:38.881665
1978  2023-11-22 13:55:38.914591
1979  2023-11-22 13:55:38.946503
1980  2023-11-22 13:55:38.978434
1981  2023-11-22 13:55:39.010320
1982  2023-11-22 13:55:39.043264
1983  2023-11-22 13:55:39.074180
1984  2023-11-22 13:55:39.106104
1985  2023-11-22 13:55:39.138028
1986  2023-11-22 13:55:39.169927
1987  2023-11-22 13:55:39.217797
1988  2023-11-22 13:55:39.249712
1989  2023-11-22 13:55:39.282631
1990  2023-11-22 13:55:39.314508
1991  2023-11-22 13:55:39.346421
1992  2023-11-22 13:55:39.378336
1993  2023-11-22 13:55:39.410260
1994  2023-11-22 13:55:39.443213
1995  2023-11-22 13:55:39.475068
1996  2023-11-22 13:55:39.506983
1997  2023-11-22 13:55:39.537884
1998  2023-11-22 13:55:39.569812
1999  2023-11-22 13:55:39.617686
2000  2023-11-22 13:55:39.649726
2001  2023-11-22 13:55:39.682613
2002  2023-11-22 13:55:39.715557
2003  2023-11-22 13:55:39.746435
2004  2023-11-22 13:55:39.778397
2005  2023-11-22 13:55:39.810266
2006  2023-11-22 13:55:39.843207
2007  2023-11-22 13:55:39.875132
2008  2023-11-22 13:55:39.907036
2009  2023-11-22 13:55:39.937963
2010  2023-11-22 13:55:39.986957
2011  2023-11-22 13:55:40.018911
2012  2023-11-22 13:55:40.049953
2013  2023-11-22 13:55:40.082844
2014  2023-11-22 13:55:40.114754
2015  2023-11-22 13:55:40.147670
2016  2023-11-22 13:55:40.178588
2017  2023-11-22 13:55:40.210609
2018  2023-11-22 13:55:40.242494
2019  2023-11-22 13:55:40.274408
2020  2023-11-22 13:55:40.307351
2021  2023-11-22 13:55:40.338269
2022  2023-11-22 13:55:40.386150
2023  2023-11-22 13:55:40.418082
2024  2023-11-22 13:55:40.449974
2025  2023-11-22 13:55:40.482864
2026  2023-11-22 13:55:40.514795
2027  2023-11-22 13:55:40.546712
2028  2023-11-22 13:55:40.578594
2029  2023-11-22 13:55:40.610557
2030  2023-11-22 13:55:40.643461
2031  2023-11-22 13:55:40.674339
2032  2023-11-22 13:55:40.706291
2033  2023-11-22 13:55:40.738168
2034  2023-11-22 13:55:40.787073
2035  2023-11-22 13:55:40.817981
2036  2023-11-22 13:55:40.849906
2037  2023-11-22 13:55:40.882814
2038  2023-11-22 13:55:40.914867
2039  2023-11-22 13:55:40.946788
2040  2023-11-22 13:55:40.977698
2041  2023-11-22 13:55:41.009620
2042  2023-11-22 13:55:41.041494
2043  2023-11-22 13:55:41.074474
2044  2023-11-22 13:55:41.106357
2045  2023-11-22 13:55:41.138236
2046  2023-11-22 13:55:41.187136
2047  2023-11-22 13:55:41.218075
2048  2023-11-22 13:55:41.250085
2049  2023-11-22 13:55:41.282008
2050  2023-11-22 13:55:41.313915
2051  2023-11-22 13:55:41.345798
2052  2023-11-22 13:55:41.377770
2053  2023-11-22 13:55:41.409629
2054  2023-11-22 13:55:41.442569
2055  2023-11-22 13:55:41.474490
2056  2023-11-22 13:55:41.506401
2057  2023-11-22 13:55:41.538314
2058  2023-11-22 13:55:41.586189
2059  2023-11-22 13:55:41.618102
2060  2023-11-22 13:55:41.650030
2061  2023-11-22 13:55:41.682898
2062  2023-11-22 13:55:41.714813
2063  2023-11-22 13:55:41.746759
2064  2023-11-22 13:55:41.777644
2065  2023-11-22 13:55:41.810601
2066  2023-11-22 13:55:41.842506
2067  2023-11-22 13:55:41.874420
2068  2023-11-22 13:55:41.906335
2069  2023-11-22 13:55:41.938248
2070  2023-11-22 13:55:41.987136
2071  2023-11-22 13:55:42.018003
2072  2023-11-22 13:55:42.049951
2073  2023-11-22 13:55:42.081882
2074  2023-11-22 13:55:42.114787
2075  2023-11-22 13:55:42.145696
2076  2023-11-22 13:55:42.177610
2077  2023-11-22 13:55:42.210537
2078  2023-11-22 13:55:42.242433
2079  2023-11-22 13:55:42.274347
2080  2023-11-22 13:55:42.306261
2081  2023-11-22 13:55:42.338145
2082  2023-11-22 13:55:42.387055
2083  2023-11-22 13:55:42.417972
2084  2023-11-22 13:55:42.449968
2085  2023-11-22 13:55:42.481956
2086  2023-11-22 13:55:42.513838
2087  2023-11-22 13:55:42.545851
2088  2023-11-22 13:55:42.577765
2089  2023-11-22 13:55:42.609723
2090  2023-11-22 13:55:42.642593
2091  2023-11-22 13:55:42.674565
2092  2023-11-22 13:55:42.706460
2093  2023-11-22 13:55:42.738371
2094  2023-11-22 13:55:42.786242
2095  2023-11-22 13:55:42.818123
2096  2023-11-22 13:55:42.850056
2097  2023-11-22 13:55:42.881984
2098  2023-11-22 13:55:42.913911
2099  2023-11-22 13:55:42.945825
2100  2023-11-22 13:55:42.977727
2101  2023-11-22 13:55:43.009612
2102  2023-11-22 13:55:43.042564
2103  2023-11-22 13:55:43.074481
2104  2023-11-22 13:55:43.106395
2105  2023-11-22 13:55:43.138268
2106  2023-11-22 13:55:43.186181
2107  2023-11-22 13:55:43.218080
2108  2023-11-22 13:55:43.250006
2109  2023-11-22 13:55:43.281926
2110  2023-11-22 13:55:43.313835
2111  2023-11-22 13:55:43.346711
2112  2023-11-22 13:55:43.378657
2113  2023-11-22 13:55:43.410540
2114  2023-11-22 13:55:43.442483
2115  2023-11-22 13:55:43.474420
2116  2023-11-22 13:55:43.506608
2117  2023-11-22 13:55:43.554828
2118  2023-11-22 13:55:43.586788
2119  2023-11-22 13:55:43.618688
2120  2023-11-22 13:55:43.650617
2121  2023-11-22 13:55:43.682527
2122  2023-11-22 13:55:43.714436
2123  2023-11-22 13:55:43.746365
2124  2023-11-22 13:55:43.778270
2125  2023-11-22 13:55:43.810180
2126  2023-11-22 13:55:43.842224
2127  2023-11-22 13:55:43.874178
2128  2023-11-22 13:55:43.906076
2129  2023-11-22 13:55:43.954119
2130  2023-11-22 13:55:43.986015
2131  2023-11-22 13:55:44.017952
2132  2023-11-22 13:55:44.049848
2133  2023-11-22 13:55:44.081771
2134  2023-11-22 13:55:44.113671
2135  2023-11-22 13:55:44.146584
2136  2023-11-22 13:55:44.178505
2137  2023-11-22 13:55:44.210486
2138  2023-11-22 13:55:44.242432
2139  2023-11-22 13:55:44.274316
2140  2023-11-22 13:55:44.306231
2141  2023-11-22 13:55:44.354139
2142  2023-11-22 13:55:44.386053
2143  2023-11-22 13:55:44.417976
2144  2023-11-22 13:55:44.449913
2145  2023-11-22 13:55:44.481975
2146  2023-11-22 13:55:44.513889
2147  2023-11-22 13:55:44.545804
2148  2023-11-22 13:55:44.578711
2149  2023-11-22 13:55:44.609632
2150  2023-11-22 13:55:44.642515
2151  2023-11-22 13:55:44.674465
2152  2023-11-22 13:55:44.706379
2153  2023-11-22 13:55:44.754217
2154  2023-11-22 13:55:44.786165
2155  2023-11-22 13:55:44.818080
2156  2023-11-22 13:55:44.850002
2157  2023-11-22 13:55:44.881926
2158  2023-11-22 13:55:44.913823
2159  2023-11-22 13:55:44.945746
2160  2023-11-22 13:55:44.978621
2161  2023-11-22 13:55:45.010567
2162  2023-11-22 13:55:45.042476
2163  2023-11-22 13:55:45.074391
2164  2023-11-22 13:55:45.106289
2165  2023-11-22 13:55:45.154148
2166  2023-11-22 13:55:45.187097
2167  2023-11-22 13:55:45.218009
2168  2023-11-22 13:55:45.249931
2169  2023-11-22 13:55:45.281847
2170  2023-11-22 13:55:45.313722
2171  2023-11-22 13:55:45.345683
2172  2023-11-22 13:55:45.377594
2173  2023-11-22 13:55:45.410461
2174  2023-11-22 13:55:45.442414
2175  2023-11-22 13:55:45.474325
2176  2023-11-22 13:55:45.506241
2177  2023-11-22 13:55:45.554214
2178  2023-11-22 13:55:45.586131
2179  2023-11-22 13:55:45.618148
2180  2023-11-22 13:55:45.650080
2181  2023-11-22 13:55:45.681946
2182  2023-11-22 13:55:45.713913
2183  2023-11-22 13:55:45.745777
2184  2023-11-22 13:55:45.777729
2185  2023-11-22 13:55:45.810602
2186  2023-11-22 13:55:45.842517
2187  2023-11-22 13:55:45.874464
2188  2023-11-22 13:55:45.906481
2189  2023-11-22 13:55:45.954365
2190  2023-11-22 13:55:45.986238
2191  2023-11-22 13:55:46.018187
2192  2023-11-22 13:55:46.050097
2193  2023-11-22 13:55:46.081978
2194  2023-11-22 13:55:46.114015
2195  2023-11-22 13:55:46.145932
2196  2023-11-22 13:55:46.177851
2197  2023-11-22 13:55:46.209726
2198  2023-11-22 13:55:46.241675
2199  2023-11-22 13:55:46.274593
2200  2023-11-22 13:55:46.306506
2201  2023-11-22 13:55:46.354376
2202  2023-11-22 13:55:46.386264
2203  2023-11-22 13:55:46.418204
2204  2023-11-22 13:55:46.450114
2205  2023-11-22 13:55:46.481998
2206  2023-11-22 13:55:46.513952
2207  2023-11-22 13:55:46.545867
2208  2023-11-22 13:55:46.577788
2209  2023-11-22 13:55:46.609687
2210  2023-11-22 13:55:46.642569
2211  2023-11-22 13:55:46.674547
2212  2023-11-22 13:55:46.706435
2213  2023-11-22 13:55:46.754303
2214  2023-11-22 13:55:46.786229
2215  2023-11-22 13:55:46.818134
2216  2023-11-22 13:55:46.850062
2217  2023-11-22 13:55:46.881929
2218  2023-11-22 13:55:46.914069
2219  2023-11-22 13:55:46.945969
2220  2023-11-22 13:55:46.977853
2221  2023-11-22 13:55:47.009766
2222  2023-11-22 13:55:47.041681
2223  2023-11-22 13:55:47.073635
2224  2023-11-22 13:55:47.106554
2225  2023-11-22 13:55:47.154383
2226  2023-11-22 13:55:47.186295
2227  2023-11-22 13:55:47.218224
2228  2023-11-22 13:55:47.250341
2229  2023-11-22 13:55:47.282331
2230  2023-11-22 13:55:47.314243
2231  2023-11-22 13:55:47.346159
2232  2023-11-22 13:55:47.378074
2233  2023-11-22 13:55:47.409985
2234  2023-11-22 13:55:47.441870
2235  2023-11-22 13:55:47.473824
2236  2023-11-22 13:55:47.521696
2237  2023-11-22 13:55:47.553654
2238  2023-11-22 13:55:47.586605
2239  2023-11-22 13:55:47.618575
2240  2023-11-22 13:55:47.650572
2241  2023-11-22 13:55:47.682458
2242  2023-11-22 13:55:47.714408
2243  2023-11-22 13:55:47.746324
2244  2023-11-22 13:55:47.778234
2245  2023-11-22 13:55:47.810117
2246  2023-11-22 13:55:47.842031
2247  2023-11-22 13:55:47.873977
2248  2023-11-22 13:55:47.921851
2249  2023-11-22 13:55:47.953766
2250  2023-11-22 13:55:47.985648
2251  2023-11-22 13:55:48.018610
2252  2023-11-22 13:55:48.050517
2253  2023-11-22 13:55:48.082389
2254  2023-11-22 13:55:48.114337
2255  2023-11-22 13:55:48.146219
2256  2023-11-22 13:55:48.178151
2257  2023-11-22 13:55:48.210079
2258  2023-11-22 13:55:48.241962
2259  2023-11-22 13:55:48.273914
2260  2023-11-22 13:55:48.322777
2261  2023-11-22 13:55:48.354696
2262  2023-11-22 13:55:48.386689
2263  2023-11-22 13:55:48.418577
2264  2023-11-22 13:55:48.450539
2265  2023-11-22 13:55:48.482437
2266  2023-11-22 13:55:48.514355
2267  2023-11-22 13:55:48.546265
2268  2023-11-22 13:55:48.578179
2269  2023-11-22 13:55:48.610106
2270  2023-11-22 13:55:48.642008
2271  2023-11-22 13:55:48.673941
2272  2023-11-22 13:55:48.721765
2273  2023-11-22 13:55:48.754718
2274  2023-11-22 13:55:48.786602
2275  2023-11-22 13:55:48.818624
2276  2023-11-22 13:55:48.850507
2277  2023-11-22 13:55:48.882452
2278  2023-11-22 13:55:48.914368
2279  2023-11-22 13:55:48.946280
2280  2023-11-22 13:55:48.978196
2281  2023-11-22 13:55:49.010077
2282  2023-11-22 13:55:49.041992
2283  2023-11-22 13:55:49.073961
2284  2023-11-22 13:55:49.121854
2285  2023-11-22 13:55:49.154805
2286  2023-11-22 13:55:49.186711
2287  2023-11-22 13:55:49.218626
2288  2023-11-22 13:55:49.250565
2289  2023-11-22 13:55:49.282480
2290  2023-11-22 13:55:49.314317
2291  2023-11-22 13:55:49.346297
2292  2023-11-22 13:55:49.378211
2293  2023-11-22 13:55:49.410125
2294  2023-11-22 13:55:49.442053
2295  2023-11-22 13:55:49.473957
2296  2023-11-22 13:55:49.521830
2297  2023-11-22 13:55:49.554734
2298  2023-11-22 13:55:49.585655
2299  2023-11-22 13:55:49.618538
2300  2023-11-22 13:55:49.650484
2301  2023-11-22 13:55:49.682395
2302  2023-11-22 13:55:49.714310
2303  2023-11-22 13:55:49.746404
2304  2023-11-22 13:55:49.778138
2305  2023-11-22 13:55:49.810023
2306  2023-11-22 13:55:49.841969
2307  2023-11-22 13:55:49.873885
2308  2023-11-22 13:55:49.921763
2309  2023-11-22 13:55:49.954651
2310  2023-11-22 13:55:49.986591
2311  2023-11-22 13:55:50.018468
2312  2023-11-22 13:55:50.050381
2313  2023-11-22 13:55:50.082328
2314  2023-11-22 13:55:50.114259
2315  2023-11-22 13:55:50.146150
2316  2023-11-22 13:55:50.178083
2317  2023-11-22 13:55:50.209990
2318  2023-11-22 13:55:50.241868
2319  2023-11-22 13:55:50.273813
2320  2023-11-22 13:55:50.321778
2321  2023-11-22 13:55:50.354692
2322  2023-11-22 13:55:50.386607
2323  2023-11-22 13:55:50.418562
2324  2023-11-22 13:55:50.450467
2325  2023-11-22 13:55:50.482381
2326  2023-11-22 13:55:50.514262
2327  2023-11-22 13:55:50.546211
2328  2023-11-22 13:55:50.578127
2329  2023-11-22 13:55:50.610040
2330  2023-11-22 13:55:50.641955
2331  2023-11-22 13:55:50.673927
2332  2023-11-22 13:55:50.721842
2333  2023-11-22 13:55:50.753752
2334  2023-11-22 13:55:50.786665
2335  2023-11-22 13:55:50.818628
2336  2023-11-22 13:55:50.850512
2337  2023-11-22 13:55:50.882490
2338  2023-11-22 13:55:50.914405
2339  2023-11-22 13:55:50.946351
2340  2023-11-22 13:55:50.978264
2341  2023-11-22 13:55:51.010181
2342  2023-11-22 13:55:51.042063
2343  2023-11-22 13:55:51.089937
2344  2023-11-22 13:55:51.121882
2345  2023-11-22 13:55:51.153796
2346  2023-11-22 13:55:51.185873
2347  2023-11-22 13:55:51.218772
2348  2023-11-22 13:55:51.250653
2349  2023-11-22 13:55:51.282601
2350  2023-11-22 13:55:51.314511
2351  2023-11-22 13:55:51.346396
2352  2023-11-22 13:55:51.378347
2353  2023-11-22 13:55:51.410250
2354  2023-11-22 13:55:51.442177
2355  2023-11-22 13:55:51.490050
2356  2023-11-22 13:55:51.521957
2357  2023-11-22 13:55:51.553882
2358  2023-11-22 13:55:51.585758
2359  2023-11-22 13:55:51.617684
2360  2023-11-22 13:55:51.650602
2361  2023-11-22 13:55:51.682497
2362  2023-11-22 13:55:51.714548
2363  2023-11-22 13:55:51.746494
2364  2023-11-22 13:55:51.778408
2365  2023-11-22 13:55:51.810368
2366  2023-11-22 13:55:51.842381
2367  2023-11-22 13:55:51.890220
2368  2023-11-22 13:55:51.922165
2369  2023-11-22 13:55:51.954073
2370  2023-11-22 13:55:51.985964
2371  2023-11-22 13:55:52.017880
2372  2023-11-22 13:55:52.049863
2373  2023-11-22 13:55:52.081878
2374  2023-11-22 13:55:52.113788
2375  2023-11-22 13:55:52.145701
2376  2023-11-22 13:55:52.177623
2377  2023-11-22 13:55:52.210539
2378  2023-11-22 13:55:52.242436
2379  2023-11-22 13:55:52.290283
2380  2023-11-22 13:55:52.322226
2381  2023-11-22 13:55:52.354141
2382  2023-11-22 13:55:52.386058
2383  2023-11-22 13:55:52.417943
2384  2023-11-22 13:55:52.449857
2385  2023-11-22 13:55:52.481802
2386  2023-11-22 13:55:52.513684
2387  2023-11-22 13:55:52.545631
2388  2023-11-22 13:55:52.578558
2389  2023-11-22 13:55:52.610465
2390  2023-11-22 13:55:52.642340
2391  2023-11-22 13:55:52.690234
2392  2023-11-22 13:55:52.722272
2393  2023-11-22 13:55:52.754099
2394  2023-11-22 13:55:52.785958
2395  2023-11-22 13:55:52.818869
2396  2023-11-22 13:55:52.850814
2397  2023-11-22 13:55:52.882697
2398  2023-11-22 13:55:52.913776
2399  2023-11-22 13:55:52.945691
2400  2023-11-22 13:55:52.977710
2401  2023-11-22 13:55:53.009754
2402  2023-11-22 13:55:53.042660
2403  2023-11-22 13:55:53.090529
2404  2023-11-22 13:55:53.122495
2405  2023-11-22 13:55:53.154438
2406  2023-11-22 13:55:53.186362
2407  2023-11-22 13:55:53.218264
2408  2023-11-22 13:55:53.250205
2409  2023-11-22 13:55:53.282184
2410  2023-11-22 13:55:53.314106
2411  2023-11-22 13:55:53.346013
2412  2023-11-22 13:55:53.377953
2413  2023-11-22 13:55:53.409853
2414  2023-11-22 13:55:53.441757
2415  2023-11-22 13:55:53.490652
2416  2023-11-22 13:55:53.521602
2417  2023-11-22 13:55:53.554530
2418  2023-11-22 13:55:53.586489
2419  2023-11-22 13:55:53.618458
2420  2023-11-22 13:55:53.650371
2421  2023-11-22 13:55:53.682251
2422  2023-11-22 13:55:53.714166
2423  2023-11-22 13:55:53.746115
2424  2023-11-22 13:55:53.778027
2425  2023-11-22 13:55:53.809954
2426  2023-11-22 13:55:53.841824
2427  2023-11-22 13:55:53.890736
2428  2023-11-22 13:55:53.921650
2429  2023-11-22 13:55:53.954557
2430  2023-11-22 13:55:53.986474
2431  2023-11-22 13:55:54.018431
2432  2023-11-22 13:55:54.050342
2433  2023-11-22 13:55:54.082255
2434  2023-11-22 13:55:54.114246
2435  2023-11-22 13:55:54.146166
2436  2023-11-22 13:55:54.178086
2437  2023-11-22 13:55:54.209991
2438  2023-11-22 13:55:54.241905
2439  2023-11-22 13:55:54.289745
2440  2023-11-22 13:55:54.321692
2441  2023-11-22 13:55:54.353617
2442  2023-11-22 13:55:54.387484
2443  2023-11-22 13:55:54.418435
2444  2023-11-22 13:55:54.450317
2445  2023-11-22 13:55:54.482236
2446  2023-11-22 13:55:54.514146
2447  2023-11-22 13:55:54.546095
2448  2023-11-22 13:55:54.578002
2449  2023-11-22 13:55:54.609919
2450  2023-11-22 13:55:54.641812
2451  2023-11-22 13:55:54.689811
2452  2023-11-22 13:55:54.722755
2453  2023-11-22 13:55:54.753675
2454  2023-11-22 13:55:54.786582
2455  2023-11-22 13:55:54.818460
2456  2023-11-22 13:55:54.850376
2457  2023-11-22 13:55:54.882323
2458  2023-11-22 13:55:54.914235
2459  2023-11-22 13:55:54.946152
2460  2023-11-22 13:55:54.978073
2461  2023-11-22 13:55:55.009982
2462  2023-11-22 13:55:55.057821
2463  2023-11-22 13:55:55.089737
2464  2023-11-22 13:55:55.121681
2465  2023-11-22 13:55:55.153596
2466  2023-11-22 13:55:55.186521
2467  2023-11-22 13:55:55.218429
2468  2023-11-22 13:55:55.250341
2469  2023-11-22 13:55:55.282249
2470  2023-11-22 13:55:55.314173
2471  2023-11-22 13:55:55.346083
2472  2023-11-22 13:55:55.377998
2473  2023-11-22 13:55:55.409912
2474  2023-11-22 13:55:55.457800
2475  2023-11-22 13:55:55.490700
2476  2023-11-22 13:55:55.521615
2477  2023-11-22 13:55:55.554531
2478  2023-11-22 13:55:55.586442
2479  2023-11-22 13:55:55.618355
2480  2023-11-22 13:55:55.650288
2481  2023-11-22 13:55:55.682183
2482  2023-11-22 13:55:55.714103
2483  2023-11-22 13:55:55.746056
2484  2023-11-22 13:55:55.778032
2485  2023-11-22 13:55:55.809965
2486  2023-11-22 13:55:55.857837
2487  2023-11-22 13:55:55.890751
2488  2023-11-22 13:55:55.921677
2489  2023-11-22 13:55:55.953590
2490  2023-11-22 13:55:55.986462
2491  2023-11-22 13:55:56.018411
2492  2023-11-22 13:55:56.050323
2493  2023-11-22 13:55:56.082206
2494  2023-11-22 13:55:56.114151
2495  2023-11-22 13:55:56.146067
2496  2023-11-22 13:55:56.177980
2497  2023-11-22 13:55:56.209895
2498  2023-11-22 13:55:56.257768
2499  2023-11-22 13:55:56.290694
2500  2023-11-22 13:55:56.322614
2501  2023-11-22 13:55:56.354519
2502  2023-11-22 13:55:56.386434
2503  2023-11-22 13:55:56.418346
2504  2023-11-22 13:55:56.450254
2505  2023-11-22 13:55:56.482171
2506  2023-11-22 13:55:56.514051
2507  2023-11-22 13:55:56.545999
2508  2023-11-22 13:55:56.577915
2509  2023-11-22 13:55:56.609838
2510  2023-11-22 13:55:56.657669
2511  2023-11-22 13:55:56.689622
2512  2023-11-22 13:55:56.722550
2513  2023-11-22 13:55:56.754443
2514  2023-11-22 13:55:56.786354
2515  2023-11-22 13:55:56.818276
2516  2023-11-22 13:55:56.850184
2517  2023-11-22 13:55:56.882103
2518  2023-11-22 13:55:56.914013
2519  2023-11-22 13:55:56.945941
2520  2023-11-22 13:55:56.978841
2521  2023-11-22 13:55:57.010724
2522  2023-11-22 13:55:57.058601
2523  2023-11-22 13:55:57.090547
2524  2023-11-22 13:55:57.122459
2525  2023-11-22 13:55:57.154370
2526  2023-11-22 13:55:57.186284
2527  2023-11-22 13:55:57.218200
2528  2023-11-22 13:55:57.250127
2529  2023-11-22 13:55:57.282045
2530  2023-11-22 13:55:57.313958
2531  2023-11-22 13:55:57.345867
2532  2023-11-22 13:55:57.377778
2533  2023-11-22 13:55:57.410686
2534  2023-11-22 13:55:57.458574
2535  2023-11-22 13:55:57.490481
2536  2023-11-22 13:55:57.522387
2537  2023-11-22 13:55:57.554302
2538  2023-11-22 13:55:57.586221
2539  2023-11-22 13:55:57.618131
2540  2023-11-22 13:55:57.650062
2541  2023-11-22 13:55:57.681967
2542  2023-11-22 13:55:57.713875
2543  2023-11-22 13:55:57.745758
2544  2023-11-22 13:55:57.777709
2545  2023-11-22 13:55:57.810591
2546  2023-11-22 13:55:57.858544
2547  2023-11-22 13:55:57.890444
2548  2023-11-22 13:55:57.922358
2549  2023-11-22 13:55:57.954275
2550  2023-11-22 13:55:57.986192
2551  2023-11-22 13:55:58.018106
2552  2023-11-22 13:55:58.050018
2553  2023-11-22 13:55:58.081945
2554  2023-11-22 13:55:58.113847
2555  2023-11-22 13:55:58.145761
2556  2023-11-22 13:55:58.177676
2557  2023-11-22 13:55:58.210593
2558  2023-11-22 13:55:58.258473
2559  2023-11-22 13:55:58.290380
2560  2023-11-22 13:55:58.322295
2561  2023-11-22 13:55:58.354205
2562  2023-11-22 13:55:58.386119
2563  2023-11-22 13:55:58.418039
2564  2023-11-22 13:55:58.449949
2565  2023-11-22 13:55:58.481864
2566  2023-11-22 13:55:58.513777
2567  2023-11-22 13:55:58.545692
2568  2023-11-22 13:55:58.578605
2569  2023-11-22 13:55:58.626490
2570  2023-11-22 13:55:58.658392
2571  2023-11-22 13:55:58.690307
2572  2023-11-22 13:55:58.722221
2573  2023-11-22 13:55:58.754141
2574  2023-11-22 13:55:58.786061
2575  2023-11-22 13:55:58.817976
2576  2023-11-22 13:55:58.850889
2577  2023-11-22 13:55:58.881804
2578  2023-11-22 13:55:58.913719
2579  2023-11-22 13:55:58.945999
2580  2023-11-22 13:55:58.977955
2581  2023-11-22 13:55:59.025786
2582  2023-11-22 13:55:59.057758
2583  2023-11-22 13:55:59.089661
2584  2023-11-22 13:55:59.122567
2585  2023-11-22 13:55:59.154478
2586  2023-11-22 13:55:59.186386
2587  2023-11-22 13:55:59.218272
2588  2023-11-22 13:55:59.250216
2589  2023-11-22 13:55:59.282138
2590  2023-11-22 13:55:59.314047
2591  2023-11-22 13:55:59.345930
2592  2023-11-22 13:55:59.377879
2593  2023-11-22 13:55:59.425759
2594  2023-11-22 13:55:59.457671
2595  2023-11-22 13:55:59.489616
2596  2023-11-22 13:55:59.522493
2597  2023-11-22 13:55:59.554517
2598  2023-11-22 13:55:59.586428
2599  2023-11-22 13:55:59.618343
2600  2023-11-22 13:55:59.650255
2601  2023-11-22 13:55:59.682169
2602  2023-11-22 13:55:59.714118
2603  2023-11-22 13:55:59.746032
2604  2023-11-22 13:55:59.777987
2605  2023-11-22 13:55:59.825854
2606  2023-11-22 13:55:59.857769
2607  2023-11-22 13:55:59.889678
2608  2023-11-22 13:55:59.921601
2609  2023-11-22 13:55:59.954518
2610  2023-11-22 13:55:59.986415
2611  2023-11-22 13:56:00.018344
2612  2023-11-22 13:56:00.050255
2613  2023-11-22 13:56:00.082169
2614  2023-11-22 13:56:00.114048
2615  2023-11-22 13:56:00.145963
2616  2023-11-22 13:56:00.177911
2617  2023-11-22 13:56:00.225798
2618  2023-11-22 13:56:00.258700
2619  2023-11-22 13:56:00.289626
2620  2023-11-22 13:56:00.322542
2621  2023-11-22 13:56:00.354438
2622  2023-11-22 13:56:00.386351
2623  2023-11-22 13:56:00.418267
2624  2023-11-22 13:56:00.450184
2625  2023-11-22 13:56:00.482111
2626  2023-11-22 13:56:00.513979
2627  2023-11-22 13:56:00.545894
2628  2023-11-22 13:56:00.577843
2629  2023-11-22 13:56:00.625717
2630  2023-11-22 13:56:00.657670
2631  2023-11-22 13:56:00.689671
2632  2023-11-22 13:56:00.722575
2633  2023-11-22 13:56:00.754489
2634  2023-11-22 13:56:00.786409
2635  2023-11-22 13:56:00.818324
2636  2023-11-22 13:56:00.850234
2637  2023-11-22 13:56:00.882147
2638  2023-11-22 13:56:00.914031
2639  2023-11-22 13:56:00.945946
2640  2023-11-22 13:56:00.977862
2641  2023-11-22 13:56:01.025766
2642  2023-11-22 13:56:01.057684
2643  2023-11-22 13:56:01.090585
2644  2023-11-22 13:56:01.122514
2645  2023-11-22 13:56:01.154425
2646  2023-11-22 13:56:01.186337
2647  2023-11-22 13:56:01.218248
2648  2023-11-22 13:56:01.250162
2649  2023-11-22 13:56:01.282083
2650  2023-11-22 13:56:01.313996
2651  2023-11-22 13:56:01.345876
2652  2023-11-22 13:56:01.377821
2653  2023-11-22 13:56:01.425690
2654  2023-11-22 13:56:01.457613
2655  2023-11-22 13:56:01.490538
2656  2023-11-22 13:56:01.522440
2657  2023-11-22 13:56:01.554350
2658  2023-11-22 13:56:01.586266
2659  2023-11-22 13:56:01.618230
2660  2023-11-22 13:56:01.650239
2661  2023-11-22 13:56:01.682158
2662  2023-11-22 13:56:01.714039
2663  2023-11-22 13:56:01.745953
2664  2023-11-22 13:56:01.777867
2665  2023-11-22 13:56:01.825771
2666  2023-11-22 13:56:01.858710
2667  2023-11-22 13:56:01.890568
2668  2023-11-22 13:56:01.922523
2669  2023-11-22 13:56:01.954440
2670  2023-11-22 13:56:01.986418
2671  2023-11-22 13:56:02.018373
2672  2023-11-22 13:56:02.050283
2673  2023-11-22 13:56:02.082201
2674  2023-11-22 13:56:02.114115
2675  2023-11-22 13:56:02.146034
2676  2023-11-22 13:56:02.177910
2677  2023-11-22 13:56:02.225784
2678  2023-11-22 13:56:02.257737
2679  2023-11-22 13:56:02.289648
2680  2023-11-22 13:56:02.322564
2681  2023-11-22 13:56:02.354474
2682  2023-11-22 13:56:02.386386
2683  2023-11-22 13:56:02.418300
2684  2023-11-22 13:56:02.450220
2685  2023-11-22 13:56:02.482131
2686  2023-11-22 13:56:02.514059
2687  2023-11-22 13:56:02.545926
2688  2023-11-22 13:56:02.593843
2689  2023-11-22 13:56:02.625745
2690  2023-11-22 13:56:02.657665
2691  2023-11-22 13:56:02.690574
2692  2023-11-22 13:56:02.722488
2693  2023-11-22 13:56:02.754410
2694  2023-11-22 13:56:02.786315
2695  2023-11-22 13:56:02.818231
2696  2023-11-22 13:56:02.850150
2697  2023-11-22 13:56:02.882028
2698  2023-11-22 13:56:02.913982
2699  2023-11-22 13:56:02.945857
2700  2023-11-22 13:56:02.993766
2701  2023-11-22 13:56:03.026676
2702  2023-11-22 13:56:03.058557
2703  2023-11-22 13:56:03.090505
2704  2023-11-22 13:56:03.122419
2705  2023-11-22 13:56:03.154309
2706  2023-11-22 13:56:03.186247
2707  2023-11-22 13:56:03.218173
2708  2023-11-22 13:56:03.250079
2709  2023-11-22 13:56:03.281959
2710  2023-11-22 13:56:03.314905
2711  2023-11-22 13:56:03.345788
2712  2023-11-22 13:56:03.393706
2713  2023-11-22 13:56:03.426632
2714  2023-11-22 13:56:03.458541
2715  2023-11-22 13:56:03.490440
2716  2023-11-22 13:56:03.522355
2717  2023-11-22 13:56:03.554268
2718  2023-11-22 13:56:03.586183
2719  2023-11-22 13:56:03.618085
2720  2023-11-22 13:56:03.650018
2721  2023-11-22 13:56:03.681957
2722  2023-11-22 13:56:03.713839
2723  2023-11-22 13:56:03.745718
2724  2023-11-22 13:56:03.793626
2725  2023-11-22 13:56:03.826545
2726  2023-11-22 13:56:03.858446
2727  2023-11-22 13:56:03.890361
2728  2023-11-22 13:56:03.922281
2729  2023-11-22 13:56:03.954193
2730  2023-11-22 13:56:03.986120
2731  2023-11-22 13:56:04.018029
2732  2023-11-22 13:56:04.049958
2733  2023-11-22 13:56:04.081820
2734  2023-11-22 13:56:04.113769
2735  2023-11-22 13:56:04.146647
2736  2023-11-22 13:56:04.194558
2737  2023-11-22 13:56:04.226467
2738  2023-11-22 13:56:04.258384
2739  2023-11-22 13:56:04.290296
2740  2023-11-22 13:56:04.322315
2741  2023-11-22 13:56:04.354229
2742  2023-11-22 13:56:04.386259
2743  2023-11-22 13:56:04.418159
2744  2023-11-22 13:56:04.450081
2745  2023-11-22 13:56:04.481957
2746  2023-11-22 13:56:04.513872
2747  2023-11-22 13:56:04.545787
2748  2023-11-22 13:56:04.593700
2749  2023-11-22 13:56:04.626571
2750  2023-11-22 13:56:04.658540
2751  2023-11-22 13:56:04.690441
2752  2023-11-22 13:56:04.722350
2753  2023-11-22 13:56:04.754270
2754  2023-11-22 13:56:04.786174
2755  2023-11-22 13:56:04.818116
2756  2023-11-22 13:56:04.849978
2757  2023-11-22 13:56:04.881888
2758  2023-11-22 13:56:04.913803
2759  2023-11-22 13:56:04.945717
2760  2023-11-22 13:56:04.993621
2761  2023-11-22 13:56:05.026547
2762  2023-11-22 13:56:05.058454
2763  2023-11-22 13:56:05.090372
2764  2023-11-22 13:56:05.122279
2765  2023-11-22 13:56:05.154196
2766  2023-11-22 13:56:05.186110
2767  2023-11-22 13:56:05.218030
2768  2023-11-22 13:56:05.249948
2769  2023-11-22 13:56:05.281975
2770  2023-11-22 13:56:05.313889
2771  2023-11-22 13:56:05.345767
2772  2023-11-22 13:56:05.393688
2773  2023-11-22 13:56:05.426595
2774  2023-11-22 13:56:05.458503
2775  2023-11-22 13:56:05.490418
2776  2023-11-22 13:56:05.522333
2777  2023-11-22 13:56:05.554241
2778  2023-11-22 13:56:05.586156
2779  2023-11-22 13:56:05.618073
2780  2023-11-22 13:56:05.649985
2781  2023-11-22 13:56:05.681870
2782  2023-11-22 13:56:05.713785
2783  2023-11-22 13:56:05.745699
2784  2023-11-22 13:56:05.794605
2785  2023-11-22 13:56:05.826543
2786  2023-11-22 13:56:05.858440
2787  2023-11-22 13:56:05.890361
2788  2023-11-22 13:56:05.922261
2789  2023-11-22 13:56:05.954175
2790  2023-11-22 13:56:05.986106
2791  2023-11-22 13:56:06.018027
2792  2023-11-22 13:56:06.049926
2793  2023-11-22 13:56:06.081801
2794  2023-11-22 13:56:06.113716
2795  2023-11-22 13:56:06.161637
2796  2023-11-22 13:56:06.194538
2797  2023-11-22 13:56:06.226450
2798  2023-11-22 13:56:06.258360
2799  2023-11-22 13:56:06.290275
2800  2023-11-22 13:56:06.322199
2801  2023-11-22 13:56:06.354103
2802  2023-11-22 13:56:06.386023
2803  2023-11-22 13:56:06.417951
2804  2023-11-22 13:56:06.449847
2805  2023-11-22 13:56:06.481768
2806  2023-11-22 13:56:06.513647
2807  2023-11-22 13:56:06.562554
2808  2023-11-22 13:56:06.594468
2809  2023-11-22 13:56:06.626345
2810  2023-11-22 13:56:06.658292
2811  2023-11-22 13:56:06.690207
2812  2023-11-22 13:56:06.722126
2813  2023-11-22 13:56:06.754030
2814  2023-11-22 13:56:06.785945
2815  2023-11-22 13:56:06.817882
2816  2023-11-22 13:56:06.849778
2817  2023-11-22 13:56:06.881662
2818  2023-11-22 13:56:06.914574
2819  2023-11-22 13:56:06.962446
2820  2023-11-22 13:56:06.994392
2821  2023-11-22 13:56:07.026313
2822  2023-11-22 13:56:07.058224
2823  2023-11-22 13:56:07.090140
2824  2023-11-22 13:56:07.122062
2825  2023-11-22 13:56:07.153958
2826  2023-11-22 13:56:07.185885
2827  2023-11-22 13:56:07.218761
2828  2023-11-22 13:56:07.249722
2829  2023-11-22 13:56:07.282591
2830  2023-11-22 13:56:07.314536
2831  2023-11-22 13:56:07.362409
2832  2023-11-22 13:56:07.394323
2833  2023-11-22 13:56:07.426236
2834  2023-11-22 13:56:07.458146
2835  2023-11-22 13:56:07.490071
2836  2023-11-22 13:56:07.521982
2837  2023-11-22 13:56:07.553896
2838  2023-11-22 13:56:07.585863
2839  2023-11-22 13:56:07.617811
2840  2023-11-22 13:56:07.649758
2841  2023-11-22 13:56:07.681639
2842  2023-11-22 13:56:07.713619
2843  2023-11-22 13:56:07.762518
2844  2023-11-22 13:56:07.794442
2845  2023-11-22 13:56:07.826355
2846  2023-11-22 13:56:07.858233
2847  2023-11-22 13:56:07.890185
2848  2023-11-22 13:56:07.922088
2849  2023-11-22 13:56:07.954030
2850  2023-11-22 13:56:07.985892
2851  2023-11-22 13:56:08.017844
2852  2023-11-22 13:56:08.049760
2853  2023-11-22 13:56:08.082633
2854  2023-11-22 13:56:08.113601
2855  2023-11-22 13:56:08.162446
2856  2023-11-22 13:56:08.194371
2857  2023-11-22 13:56:08.226279
2858  2023-11-22 13:56:08.258196
2859  2023-11-22 13:56:08.290110
2860  2023-11-22 13:56:08.322037
2861  2023-11-22 13:56:08.353963
2862  2023-11-22 13:56:08.385866
2863  2023-11-22 13:56:08.417772
2864  2023-11-22 13:56:08.449698
2865  2023-11-22 13:56:08.482564
2866  2023-11-22 13:56:08.514478
2867  2023-11-22 13:56:08.562387
2868  2023-11-22 13:56:08.594296
2869  2023-11-22 13:56:08.626212
2870  2023-11-22 13:56:08.658139
2871  2023-11-22 13:56:08.690042
2872  2023-11-22 13:56:08.721960
2873  2023-11-22 13:56:08.753839
2874  2023-11-22 13:56:08.785802
2875  2023-11-22 13:56:08.817722
2876  2023-11-22 13:56:08.849626
2877  2023-11-22 13:56:08.882494
2878  2023-11-22 13:56:08.914409
2879  2023-11-22 13:56:08.962319
2880  2023-11-22 13:56:08.994224
2881  2023-11-22 13:56:09.026155
2882  2023-11-22 13:56:09.058072
2883  2023-11-22 13:56:09.089941
2884  2023-11-22 13:56:09.121891
2885  2023-11-22 13:56:09.153799
2886  2023-11-22 13:56:09.186714
2887  2023-11-22 13:56:09.217629
2888  2023-11-22 13:56:09.250566
2889  2023-11-22 13:56:09.282425
2890  2023-11-22 13:56:09.314378
2891  2023-11-22 13:56:09.362249
2892  2023-11-22 13:56:09.394164
2893  2023-11-22 13:56:09.426080
2894  2023-11-22 13:56:09.457994
2895  2023-11-22 13:56:09.489911
2896  2023-11-22 13:56:09.521816
2897  2023-11-22 13:56:09.553740
2898  2023-11-22 13:56:09.585649
2899  2023-11-22 13:56:09.618564
2900  2023-11-22 13:56:09.650441
2901  2023-11-22 13:56:09.682357
2902  2023-11-22 13:56:09.714271
2903  2023-11-22 13:56:09.762143
2904  2023-11-22 13:56:09.794058
2905  2023-11-22 13:56:09.825972
2906  2023-11-22 13:56:09.857887
2907  2023-11-22 13:56:09.890800
2908  2023-11-22 13:56:09.921747
2909  2023-11-22 13:56:09.953667
2910  2023-11-22 13:56:09.986575
2911  2023-11-22 13:56:10.018512
2912  2023-11-22 13:56:10.050409
2913  2023-11-22 13:56:10.082287
2914  2023-11-22 13:56:10.130195
2915  2023-11-22 13:56:10.162106
2916  2023-11-22 13:56:10.194031
2917  2023-11-22 13:56:10.225941
2918  2023-11-22 13:56:10.257859
2919  2023-11-22 13:56:10.290771
2920  2023-11-22 13:56:10.322678
2921  2023-11-22 13:56:10.353596
2922  2023-11-22 13:56:10.386506
2923  2023-11-22 13:56:10.418420
2924  2023-11-22 13:56:10.450334
2925  2023-11-22 13:56:10.482244
2926  2023-11-22 13:56:10.530115
2927  2023-11-22 13:56:10.562044
2928  2023-11-22 13:56:10.593962
2929  2023-11-22 13:56:10.625867
2930  2023-11-22 13:56:10.657792
2931  2023-11-22 13:56:10.690699
2932  2023-11-22 13:56:10.721615
2933  2023-11-22 13:56:10.754546
2934  2023-11-22 13:56:10.786438
2935  2023-11-22 13:56:10.818357
2936  2023-11-22 13:56:10.850268
2937  2023-11-22 13:56:10.882148
2938  2023-11-22 13:56:10.930059
2939  2023-11-22 13:56:10.961961
2940  2023-11-22 13:56:10.993890
2941  2023-11-22 13:56:11.025794
2942  2023-11-22 13:56:11.058678
2943  2023-11-22 13:56:11.089639
2944  2023-11-22 13:56:11.122539
2945  2023-11-22 13:56:11.154455
2946  2023-11-22 13:56:11.186336
2947  2023-11-22 13:56:11.218436
2948  2023-11-22 13:56:11.250348
2949  2023-11-22 13:56:11.282313
2950  2023-11-22 13:56:11.330219
2951  2023-11-22 13:56:11.362145
2952  2023-11-22 13:56:11.394169
2953  2023-11-22 13:56:11.426098
2954  2023-11-22 13:56:11.457990
2955  2023-11-22 13:56:11.489928
2956  2023-11-22 13:56:11.522808
2957  2023-11-22 13:56:11.553725
2958  2023-11-22 13:56:11.585670
2959  2023-11-22 13:56:11.617647
2960  2023-11-22 13:56:11.650531
2961  2023-11-22 13:56:11.682476
2962  2023-11-22 13:56:11.730353
2963  2023-11-22 13:56:11.762269
2964  2023-11-22 13:56:11.794178
2965  2023-11-22 13:56:11.826097
2966  2023-11-22 13:56:11.858002
2967  2023-11-22 13:56:11.889921
2968  2023-11-22 13:56:11.921839
2969  2023-11-22 13:56:11.953756
2970  2023-11-22 13:56:11.985675
2971  2023-11-22 13:56:12.018577
2972  2023-11-22 13:56:12.050575
2973  2023-11-22 13:56:12.082477
2974  2023-11-22 13:56:12.130385
2975  2023-11-22 13:56:12.162298
2976  2023-11-22 13:56:12.194216
2977  2023-11-22 13:56:12.226124
2978  2023-11-22 13:56:12.258044
2979  2023-11-22 13:56:12.289964
2980  2023-11-22 13:56:12.321842
2981  2023-11-22 13:56:12.353789
2982  2023-11-22 13:56:12.385713
2983  2023-11-22 13:56:12.417623
2984  2023-11-22 13:56:12.450538
2985  2023-11-22 13:56:12.482408
2986  2023-11-22 13:56:12.530313
2987  2023-11-22 13:56:12.562228
2988  2023-11-22 13:56:12.594136
2989  2023-11-22 13:56:12.626064
2990  2023-11-22 13:56:12.657973
2991  2023-11-22 13:56:12.689890
2992  2023-11-22 13:56:12.721805
2993  2023-11-22 13:56:12.753825
2994  2023-11-22 13:56:12.785800
2995  2023-11-22 13:56:12.817723
2996  2023-11-22 13:56:12.850595
2997  2023-11-22 13:56:12.882507
2998  2023-11-22 13:56:12.930405
2999  2023-11-22 13:56:12.962328
3000  2023-11-22 13:56:12.994241
3001  2023-11-22 13:56:13.027122
3002  2023-11-22 13:56:13.058080
3003  2023-11-22 13:56:13.090014
3004  2023-11-22 13:56:13.121911
3005  2023-11-22 13:56:13.153859
3006  2023-11-22 13:56:13.186737
3007  2023-11-22 13:56:13.217761
3008  2023-11-22 13:56:13.249666
3009  2023-11-22 13:56:13.282544
3010  2023-11-22 13:56:13.330466
3011  2023-11-22 13:56:13.362382
3012  2023-11-22 13:56:13.394389
3013  2023-11-22 13:56:13.426291
3014  2023-11-22 13:56:13.458214
3015  2023-11-22 13:56:13.490128
3016  2023-11-22 13:56:13.522044
3017  2023-11-22 13:56:13.553957
3018  2023-11-22 13:56:13.585876
3019  2023-11-22 13:56:13.617788
3020  2023-11-22 13:56:13.650697
3021  2023-11-22 13:56:13.682580
3022  2023-11-22 13:56:13.730486
3023  2023-11-22 13:56:13.762399
3024  2023-11-22 13:56:13.794313
3025  2023-11-22 13:56:13.826221
3026  2023-11-22 13:56:13.858165
3027  2023-11-22 13:56:13.890145
3028  2023-11-22 13:56:13.922056
3029  2023-11-22 13:56:13.953972
3030  2023-11-22 13:56:13.985919
3031  2023-11-22 13:56:14.017832
3032  2023-11-22 13:56:14.050712
3033  2023-11-22 13:56:14.098584
3034  2023-11-22 13:56:14.130522
3035  2023-11-22 13:56:14.162480
3036  2023-11-22 13:56:14.194400
3037  2023-11-22 13:56:14.226314
3038  2023-11-22 13:56:14.258229
3039  2023-11-22 13:56:14.290141
3040  2023-11-22 13:56:14.322064
3041  2023-11-22 13:56:14.353974
3042  2023-11-22 13:56:14.386853
3043  2023-11-22 13:56:14.418800
3044  2023-11-22 13:56:14.449713
3045  2023-11-22 13:56:14.497695
3046  2023-11-22 13:56:14.529617
3047  2023-11-22 13:56:14.562505
3048  2023-11-22 13:56:14.594439
3049  2023-11-22 13:56:14.626350
3050  2023-11-22 13:56:14.658262
3051  2023-11-22 13:56:14.690150
3052  2023-11-22 13:56:14.722107
3053  2023-11-22 13:56:14.754081
3054  2023-11-22 13:56:14.786236
3055  2023-11-22 13:56:14.818151
3056  2023-11-22 13:56:14.850080
3057  2023-11-22 13:56:14.898072
3058  2023-11-22 13:56:14.929966
3059  2023-11-22 13:56:14.961887
3060  2023-11-22 13:56:14.993790
3061  2023-11-22 13:56:15.026704
3062  2023-11-22 13:56:15.057623
3063  2023-11-22 13:56:15.090555
3064  2023-11-22 13:56:15.122450
3065  2023-11-22 13:56:15.154363
3066  2023-11-22 13:56:15.186278
3067  2023-11-22 13:56:15.218191
3068  2023-11-22 13:56:15.250109
3069  2023-11-22 13:56:15.297981
3070  2023-11-22 13:56:15.329903
3071  2023-11-22 13:56:15.361827
3072  2023-11-22 13:56:15.393820
3073  2023-11-22 13:56:15.426716
3074  2023-11-22 13:56:15.458634
3075  2023-11-22 13:56:15.490561
3076  2023-11-22 13:56:15.522463
3077  2023-11-22 13:56:15.554379
3078  2023-11-22 13:56:15.586293
3079  2023-11-22 13:56:15.618206
3080  2023-11-22 13:56:15.650121
3081  2023-11-22 13:56:15.698000
3082  2023-11-22 13:56:15.729907
3083  2023-11-22 13:56:15.762819
3084  2023-11-22 13:56:15.793865
3085  2023-11-22 13:56:15.825841
3086  2023-11-22 13:56:15.857821
3087  2023-11-22 13:56:15.890726
3088  2023-11-22 13:56:15.922644
3089  2023-11-22 13:56:15.954568
3090  2023-11-22 13:56:15.986442
3091  2023-11-22 13:56:16.018356
3092  2023-11-22 13:56:16.050306
3093  2023-11-22 13:56:16.098214
3094  2023-11-22 13:56:16.130234
3095  2023-11-22 13:56:16.162151
3096  2023-11-22 13:56:16.194034
3097  2023-11-22 13:56:16.225992
3098  2023-11-22 13:56:16.257901
3099  2023-11-22 13:56:16.289805
3100  2023-11-22 13:56:16.321724
3101  2023-11-22 13:56:16.353688
3102  2023-11-22 13:56:16.385757
3103  2023-11-22 13:56:16.417633
3104  2023-11-22 13:56:16.450581
3105  2023-11-22 13:56:16.498494
3106  2023-11-22 13:56:16.530411
3107  2023-11-22 13:56:16.562355
3108  2023-11-22 13:56:16.594279
3109  2023-11-22 13:56:16.626186
3110  2023-11-22 13:56:16.658099
3111  2023-11-22 13:56:16.690026
3112  2023-11-22 13:56:16.721957
3113  2023-11-22 13:56:16.753849
3114  2023-11-22 13:56:16.785769
3115  2023-11-22 13:56:16.817691
3116  2023-11-22 13:56:16.850585
3117  2023-11-22 13:56:16.898471
3118  2023-11-22 13:56:16.930375
3119  2023-11-22 13:56:16.962281
3120  2023-11-22 13:56:16.994206
3121  2023-11-22 13:56:17.026130
3122  2023-11-22 13:56:17.058002
3123  2023-11-22 13:56:17.089961
3124  2023-11-22 13:56:17.121873
3125  2023-11-22 13:56:17.153774
3126  2023-11-22 13:56:17.186698
3127  2023-11-22 13:56:17.218570
3128  2023-11-22 13:56:17.250517
3129  2023-11-22 13:56:17.298402
3130  2023-11-22 13:56:17.330391
3131  2023-11-22 13:56:17.362307
3132  2023-11-22 13:56:17.394225
3133  2023-11-22 13:56:17.426136
3134  2023-11-22 13:56:17.458065
3135  2023-11-22 13:56:17.489971
3136  2023-11-22 13:56:17.521881
3137  2023-11-22 13:56:17.553794
3138  2023-11-22 13:56:17.585708
3139  2023-11-22 13:56:17.618625
3140  2023-11-22 13:56:17.666533
3141  2023-11-22 13:56:17.698524
3142  2023-11-22 13:56:17.730549
3143  2023-11-22 13:56:17.762578
3144  2023-11-22 13:56:17.794492
3145  2023-11-22 13:56:17.826403
3146  2023-11-22 13:56:17.859310
3147  2023-11-22 13:56:17.890279
3148  2023-11-22 13:56:17.922225
3149  2023-11-22 13:56:17.954106
3150  2023-11-22 13:56:17.986021
3151  2023-11-22 13:56:18.017936
3152  2023-11-22 13:56:18.065809
3153  2023-11-22 13:56:18.098754
3154  2023-11-22 13:56:18.129668
3155  2023-11-22 13:56:18.162551
3156  2023-11-22 13:56:18.194465
3157  2023-11-22 13:56:18.226379
3158  2023-11-22 13:56:18.258045
3159  2023-11-22 13:56:18.289963
3160  2023-11-22 13:56:18.321839
3161  2023-11-22 13:56:18.353754
3162  2023-11-22 13:56:18.385730
3163  2023-11-22 13:56:18.418664
3164  2023-11-22 13:56:18.466484
3165  2023-11-22 13:56:18.498111
3166  2023-11-22 13:56:18.530012
3167  2023-11-22 13:56:18.561926
3168  2023-11-22 13:56:18.593895
3169  2023-11-22 13:56:18.625869
3170  2023-11-22 13:56:18.657849
3171  2023-11-22 13:56:18.689802
3172  2023-11-22 13:56:18.721718
3173  2023-11-22 13:56:18.754626
3174  2023-11-22 13:56:18.786539
3175  2023-11-22 13:56:18.818443
3176  2023-11-22 13:56:18.866287
3177  2023-11-22 13:56:18.898345
3178  2023-11-22 13:56:18.930148
3179  2023-11-22 13:56:18.962072
3180  2023-11-22 13:56:18.993987
3181  2023-11-22 13:56:19.025892
3182  2023-11-22 13:56:19.058821
3183  2023-11-22 13:56:19.089856
3184  2023-11-22 13:56:19.121772
3185  2023-11-22 13:56:19.153676
3186  2023-11-22 13:56:19.186557
3187  2023-11-22 13:56:19.219528
3188  2023-11-22 13:56:19.266361
3189  2023-11-22 13:56:19.298291
3190  2023-11-22 13:56:19.330204
3191  2023-11-22 13:56:19.362118
3192  2023-11-22 13:56:19.395033
3193  2023-11-22 13:56:19.425962
3194  2023-11-22 13:56:19.457955
3195  2023-11-22 13:56:19.489859
3196  2023-11-22 13:56:19.522783
3197  2023-11-22 13:56:19.553781
3198  2023-11-22 13:56:19.585781
3199  2023-11-22 13:56:19.618656
3200  2023-11-22 13:56:19.666528
3201  2023-11-22 13:56:19.698486
3202  2023-11-22 13:56:19.730467
3203  2023-11-22 13:56:19.762383
3204  2023-11-22 13:56:19.794300
3205  2023-11-22 13:56:19.826207
3206  2023-11-22 13:56:19.858128
3207  2023-11-22 13:56:19.890041
3208  2023-11-22 13:56:19.921959
3209  2023-11-22 13:56:19.953878
3210  2023-11-22 13:56:19.985786
3211  2023-11-22 13:56:20.017706
3212  2023-11-22 13:56:20.066538
3213  2023-11-22 13:56:20.098602
3214  2023-11-22 13:56:20.130545
3215  2023-11-22 13:56:20.162466
3216  2023-11-22 13:56:20.194527
3217  2023-11-22 13:56:20.226441
3218  2023-11-22 13:56:20.258363
3219  2023-11-22 13:56:20.291255
3220  2023-11-22 13:56:20.322172
3221  2023-11-22 13:56:20.354080
3222  2023-11-22 13:56:20.385970
3223  2023-11-22 13:56:20.417914
3224  2023-11-22 13:56:20.465755
3225  2023-11-22 13:56:20.497704
3226  2023-11-22 13:56:20.530618
3227  2023-11-22 13:56:20.562527
3228  2023-11-22 13:56:20.594477
3229  2023-11-22 13:56:20.626383
3230  2023-11-22 13:56:20.658273
3231  2023-11-22 13:56:20.690192
3232  2023-11-22 13:56:20.723099
3233  2023-11-22 13:56:20.754035
3234  2023-11-22 13:56:20.787925
3235  2023-11-22 13:56:20.819842
3236  2023-11-22 13:56:20.867715
3237  2023-11-22 13:56:20.899630
3238  2023-11-22 13:56:20.931544
3239  2023-11-22 13:56:20.963461
3240  2023-11-22 13:56:20.995375
3241  2023-11-22 13:56:21.028296
3242  2023-11-22 13:56:21.060167
3243  2023-11-22 13:56:21.092110
3244  2023-11-22 13:56:21.123034
3245  2023-11-22 13:56:21.154946
3246  2023-11-22 13:56:21.187859
3247  2023-11-22 13:56:21.219770
3248  2023-11-22 13:56:21.267642
3249  2023-11-22 13:56:21.299570
3250  2023-11-22 13:56:21.331480
3251  2023-11-22 13:56:21.363389
3252  2023-11-22 13:56:21.395316
3253  2023-11-22 13:56:21.428211
3254  2023-11-22 13:56:21.459145
3255  2023-11-22 13:56:21.491046
3256  2023-11-22 13:56:21.522955
3257  2023-11-22 13:56:21.555886
3258  2023-11-22 13:56:21.586805
3259  2023-11-22 13:56:21.635628
3260  2023-11-22 13:56:21.667573
3261  2023-11-22 13:56:21.699493
3262  2023-11-22 13:56:21.731417
3263  2023-11-22 13:56:21.763332
3264  2023-11-22 13:56:21.795365
3265  2023-11-22 13:56:21.827268
3266  2023-11-22 13:56:21.859260
3267  2023-11-22 13:56:21.891232
3268  2023-11-22 13:56:21.923239
3269  2023-11-22 13:56:21.955137
3270  2023-11-22 13:56:21.987060
3271  2023-11-22 13:56:22.034918
3272  2023-11-22 13:56:22.066843
3273  2023-11-22 13:56:22.098751
3274  2023-11-22 13:56:22.130667
3275  2023-11-22 13:56:22.162590
3276  2023-11-22 13:56:22.195498
3277  2023-11-22 13:56:22.227413
3278  2023-11-22 13:56:22.259327
3279  2023-11-22 13:56:22.291241
3280  2023-11-22 13:56:22.323156
3281  2023-11-22 13:56:22.355080
3282  2023-11-22 13:56:22.386985
3283  2023-11-22 13:56:22.434852
3284  2023-11-22 13:56:22.466768
3285  2023-11-22 13:56:22.498685
3286  2023-11-22 13:56:22.530601
3287  2023-11-22 13:56:22.562512
3288  2023-11-22 13:56:22.595424
3289  2023-11-22 13:56:22.626346
3290  2023-11-22 13:56:22.659253
3291  2023-11-22 13:56:22.691169
3292  2023-11-22 13:56:22.723083
3293  2023-11-22 13:56:22.754997
3294  2023-11-22 13:56:22.786914
3295  2023-11-22 13:56:22.834815
3296  2023-11-22 13:56:22.866699
3297  2023-11-22 13:56:22.898619
3298  2023-11-22 13:56:22.930553
3299  2023-11-22 13:56:22.962451
3300  2023-11-22 13:56:22.994363
3301  2023-11-22 13:56:23.026274
3302  2023-11-22 13:56:23.059193
3303  2023-11-22 13:56:23.091108
3304  2023-11-22 13:56:23.123019
3305  2023-11-22 13:56:23.154930
3306  2023-11-22 13:56:23.186821
3307  2023-11-22 13:56:23.234758
3308  2023-11-22 13:56:23.267684
3309  2023-11-22 13:56:23.298606
3310  2023-11-22 13:56:23.330541
3311  2023-11-22 13:56:23.362438
3312  2023-11-22 13:56:23.395342
3313  2023-11-22 13:56:23.426247
3314  2023-11-22 13:56:23.458297
3315  2023-11-22 13:56:23.490218
3316  2023-11-22 13:56:23.523291
3317  2023-11-22 13:56:23.555252
3318  2023-11-22 13:56:23.586145
3319  2023-11-22 13:56:23.634022
3320  2023-11-22 13:56:23.667019
3321  2023-11-22 13:56:23.698931
3322  2023-11-22 13:56:23.730844
3323  2023-11-22 13:56:23.762758
3324  2023-11-22 13:56:23.794660
3325  2023-11-22 13:56:23.826582
3326  2023-11-22 13:56:23.858490
3327  2023-11-22 13:56:23.890400
3328  2023-11-22 13:56:23.922459
3329  2023-11-22 13:56:23.954371
3330  2023-11-22 13:56:23.987178
3331  2023-11-22 13:56:24.035041
3332  2023-11-22 13:56:24.065994
3333  2023-11-22 13:56:24.098926
3334  2023-11-22 13:56:24.130817
3335  2023-11-22 13:56:24.162733
3336  2023-11-22 13:56:24.194661
3337  2023-11-22 13:56:24.226576
3338  2023-11-22 13:56:24.258492
3339  2023-11-22 13:56:24.290498
3340  2023-11-22 13:56:24.322414
3341  2023-11-22 13:56:24.354322
3342  2023-11-22 13:56:24.386237
3343  2023-11-22 13:56:24.435074
3344  2023-11-22 13:56:24.466022
3345  2023-11-22 13:56:24.497961
3346  2023-11-22 13:56:24.530861
3347  2023-11-22 13:56:24.562877
3348  2023-11-22 13:56:24.594761
3349  2023-11-22 13:56:24.626695
3350  2023-11-22 13:56:24.658608
3351  2023-11-22 13:56:24.690523
3352  2023-11-22 13:56:24.722436
3353  2023-11-22 13:56:24.754317
3354  2023-11-22 13:56:24.786291
3355  2023-11-22 13:56:24.834160
3356  2023-11-22 13:56:24.866097
3357  2023-11-22 13:56:24.898988
3358  2023-11-22 13:56:24.930922
3359  2023-11-22 13:56:24.962841
3360  2023-11-22 13:56:24.993848
3361  2023-11-22 13:56:25.026765
3362  2023-11-22 13:56:25.058777
3363  2023-11-22 13:56:25.090681
3364  2023-11-22 13:56:25.122611
3365  2023-11-22 13:56:25.154647
3366  2023-11-22 13:56:25.202476
3367  2023-11-22 13:56:25.234425
3368  2023-11-22 13:56:25.266347
3369  2023-11-22 13:56:25.298265
3370  2023-11-22 13:56:25.330169
3371  2023-11-22 13:56:25.362085
3372  2023-11-22 13:56:25.394988
3373  2023-11-22 13:56:25.425971
3374  2023-11-22 13:56:25.457986
3375  2023-11-22 13:56:25.489875
3376  2023-11-22 13:56:25.521790
3377  2023-11-22 13:56:25.554701
3378  2023-11-22 13:56:25.602585
3379  2023-11-22 13:56:25.634573
3380  2023-11-22 13:56:25.666489
3381  2023-11-22 13:56:25.698445
3382  2023-11-22 13:56:25.730351
3383  2023-11-22 13:56:25.762265
3384  2023-11-22 13:56:25.796172
3385  2023-11-22 13:56:25.826095
3386  2023-11-22 13:56:25.858019
3387  2023-11-22 13:56:25.889926
3388  2023-11-22 13:56:25.921838
3389  2023-11-22 13:56:25.954730
3390  2023-11-22 13:56:26.003621
3391  2023-11-22 13:56:26.035540
3392  2023-11-22 13:56:26.066420
3393  2023-11-22 13:56:26.098385
3394  2023-11-22 13:56:26.130331
3395  2023-11-22 13:56:26.162253
3396  2023-11-22 13:56:26.194157
3397  2023-11-22 13:56:26.227099
3398  2023-11-22 13:56:26.259000
3399  2023-11-22 13:56:26.290903
3400  2023-11-22 13:56:26.322784
3401  2023-11-22 13:56:26.354731
3402  2023-11-22 13:56:26.402572
3403  2023-11-22 13:56:26.434484
3404  2023-11-22 13:56:26.466401
3405  2023-11-22 13:56:26.498315
3406  2023-11-22 13:56:26.531227
3407  2023-11-22 13:56:26.563189
3408  2023-11-22 13:56:26.594102
3409  2023-11-22 13:56:26.627999
3410  2023-11-22 13:56:26.657953
3411  2023-11-22 13:56:26.690845
3412  2023-11-22 13:56:26.722748
3413  2023-11-22 13:56:26.754544
3414  2023-11-22 13:56:26.803615
3415  2023-11-22 13:56:26.835595
3416  2023-11-22 13:56:26.867499
3417  2023-11-22 13:56:26.898404
3418  2023-11-22 13:56:26.930330
3419  2023-11-22 13:56:26.962235
3420  2023-11-22 13:56:26.994147
3421  2023-11-22 13:56:27.027069
3422  2023-11-22 13:56:27.058023
3423  2023-11-22 13:56:27.089996
3424  2023-11-22 13:56:27.123897
3425  2023-11-22 13:56:27.155804
3426  2023-11-22 13:56:27.203682
3427  2023-11-22 13:56:27.235591
3428  2023-11-22 13:56:27.267512
3429  2023-11-22 13:56:27.298431
3430  2023-11-22 13:56:27.330338
3431  2023-11-22 13:56:27.363376
3432  2023-11-22 13:56:27.394254
3433  2023-11-22 13:56:27.428188
3434  2023-11-22 13:56:27.458084
3435  2023-11-22 13:56:27.490053
3436  2023-11-22 13:56:27.523931
3437  2023-11-22 13:56:27.555851
3438  2023-11-22 13:56:27.602672
3439  2023-11-22 13:56:27.635622
3440  2023-11-22 13:56:27.667499
3441  2023-11-22 13:56:27.698467
3442  2023-11-22 13:56:27.730366
3443  2023-11-22 13:56:27.763276
3444  2023-11-22 13:56:27.795188
3445  2023-11-22 13:56:27.827102
3446  2023-11-22 13:56:27.857989
3447  2023-11-22 13:56:27.889948
3448  2023-11-22 13:56:27.923843
3449  2023-11-22 13:56:27.955765
3450  2023-11-22 13:56:28.002652
3451  2023-11-22 13:56:28.034565
3452  2023-11-22 13:56:28.067469
3453  2023-11-22 13:56:28.098375
3454  2023-11-22 13:56:28.130300
3455  2023-11-22 13:56:28.163210
3456  2023-11-22 13:56:28.195121
3457  2023-11-22 13:56:28.227036
3458  2023-11-22 13:56:28.257951
3459  2023-11-22 13:56:28.289834
3460  2023-11-22 13:56:28.323780
3461  2023-11-22 13:56:28.355690
3462  2023-11-22 13:56:28.402566
3463  2023-11-22 13:56:28.434482
3464  2023-11-22 13:56:28.466396
3465  2023-11-22 13:56:28.498336
3466  2023-11-22 13:56:28.530213
3467  2023-11-22 13:56:28.563141
3468  2023-11-22 13:56:28.595057
3469  2023-11-22 13:56:28.626967
3470  2023-11-22 13:56:28.657884
3471  2023-11-22 13:56:28.690788
3472  2023-11-22 13:56:28.723705
3473  2023-11-22 13:56:28.754633
3474  2023-11-22 13:56:28.802499
3475  2023-11-22 13:56:28.834410
3476  2023-11-22 13:56:28.866327
3477  2023-11-22 13:56:28.898222
3478  2023-11-22 13:56:28.930124
3479  2023-11-22 13:56:28.964060
3480  2023-11-22 13:56:28.994950
3481  2023-11-22 13:56:29.027902
3482  2023-11-22 13:56:29.059810
3483  2023-11-22 13:56:29.090726
3484  2023-11-22 13:56:29.123646
3485  2023-11-22 13:56:29.170480
3486  2023-11-22 13:56:29.202446
3487  2023-11-22 13:56:29.234360
3488  2023-11-22 13:56:29.266275
3489  2023-11-22 13:56:29.298189
3490  2023-11-22 13:56:29.330111
3491  2023-11-22 13:56:29.363101
3492  2023-11-22 13:56:29.395005
3493  2023-11-22 13:56:29.426923
3494  2023-11-22 13:56:29.457878
3495  2023-11-22 13:56:29.489755
3496  2023-11-22 13:56:29.522671
3497  2023-11-22 13:56:29.570549
3498  2023-11-22 13:56:29.602451
3499  2023-11-22 13:56:29.634366
3500  2023-11-22 13:56:29.666282
3501  2023-11-22 13:56:29.698166
3502  2023-11-22 13:56:29.730087
3503  2023-11-22 13:56:29.763021
3504  2023-11-22 13:56:29.794944
3505  2023-11-22 13:56:29.826852
3506  2023-11-22 13:56:29.857739
3507  2023-11-22 13:56:29.890651
3508  2023-11-22 13:56:29.922619
3509  2023-11-22 13:56:29.970436
3510  2023-11-22 13:56:30.002384
3511  2023-11-22 13:56:30.034298
3512  2023-11-22 13:56:30.066211
3513  2023-11-22 13:56:30.099144
3514  2023-11-22 13:56:30.130043
3515  2023-11-22 13:56:30.161909
3516  2023-11-22 13:56:30.194944
3517  2023-11-22 13:56:30.227927
3518  2023-11-22 13:56:30.258866
3519  2023-11-22 13:56:30.289756
3520  2023-11-22 13:56:30.321673
3521  2023-11-22 13:56:30.370549
3522  2023-11-22 13:56:30.401602
3523  2023-11-22 13:56:30.434503
3524  2023-11-22 13:56:30.466409
3525  2023-11-22 13:56:30.499377
3526  2023-11-22 13:56:30.530315
3527  2023-11-22 13:56:30.562222
3528  2023-11-22 13:56:30.595192
3529  2023-11-22 13:56:30.627092
3530  2023-11-22 13:56:30.659013
3531  2023-11-22 13:56:30.690879
3532  2023-11-22 13:56:30.721796
3533  2023-11-22 13:56:30.769697
3534  2023-11-22 13:56:30.802578
3535  2023-11-22 13:56:30.834544
3536  2023-11-22 13:56:30.866595
3537  2023-11-22 13:56:30.899469
3538  2023-11-22 13:56:30.930354
3539  2023-11-22 13:56:30.962307
3540  2023-11-22 13:56:30.995224
3541  2023-11-22 13:56:31.027129
3542  2023-11-22 13:56:31.059057
3543  2023-11-22 13:56:31.089927
3544  2023-11-22 13:56:31.121842
3545  2023-11-22 13:56:31.169712
3546  2023-11-22 13:56:31.201662
3547  2023-11-22 13:56:31.234585
3548  2023-11-22 13:56:31.266480
3549  2023-11-22 13:56:31.299456
3550  2023-11-22 13:56:31.330394
3551  2023-11-22 13:56:31.362365
3552  2023-11-22 13:56:31.394315
3553  2023-11-22 13:56:31.427371
3554  2023-11-22 13:56:31.459291
3555  2023-11-22 13:56:31.490165
3556  2023-11-22 13:56:31.522134
3557  2023-11-22 13:56:31.569984
3558  2023-11-22 13:56:31.601866
3559  2023-11-22 13:56:31.633811
3560  2023-11-22 13:56:31.665732
3561  2023-11-22 13:56:31.698642
