
1  2023-11-30 12:38:59.188548
2  2023-11-30 12:38:59.220247
3  2023-11-30 12:38:59.252222
4  2023-11-30 12:38:59.284084
5  2023-11-30 12:38:59.315991
6  2023-11-30 12:38:59.363932
7  2023-11-30 12:38:59.395836
8  2023-11-30 12:38:59.428784
9  2023-11-30 12:38:59.459746
10  2023-11-30 12:38:59.492655
11  2023-11-30 12:38:59.524570
12  2023-11-30 12:38:59.556704
13  2023-11-30 12:38:59.587734
14  2023-11-30 12:38:59.620638
15  2023-11-30 12:38:59.652520
16  2023-11-30 12:38:59.684434
17  2023-11-30 12:38:59.716380
18  2023-11-30 12:38:59.764222
19  2023-11-30 12:38:59.796152
20  2023-11-30 12:38:59.828051
21  2023-11-30 12:38:59.859965
22  2023-11-30 12:38:59.891880
23  2023-11-30 12:38:59.923794
24  2023-11-30 12:38:59.956711
25  2023-11-30 12:38:59.988821
26  2023-11-30 12:39:00.020737
27  2023-11-30 12:39:00.052652
28  2023-11-30 12:39:00.084565
29  2023-11-30 12:39:00.116527
30  2023-11-30 12:39:00.164354
31  2023-11-30 12:39:00.196277
32  2023-11-30 12:39:00.228181
33  2023-11-30 12:39:00.260097
34  2023-11-30 12:39:00.293009
35  2023-11-30 12:39:00.324923
36  2023-11-30 12:39:00.355840
37  2023-11-30 12:39:00.387754
38  2023-11-30 12:39:00.420668
39  2023-11-30 12:39:00.452586
40  2023-11-30 12:39:00.484497
41  2023-11-30 12:39:00.515891
42  2023-11-30 12:39:00.564425
43  2023-11-30 12:39:00.596309
44  2023-11-30 12:39:00.628224
45  2023-11-30 12:39:00.660139
46  2023-11-30 12:39:00.692294
47  2023-11-30 12:39:00.725016
48  2023-11-30 12:39:00.755936
49  2023-11-30 12:39:00.787935
50  2023-11-30 12:39:00.819849
51  2023-11-30 12:39:00.851948
52  2023-11-30 12:39:00.884347
53  2023-11-30 12:39:00.916262
54  2023-11-30 12:39:00.964149
55  2023-11-30 12:39:00.996050
56  2023-11-30 12:39:01.027965
57  2023-11-30 12:39:01.059880
58  2023-11-30 12:39:01.092791
59  2023-11-30 12:39:01.124705
60  2023-11-30 12:39:01.156621
61  2023-11-30 12:39:01.188569
62  2023-11-30 12:39:01.220451
63  2023-11-30 12:39:01.252365
64  2023-11-30 12:39:01.284278
65  2023-11-30 12:39:01.316194
66  2023-11-30 12:39:01.364065
67  2023-11-30 12:39:01.396022
68  2023-11-30 12:39:01.427896
69  2023-11-30 12:39:01.459810
70  2023-11-30 12:39:01.492723
71  2023-11-30 12:39:01.524697
72  2023-11-30 12:39:01.556612
73  2023-11-30 12:39:01.588597
74  2023-11-30 12:39:01.620511
75  2023-11-30 12:39:01.652138
76  2023-11-30 12:39:01.684107
77  2023-11-30 12:39:01.716050
78  2023-11-30 12:39:01.763891
79  2023-11-30 12:39:01.795807
80  2023-11-30 12:39:01.828720
81  2023-11-30 12:39:01.860634
82  2023-11-30 12:39:01.892550
83  2023-11-30 12:39:01.924462
84  2023-11-30 12:39:01.956378
85  2023-11-30 12:39:01.988859
86  2023-11-30 12:39:02.020808
87  2023-11-30 12:39:02.052687
88  2023-11-30 12:39:02.084638
89  2023-11-30 12:39:02.116089
90  2023-11-30 12:39:02.164056
91  2023-11-30 12:39:02.195972
92  2023-11-30 12:39:02.227886
93  2023-11-30 12:39:02.259849
94  2023-11-30 12:39:02.291763
95  2023-11-30 12:39:02.324710
96  2023-11-30 12:39:02.356623
97  2023-11-30 12:39:02.388535
98  2023-11-30 12:39:02.420420
99  2023-11-30 12:39:02.452365
100  2023-11-30 12:39:02.484283
101  2023-11-30 12:39:02.516164
102  2023-11-30 12:39:02.564038
103  2023-11-30 12:39:02.595950
104  2023-11-30 12:39:02.627866
105  2023-11-30 12:39:02.659789
106  2023-11-30 12:39:02.691758
107  2023-11-30 12:39:02.724683
108  2023-11-30 12:39:02.756584
109  2023-11-30 12:39:02.788579
110  2023-11-30 12:39:02.820499
111  2023-11-30 12:39:02.852416
112  2023-11-30 12:39:02.884332
113  2023-11-30 12:39:02.916334
114  2023-11-30 12:39:02.964206
115  2023-11-30 12:39:02.996122
116  2023-11-30 12:39:03.028135
117  2023-11-30 12:39:03.060012
118  2023-11-30 12:39:03.091927
119  2023-11-30 12:39:03.123843
120  2023-11-30 12:39:03.155757
121  2023-11-30 12:39:03.187726
122  2023-11-30 12:39:03.220637
123  2023-11-30 12:39:03.252551
124  2023-11-30 12:39:03.284616
125  2023-11-30 12:39:03.316499
126  2023-11-30 12:39:03.364487
127  2023-11-30 12:39:03.396404
128  2023-11-30 12:39:03.428321
129  2023-11-30 12:39:03.460286
130  2023-11-30 12:39:03.492202
131  2023-11-30 12:39:03.524128
132  2023-11-30 12:39:03.556034
133  2023-11-30 12:39:03.588941
134  2023-11-30 12:39:03.619861
135  2023-11-30 12:39:03.651772
136  2023-11-30 12:39:03.684686
137  2023-11-30 12:39:03.716599
138  2023-11-30 12:39:03.764507
139  2023-11-30 12:39:03.796386
140  2023-11-30 12:39:03.828430
141  2023-11-30 12:39:03.860345
142  2023-11-30 12:39:03.892260
143  2023-11-30 12:39:03.924557
144  2023-11-30 12:39:03.956439
145  2023-11-30 12:39:03.988833
146  2023-11-30 12:39:04.020759
147  2023-11-30 12:39:04.052666
148  2023-11-30 12:39:04.084579
149  2023-11-30 12:39:04.116525
150  2023-11-30 12:39:04.164366
151  2023-11-30 12:39:04.196279
152  2023-11-30 12:39:04.228201
153  2023-11-30 12:39:04.260121
154  2023-11-30 12:39:04.292066
155  2023-11-30 12:39:04.323938
156  2023-11-30 12:39:04.355861
157  2023-11-30 12:39:04.387875
158  2023-11-30 12:39:04.420755
159  2023-11-30 12:39:04.452669
160  2023-11-30 12:39:04.484584
161  2023-11-30 12:39:04.515863
162  2023-11-30 12:39:04.564733
163  2023-11-30 12:39:04.596647
164  2023-11-30 12:39:04.628562
165  2023-11-30 12:39:04.660477
166  2023-11-30 12:39:04.692392
167  2023-11-30 12:39:04.724308
168  2023-11-30 12:39:04.756221
169  2023-11-30 12:39:04.788136
170  2023-11-30 12:39:04.820053
171  2023-11-30 12:39:04.851964
172  2023-11-30 12:39:04.883887
173  2023-11-30 12:39:04.916791
174  2023-11-30 12:39:04.964664
175  2023-11-30 12:39:04.995858
176  2023-11-30 12:39:05.027773
177  2023-11-30 12:39:05.059693
178  2023-11-30 12:39:05.092682
179  2023-11-30 12:39:05.124557
180  2023-11-30 12:39:05.156505
181  2023-11-30 12:39:05.187782
182  2023-11-30 12:39:05.220661
183  2023-11-30 12:39:05.252576
184  2023-11-30 12:39:05.284523
185  2023-11-30 12:39:05.316482
186  2023-11-30 12:39:05.348616
187  2023-11-30 12:39:05.396497
188  2023-11-30 12:39:05.428402
189  2023-11-30 12:39:05.460318
190  2023-11-30 12:39:05.492200
191  2023-11-30 12:39:05.524115
192  2023-11-30 12:39:05.556076
193  2023-11-30 12:39:05.587943
194  2023-11-30 12:39:05.619857
195  2023-11-30 12:39:05.651776
196  2023-11-30 12:39:05.684721
197  2023-11-30 12:39:05.716598
198  2023-11-30 12:39:05.748513
199  2023-11-30 12:39:05.796419
200  2023-11-30 12:39:05.828301
201  2023-11-30 12:39:05.860217
202  2023-11-30 12:39:05.892130
203  2023-11-30 12:39:05.924085
204  2023-11-30 12:39:05.955960
205  2023-11-30 12:39:05.988836
206  2023-11-30 12:39:06.019881
207  2023-11-30 12:39:06.052790
208  2023-11-30 12:39:06.084699
209  2023-11-30 12:39:06.116581
210  2023-11-30 12:39:06.148496
211  2023-11-30 12:39:06.196382
212  2023-11-30 12:39:06.228285
213  2023-11-30 12:39:06.260809
214  2023-11-30 12:39:06.292866
215  2023-11-30 12:39:06.324603
216  2023-11-30 12:39:06.356517
217  2023-11-30 12:39:06.388432
218  2023-11-30 12:39:06.420346
219  2023-11-30 12:39:06.452261
220  2023-11-30 12:39:06.484176
221  2023-11-30 12:39:06.516121
222  2023-11-30 12:39:06.548036
223  2023-11-30 12:39:06.595878
224  2023-11-30 12:39:06.628829
225  2023-11-30 12:39:06.660712
226  2023-11-30 12:39:06.692619
227  2023-11-30 12:39:06.724540
228  2023-11-30 12:39:06.756603
229  2023-11-30 12:39:06.788517
230  2023-11-30 12:39:06.820466
231  2023-11-30 12:39:06.852347
232  2023-11-30 12:39:06.884261
233  2023-11-30 12:39:06.916176
234  2023-11-30 12:39:06.948091
235  2023-11-30 12:39:06.995962
236  2023-11-30 12:39:07.027878
237  2023-11-30 12:39:07.059792
238  2023-11-30 12:39:07.091706
239  2023-11-30 12:39:07.124620
240  2023-11-30 12:39:07.156534
241  2023-11-30 12:39:07.188541
242  2023-11-30 12:39:07.220454
243  2023-11-30 12:39:07.253367
244  2023-11-30 12:39:07.284285
245  2023-11-30 12:39:07.316229
246  2023-11-30 12:39:07.348151
247  2023-11-30 12:39:07.395986
248  2023-11-30 12:39:07.428898
249  2023-11-30 12:39:07.459814
250  2023-11-30 12:39:07.492728
251  2023-11-30 12:39:07.524643
252  2023-11-30 12:39:07.556555
253  2023-11-30 12:39:07.588472
254  2023-11-30 12:39:07.620387
255  2023-11-30 12:39:07.652337
256  2023-11-30 12:39:07.684272
257  2023-11-30 12:39:07.716139
258  2023-11-30 12:39:07.748080
259  2023-11-30 12:39:07.795917
260  2023-11-30 12:39:07.827831
261  2023-11-30 12:39:07.860743
262  2023-11-30 12:39:07.892658
263  2023-11-30 12:39:07.924571
264  2023-11-30 12:39:07.956486
265  2023-11-30 12:39:07.988600
266  2023-11-30 12:39:08.020513
267  2023-11-30 12:39:08.052430
268  2023-11-30 12:39:08.084342
269  2023-11-30 12:39:08.116262
270  2023-11-30 12:39:08.148219
271  2023-11-30 12:39:08.196144
272  2023-11-30 12:39:08.228042
273  2023-11-30 12:39:08.259920
274  2023-11-30 12:39:08.292833
275  2023-11-30 12:39:08.324748
276  2023-11-30 12:39:08.356698
277  2023-11-30 12:39:08.388610
278  2023-11-30 12:39:08.420492
279  2023-11-30 12:39:08.452406
280  2023-11-30 12:39:08.484320
281  2023-11-30 12:39:08.516509
282  2023-11-30 12:39:08.548426
283  2023-11-30 12:39:08.596328
284  2023-11-30 12:39:08.628213
285  2023-11-30 12:39:08.660129
286  2023-11-30 12:39:08.692041
287  2023-11-30 12:39:08.724953
288  2023-11-30 12:39:08.756869
289  2023-11-30 12:39:08.787785
290  2023-11-30 12:39:08.820725
291  2023-11-30 12:39:08.852643
292  2023-11-30 12:39:08.884526
293  2023-11-30 12:39:08.916440
294  2023-11-30 12:39:08.948354
295  2023-11-30 12:39:08.996161
296  2023-11-30 12:39:09.028036
297  2023-11-30 12:39:09.059986
298  2023-11-30 12:39:09.091901
299  2023-11-30 12:39:09.123829
300  2023-11-30 12:39:09.155729
301  2023-11-30 12:39:09.188641
302  2023-11-30 12:39:09.220557
303  2023-11-30 12:39:09.252471
304  2023-11-30 12:39:09.284386
305  2023-11-30 12:39:09.316093
306  2023-11-30 12:39:09.348116
307  2023-11-30 12:39:09.396448
308  2023-11-30 12:39:09.428358
309  2023-11-30 12:39:09.460235
310  2023-11-30 12:39:09.492192
311  2023-11-30 12:39:09.524063
312  2023-11-30 12:39:09.555993
313  2023-11-30 12:39:09.588953
314  2023-11-30 12:39:09.620867
315  2023-11-30 12:39:09.652188
316  2023-11-30 12:39:09.684133
317  2023-11-30 12:39:09.716048
318  2023-11-30 12:39:09.747962
319  2023-11-30 12:39:09.795834
320  2023-11-30 12:39:09.828802
321  2023-11-30 12:39:09.860172
322  2023-11-30 12:39:09.892088
323  2023-11-30 12:39:09.925038
324  2023-11-30 12:39:09.956909
325  2023-11-30 12:39:09.987913
326  2023-11-30 12:39:10.020889
327  2023-11-30 12:39:10.052777
328  2023-11-30 12:39:10.084707
329  2023-11-30 12:39:10.116601
330  2023-11-30 12:39:10.148521
331  2023-11-30 12:39:10.196487
332  2023-11-30 12:39:10.228406
333  2023-11-30 12:39:10.260316
334  2023-11-30 12:39:10.292231
335  2023-11-30 12:39:10.324183
336  2023-11-30 12:39:10.356059
337  2023-11-30 12:39:10.387978
338  2023-11-30 12:39:10.419895
339  2023-11-30 12:39:10.451805
340  2023-11-30 12:39:10.484741
341  2023-11-30 12:39:10.515893
342  2023-11-30 12:39:10.547808
343  2023-11-30 12:39:10.596678
344  2023-11-30 12:39:10.628639
345  2023-11-30 12:39:10.660506
346  2023-11-30 12:39:10.692421
347  2023-11-30 12:39:10.724336
348  2023-11-30 12:39:10.756251
349  2023-11-30 12:39:10.788223
350  2023-11-30 12:39:10.820118
351  2023-11-30 12:39:10.851994
352  2023-11-30 12:39:10.883940
353  2023-11-30 12:39:10.915823
354  2023-11-30 12:39:10.948768
355  2023-11-30 12:39:10.996656
356  2023-11-30 12:39:11.028557
357  2023-11-30 12:39:11.060471
358  2023-11-30 12:39:11.092383
359  2023-11-30 12:39:11.124266
360  2023-11-30 12:39:11.156212
361  2023-11-30 12:39:11.188333
362  2023-11-30 12:39:11.220262
363  2023-11-30 12:39:11.252165
364  2023-11-30 12:39:11.284047
365  2023-11-30 12:39:11.316010
366  2023-11-30 12:39:11.347876
367  2023-11-30 12:39:11.395748
368  2023-11-30 12:39:11.427703
369  2023-11-30 12:39:11.460575
370  2023-11-30 12:39:11.492489
371  2023-11-30 12:39:11.524431
372  2023-11-30 12:39:11.556380
373  2023-11-30 12:39:11.588312
374  2023-11-30 12:39:11.620227
375  2023-11-30 12:39:11.652140
376  2023-11-30 12:39:11.684090
377  2023-11-30 12:39:11.716031
378  2023-11-30 12:39:11.747936
379  2023-11-30 12:39:11.795791
380  2023-11-30 12:39:11.828669
381  2023-11-30 12:39:11.860584
382  2023-11-30 12:39:11.892498
383  2023-11-30 12:39:11.924449
384  2023-11-30 12:39:11.956439
385  2023-11-30 12:39:11.988390
386  2023-11-30 12:39:12.020315
387  2023-11-30 12:39:12.052219
388  2023-11-30 12:39:12.084128
389  2023-11-30 12:39:12.116045
390  2023-11-30 12:39:12.147963
391  2023-11-30 12:39:12.195826
392  2023-11-30 12:39:12.227763
393  2023-11-30 12:39:12.260728
394  2023-11-30 12:39:12.292721
395  2023-11-30 12:39:12.324651
396  2023-11-30 12:39:12.356524
397  2023-11-30 12:39:12.388439
398  2023-11-30 12:39:12.420355
399  2023-11-30 12:39:12.452268
400  2023-11-30 12:39:12.484187
401  2023-11-30 12:39:12.516152
402  2023-11-30 12:39:12.548049
403  2023-11-30 12:39:12.595925
404  2023-11-30 12:39:12.628858
405  2023-11-30 12:39:12.660744
406  2023-11-30 12:39:12.692676
407  2023-11-30 12:39:12.724578
408  2023-11-30 12:39:12.756455
409  2023-11-30 12:39:12.788422
410  2023-11-30 12:39:12.820332
411  2023-11-30 12:39:12.852198
412  2023-11-30 12:39:12.885154
413  2023-11-30 12:39:12.916074
414  2023-11-30 12:39:12.947977
415  2023-11-30 12:39:12.996813
416  2023-11-30 12:39:13.028726
417  2023-11-30 12:39:13.060664
418  2023-11-30 12:39:13.092642
419  2023-11-30 12:39:13.124565
420  2023-11-30 12:39:13.156527
421  2023-11-30 12:39:13.188418
422  2023-11-30 12:39:13.220441
423  2023-11-30 12:39:13.252408
424  2023-11-30 12:39:13.284359
425  2023-11-30 12:39:13.316713
426  2023-11-30 12:39:13.348442
427  2023-11-30 12:39:13.396203
428  2023-11-30 12:39:13.428179
429  2023-11-30 12:39:13.461069
430  2023-11-30 12:39:13.492028
431  2023-11-30 12:39:13.523943
432  2023-11-30 12:39:13.555858
433  2023-11-30 12:39:13.587777
434  2023-11-30 12:39:13.620684
435  2023-11-30 12:39:13.652635
436  2023-11-30 12:39:13.684628
437  2023-11-30 12:39:13.716545
438  2023-11-30 12:39:13.748377
439  2023-11-30 12:39:13.796251
440  2023-11-30 12:39:13.828128
441  2023-11-30 12:39:13.860004
442  2023-11-30 12:39:13.892703
443  2023-11-30 12:39:13.924608
444  2023-11-30 12:39:13.956555
445  2023-11-30 12:39:13.988434
446  2023-11-30 12:39:14.020350
447  2023-11-30 12:39:14.052263
448  2023-11-30 12:39:14.084212
449  2023-11-30 12:39:14.116125
450  2023-11-30 12:39:14.148212
451  2023-11-30 12:39:14.196103
452  2023-11-30 12:39:14.228988
453  2023-11-30 12:39:14.259914
454  2023-11-30 12:39:14.291923
455  2023-11-30 12:39:14.323790
456  2023-11-30 12:39:14.356702
457  2023-11-30 12:39:14.388627
458  2023-11-30 12:39:14.420715
459  2023-11-30 12:39:14.452609
460  2023-11-30 12:39:14.484560
461  2023-11-30 12:39:14.516447
462  2023-11-30 12:39:14.548695
463  2023-11-30 12:39:14.596520
464  2023-11-30 12:39:14.628435
465  2023-11-30 12:39:14.660350
466  2023-11-30 12:39:14.692271
467  2023-11-30 12:39:14.724213
468  2023-11-30 12:39:14.756232
469  2023-11-30 12:39:14.788026
470  2023-11-30 12:39:14.820021
471  2023-11-30 12:39:14.851958
472  2023-11-30 12:39:14.884304
473  2023-11-30 12:39:14.916321
474  2023-11-30 12:39:14.947845
475  2023-11-30 12:39:14.996194
476  2023-11-30 12:39:15.028429
477  2023-11-30 12:39:15.060438
478  2023-11-30 12:39:15.092338
479  2023-11-30 12:39:15.124251
480  2023-11-30 12:39:15.156167
481  2023-11-30 12:39:15.188114
482  2023-11-30 12:39:15.220032
483  2023-11-30 12:39:15.251909
484  2023-11-30 12:39:15.283823
485  2023-11-30 12:39:15.315775
486  2023-11-30 12:39:15.348696
487  2023-11-30 12:39:15.396525
488  2023-11-30 12:39:15.428480
489  2023-11-30 12:39:15.460353
490  2023-11-30 12:39:15.492269
491  2023-11-30 12:39:15.524193
492  2023-11-30 12:39:15.556099
493  2023-11-30 12:39:15.588045
494  2023-11-30 12:39:15.619959
495  2023-11-30 12:39:15.651873
496  2023-11-30 12:39:15.683765
497  2023-11-30 12:39:15.716668
498  2023-11-30 12:39:15.748583
499  2023-11-30 12:39:15.796489
500  2023-11-30 12:39:15.828370
501  2023-11-30 12:39:15.860455
502  2023-11-30 12:39:15.892512
503  2023-11-30 12:39:15.924427
504  2023-11-30 12:39:15.956415
505  2023-11-30 12:39:15.988456
506  2023-11-30 12:39:16.020370
507  2023-11-30 12:39:16.052105
508  2023-11-30 12:39:16.084129
509  2023-11-30 12:39:16.116657
510  2023-11-30 12:39:16.148629
511  2023-11-30 12:39:16.196587
512  2023-11-30 12:39:16.228489
513  2023-11-30 12:39:16.260373
514  2023-11-30 12:39:16.292286
515  2023-11-30 12:39:16.324201
516  2023-11-30 12:39:16.356116
517  2023-11-30 12:39:16.388031
518  2023-11-30 12:39:16.419977
519  2023-11-30 12:39:16.451891
520  2023-11-30 12:39:16.483806
521  2023-11-30 12:39:16.516686
522  2023-11-30 12:39:16.548631
523  2023-11-30 12:39:16.596473
524  2023-11-30 12:39:16.628387
525  2023-11-30 12:39:16.660332
526  2023-11-30 12:39:16.692223
527  2023-11-30 12:39:16.724132
528  2023-11-30 12:39:16.756046
529  2023-11-30 12:39:16.788365
530  2023-11-30 12:39:16.820278
531  2023-11-30 12:39:16.852193
532  2023-11-30 12:39:16.884122
533  2023-11-30 12:39:16.916031
534  2023-11-30 12:39:16.947981
535  2023-11-30 12:39:16.996816
536  2023-11-30 12:39:17.028321
537  2023-11-30 12:39:17.060382
538  2023-11-30 12:39:17.092269
539  2023-11-30 12:39:17.124218
540  2023-11-30 12:39:17.156136
541  2023-11-30 12:39:17.188681
542  2023-11-30 12:39:17.220675
543  2023-11-30 12:39:17.252584
544  2023-11-30 12:39:17.284513
545  2023-11-30 12:39:17.316416
546  2023-11-30 12:39:17.348333
547  2023-11-30 12:39:17.396184
548  2023-11-30 12:39:17.428085
549  2023-11-30 12:39:17.461032
550  2023-11-30 12:39:17.491944
551  2023-11-30 12:39:17.523850
552  2023-11-30 12:39:17.556784
553  2023-11-30 12:39:17.588690
554  2023-11-30 12:39:17.620569
555  2023-11-30 12:39:17.652515
556  2023-11-30 12:39:17.684153
557  2023-11-30 12:39:17.716133
558  2023-11-30 12:39:17.749101
559  2023-11-30 12:39:17.796920
560  2023-11-30 12:39:17.827837
561  2023-11-30 12:39:17.859750
562  2023-11-30 12:39:17.892662
563  2023-11-30 12:39:17.924577
564  2023-11-30 12:39:17.956524
565  2023-11-30 12:39:17.988407
566  2023-11-30 12:39:18.020190
567  2023-11-30 12:39:18.052473
568  2023-11-30 12:39:18.084355
569  2023-11-30 12:39:18.116269
570  2023-11-30 12:39:18.148170
571  2023-11-30 12:39:18.196137
572  2023-11-30 12:39:18.228052
573  2023-11-30 12:39:18.259964
574  2023-11-30 12:39:18.291909
575  2023-11-30 12:39:18.323793
576  2023-11-30 12:39:18.356740
577  2023-11-30 12:39:18.388650
578  2023-11-30 12:39:18.420534
579  2023-11-30 12:39:18.452482
580  2023-11-30 12:39:18.484362
581  2023-11-30 12:39:18.516445
582  2023-11-30 12:39:18.548430
583  2023-11-30 12:39:18.596272
584  2023-11-30 12:39:18.628187
585  2023-11-30 12:39:18.660102
586  2023-11-30 12:39:18.692018
587  2023-11-30 12:39:18.723966
588  2023-11-30 12:39:18.755845
589  2023-11-30 12:39:18.787872
590  2023-11-30 12:39:18.820075
591  2023-11-30 12:39:18.851973
592  2023-11-30 12:39:18.883956
593  2023-11-30 12:39:18.915840
594  2023-11-30 12:39:18.947756
595  2023-11-30 12:39:18.995627
596  2023-11-30 12:39:19.028539
597  2023-11-30 12:39:19.060484
598  2023-11-30 12:39:19.092405
599  2023-11-30 12:39:19.124284
600  2023-11-30 12:39:19.156244
601  2023-11-30 12:39:19.188026
602  2023-11-30 12:39:19.220885
603  2023-11-30 12:39:19.252930
604  2023-11-30 12:39:19.283881
605  2023-11-30 12:39:19.316759
606  2023-11-30 12:39:19.348673
607  2023-11-30 12:39:19.396547
608  2023-11-30 12:39:19.428464
609  2023-11-30 12:39:19.460378
610  2023-11-30 12:39:19.492291
611  2023-11-30 12:39:19.524213
612  2023-11-30 12:39:19.557148
613  2023-11-30 12:39:19.588080
614  2023-11-30 12:39:19.619993
615  2023-11-30 12:39:19.651949
616  2023-11-30 12:39:19.683909
617  2023-11-30 12:39:19.715815
618  2023-11-30 12:39:19.748699
619  2023-11-30 12:39:19.796571
620  2023-11-30 12:39:19.828487
621  2023-11-30 12:39:19.860401
622  2023-11-30 12:39:19.892361
623  2023-11-30 12:39:19.924266
624  2023-11-30 12:39:19.956185
625  2023-11-30 12:39:19.988058
626  2023-11-30 12:39:20.020005
627  2023-11-30 12:39:20.051775
628  2023-11-30 12:39:20.084687
629  2023-11-30 12:39:20.116602
630  2023-11-30 12:39:20.148520
631  2023-11-30 12:39:20.196632
632  2023-11-30 12:39:20.228673
633  2023-11-30 12:39:20.260585
634  2023-11-30 12:39:20.292461
635  2023-11-30 12:39:20.324279
636  2023-11-30 12:39:20.356192
637  2023-11-30 12:39:20.388106
638  2023-11-30 12:39:20.420021
639  2023-11-30 12:39:20.451884
640  2023-11-30 12:39:20.483798
641  2023-11-30 12:39:20.516486
642  2023-11-30 12:39:20.548400
643  2023-11-30 12:39:20.596273
644  2023-11-30 12:39:20.628223
645  2023-11-30 12:39:20.660109
646  2023-11-30 12:39:20.692017
647  2023-11-30 12:39:20.724156
648  2023-11-30 12:39:20.756165
649  2023-11-30 12:39:20.788031
650  2023-11-30 12:39:20.819946
651  2023-11-30 12:39:20.851861
652  2023-11-30 12:39:20.883776
653  2023-11-30 12:39:20.916688
654  2023-11-30 12:39:20.948602
655  2023-11-30 12:39:20.996509
656  2023-11-30 12:39:21.028389
657  2023-11-30 12:39:21.060337
658  2023-11-30 12:39:21.093256
659  2023-11-30 12:39:21.125132
660  2023-11-30 12:39:21.156049
661  2023-11-30 12:39:21.187965
662  2023-11-30 12:39:21.219879
663  2023-11-30 12:39:21.252791
664  2023-11-30 12:39:21.284704
665  2023-11-30 12:39:21.316618
666  2023-11-30 12:39:21.348497
667  2023-11-30 12:39:21.396368
668  2023-11-30 12:39:21.428284
669  2023-11-30 12:39:21.460199
670  2023-11-30 12:39:21.492165
671  2023-11-30 12:39:21.524060
672  2023-11-30 12:39:21.556974
673  2023-11-30 12:39:21.587890
674  2023-11-30 12:39:21.619771
675  2023-11-30 12:39:21.652683
676  2023-11-30 12:39:21.684634
677  2023-11-30 12:39:21.716513
678  2023-11-30 12:39:21.748427
679  2023-11-30 12:39:21.796300
680  2023-11-30 12:39:21.827887
681  2023-11-30 12:39:21.859735
682  2023-11-30 12:39:21.892647
683  2023-11-30 12:39:21.924528
684  2023-11-30 12:39:21.956442
685  2023-11-30 12:39:21.988357
686  2023-11-30 12:39:22.019844
687  2023-11-30 12:39:22.051921
688  2023-11-30 12:39:22.084038
689  2023-11-30 12:39:22.116738
690  2023-11-30 12:39:22.148653
691  2023-11-30 12:39:22.196575
692  2023-11-30 12:39:22.228441
693  2023-11-30 12:39:22.260355
694  2023-11-30 12:39:22.292270
695  2023-11-30 12:39:22.324183
696  2023-11-30 12:39:22.356098
697  2023-11-30 12:39:22.388032
698  2023-11-30 12:39:22.419942
699  2023-11-30 12:39:22.451867
700  2023-11-30 12:39:22.483782
701  2023-11-30 12:39:22.516764
702  2023-11-30 12:39:22.547767
703  2023-11-30 12:39:22.596677
704  2023-11-30 12:39:22.628730
705  2023-11-30 12:39:22.660527
706  2023-11-30 12:39:22.693051
707  2023-11-30 12:39:22.723971
708  2023-11-30 12:39:22.756882
709  2023-11-30 12:39:22.788797
710  2023-11-30 12:39:22.820711
711  2023-11-30 12:39:22.852626
712  2023-11-30 12:39:22.884541
713  2023-11-30 12:39:22.916455
714  2023-11-30 12:39:22.948370
715  2023-11-30 12:39:22.996242
716  2023-11-30 12:39:23.028157
717  2023-11-30 12:39:23.060073
718  2023-11-30 12:39:23.093028
719  2023-11-30 12:39:23.123901
720  2023-11-30 12:39:23.155815
721  2023-11-30 12:39:23.187730
722  2023-11-30 12:39:23.220089
723  2023-11-30 12:39:23.251993
724  2023-11-30 12:39:23.283873
725  2023-11-30 12:39:23.315788
726  2023-11-30 12:39:23.347708
727  2023-11-30 12:39:23.396573
728  2023-11-30 12:39:23.428488
729  2023-11-30 12:39:23.460402
730  2023-11-30 12:39:23.492348
731  2023-11-30 12:39:23.524269
732  2023-11-30 12:39:23.556374
733  2023-11-30 12:39:23.588320
734  2023-11-30 12:39:23.620359
735  2023-11-30 12:39:23.652496
736  2023-11-30 12:39:23.684411
737  2023-11-30 12:39:23.716550
738  2023-11-30 12:39:23.748464
739  2023-11-30 12:39:23.796340
740  2023-11-30 12:39:23.828253
741  2023-11-30 12:39:23.860167
742  2023-11-30 12:39:23.892081
743  2023-11-30 12:39:23.924012
744  2023-11-30 12:39:23.955910
745  2023-11-30 12:39:23.987824
746  2023-11-30 12:39:24.020128
747  2023-11-30 12:39:24.052014
748  2023-11-30 12:39:24.084422
749  2023-11-30 12:39:24.116373
750  2023-11-30 12:39:24.148288
751  2023-11-30 12:39:24.196541
752  2023-11-30 12:39:24.228457
753  2023-11-30 12:39:24.260338
754  2023-11-30 12:39:24.292254
755  2023-11-30 12:39:24.324167
756  2023-11-30 12:39:24.356081
757  2023-11-30 12:39:24.388028
758  2023-11-30 12:39:24.419911
759  2023-11-30 12:39:24.451826
760  2023-11-30 12:39:24.483741
761  2023-11-30 12:39:24.515658
762  2023-11-30 12:39:24.548572
763  2023-11-30 12:39:24.596454
764  2023-11-30 12:39:24.628404
765  2023-11-30 12:39:24.660302
766  2023-11-30 12:39:24.692184
767  2023-11-30 12:39:24.724098
768  2023-11-30 12:39:24.756012
769  2023-11-30 12:39:24.788694
770  2023-11-30 12:39:24.820720
771  2023-11-30 12:39:24.851898
772  2023-11-30 12:39:24.883906
773  2023-11-30 12:39:24.915977
774  2023-11-30 12:39:24.947892
775  2023-11-30 12:39:24.995764
776  2023-11-30 12:39:25.027707
777  2023-11-30 12:39:25.060594
778  2023-11-30 12:39:25.092506
779  2023-11-30 12:39:25.124457
780  2023-11-30 12:39:25.156335
781  2023-11-30 12:39:25.188397
782  2023-11-30 12:39:25.219985
783  2023-11-30 12:39:25.251900
784  2023-11-30 12:39:25.284551
785  2023-11-30 12:39:25.316466
786  2023-11-30 12:39:25.348380
787  2023-11-30 12:39:25.396285
788  2023-11-30 12:39:25.428202
789  2023-11-30 12:39:25.460116
790  2023-11-30 12:39:25.493043
791  2023-11-30 12:39:25.523912
792  2023-11-30 12:39:25.555826
793  2023-11-30 12:39:25.587740
794  2023-11-30 12:39:25.620652
795  2023-11-30 12:39:25.652567
796  2023-11-30 12:39:25.684482
797  2023-11-30 12:39:25.716406
798  2023-11-30 12:39:25.748311
799  2023-11-30 12:39:25.796185
800  2023-11-30 12:39:25.827781
801  2023-11-30 12:39:25.859726
802  2023-11-30 12:39:25.892672
803  2023-11-30 12:39:25.924639
804  2023-11-30 12:39:25.955909
805  2023-11-30 12:39:25.988563
806  2023-11-30 12:39:26.020156
807  2023-11-30 12:39:26.052082
808  2023-11-30 12:39:26.083997
809  2023-11-30 12:39:26.116606
810  2023-11-30 12:39:26.148521
811  2023-11-30 12:39:26.196424
812  2023-11-30 12:39:26.228309
813  2023-11-30 12:39:26.260223
814  2023-11-30 12:39:26.292137
815  2023-11-30 12:39:26.324051
816  2023-11-30 12:39:26.356165
817  2023-11-30 12:39:26.388075
818  2023-11-30 12:39:26.419799
819  2023-11-30 12:39:26.451756
820  2023-11-30 12:39:26.484668
821  2023-11-30 12:39:26.516136
822  2023-11-30 12:39:26.548454
823  2023-11-30 12:39:26.596392
824  2023-11-30 12:39:26.628242
825  2023-11-30 12:39:26.660157
826  2023-11-30 12:39:26.692072
827  2023-11-30 12:39:26.724016
828  2023-11-30 12:39:26.755943
829  2023-11-30 12:39:26.787814
830  2023-11-30 12:39:26.819729
831  2023-11-30 12:39:26.852641
832  2023-11-30 12:39:26.884556
833  2023-11-30 12:39:26.916470
834  2023-11-30 12:39:26.948385
835  2023-11-30 12:39:26.996282
836  2023-11-30 12:39:27.028232
837  2023-11-30 12:39:27.060140
838  2023-11-30 12:39:27.092066
839  2023-11-30 12:39:27.123937
840  2023-11-30 12:39:27.155851
841  2023-11-30 12:39:27.187798
842  2023-11-30 12:39:27.219714
843  2023-11-30 12:39:27.252593
844  2023-11-30 12:39:27.283833
845  2023-11-30 12:39:27.315748
846  2023-11-30 12:39:27.348660
847  2023-11-30 12:39:27.396749
848  2023-11-30 12:39:27.428631
849  2023-11-30 12:39:27.460554
850  2023-11-30 12:39:27.492437
851  2023-11-30 12:39:27.524349
852  2023-11-30 12:39:27.556584
853  2023-11-30 12:39:27.588518
854  2023-11-30 12:39:27.620004
855  2023-11-30 12:39:27.651967
856  2023-11-30 12:39:27.683881
857  2023-11-30 12:39:27.715801
858  2023-11-30 12:39:27.748708
859  2023-11-30 12:39:27.796582
860  2023-11-30 12:39:27.828531
861  2023-11-30 12:39:27.860425
862  2023-11-30 12:39:27.892341
863  2023-11-30 12:39:27.924250
864  2023-11-30 12:39:27.956153
865  2023-11-30 12:39:27.988068
866  2023-11-30 12:39:28.020241
867  2023-11-30 12:39:28.052124
868  2023-11-30 12:39:28.084569
869  2023-11-30 12:39:28.116111
870  2023-11-30 12:39:28.148237
871  2023-11-30 12:39:28.196606
872  2023-11-30 12:39:28.228560
873  2023-11-30 12:39:28.260473
874  2023-11-30 12:39:28.292350
875  2023-11-30 12:39:28.324264
876  2023-11-30 12:39:28.356190
877  2023-11-30 12:39:28.388094
878  2023-11-30 12:39:28.420009
879  2023-11-30 12:39:28.451941
880  2023-11-30 12:39:28.483838
881  2023-11-30 12:39:28.515787
882  2023-11-30 12:39:28.548705
883  2023-11-30 12:39:28.596537
884  2023-11-30 12:39:28.628490
885  2023-11-30 12:39:28.660353
886  2023-11-30 12:39:28.692309
887  2023-11-30 12:39:28.724181
888  2023-11-30 12:39:28.756096
889  2023-11-30 12:39:28.788010
890  2023-11-30 12:39:28.819925
891  2023-11-30 12:39:28.851841
892  2023-11-30 12:39:28.883755
893  2023-11-30 12:39:28.916667
894  2023-11-30 12:39:28.948581
895  2023-11-30 12:39:28.996396
896  2023-11-30 12:39:29.028340
897  2023-11-30 12:39:29.060626
898  2023-11-30 12:39:29.092577
899  2023-11-30 12:39:29.124491
900  2023-11-30 12:39:29.156405
901  2023-11-30 12:39:29.188564
902  2023-11-30 12:39:29.220491
903  2023-11-30 12:39:29.252511
904  2023-11-30 12:39:29.284680
905  2023-11-30 12:39:29.315824
906  2023-11-30 12:39:29.348703
907  2023-11-30 12:39:29.396577
908  2023-11-30 12:39:29.428971
909  2023-11-30 12:39:29.459932
910  2023-11-30 12:39:29.492844
911  2023-11-30 12:39:29.524757
912  2023-11-30 12:39:29.556252
913  2023-11-30 12:39:29.588237
914  2023-11-30 12:39:29.620215
915  2023-11-30 12:39:29.652293
916  2023-11-30 12:39:29.684107
917  2023-11-30 12:39:29.716040
918  2023-11-30 12:39:29.747954
919  2023-11-30 12:39:29.796427
920  2023-11-30 12:39:29.828312
921  2023-11-30 12:39:29.860253
922  2023-11-30 12:39:29.892014
923  2023-11-30 12:39:29.923929
924  2023-11-30 12:39:29.955843
925  2023-11-30 12:39:29.987758
926  2023-11-30 12:39:30.020671
927  2023-11-30 12:39:30.052621
928  2023-11-30 12:39:30.084429
929  2023-11-30 12:39:30.116147
930  2023-11-30 12:39:30.148061
931  2023-11-30 12:39:30.196963
932  2023-11-30 12:39:30.228847
933  2023-11-30 12:39:30.260817
934  2023-11-30 12:39:30.292677
935  2023-11-30 12:39:30.324591
936  2023-11-30 12:39:30.356506
937  2023-11-30 12:39:30.388437
938  2023-11-30 12:39:30.420335
939  2023-11-30 12:39:30.452250
940  2023-11-30 12:39:30.484164
941  2023-11-30 12:39:30.516114
942  2023-11-30 12:39:30.548026
943  2023-11-30 12:39:30.596863
944  2023-11-30 12:39:30.628827
945  2023-11-30 12:39:30.660693
946  2023-11-30 12:39:30.692607
947  2023-11-30 12:39:30.723860
948  2023-11-30 12:39:30.756295
949  2023-11-30 12:39:30.789246
950  2023-11-30 12:39:30.821189
951  2023-11-30 12:39:30.853038
952  2023-11-30 12:39:30.884952
953  2023-11-30 12:39:30.916868
954  2023-11-30 12:39:30.948808
955  2023-11-30 12:39:30.996654
956  2023-11-30 12:39:31.028570
957  2023-11-30 12:39:31.060483
958  2023-11-30 12:39:31.092397
959  2023-11-30 12:39:31.124312
960  2023-11-30 12:39:31.156226
961  2023-11-30 12:39:31.188141
962  2023-11-30 12:39:31.221065
963  2023-11-30 12:39:31.252999
964  2023-11-30 12:39:31.284917
965  2023-11-30 12:39:31.316798
966  2023-11-30 12:39:31.348927
967  2023-11-30 12:39:31.396766
968  2023-11-30 12:39:31.428716
969  2023-11-30 12:39:31.460641
970  2023-11-30 12:39:31.492509
971  2023-11-30 12:39:31.524423
972  2023-11-30 12:39:31.556386
973  2023-11-30 12:39:31.588253
974  2023-11-30 12:39:31.620167
975  2023-11-30 12:39:31.652081
976  2023-11-30 12:39:31.684150
977  2023-11-30 12:39:31.716618
978  2023-11-30 12:39:31.748534
979  2023-11-30 12:39:31.796407
980  2023-11-30 12:39:31.828288
981  2023-11-30 12:39:31.860203
982  2023-11-30 12:39:31.892118
983  2023-11-30 12:39:31.924031
984  2023-11-30 12:39:31.955946
985  2023-11-30 12:39:31.987892
986  2023-11-30 12:39:32.020125
987  2023-11-30 12:39:32.052038
988  2023-11-30 12:39:32.084154
989  2023-11-30 12:39:32.116069
990  2023-11-30 12:39:32.147983
991  2023-11-30 12:39:32.195855
992  2023-11-30 12:39:32.228768
993  2023-11-30 12:39:32.260772
994  2023-11-30 12:39:32.292680
995  2023-11-30 12:39:32.324558
996  2023-11-30 12:39:32.356359
997  2023-11-30 12:39:32.388163
998  2023-11-30 12:39:32.420085
999  2023-11-30 12:39:32.452979
1000  2023-11-30 12:39:32.484229
1001  2023-11-30 12:39:32.516602
1002  2023-11-30 12:39:32.548502
1003  2023-11-30 12:39:32.597377
1004  2023-11-30 12:39:32.628290
1005  2023-11-30 12:39:32.660205
1006  2023-11-30 12:39:32.692168
1007  2023-11-30 12:39:32.725031
1008  2023-11-30 12:39:32.756993
1009  2023-11-30 12:39:32.788921
1010  2023-11-30 12:39:32.820775
1011  2023-11-30 12:39:32.852744
1012  2023-11-30 12:39:32.884756
1013  2023-11-30 12:39:32.916801
1014  2023-11-30 12:39:32.947960
1015  2023-11-30 12:39:32.996829
1016  2023-11-30 12:39:33.028770
1017  2023-11-30 12:39:33.059825
1018  2023-11-30 12:39:33.092771
1019  2023-11-30 12:39:33.124654
1020  2023-11-30 12:39:33.156567
1021  2023-11-30 12:39:33.188528
1022  2023-11-30 12:39:33.220351
1023  2023-11-30 12:39:33.252265
1024  2023-11-30 12:39:33.284180
1025  2023-11-30 12:39:33.316095
1026  2023-11-30 12:39:33.348054
1027  2023-11-30 12:39:33.395941
1028  2023-11-30 12:39:33.428811
1029  2023-11-30 12:39:33.459839
1030  2023-11-30 12:39:33.492421
1031  2023-11-30 12:39:33.524380
1032  2023-11-30 12:39:33.556500
1033  2023-11-30 12:39:33.588615
1034  2023-11-30 12:39:33.620337
1035  2023-11-30 12:39:33.652252
1036  2023-11-30 12:39:33.684205
1037  2023-11-30 12:39:33.716133
1038  2023-11-30 12:39:33.748028
1039  2023-11-30 12:39:33.795870
1040  2023-11-30 12:39:33.828882
1041  2023-11-30 12:39:33.860165
1042  2023-11-30 12:39:33.892079
1043  2023-11-30 12:39:33.924011
1044  2023-11-30 12:39:33.955913
1045  2023-11-30 12:39:33.987793
1046  2023-11-30 12:39:34.020104
1047  2023-11-30 12:39:34.051950
1048  2023-11-30 12:39:34.084227
1049  2023-11-30 12:39:34.116100
1050  2023-11-30 12:39:34.148055
1051  2023-11-30 12:39:34.196091
1052  2023-11-30 12:39:34.228107
1053  2023-11-30 12:39:34.260133
1054  2023-11-30 12:39:34.292052
1055  2023-11-30 12:39:34.323909
1056  2023-11-30 12:39:34.355824
1057  2023-11-30 12:39:34.387739
1058  2023-11-30 12:39:34.420688
1059  2023-11-30 12:39:34.452564
1060  2023-11-30 12:39:34.484512
1061  2023-11-30 12:39:34.515938
1062  2023-11-30 12:39:34.547806
1063  2023-11-30 12:39:34.596659
1064  2023-11-30 12:39:34.628557
1065  2023-11-30 12:39:34.660450
1066  2023-11-30 12:39:34.692379
1067  2023-11-30 12:39:34.724687
1068  2023-11-30 12:39:34.756687
1069  2023-11-30 12:39:34.787955
1070  2023-11-30 12:39:34.819832
1071  2023-11-30 12:39:34.851782
1072  2023-11-30 12:39:34.884688
1073  2023-11-30 12:39:34.916605
1074  2023-11-30 12:39:34.948521
1075  2023-11-30 12:39:34.996361
1076  2023-11-30 12:39:35.028275
1077  2023-11-30 12:39:35.060225
1078  2023-11-30 12:39:35.092104
1079  2023-11-30 12:39:35.124052
1080  2023-11-30 12:39:35.156987
1081  2023-11-30 12:39:35.188829
1082  2023-11-30 12:39:35.220803
1083  2023-11-30 12:39:35.252779
1084  2023-11-30 12:39:35.284740
1085  2023-11-30 12:39:35.316625
1086  2023-11-30 12:39:35.348732
1087  2023-11-30 12:39:35.396577
1088  2023-11-30 12:39:35.428489
1089  2023-11-30 12:39:35.460404
1090  2023-11-30 12:39:35.492322
1091  2023-11-30 12:39:35.524269
1092  2023-11-30 12:39:35.556256
1093  2023-11-30 12:39:35.588179
1094  2023-11-30 12:39:35.620065
1095  2023-11-30 12:39:35.652062
1096  2023-11-30 12:39:35.683974
1097  2023-11-30 12:39:35.715895
1098  2023-11-30 12:39:35.747807
1099  2023-11-30 12:39:35.796696
1100  2023-11-30 12:39:35.828690
1101  2023-11-30 12:39:35.860629
1102  2023-11-30 12:39:35.892657
1103  2023-11-30 12:39:35.924534
1104  2023-11-30 12:39:35.956480
1105  2023-11-30 12:39:35.988394
1106  2023-11-30 12:39:36.020309
1107  2023-11-30 12:39:36.052223
1108  2023-11-30 12:39:36.084359
1109  2023-11-30 12:39:36.116322
1110  2023-11-30 12:39:36.148237
1111  2023-11-30 12:39:36.197074
1112  2023-11-30 12:39:36.229027
1113  2023-11-30 12:39:36.259943
1114  2023-11-30 12:39:36.292910
1115  2023-11-30 12:39:36.324823
1116  2023-11-30 12:39:36.356872
1117  2023-11-30 12:39:36.388838
1118  2023-11-30 12:39:36.420752
1119  2023-11-30 12:39:36.452731
1120  2023-11-30 12:39:36.484723
1121  2023-11-30 12:39:36.515857
1122  2023-11-30 12:39:36.548771
1123  2023-11-30 12:39:36.596640
1124  2023-11-30 12:39:36.628557
1125  2023-11-30 12:39:36.660613
1126  2023-11-30 12:39:36.692080
1127  2023-11-30 12:39:36.724235
1128  2023-11-30 12:39:36.755983
1129  2023-11-30 12:39:36.787900
1130  2023-11-30 12:39:36.819815
1131  2023-11-30 12:39:36.851830
1132  2023-11-30 12:39:36.884742
1133  2023-11-30 12:39:36.916657
1134  2023-11-30 12:39:36.948560
1135  2023-11-30 12:39:36.997057
1136  2023-11-30 12:39:37.027979
1137  2023-11-30 12:39:37.059927
1138  2023-11-30 12:39:37.091809
1139  2023-11-30 12:39:37.123817
1140  2023-11-30 12:39:37.155730
1141  2023-11-30 12:39:37.188640
1142  2023-11-30 12:39:37.220554
1143  2023-11-30 12:39:37.252469
1144  2023-11-30 12:39:37.284349
1145  2023-11-30 12:39:37.316297
1146  2023-11-30 12:39:37.348246
1147  2023-11-30 12:39:37.396097
1148  2023-11-30 12:39:37.427998
1149  2023-11-30 12:39:37.459914
1150  2023-11-30 12:39:37.492792
1151  2023-11-30 12:39:37.523709
1152  2023-11-30 12:39:37.556623
1153  2023-11-30 12:39:37.588587
1154  2023-11-30 12:39:37.620452
1155  2023-11-30 12:39:37.652367
1156  2023-11-30 12:39:37.684281
1157  2023-11-30 12:39:37.716200
1158  2023-11-30 12:39:37.748114
1159  2023-11-30 12:39:37.795986
1160  2023-11-30 12:39:37.828012
1161  2023-11-30 12:39:37.860567
1162  2023-11-30 12:39:37.891961
1163  2023-11-30 12:39:37.923829
1164  2023-11-30 12:39:37.956753
1165  2023-11-30 12:39:37.988392
1166  2023-11-30 12:39:38.020365
1167  2023-11-30 12:39:38.051915
1168  2023-11-30 12:39:38.083887
1169  2023-11-30 12:39:38.115979
1170  2023-11-30 12:39:38.147883
1171  2023-11-30 12:39:38.196723
1172  2023-11-30 12:39:38.227643
1173  2023-11-30 12:39:38.260551
1174  2023-11-30 12:39:38.292465
1175  2023-11-30 12:39:38.324379
1176  2023-11-30 12:39:38.356333
1177  2023-11-30 12:39:38.388243
1178  2023-11-30 12:39:38.420174
1179  2023-11-30 12:39:38.452210
1180  2023-11-30 12:39:38.484116
1181  2023-11-30 12:39:38.516692
1182  2023-11-30 12:39:38.547985
1183  2023-11-30 12:39:38.595866
1184  2023-11-30 12:39:38.627909
1185  2023-11-30 12:39:38.659825
1186  2023-11-30 12:39:38.692735
1187  2023-11-30 12:39:38.724221
1188  2023-11-30 12:39:38.756135
1189  2023-11-30 12:39:38.788049
1190  2023-11-30 12:39:38.819965
1191  2023-11-30 12:39:38.851883
1192  2023-11-30 12:39:38.883798
1193  2023-11-30 12:39:38.915760
1194  2023-11-30 12:39:38.948706
1195  2023-11-30 12:39:38.996611
1196  2023-11-30 12:39:39.028588
1197  2023-11-30 12:39:39.060584
1198  2023-11-30 12:39:39.092580
1199  2023-11-30 12:39:39.124545
1200  2023-11-30 12:39:39.156531
1201  2023-11-30 12:39:39.188447
1202  2023-11-30 12:39:39.220360
1203  2023-11-30 12:39:39.252274
1204  2023-11-30 12:39:39.284199
1205  2023-11-30 12:39:39.316107
1206  2023-11-30 12:39:39.348025
1207  2023-11-30 12:39:39.395862
1208  2023-11-30 12:39:39.427804
1209  2023-11-30 12:39:39.459724
1210  2023-11-30 12:39:39.492648
1211  2023-11-30 12:39:39.524549
1212  2023-11-30 12:39:39.556463
1213  2023-11-30 12:39:39.588377
1214  2023-11-30 12:39:39.620291
1215  2023-11-30 12:39:39.652207
1216  2023-11-30 12:39:39.684133
1217  2023-11-30 12:39:39.716035
1218  2023-11-30 12:39:39.747952
1219  2023-11-30 12:39:39.796819
1220  2023-11-30 12:39:39.828747
1221  2023-11-30 12:39:39.860618
1222  2023-11-30 12:39:39.892532
1223  2023-11-30 12:39:39.924448
1224  2023-11-30 12:39:39.956361
1225  2023-11-30 12:39:39.988311
1226  2023-11-30 12:39:40.020230
1227  2023-11-30 12:39:40.052155
1228  2023-11-30 12:39:40.084055
1229  2023-11-30 12:39:40.115935
1230  2023-11-30 12:39:40.147889
1231  2023-11-30 12:39:40.195837
1232  2023-11-30 12:39:40.227964
1233  2023-11-30 12:39:40.259873
1234  2023-11-30 12:39:40.291793
1235  2023-11-30 12:39:40.324720
1236  2023-11-30 12:39:40.356635
1237  2023-11-30 12:39:40.388549
1238  2023-11-30 12:39:40.420465
1239  2023-11-30 12:39:40.452472
1240  2023-11-30 12:39:40.484484
1241  2023-11-30 12:39:40.516413
1242  2023-11-30 12:39:40.548314
1243  2023-11-30 12:39:40.596156
1244  2023-11-30 12:39:40.628101
1245  2023-11-30 12:39:40.659730
1246  2023-11-30 12:39:40.692656
1247  2023-11-30 12:39:40.724559
1248  2023-11-30 12:39:40.756462
1249  2023-11-30 12:39:40.788377
1250  2023-11-30 12:39:40.820290
1251  2023-11-30 12:39:40.852294
1252  2023-11-30 12:39:40.884210
1253  2023-11-30 12:39:40.916680
1254  2023-11-30 12:39:40.948627
1255  2023-11-30 12:39:40.996504
1256  2023-11-30 12:39:41.028419
1257  2023-11-30 12:39:41.060333
1258  2023-11-30 12:39:41.092252
1259  2023-11-30 12:39:41.124163
1260  2023-11-30 12:39:41.156110
1261  2023-11-30 12:39:41.188093
1262  2023-11-30 12:39:41.220003
1263  2023-11-30 12:39:41.251918
1264  2023-11-30 12:39:41.283802
1265  2023-11-30 12:39:41.315748
1266  2023-11-30 12:39:41.348346
1267  2023-11-30 12:39:41.396279
1268  2023-11-30 12:39:41.428219
1269  2023-11-30 12:39:41.460108
1270  2023-11-30 12:39:41.492029
1271  2023-11-30 12:39:41.524903
1272  2023-11-30 12:39:41.555920
1273  2023-11-30 12:39:41.587834
1274  2023-11-30 12:39:41.619748
1275  2023-11-30 12:39:41.652660
1276  2023-11-30 12:39:41.684694
1277  2023-11-30 12:39:41.716574
1278  2023-11-30 12:39:41.748489
1279  2023-11-30 12:39:41.796362
1280  2023-11-30 12:39:41.828275
1281  2023-11-30 12:39:41.860224
1282  2023-11-30 12:39:41.891754
1283  2023-11-30 12:39:41.924592
1284  2023-11-30 12:39:41.956014
1285  2023-11-30 12:39:41.987928
1286  2023-11-30 12:39:42.019878
1287  2023-11-30 12:39:42.051794
1288  2023-11-30 12:39:42.084675
1289  2023-11-30 12:39:42.116591
1290  2023-11-30 12:39:42.148504
1291  2023-11-30 12:39:42.196430
1292  2023-11-30 12:39:42.228648
1293  2023-11-30 12:39:42.260595
1294  2023-11-30 12:39:42.292513
1295  2023-11-30 12:39:42.324511
1296  2023-11-30 12:39:42.356514
1297  2023-11-30 12:39:42.388428
1298  2023-11-30 12:39:42.420374
1299  2023-11-30 12:39:42.452291
1300  2023-11-30 12:39:42.484205
1301  2023-11-30 12:39:42.516087
1302  2023-11-30 12:39:42.548002
1303  2023-11-30 12:39:42.595874
1304  2023-11-30 12:39:42.628786
1305  2023-11-30 12:39:42.659731
1306  2023-11-30 12:39:42.692615
1307  2023-11-30 12:39:42.724530
1308  2023-11-30 12:39:42.756444
1309  2023-11-30 12:39:42.788359
1310  2023-11-30 12:39:42.820274
1311  2023-11-30 12:39:42.852188
1312  2023-11-30 12:39:42.884136
1313  2023-11-30 12:39:42.916018
1314  2023-11-30 12:39:42.947932
1315  2023-11-30 12:39:42.996802
1316  2023-11-30 12:39:43.028717
1317  2023-11-30 12:39:43.060631
1318  2023-11-30 12:39:43.092546
1319  2023-11-30 12:39:43.124461
1320  2023-11-30 12:39:43.156375
1321  2023-11-30 12:39:43.188292
1322  2023-11-30 12:39:43.220205
1323  2023-11-30 12:39:43.252124
1324  2023-11-30 12:39:43.284034
1325  2023-11-30 12:39:43.316281
1326  2023-11-30 12:39:43.348196
1327  2023-11-30 12:39:43.396067
1328  2023-11-30 12:39:43.428014
1329  2023-11-30 12:39:43.460434
1330  2023-11-30 12:39:43.492109
1331  2023-11-30 12:39:43.524024
1332  2023-11-30 12:39:43.555969
1333  2023-11-30 12:39:43.587853
1334  2023-11-30 12:39:43.619799
1335  2023-11-30 12:39:43.652680
1336  2023-11-30 12:39:43.684640
1337  2023-11-30 12:39:43.716543
1338  2023-11-30 12:39:43.748424
1339  2023-11-30 12:39:43.796296
1340  2023-11-30 12:39:43.828211
1341  2023-11-30 12:39:43.860126
1342  2023-11-30 12:39:43.892082
1343  2023-11-30 12:39:43.923962
1344  2023-11-30 12:39:43.955911
1345  2023-11-30 12:39:43.987826
1346  2023-11-30 12:39:44.020771
1347  2023-11-30 12:39:44.052653
1348  2023-11-30 12:39:44.084567
1349  2023-11-30 12:39:44.116482
1350  2023-11-30 12:39:44.148397
1351  2023-11-30 12:39:44.196269
1352  2023-11-30 12:39:44.228183
1353  2023-11-30 12:39:44.260099
1354  2023-11-30 12:39:44.292017
1355  2023-11-30 12:39:44.323927
1356  2023-11-30 12:39:44.355842
1357  2023-11-30 12:39:44.388754
1358  2023-11-30 12:39:44.420669
1359  2023-11-30 12:39:44.452583
1360  2023-11-30 12:39:44.484498
1361  2023-11-30 12:39:44.516413
1362  2023-11-30 12:39:44.548327
1363  2023-11-30 12:39:44.596200
1364  2023-11-30 12:39:44.628114
1365  2023-11-30 12:39:44.660029
1366  2023-11-30 12:39:44.691944
1367  2023-11-30 12:39:44.723858
1368  2023-11-30 12:39:44.756772
1369  2023-11-30 12:39:44.788685
1370  2023-11-30 12:39:44.820600
1371  2023-11-30 12:39:44.852514
1372  2023-11-30 12:39:44.884429
1373  2023-11-30 12:39:44.916344
1374  2023-11-30 12:39:44.948258
1375  2023-11-30 12:39:44.996130
1376  2023-11-30 12:39:45.028045
1377  2023-11-30 12:39:45.059960
1378  2023-11-30 12:39:45.091910
1379  2023-11-30 12:39:45.123789
1380  2023-11-30 12:39:45.155704
1381  2023-11-30 12:39:45.188616
1382  2023-11-30 12:39:45.220564
1383  2023-11-30 12:39:45.251816
1384  2023-11-30 12:39:45.284194
1385  2023-11-30 12:39:45.315706
1386  2023-11-30 12:39:45.348617
1387  2023-11-30 12:39:45.396490
1388  2023-11-30 12:39:45.428457
1389  2023-11-30 12:39:45.460362
1390  2023-11-30 12:39:45.492323
1391  2023-11-30 12:39:45.524394
1392  2023-11-30 12:39:45.556576
1393  2023-11-30 12:39:45.588618
1394  2023-11-30 12:39:45.620661
1395  2023-11-30 12:39:45.652576
1396  2023-11-30 12:39:45.684491
1397  2023-11-30 12:39:45.716405
1398  2023-11-30 12:39:45.748320
1399  2023-11-30 12:39:45.796268
1400  2023-11-30 12:39:45.828182
1401  2023-11-30 12:39:45.860097
1402  2023-11-30 12:39:45.892012
1403  2023-11-30 12:39:45.924925
1404  2023-11-30 12:39:45.955841
1405  2023-11-30 12:39:45.988056
1406  2023-11-30 12:39:46.019951
1407  2023-11-30 12:39:46.051830
1408  2023-11-30 12:39:46.084460
1409  2023-11-30 12:39:46.116375
1410  2023-11-30 12:39:46.148395
1411  2023-11-30 12:39:46.196329
1412  2023-11-30 12:39:46.228446
1413  2023-11-30 12:39:46.260053
1414  2023-11-30 12:39:46.291967
1415  2023-11-30 12:39:46.323882
1416  2023-11-30 12:39:46.355797
1417  2023-11-30 12:39:46.388709
1418  2023-11-30 12:39:46.420624
1419  2023-11-30 12:39:46.452540
1420  2023-11-30 12:39:46.484453
1421  2023-11-30 12:39:46.516368
1422  2023-11-30 12:39:46.548282
1423  2023-11-30 12:39:46.596154
1424  2023-11-30 12:39:46.628077
1425  2023-11-30 12:39:46.659984
1426  2023-11-30 12:39:46.691898
1427  2023-11-30 12:39:46.723813
1428  2023-11-30 12:39:46.756728
1429  2023-11-30 12:39:46.788640
1430  2023-11-30 12:39:46.820555
1431  2023-11-30 12:39:46.852469
1432  2023-11-30 12:39:46.884425
1433  2023-11-30 12:39:46.916298
1434  2023-11-30 12:39:46.948213
1435  2023-11-30 12:39:46.996085
1436  2023-11-30 12:39:47.028000
1437  2023-11-30 12:39:47.060912
1438  2023-11-30 12:39:47.091870
1439  2023-11-30 12:39:47.123744
1440  2023-11-30 12:39:47.156656
1441  2023-11-30 12:39:47.187936
1442  2023-11-30 12:39:47.219866
1443  2023-11-30 12:39:47.251909
1444  2023-11-30 12:39:47.283906
1445  2023-11-30 12:39:47.316015
1446  2023-11-30 12:39:47.348473
1447  2023-11-30 12:39:47.396313
1448  2023-11-30 12:39:47.428228
1449  2023-11-30 12:39:47.460143
1450  2023-11-30 12:39:47.492455
1451  2023-11-30 12:39:47.524371
1452  2023-11-30 12:39:47.556285
1453  2023-11-30 12:39:47.588199
1454  2023-11-30 12:39:47.620161
1455  2023-11-30 12:39:47.652075
1456  2023-11-30 12:39:47.683990
1457  2023-11-30 12:39:47.716903
1458  2023-11-30 12:39:47.747820
1459  2023-11-30 12:39:47.796725
1460  2023-11-30 12:39:47.828604
1461  2023-11-30 12:39:47.860615
1462  2023-11-30 12:39:47.892551
1463  2023-11-30 12:39:47.924470
1464  2023-11-30 12:39:47.956436
1465  2023-11-30 12:39:47.988633
1466  2023-11-30 12:39:48.020530
1467  2023-11-30 12:39:48.052473
1468  2023-11-30 12:39:48.084415
1469  2023-11-30 12:39:48.116330
1470  2023-11-30 12:39:48.148471
1471  2023-11-30 12:39:48.196343
1472  2023-11-30 12:39:48.228257
1473  2023-11-30 12:39:48.259916
1474  2023-11-30 12:39:48.291830
1475  2023-11-30 12:39:48.323745
1476  2023-11-30 12:39:48.355731
1477  2023-11-30 12:39:48.388350
1478  2023-11-30 12:39:48.420264
1479  2023-11-30 12:39:48.452179
1480  2023-11-30 12:39:48.484093
1481  2023-11-30 12:39:48.516008
1482  2023-11-30 12:39:48.548960
1483  2023-11-30 12:39:48.595795
1484  2023-11-30 12:39:48.628709
1485  2023-11-30 12:39:48.660622
1486  2023-11-30 12:39:48.692536
1487  2023-11-30 12:39:48.724451
1488  2023-11-30 12:39:48.756365
1489  2023-11-30 12:39:48.788280
1490  2023-11-30 12:39:48.820195
1491  2023-11-30 12:39:48.852213
1492  2023-11-30 12:39:48.885026
1493  2023-11-30 12:39:48.916937
1494  2023-11-30 12:39:48.948852
1495  2023-11-30 12:39:48.996723
1496  2023-11-30 12:39:49.028638
1497  2023-11-30 12:39:49.060552
1498  2023-11-30 12:39:49.092467
1499  2023-11-30 12:39:49.124382
1500  2023-11-30 12:39:49.156337
1501  2023-11-30 12:39:49.188211
1502  2023-11-30 12:39:49.220042
1503  2023-11-30 12:39:49.251978
1504  2023-11-30 12:39:49.283899
1505  2023-11-30 12:39:49.316089
1506  2023-11-30 12:39:49.348727
1507  2023-11-30 12:39:49.396054
1508  2023-11-30 12:39:49.428098
1509  2023-11-30 12:39:49.460494
1510  2023-11-30 12:39:49.491959
1511  2023-11-30 12:39:49.524715
1512  2023-11-30 12:39:49.556630
1513  2023-11-30 12:39:49.588544
1514  2023-11-30 12:39:49.620459
1515  2023-11-30 12:39:49.652374
1516  2023-11-30 12:39:49.684586
1517  2023-11-30 12:39:49.716501
1518  2023-11-30 12:39:49.748419
1519  2023-11-30 12:39:49.796292
1520  2023-11-30 12:39:49.828253
1521  2023-11-30 12:39:49.860168
1522  2023-11-30 12:39:49.892083
1523  2023-11-30 12:39:49.923997
1524  2023-11-30 12:39:49.955912
1525  2023-11-30 12:39:49.987826
1526  2023-11-30 12:39:50.020739
1527  2023-11-30 12:39:50.052687
1528  2023-11-30 12:39:50.084568
1529  2023-11-30 12:39:50.116483
1530  2023-11-30 12:39:50.148400
1531  2023-11-30 12:39:50.196320
1532  2023-11-30 12:39:50.228184
1533  2023-11-30 12:39:50.260121
1534  2023-11-30 12:39:50.292014
1535  2023-11-30 12:39:50.323928
1536  2023-11-30 12:39:50.355843
1537  2023-11-30 12:39:50.388765
1538  2023-11-30 12:39:50.420682
1539  2023-11-30 12:39:50.452584
1540  2023-11-30 12:39:50.484499
1541  2023-11-30 12:39:50.516451
1542  2023-11-30 12:39:50.548330
1543  2023-11-30 12:39:50.596068
1544  2023-11-30 12:39:50.628189
1545  2023-11-30 12:39:50.660217
1546  2023-11-30 12:39:50.692439
1547  2023-11-30 12:39:50.724467
1548  2023-11-30 12:39:50.756341
1549  2023-11-30 12:39:50.788255
1550  2023-11-30 12:39:50.820171
1551  2023-11-30 12:39:50.852085
1552  2023-11-30 12:39:50.883999
1553  2023-11-30 12:39:50.915914
1554  2023-11-30 12:39:50.947830
1555  2023-11-30 12:39:50.995905
1556  2023-11-30 12:39:51.028819
1557  2023-11-30 12:39:51.059735
1558  2023-11-30 12:39:51.092647
1559  2023-11-30 12:39:51.124742
1560  2023-11-30 12:39:51.155762
1561  2023-11-30 12:39:51.188674
1562  2023-11-30 12:39:51.220633
1563  2023-11-30 12:39:51.252551
1564  2023-11-30 12:39:51.284418
1565  2023-11-30 12:39:51.316333
1566  2023-11-30 12:39:51.348305
1567  2023-11-30 12:39:51.396120
1568  2023-11-30 12:39:51.428602
1569  2023-11-30 12:39:51.460604
1570  2023-11-30 12:39:51.491797
1571  2023-11-30 12:39:51.524232
1572  2023-11-30 12:39:51.556332
1573  2023-11-30 12:39:51.588324
1574  2023-11-30 12:39:51.619721
1575  2023-11-30 12:39:51.651829
1576  2023-11-30 12:39:51.684695
1577  2023-11-30 12:39:51.716610
1578  2023-11-30 12:39:51.748556
1579  2023-11-30 12:39:51.796397
1580  2023-11-30 12:39:51.828404
1581  2023-11-30 12:39:51.860315
1582  2023-11-30 12:39:51.892229
1583  2023-11-30 12:39:51.924145
1584  2023-11-30 12:39:51.956063
1585  2023-11-30 12:39:51.988026
1586  2023-11-30 12:39:52.019981
1587  2023-11-30 12:39:52.051896
1588  2023-11-30 12:39:52.083810
1589  2023-11-30 12:39:52.116771
1590  2023-11-30 12:39:52.148677
1591  2023-11-30 12:39:52.196567
1592  2023-11-30 12:39:52.227693
1593  2023-11-30 12:39:52.260605
1594  2023-11-30 12:39:52.292520
1595  2023-11-30 12:39:52.324435
1596  2023-11-30 12:39:52.356350
1597  2023-11-30 12:39:52.388264
1598  2023-11-30 12:39:52.420841
1599  2023-11-30 12:39:52.452264
1600  2023-11-30 12:39:52.484237
1601  2023-11-30 12:39:52.516194
1602  2023-11-30 12:39:52.548330
1603  2023-11-30 12:39:52.595935
1604  2023-11-30 12:39:52.628626
1605  2023-11-30 12:39:52.659969
1606  2023-11-30 12:39:52.691989
1607  2023-11-30 12:39:52.724591
1608  2023-11-30 12:39:52.756504
1609  2023-11-30 12:39:52.788431
1610  2023-11-30 12:39:52.820063
1611  2023-11-30 12:39:52.851978
1612  2023-11-30 12:39:52.884488
1613  2023-11-30 12:39:52.916403
1614  2023-11-30 12:39:52.948355
1615  2023-11-30 12:39:52.996190
1616  2023-11-30 12:39:53.028104
1617  2023-11-30 12:39:53.060019
1618  2023-11-30 12:39:53.091933
1619  2023-11-30 12:39:53.123848
1620  2023-11-30 12:39:53.156760
1621  2023-11-30 12:39:53.188675
1622  2023-11-30 12:39:53.220152
1623  2023-11-30 12:39:53.253065
1624  2023-11-30 12:39:53.283982
1625  2023-11-30 12:39:53.315920
1626  2023-11-30 12:39:53.347922
1627  2023-11-30 12:39:53.396741
1628  2023-11-30 12:39:53.428655
1629  2023-11-30 12:39:53.461591
1630  2023-11-30 12:39:53.492517
1631  2023-11-30 12:39:53.525421
1632  2023-11-30 12:39:53.557346
1633  2023-11-30 12:39:53.589272
1634  2023-11-30 12:39:53.621167
1635  2023-11-30 12:39:53.653056
1636  2023-11-30 12:39:53.685013
1637  2023-11-30 12:39:53.716886
1638  2023-11-30 12:39:53.748800
1639  2023-11-30 12:39:53.796671
1640  2023-11-30 12:39:53.828594
1641  2023-11-30 12:39:53.860680
1642  2023-11-30 12:39:53.892631
1643  2023-11-30 12:39:53.924545
1644  2023-11-30 12:39:53.956460
1645  2023-11-30 12:39:53.989382
1646  2023-11-30 12:39:54.021347
1647  2023-11-30 12:39:54.053236
1648  2023-11-30 12:39:54.084119
1649  2023-11-30 12:39:54.117033
1650  2023-11-30 12:39:54.148951
1651  2023-11-30 12:39:54.196847
1652  2023-11-30 12:39:54.228784
1653  2023-11-30 12:39:54.260680
1654  2023-11-30 12:39:54.292587
1655  2023-11-30 12:39:54.324477
1656  2023-11-30 12:39:54.356391
1657  2023-11-30 12:39:54.388310
1658  2023-11-30 12:39:54.421219
1659  2023-11-30 12:39:54.452186
1660  2023-11-30 12:39:54.484312
1661  2023-11-30 12:39:54.517290
1662  2023-11-30 12:39:54.549174
1663  2023-11-30 12:39:54.596633
1664  2023-11-30 12:39:54.628287
1665  2023-11-30 12:39:54.660202
1666  2023-11-30 12:39:54.692163
1667  2023-11-30 12:39:54.724509
1668  2023-11-30 12:39:54.756469
1669  2023-11-30 12:39:54.788752
1670  2023-11-30 12:39:54.820687
1671  2023-11-30 12:39:54.852094
1672  2023-11-30 12:39:54.884517
1673  2023-11-30 12:39:54.916556
1674  2023-11-30 12:39:54.948267
1675  2023-11-30 12:39:54.996188
1676  2023-11-30 12:39:55.028102
1677  2023-11-30 12:39:55.060296
1678  2023-11-30 12:39:55.092224
1679  2023-11-30 12:39:55.124138
1680  2023-11-30 12:39:55.157007
1681  2023-11-30 12:39:55.188927
1682  2023-11-30 12:39:55.220836
1683  2023-11-30 12:39:55.252753
1684  2023-11-30 12:39:55.284666
1685  2023-11-30 12:39:55.316628
1686  2023-11-30 12:39:55.348545
1687  2023-11-30 12:39:55.396404
1688  2023-11-30 12:39:55.428308
1689  2023-11-30 12:39:55.460245
1690  2023-11-30 12:39:55.493177
1691  2023-11-30 12:39:55.524190
1692  2023-11-30 12:39:55.556074
1693  2023-11-30 12:39:55.588033
1694  2023-11-30 12:39:55.619927
1695  2023-11-30 12:39:55.652814
1696  2023-11-30 12:39:55.684767
1697  2023-11-30 12:39:55.716651
1698  2023-11-30 12:39:55.748557
1699  2023-11-30 12:39:55.797470
1700  2023-11-30 12:39:55.828343
1701  2023-11-30 12:39:55.860103
1702  2023-11-30 12:39:55.893032
1703  2023-11-30 12:39:55.924967
1704  2023-11-30 12:39:55.956995
1705  2023-11-30 12:39:55.989111
1706  2023-11-30 12:39:56.020044
1707  2023-11-30 12:39:56.052457
1708  2023-11-30 12:39:56.084341
1709  2023-11-30 12:39:56.117295
1710  2023-11-30 12:39:56.149219
1711  2023-11-30 12:39:56.197074
1712  2023-11-30 12:39:56.228254
1713  2023-11-30 12:39:56.260223
1714  2023-11-30 12:39:56.292135
1715  2023-11-30 12:39:56.324051
1716  2023-11-30 12:39:56.355966
1717  2023-11-30 12:39:56.387879
1718  2023-11-30 12:39:56.420830
1719  2023-11-30 12:39:56.452735
1720  2023-11-30 12:39:56.484847
1721  2023-11-30 12:39:56.517402
1722  2023-11-30 12:39:56.548317
1723  2023-11-30 12:39:56.597279
1724  2023-11-30 12:39:56.630152
1725  2023-11-30 12:39:56.660071
1726  2023-11-30 12:39:56.692097
1727  2023-11-30 12:39:56.725010
1728  2023-11-30 12:39:56.756963
1729  2023-11-30 12:39:56.787841
1730  2023-11-30 12:39:56.819756
1731  2023-11-30 12:39:56.852702
1732  2023-11-30 12:39:56.885636
1733  2023-11-30 12:39:56.916518
1734  2023-11-30 12:39:56.948443
1735  2023-11-30 12:39:56.996315
1736  2023-11-30 12:39:57.028284
1737  2023-11-30 12:39:57.060316
1738  2023-11-30 12:39:57.092211
1739  2023-11-30 12:39:57.124216
1740  2023-11-30 12:39:57.156155
1741  2023-11-30 12:39:57.188248
1742  2023-11-30 12:39:57.220656
1743  2023-11-30 12:39:57.252564
1744  2023-11-30 12:39:57.284463
1745  2023-11-30 12:39:57.316377
1746  2023-11-30 12:39:57.348292
1747  2023-11-30 12:39:57.396163
1748  2023-11-30 12:39:57.428078
1749  2023-11-30 12:39:57.459996
1750  2023-11-30 12:39:57.491906
1751  2023-11-30 12:39:57.523868
1752  2023-11-30 12:39:57.556759
1753  2023-11-30 12:39:57.588012
1754  2023-11-30 12:39:57.620302
1755  2023-11-30 12:39:57.652252
1756  2023-11-30 12:39:57.684172
1757  2023-11-30 12:39:57.716105
1758  2023-11-30 12:39:57.748499
1759  2023-11-30 12:39:57.796394
1760  2023-11-30 12:39:57.828309
1761  2023-11-30 12:39:57.860255
1762  2023-11-30 12:39:57.892223
1763  2023-11-30 12:39:57.925100
1764  2023-11-30 12:39:57.956049
1765  2023-11-30 12:39:57.988960
1766  2023-11-30 12:39:58.019877
1767  2023-11-30 12:39:58.051803
1768  2023-11-30 12:39:58.084725
1769  2023-11-30 12:39:58.116693
1770  2023-11-30 12:39:58.148642
1771  2023-11-30 12:39:58.196479
1772  2023-11-30 12:39:58.228554
1773  2023-11-30 12:39:58.260480
1774  2023-11-30 12:39:58.292351
1775  2023-11-30 12:39:58.324271
1776  2023-11-30 12:39:58.356237
1777  2023-11-30 12:39:58.388094
1778  2023-11-30 12:39:58.421007
1779  2023-11-30 12:39:58.451923
1780  2023-11-30 12:39:58.483839
1781  2023-11-30 12:39:58.516750
1782  2023-11-30 12:39:58.547672
1783  2023-11-30 12:39:58.596568
1784  2023-11-30 12:39:58.628482
1785  2023-11-30 12:39:58.659982
1786  2023-11-30 12:39:58.692293
1787  2023-11-30 12:39:58.724244
1788  2023-11-30 12:39:58.756167
1789  2023-11-30 12:39:58.788082
1790  2023-11-30 12:39:58.819988
1791  2023-11-30 12:39:58.851897
1792  2023-11-30 12:39:58.884779
1793  2023-11-30 12:39:58.916727
1794  2023-11-30 12:39:58.948607
1795  2023-11-30 12:39:58.996513
1796  2023-11-30 12:39:59.028435
1797  2023-11-30 12:39:59.060342
1798  2023-11-30 12:39:59.092256
1799  2023-11-30 12:39:59.124173
1800  2023-11-30 12:39:59.156503
1801  2023-11-30 12:39:59.188415
1802  2023-11-30 12:39:59.220331
1803  2023-11-30 12:39:59.252211
1804  2023-11-30 12:39:59.284163
1805  2023-11-30 12:39:59.316270
1806  2023-11-30 12:39:59.348222
1807  2023-11-30 12:39:59.396070
1808  2023-11-30 12:39:59.427944
1809  2023-11-30 12:39:59.459888
1810  2023-11-30 12:39:59.491768
1811  2023-11-30 12:39:59.523958
1812  2023-11-30 12:39:59.555874
1813  2023-11-30 12:39:59.587788
1814  2023-11-30 12:39:59.620700
1815  2023-11-30 12:39:59.652625
1816  2023-11-30 12:39:59.684861
1817  2023-11-30 12:39:59.715870
1818  2023-11-30 12:39:59.748777
1819  2023-11-30 12:39:59.796661
1820  2023-11-30 12:39:59.827962
1821  2023-11-30 12:39:59.860053
1822  2023-11-30 12:39:59.891966
1823  2023-11-30 12:39:59.923893
1824  2023-11-30 12:39:59.955971
1825  2023-11-30 12:39:59.988018
1826  2023-11-30 12:40:00.020578
1827  2023-11-30 12:40:00.052488
1828  2023-11-30 12:40:00.084403
1829  2023-11-30 12:40:00.116402
1830  2023-11-30 12:40:00.148318
1831  2023-11-30 12:40:00.196186
1832  2023-11-30 12:40:00.228102
1833  2023-11-30 12:40:00.260015
1834  2023-11-30 12:40:00.291943
1835  2023-11-30 12:40:00.323858
1836  2023-11-30 12:40:00.355772
1837  2023-11-30 12:40:00.387750
1838  2023-11-30 12:40:00.420679
1839  2023-11-30 12:40:00.452549
1840  2023-11-30 12:40:00.484464
1841  2023-11-30 12:40:00.516309
1842  2023-11-30 12:40:00.548297
1843  2023-11-30 12:40:00.596218
1844  2023-11-30 12:40:00.628134
1845  2023-11-30 12:40:00.660047
1846  2023-11-30 12:40:00.691963
1847  2023-11-30 12:40:00.723881
1848  2023-11-30 12:40:00.756322
1849  2023-11-30 12:40:00.787919
1850  2023-11-30 12:40:00.820018
1851  2023-11-30 12:40:00.852053
1852  2023-11-30 12:40:00.883954
1853  2023-11-30 12:40:00.916875
1854  2023-11-30 12:40:00.948790
1855  2023-11-30 12:40:00.995728
1856  2023-11-30 12:40:01.028638
1857  2023-11-30 12:40:01.060553
1858  2023-11-30 12:40:01.092471
1859  2023-11-30 12:40:01.124387
1860  2023-11-30 12:40:01.156301
1861  2023-11-30 12:40:01.188221
1862  2023-11-30 12:40:01.220045
1863  2023-11-30 12:40:01.252951
1864  2023-11-30 12:40:01.284865
1865  2023-11-30 12:40:01.317143
1866  2023-11-30 12:40:01.348139
1867  2023-11-30 12:40:01.396007
1868  2023-11-30 12:40:01.428919
1869  2023-11-30 12:40:01.459808
1870  2023-11-30 12:40:01.491799
1871  2023-11-30 12:40:01.524771
1872  2023-11-30 12:40:01.556677
1873  2023-11-30 12:40:01.588549
1874  2023-11-30 12:40:01.620487
1875  2023-11-30 12:40:01.652372
1876  2023-11-30 12:40:01.684287
1877  2023-11-30 12:40:01.716201
1878  2023-11-30 12:40:01.748116
1879  2023-11-30 12:40:01.795986
1880  2023-11-30 12:40:01.827922
1881  2023-11-30 12:40:01.860714
1882  2023-11-30 12:40:01.892691
1883  2023-11-30 12:40:01.923935
1884  2023-11-30 12:40:01.955868
1885  2023-11-30 12:40:01.987783
1886  2023-11-30 12:40:02.019760
1887  2023-11-30 12:40:02.052986
1888  2023-11-30 12:40:02.083992
1889  2023-11-30 12:40:02.115906
1890  2023-11-30 12:40:02.148824
1891  2023-11-30 12:40:02.195815
1892  2023-11-30 12:40:02.228722
1893  2023-11-30 12:40:02.260651
1894  2023-11-30 12:40:02.292546
1895  2023-11-30 12:40:02.324469
1896  2023-11-30 12:40:02.356515
1897  2023-11-30 12:40:02.388472
1898  2023-11-30 12:40:02.420386
1899  2023-11-30 12:40:02.452272
1900  2023-11-30 12:40:02.484284
1901  2023-11-30 12:40:02.515890
1902  2023-11-30 12:40:02.548681
1903  2023-11-30 12:40:02.597200
1904  2023-11-30 12:40:02.628227
1905  2023-11-30 12:40:02.659741
1906  2023-11-30 12:40:02.692659
1907  2023-11-30 12:40:02.724575
1908  2023-11-30 12:40:02.756483
1909  2023-11-30 12:40:02.788367
1910  2023-11-30 12:40:02.820282
1911  2023-11-30 12:40:02.852197
1912  2023-11-30 12:40:02.884111
1913  2023-11-30 12:40:02.916050
1914  2023-11-30 12:40:02.948058
1915  2023-11-30 12:40:02.995896
1916  2023-11-30 12:40:03.028028
1917  2023-11-30 12:40:03.060065
1918  2023-11-30 12:40:03.092161
1919  2023-11-30 12:40:03.124167
1920  2023-11-30 12:40:03.155942
1921  2023-11-30 12:40:03.188057
1922  2023-11-30 12:40:03.220418
1923  2023-11-30 12:40:03.251834
1924  2023-11-30 12:40:03.284798
1925  2023-11-30 12:40:03.316711
1926  2023-11-30 12:40:03.348628
1927  2023-11-30 12:40:03.396492
1928  2023-11-30 12:40:03.427999
1929  2023-11-30 12:40:03.460620
1930  2023-11-30 12:40:03.492502
1931  2023-11-30 12:40:03.524449
1932  2023-11-30 12:40:03.556336
1933  2023-11-30 12:40:03.588250
1934  2023-11-30 12:40:03.620195
1935  2023-11-30 12:40:03.651897
1936  2023-11-30 12:40:03.683860
1937  2023-11-30 12:40:03.716765
1938  2023-11-30 12:40:03.748669
1939  2023-11-30 12:40:03.796046
1940  2023-11-30 12:40:03.827998
1941  2023-11-30 12:40:03.859911
1942  2023-11-30 12:40:03.891792
1943  2023-11-30 12:40:03.924704
1944  2023-11-30 12:40:03.956618
1945  2023-11-30 12:40:03.988537
1946  2023-11-30 12:40:04.020048
1947  2023-11-30 12:40:04.052963
1948  2023-11-30 12:40:04.084878
1949  2023-11-30 12:40:04.116921
1950  2023-11-30 12:40:04.149053
1951  2023-11-30 12:40:04.196003
1952  2023-11-30 12:40:04.227918
1953  2023-11-30 12:40:04.259834
1954  2023-11-30 12:40:04.292767
1955  2023-11-30 12:40:04.324626
1956  2023-11-30 12:40:04.356540
1957  2023-11-30 12:40:04.388487
1958  2023-11-30 12:40:04.420370
1959  2023-11-30 12:40:04.452285
1960  2023-11-30 12:40:04.484199
1961  2023-11-30 12:40:04.515983
1962  2023-11-30 12:40:04.547897
1963  2023-11-30 12:40:04.595955
1964  2023-11-30 12:40:04.627918
1965  2023-11-30 12:40:04.660596
1966  2023-11-30 12:40:04.692439
1967  2023-11-30 12:40:04.724520
1968  2023-11-30 12:40:04.756538
1969  2023-11-30 12:40:04.788452
1970  2023-11-30 12:40:04.820401
1971  2023-11-30 12:40:04.852282
1972  2023-11-30 12:40:04.884198
1973  2023-11-30 12:40:04.916112
1974  2023-11-30 12:40:04.948129
1975  2023-11-30 12:40:04.996072
1976  2023-11-30 12:40:05.027988
1977  2023-11-30 12:40:05.059906
1978  2023-11-30 12:40:05.091821
1979  2023-11-30 12:40:05.123762
1980  2023-11-30 12:40:05.156643
1981  2023-11-30 12:40:05.188173
1982  2023-11-30 12:40:05.220088
1983  2023-11-30 12:40:05.252077
1984  2023-11-30 12:40:05.284003
1985  2023-11-30 12:40:05.315905
1986  2023-11-30 12:40:05.347854
1987  2023-11-30 12:40:05.396689
1988  2023-11-30 12:40:05.428604
1989  2023-11-30 12:40:05.460532
1990  2023-11-30 12:40:05.492465
1991  2023-11-30 12:40:05.524381
1992  2023-11-30 12:40:05.556263
1993  2023-11-30 12:40:05.588197
1994  2023-11-30 12:40:05.620092
1995  2023-11-30 12:40:05.652043
1996  2023-11-30 12:40:05.683955
1997  2023-11-30 12:40:05.716833
1998  2023-11-30 12:40:05.748782
1999  2023-11-30 12:40:05.796654
2000  2023-11-30 12:40:05.828534
2001  2023-11-30 12:40:05.859895
2002  2023-11-30 12:40:05.892149
2003  2023-11-30 12:40:05.924034
2004  2023-11-30 12:40:05.955917
2005  2023-11-30 12:40:05.987831
2006  2023-11-30 12:40:06.020810
2007  2023-11-30 12:40:06.052659
2008  2023-11-30 12:40:06.084612
2009  2023-11-30 12:40:06.116488
2010  2023-11-30 12:40:06.148402
2011  2023-11-30 12:40:06.196274
2012  2023-11-30 12:40:06.228189
2013  2023-11-30 12:40:06.260153
2014  2023-11-30 12:40:06.292050
2015  2023-11-30 12:40:06.324106
2016  2023-11-30 12:40:06.356727
2017  2023-11-30 12:40:06.388641
2018  2023-11-30 12:40:06.421043
2019  2023-11-30 12:40:06.453053
2020  2023-11-30 12:40:06.483924
2021  2023-11-30 12:40:06.515839
2022  2023-11-30 12:40:06.548784
2023  2023-11-30 12:40:06.596158
2024  2023-11-30 12:40:06.628282
2025  2023-11-30 12:40:06.660197
2026  2023-11-30 12:40:06.692134
2027  2023-11-30 12:40:06.724105
2028  2023-11-30 12:40:06.756019
2029  2023-11-30 12:40:06.787934
2030  2023-11-30 12:40:06.820896
2031  2023-11-30 12:40:06.852805
2032  2023-11-30 12:40:06.884676
2033  2023-11-30 12:40:06.916623
2034  2023-11-30 12:40:06.948514
2035  2023-11-30 12:40:06.996377
2036  2023-11-30 12:40:07.028292
2037  2023-11-30 12:40:07.060206
2038  2023-11-30 12:40:07.092169
2039  2023-11-30 12:40:07.124036
2040  2023-11-30 12:40:07.155950
2041  2023-11-30 12:40:07.188912
2042  2023-11-30 12:40:07.219780
2043  2023-11-30 12:40:07.252693
2044  2023-11-30 12:40:07.284607
2045  2023-11-30 12:40:07.316527
2046  2023-11-30 12:40:07.348477
2047  2023-11-30 12:40:07.396343
2048  2023-11-30 12:40:07.428007
2049  2023-11-30 12:40:07.459879
2050  2023-11-30 12:40:07.492010
2051  2023-11-30 12:40:07.523962
2052  2023-11-30 12:40:07.555839
2053  2023-11-30 12:40:07.588771
2054  2023-11-30 12:40:07.620698
2055  2023-11-30 12:40:07.652637
2056  2023-11-30 12:40:07.684530
2057  2023-11-30 12:40:07.716442
2058  2023-11-30 12:40:07.748364
2059  2023-11-30 12:40:07.796197
2060  2023-11-30 12:40:07.828111
2061  2023-11-30 12:40:07.860026
2062  2023-11-30 12:40:07.891846
2063  2023-11-30 12:40:07.924845
2064  2023-11-30 12:40:07.956713
2065  2023-11-30 12:40:07.988729
2066  2023-11-30 12:40:08.020643
2067  2023-11-30 12:40:08.052559
2068  2023-11-30 12:40:08.084474
2069  2023-11-30 12:40:08.116387
2070  2023-11-30 12:40:08.148303
2071  2023-11-30 12:40:08.196229
2072  2023-11-30 12:40:08.228121
2073  2023-11-30 12:40:08.260004
2074  2023-11-30 12:40:08.291918
2075  2023-11-30 12:40:08.324831
2076  2023-11-30 12:40:08.355749
2077  2023-11-30 12:40:08.388660
2078  2023-11-30 12:40:08.420666
2079  2023-11-30 12:40:08.452536
2080  2023-11-30 12:40:08.484492
2081  2023-11-30 12:40:08.515988
2082  2023-11-30 12:40:08.547957
2083  2023-11-30 12:40:08.595834
2084  2023-11-30 12:40:08.628779
2085  2023-11-30 12:40:08.660655
2086  2023-11-30 12:40:08.691770
2087  2023-11-30 12:40:08.724154
2088  2023-11-30 12:40:08.756502
2089  2023-11-30 12:40:08.788459
2090  2023-11-30 12:40:08.820408
2091  2023-11-30 12:40:08.852291
2092  2023-11-30 12:40:08.884202
2093  2023-11-30 12:40:08.916175
2094  2023-11-30 12:40:08.948032
2095  2023-11-30 12:40:08.995903
2096  2023-11-30 12:40:09.028472
2097  2023-11-30 12:40:09.060387
2098  2023-11-30 12:40:09.092344
2099  2023-11-30 12:40:09.124216
2100  2023-11-30 12:40:09.156131
2101  2023-11-30 12:40:09.188805
2102  2023-11-30 12:40:09.219839
2103  2023-11-30 12:40:09.252764
2104  2023-11-30 12:40:09.284718
2105  2023-11-30 12:40:09.316657
2106  2023-11-30 12:40:09.348567
2107  2023-11-30 12:40:09.396407
2108  2023-11-30 12:40:09.428322
2109  2023-11-30 12:40:09.460236
2110  2023-11-30 12:40:09.492151
2111  2023-11-30 12:40:09.524065
2112  2023-11-30 12:40:09.555981
2113  2023-11-30 12:40:09.587930
2114  2023-11-30 12:40:09.619809
2115  2023-11-30 12:40:09.652763
2116  2023-11-30 12:40:09.684638
2117  2023-11-30 12:40:09.716553
2118  2023-11-30 12:40:09.748468
2119  2023-11-30 12:40:09.796339
2120  2023-11-30 12:40:09.828254
2121  2023-11-30 12:40:09.860169
2122  2023-11-30 12:40:09.892082
2123  2023-11-30 12:40:09.923998
2124  2023-11-30 12:40:09.956908
2125  2023-11-30 12:40:09.988893
2126  2023-11-30 12:40:10.020111
2127  2023-11-30 12:40:10.052097
2128  2023-11-30 12:40:10.085064
2129  2023-11-30 12:40:10.115927
2130  2023-11-30 12:40:10.148891
2131  2023-11-30 12:40:10.196343
2132  2023-11-30 12:40:10.228703
2133  2023-11-30 12:40:10.260618
2134  2023-11-30 12:40:10.292533
2135  2023-11-30 12:40:10.324447
2136  2023-11-30 12:40:10.356362
2137  2023-11-30 12:40:10.388278
2138  2023-11-30 12:40:10.420251
2139  2023-11-30 12:40:10.453140
2140  2023-11-30 12:40:10.484022
2141  2023-11-30 12:40:10.515937
2142  2023-11-30 12:40:10.548850
2143  2023-11-30 12:40:10.596720
2144  2023-11-30 12:40:10.628642
2145  2023-11-30 12:40:10.660651
2146  2023-11-30 12:40:10.692651
2147  2023-11-30 12:40:10.724603
2148  2023-11-30 12:40:10.756483
2149  2023-11-30 12:40:10.788411
2150  2023-11-30 12:40:10.820311
2151  2023-11-30 12:40:10.852225
2152  2023-11-30 12:40:10.884177
2153  2023-11-30 12:40:10.916055
2154  2023-11-30 12:40:10.947974
2155  2023-11-30 12:40:10.995918
2156  2023-11-30 12:40:11.027832
2157  2023-11-30 12:40:11.059783
2158  2023-11-30 12:40:11.091761
2159  2023-11-30 12:40:11.124674
2160  2023-11-30 12:40:11.156589
2161  2023-11-30 12:40:11.188029
2162  2023-11-30 12:40:11.219944
2163  2023-11-30 12:40:11.252075
2164  2023-11-30 12:40:11.285035
2165  2023-11-30 12:40:11.316388
2166  2023-11-30 12:40:11.348304
2167  2023-11-30 12:40:11.396108
2168  2023-11-30 12:40:11.428023
2169  2023-11-30 12:40:11.459937
2170  2023-11-30 12:40:11.491852
2171  2023-11-30 12:40:11.523866
2172  2023-11-30 12:40:11.556854
2173  2023-11-30 12:40:11.587697
2174  2023-11-30 12:40:11.620609
2175  2023-11-30 12:40:11.652524
2176  2023-11-30 12:40:11.684444
2177  2023-11-30 12:40:11.716355
2178  2023-11-30 12:40:11.748275
2179  2023-11-30 12:40:11.796144
2180  2023-11-30 12:40:11.828053
2181  2023-11-30 12:40:11.859968
2182  2023-11-30 12:40:11.892231
2183  2023-11-30 12:40:11.924126
2184  2023-11-30 12:40:11.956071
2185  2023-11-30 12:40:11.988051
2186  2023-11-30 12:40:12.020962
2187  2023-11-30 12:40:12.051939
2188  2023-11-30 12:40:12.083857
2189  2023-11-30 12:40:12.115831
2190  2023-11-30 12:40:12.147788
2191  2023-11-30 12:40:12.196616
2192  2023-11-30 12:40:12.228530
2193  2023-11-30 12:40:12.260605
2194  2023-11-30 12:40:12.292519
2195  2023-11-30 12:40:12.324443
2196  2023-11-30 12:40:12.356458
2197  2023-11-30 12:40:12.388411
2198  2023-11-30 12:40:12.420357
2199  2023-11-30 12:40:12.452277
2200  2023-11-30 12:40:12.484155
2201  2023-11-30 12:40:12.516070
2202  2023-11-30 12:40:12.547984
2203  2023-11-30 12:40:12.595856
2204  2023-11-30 12:40:12.627770
2205  2023-11-30 12:40:12.659685
2206  2023-11-30 12:40:12.692598
2207  2023-11-30 12:40:12.724512
2208  2023-11-30 12:40:12.756428
2209  2023-11-30 12:40:12.788343
2210  2023-11-30 12:40:12.820311
2211  2023-11-30 12:40:12.852188
2212  2023-11-30 12:40:12.885120
2213  2023-11-30 12:40:12.916003
2214  2023-11-30 12:40:12.947916
2215  2023-11-30 12:40:12.995787
2216  2023-11-30 12:40:13.028699
2217  2023-11-30 12:40:13.060613
2218  2023-11-30 12:40:13.092529
2219  2023-11-30 12:40:13.124443
2220  2023-11-30 12:40:13.155932
2221  2023-11-30 12:40:13.187837
2222  2023-11-30 12:40:13.220757
2223  2023-11-30 12:40:13.252681
2224  2023-11-30 12:40:13.284617
2225  2023-11-30 12:40:13.316563
2226  2023-11-30 12:40:13.348483
2227  2023-11-30 12:40:13.396348
2228  2023-11-30 12:40:13.428266
2229  2023-11-30 12:40:13.460146
2230  2023-11-30 12:40:13.492060
2231  2023-11-30 12:40:13.523975
2232  2023-11-30 12:40:13.556520
2233  2023-11-30 12:40:13.588436
2234  2023-11-30 12:40:13.620355
2235  2023-11-30 12:40:13.652266
2236  2023-11-30 12:40:13.684234
2237  2023-11-30 12:40:13.715925
2238  2023-11-30 12:40:13.747841
2239  2023-11-30 12:40:13.795712
2240  2023-11-30 12:40:13.828624
2241  2023-11-30 12:40:13.860539
2242  2023-11-30 12:40:13.892634
2243  2023-11-30 12:40:13.924552
2244  2023-11-30 12:40:13.956563
2245  2023-11-30 12:40:13.988718
2246  2023-11-30 12:40:14.020496
2247  2023-11-30 12:40:14.052412
2248  2023-11-30 12:40:14.084325
2249  2023-11-30 12:40:14.116334
2250  2023-11-30 12:40:14.148253
2251  2023-11-30 12:40:14.196133
2252  2023-11-30 12:40:14.227804
2253  2023-11-30 12:40:14.260712
2254  2023-11-30 12:40:14.292681
2255  2023-11-30 12:40:14.324546
2256  2023-11-30 12:40:14.356512
2257  2023-11-30 12:40:14.388427
2258  2023-11-30 12:40:14.420050
2259  2023-11-30 12:40:14.452068
2260  2023-11-30 12:40:14.483994
2261  2023-11-30 12:40:14.515889
2262  2023-11-30 12:40:14.547811
2263  2023-11-30 12:40:14.595747
2264  2023-11-30 12:40:14.628660
2265  2023-11-30 12:40:14.660574
2266  2023-11-30 12:40:14.692489
2267  2023-11-30 12:40:14.724404
2268  2023-11-30 12:40:14.756320
2269  2023-11-30 12:40:14.788233
2270  2023-11-30 12:40:14.820153
2271  2023-11-30 12:40:14.852063
2272  2023-11-30 12:40:14.883979
2273  2023-11-30 12:40:14.916892
2274  2023-11-30 12:40:14.947840
2275  2023-11-30 12:40:14.996676
2276  2023-11-30 12:40:15.028591
2277  2023-11-30 12:40:15.060539
2278  2023-11-30 12:40:15.092452
2279  2023-11-30 12:40:15.124336
2280  2023-11-30 12:40:15.156251
2281  2023-11-30 12:40:15.188069
2282  2023-11-30 12:40:15.219984
2283  2023-11-30 12:40:15.251896
2284  2023-11-30 12:40:15.284811
2285  2023-11-30 12:40:15.316725
2286  2023-11-30 12:40:15.348647
2287  2023-11-30 12:40:15.396509
2288  2023-11-30 12:40:15.428424
2289  2023-11-30 12:40:15.460339
2290  2023-11-30 12:40:15.492333
2291  2023-11-30 12:40:15.524167
2292  2023-11-30 12:40:15.557088
2293  2023-11-30 12:40:15.588129
2294  2023-11-30 12:40:15.621037
2295  2023-11-30 12:40:15.652986
2296  2023-11-30 12:40:15.683868
2297  2023-11-30 12:40:15.716814
2298  2023-11-30 12:40:15.748757
2299  2023-11-30 12:40:15.796566
2300  2023-11-30 12:40:15.828481
2301  2023-11-30 12:40:15.860396
2302  2023-11-30 12:40:15.892440
2303  2023-11-30 12:40:15.924355
2304  2023-11-30 12:40:15.956271
2305  2023-11-30 12:40:15.988185
2306  2023-11-30 12:40:16.020101
2307  2023-11-30 12:40:16.052053
2308  2023-11-30 12:40:16.084928
2309  2023-11-30 12:40:16.116894
2310  2023-11-30 12:40:16.148700
2311  2023-11-30 12:40:16.196617
2312  2023-11-30 12:40:16.228532
2313  2023-11-30 12:40:16.261495
2314  2023-11-30 12:40:16.292361
2315  2023-11-30 12:40:16.324277
2316  2023-11-30 12:40:16.357213
2317  2023-11-30 12:40:16.388146
2318  2023-11-30 12:40:16.420020
2319  2023-11-30 12:40:16.452937
2320  2023-11-30 12:40:16.484849
2321  2023-11-30 12:40:16.517760
2322  2023-11-30 12:40:16.548677
2323  2023-11-30 12:40:16.597721
2324  2023-11-30 12:40:16.629653
2325  2023-11-30 12:40:16.661172
2326  2023-11-30 12:40:16.693065
2327  2023-11-30 12:40:16.724250
2328  2023-11-30 12:40:16.757296
2329  2023-11-30 12:40:16.790210
2330  2023-11-30 12:40:16.821114
2331  2023-11-30 12:40:16.853293
2332  2023-11-30 12:40:16.884216
2333  2023-11-30 12:40:16.916128
2334  2023-11-30 12:40:16.949169
2335  2023-11-30 12:40:16.997022
2336  2023-11-30 12:40:17.028903
2337  2023-11-30 12:40:17.060818
2338  2023-11-30 12:40:17.092738
2339  2023-11-30 12:40:17.125649
2340  2023-11-30 12:40:17.156563
2341  2023-11-30 12:40:17.189524
2342  2023-11-30 12:40:17.222807
2343  2023-11-30 12:40:17.253726
2344  2023-11-30 12:40:17.285654
2345  2023-11-30 12:40:17.316569
2346  2023-11-30 12:40:17.349479
2347  2023-11-30 12:40:17.397319
2348  2023-11-30 12:40:17.429405
2349  2023-11-30 12:40:17.460444
2350  2023-11-30 12:40:17.492351
2351  2023-11-30 12:40:17.525285
2352  2023-11-30 12:40:17.556911
2353  2023-11-30 12:40:17.589223
2354  2023-11-30 12:40:17.621162
2355  2023-11-30 12:40:17.653055
2356  2023-11-30 12:40:17.685013
2357  2023-11-30 12:40:17.716939
2358  2023-11-30 12:40:17.748828
2359  2023-11-30 12:40:17.796830
2360  2023-11-30 12:40:17.828736
2361  2023-11-30 12:40:17.860501
2362  2023-11-30 12:40:17.892502
2363  2023-11-30 12:40:17.924422
2364  2023-11-30 12:40:17.956346
2365  2023-11-30 12:40:17.988255
2366  2023-11-30 12:40:18.020131
2367  2023-11-30 12:40:18.052079
2368  2023-11-30 12:40:18.084005
2369  2023-11-30 12:40:18.116929
2370  2023-11-30 12:40:18.148786
2371  2023-11-30 12:40:18.195660
2372  2023-11-30 12:40:18.228578
2373  2023-11-30 12:40:18.260525
2374  2023-11-30 12:40:18.291749
2375  2023-11-30 12:40:18.324688
2376  2023-11-30 12:40:18.356740
2377  2023-11-30 12:40:18.388736
2378  2023-11-30 12:40:18.421649
2379  2023-11-30 12:40:18.453949
2380  2023-11-30 12:40:18.485338
2381  2023-11-30 12:40:18.517001
2382  2023-11-30 12:40:18.547942
2383  2023-11-30 12:40:18.596780
2384  2023-11-30 12:40:18.628593
2385  2023-11-30 12:40:18.660454
2386  2023-11-30 12:40:18.692367
2387  2023-11-30 12:40:18.724114
2388  2023-11-30 12:40:18.757090
2389  2023-11-30 12:40:18.788966
2390  2023-11-30 12:40:18.820882
2391  2023-11-30 12:40:18.852796
2392  2023-11-30 12:40:18.884709
2393  2023-11-30 12:40:18.916623
2394  2023-11-30 12:40:18.948272
2395  2023-11-30 12:40:18.997135
2396  2023-11-30 12:40:19.029042
2397  2023-11-30 12:40:19.059966
2398  2023-11-30 12:40:19.093231
2399  2023-11-30 12:40:19.125255
2400  2023-11-30 12:40:19.156180
2401  2023-11-30 12:40:19.188181
2402  2023-11-30 12:40:19.220144
2403  2023-11-30 12:40:19.252057
2404  2023-11-30 12:40:19.284975
2405  2023-11-30 12:40:19.316885
2406  2023-11-30 12:40:19.348800
2407  2023-11-30 12:40:19.397693
2408  2023-11-30 12:40:19.429629
2409  2023-11-30 12:40:19.460500
2410  2023-11-30 12:40:19.492415
2411  2023-11-30 12:40:19.525364
2412  2023-11-30 12:40:19.557282
2413  2023-11-30 12:40:19.589188
2414  2023-11-30 12:40:19.620076
2415  2023-11-30 12:40:19.651989
2416  2023-11-30 12:40:19.684945
2417  2023-11-30 12:40:19.716853
2418  2023-11-30 12:40:19.749728
2419  2023-11-30 12:40:19.796978
2420  2023-11-30 12:40:19.829002
2421  2023-11-30 12:40:19.859930
2422  2023-11-30 12:40:19.893045
2423  2023-11-30 12:40:19.925013
2424  2023-11-30 12:40:19.956922
2425  2023-11-30 12:40:19.988827
2426  2023-11-30 12:40:20.020705
2427  2023-11-30 12:40:20.052619
2428  2023-11-30 12:40:20.084557
2429  2023-11-30 12:40:20.116482
2430  2023-11-30 12:40:20.149391
2431  2023-11-30 12:40:20.196264
2432  2023-11-30 12:40:20.228375
2433  2023-11-30 12:40:20.260303
2434  2023-11-30 12:40:20.292173
2435  2023-11-30 12:40:20.325089
2436  2023-11-30 12:40:20.357001
2437  2023-11-30 12:40:20.387922
2438  2023-11-30 12:40:20.420833
2439  2023-11-30 12:40:20.452792
2440  2023-11-30 12:40:20.484659
2441  2023-11-30 12:40:20.516607
2442  2023-11-30 12:40:20.549485
2443  2023-11-30 12:40:20.596390
2444  2023-11-30 12:40:20.628306
2445  2023-11-30 12:40:20.660253
2446  2023-11-30 12:40:20.692580
2447  2023-11-30 12:40:20.724500
2448  2023-11-30 12:40:20.756402
2449  2023-11-30 12:40:20.788324
2450  2023-11-30 12:40:20.820208
2451  2023-11-30 12:40:20.852154
2452  2023-11-30 12:40:20.885068
2453  2023-11-30 12:40:20.915984
2454  2023-11-30 12:40:20.948909
2455  2023-11-30 12:40:20.996736
2456  2023-11-30 12:40:21.028704
2457  2023-11-30 12:40:21.060704
2458  2023-11-30 12:40:21.092566
2459  2023-11-30 12:40:21.124481
2460  2023-11-30 12:40:21.156429
2461  2023-11-30 12:40:21.188341
2462  2023-11-30 12:40:21.220225
2463  2023-11-30 12:40:21.252177
2464  2023-11-30 12:40:21.284077
2465  2023-11-30 12:40:21.315999
2466  2023-11-30 12:40:21.348881
2467  2023-11-30 12:40:21.395969
2468  2023-11-30 12:40:21.427853
2469  2023-11-30 12:40:21.460766
2470  2023-11-30 12:40:21.492680
2471  2023-11-30 12:40:21.524595
2472  2023-11-30 12:40:21.556543
2473  2023-11-30 12:40:21.588445
2474  2023-11-30 12:40:21.620372
2475  2023-11-30 12:40:21.652283
2476  2023-11-30 12:40:21.685213
2477  2023-11-30 12:40:21.717123
2478  2023-11-30 12:40:21.748044
2479  2023-11-30 12:40:21.796871
2480  2023-11-30 12:40:21.827974
2481  2023-11-30 12:40:21.859896
2482  2023-11-30 12:40:21.892526
2483  2023-11-30 12:40:21.924441
2484  2023-11-30 12:40:21.956390
2485  2023-11-30 12:40:21.988306
2486  2023-11-30 12:40:22.020217
2487  2023-11-30 12:40:22.052140
2488  2023-11-30 12:40:22.084050
2489  2023-11-30 12:40:22.117044
2490  2023-11-30 12:40:22.149004
2491  2023-11-30 12:40:22.196027
2492  2023-11-30 12:40:22.227945
2493  2023-11-30 12:40:22.259877
2494  2023-11-30 12:40:22.292765
2495  2023-11-30 12:40:22.324703
2496  2023-11-30 12:40:22.356569
2497  2023-11-30 12:40:22.388516
2498  2023-11-30 12:40:22.420398
2499  2023-11-30 12:40:22.452456
2500  2023-11-30 12:40:22.484604
2501  2023-11-30 12:40:22.515978
2502  2023-11-30 12:40:22.548890
2503  2023-11-30 12:40:22.595766
2504  2023-11-30 12:40:22.628678
2505  2023-11-30 12:40:22.660713
2506  2023-11-30 12:40:22.692615
2507  2023-11-30 12:40:22.723987
2508  2023-11-30 12:40:22.756098
2509  2023-11-30 12:40:22.788112
2510  2023-11-30 12:40:22.820024
2511  2023-11-30 12:40:22.851942
2512  2023-11-30 12:40:22.884841
2513  2023-11-30 12:40:22.916776
2514  2023-11-30 12:40:22.948654
2515  2023-11-30 12:40:22.996555
2516  2023-11-30 12:40:23.028475
2517  2023-11-30 12:40:23.060390
2518  2023-11-30 12:40:23.093314
2519  2023-11-30 12:40:23.125227
2520  2023-11-30 12:40:23.157127
2521  2023-11-30 12:40:23.189044
2522  2023-11-30 12:40:23.219921
2523  2023-11-30 12:40:23.252895
2524  2023-11-30 12:40:23.285594
2525  2023-11-30 12:40:23.316492
2526  2023-11-30 12:40:23.348425
2527  2023-11-30 12:40:23.396294
2528  2023-11-30 12:40:23.428240
2529  2023-11-30 12:40:23.460073
2530  2023-11-30 12:40:23.492018
2531  2023-11-30 12:40:23.524932
2532  2023-11-30 12:40:23.556814
2533  2023-11-30 12:40:23.588729
2534  2023-11-30 12:40:23.620644
2535  2023-11-30 12:40:23.652558
2536  2023-11-30 12:40:23.684472
2537  2023-11-30 12:40:23.716421
2538  2023-11-30 12:40:23.748333
2539  2023-11-30 12:40:23.796212
2540  2023-11-30 12:40:23.828119
2541  2023-11-30 12:40:23.860037
2542  2023-11-30 12:40:23.891949
2543  2023-11-30 12:40:23.924906
2544  2023-11-30 12:40:23.955960
2545  2023-11-30 12:40:23.987876
2546  2023-11-30 12:40:24.020768
2547  2023-11-30 12:40:24.052675
2548  2023-11-30 12:40:24.084582
2549  2023-11-30 12:40:24.116529
2550  2023-11-30 12:40:24.148446
2551  2023-11-30 12:40:24.196036
2552  2023-11-30 12:40:24.228013
2553  2023-11-30 12:40:24.260926
2554  2023-11-30 12:40:24.291881
2555  2023-11-30 12:40:24.324758
2556  2023-11-30 12:40:24.356686
2557  2023-11-30 12:40:24.388587
2558  2023-11-30 12:40:24.420469
2559  2023-11-30 12:40:24.452415
2560  2023-11-30 12:40:24.484329
2561  2023-11-30 12:40:24.516005
2562  2023-11-30 12:40:24.548903
2563  2023-11-30 12:40:24.596899
2564  2023-11-30 12:40:24.628851
2565  2023-11-30 12:40:24.660737
2566  2023-11-30 12:40:24.692422
2567  2023-11-30 12:40:24.724336
2568  2023-11-30 12:40:24.756251
2569  2023-11-30 12:40:24.788169
2570  2023-11-30 12:40:24.820089
2571  2023-11-30 12:40:24.852093
2572  2023-11-30 12:40:24.884005
2573  2023-11-30 12:40:24.916928
2574  2023-11-30 12:40:24.948779
2575  2023-11-30 12:40:24.996718
2576  2023-11-30 12:40:25.028635
2577  2023-11-30 12:40:25.060643
2578  2023-11-30 12:40:25.092539
2579  2023-11-30 12:40:25.124454
2580  2023-11-30 12:40:25.156407
2581  2023-11-30 12:40:25.188123
2582  2023-11-30 12:40:25.220037
2583  2023-11-30 12:40:25.252949
2584  2023-11-30 12:40:25.285241
2585  2023-11-30 12:40:25.316189
2586  2023-11-30 12:40:25.349125
2587  2023-11-30 12:40:25.396073
2588  2023-11-30 12:40:25.428069
2589  2023-11-30 12:40:25.461021
2590  2023-11-30 12:40:25.491971
2591  2023-11-30 12:40:25.523888
2592  2023-11-30 12:40:25.556808
2593  2023-11-30 12:40:25.588691
2594  2023-11-30 12:40:25.620639
2595  2023-11-30 12:40:25.652538
2596  2023-11-30 12:40:25.684454
2597  2023-11-30 12:40:25.716337
2598  2023-11-30 12:40:25.749301
2599  2023-11-30 12:40:25.796124
2600  2023-11-30 12:40:25.828039
2601  2023-11-30 12:40:25.860952
2602  2023-11-30 12:40:25.891868
2603  2023-11-30 12:40:25.924780
2604  2023-11-30 12:40:25.956695
2605  2023-11-30 12:40:25.988673
2606  2023-11-30 12:40:26.020559
2607  2023-11-30 12:40:26.052471
2608  2023-11-30 12:40:26.084353
2609  2023-11-30 12:40:26.117076
2610  2023-11-30 12:40:26.149067
2611  2023-11-30 12:40:26.196045
2612  2023-11-30 12:40:26.228076
2613  2023-11-30 12:40:26.260003
2614  2023-11-30 12:40:26.293070
2615  2023-11-30 12:40:26.323955
2616  2023-11-30 12:40:26.355868
2617  2023-11-30 12:40:26.387815
2618  2023-11-30 12:40:26.419749
2619  2023-11-30 12:40:26.452609
2620  2023-11-30 12:40:26.484557
2621  2023-11-30 12:40:26.516440
2622  2023-11-30 12:40:26.548389
2623  2023-11-30 12:40:26.596272
2624  2023-11-30 12:40:26.628187
2625  2023-11-30 12:40:26.660103
2626  2023-11-30 12:40:26.692017
2627  2023-11-30 12:40:26.724067
2628  2023-11-30 12:40:26.756958
2629  2023-11-30 12:40:26.787887
2630  2023-11-30 12:40:26.819800
2631  2023-11-30 12:40:26.852710
2632  2023-11-30 12:40:26.884631
2633  2023-11-30 12:40:26.916501
2634  2023-11-30 12:40:26.948416
2635  2023-11-30 12:40:26.996287
2636  2023-11-30 12:40:27.028234
2637  2023-11-30 12:40:27.060188
2638  2023-11-30 12:40:27.092068
2639  2023-11-30 12:40:27.123991
2640  2023-11-30 12:40:27.156899
2641  2023-11-30 12:40:27.187864
2642  2023-11-30 12:40:27.219787
2643  2023-11-30 12:40:27.253640
2644  2023-11-30 12:40:27.284545
2645  2023-11-30 12:40:27.316461
2646  2023-11-30 12:40:27.348374
2647  2023-11-30 12:40:27.396247
2648  2023-11-30 12:40:27.429160
2649  2023-11-30 12:40:27.460085
2650  2023-11-30 12:40:27.491991
2651  2023-11-30 12:40:27.524013
2652  2023-11-30 12:40:27.555880
2653  2023-11-30 12:40:27.587825
2654  2023-11-30 12:40:27.619740
2655  2023-11-30 12:40:27.652620
2656  2023-11-30 12:40:27.684536
2657  2023-11-30 12:40:27.716471
2658  2023-11-30 12:40:27.748399
2659  2023-11-30 12:40:27.796270
2660  2023-11-30 12:40:27.828189
2661  2023-11-30 12:40:27.860108
2662  2023-11-30 12:40:27.891981
2663  2023-11-30 12:40:27.923929
2664  2023-11-30 12:40:27.956623
2665  2023-11-30 12:40:27.988647
2666  2023-11-30 12:40:28.020563
2667  2023-11-30 12:40:28.052477
2668  2023-11-30 12:40:28.084392
2669  2023-11-30 12:40:28.116312
2670  2023-11-30 12:40:28.148270
2671  2023-11-30 12:40:28.196130
2672  2023-11-30 12:40:28.228101
2673  2023-11-30 12:40:28.260080
2674  2023-11-30 12:40:28.293244
2675  2023-11-30 12:40:28.324255
2676  2023-11-30 12:40:28.356148
2677  2023-11-30 12:40:28.387892
2678  2023-11-30 12:40:28.420042
2679  2023-11-30 12:40:28.452072
2680  2023-11-30 12:40:28.484192
2681  2023-11-30 12:40:28.516061
2682  2023-11-30 12:40:28.548986
2683  2023-11-30 12:40:28.596278
2684  2023-11-30 12:40:28.628285
2685  2023-11-30 12:40:28.660157
2686  2023-11-30 12:40:28.692115
2687  2023-11-30 12:40:28.724148
2688  2023-11-30 12:40:28.756051
2689  2023-11-30 12:40:28.788988
2690  2023-11-30 12:40:28.820895
2691  2023-11-30 12:40:28.852760
2692  2023-11-30 12:40:28.884675
2693  2023-11-30 12:40:28.916640
2694  2023-11-30 12:40:28.948505
2695  2023-11-30 12:40:28.996397
2696  2023-11-30 12:40:29.028313
2697  2023-11-30 12:40:29.060227
2698  2023-11-30 12:40:29.092155
2699  2023-11-30 12:40:29.124057
2700  2023-11-30 12:40:29.155971
2701  2023-11-30 12:40:29.187886
2702  2023-11-30 12:40:29.219805
2703  2023-11-30 12:40:29.252755
2704  2023-11-30 12:40:29.284660
2705  2023-11-30 12:40:29.316567
2706  2023-11-30 12:40:29.348458
2707  2023-11-30 12:40:29.396328
2708  2023-11-30 12:40:29.428297
2709  2023-11-30 12:40:29.461190
2710  2023-11-30 12:40:29.493112
2711  2023-11-30 12:40:29.523987
2712  2023-11-30 12:40:29.556945
2713  2023-11-30 12:40:29.588828
2714  2023-11-30 12:40:29.619733
2715  2023-11-30 12:40:29.652643
2716  2023-11-30 12:40:29.684558
2717  2023-11-30 12:40:29.716472
2718  2023-11-30 12:40:29.748420
2719  2023-11-30 12:40:29.796422
2720  2023-11-30 12:40:29.828393
2721  2023-11-30 12:40:29.860222
2722  2023-11-30 12:40:29.892190
2723  2023-11-30 12:40:29.924419
2724  2023-11-30 12:40:29.956402
2725  2023-11-30 12:40:29.988314
2726  2023-11-30 12:40:30.020407
2727  2023-11-30 12:40:30.052288
2728  2023-11-30 12:40:30.084202
2729  2023-11-30 12:40:30.116185
2730  2023-11-30 12:40:30.148100
2731  2023-11-30 12:40:30.196009
2732  2023-11-30 12:40:30.227924
2733  2023-11-30 12:40:30.260836
2734  2023-11-30 12:40:30.292751
2735  2023-11-30 12:40:30.324665
2736  2023-11-30 12:40:30.356585
2737  2023-11-30 12:40:30.388495
2738  2023-11-30 12:40:30.420505
2739  2023-11-30 12:40:30.452372
2740  2023-11-30 12:40:30.484401
2741  2023-11-30 12:40:30.516361
2742  2023-11-30 12:40:30.548275
2743  2023-11-30 12:40:30.596194
2744  2023-11-30 12:40:30.628062
2745  2023-11-30 12:40:30.659977
2746  2023-11-30 12:40:30.692936
2747  2023-11-30 12:40:30.723841
2748  2023-11-30 12:40:30.756718
2749  2023-11-30 12:40:30.788666
2750  2023-11-30 12:40:30.820059
2751  2023-11-30 12:40:30.852154
2752  2023-11-30 12:40:30.884256
2753  2023-11-30 12:40:30.917264
2754  2023-11-30 12:40:30.948154
2755  2023-11-30 12:40:30.996454
2756  2023-11-30 12:40:31.028362
2757  2023-11-30 12:40:31.060281
2758  2023-11-30 12:40:31.092165
2759  2023-11-30 12:40:31.124128
2760  2023-11-30 12:40:31.155996
2761  2023-11-30 12:40:31.187938
2762  2023-11-30 12:40:31.219857
2763  2023-11-30 12:40:31.252771
2764  2023-11-30 12:40:31.284693
2765  2023-11-30 12:40:31.316565
2766  2023-11-30 12:40:31.348480
2767  2023-11-30 12:40:31.396353
2768  2023-11-30 12:40:31.428301
2769  2023-11-30 12:40:31.460257
2770  2023-11-30 12:40:31.492220
2771  2023-11-30 12:40:31.525049
2772  2023-11-30 12:40:31.556008
2773  2023-11-30 12:40:31.588025
2774  2023-11-30 12:40:31.620937
2775  2023-11-30 12:40:31.651967
2776  2023-11-30 12:40:31.684834
2777  2023-11-30 12:40:31.716751
2778  2023-11-30 12:40:31.748714
2779  2023-11-30 12:40:31.796573
2780  2023-11-30 12:40:31.828451
2781  2023-11-30 12:40:31.860364
2782  2023-11-30 12:40:31.892281
2783  2023-11-30 12:40:31.924207
2784  2023-11-30 12:40:31.956137
2785  2023-11-30 12:40:31.988262
2786  2023-11-30 12:40:32.020788
2787  2023-11-30 12:40:32.051803
2788  2023-11-30 12:40:32.084716
2789  2023-11-30 12:40:32.116593
2790  2023-11-30 12:40:32.148518
2791  2023-11-30 12:40:32.196381
2792  2023-11-30 12:40:32.228294
2793  2023-11-30 12:40:32.260267
2794  2023-11-30 12:40:32.292132
2795  2023-11-30 12:40:32.324038
2796  2023-11-30 12:40:32.355953
2797  2023-11-30 12:40:32.387917
2798  2023-11-30 12:40:32.419783
2799  2023-11-30 12:40:32.452695
2800  2023-11-30 12:40:32.484609
2801  2023-11-30 12:40:32.516525
2802  2023-11-30 12:40:32.548469
2803  2023-11-30 12:40:32.596217
2804  2023-11-30 12:40:32.629180
2805  2023-11-30 12:40:32.660045
2806  2023-11-30 12:40:32.691994
2807  2023-11-30 12:40:32.724935
2808  2023-11-30 12:40:32.756965
2809  2023-11-30 12:40:32.788844
2810  2023-11-30 12:40:32.820872
2811  2023-11-30 12:40:32.852752
2812  2023-11-30 12:40:32.884700
2813  2023-11-30 12:40:32.916581
2814  2023-11-30 12:40:32.948497
2815  2023-11-30 12:40:32.996369
2816  2023-11-30 12:40:33.028292
2817  2023-11-30 12:40:33.060197
2818  2023-11-30 12:40:33.091969
2819  2023-11-30 12:40:33.124895
2820  2023-11-30 12:40:33.156793
2821  2023-11-30 12:40:33.188322
2822  2023-11-30 12:40:33.220206
2823  2023-11-30 12:40:33.252162
2824  2023-11-30 12:40:33.285179
2825  2023-11-30 12:40:33.317028
2826  2023-11-30 12:40:33.348991
2827  2023-11-30 12:40:33.396879
2828  2023-11-30 12:40:33.428769
2829  2023-11-30 12:40:33.460671
2830  2023-11-30 12:40:33.491996
2831  2023-11-30 12:40:33.523911
2832  2023-11-30 12:40:33.555825
2833  2023-11-30 12:40:33.587744
2834  2023-11-30 12:40:33.620736
2835  2023-11-30 12:40:33.652695
2836  2023-11-30 12:40:33.684661
2837  2023-11-30 12:40:33.716610
2838  2023-11-30 12:40:33.748489
2839  2023-11-30 12:40:33.797420
2840  2023-11-30 12:40:33.828318
2841  2023-11-30 12:40:33.860191
2842  2023-11-30 12:40:33.892107
2843  2023-11-30 12:40:33.924060
2844  2023-11-30 12:40:33.955935
2845  2023-11-30 12:40:33.988866
2846  2023-11-30 12:40:34.020798
2847  2023-11-30 12:40:34.052683
2848  2023-11-30 12:40:34.084593
2849  2023-11-30 12:40:34.116506
2850  2023-11-30 12:40:34.148455
2851  2023-11-30 12:40:34.196328
2852  2023-11-30 12:40:34.228657
2853  2023-11-30 12:40:34.260621
2854  2023-11-30 12:40:34.292584
2855  2023-11-30 12:40:34.324577
2856  2023-11-30 12:40:34.356491
2857  2023-11-30 12:40:34.388406
2858  2023-11-30 12:40:34.420354
2859  2023-11-30 12:40:34.452235
2860  2023-11-30 12:40:34.484226
2861  2023-11-30 12:40:34.516829
2862  2023-11-30 12:40:34.549024
2863  2023-11-30 12:40:34.596967
2864  2023-11-30 12:40:34.628883
2865  2023-11-30 12:40:34.659803
2866  2023-11-30 12:40:34.692712
2867  2023-11-30 12:40:34.724626
2868  2023-11-30 12:40:34.756541
2869  2023-11-30 12:40:34.788489
2870  2023-11-30 12:40:34.820370
2871  2023-11-30 12:40:34.852453
2872  2023-11-30 12:40:34.884361
2873  2023-11-30 12:40:34.916278
2874  2023-11-30 12:40:34.948157
2875  2023-11-30 12:40:34.996029
2876  2023-11-30 12:40:35.028943
2877  2023-11-30 12:40:35.059858
2878  2023-11-30 12:40:35.092774
2879  2023-11-30 12:40:35.124726
2880  2023-11-30 12:40:35.156602
2881  2023-11-30 12:40:35.188517
2882  2023-11-30 12:40:35.220430
2883  2023-11-30 12:40:35.252351
2884  2023-11-30 12:40:35.285319
2885  2023-11-30 12:40:35.316174
2886  2023-11-30 12:40:35.348125
2887  2023-11-30 12:40:35.397019
2888  2023-11-30 12:40:35.428900
2889  2023-11-30 12:40:35.460787
2890  2023-11-30 12:40:35.492702
2891  2023-11-30 12:40:35.524653
2892  2023-11-30 12:40:35.556533
2893  2023-11-30 12:40:35.588446
2894  2023-11-30 12:40:35.620405
2895  2023-11-30 12:40:35.652308
2896  2023-11-30 12:40:35.684076
2897  2023-11-30 12:40:35.715990
2898  2023-11-30 12:40:35.748901
2899  2023-11-30 12:40:35.796774
2900  2023-11-30 12:40:35.827805
2901  2023-11-30 12:40:35.860658
2902  2023-11-30 12:40:35.892575
2903  2023-11-30 12:40:35.924489
2904  2023-11-30 12:40:35.956419
2905  2023-11-30 12:40:35.988375
2906  2023-11-30 12:40:36.021229
2907  2023-11-30 12:40:36.053153
2908  2023-11-30 12:40:36.085058
2909  2023-11-30 12:40:36.116975
2910  2023-11-30 12:40:36.148888
2911  2023-11-30 12:40:36.196810
2912  2023-11-30 12:40:36.228677
2913  2023-11-30 12:40:36.260591
2914  2023-11-30 12:40:36.292504
2915  2023-11-30 12:40:36.324418
2916  2023-11-30 12:40:36.356333
2917  2023-11-30 12:40:36.388274
2918  2023-11-30 12:40:36.420205
2919  2023-11-30 12:40:36.452705
2920  2023-11-30 12:40:36.483968
2921  2023-11-30 12:40:36.516230
2922  2023-11-30 12:40:36.547808
2923  2023-11-30 12:40:36.596371
2924  2023-11-30 12:40:36.628287
2925  2023-11-30 12:40:36.660200
2926  2023-11-30 12:40:36.692116
2927  2023-11-30 12:40:36.724030
2928  2023-11-30 12:40:36.756986
2929  2023-11-30 12:40:36.788908
2930  2023-11-30 12:40:36.819774
2931  2023-11-30 12:40:36.852688
2932  2023-11-30 12:40:36.884600
2933  2023-11-30 12:40:36.916521
2934  2023-11-30 12:40:36.948429
2935  2023-11-30 12:40:36.996309
2936  2023-11-30 12:40:37.028218
2937  2023-11-30 12:40:37.060137
2938  2023-11-30 12:40:37.092088
2939  2023-11-30 12:40:37.123967
2940  2023-11-30 12:40:37.155877
2941  2023-11-30 12:40:37.187931
2942  2023-11-30 12:40:37.219831
2943  2023-11-30 12:40:37.252800
2944  2023-11-30 12:40:37.284749
2945  2023-11-30 12:40:37.316630
2946  2023-11-30 12:40:37.348545
2947  2023-11-30 12:40:37.396462
2948  2023-11-30 12:40:37.428330
2949  2023-11-30 12:40:37.460251
2950  2023-11-30 12:40:37.492159
2951  2023-11-30 12:40:37.524124
2952  2023-11-30 12:40:37.557042
2953  2023-11-30 12:40:37.589301
2954  2023-11-30 12:40:37.620314
2955  2023-11-30 12:40:37.653217
2956  2023-11-30 12:40:37.684182
2957  2023-11-30 12:40:37.717018
2958  2023-11-30 12:40:37.747934
2959  2023-11-30 12:40:37.796847
2960  2023-11-30 12:40:37.828224
2961  2023-11-30 12:40:37.860114
2962  2023-11-30 12:40:37.892083
2963  2023-11-30 12:40:37.923944
2964  2023-11-30 12:40:37.956856
2965  2023-11-30 12:40:37.988771
2966  2023-11-30 12:40:38.020690
2967  2023-11-30 12:40:38.052600
2968  2023-11-30 12:40:38.085067
2969  2023-11-30 12:40:38.116125
2970  2023-11-30 12:40:38.147944
2971  2023-11-30 12:40:38.196823
2972  2023-11-30 12:40:38.228738
2973  2023-11-30 12:40:38.260650
2974  2023-11-30 12:40:38.292566
2975  2023-11-30 12:40:38.324479
2976  2023-11-30 12:40:38.356394
2977  2023-11-30 12:40:38.388346
2978  2023-11-30 12:40:38.419941
2979  2023-11-30 12:40:38.452801
2980  2023-11-30 12:40:38.483796
2981  2023-11-30 12:40:38.516790
2982  2023-11-30 12:40:38.548707
2983  2023-11-30 12:40:38.596620
2984  2023-11-30 12:40:38.628588
2985  2023-11-30 12:40:38.660535
2986  2023-11-30 12:40:38.692417
2987  2023-11-30 12:40:38.724383
2988  2023-11-30 12:40:38.756384
2989  2023-11-30 12:40:38.788277
2990  2023-11-30 12:40:38.820224
2991  2023-11-30 12:40:38.853103
2992  2023-11-30 12:40:38.885057
2993  2023-11-30 12:40:38.916921
2994  2023-11-30 12:40:38.948836
2995  2023-11-30 12:40:38.996709
2996  2023-11-30 12:40:39.028622
2997  2023-11-30 12:40:39.060538
2998  2023-11-30 12:40:39.092453
2999  2023-11-30 12:40:39.124367
3000  2023-11-30 12:40:39.156283
3001  2023-11-30 12:40:39.188244
3002  2023-11-30 12:40:39.220220
3003  2023-11-30 12:40:39.253132
3004  2023-11-30 12:40:39.285046
3005  2023-11-30 12:40:39.315994
3006  2023-11-30 12:40:39.348874
3007  2023-11-30 12:40:39.396750
3008  2023-11-30 12:40:39.428662
3009  2023-11-30 12:40:39.460577
3010  2023-11-30 12:40:39.492494
3011  2023-11-30 12:40:39.524413
3012  2023-11-30 12:40:39.556320
3013  2023-11-30 12:40:39.588235
3014  2023-11-30 12:40:39.622311
3015  2023-11-30 12:40:39.652538
3016  2023-11-30 12:40:39.685823
3017  2023-11-30 12:40:39.717835
3018  2023-11-30 12:40:39.749750
3019  2023-11-30 12:40:39.796642
3020  2023-11-30 12:40:39.829669
3021  2023-11-30 12:40:39.860569
3022  2023-11-30 12:40:39.894495
3023  2023-11-30 12:40:39.926352
3024  2023-11-30 12:40:39.956273
3025  2023-11-30 12:40:39.989246
3026  2023-11-30 12:40:40.020102
3027  2023-11-30 12:40:40.053016
3028  2023-11-30 12:40:40.085931
3029  2023-11-30 12:40:40.116844
3030  2023-11-30 12:40:40.149757
3031  2023-11-30 12:40:40.197633
3032  2023-11-30 12:40:40.228581
3033  2023-11-30 12:40:40.260460
3034  2023-11-30 12:40:40.293405
3035  2023-11-30 12:40:40.325291
3036  2023-11-30 12:40:40.357199
3037  2023-11-30 12:40:40.389092
3038  2023-11-30 12:40:40.421727
3039  2023-11-30 12:40:40.453025
3040  2023-11-30 12:40:40.485102
3041  2023-11-30 12:40:40.518003
3042  2023-11-30 12:40:40.549953
3043  2023-11-30 12:40:40.597784
3044  2023-11-30 12:40:40.629679
3045  2023-11-30 12:40:40.661644
3046  2023-11-30 12:40:40.693498
3047  2023-11-30 12:40:40.724447
3048  2023-11-30 12:40:40.757390
3049  2023-11-30 12:40:40.789295
3050  2023-11-30 12:40:40.821194
3051  2023-11-30 12:40:40.853100
3052  2023-11-30 12:40:40.885378
3053  2023-11-30 12:40:40.917355
3054  2023-11-30 12:40:40.949270
3055  2023-11-30 12:40:40.997140
3056  2023-11-30 12:40:41.029065
3057  2023-11-30 12:40:41.061015
3058  2023-11-30 12:40:41.093930
3059  2023-11-30 12:40:41.124846
3060  2023-11-30 12:40:41.156768
3061  2023-11-30 12:40:41.188675
3062  2023-11-30 12:40:41.221608
3063  2023-11-30 12:40:41.252472
3064  2023-11-30 12:40:41.284387
3065  2023-11-30 12:40:41.316302
3066  2023-11-30 12:40:41.348243
3067  2023-11-30 12:40:41.397143
3068  2023-11-30 12:40:41.428735
3069  2023-11-30 12:40:41.460632
3070  2023-11-30 12:40:41.492751
3071  2023-11-30 12:40:41.524688
3072  2023-11-30 12:40:41.556670
3073  2023-11-30 12:40:41.588629
3074  2023-11-30 12:40:41.620551
3075  2023-11-30 12:40:41.652419
3076  2023-11-30 12:40:41.684489
3077  2023-11-30 12:40:41.716538
3078  2023-11-30 12:40:41.748449
3079  2023-11-30 12:40:41.796288
3080  2023-11-30 12:40:41.828246
3081  2023-11-30 12:40:41.860155
3082  2023-11-30 12:40:41.892354
3083  2023-11-30 12:40:41.924275
3084  2023-11-30 12:40:41.957522
3085  2023-11-30 12:40:41.988473
3086  2023-11-30 12:40:42.020713
3087  2023-11-30 12:40:42.052819
3088  2023-11-30 12:40:42.084638
3089  2023-11-30 12:40:42.116236
3090  2023-11-30 12:40:42.148214
3091  2023-11-30 12:40:42.196140
3092  2023-11-30 12:40:42.229006
3093  2023-11-30 12:40:42.260920
3094  2023-11-30 12:40:42.294484
3095  2023-11-30 12:40:42.325401
3096  2023-11-30 12:40:42.356318
3097  2023-11-30 12:40:42.388234
3098  2023-11-30 12:40:42.420148
3099  2023-11-30 12:40:42.453216
3100  2023-11-30 12:40:42.485237
3101  2023-11-30 12:40:42.517147
3102  2023-11-30 12:40:42.550056
3103  2023-11-30 12:40:42.596959
3104  2023-11-30 12:40:42.628881
3105  2023-11-30 12:40:42.660809
3106  2023-11-30 12:40:42.692750
3107  2023-11-30 12:40:42.724673
3108  2023-11-30 12:40:42.756579
3109  2023-11-30 12:40:42.788507
3110  2023-11-30 12:40:42.820409
3111  2023-11-30 12:40:42.852323
3112  2023-11-30 12:40:42.884238
3113  2023-11-30 12:40:42.917407
3114  2023-11-30 12:40:42.949321
3115  2023-11-30 12:40:42.996182
3116  2023-11-30 12:40:43.029108
3117  2023-11-30 12:40:43.060034
3118  2023-11-30 12:40:43.092893
3119  2023-11-30 12:40:43.124875
3120  2023-11-30 12:40:43.157225
3121  2023-11-30 12:40:43.189145
3122  2023-11-30 12:40:43.220176
3123  2023-11-30 12:40:43.253335
3124  2023-11-30 12:40:43.285314
3125  2023-11-30 12:40:43.316685
3126  2023-11-30 12:40:43.348656
3127  2023-11-30 12:40:43.397137
3128  2023-11-30 12:40:43.428054
3129  2023-11-30 12:40:43.459969
3130  2023-11-30 12:40:43.491884
3131  2023-11-30 12:40:43.525794
3132  2023-11-30 12:40:43.557816
3133  2023-11-30 12:40:43.589723
3134  2023-11-30 12:40:43.620605
3135  2023-11-30 12:40:43.652518
3136  2023-11-30 12:40:43.684465
3137  2023-11-30 12:40:43.717373
3138  2023-11-30 12:40:43.749285
3139  2023-11-30 12:40:43.797132
3140  2023-11-30 12:40:43.830067
3141  2023-11-30 12:40:43.859975
3142  2023-11-30 12:40:43.892386
3143  2023-11-30 12:40:43.925305
3144  2023-11-30 12:40:43.957181
3145  2023-11-30 12:40:43.989128
3146  2023-11-30 12:40:44.021043
3147  2023-11-30 12:40:44.052957
3148  2023-11-30 12:40:44.084882
3149  2023-11-30 12:40:44.116790
3150  2023-11-30 12:40:44.148709
3151  2023-11-30 12:40:44.197591
3152  2023-11-30 12:40:44.229485
3153  2023-11-30 12:40:44.260371
3154  2023-11-30 12:40:44.292285
3155  2023-11-30 12:40:44.325230
3156  2023-11-30 12:40:44.357153
3157  2023-11-30 12:40:44.390063
3158  2023-11-30 12:40:44.420980
3159  2023-11-30 12:40:44.452885
3160  2023-11-30 12:40:44.484682
3161  2023-11-30 12:40:44.516584
3162  2023-11-30 12:40:44.548500
3163  2023-11-30 12:40:44.596370
3164  2023-11-30 12:40:44.629336
3165  2023-11-30 12:40:44.660207
3166  2023-11-30 12:40:44.692120
3167  2023-11-30 12:40:44.725068
3168  2023-11-30 12:40:44.757020
3169  2023-11-30 12:40:44.788899
3170  2023-11-30 12:40:44.820813
3171  2023-11-30 12:40:44.852850
3172  2023-11-30 12:40:44.884815
3173  2023-11-30 12:40:44.916712
3174  2023-11-30 12:40:44.948593
3175  2023-11-30 12:40:44.996510
3176  2023-11-30 12:40:45.029377
3177  2023-11-30 12:40:45.061332
3178  2023-11-30 12:40:45.092209
3179  2023-11-30 12:40:45.124214
3180  2023-11-30 12:40:45.156875
3181  2023-11-30 12:40:45.188781
3182  2023-11-30 12:40:45.221707
3183  2023-11-30 12:40:45.251820
3184  2023-11-30 12:40:45.284215
3185  2023-11-30 12:40:45.316466
3186  2023-11-30 12:40:45.348385
3187  2023-11-30 12:40:45.396214
3188  2023-11-30 12:40:45.429121
3189  2023-11-30 12:40:45.461094
3190  2023-11-30 12:40:45.491983
3191  2023-11-30 12:40:45.524900
3192  2023-11-30 12:40:45.556847
3193  2023-11-30 12:40:45.588872
3194  2023-11-30 12:40:45.620748
3195  2023-11-30 12:40:45.652663
3196  2023-11-30 12:40:45.684577
3197  2023-11-30 12:40:45.716496
3198  2023-11-30 12:40:45.748438
3199  2023-11-30 12:40:45.796321
3200  2023-11-30 12:40:45.829190
3201  2023-11-30 12:40:45.861105
3202  2023-11-30 12:40:45.892022
3203  2023-11-30 12:40:45.923937
3204  2023-11-30 12:40:45.956884
3205  2023-11-30 12:40:45.988764
3206  2023-11-30 12:40:46.021042
3207  2023-11-30 12:40:46.051998
3208  2023-11-30 12:40:46.084736
3209  2023-11-30 12:40:46.116123
3210  2023-11-30 12:40:46.148001
3211  2023-11-30 12:40:46.195879
3212  2023-11-30 12:40:46.228698
3213  2023-11-30 12:40:46.260552
3214  2023-11-30 12:40:46.293455
3215  2023-11-30 12:40:46.325279
3216  2023-11-30 12:40:46.356238
3217  2023-11-30 12:40:46.388080
3218  2023-11-30 12:40:46.420110
3219  2023-11-30 12:40:46.451997
3220  2023-11-30 12:40:46.483909
3221  2023-11-30 12:40:46.515830
3222  2023-11-30 12:40:46.548742
3223  2023-11-30 12:40:46.596627
3224  2023-11-30 12:40:46.628527
3225  2023-11-30 12:40:46.660438
3226  2023-11-30 12:40:46.692319
3227  2023-11-30 12:40:46.724235
3228  2023-11-30 12:40:46.757147
3229  2023-11-30 12:40:46.789063
3230  2023-11-30 12:40:46.819979
3231  2023-11-30 12:40:46.851926
3232  2023-11-30 12:40:46.884845
3233  2023-11-30 12:40:46.916762
3234  2023-11-30 12:40:46.948672
3235  2023-11-30 12:40:46.996565
3236  2023-11-30 12:40:47.028457
3237  2023-11-30 12:40:47.060337
3238  2023-11-30 12:40:47.092286
3239  2023-11-30 12:40:47.124165
3240  2023-11-30 12:40:47.157114
3241  2023-11-30 12:40:47.188050
3242  2023-11-30 12:40:47.220953
3243  2023-11-30 12:40:47.252823
3244  2023-11-30 12:40:47.284780
3245  2023-11-30 12:40:47.316682
3246  2023-11-30 12:40:47.348462
3247  2023-11-30 12:40:47.396338
3248  2023-11-30 12:40:47.428616
3249  2023-11-30 12:40:47.460550
3250  2023-11-30 12:40:47.492284
3251  2023-11-30 12:40:47.524235
3252  2023-11-30 12:40:47.556147
3253  2023-11-30 12:40:47.588062
3254  2023-11-30 12:40:47.620062
3255  2023-11-30 12:40:47.651943
3256  2023-11-30 12:40:47.684161
3257  2023-11-30 12:40:47.716174
3258  2023-11-30 12:40:47.748085
3259  2023-11-30 12:40:47.796031
3260  2023-11-30 12:40:47.827924
3261  2023-11-30 12:40:47.860837
3262  2023-11-30 12:40:47.892752
3263  2023-11-30 12:40:47.924671
3264  2023-11-30 12:40:47.956581
3265  2023-11-30 12:40:47.988529
3266  2023-11-30 12:40:48.020447
3267  2023-11-30 12:40:48.052359
3268  2023-11-30 12:40:48.084270
3269  2023-11-30 12:40:48.116189
3270  2023-11-30 12:40:48.148126
3271  2023-11-30 12:40:48.195991
3272  2023-11-30 12:40:48.228886
3273  2023-11-30 12:40:48.260798
3274  2023-11-30 12:40:48.292722
3275  2023-11-30 12:40:48.324596
3276  2023-11-30 12:40:48.356511
3277  2023-11-30 12:40:48.389457
3278  2023-11-30 12:40:48.420371
3279  2023-11-30 12:40:48.452289
3280  2023-11-30 12:40:48.484567
3281  2023-11-30 12:40:48.516503
3282  2023-11-30 12:40:48.548184
3283  2023-11-30 12:40:48.596038
3284  2023-11-30 12:40:48.628914
3285  2023-11-30 12:40:48.660865
3286  2023-11-30 12:40:48.692817
3287  2023-11-30 12:40:48.724690
3288  2023-11-30 12:40:48.756637
3289  2023-11-30 12:40:48.788556
3290  2023-11-30 12:40:48.820468
3291  2023-11-30 12:40:48.852350
3292  2023-11-30 12:40:48.884300
3293  2023-11-30 12:40:48.916334
3294  2023-11-30 12:40:48.948206
3295  2023-11-30 12:40:48.996077
3296  2023-11-30 12:40:49.027998
3297  2023-11-30 12:40:49.059950
3298  2023-11-30 12:40:49.092852
3299  2023-11-30 12:40:49.124764
3300  2023-11-30 12:40:49.156680
3301  2023-11-30 12:40:49.188616
3302  2023-11-30 12:40:49.220511
3303  2023-11-30 12:40:49.252425
3304  2023-11-30 12:40:49.284337
3305  2023-11-30 12:40:49.316305
3306  2023-11-30 12:40:49.348301
3307  2023-11-30 12:40:49.396854
3308  2023-11-30 12:40:49.428724
3309  2023-11-30 12:40:49.460673
3310  2023-11-30 12:40:49.492548
3311  2023-11-30 12:40:49.524492
3312  2023-11-30 12:40:49.556377
3313  2023-11-30 12:40:49.589291
3314  2023-11-30 12:40:49.620244
3315  2023-11-30 12:40:49.653169
3316  2023-11-30 12:40:49.684068
3317  2023-11-30 12:40:49.716948
3318  2023-11-30 12:40:49.748862
3319  2023-11-30 12:40:49.795828
3320  2023-11-30 12:40:49.828776
3321  2023-11-30 12:40:49.860689
3322  2023-11-30 12:40:49.892601
3323  2023-11-30 12:40:49.924484
3324  2023-11-30 12:40:49.956971
3325  2023-11-30 12:40:49.988605
3326  2023-11-30 12:40:50.019980
3327  2023-11-30 12:40:50.052892
3328  2023-11-30 12:40:50.083810
3329  2023-11-30 12:40:50.116726
3330  2023-11-30 12:40:50.148713
3331  2023-11-30 12:40:50.196584
3332  2023-11-30 12:40:50.228501
3333  2023-11-30 12:40:50.260384
3334  2023-11-30 12:40:50.292298
3335  2023-11-30 12:40:50.324213
3336  2023-11-30 12:40:50.356159
3337  2023-11-30 12:40:50.388084
3338  2023-11-30 12:40:50.419991
3339  2023-11-30 12:40:50.451901
3340  2023-11-30 12:40:50.484817
3341  2023-11-30 12:40:50.516746
3342  2023-11-30 12:40:50.548645
3343  2023-11-30 12:40:50.596486
3344  2023-11-30 12:40:50.628435
3345  2023-11-30 12:40:50.660314
3346  2023-11-30 12:40:50.692228
3347  2023-11-30 12:40:50.724209
3348  2023-11-30 12:40:50.756057
3349  2023-11-30 12:40:50.788002
3350  2023-11-30 12:40:50.819919
3351  2023-11-30 12:40:50.852047
3352  2023-11-30 12:40:50.884052
3353  2023-11-30 12:40:50.916920
3354  2023-11-30 12:40:50.948834
3355  2023-11-30 12:40:50.996740
3356  2023-11-30 12:40:51.028655
3357  2023-11-30 12:40:51.060536
3358  2023-11-30 12:40:51.092452
3359  2023-11-30 12:40:51.124367
3360  2023-11-30 12:40:51.156280
3361  2023-11-30 12:40:51.188195
3362  2023-11-30 12:40:51.220115
3363  2023-11-30 12:40:51.252025
3364  2023-11-30 12:40:51.284773
3365  2023-11-30 12:40:51.316445
3366  2023-11-30 12:40:51.349445
3367  2023-11-30 12:40:51.396418
3368  2023-11-30 12:40:51.428444
3369  2023-11-30 12:40:51.460324
3370  2023-11-30 12:40:51.492241
3371  2023-11-30 12:40:51.524154
3372  2023-11-30 12:40:51.556106
3373  2023-11-30 12:40:51.587983
3374  2023-11-30 12:40:51.619897
3375  2023-11-30 12:40:51.651845
3376  2023-11-30 12:40:51.684757
3377  2023-11-30 12:40:51.716672
3378  2023-11-30 12:40:51.748554
3379  2023-11-30 12:40:51.796466
3380  2023-11-30 12:40:51.828372
3381  2023-11-30 12:40:51.860287
3382  2023-11-30 12:40:51.892236
3383  2023-11-30 12:40:51.924121
3384  2023-11-30 12:40:51.956034
3385  2023-11-30 12:40:51.989042
3386  2023-11-30 12:40:52.019966
3387  2023-11-30 12:40:52.052447
3388  2023-11-30 12:40:52.084356
3389  2023-11-30 12:40:52.116236
3390  2023-11-30 12:40:52.148151
3391  2023-11-30 12:40:52.196023
3392  2023-11-30 12:40:52.227939
3393  2023-11-30 12:40:52.259854
3394  2023-11-30 12:40:52.291768
3395  2023-11-30 12:40:52.324686
3396  2023-11-30 12:40:52.356594
3397  2023-11-30 12:40:52.388527
3398  2023-11-30 12:40:52.420978
3399  2023-11-30 12:40:52.451935
3400  2023-11-30 12:40:52.484851
3401  2023-11-30 12:40:52.516751
3402  2023-11-30 12:40:52.548683
3403  2023-11-30 12:40:52.596550
3404  2023-11-30 12:40:52.628463
3405  2023-11-30 12:40:52.660351
3406  2023-11-30 12:40:52.692260
3407  2023-11-30 12:40:52.724226
3408  2023-11-30 12:40:52.757121
3409  2023-11-30 12:40:52.789010
3410  2023-11-30 12:40:52.819959
3411  2023-11-30 12:40:52.852051
3412  2023-11-30 12:40:52.884204
3413  2023-11-30 12:40:52.916071
3414  2023-11-30 12:40:52.947986
3415  2023-11-30 12:40:52.997242
3416  2023-11-30 12:40:53.028281
3417  2023-11-30 12:40:53.059863
3418  2023-11-30 12:40:53.092775
3419  2023-11-30 12:40:53.124770
3420  2023-11-30 12:40:53.156684
3421  2023-11-30 12:40:53.188558
3422  2023-11-30 12:40:53.220488
3423  2023-11-30 12:40:53.252468
3424  2023-11-30 12:40:53.284790
3425  2023-11-30 12:40:53.316705
3426  2023-11-30 12:40:53.348619
3427  2023-11-30 12:40:53.396492
3428  2023-11-30 12:40:53.428406
3429  2023-11-30 12:40:53.460321
3430  2023-11-30 12:40:53.492236
3431  2023-11-30 12:40:53.524746
3432  2023-11-30 12:40:53.556734
3433  2023-11-30 12:40:53.588616
3434  2023-11-30 12:40:53.620562
3435  2023-11-30 12:40:53.652475
3436  2023-11-30 12:40:53.684410
3437  2023-11-30 12:40:53.716297
3438  2023-11-30 12:40:53.748188
3439  2023-11-30 12:40:53.796061
3440  2023-11-30 12:40:53.827975
3441  2023-11-30 12:40:53.859921
3442  2023-11-30 12:40:53.892803
3443  2023-11-30 12:40:53.924717
3444  2023-11-30 12:40:53.956666
3445  2023-11-30 12:40:53.988546
3446  2023-11-30 12:40:54.020496
3447  2023-11-30 12:40:54.052444
3448  2023-11-30 12:40:54.084131
3449  2023-11-30 12:40:54.116078
3450  2023-11-30 12:40:54.148608
3451  2023-11-30 12:40:54.196547
3452  2023-11-30 12:40:54.228435
3453  2023-11-30 12:40:54.260311
3454  2023-11-30 12:40:54.292225
3455  2023-11-30 12:40:54.324173
3456  2023-11-30 12:40:54.356108
3457  2023-11-30 12:40:54.388004
3458  2023-11-30 12:40:54.420881
3459  2023-11-30 12:40:54.451803
3460  2023-11-30 12:40:54.483717
3461  2023-11-30 12:40:54.516651
3462  2023-11-30 12:40:54.548571
3463  2023-11-30 12:40:54.596538
3464  2023-11-30 12:40:54.628494
3465  2023-11-30 12:40:54.660368
3466  2023-11-30 12:40:54.692322
3467  2023-11-30 12:40:54.724197
3468  2023-11-30 12:40:54.756113
3469  2023-11-30 12:40:54.788026
3470  2023-11-30 12:40:54.819941
3471  2023-11-30 12:40:54.851892
3472  2023-11-30 12:40:54.883808
3473  2023-11-30 12:40:54.916719
3474  2023-11-30 12:40:54.948667
3475  2023-11-30 12:40:54.996510
3476  2023-11-30 12:40:55.028420
3477  2023-11-30 12:40:55.060335
3478  2023-11-30 12:40:55.092353
3479  2023-11-30 12:40:55.124285
3480  2023-11-30 12:40:55.156466
3481  2023-11-30 12:40:55.188153
3482  2023-11-30 12:40:55.220111
3483  2023-11-30 12:40:55.251982
3484  2023-11-30 12:40:55.283916
3485  2023-11-30 12:40:55.315856
3486  2023-11-30 12:40:55.347870
3487  2023-11-30 12:40:55.396742
3488  2023-11-30 12:40:55.428657
3489  2023-11-30 12:40:55.461145
3490  2023-11-30 12:40:55.492064
3491  2023-11-30 12:40:55.524977
3492  2023-11-30 12:40:55.555894
3493  2023-11-30 12:40:55.588806
3494  2023-11-30 12:40:55.620765
3495  2023-11-30 12:40:55.652680
3496  2023-11-30 12:40:55.684594
3497  2023-11-30 12:40:55.717545
3498  2023-11-30 12:40:55.748458
3499  2023-11-30 12:40:55.797327
3500  2023-11-30 12:40:55.828297
3501  2023-11-30 12:40:55.860219
3502  2023-11-30 12:40:55.892162
3503  2023-11-30 12:40:55.925074
3504  2023-11-30 12:40:55.956954
3505  2023-11-30 12:40:55.987870
3506  2023-11-30 12:40:56.020783
3507  2023-11-30 12:40:56.052721
3508  2023-11-30 12:40:56.084612
3509  2023-11-30 12:40:56.116526
3510  2023-11-30 12:40:56.148441
3511  2023-11-30 12:40:56.196320
3512  2023-11-30 12:40:56.228228
3513  2023-11-30 12:40:56.260176
3514  2023-11-30 12:40:56.292058
3515  2023-11-30 12:40:56.323975
3516  2023-11-30 12:40:56.355886
3517  2023-11-30 12:40:56.387838
3518  2023-11-30 12:40:56.420754
3519  2023-11-30 12:40:56.452628
3520  2023-11-30 12:40:56.484542
3521  2023-11-30 12:40:56.516204
3522  2023-11-30 12:40:56.548118
3523  2023-11-30 12:40:56.596817
3524  2023-11-30 12:40:56.628732
3525  2023-11-30 12:40:56.660646
3526  2023-11-30 12:40:56.692561
3527  2023-11-30 12:40:56.724480
3528  2023-11-30 12:40:56.756390
3529  2023-11-30 12:40:56.788306
3530  2023-11-30 12:40:56.820256
3531  2023-11-30 12:40:56.852138
3532  2023-11-30 12:40:56.884053
3533  2023-11-30 12:40:56.916000
3534  2023-11-30 12:40:56.947883
3535  2023-11-30 12:40:56.996748
3536  2023-11-30 12:40:57.028664
3537  2023-11-30 12:40:57.060627
3538  2023-11-30 12:40:57.092543
3539  2023-11-30 12:40:57.125455
3540  2023-11-30 12:40:57.156372
3541  2023-11-30 12:40:57.188285
3542  2023-11-30 12:40:57.221197
3543  2023-11-30 12:40:57.253163
3544  2023-11-30 12:40:57.284029
3545  2023-11-30 12:40:57.316707
3546  2023-11-30 12:40:57.348655
3547  2023-11-30 12:40:57.396573
3548  2023-11-30 12:40:57.428487
3549  2023-11-30 12:40:57.460512
3550  2023-11-30 12:40:57.492376
3551  2023-11-30 12:40:57.524300
3552  2023-11-30 12:40:57.555989
3553  2023-11-30 12:40:57.587936
3554  2023-11-30 12:40:57.620412
3555  2023-11-30 12:40:57.652591
3556  2023-11-30 12:40:57.684511
3557  2023-11-30 12:40:57.716421
3558  2023-11-30 12:40:57.748336
3559  2023-11-30 12:40:57.796209
3560  2023-11-30 12:40:57.828173
3561  2023-11-30 12:40:57.860820
