
1  2023-11-09 10:27:21.252564
2  2023-11-09 10:27:21.300448
3  2023-11-09 10:27:21.347311
4  2023-11-09 10:27:21.378228
5  2023-11-09 10:27:21.426182
6  2023-11-09 10:27:21.458097
7  2023-11-09 10:27:21.505968
8  2023-11-09 10:27:21.553870
9  2023-11-09 10:27:21.585777
10  2023-11-09 10:27:21.633620
11  2023-11-09 10:27:21.681513
12  2023-11-09 10:27:21.713453
13  2023-11-09 10:27:21.761325
14  2023-11-09 10:27:21.792242
15  2023-11-09 10:27:21.840024
16  2023-11-09 10:27:21.888063
17  2023-11-09 10:27:21.919983
18  2023-11-09 10:27:21.967838
19  2023-11-09 10:27:22.013843
20  2023-11-09 10:27:22.045749
21  2023-11-09 10:27:22.093588
22  2023-11-09 10:27:22.125534
23  2023-11-09 10:27:22.173497
24  2023-11-09 10:27:22.221377
25  2023-11-09 10:27:22.253273
26  2023-11-09 10:27:22.301153
27  2023-11-09 10:27:22.333063
28  2023-11-09 10:27:22.380932
29  2023-11-09 10:27:22.428773
30  2023-11-09 10:27:22.459689
31  2023-11-09 10:27:22.507561
32  2023-11-09 10:27:22.555434
33  2023-11-09 10:27:22.586969
34  2023-11-09 10:27:22.634841
35  2023-11-09 10:27:22.666841
36  2023-11-09 10:27:22.713859
37  2023-11-09 10:27:22.760719
38  2023-11-09 10:27:22.792634
39  2023-11-09 10:27:22.838716
40  2023-11-09 10:27:22.886616
41  2023-11-09 10:27:22.918531
42  2023-11-09 10:27:22.966422
43  2023-11-09 10:27:23.014273
44  2023-11-09 10:27:23.046186
45  2023-11-09 10:27:23.094117
46  2023-11-09 10:27:23.126062
47  2023-11-09 10:27:23.173935
48  2023-11-09 10:27:23.221581
49  2023-11-09 10:27:23.253494
50  2023-11-09 10:27:23.301360
51  2023-11-09 10:27:23.348406
52  2023-11-09 10:27:23.380156
53  2023-11-09 10:27:23.428029
54  2023-11-09 10:27:23.458946
55  2023-11-09 10:27:23.503826
56  2023-11-09 10:27:23.551796
57  2023-11-09 10:27:23.583712
58  2023-11-09 10:27:23.630506
59  2023-11-09 10:27:23.678447
60  2023-11-09 10:27:23.710359
61  2023-11-09 10:27:23.758034
62  2023-11-09 10:27:23.805935
63  2023-11-09 10:27:23.837512
64  2023-11-09 10:27:23.885283
65  2023-11-09 10:27:23.917194
66  2023-11-09 10:27:23.964863
67  2023-11-09 10:27:24.012783
68  2023-11-09 10:27:24.043703
69  2023-11-09 10:27:24.091523
70  2023-11-09 10:27:24.139394
71  2023-11-09 10:27:24.171309
72  2023-11-09 10:27:24.219181
73  2023-11-09 10:27:24.251177
74  2023-11-09 10:27:24.299005
75  2023-11-09 10:27:24.346875
76  2023-11-09 10:27:24.378584
77  2023-11-09 10:27:24.426417
78  2023-11-09 10:27:24.458331
79  2023-11-09 10:27:24.505520
80  2023-11-09 10:27:24.552428
81  2023-11-09 10:27:24.583343
82  2023-11-09 10:27:24.631224
83  2023-11-09 10:27:24.678090
84  2023-11-09 10:27:24.710007
85  2023-11-09 10:27:24.757884
86  2023-11-09 10:27:24.805749
87  2023-11-09 10:27:24.837632
88  2023-11-09 10:27:24.885307
89  2023-11-09 10:27:24.917179
90  2023-11-09 10:27:24.964054
91  2023-11-09 10:27:25.011921
92  2023-11-09 10:27:25.042837
93  2023-11-09 10:27:25.090210
94  2023-11-09 10:27:25.138150
95  2023-11-09 10:27:25.170108
96  2023-11-09 10:27:25.218085
97  2023-11-09 10:27:25.249851
98  2023-11-09 10:27:25.295752
99  2023-11-09 10:27:25.343655
100  2023-11-09 10:27:25.375536
101  2023-11-09 10:27:25.423454
102  2023-11-09 10:27:25.470673
103  2023-11-09 10:27:25.502621
104  2023-11-09 10:27:25.549583
105  2023-11-09 10:27:25.595443
106  2023-11-09 10:27:25.626361
107  2023-11-09 10:27:25.674251
108  2023-11-09 10:27:25.722106
109  2023-11-09 10:27:25.753995
110  2023-11-09 10:27:25.801961
111  2023-11-09 10:27:25.833830
112  2023-11-09 10:27:25.881703
113  2023-11-09 10:27:25.928579
114  2023-11-09 10:27:25.960494
115  2023-11-09 10:27:26.008141
116  2023-11-09 10:27:26.056012
117  2023-11-09 10:27:26.087929
118  2023-11-09 10:27:26.135857
119  2023-11-09 10:27:26.167857
120  2023-11-09 10:27:26.215731
121  2023-11-09 10:27:26.263764
122  2023-11-09 10:27:26.295605
123  2023-11-09 10:27:26.341483
124  2023-11-09 10:27:26.389354
125  2023-11-09 10:27:26.421269
126  2023-11-09 10:27:26.468819
127  2023-11-09 10:27:26.500423
128  2023-11-09 10:27:26.548382
129  2023-11-09 10:27:26.596254
130  2023-11-09 10:27:26.627171
131  2023-11-09 10:27:26.674046
132  2023-11-09 10:27:26.721959
133  2023-11-09 10:27:26.753832
134  2023-11-09 10:27:26.800902
135  2023-11-09 10:27:26.832668
136  2023-11-09 10:27:26.878763
137  2023-11-09 10:27:26.926636
138  2023-11-09 10:27:26.958573
139  2023-11-09 10:27:27.005536
140  2023-11-09 10:27:27.052396
141  2023-11-09 10:27:27.084278
142  2023-11-09 10:27:27.131181
143  2023-11-09 10:27:27.177056
144  2023-11-09 10:27:27.208055
145  2023-11-09 10:27:27.254926
146  2023-11-09 10:27:27.302896
147  2023-11-09 10:27:27.334916
148  2023-11-09 10:27:27.381685
149  2023-11-09 10:27:27.428560
150  2023-11-09 10:27:27.460474
151  2023-11-09 10:27:27.508346
152  2023-11-09 10:27:27.556218
153  2023-11-09 10:27:27.588133
154  2023-11-09 10:27:27.636005
155  2023-11-09 10:27:27.667920
156  2023-11-09 10:27:27.713797
157  2023-11-09 10:27:27.761714
158  2023-11-09 10:27:27.792630
159  2023-11-09 10:27:27.838580
160  2023-11-09 10:27:27.885535
161  2023-11-09 10:27:27.917607
162  2023-11-09 10:27:27.965440
163  2023-11-09 10:27:28.013316
164  2023-11-09 10:27:28.045225
165  2023-11-09 10:27:28.093091
166  2023-11-09 10:27:28.124973
167  2023-11-09 10:27:28.172885
168  2023-11-09 10:27:28.220765
169  2023-11-09 10:27:28.252824
170  2023-11-09 10:27:28.300577
171  2023-11-09 10:27:28.347494
172  2023-11-09 10:27:28.379413
173  2023-11-09 10:27:28.427270
174  2023-11-09 10:27:28.459191
175  2023-11-09 10:27:28.506495
176  2023-11-09 10:27:28.554340
177  2023-11-09 10:27:28.586300
178  2023-11-09 10:27:28.633884
179  2023-11-09 10:27:28.680769
180  2023-11-09 10:27:28.711732
181  2023-11-09 10:27:28.759559
182  2023-11-09 10:27:28.791474
183  2023-11-09 10:27:28.839405
184  2023-11-09 10:27:28.887289
185  2023-11-09 10:27:28.919191
186  2023-11-09 10:27:28.967087
187  2023-11-09 10:27:29.013967
188  2023-11-09 10:27:29.043887
189  2023-11-09 10:27:29.090761
190  2023-11-09 10:27:29.138636
191  2023-11-09 10:27:29.170522
192  2023-11-09 10:27:29.218394
193  2023-11-09 10:27:29.250336
194  2023-11-09 10:27:29.298102
195  2023-11-09 10:27:29.346016
196  2023-11-09 10:27:29.378015
197  2023-11-09 10:27:29.425932
198  2023-11-09 10:27:29.457882
199  2023-11-09 10:27:29.505782
200  2023-11-09 10:27:29.551755
201  2023-11-09 10:27:29.583670
202  2023-11-09 10:27:29.630587
203  2023-11-09 10:27:29.677464
204  2023-11-09 10:27:29.709367
205  2023-11-09 10:27:29.757250
206  2023-11-09 10:27:29.805122
207  2023-11-09 10:27:29.837036
208  2023-11-09 10:27:29.884622
209  2023-11-09 10:27:29.916587
210  2023-11-09 10:27:29.964628
211  2023-11-09 10:27:30.012530
212  2023-11-09 10:27:30.044459
213  2023-11-09 10:27:30.092289
214  2023-11-09 10:27:30.139328
215  2023-11-09 10:27:30.170242
216  2023-11-09 10:27:30.218229
217  2023-11-09 10:27:30.251157
218  2023-11-09 10:27:30.296395
219  2023-11-09 10:27:30.344354
220  2023-11-09 10:27:30.376268
221  2023-11-09 10:27:30.422147
222  2023-11-09 10:27:30.468022
223  2023-11-09 10:27:30.514200
224  2023-11-09 10:27:30.546115
225  2023-11-09 10:27:30.594024
226  2023-11-09 10:27:30.639996
227  2023-11-09 10:27:30.671779
228  2023-11-09 10:27:30.719844
229  2023-11-09 10:27:30.751791
230  2023-11-09 10:27:30.799023
231  2023-11-09 10:27:30.846993
232  2023-11-09 10:27:30.877910
233  2023-11-09 10:27:30.924977
234  2023-11-09 10:27:30.972693
235  2023-11-09 10:27:31.004614
236  2023-11-09 10:27:31.052479
237  2023-11-09 10:27:31.083393
238  2023-11-09 10:27:31.130236
239  2023-11-09 10:27:31.178191
240  2023-11-09 10:27:31.210154
241  2023-11-09 10:27:31.257938
242  2023-11-09 10:27:31.305535
243  2023-11-09 10:27:31.337533
244  2023-11-09 10:27:31.385371
245  2023-11-09 10:27:31.416324
246  2023-11-09 10:27:31.463202
247  2023-11-09 10:27:31.510062
248  2023-11-09 10:27:31.542006
249  2023-11-09 10:27:31.588827
250  2023-11-09 10:27:31.635414
251  2023-11-09 10:27:31.666331
252  2023-11-09 10:27:31.714367
253  2023-11-09 10:27:31.762239
254  2023-11-09 10:27:31.794184
255  2023-11-09 10:27:31.842025
256  2023-11-09 10:27:31.888934
257  2023-11-09 10:27:31.920848
258  2023-11-09 10:27:31.966692
259  2023-11-09 10:27:32.014485
260  2023-11-09 10:27:32.046468
261  2023-11-09 10:27:32.094384
262  2023-11-09 10:27:32.126295
263  2023-11-09 10:27:32.174278
264  2023-11-09 10:27:32.222038
265  2023-11-09 10:27:32.253956
266  2023-11-09 10:27:32.301869
267  2023-11-09 10:27:32.332786
268  2023-11-09 10:27:32.379055
269  2023-11-09 10:27:32.427018
270  2023-11-09 10:27:32.458958
271  2023-11-09 10:27:32.504457
272  2023-11-09 10:27:32.552346
273  2023-11-09 10:27:32.584253
274  2023-11-09 10:27:32.632130
275  2023-11-09 10:27:32.679960
276  2023-11-09 10:27:32.711874
277  2023-11-09 10:27:32.759775
278  2023-11-09 10:27:32.791661
279  2023-11-09 10:27:32.839626
280  2023-11-09 10:27:32.885677
281  2023-11-09 10:27:32.917560
282  2023-11-09 10:27:32.965432
283  2023-11-09 10:27:33.012132
284  2023-11-09 10:27:33.044047
285  2023-11-09 10:27:33.091919
286  2023-11-09 10:27:33.139791
287  2023-11-09 10:27:33.170708
288  2023-11-09 10:27:33.218580
289  2023-11-09 10:27:33.250495
290  2023-11-09 10:27:33.298375
291  2023-11-09 10:27:33.346239
292  2023-11-09 10:27:33.378278
293  2023-11-09 10:27:33.426066
294  2023-11-09 10:27:33.457984
295  2023-11-09 10:27:33.505812
296  2023-11-09 10:27:33.553730
297  2023-11-09 10:27:33.585599
298  2023-11-09 10:27:33.632822
299  2023-11-09 10:27:33.680740
300  2023-11-09 10:27:33.712654
301  2023-11-09 10:27:33.760557
302  2023-11-09 10:27:33.792471
303  2023-11-09 10:27:33.840313
304  2023-11-09 10:27:33.888232
305  2023-11-09 10:27:33.920133
306  2023-11-09 10:27:33.967972
307  2023-11-09 10:27:34.014007
308  2023-11-09 10:27:34.045798
309  2023-11-09 10:27:34.093672
310  2023-11-09 10:27:34.125550
311  2023-11-09 10:27:34.173457
312  2023-11-09 10:27:34.220329
313  2023-11-09 10:27:34.252249
314  2023-11-09 10:27:34.299086
315  2023-11-09 10:27:34.346995
316  2023-11-09 10:27:34.378915
317  2023-11-09 10:27:34.426745
318  2023-11-09 10:27:34.458662
319  2023-11-09 10:27:34.506567
320  2023-11-09 10:27:34.554406
321  2023-11-09 10:27:34.586325
322  2023-11-09 10:27:34.634191
323  2023-11-09 10:27:34.680103
324  2023-11-09 10:27:34.710985
325  2023-11-09 10:27:34.757911
326  2023-11-09 10:27:34.805737
327  2023-11-09 10:27:34.837678
328  2023-11-09 10:27:34.884558
329  2023-11-09 10:27:34.916480
330  2023-11-09 10:27:34.964333
331  2023-11-09 10:27:35.012207
332  2023-11-09 10:27:35.044222
333  2023-11-09 10:27:35.092153
334  2023-11-09 10:27:35.139082
335  2023-11-09 10:27:35.169999
336  2023-11-09 10:27:35.217871
337  2023-11-09 10:27:35.249786
338  2023-11-09 10:27:35.297658
339  2023-11-09 10:27:35.345530
340  2023-11-09 10:27:35.376447
341  2023-11-09 10:27:35.424353
342  2023-11-09 10:27:35.472191
343  2023-11-09 10:27:35.503108
344  2023-11-09 10:27:35.550007
345  2023-11-09 10:27:35.597855
346  2023-11-09 10:27:35.629770
347  2023-11-09 10:27:35.676686
348  2023-11-09 10:27:35.722522
349  2023-11-09 10:27:35.753439
350  2023-11-09 10:27:35.800345
351  2023-11-09 10:27:35.847214
352  2023-11-09 10:27:35.878138
353  2023-11-09 10:27:35.925015
354  2023-11-09 10:27:35.970892
355  2023-11-09 10:27:36.001821
356  2023-11-09 10:27:36.048785
357  2023-11-09 10:27:36.096341
358  2023-11-09 10:27:36.128182
359  2023-11-09 10:27:36.176017
360  2023-11-09 10:27:36.207931
361  2023-11-09 10:27:36.255846
362  2023-11-09 10:27:36.303675
363  2023-11-09 10:27:36.335720
364  2023-11-09 10:27:36.382466
365  2023-11-09 10:27:36.429374
366  2023-11-09 10:27:36.460282
367  2023-11-09 10:27:36.507139
368  2023-11-09 10:27:36.555102
369  2023-11-09 10:27:36.586985
370  2023-11-09 10:27:36.634856
371  2023-11-09 10:27:36.666770
372  2023-11-09 10:27:36.712690
373  2023-11-09 10:27:36.760580
374  2023-11-09 10:27:36.792469
375  2023-11-09 10:27:36.840346
376  2023-11-09 10:27:36.888214
377  2023-11-09 10:27:36.920126
378  2023-11-09 10:27:36.968005
379  2023-11-09 10:27:36.999914
380  2023-11-09 10:27:37.047785
381  2023-11-09 10:27:37.093665
382  2023-11-09 10:27:37.125581
383  2023-11-09 10:27:37.173447
384  2023-11-09 10:27:37.221288
385  2023-11-09 10:27:37.253203
386  2023-11-09 10:27:37.301109
387  2023-11-09 10:27:37.333156
388  2023-11-09 10:27:37.381032
389  2023-11-09 10:27:37.428911
390  2023-11-09 10:27:37.460997
391  2023-11-09 10:27:37.509687
392  2023-11-09 10:27:37.555573
393  2023-11-09 10:27:37.586475
394  2023-11-09 10:27:37.634348
395  2023-11-09 10:27:37.681189
396  2023-11-09 10:27:37.712106
397  2023-11-09 10:27:37.759014
398  2023-11-09 10:27:37.817824
399  2023-11-09 10:27:37.836773
400  2023-11-09 10:27:37.883677
401  2023-11-09 10:27:37.930522
402  2023-11-09 10:27:37.960443
403  2023-11-09 10:27:38.008317
404  2023-11-09 10:27:38.055189
405  2023-11-09 10:27:38.086136
406  2023-11-09 10:27:38.133009
407  2023-11-09 10:27:38.180853
408  2023-11-09 10:27:38.212768
409  2023-11-09 10:27:38.259643
410  2023-11-09 10:27:38.305564
411  2023-11-09 10:27:38.337199
412  2023-11-09 10:27:38.385106
413  2023-11-09 10:27:38.417015
414  2023-11-09 10:27:38.463907
415  2023-11-09 10:27:38.510735
416  2023-11-09 10:27:38.542649
417  2023-11-09 10:27:38.590560
418  2023-11-09 10:27:38.638393
419  2023-11-09 10:27:38.670308
420  2023-11-09 10:27:38.718220
421  2023-11-09 10:27:38.749805
422  2023-11-09 10:27:38.797664
423  2023-11-09 10:27:38.845502
424  2023-11-09 10:27:38.877431
425  2023-11-09 10:27:38.925373
426  2023-11-09 10:27:38.972244
427  2023-11-09 10:27:39.004128
428  2023-11-09 10:27:39.052051
429  2023-11-09 10:27:39.097878
430  2023-11-09 10:27:39.129793
431  2023-11-09 10:27:39.177665
432  2023-11-09 10:27:39.209625
433  2023-11-09 10:27:39.257451
434  2023-11-09 10:27:39.305357
435  2023-11-09 10:27:39.337262
436  2023-11-09 10:27:39.385110
437  2023-11-09 10:27:39.417027
438  2023-11-09 10:27:39.464897
439  2023-11-09 10:27:39.512809
440  2023-11-09 10:27:39.544797
441  2023-11-09 10:27:39.592715
442  2023-11-09 10:27:39.624629
443  2023-11-09 10:27:39.672540
444  2023-11-09 10:27:39.720373
445  2023-11-09 10:27:39.752288
446  2023-11-09 10:27:39.800160
447  2023-11-09 10:27:39.848033
448  2023-11-09 10:27:39.879979
449  2023-11-09 10:27:39.927819
450  2023-11-09 10:27:39.959734
451  2023-11-09 10:27:40.007616
452  2023-11-09 10:27:40.055478
453  2023-11-09 10:27:40.087392
454  2023-11-09 10:27:40.133317
455  2023-11-09 10:27:40.181181
456  2023-11-09 10:27:40.212059
457  2023-11-09 10:27:40.258925
458  2023-11-09 10:27:40.305933
459  2023-11-09 10:27:40.335852
460  2023-11-09 10:27:40.383142
461  2023-11-09 10:27:40.430115
462  2023-11-09 10:27:40.460038
463  2023-11-09 10:27:40.506910
464  2023-11-09 10:27:40.554751
465  2023-11-09 10:27:40.586721
466  2023-11-09 10:27:40.634538
467  2023-11-09 10:27:40.666453
468  2023-11-09 10:27:40.714358
469  2023-11-09 10:27:40.761199
470  2023-11-09 10:27:40.793114
471  2023-11-09 10:27:40.841029
472  2023-11-09 10:27:40.888858
473  2023-11-09 10:27:40.920773
474  2023-11-09 10:27:40.968645
475  2023-11-09 10:27:41.000559
476  2023-11-09 10:27:41.047435
477  2023-11-09 10:27:41.094309
478  2023-11-09 10:27:41.125226
479  2023-11-09 10:27:41.173098
480  2023-11-09 10:27:41.220180
481  2023-11-09 10:27:41.250927
482  2023-11-09 10:27:41.298795
483  2023-11-09 10:27:41.346671
484  2023-11-09 10:27:41.378594
485  2023-11-09 10:27:41.426458
486  2023-11-09 10:27:41.458337
487  2023-11-09 10:27:41.506240
488  2023-11-09 10:27:41.554374
489  2023-11-09 10:27:41.586112
490  2023-11-09 10:27:41.631991
491  2023-11-09 10:27:41.678864
492  2023-11-09 10:27:41.710773
493  2023-11-09 10:27:41.758660
494  2023-11-09 10:27:41.804714
495  2023-11-09 10:27:41.835631
496  2023-11-09 10:27:41.881541
497  2023-11-09 10:27:41.928383
498  2023-11-09 10:27:41.960298
499  2023-11-09 10:27:42.008171
500  2023-11-09 10:27:42.056044
501  2023-11-09 10:27:42.087956
502  2023-11-09 10:27:42.133861
503  2023-11-09 10:27:42.179752
504  2023-11-09 10:27:42.211662
505  2023-11-09 10:27:42.259540
506  2023-11-09 10:27:42.291444
507  2023-11-09 10:27:42.339318
508  2023-11-09 10:27:42.387198
509  2023-11-09 10:27:42.419107
510  2023-11-09 10:27:42.466983
511  2023-11-09 10:27:42.514848
512  2023-11-09 10:27:42.546772
513  2023-11-09 10:27:42.594634
514  2023-11-09 10:27:42.626550
515  2023-11-09 10:27:42.674388
516  2023-11-09 10:27:42.722295
517  2023-11-09 10:27:42.754210
518  2023-11-09 10:27:42.802082
519  2023-11-09 10:27:42.833962
520  2023-11-09 10:27:42.881875
521  2023-11-09 10:27:42.929788
522  2023-11-09 10:27:42.961708
523  2023-11-09 10:27:43.009573
524  2023-11-09 10:27:43.055453
525  2023-11-09 10:27:43.087364
526  2023-11-09 10:27:43.135380
527  2023-11-09 10:27:43.167297
528  2023-11-09 10:27:43.215176
529  2023-11-09 10:27:43.263041
530  2023-11-09 10:27:43.293964
531  2023-11-09 10:27:43.341830
532  2023-11-09 10:27:43.389703
533  2023-11-09 10:27:43.421713
534  2023-11-09 10:27:43.469652
535  2023-11-09 10:27:43.501567
536  2023-11-09 10:27:43.549492
537  2023-11-09 10:27:43.596316
538  2023-11-09 10:27:43.627230
539  2023-11-09 10:27:43.673197
540  2023-11-09 10:27:43.720229
541  2023-11-09 10:27:43.752144
542  2023-11-09 10:27:43.800172
543  2023-11-09 10:27:43.848045
544  2023-11-09 10:27:43.878992
545  2023-11-09 10:27:43.925836
546  2023-11-09 10:27:43.957873
547  2023-11-09 10:27:44.005745
548  2023-11-09 10:27:44.053617
549  2023-11-09 10:27:44.085533
550  2023-11-09 10:27:44.133405
551  2023-11-09 10:27:44.181277
552  2023-11-09 10:27:44.213192
553  2023-11-09 10:27:44.261062
554  2023-11-09 10:27:44.291938
555  2023-11-09 10:27:44.339906
556  2023-11-09 10:27:44.387778
557  2023-11-09 10:27:44.419690
558  2023-11-09 10:27:44.467557
559  2023-11-09 10:27:44.513441
560  2023-11-09 10:27:44.545379
561  2023-11-09 10:27:44.591289
562  2023-11-09 10:27:44.638166
563  2023-11-09 10:27:44.670082
564  2023-11-09 10:27:44.717954
565  2023-11-09 10:27:44.764793
566  2023-11-09 10:27:44.796854
567  2023-11-09 10:27:44.844651
568  2023-11-09 10:27:44.876564
569  2023-11-09 10:27:44.924471
570  2023-11-09 10:27:44.970313
571  2023-11-09 10:27:45.002228
572  2023-11-09 10:27:45.048140
573  2023-11-09 10:27:45.095977
574  2023-11-09 10:27:45.127892
575  2023-11-09 10:27:45.175764
576  2023-11-09 10:27:45.207710
577  2023-11-09 10:27:45.254683
578  2023-11-09 10:27:45.301596
579  2023-11-09 10:27:45.333619
580  2023-11-09 10:27:45.381450
581  2023-11-09 10:27:45.429322
582  2023-11-09 10:27:45.461236
583  2023-11-09 10:27:45.509133
584  2023-11-09 10:27:45.541048
585  2023-11-09 10:27:45.586925
586  2023-11-09 10:27:45.634959
587  2023-11-09 10:27:45.666545
588  2023-11-09 10:27:45.712966
589  2023-11-09 10:27:45.760812
590  2023-11-09 10:27:45.792831
591  2023-11-09 10:27:45.838843
592  2023-11-09 10:27:45.886718
593  2023-11-09 10:27:45.918637
594  2023-11-09 10:27:45.966503
595  2023-11-09 10:27:46.014453
596  2023-11-09 10:27:46.046530
597  2023-11-09 10:27:46.092532
598  2023-11-09 10:27:46.124436
599  2023-11-09 10:27:46.171350
600  2023-11-09 10:27:46.219342
601  2023-11-09 10:27:46.251249
602  2023-11-09 10:27:46.299087
603  2023-11-09 10:27:46.347076
604  2023-11-09 10:27:46.378995
605  2023-11-09 10:27:46.426828
606  2023-11-09 10:27:46.459767
607  2023-11-09 10:27:46.506276
608  2023-11-09 10:27:46.554144
609  2023-11-09 10:27:46.586076
610  2023-11-09 10:27:46.633900
611  2023-11-09 10:27:46.679779
612  2023-11-09 10:27:46.710696
613  2023-11-09 10:27:46.757632
614  2023-11-09 10:27:46.805536
615  2023-11-09 10:27:46.837420
616  2023-11-09 10:27:46.885291
617  2023-11-09 10:27:46.917205
618  2023-11-09 10:27:46.965077
619  2023-11-09 10:27:47.013235
620  2023-11-09 10:27:47.044036
621  2023-11-09 10:27:47.090936
622  2023-11-09 10:27:47.138901
623  2023-11-09 10:27:47.170805
624  2023-11-09 10:27:47.218727
625  2023-11-09 10:27:47.250642
626  2023-11-09 10:27:47.298010
627  2023-11-09 10:27:47.345914
628  2023-11-09 10:27:47.377841
629  2023-11-09 10:27:47.425743
630  2023-11-09 10:27:47.457804
631  2023-11-09 10:27:47.505681
632  2023-11-09 10:27:47.553621
633  2023-11-09 10:27:47.585616
634  2023-11-09 10:27:47.633538
635  2023-11-09 10:27:47.679413
636  2023-11-09 10:27:47.711333
637  2023-11-09 10:27:47.759211
638  2023-11-09 10:27:47.791121
639  2023-11-09 10:27:47.838991
640  2023-11-09 10:27:47.886873
641  2023-11-09 10:27:47.918782
642  2023-11-09 10:27:47.966652
643  2023-11-09 10:27:48.014607
644  2023-11-09 10:27:48.046021
645  2023-11-09 10:27:48.093900
646  2023-11-09 10:27:48.125897
647  2023-11-09 10:27:48.173804
648  2023-11-09 10:27:48.221688
649  2023-11-09 10:27:48.253603
650  2023-11-09 10:27:48.301462
651  2023-11-09 10:27:48.333341
652  2023-11-09 10:27:48.379284
653  2023-11-09 10:27:48.427226
654  2023-11-09 10:27:48.459037
655  2023-11-09 10:27:48.506877
656  2023-11-09 10:27:48.554796
657  2023-11-09 10:27:48.586665
658  2023-11-09 10:27:48.634574
659  2023-11-09 10:27:48.666663
660  2023-11-09 10:27:48.714536
661  2023-11-09 10:27:48.762403
662  2023-11-09 10:27:48.794404
663  2023-11-09 10:27:48.842267
664  2023-11-09 10:27:48.889106
665  2023-11-09 10:27:48.920077
666  2023-11-09 10:27:48.967949
667  2023-11-09 10:27:48.999863
668  2023-11-09 10:27:49.045893
669  2023-11-09 10:27:49.093732
670  2023-11-09 10:27:49.125087
671  2023-11-09 10:27:49.172960
672  2023-11-09 10:27:49.219834
673  2023-11-09 10:27:49.250751
674  2023-11-09 10:27:49.298664
675  2023-11-09 10:27:49.346390
676  2023-11-09 10:27:49.378305
677  2023-11-09 10:27:49.426209
678  2023-11-09 10:27:49.458265
679  2023-11-09 10:27:49.504966
680  2023-11-09 10:27:49.552881
681  2023-11-09 10:27:49.584834
682  2023-11-09 10:27:49.632741
683  2023-11-09 10:27:49.678623
684  2023-11-09 10:27:49.710538
685  2023-11-09 10:27:49.758411
686  2023-11-09 10:27:49.806277
687  2023-11-09 10:27:49.838197
688  2023-11-09 10:27:49.886065
689  2023-11-09 10:27:49.917984
690  2023-11-09 10:27:49.965850
691  2023-11-09 10:27:50.012726
692  2023-11-09 10:27:50.043643
693  2023-11-09 10:27:50.091514
694  2023-11-09 10:27:50.138391
695  2023-11-09 10:27:50.169523
696  2023-11-09 10:27:50.217576
697  2023-11-09 10:27:50.249493
698  2023-11-09 10:27:50.297360
699  2023-11-09 10:27:50.345155
700  2023-11-09 10:27:50.376101
701  2023-11-09 10:27:50.423944
702  2023-11-09 10:27:50.472849
703  2023-11-09 10:27:50.504729
704  2023-11-09 10:27:50.551604
705  2023-11-09 10:27:50.584554
706  2023-11-09 10:27:50.631389
707  2023-11-09 10:27:50.677400
708  2023-11-09 10:27:50.709283
709  2023-11-09 10:27:50.757155
710  2023-11-09 10:27:50.805027
711  2023-11-09 10:27:50.836946
712  2023-11-09 10:27:50.883817
713  2023-11-09 10:27:50.929503
714  2023-11-09 10:27:50.961111
715  2023-11-09 10:27:51.008027
716  2023-11-09 10:27:51.055041
717  2023-11-09 10:27:51.086905
718  2023-11-09 10:27:51.133725
719  2023-11-09 10:27:51.180287
720  2023-11-09 10:27:51.212286
721  2023-11-09 10:27:51.260124
722  2023-11-09 10:27:51.292039
723  2023-11-09 10:27:51.339943
724  2023-11-09 10:27:51.387904
725  2023-11-09 10:27:51.419856
726  2023-11-09 10:27:51.467723
727  2023-11-09 10:27:51.499641
728  2023-11-09 10:27:51.545565
729  2023-11-09 10:27:51.592464
730  2023-11-09 10:27:51.639292
731  2023-11-09 10:27:51.671246
732  2023-11-09 10:27:51.719122
733  2023-11-09 10:27:51.750992
734  2023-11-09 10:27:51.798864
735  2023-11-09 10:27:51.846770
736  2023-11-09 10:27:51.878651
737  2023-11-09 10:27:51.926713
738  2023-11-09 10:27:51.958513
739  2023-11-09 10:27:52.006419
740  2023-11-09 10:27:52.053904
741  2023-11-09 10:27:52.085752
742  2023-11-09 10:27:52.133625
743  2023-11-09 10:27:52.180498
744  2023-11-09 10:27:52.211415
745  2023-11-09 10:27:52.257545
746  2023-11-09 10:27:52.304457
747  2023-11-09 10:27:52.336372
748  2023-11-09 10:27:52.383739
749  2023-11-09 10:27:52.429657
750  2023-11-09 10:27:52.460535
751  2023-11-09 10:27:52.507445
752  2023-11-09 10:27:52.555319
753  2023-11-09 10:27:52.587232
754  2023-11-09 10:27:52.635103
755  2023-11-09 10:27:52.667017
756  2023-11-09 10:27:52.714858
757  2023-11-09 10:27:52.762762
758  2023-11-09 10:27:52.794695
759  2023-11-09 10:27:52.872434
760  2023-11-09 10:27:52.923298
761  2023-11-09 10:27:53.012061
762  2023-11-09 10:27:53.019042
763  2023-11-09 10:27:53.060930
764  2023-11-09 10:27:53.107804
765  2023-11-09 10:27:53.155677
766  2023-11-09 10:27:53.203547
767  2023-11-09 10:27:53.251419
768  2023-11-09 10:27:53.299291
769  2023-11-09 10:27:53.347165
770  2023-11-09 10:27:53.395035
771  2023-11-09 10:27:53.441910
772  2023-11-09 10:27:53.488818
773  2023-11-09 10:27:53.536656
774  2023-11-09 10:27:53.584529
775  2023-11-09 10:27:53.630438
776  2023-11-09 10:27:53.678352
777  2023-11-09 10:27:53.726225
778  2023-11-09 10:27:53.774148
779  2023-11-09 10:27:53.820075
780  2023-11-09 10:27:53.867947
781  2023-11-09 10:27:53.915992
782  2023-11-09 10:27:53.963641
783  2023-11-09 10:27:54.009562
784  2023-11-09 10:27:54.057432
785  2023-11-09 10:27:54.105301
786  2023-11-09 10:27:54.153172
787  2023-11-09 10:27:54.201043
788  2023-11-09 10:27:54.248917
789  2023-11-09 10:27:54.296782
790  2023-11-09 10:27:54.344625
791  2023-11-09 10:27:54.392528
792  2023-11-09 10:27:54.441426
793  2023-11-09 10:27:54.488279
794  2023-11-09 10:27:54.536149
795  2023-11-09 10:27:54.583021
796  2023-11-09 10:27:54.629892
797  2023-11-09 10:27:54.677734
798  2023-11-09 10:27:54.724607
799  2023-11-09 10:27:54.772480
800  2023-11-09 10:27:54.820351
801  2023-11-09 10:27:54.868223
802  2023-11-09 10:27:54.916095
803  2023-11-09 10:27:54.962970
804  2023-11-09 10:27:55.009845
805  2023-11-09 10:27:55.057756
806  2023-11-09 10:27:55.103716
807  2023-11-09 10:27:55.151627
808  2023-11-09 10:27:55.199459
809  2023-11-09 10:27:55.247119
810  2023-11-09 10:27:55.295090
811  2023-11-09 10:27:55.342904
812  2023-11-09 10:27:55.390858
813  2023-11-09 10:27:55.438817
814  2023-11-09 10:27:55.486730
815  2023-11-09 10:27:55.534561
816  2023-11-09 10:27:55.582473
817  2023-11-09 10:27:55.630339
818  2023-11-09 10:27:55.678177
819  2023-11-09 10:27:55.726097
820  2023-11-09 10:27:55.773921
821  2023-11-09 10:27:55.821839
822  2023-11-09 10:27:55.869763
823  2023-11-09 10:27:55.917511
824  2023-11-09 10:27:55.965381
825  2023-11-09 10:27:56.013291
826  2023-11-09 10:27:56.061172
827  2023-11-09 10:27:56.108997
828  2023-11-09 10:27:56.156661
829  2023-11-09 10:27:56.204468
830  2023-11-09 10:27:56.252358
831  2023-11-09 10:27:56.300232
832  2023-11-09 10:27:56.348199
833  2023-11-09 10:27:56.396018
834  2023-11-09 10:27:56.443888
835  2023-11-09 10:27:56.489799
836  2023-11-09 10:27:56.537811
837  2023-11-09 10:27:56.585510
838  2023-11-09 10:27:56.633420
839  2023-11-09 10:27:56.680292
840  2023-11-09 10:27:56.727172
841  2023-11-09 10:27:56.775040
842  2023-11-09 10:27:56.822875
843  2023-11-09 10:27:56.870777
844  2023-11-09 10:27:56.918650
845  2023-11-09 10:27:56.965372
846  2023-11-09 10:27:57.013292
847  2023-11-09 10:27:57.061153
848  2023-11-09 10:27:57.109152
849  2023-11-09 10:27:57.157056
850  2023-11-09 10:27:57.204933
851  2023-11-09 10:27:57.251803
852  2023-11-09 10:27:57.299643
853  2023-11-09 10:27:57.346518
854  2023-11-09 10:27:57.393426
855  2023-11-09 10:27:57.441265
856  2023-11-09 10:27:57.488179
857  2023-11-09 10:27:57.536043
858  2023-11-09 10:27:57.583531
859  2023-11-09 10:27:57.630496
860  2023-11-09 10:27:57.677327
861  2023-11-09 10:27:57.725242
862  2023-11-09 10:27:57.771112
863  2023-11-09 10:27:57.816993
864  2023-11-09 10:27:57.864874
865  2023-11-09 10:27:57.912731
866  2023-11-09 10:27:57.960615
867  2023-11-09 10:27:58.006487
868  2023-11-09 10:27:58.054319
869  2023-11-09 10:27:58.102222
870  2023-11-09 10:27:58.150063
871  2023-11-09 10:27:58.197968
872  2023-11-09 10:27:58.245808
873  2023-11-09 10:27:58.292623
874  2023-11-09 10:27:58.339569
875  2023-11-09 10:27:58.386401
876  2023-11-09 10:27:58.434307
877  2023-11-09 10:27:58.482145
878  2023-11-09 10:27:58.530018
879  2023-11-09 10:27:58.576892
880  2023-11-09 10:27:58.623807
881  2023-11-09 10:27:58.671753
882  2023-11-09 10:27:58.719665
883  2023-11-09 10:27:58.767497
884  2023-11-09 10:27:58.815493
885  2023-11-09 10:27:58.863291
886  2023-11-09 10:27:58.911113
887  2023-11-09 10:27:58.959018
888  2023-11-09 10:27:59.006980
889  2023-11-09 10:27:59.054891
890  2023-11-09 10:27:59.102724
891  2023-11-09 10:27:59.149929
892  2023-11-09 10:27:59.196858
893  2023-11-09 10:27:59.243730
894  2023-11-09 10:27:59.290640
895  2023-11-09 10:27:59.337514
896  2023-11-09 10:27:59.385382
897  2023-11-09 10:27:59.433224
898  2023-11-09 10:27:59.479139
899  2023-11-09 10:27:59.527007
900  2023-11-09 10:27:59.573872
901  2023-11-09 10:27:59.620723
902  2023-11-09 10:27:59.668595
903  2023-11-09 10:27:59.715502
904  2023-11-09 10:27:59.762381
905  2023-11-09 10:27:59.810266
906  2023-11-09 10:27:59.858120
907  2023-11-09 10:27:59.905960
908  2023-11-09 10:27:59.953875
909  2023-11-09 10:28:00.001738
910  2023-11-09 10:28:00.049576
911  2023-11-09 10:28:00.098523
912  2023-11-09 10:28:00.145489
913  2023-11-09 10:28:00.194419
914  2023-11-09 10:28:00.240237
915  2023-11-09 10:28:00.287159
916  2023-11-09 10:28:00.334983
917  2023-11-09 10:28:00.382855
918  2023-11-09 10:28:00.430764
919  2023-11-09 10:28:00.478599
920  2023-11-09 10:28:00.526512
921  2023-11-09 10:28:00.574343
922  2023-11-09 10:28:00.620255
923  2023-11-09 10:28:00.668092
924  2023-11-09 10:28:00.715997
925  2023-11-09 10:28:00.763836
926  2023-11-09 10:28:00.811708
927  2023-11-09 10:28:00.859615
928  2023-11-09 10:28:00.907452
929  2023-11-09 10:28:00.955363
930  2023-11-09 10:28:01.003196
931  2023-11-09 10:28:01.051103
932  2023-11-09 10:28:01.097943
933  2023-11-09 10:28:01.144869
934  2023-11-09 10:28:01.192690
935  2023-11-09 10:28:01.238624
936  2023-11-09 10:28:01.286439
937  2023-11-09 10:28:01.334345
938  2023-11-09 10:28:01.382184
939  2023-11-09 10:28:01.430093
940  2023-11-09 10:28:01.476962
941  2023-11-09 10:28:01.523840
942  2023-11-09 10:28:01.571676
943  2023-11-09 10:28:01.619549
944  2023-11-09 10:28:01.667455
945  2023-11-09 10:28:01.715325
946  2023-11-09 10:28:01.763202
947  2023-11-09 10:28:01.809076
948  2023-11-09 10:28:01.855952
949  2023-11-09 10:28:01.903789
950  2023-11-09 10:28:01.951694
951  2023-11-09 10:28:01.999550
952  2023-11-09 10:28:02.047260
953  2023-11-09 10:28:02.095172
954  2023-11-09 10:28:02.143004
955  2023-11-09 10:28:02.190911
956  2023-11-09 10:28:02.237751
957  2023-11-09 10:28:02.285657
958  2023-11-09 10:28:02.333495
959  2023-11-09 10:28:02.379403
960  2023-11-09 10:28:02.427276
961  2023-11-09 10:28:02.475116
962  2023-11-09 10:28:02.523021
963  2023-11-09 10:28:02.570932
964  2023-11-09 10:28:02.618835
965  2023-11-09 10:28:02.666676
966  2023-11-09 10:28:02.714587
967  2023-11-09 10:28:02.760524
968  2023-11-09 10:28:02.808395
969  2023-11-09 10:28:02.856269
970  2023-11-09 10:28:02.904140
971  2023-11-09 10:28:02.952013
972  2023-11-09 10:28:02.999884
973  2023-11-09 10:28:03.047756
974  2023-11-09 10:28:03.095628
975  2023-11-09 10:28:03.143530
976  2023-11-09 10:28:03.191406
977  2023-11-09 10:28:03.239244
978  2023-11-09 10:28:03.286151
979  2023-11-09 10:28:03.333027
980  2023-11-09 10:28:03.380897
981  2023-11-09 10:28:03.428771
982  2023-11-09 10:28:03.476641
983  2023-11-09 10:28:03.522570
984  2023-11-09 10:28:03.570469
985  2023-11-09 10:28:03.618374
986  2023-11-09 10:28:03.665246
987  2023-11-09 10:28:03.712091
988  2023-11-09 10:28:03.759016
989  2023-11-09 10:28:03.805840
990  2023-11-09 10:28:03.853746
991  2023-11-09 10:28:03.901584
992  2023-11-09 10:28:03.949486
993  2023-11-09 10:28:03.995367
994  2023-11-09 10:28:04.042950
995  2023-11-09 10:28:04.090835
996  2023-11-09 10:28:04.138694
997  2023-11-09 10:28:04.186615
998  2023-11-09 10:28:04.231446
999  2023-11-09 10:28:04.279356
1000  2023-11-09 10:28:04.327312
1001  2023-11-09 10:28:04.375184
1002  2023-11-09 10:28:04.423090
1003  2023-11-09 10:28:04.470928
1004  2023-11-09 10:28:04.518831
1005  2023-11-09 10:28:04.566672
1006  2023-11-09 10:28:04.614544
1007  2023-11-09 10:28:04.662416
1008  2023-11-09 10:28:04.710321
1009  2023-11-09 10:28:04.758192
1010  2023-11-09 10:28:04.806032
1011  2023-11-09 10:28:04.853904
1012  2023-11-09 10:28:04.899818
1013  2023-11-09 10:28:04.947690
1014  2023-11-09 10:28:04.994686
1015  2023-11-09 10:28:05.041403
1016  2023-11-09 10:28:05.089308
1017  2023-11-09 10:28:05.137181
1018  2023-11-09 10:28:05.184055
1019  2023-11-09 10:28:05.231929
1020  2023-11-09 10:28:05.278772
1021  2023-11-09 10:28:05.325697
1022  2023-11-09 10:28:05.374543
1023  2023-11-09 10:28:05.421419
1024  2023-11-09 10:28:05.469259
1025  2023-11-09 10:28:05.517164
1026  2023-11-09 10:28:05.564006
1027  2023-11-09 10:28:05.609883
1028  2023-11-09 10:28:05.656790
1029  2023-11-09 10:28:05.704630
1030  2023-11-09 10:28:05.752535
1031  2023-11-09 10:28:05.800374
1032  2023-11-09 10:28:05.848280
1033  2023-11-09 10:28:05.896118
1034  2023-11-09 10:28:05.943990
1035  2023-11-09 10:28:05.991862
1036  2023-11-09 10:28:06.039734
1037  2023-11-09 10:28:06.085699
1038  2023-11-09 10:28:06.133554
1039  2023-11-09 10:28:06.181411
1040  2023-11-09 10:28:06.229321
1041  2023-11-09 10:28:06.276287
1042  2023-11-09 10:28:06.322799
1043  2023-11-09 10:28:06.370758
1044  2023-11-09 10:28:06.418630
1045  2023-11-09 10:28:06.464507
1046  2023-11-09 10:28:06.511349
1047  2023-11-09 10:28:06.559253
1048  2023-11-09 10:28:06.607134
1049  2023-11-09 10:28:06.655004
1050  2023-11-09 10:28:06.702887
1051  2023-11-09 10:28:06.750741
1052  2023-11-09 10:28:06.798611
1053  2023-11-09 10:28:06.845487
1054  2023-11-09 10:28:06.893329
1055  2023-11-09 10:28:06.941237
1056  2023-11-09 10:28:06.987368
1057  2023-11-09 10:28:07.035207
1058  2023-11-09 10:28:07.083110
1059  2023-11-09 10:28:07.130951
1060  2023-11-09 10:28:07.178823
1061  2023-11-09 10:28:07.226696
1062  2023-11-09 10:28:07.274567
1063  2023-11-09 10:28:07.322486
1064  2023-11-09 10:28:07.370311
1065  2023-11-09 10:28:07.419182
1066  2023-11-09 10:28:07.466055
1067  2023-11-09 10:28:07.513974
1068  2023-11-09 10:28:07.561834
1069  2023-11-09 10:28:07.607792
1070  2023-11-09 10:28:07.655396
1071  2023-11-09 10:28:07.703300
1072  2023-11-09 10:28:07.751168
1073  2023-11-09 10:28:07.799040
1074  2023-11-09 10:28:07.846912
1075  2023-11-09 10:28:07.894784
1076  2023-11-09 10:28:07.942657
1077  2023-11-09 10:28:07.990529
1078  2023-11-09 10:28:08.038401
1079  2023-11-09 10:28:08.086388
1080  2023-11-09 10:28:08.134145
1081  2023-11-09 10:28:08.182121
1082  2023-11-09 10:28:08.228008
1083  2023-11-09 10:28:08.275885
1084  2023-11-09 10:28:08.323821
1085  2023-11-09 10:28:08.371685
1086  2023-11-09 10:28:08.419563
1087  2023-11-09 10:28:08.467430
1088  2023-11-09 10:28:08.514273
1089  2023-11-09 10:28:08.561184
1090  2023-11-09 10:28:08.609055
1091  2023-11-09 10:28:08.656926
1092  2023-11-09 10:28:08.704797
1093  2023-11-09 10:28:08.752668
1094  2023-11-09 10:28:08.800540
1095  2023-11-09 10:28:08.846545
1096  2023-11-09 10:28:08.894416
1097  2023-11-09 10:28:08.941300
1098  2023-11-09 10:28:08.988164
1099  2023-11-09 10:28:09.036386
1100  2023-11-09 10:28:09.084347
1101  2023-11-09 10:28:09.132403
1102  2023-11-09 10:28:09.180343
1103  2023-11-09 10:28:09.230236
1104  2023-11-09 10:28:09.276113
1105  2023-11-09 10:28:09.321006
1106  2023-11-09 10:28:09.368943
1107  2023-11-09 10:28:09.416849
1108  2023-11-09 10:28:09.463690
1109  2023-11-09 10:28:09.510599
1110  2023-11-09 10:28:09.558467
1111  2023-11-09 10:28:09.606348
1112  2023-11-09 10:28:09.654256
1113  2023-11-09 10:28:09.702092
1114  2023-11-09 10:28:09.747982
1115  2023-11-09 10:28:09.795842
1116  2023-11-09 10:28:09.843994
1117  2023-11-09 10:28:09.891629
1118  2023-11-09 10:28:09.939427
1119  2023-11-09 10:28:09.985302
1120  2023-11-09 10:28:10.033180
1121  2023-11-09 10:28:10.079141
1122  2023-11-09 10:28:10.126571
1123  2023-11-09 10:28:10.174509
1124  2023-11-09 10:28:10.222525
1125  2023-11-09 10:28:10.270401
1126  2023-11-09 10:28:10.318323
1127  2023-11-09 10:28:10.365158
1128  2023-11-09 10:28:10.413055
1129  2023-11-09 10:28:10.460929
1130  2023-11-09 10:28:10.508809
1131  2023-11-09 10:28:10.557790
1132  2023-11-09 10:28:10.604654
1133  2023-11-09 10:28:10.652628
1134  2023-11-09 10:28:10.700466
1135  2023-11-09 10:28:10.747485
1136  2023-11-09 10:28:10.795479
1137  2023-11-09 10:28:10.843335
1138  2023-11-09 10:28:10.891316
1139  2023-11-09 10:28:10.939199
1140  2023-11-09 10:28:10.986071
1141  2023-11-09 10:28:11.033470
1142  2023-11-09 10:28:11.081368
1143  2023-11-09 10:28:11.129251
1144  2023-11-09 10:28:11.177167
1145  2023-11-09 10:28:11.225070
1146  2023-11-09 10:28:11.271911
1147  2023-11-09 10:28:11.318819
1148  2023-11-09 10:28:11.366658
1149  2023-11-09 10:28:11.413586
1150  2023-11-09 10:28:11.460407
1151  2023-11-09 10:28:11.508279
1152  2023-11-09 10:28:11.554277
1153  2023-11-09 10:28:11.602152
1154  2023-11-09 10:28:11.650074
1155  2023-11-09 10:28:11.698106
1156  2023-11-09 10:28:11.744946
1157  2023-11-09 10:28:11.791859
1158  2023-11-09 10:28:11.838730
1159  2023-11-09 10:28:11.884728
1160  2023-11-09 10:28:11.932682
1161  2023-11-09 10:28:11.978631
1162  2023-11-09 10:28:12.027561
1163  2023-11-09 10:28:12.075469
1164  2023-11-09 10:28:12.123397
1165  2023-11-09 10:28:12.170397
1166  2023-11-09 10:28:12.219317
1167  2023-11-09 10:28:12.267190
1168  2023-11-09 10:28:12.314071
1169  2023-11-09 10:28:12.360920
1170  2023-11-09 10:28:12.409787
1171  2023-11-09 10:28:12.456633
1172  2023-11-09 10:28:12.504504
1173  2023-11-09 10:28:12.552423
1174  2023-11-09 10:28:12.600248
1175  2023-11-09 10:28:12.648150
1176  2023-11-09 10:28:12.695998
1177  2023-11-09 10:28:12.741869
1178  2023-11-09 10:28:12.789742
1179  2023-11-09 10:28:12.837613
1180  2023-11-09 10:28:12.885486
1181  2023-11-09 10:28:12.933491
1182  2023-11-09 10:28:12.981229
1183  2023-11-09 10:28:13.028776
1184  2023-11-09 10:28:13.076648
1185  2023-11-09 10:28:13.124520
1186  2023-11-09 10:28:13.172392
1187  2023-11-09 10:28:13.220264
1188  2023-11-09 10:28:13.268183
1189  2023-11-09 10:28:13.316055
1190  2023-11-09 10:28:13.363966
1191  2023-11-09 10:28:13.411987
1192  2023-11-09 10:28:13.458862
1193  2023-11-09 10:28:13.505736
1194  2023-11-09 10:28:13.552122
1195  2023-11-09 10:28:13.599995
1196  2023-11-09 10:28:13.646860
1197  2023-11-09 10:28:13.694809
1198  2023-11-09 10:28:13.742717
1199  2023-11-09 10:28:13.790585
1200  2023-11-09 10:28:13.838465
1201  2023-11-09 10:28:13.886338
1202  2023-11-09 10:28:13.933215
1203  2023-11-09 10:28:13.980048
1204  2023-11-09 10:28:14.028190
1205  2023-11-09 10:28:14.076055
1206  2023-11-09 10:28:14.123927
1207  2023-11-09 10:28:14.171799
1208  2023-11-09 10:28:14.218688
1209  2023-11-09 10:28:14.266541
1210  2023-11-09 10:28:14.314413
1211  2023-11-09 10:28:14.362413
1212  2023-11-09 10:28:14.410245
1213  2023-11-09 10:28:14.459116
1214  2023-11-09 10:28:14.505822
1215  2023-11-09 10:28:14.554799
1216  2023-11-09 10:28:14.601655
1217  2023-11-09 10:28:14.649606
1218  2023-11-09 10:28:14.696502
1219  2023-11-09 10:28:14.744483
1220  2023-11-09 10:28:14.792334
1221  2023-11-09 10:28:14.840293
1222  2023-11-09 10:28:14.887169
1223  2023-11-09 10:28:14.933032
1224  2023-11-09 10:28:14.981041
1225  2023-11-09 10:28:15.026815
1226  2023-11-09 10:28:15.074653
1227  2023-11-09 10:28:15.120569
1228  2023-11-09 10:28:15.167406
1229  2023-11-09 10:28:15.214504
1230  2023-11-09 10:28:15.262415
1231  2023-11-09 10:28:15.309560
1232  2023-11-09 10:28:15.356164
1233  2023-11-09 10:28:15.403997
1234  2023-11-09 10:28:15.451909
1235  2023-11-09 10:28:15.499776
1236  2023-11-09 10:28:15.547646
1237  2023-11-09 10:28:15.595521
1238  2023-11-09 10:28:15.643391
1239  2023-11-09 10:28:15.691264
1240  2023-11-09 10:28:15.739140
1241  2023-11-09 10:28:15.787015
1242  2023-11-09 10:28:15.834052
1243  2023-11-09 10:28:15.880886
1244  2023-11-09 10:28:15.928788
1245  2023-11-09 10:28:15.975664
1246  2023-11-09 10:28:16.023603
1247  2023-11-09 10:28:16.072557
1248  2023-11-09 10:28:16.119426
1249  2023-11-09 10:28:16.167301
1250  2023-11-09 10:28:16.214178
1251  2023-11-09 10:28:16.261016
1252  2023-11-09 10:28:16.307890
1253  2023-11-09 10:28:16.355762
1254  2023-11-09 10:28:16.402637
1255  2023-11-09 10:28:16.449512
1256  2023-11-09 10:28:16.497427
1257  2023-11-09 10:28:16.543536
1258  2023-11-09 10:28:16.591448
1259  2023-11-09 10:28:16.639280
1260  2023-11-09 10:28:16.687187
1261  2023-11-09 10:28:16.734058
1262  2023-11-09 10:28:16.780936
1263  2023-11-09 10:28:16.828810
1264  2023-11-09 10:28:16.876679
1265  2023-11-09 10:28:16.924519
1266  2023-11-09 10:28:16.972389
1267  2023-11-09 10:28:17.019301
1268  2023-11-09 10:28:17.065176
1269  2023-11-09 10:28:17.112016
1270  2023-11-09 10:28:17.158735
1271  2023-11-09 10:28:17.206622
1272  2023-11-09 10:28:17.254480
1273  2023-11-09 10:28:17.302359
1274  2023-11-09 10:28:17.349189
1275  2023-11-09 10:28:17.396063
1276  2023-11-09 10:28:17.442938
1277  2023-11-09 10:28:17.490810
1278  2023-11-09 10:28:17.538682
1279  2023-11-09 10:28:17.586554
1280  2023-11-09 10:28:17.634580
1281  2023-11-09 10:28:17.682413
1282  2023-11-09 10:28:17.730336
1283  2023-11-09 10:28:17.776749
1284  2023-11-09 10:28:17.824664
1285  2023-11-09 10:28:17.872494
1286  2023-11-09 10:28:17.920415
1287  2023-11-09 10:28:17.967853
1288  2023-11-09 10:28:18.015722
1289  2023-11-09 10:28:18.061915
1290  2023-11-09 10:28:18.109917
1291  2023-11-09 10:28:18.157829
1292  2023-11-09 10:28:18.205661
1293  2023-11-09 10:28:18.253585
1294  2023-11-09 10:28:18.301439
1295  2023-11-09 10:28:18.347320
1296  2023-11-09 10:28:18.395254
1297  2023-11-09 10:28:18.443059
1298  2023-11-09 10:28:18.490900
1299  2023-11-09 10:28:18.537812
1300  2023-11-09 10:28:18.584684
1301  2023-11-09 10:28:18.632554
1302  2023-11-09 10:28:18.680392
1303  2023-11-09 10:28:18.729295
1304  2023-11-09 10:28:18.776312
1305  2023-11-09 10:28:18.824201
1306  2023-11-09 10:28:18.871117
1307  2023-11-09 10:28:18.917924
1308  2023-11-09 10:28:18.966835
1309  2023-11-09 10:28:19.014815
1310  2023-11-09 10:28:19.062515
1311  2023-11-09 10:28:19.109180
1312  2023-11-09 10:28:19.158109
1313  2023-11-09 10:28:19.203981
1314  2023-11-09 10:28:19.251853
1315  2023-11-09 10:28:19.297778
1316  2023-11-09 10:28:19.344605
1317  2023-11-09 10:28:19.391523
1318  2023-11-09 10:28:19.438354
1319  2023-11-09 10:28:19.485230
1320  2023-11-09 10:28:19.531108
1321  2023-11-09 10:28:19.578016
1322  2023-11-09 10:28:19.624905
1323  2023-11-09 10:28:19.670765
1324  2023-11-09 10:28:19.717640
1325  2023-11-09 10:28:19.766513
1326  2023-11-09 10:28:19.814390
1327  2023-11-09 10:28:19.862254
1328  2023-11-09 10:28:19.907101
1329  2023-11-09 10:28:19.954975
1330  2023-11-09 10:28:20.002845
1331  2023-11-09 10:28:20.050717
1332  2023-11-09 10:28:20.098624
1333  2023-11-09 10:28:20.146461
1334  2023-11-09 10:28:20.193372
1335  2023-11-09 10:28:20.241208
1336  2023-11-09 10:28:20.289113
1337  2023-11-09 10:28:20.336952
1338  2023-11-09 10:28:20.383826
1339  2023-11-09 10:28:20.430848
1340  2023-11-09 10:28:20.478686
1341  2023-11-09 10:28:20.524564
1342  2023-11-09 10:28:20.572436
1343  2023-11-09 10:28:20.620341
1344  2023-11-09 10:28:20.668214
1345  2023-11-09 10:28:20.715055
1346  2023-11-09 10:28:20.761971
1347  2023-11-09 10:28:20.809837
1348  2023-11-09 10:28:20.857734
1349  2023-11-09 10:28:20.905577
1350  2023-11-09 10:28:20.954470
1351  2023-11-09 10:28:21.000325
1352  2023-11-09 10:28:21.048197
1353  2023-11-09 10:28:21.096077
1354  2023-11-09 10:28:21.143908
1355  2023-11-09 10:28:21.191782
1356  2023-11-09 10:28:21.239690
1357  2023-11-09 10:28:21.287558
1358  2023-11-09 10:28:21.335433
1359  2023-11-09 10:28:21.381274
1360  2023-11-09 10:28:21.429178
1361  2023-11-09 10:28:21.477050
1362  2023-11-09 10:28:21.524923
1363  2023-11-09 10:28:21.572806
1364  2023-11-09 10:28:21.620673
1365  2023-11-09 10:28:21.668539
1366  2023-11-09 10:28:21.716411
1367  2023-11-09 10:28:21.764292
1368  2023-11-09 10:28:21.812123
1369  2023-11-09 10:28:21.859995
1370  2023-11-09 10:28:21.907866
1371  2023-11-09 10:28:21.957734
1372  2023-11-09 10:28:22.000648
1373  2023-11-09 10:28:22.047492
1374  2023-11-09 10:28:22.093404
1375  2023-11-09 10:28:22.141242
1376  2023-11-09 10:28:22.189482
1377  2023-11-09 10:28:22.237226
1378  2023-11-09 10:28:22.285103
1379  2023-11-09 10:28:22.332963
1380  2023-11-09 10:28:22.379802
1381  2023-11-09 10:28:22.427707
1382  2023-11-09 10:28:22.475545
1383  2023-11-09 10:28:22.523170
1384  2023-11-09 10:28:22.570961
1385  2023-11-09 10:28:22.618807
1386  2023-11-09 10:28:22.666804
1387  2023-11-09 10:28:22.714154
1388  2023-11-09 10:28:22.762060
1389  2023-11-09 10:28:22.807936
1390  2023-11-09 10:28:22.855822
1391  2023-11-09 10:28:22.903681
1392  2023-11-09 10:28:22.951565
1393  2023-11-09 10:28:22.998431
1394  2023-11-09 10:28:23.044305
1395  2023-11-09 10:28:23.091204
1396  2023-11-09 10:28:23.139071
1397  2023-11-09 10:28:23.187927
1398  2023-11-09 10:28:23.235792
1399  2023-11-09 10:28:23.281092
1400  2023-11-09 10:28:23.329002
1401  2023-11-09 10:28:23.375839
1402  2023-11-09 10:28:23.423743
1403  2023-11-09 10:28:23.471452
1404  2023-11-09 10:28:23.519360
1405  2023-11-09 10:28:23.567196
1406  2023-11-09 10:28:23.613074
1407  2023-11-09 10:28:23.661011
1408  2023-11-09 10:28:23.708818
1409  2023-11-09 10:28:23.755744
1410  2023-11-09 10:28:23.801603
1411  2023-11-09 10:28:23.848477
1412  2023-11-09 10:28:23.896348
1413  2023-11-09 10:28:23.944188
1414  2023-11-09 10:28:23.992137
1415  2023-11-09 10:28:24.040093
1416  2023-11-09 10:28:24.087962
1417  2023-11-09 10:28:24.135835
1418  2023-11-09 10:28:24.183718
1419  2023-11-09 10:28:24.231578
1420  2023-11-09 10:28:24.279524
1421  2023-11-09 10:28:24.327394
1422  2023-11-09 10:28:24.375235
1423  2023-11-09 10:28:24.421145
1424  2023-11-09 10:28:24.469019
1425  2023-11-09 10:28:24.515891
1426  2023-11-09 10:28:24.563767
1427  2023-11-09 10:28:24.611603
1428  2023-11-09 10:28:24.659505
1429  2023-11-09 10:28:24.707379
1430  2023-11-09 10:28:24.755219
1431  2023-11-09 10:28:24.803131
1432  2023-11-09 10:28:24.850963
1433  2023-11-09 10:28:24.897870
1434  2023-11-09 10:28:24.943715
1435  2023-11-09 10:28:24.990626
1436  2023-11-09 10:28:25.037499
1437  2023-11-09 10:28:25.083378
1438  2023-11-09 10:28:25.130251
1439  2023-11-09 10:28:25.178089
1440  2023-11-09 10:28:25.224021
1441  2023-11-09 10:28:25.271838
1442  2023-11-09 10:28:25.318753
1443  2023-11-09 10:28:25.366617
1444  2023-11-09 10:28:25.413459
1445  2023-11-09 10:28:25.461382
1446  2023-11-09 10:28:25.509239
1447  2023-11-09 10:28:25.557115
1448  2023-11-09 10:28:25.605120
1449  2023-11-09 10:28:25.651855
1450  2023-11-09 10:28:25.698728
1451  2023-11-09 10:28:25.745572
1452  2023-11-09 10:28:25.792480
1453  2023-11-09 10:28:25.841196
1454  2023-11-09 10:28:25.889054
1455  2023-11-09 10:28:25.936930
1456  2023-11-09 10:28:25.984802
1457  2023-11-09 10:28:26.032639
1458  2023-11-09 10:28:26.080541
1459  2023-11-09 10:28:26.127443
1460  2023-11-09 10:28:26.175256
1461  2023-11-09 10:28:26.223160
1462  2023-11-09 10:28:26.271000
1463  2023-11-09 10:28:26.318905
1464  2023-11-09 10:28:26.366744
1465  2023-11-09 10:28:26.413619
1466  2023-11-09 10:28:26.461499
1467  2023-11-09 10:28:26.506371
1468  2023-11-09 10:28:26.554282
1469  2023-11-09 10:28:26.602154
1470  2023-11-09 10:28:26.650985
1471  2023-11-09 10:28:26.697895
1472  2023-11-09 10:28:26.743768
1473  2023-11-09 10:28:26.791612
1474  2023-11-09 10:28:26.839645
1475  2023-11-09 10:28:26.887352
1476  2023-11-09 10:28:26.935224
1477  2023-11-09 10:28:26.983129
1478  2023-11-09 10:28:27.030003
1479  2023-11-09 10:28:27.076878
1480  2023-11-09 10:28:27.124750
1481  2023-11-09 10:28:27.171623
1482  2023-11-09 10:28:27.218502
1483  2023-11-09 10:28:27.266369
1484  2023-11-09 10:28:27.313635
1485  2023-11-09 10:28:27.361507
1486  2023-11-09 10:28:27.409374
1487  2023-11-09 10:28:27.457277
1488  2023-11-09 10:28:27.505123
1489  2023-11-09 10:28:27.550998
1490  2023-11-09 10:28:27.599874
1491  2023-11-09 10:28:27.647741
1492  2023-11-09 10:28:27.695604
1493  2023-11-09 10:28:27.743536
1494  2023-11-09 10:28:27.791508
1495  2023-11-09 10:28:27.839380
1496  2023-11-09 10:28:27.886272
1497  2023-11-09 10:28:27.933129
1498  2023-11-09 10:28:27.979972
1499  2023-11-09 10:28:28.027238
1500  2023-11-09 10:28:28.074187
1501  2023-11-09 10:28:28.122090
1502  2023-11-09 10:28:28.169931
1503  2023-11-09 10:28:28.217803
1504  2023-11-09 10:28:28.264717
1505  2023-11-09 10:28:28.311552
1506  2023-11-09 10:28:28.360423
1507  2023-11-09 10:28:28.407296
1508  2023-11-09 10:28:28.453174
1509  2023-11-09 10:28:28.501045
1510  2023-11-09 10:28:28.548948
1511  2023-11-09 10:28:28.596824
1512  2023-11-09 10:28:28.642697
1513  2023-11-09 10:28:28.690700
1514  2023-11-09 10:28:28.737443
1515  2023-11-09 10:28:28.784323
1516  2023-11-09 10:28:28.832241
1517  2023-11-09 10:28:28.879187
1518  2023-11-09 10:28:28.927246
1519  2023-11-09 10:28:28.975970
1520  2023-11-09 10:28:29.022836
1521  2023-11-09 10:28:29.070710
1522  2023-11-09 10:28:29.118588
1523  2023-11-09 10:28:29.164456
1524  2023-11-09 10:28:29.211299
1525  2023-11-09 10:28:29.259204
1526  2023-11-09 10:28:29.307043
1527  2023-11-09 10:28:29.352960
1528  2023-11-09 10:28:29.399798
1529  2023-11-09 10:28:29.447667
1530  2023-11-09 10:28:29.495575
1531  2023-11-09 10:28:29.543411
1532  2023-11-09 10:28:29.591309
1533  2023-11-09 10:28:29.639155
1534  2023-11-09 10:28:29.685033
1535  2023-11-09 10:28:29.732942
1536  2023-11-09 10:28:29.779639
1537  2023-11-09 10:28:29.827577
1538  2023-11-09 10:28:29.875463
1539  2023-11-09 10:28:29.923337
1540  2023-11-09 10:28:29.971193
1541  2023-11-09 10:28:30.019064
1542  2023-11-09 10:28:30.066941
1543  2023-11-09 10:28:30.112813
1544  2023-11-09 10:28:30.160753
1545  2023-11-09 10:28:30.208624
1546  2023-11-09 10:28:30.256497
1547  2023-11-09 10:28:30.304364
1548  2023-11-09 10:28:30.351326
1549  2023-11-09 10:28:30.399114
1550  2023-11-09 10:28:30.446985
1551  2023-11-09 10:28:30.493860
1552  2023-11-09 10:28:30.541616
1553  2023-11-09 10:28:30.589495
1554  2023-11-09 10:28:30.637384
1555  2023-11-09 10:28:30.685237
1556  2023-11-09 10:28:30.733115
1557  2023-11-09 10:28:30.779954
1558  2023-11-09 10:28:30.827859
1559  2023-11-09 10:28:30.875854
1560  2023-11-09 10:28:30.923782
1561  2023-11-09 10:28:30.970635
1562  2023-11-09 10:28:31.017476
1563  2023-11-09 10:28:31.064351
1564  2023-11-09 10:28:31.112222
1565  2023-11-09 10:28:31.160095
1566  2023-11-09 10:28:31.206953
1567  2023-11-09 10:28:31.254977
1568  2023-11-09 10:28:31.302713
1569  2023-11-09 10:28:31.348629
1570  2023-11-09 10:28:31.396548
1571  2023-11-09 10:28:31.444471
1572  2023-11-09 10:28:31.492335
1573  2023-11-09 10:28:31.540195
1574  2023-11-09 10:28:31.588038
1575  2023-11-09 10:28:31.635910
1576  2023-11-09 10:28:31.682816
1577  2023-11-09 10:28:31.730660
1578  2023-11-09 10:28:31.778730
1579  2023-11-09 10:28:31.826467
1580  2023-11-09 10:28:31.874337
1581  2023-11-09 10:28:31.922209
1582  2023-11-09 10:28:31.970113
1583  2023-11-09 10:28:32.017955
1584  2023-11-09 10:28:32.065824
1585  2023-11-09 10:28:32.113701
1586  2023-11-09 10:28:32.161569
1587  2023-11-09 10:28:32.209306
1588  2023-11-09 10:28:32.257174
1589  2023-11-09 10:28:32.305080
1590  2023-11-09 10:28:32.352948
1591  2023-11-09 10:28:32.400821
1592  2023-11-09 10:28:32.448692
1593  2023-11-09 10:28:32.496665
1594  2023-11-09 10:28:32.544502
1595  2023-11-09 10:28:32.590421
1596  2023-11-09 10:28:32.638285
1597  2023-11-09 10:28:32.686123
1598  2023-11-09 10:28:32.733483
1599  2023-11-09 10:28:32.781347
1600  2023-11-09 10:28:32.829232
1601  2023-11-09 10:28:32.877280
1602  2023-11-09 10:28:32.926144
1603  2023-11-09 10:28:32.973032
1604  2023-11-09 10:28:33.020859
1605  2023-11-09 10:28:33.068735
1606  2023-11-09 10:28:33.114765
1607  2023-11-09 10:28:33.161795
1608  2023-11-09 10:28:33.207642
1609  2023-11-09 10:28:33.254517
1610  2023-11-09 10:28:33.302388
1611  2023-11-09 10:28:33.350260
1612  2023-11-09 10:28:33.398259
1613  2023-11-09 10:28:33.446090
1614  2023-11-09 10:28:33.493996
1615  2023-11-09 10:28:33.541834
1616  2023-11-09 10:28:33.589716
1617  2023-11-09 10:28:33.637285
1618  2023-11-09 10:28:33.685157
1619  2023-11-09 10:28:33.733033
1620  2023-11-09 10:28:33.780390
1621  2023-11-09 10:28:33.828298
1622  2023-11-09 10:28:33.876212
1623  2023-11-09 10:28:33.924091
1624  2023-11-09 10:28:33.971962
1625  2023-11-09 10:28:34.017930
1626  2023-11-09 10:28:34.064804
1627  2023-11-09 10:28:34.111645
1628  2023-11-09 10:28:34.159549
1629  2023-11-09 10:28:34.206425
1630  2023-11-09 10:28:34.253266
1631  2023-11-09 10:28:34.301171
1632  2023-11-09 10:28:34.347048
1633  2023-11-09 10:28:34.395888
1634  2023-11-09 10:28:34.442811
1635  2023-11-09 10:28:34.491418
1636  2023-11-09 10:28:34.539280
1637  2023-11-09 10:28:34.587141
1638  2023-11-09 10:28:34.635027
1639  2023-11-09 10:28:34.682883
1640  2023-11-09 10:28:34.730762
1641  2023-11-09 10:28:34.778677
1642  2023-11-09 10:28:34.826655
1643  2023-11-09 10:28:34.874672
1644  2023-11-09 10:28:34.921069
1645  2023-11-09 10:28:34.969019
1646  2023-11-09 10:28:35.016919
1647  2023-11-09 10:28:35.064840
1648  2023-11-09 10:28:35.112663
1649  2023-11-09 10:28:35.160570
1650  2023-11-09 10:28:35.207410
1651  2023-11-09 10:28:35.255430
1652  2023-11-09 10:28:35.303302
1653  2023-11-09 10:28:35.351174
1654  2023-11-09 10:28:35.399082
1655  2023-11-09 10:28:35.447124
1656  2023-11-09 10:28:35.495028
1657  2023-11-09 10:28:35.542868
1658  2023-11-09 10:28:35.590740
1659  2023-11-09 10:28:35.638697
1660  2023-11-09 10:28:35.686569
1661  2023-11-09 10:28:35.732495
1662  2023-11-09 10:28:35.780318
1663  2023-11-09 10:28:35.828190
1664  2023-11-09 10:28:35.876062
1665  2023-11-09 10:28:35.923983
1666  2023-11-09 10:28:35.971806
1667  2023-11-09 10:28:36.019678
1668  2023-11-09 10:28:36.067550
1669  2023-11-09 10:28:36.115422
1670  2023-11-09 10:28:36.163332
1671  2023-11-09 10:28:36.211166
1672  2023-11-09 10:28:36.259038
1673  2023-11-09 10:28:36.306910
1674  2023-11-09 10:28:36.354936
1675  2023-11-09 10:28:36.400807
1676  2023-11-09 10:28:36.448676
1677  2023-11-09 10:28:36.494570
1678  2023-11-09 10:28:36.542420
1679  2023-11-09 10:28:36.590297
1680  2023-11-09 10:28:36.638168
1681  2023-11-09 10:28:36.686039
1682  2023-11-09 10:28:36.733914
1683  2023-11-09 10:28:36.781749
1684  2023-11-09 10:28:36.829652
1685  2023-11-09 10:28:36.876532
1686  2023-11-09 10:28:36.924321
1687  2023-11-09 10:28:36.971236
1688  2023-11-09 10:28:37.019102
1689  2023-11-09 10:28:37.067072
1690  2023-11-09 10:28:37.114910
1691  2023-11-09 10:28:37.162842
1692  2023-11-09 10:28:37.209724
1693  2023-11-09 10:28:37.257604
1694  2023-11-09 10:28:37.306472
1695  2023-11-09 10:28:37.354661
1696  2023-11-09 10:28:37.401531
1697  2023-11-09 10:28:37.449479
1698  2023-11-09 10:28:37.497280
1699  2023-11-09 10:28:37.546132
1700  2023-11-09 10:28:37.593004
1701  2023-11-09 10:28:37.640883
1702  2023-11-09 10:28:37.686800
1703  2023-11-09 10:28:37.734704
1704  2023-11-09 10:28:37.780549
1705  2023-11-09 10:28:37.827594
1706  2023-11-09 10:28:37.874434
1707  2023-11-09 10:28:37.922351
1708  2023-11-09 10:28:37.970178
1709  2023-11-09 10:28:38.018050
1710  2023-11-09 10:28:38.065964
1711  2023-11-09 10:28:38.112015
1712  2023-11-09 10:28:38.159701
1713  2023-11-09 10:28:38.207537
1714  2023-11-09 10:28:38.255449
1715  2023-11-09 10:28:38.303319
1716  2023-11-09 10:28:38.351282
1717  2023-11-09 10:28:38.398160
1718  2023-11-09 10:28:38.445030
1719  2023-11-09 10:28:38.492899
1720  2023-11-09 10:28:38.540779
1721  2023-11-09 10:28:38.588645
1722  2023-11-09 10:28:38.636522
1723  2023-11-09 10:28:38.684355
1724  2023-11-09 10:28:38.731268
1725  2023-11-09 10:28:38.778136
1726  2023-11-09 10:28:38.826941
1727  2023-11-09 10:28:38.873902
1728  2023-11-09 10:28:38.921733
1729  2023-11-09 10:28:38.969647
1730  2023-11-09 10:28:39.017510
1731  2023-11-09 10:28:39.063821
1732  2023-11-09 10:28:39.111767
1733  2023-11-09 10:28:39.158626
1734  2023-11-09 10:28:39.205468
1735  2023-11-09 10:28:39.253340
1736  2023-11-09 10:28:39.301162
1737  2023-11-09 10:28:39.348037
1738  2023-11-09 10:28:39.394912
1739  2023-11-09 10:28:39.442783
1740  2023-11-09 10:28:39.490656
1741  2023-11-09 10:28:39.538527
1742  2023-11-09 10:28:39.586399
1743  2023-11-09 10:28:39.634344
1744  2023-11-09 10:28:39.682268
1745  2023-11-09 10:28:39.730175
1746  2023-11-09 10:28:39.777857
1747  2023-11-09 10:28:39.823742
1748  2023-11-09 10:28:39.871653
1749  2023-11-09 10:28:39.918766
1750  2023-11-09 10:28:39.965762
1751  2023-11-09 10:28:40.013676
1752  2023-11-09 10:28:40.061588
1753  2023-11-09 10:28:40.109024
1754  2023-11-09 10:28:40.156882
1755  2023-11-09 10:28:40.204749
1756  2023-11-09 10:28:40.252622
1757  2023-11-09 10:28:40.299033
1758  2023-11-09 10:28:40.346991
1759  2023-11-09 10:28:40.394850
1760  2023-11-09 10:28:40.442673
1761  2023-11-09 10:28:40.490547
1762  2023-11-09 10:28:40.537976
1763  2023-11-09 10:28:40.586813
1764  2023-11-09 10:28:40.633771
1765  2023-11-09 10:28:40.680642
1766  2023-11-09 10:28:40.729480
1767  2023-11-09 10:28:40.774394
1768  2023-11-09 10:28:40.823260
1769  2023-11-09 10:28:40.870128
1770  2023-11-09 10:28:40.916978
1771  2023-11-09 10:28:40.963852
1772  2023-11-09 10:28:41.011724
1773  2023-11-09 10:28:41.059596
1774  2023-11-09 10:28:41.107047
1775  2023-11-09 10:28:41.153969
1776  2023-11-09 10:28:41.200835
1777  2023-11-09 10:28:41.248714
1778  2023-11-09 10:28:41.296633
1779  2023-11-09 10:28:41.343987
1780  2023-11-09 10:28:41.391558
1781  2023-11-09 10:28:41.439430
1782  2023-11-09 10:28:41.485593
1783  2023-11-09 10:28:41.533605
1784  2023-11-09 10:28:41.581345
1785  2023-11-09 10:28:41.627225
1786  2023-11-09 10:28:41.674092
1787  2023-11-09 10:28:41.722933
1788  2023-11-09 10:28:41.769799
1789  2023-11-09 10:28:41.817703
1790  2023-11-09 10:28:41.863584
1791  2023-11-09 10:28:41.911452
1792  2023-11-09 10:28:41.959328
1793  2023-11-09 10:28:42.007204
1794  2023-11-09 10:28:42.055067
1795  2023-11-09 10:28:42.101944
1796  2023-11-09 10:28:42.149833
1797  2023-11-09 10:28:42.197686
1798  2023-11-09 10:28:42.245684
1799  2023-11-09 10:28:42.292520
1800  2023-11-09 10:28:42.341418
1801  2023-11-09 10:28:42.389257
1802  2023-11-09 10:28:42.436130
1803  2023-11-09 10:28:42.484002
1804  2023-11-09 10:28:42.531874
1805  2023-11-09 10:28:42.577751
1806  2023-11-09 10:28:42.625530
1807  2023-11-09 10:28:42.672397
1808  2023-11-09 10:28:42.719283
1809  2023-11-09 10:28:42.765158
1810  2023-11-09 10:28:42.813032
1811  2023-11-09 10:28:42.859920
1812  2023-11-09 10:28:42.906967
1813  2023-11-09 10:28:42.953838
1814  2023-11-09 10:28:43.001710
1815  2023-11-09 10:28:43.046587
1816  2023-11-09 10:28:43.094626
1817  2023-11-09 10:28:43.139403
1818  2023-11-09 10:28:43.186284
1819  2023-11-09 10:28:43.233194
1820  2023-11-09 10:28:43.281025
1821  2023-11-09 10:28:43.328932
1822  2023-11-09 10:28:43.374984
1823  2023-11-09 10:28:43.422851
1824  2023-11-09 10:28:43.470726
1825  2023-11-09 10:28:43.518595
1826  2023-11-09 10:28:43.566469
1827  2023-11-09 10:28:43.613307
1828  2023-11-09 10:28:43.659225
1829  2023-11-09 10:28:43.706096
1830  2023-11-09 10:28:43.753931
1831  2023-11-09 10:28:43.801851
1832  2023-11-09 10:28:43.849723
1833  2023-11-09 10:28:43.897585
1834  2023-11-09 10:28:43.945460
1835  2023-11-09 10:28:43.992351
1836  2023-11-09 10:28:44.040203
1837  2023-11-09 10:28:44.088051
1838  2023-11-09 10:28:44.135910
1839  2023-11-09 10:28:44.182785
1840  2023-11-09 10:28:44.229661
1841  2023-11-09 10:28:44.278530
1842  2023-11-09 10:28:44.326402
1843  2023-11-09 10:28:44.372279
1844  2023-11-09 10:28:44.420184
1845  2023-11-09 10:28:44.468056
1846  2023-11-09 10:28:44.512902
1847  2023-11-09 10:28:44.560809
1848  2023-11-09 10:28:44.608575
1849  2023-11-09 10:28:44.655403
1850  2023-11-09 10:28:44.703302
1851  2023-11-09 10:28:44.751234
1852  2023-11-09 10:28:44.799173
1853  2023-11-09 10:28:44.847088
1854  2023-11-09 10:28:44.895041
1855  2023-11-09 10:28:44.940898
1856  2023-11-09 10:28:44.988806
1857  2023-11-09 10:28:45.036647
1858  2023-11-09 10:28:45.084513
1859  2023-11-09 10:28:45.132392
1860  2023-11-09 10:28:45.180332
1861  2023-11-09 10:28:45.228100
1862  2023-11-09 10:28:45.276008
1863  2023-11-09 10:28:45.323876
1864  2023-11-09 10:28:45.371751
1865  2023-11-09 10:28:45.419622
1866  2023-11-09 10:28:45.467501
1867  2023-11-09 10:28:45.515372
1868  2023-11-09 10:28:45.561240
1869  2023-11-09 10:28:45.608115
1870  2023-11-09 10:28:45.653992
1871  2023-11-09 10:28:45.701866
1872  2023-11-09 10:28:45.748709
1873  2023-11-09 10:28:45.795615
1874  2023-11-09 10:28:45.844487
1875  2023-11-09 10:28:45.891361
1876  2023-11-09 10:28:45.939233
1877  2023-11-09 10:28:45.988071
1878  2023-11-09 10:28:46.034953
1879  2023-11-09 10:28:46.080821
1880  2023-11-09 10:28:46.127726
1881  2023-11-09 10:28:46.175568
1882  2023-11-09 10:28:46.222481
1883  2023-11-09 10:28:46.269352
1884  2023-11-09 10:28:46.317225
1885  2023-11-09 10:28:46.365096
1886  2023-11-09 10:28:46.412933
1887  2023-11-09 10:28:46.460837
1888  2023-11-09 10:28:46.508714
1889  2023-11-09 10:28:46.556591
1890  2023-11-09 10:28:46.604457
1891  2023-11-09 10:28:46.650341
1892  2023-11-09 10:28:46.698200
1893  2023-11-09 10:28:46.746042
1894  2023-11-09 10:28:46.794949
1895  2023-11-09 10:28:46.841900
1896  2023-11-09 10:28:46.889764
1897  2023-11-09 10:28:46.937636
1898  2023-11-09 10:28:46.985602
1899  2023-11-09 10:28:47.033381
1900  2023-11-09 10:28:47.081254
1901  2023-11-09 10:28:47.129122
1902  2023-11-09 10:28:47.176965
1903  2023-11-09 10:28:47.224835
1904  2023-11-09 10:28:47.271763
1905  2023-11-09 10:28:47.318620
1906  2023-11-09 10:28:47.366504
1907  2023-11-09 10:28:47.413331
1908  2023-11-09 10:28:47.461203
1909  2023-11-09 10:28:47.508080
1910  2023-11-09 10:28:47.555997
1911  2023-11-09 10:28:47.603597
1912  2023-11-09 10:28:47.650547
1913  2023-11-09 10:28:47.698422
1914  2023-11-09 10:28:47.744260
1915  2023-11-09 10:28:47.792167
1916  2023-11-09 10:28:47.838041
1917  2023-11-09 10:28:47.886082
1918  2023-11-09 10:28:47.933863
1919  2023-11-09 10:28:47.981771
1920  2023-11-09 10:28:48.027648
1921  2023-11-09 10:28:48.073562
1922  2023-11-09 10:28:48.121433
1923  2023-11-09 10:28:48.169304
1924  2023-11-09 10:28:48.216144
1925  2023-11-09 10:28:48.263019
1926  2023-11-09 10:28:48.309894
1927  2023-11-09 10:28:48.357835
1928  2023-11-09 10:28:48.404714
1929  2023-11-09 10:28:48.452737
1930  2023-11-09 10:28:48.500493
1931  2023-11-09 10:28:48.548359
1932  2023-11-09 10:28:48.595246
1933  2023-11-09 10:28:48.643131
1934  2023-11-09 10:28:48.689953
1935  2023-11-09 10:28:48.737854
1936  2023-11-09 10:28:48.786724
1937  2023-11-09 10:28:48.834599
1938  2023-11-09 10:28:48.882494
1939  2023-11-09 10:28:48.929308
1940  2023-11-09 10:28:48.977218
1941  2023-11-09 10:28:49.022092
1942  2023-11-09 10:28:49.069979
1943  2023-11-09 10:28:49.117834
1944  2023-11-09 10:28:49.164714
1945  2023-11-09 10:28:49.212583
1946  2023-11-09 10:28:49.260583
1947  2023-11-09 10:28:49.308646
1948  2023-11-09 10:28:49.355647
1949  2023-11-09 10:28:49.402399
1950  2023-11-09 10:28:49.450237
1951  2023-11-09 10:28:49.498146
1952  2023-11-09 10:28:49.546023
1953  2023-11-09 10:28:49.593853
1954  2023-11-09 10:28:49.641755
1955  2023-11-09 10:28:49.689597
1956  2023-11-09 10:28:49.736475
1957  2023-11-09 10:28:49.783380
1958  2023-11-09 10:28:49.831255
1959  2023-11-09 10:28:49.879125
1960  2023-11-09 10:28:49.926996
1961  2023-11-09 10:28:49.974835
1962  2023-11-09 10:28:50.022741
1963  2023-11-09 10:28:50.070612
1964  2023-11-09 10:28:50.116486
1965  2023-11-09 10:28:50.164363
1966  2023-11-09 10:28:50.212230
1967  2023-11-09 10:28:50.258118
1968  2023-11-09 10:28:50.305980
1969  2023-11-09 10:28:50.351868
1970  2023-11-09 10:28:50.399730
1971  2023-11-09 10:28:50.445607
1972  2023-11-09 10:28:50.493487
1973  2023-11-09 10:28:50.540845
1974  2023-11-09 10:28:50.588787
1975  2023-11-09 10:28:50.635660
1976  2023-11-09 10:28:50.683527
1977  2023-11-09 10:28:50.731401
1978  2023-11-09 10:28:50.779240
1979  2023-11-09 10:28:50.827112
1980  2023-11-09 10:28:50.875160
1981  2023-11-09 10:28:50.923002
1982  2023-11-09 10:28:50.970906
1983  2023-11-09 10:28:51.018746
1984  2023-11-09 10:28:51.066618
1985  2023-11-09 10:28:51.114522
1986  2023-11-09 10:28:51.162563
1987  2023-11-09 10:28:51.210437
1988  2023-11-09 10:28:51.257279
1989  2023-11-09 10:28:51.304185
1990  2023-11-09 10:28:51.352157
1991  2023-11-09 10:28:51.399961
1992  2023-11-09 10:28:51.446773
1993  2023-11-09 10:28:51.493681
1994  2023-11-09 10:28:51.540557
1995  2023-11-09 10:28:51.587432
1996  2023-11-09 10:28:51.635303
1997  2023-11-09 10:28:51.682692
1998  2023-11-09 10:28:51.730607
1999  2023-11-09 10:28:51.778500
2000  2023-11-09 10:28:51.825374
2001  2023-11-09 10:28:51.871134
2002  2023-11-09 10:28:51.919073
2003  2023-11-09 10:28:51.966947
2004  2023-11-09 10:28:52.014815
2005  2023-11-09 10:28:52.061703
2006  2023-11-09 10:28:52.108568
2007  2023-11-09 10:28:52.155408
2008  2023-11-09 10:28:52.203312
2009  2023-11-09 10:28:52.251153
2010  2023-11-09 10:28:52.299056
2011  2023-11-09 10:28:52.346927
2012  2023-11-09 10:28:52.394768
2013  2023-11-09 10:28:52.442853
2014  2023-11-09 10:28:52.490513
2015  2023-11-09 10:28:52.538415
2016  2023-11-09 10:28:52.586257
2017  2023-11-09 10:28:52.633170
2018  2023-11-09 10:28:52.680006
2019  2023-11-09 10:28:52.726911
2020  2023-11-09 10:28:52.774784
2021  2023-11-09 10:28:52.822675
2022  2023-11-09 10:28:52.869538
2023  2023-11-09 10:28:52.917372
2024  2023-11-09 10:28:52.965244
2025  2023-11-09 10:28:53.013146
2026  2023-11-09 10:28:53.062038
2027  2023-11-09 10:28:53.108889
2028  2023-11-09 10:28:53.155766
2029  2023-11-09 10:28:53.201732
2030  2023-11-09 10:28:53.249574
2031  2023-11-09 10:28:53.296448
2032  2023-11-09 10:28:53.342325
2033  2023-11-09 10:28:53.390278
2034  2023-11-09 10:28:53.438118
2035  2023-11-09 10:28:53.486067
2036  2023-11-09 10:28:53.534072
2037  2023-11-09 10:28:53.579449
2038  2023-11-09 10:28:53.627355
2039  2023-11-09 10:28:53.675247
2040  2023-11-09 10:28:53.723255
2041  2023-11-09 10:28:53.771186
2042  2023-11-09 10:28:53.818999
2043  2023-11-09 10:28:53.865904
2044  2023-11-09 10:28:53.913745
2045  2023-11-09 10:28:53.961617
2046  2023-11-09 10:28:54.009522
2047  2023-11-09 10:28:54.057361
2048  2023-11-09 10:28:54.104264
2049  2023-11-09 10:28:54.152108
2050  2023-11-09 10:28:54.199985
2051  2023-11-09 10:28:54.245859
2052  2023-11-09 10:28:54.293732
2053  2023-11-09 10:28:54.340605
2054  2023-11-09 10:28:54.386516
2055  2023-11-09 10:28:54.432987
2056  2023-11-09 10:28:54.480966
2057  2023-11-09 10:28:54.527843
2058  2023-11-09 10:28:54.574711
2059  2023-11-09 10:28:54.623603
2060  2023-11-09 10:28:54.669469
2061  2023-11-09 10:28:54.715460
2062  2023-11-09 10:28:54.761374
2063  2023-11-09 10:28:54.808283
2064  2023-11-09 10:28:54.853268
2065  2023-11-09 10:28:54.900011
2066  2023-11-09 10:28:54.947953
2067  2023-11-09 10:28:54.993831
2068  2023-11-09 10:28:55.041711
2069  2023-11-09 10:28:55.088545
2070  2023-11-09 10:28:55.135425
2071  2023-11-09 10:28:55.181328
2072  2023-11-09 10:28:55.227244
2073  2023-11-09 10:28:55.275298
2074  2023-11-09 10:28:55.324253
2075  2023-11-09 10:28:55.370118
2076  2023-11-09 10:28:55.416961
2077  2023-11-09 10:28:55.463988
2078  2023-11-09 10:28:55.511707
2079  2023-11-09 10:28:55.559579
2080  2023-11-09 10:28:55.607486
2081  2023-11-09 10:28:55.655323
2082  2023-11-09 10:28:55.703230
2083  2023-11-09 10:28:55.750163
2084  2023-11-09 10:28:55.798080
2085  2023-11-09 10:28:55.843939
2086  2023-11-09 10:28:55.890241
2087  2023-11-09 10:28:55.938104
2088  2023-11-09 10:28:55.985973
2089  2023-11-09 10:28:56.031852
2090  2023-11-09 10:28:56.079826
2091  2023-11-09 10:28:56.127702
2092  2023-11-09 10:28:56.174577
2093  2023-11-09 10:28:56.221449
2094  2023-11-09 10:28:56.269319
2095  2023-11-09 10:28:56.318189
2096  2023-11-09 10:28:56.366063
2097  2023-11-09 10:28:56.413900
2098  2023-11-09 10:28:56.460774
2099  2023-11-09 10:28:56.508695
2100  2023-11-09 10:28:56.557667
2101  2023-11-09 10:28:56.605547
2102  2023-11-09 10:28:56.652413
2103  2023-11-09 10:28:56.700289
2104  2023-11-09 10:28:56.748163
2105  2023-11-09 10:28:56.796031
2106  2023-11-09 10:28:56.843903
2107  2023-11-09 10:28:56.890760
2108  2023-11-09 10:28:56.936649
2109  2023-11-09 10:28:56.983493
2110  2023-11-09 10:28:57.030401
2111  2023-11-09 10:28:57.077242
2112  2023-11-09 10:28:57.125243
2113  2023-11-09 10:28:57.172418
2114  2023-11-09 10:28:57.220291
2115  2023-11-09 10:28:57.268193
2116  2023-11-09 10:28:57.315078
2117  2023-11-09 10:28:57.362011
2118  2023-11-09 10:28:57.409986
2119  2023-11-09 10:28:57.457858
2120  2023-11-09 10:28:57.504734
2121  2023-11-09 10:28:57.551612
2122  2023-11-09 10:28:57.599497
2123  2023-11-09 10:28:57.647355
2124  2023-11-09 10:28:57.694236
2125  2023-11-09 10:28:57.740129
2126  2023-11-09 10:28:57.788974
2127  2023-11-09 10:28:57.835857
2128  2023-11-09 10:28:57.883744
2129  2023-11-09 10:28:57.931605
2130  2023-11-09 10:28:57.979466
2131  2023-11-09 10:28:58.027337
2132  2023-11-09 10:28:58.073248
2133  2023-11-09 10:28:58.120190
2134  2023-11-09 10:28:58.167108
2135  2023-11-09 10:28:58.213940
2136  2023-11-09 10:28:58.261853
2137  2023-11-09 10:28:58.309942
2138  2023-11-09 10:28:58.357701
2139  2023-11-09 10:28:58.405733
2140  2023-11-09 10:28:58.453537
2141  2023-11-09 10:28:58.501455
2142  2023-11-09 10:28:58.548820
2143  2023-11-09 10:28:58.596565
2144  2023-11-09 10:28:58.642487
2145  2023-11-09 10:28:58.690315
2146  2023-11-09 10:28:58.738225
2147  2023-11-09 10:28:58.784178
2148  2023-11-09 10:28:58.831063
2149  2023-11-09 10:28:58.877927
2150  2023-11-09 10:28:58.925808
2151  2023-11-09 10:28:58.973672
2152  2023-11-09 10:28:59.021514
2153  2023-11-09 10:28:59.069423
2154  2023-11-09 10:28:59.117291
2155  2023-11-09 10:28:59.165162
2156  2023-11-09 10:28:59.213035
2157  2023-11-09 10:28:59.260907
2158  2023-11-09 10:28:59.308776
2159  2023-11-09 10:28:59.356619
2160  2023-11-09 10:28:59.404523
2161  2023-11-09 10:28:59.452394
2162  2023-11-09 10:28:59.500264
2163  2023-11-09 10:28:59.549138
2164  2023-11-09 10:28:59.597010
2165  2023-11-09 10:28:59.643892
2166  2023-11-09 10:28:59.691771
2167  2023-11-09 10:28:59.736628
2168  2023-11-09 10:28:59.783476
2169  2023-11-09 10:28:59.831458
2170  2023-11-09 10:28:59.878300
2171  2023-11-09 10:28:59.926172
2172  2023-11-09 10:28:59.972049
2173  2023-11-09 10:29:00.019921
2174  2023-11-09 10:29:00.067793
2175  2023-11-09 10:29:00.113748
2176  2023-11-09 10:29:00.160939
2177  2023-11-09 10:29:00.208811
2178  2023-11-09 10:29:00.255062
2179  2023-11-09 10:29:00.299908
2180  2023-11-09 10:29:00.347833
2181  2023-11-09 10:29:00.395690
2182  2023-11-09 10:29:00.441567
2183  2023-11-09 10:29:00.489437
2184  2023-11-09 10:29:00.537316
2185  2023-11-09 10:29:00.585181
2186  2023-11-09 10:29:00.630093
2187  2023-11-09 10:29:00.677897
2188  2023-11-09 10:29:00.725770
2189  2023-11-09 10:29:00.771647
2190  2023-11-09 10:29:00.820520
2191  2023-11-09 10:29:00.867391
2192  2023-11-09 10:29:00.914266
2193  2023-11-09 10:29:00.961233
2194  2023-11-09 10:29:01.009109
2195  2023-11-09 10:29:01.056979
2196  2023-11-09 10:29:01.104850
2197  2023-11-09 10:29:01.151724
2198  2023-11-09 10:29:01.198567
2199  2023-11-09 10:29:01.245520
2200  2023-11-09 10:29:01.293392
2201  2023-11-09 10:29:01.339264
2202  2023-11-09 10:29:01.388186
2203  2023-11-09 10:29:01.436096
2204  2023-11-09 10:29:01.482997
2205  2023-11-09 10:29:01.528450
2206  2023-11-09 10:29:01.576492
2207  2023-11-09 10:29:01.625369
2208  2023-11-09 10:29:01.670682
2209  2023-11-09 10:29:01.718241
2210  2023-11-09 10:29:01.764118
2211  2023-11-09 10:29:01.810090
2212  2023-11-09 10:29:01.858079
2213  2023-11-09 10:29:01.906023
2214  2023-11-09 10:29:01.953936
2215  2023-11-09 10:29:02.001846
2216  2023-11-09 10:29:02.049834
2217  2023-11-09 10:29:02.097739
2218  2023-11-09 10:29:02.145578
2219  2023-11-09 10:29:02.193488
2220  2023-11-09 10:29:02.239651
2221  2023-11-09 10:29:02.287535
2222  2023-11-09 10:29:02.334398
2223  2023-11-09 10:29:02.381280
2224  2023-11-09 10:29:02.428144
2225  2023-11-09 10:29:02.476024
2226  2023-11-09 10:29:02.523857
2227  2023-11-09 10:29:02.569734
2228  2023-11-09 10:29:02.617606
2229  2023-11-09 10:29:02.666510
2230  2023-11-09 10:29:02.714348
2231  2023-11-09 10:29:02.761309
2232  2023-11-09 10:29:02.809143
2233  2023-11-09 10:29:02.856121
2234  2023-11-09 10:29:02.903975
2235  2023-11-09 10:29:02.949821
2236  2023-11-09 10:29:02.998693
2237  2023-11-09 10:29:03.043570
2238  2023-11-09 10:29:03.090482
2239  2023-11-09 10:29:03.137027
2240  2023-11-09 10:29:03.184900
2241  2023-11-09 10:29:03.229824
2242  2023-11-09 10:29:03.277693
2243  2023-11-09 10:29:03.325561
2244  2023-11-09 10:29:03.373430
2245  2023-11-09 10:29:03.419307
2246  2023-11-09 10:29:03.467190
2247  2023-11-09 10:29:03.515055
2248  2023-11-09 10:29:03.562927
2249  2023-11-09 10:29:03.611042
2250  2023-11-09 10:29:03.657084
2251  2023-11-09 10:29:03.705970
2252  2023-11-09 10:29:03.752840
2253  2023-11-09 10:29:03.799703
2254  2023-11-09 10:29:03.847613
2255  2023-11-09 10:29:03.895577
2256  2023-11-09 10:29:03.943436
2257  2023-11-09 10:29:03.991313
2258  2023-11-09 10:29:04.040148
2259  2023-11-09 10:29:04.087070
2260  2023-11-09 10:29:04.135941
2261  2023-11-09 10:29:04.182811
2262  2023-11-09 10:29:04.229641
2263  2023-11-09 10:29:04.275518
2264  2023-11-09 10:29:04.321433
2265  2023-11-09 10:29:04.367274
2266  2023-11-09 10:29:04.413187
2267  2023-11-09 10:29:04.461073
2268  2023-11-09 10:29:04.508936
2269  2023-11-09 10:29:04.556788
2270  2023-11-09 10:29:04.604695
2271  2023-11-09 10:29:04.652672
2272  2023-11-09 10:29:04.699554
2273  2023-11-09 10:29:04.746511
2274  2023-11-09 10:29:04.794345
2275  2023-11-09 10:29:04.842260
2276  2023-11-09 10:29:04.891133
2277  2023-11-09 10:29:04.938004
2278  2023-11-09 10:29:04.985870
2279  2023-11-09 10:29:05.033751
2280  2023-11-09 10:29:05.081615
2281  2023-11-09 10:29:05.129503
2282  2023-11-09 10:29:05.177323
2283  2023-11-09 10:29:05.225239
2284  2023-11-09 10:29:05.273100
2285  2023-11-09 10:29:05.319940
2286  2023-11-09 10:29:05.366816
2287  2023-11-09 10:29:05.413721
2288  2023-11-09 10:29:05.460564
2289  2023-11-09 10:29:05.508436
2290  2023-11-09 10:29:05.556308
2291  2023-11-09 10:29:05.604180
2292  2023-11-09 10:29:05.652058
2293  2023-11-09 10:29:05.699924
2294  2023-11-09 10:29:05.747796
2295  2023-11-09 10:29:05.793758
2296  2023-11-09 10:29:05.841703
2297  2023-11-09 10:29:05.888615
2298  2023-11-09 10:29:05.935335
2299  2023-11-09 10:29:05.983235
2300  2023-11-09 10:29:06.031113
2301  2023-11-09 10:29:06.078984
2302  2023-11-09 10:29:06.126859
2303  2023-11-09 10:29:06.174611
2304  2023-11-09 10:29:06.222552
2305  2023-11-09 10:29:06.270394
2306  2023-11-09 10:29:06.318300
2307  2023-11-09 10:29:06.366172
2308  2023-11-09 10:29:06.414198
2309  2023-11-09 10:29:06.462158
2310  2023-11-09 10:29:06.510039
2311  2023-11-09 10:29:06.558049
2312  2023-11-09 10:29:06.603925
2313  2023-11-09 10:29:06.649803
2314  2023-11-09 10:29:06.697672
2315  2023-11-09 10:29:06.745555
2316  2023-11-09 10:29:06.792387
2317  2023-11-09 10:29:06.840296
2318  2023-11-09 10:29:06.887181
2319  2023-11-09 10:29:06.935065
2320  2023-11-09 10:29:06.980916
2321  2023-11-09 10:29:07.030003
2322  2023-11-09 10:29:07.073850
2323  2023-11-09 10:29:07.119769
2324  2023-11-09 10:29:07.166602
2325  2023-11-09 10:29:07.213510
2326  2023-11-09 10:29:07.259388
2327  2023-11-09 10:29:07.306229
2328  2023-11-09 10:29:07.355139
2329  2023-11-09 10:29:07.401015
2330  2023-11-09 10:29:07.447904
2331  2023-11-09 10:29:07.494758
2332  2023-11-09 10:29:07.542634
2333  2023-11-09 10:29:07.588508
2334  2023-11-09 10:29:07.634385
2335  2023-11-09 10:29:07.682218
2336  2023-11-09 10:29:07.730121
2337  2023-11-09 10:29:07.778088
2338  2023-11-09 10:29:07.825865
2339  2023-11-09 10:29:07.873704
2340  2023-11-09 10:29:07.921612
2341  2023-11-09 10:29:07.969448
2342  2023-11-09 10:29:08.017440
2343  2023-11-09 10:29:08.065344
2344  2023-11-09 10:29:08.113184
2345  2023-11-09 10:29:08.161158
2346  2023-11-09 10:29:08.209084
2347  2023-11-09 10:29:08.257033
2348  2023-11-09 10:29:08.304906
2349  2023-11-09 10:29:08.352436
2350  2023-11-09 10:29:08.400182
2351  2023-11-09 10:29:08.445849
2352  2023-11-09 10:29:08.492806
2353  2023-11-09 10:29:08.540766
2354  2023-11-09 10:29:08.588640
2355  2023-11-09 10:29:08.635545
2356  2023-11-09 10:29:08.681471
2357  2023-11-09 10:29:08.727673
2358  2023-11-09 10:29:08.774573
2359  2023-11-09 10:29:08.821388
2360  2023-11-09 10:29:08.869311
2361  2023-11-09 10:29:08.917172
2362  2023-11-09 10:29:08.966172
2363  2023-11-09 10:29:09.014034
2364  2023-11-09 10:29:09.059916
2365  2023-11-09 10:29:09.107784
2366  2023-11-09 10:29:09.153668
2367  2023-11-09 10:29:09.200539
2368  2023-11-09 10:29:09.248377
2369  2023-11-09 10:29:09.296282
2370  2023-11-09 10:29:09.343165
2371  2023-11-09 10:29:09.390030
2372  2023-11-09 10:29:09.437870
2373  2023-11-09 10:29:09.485783
2374  2023-11-09 10:29:09.533614
2375  2023-11-09 10:29:09.581523
2376  2023-11-09 10:29:09.627394
2377  2023-11-09 10:29:09.674272
2378  2023-11-09 10:29:09.723140
2379  2023-11-09 10:29:09.770019
2380  2023-11-09 10:29:09.817886
2381  2023-11-09 10:29:09.865758
2382  2023-11-09 10:29:09.913634
2383  2023-11-09 10:29:09.961508
2384  2023-11-09 10:29:10.009378
2385  2023-11-09 10:29:10.055258
2386  2023-11-09 10:29:10.102096
2387  2023-11-09 10:29:10.149966
2388  2023-11-09 10:29:10.198837
2389  2023-11-09 10:29:10.246741
2390  2023-11-09 10:29:10.292585
2391  2023-11-09 10:29:10.340457
2392  2023-11-09 10:29:10.388398
2393  2023-11-09 10:29:10.434326
2394  2023-11-09 10:29:10.480626
2395  2023-11-09 10:29:10.528530
2396  2023-11-09 10:29:10.575910
2397  2023-11-09 10:29:10.623742
2398  2023-11-09 10:29:10.671685
2399  2023-11-09 10:29:10.719685
2400  2023-11-09 10:29:10.767580
2401  2023-11-09 10:29:10.813488
2402  2023-11-09 10:29:10.861404
2403  2023-11-09 10:29:10.909315
2404  2023-11-09 10:29:10.957284
2405  2023-11-09 10:29:11.005154
2406  2023-11-09 10:29:11.053036
2407  2023-11-09 10:29:11.100857
2408  2023-11-09 10:29:11.146766
2409  2023-11-09 10:29:11.194638
2410  2023-11-09 10:29:11.242512
2411  2023-11-09 10:29:11.290382
2412  2023-11-09 10:29:11.338256
2413  2023-11-09 10:29:11.384131
2414  2023-11-09 10:29:11.432002
2415  2023-11-09 10:29:11.479847
2416  2023-11-09 10:29:11.527749
2417  2023-11-09 10:29:11.575590
2418  2023-11-09 10:29:11.623491
2419  2023-11-09 10:29:11.671368
2420  2023-11-09 10:29:11.719234
2421  2023-11-09 10:29:11.767108
2422  2023-11-09 10:29:11.814979
2423  2023-11-09 10:29:11.860857
2424  2023-11-09 10:29:11.908729
2425  2023-11-09 10:29:11.955604
2426  2023-11-09 10:29:12.003477
2427  2023-11-09 10:29:12.050355
2428  2023-11-09 10:29:12.097229
2429  2023-11-09 10:29:12.145109
2430  2023-11-09 10:29:12.194104
2431  2023-11-09 10:29:12.237947
2432  2023-11-09 10:29:12.285851
2433  2023-11-09 10:29:12.333691
2434  2023-11-09 10:29:12.381596
2435  2023-11-09 10:29:12.429468
2436  2023-11-09 10:29:12.477339
2437  2023-11-09 10:29:12.525218
2438  2023-11-09 10:29:12.572102
2439  2023-11-09 10:29:12.618978
2440  2023-11-09 10:29:12.666917
2441  2023-11-09 10:29:12.714821
2442  2023-11-09 10:29:12.760701
2443  2023-11-09 10:29:12.807543
2444  2023-11-09 10:29:12.855414
2445  2023-11-09 10:29:12.903288
2446  2023-11-09 10:29:12.951188
2447  2023-11-09 10:29:12.998064
2448  2023-11-09 10:29:13.045905
2449  2023-11-09 10:29:13.092819
2450  2023-11-09 10:29:13.140690
2451  2023-11-09 10:29:13.188556
2452  2023-11-09 10:29:13.236429
2453  2023-11-09 10:29:13.284300
2454  2023-11-09 10:29:13.332176
2455  2023-11-09 10:29:13.380048
2456  2023-11-09 10:29:13.426919
2457  2023-11-09 10:29:13.474795
2458  2023-11-09 10:29:13.520668
2459  2023-11-09 10:29:13.568540
2460  2023-11-09 10:29:13.616412
2461  2023-11-09 10:29:13.664284
2462  2023-11-09 10:29:13.712155
2463  2023-11-09 10:29:13.758037
2464  2023-11-09 10:29:13.805872
2465  2023-11-09 10:29:13.852748
2466  2023-11-09 10:29:13.900619
2467  2023-11-09 10:29:13.946528
2468  2023-11-09 10:29:13.994369
2469  2023-11-09 10:29:14.042270
2470  2023-11-09 10:29:14.090112
2471  2023-11-09 10:29:14.136005
2472  2023-11-09 10:29:14.183863
2473  2023-11-09 10:29:14.231772
2474  2023-11-09 10:29:14.278641
2475  2023-11-09 10:29:14.325517
2476  2023-11-09 10:29:14.373355
2477  2023-11-09 10:29:14.421260
2478  2023-11-09 10:29:14.469132
2479  2023-11-09 10:29:14.517003
2480  2023-11-09 10:29:14.564876
2481  2023-11-09 10:29:14.612747
2482  2023-11-09 10:29:14.660619
2483  2023-11-09 10:29:14.708504
2484  2023-11-09 10:29:14.756367
2485  2023-11-09 10:29:14.804235
2486  2023-11-09 10:29:14.851108
2487  2023-11-09 10:29:14.897991
2488  2023-11-09 10:29:14.945857
2489  2023-11-09 10:29:14.993728
2490  2023-11-09 10:29:15.041605
2491  2023-11-09 10:29:15.087478
2492  2023-11-09 10:29:15.135359
2493  2023-11-09 10:29:15.183317
2494  2023-11-09 10:29:15.231188
2495  2023-11-09 10:29:15.279024
2496  2023-11-09 10:29:15.326987
2497  2023-11-09 10:29:15.374959
2498  2023-11-09 10:29:15.423841
2499  2023-11-09 10:29:15.469819
2500  2023-11-09 10:29:15.519719
2501  2023-11-09 10:29:15.565557
2502  2023-11-09 10:29:15.613468
2503  2023-11-09 10:29:15.661302
2504  2023-11-09 10:29:15.707214
2505  2023-11-09 10:29:15.754053
2506  2023-11-09 10:29:15.801927
2507  2023-11-09 10:29:15.849829
2508  2023-11-09 10:29:15.897669
2509  2023-11-09 10:29:15.944546
2510  2023-11-09 10:29:15.991454
2511  2023-11-09 10:29:16.038326
2512  2023-11-09 10:29:16.084205
2513  2023-11-09 10:29:16.131077
2514  2023-11-09 10:29:16.178951
2515  2023-11-09 10:29:16.226821
2516  2023-11-09 10:29:16.274694
2517  2023-11-09 10:29:16.322580
2518  2023-11-09 10:29:16.370439
2519  2023-11-09 10:29:16.417324
2520  2023-11-09 10:29:16.464194
2521  2023-11-09 10:29:16.511063
2522  2023-11-09 10:29:16.558936
2523  2023-11-09 10:29:16.606806
2524  2023-11-09 10:29:16.654678
2525  2023-11-09 10:29:16.702555
2526  2023-11-09 10:29:16.750598
2527  2023-11-09 10:29:16.798626
2528  2023-11-09 10:29:16.846500
2529  2023-11-09 10:29:16.894375
2530  2023-11-09 10:29:16.942243
2531  2023-11-09 10:29:16.990115
2532  2023-11-09 10:29:17.037986
2533  2023-11-09 10:29:17.085859
2534  2023-11-09 10:29:17.134772
2535  2023-11-09 10:29:17.181752
2536  2023-11-09 10:29:17.226762
2537  2023-11-09 10:29:17.274660
2538  2023-11-09 10:29:17.322636
2539  2023-11-09 10:29:17.370473
2540  2023-11-09 10:29:17.418345
2541  2023-11-09 10:29:17.466216
2542  2023-11-09 10:29:17.515087
2543  2023-11-09 10:29:17.561961
2544  2023-11-09 10:29:17.609866
2545  2023-11-09 10:29:17.657708
2546  2023-11-09 10:29:17.705607
2547  2023-11-09 10:29:17.752451
2548  2023-11-09 10:29:17.800323
2549  2023-11-09 10:29:17.848227
2550  2023-11-09 10:29:17.894122
2551  2023-11-09 10:29:17.941976
2552  2023-11-09 10:29:17.988853
2553  2023-11-09 10:29:18.035733
2554  2023-11-09 10:29:18.083718
2555  2023-11-09 10:29:18.131473
2556  2023-11-09 10:29:18.179346
2557  2023-11-09 10:29:18.227214
2558  2023-11-09 10:29:18.275171
2559  2023-11-09 10:29:18.323078
2560  2023-11-09 10:29:18.369917
2561  2023-11-09 10:29:18.416794
2562  2023-11-09 10:29:18.464665
2563  2023-11-09 10:29:18.512536
2564  2023-11-09 10:29:18.558681
2565  2023-11-09 10:29:18.607550
2566  2023-11-09 10:29:18.655411
2567  2023-11-09 10:29:18.703294
2568  2023-11-09 10:29:18.750163
2569  2023-11-09 10:29:18.798006
2570  2023-11-09 10:29:18.846903
2571  2023-11-09 10:29:18.892775
2572  2023-11-09 10:29:18.940648
2573  2023-11-09 10:29:18.985496
2574  2023-11-09 10:29:19.033368
2575  2023-11-09 10:29:19.081274
2576  2023-11-09 10:29:19.128114
2577  2023-11-09 10:29:19.176021
2578  2023-11-09 10:29:19.223858
2579  2023-11-09 10:29:19.272780
2580  2023-11-09 10:29:19.319602
2581  2023-11-09 10:29:19.367553
2582  2023-11-09 10:29:19.415462
2583  2023-11-09 10:29:19.462300
2584  2023-11-09 10:29:19.508179
2585  2023-11-09 10:29:19.554054
2586  2023-11-09 10:29:19.600930
2587  2023-11-09 10:29:19.647839
2588  2023-11-09 10:29:19.695745
2589  2023-11-09 10:29:19.743650
2590  2023-11-09 10:29:19.791533
2591  2023-11-09 10:29:19.838395
2592  2023-11-09 10:29:19.884280
2593  2023-11-09 10:29:19.932142
2594  2023-11-09 10:29:19.980016
2595  2023-11-09 10:29:20.028891
2596  2023-11-09 10:29:20.075766
2597  2023-11-09 10:29:20.121606
2598  2023-11-09 10:29:20.168480
2599  2023-11-09 10:29:20.216383
2600  2023-11-09 10:29:20.264032
2601  2023-11-09 10:29:20.312085
2602  2023-11-09 10:29:20.359796
2603  2023-11-09 10:29:20.407702
2604  2023-11-09 10:29:20.452548
2605  2023-11-09 10:29:20.499458
2606  2023-11-09 10:29:20.547294
2607  2023-11-09 10:29:20.595206
2608  2023-11-09 10:29:20.642935
2609  2023-11-09 10:29:20.690880
2610  2023-11-09 10:29:20.738747
2611  2023-11-09 10:29:20.785622
2612  2023-11-09 10:29:20.832499
2613  2023-11-09 10:29:20.880208
2614  2023-11-09 10:29:20.928154
2615  2023-11-09 10:29:20.976027
2616  2023-11-09 10:29:21.023892
2617  2023-11-09 10:29:21.071734
2618  2023-11-09 10:29:21.119644
2619  2023-11-09 10:29:21.167621
2620  2023-11-09 10:29:21.215383
2621  2023-11-09 10:29:21.263247
2622  2023-11-09 10:29:21.311124
2623  2023-11-09 10:29:21.358973
2624  2023-11-09 10:29:21.406871
2625  2023-11-09 10:29:21.455708
2626  2023-11-09 10:29:21.501584
2627  2023-11-09 10:29:21.548512
2628  2023-11-09 10:29:21.596372
2629  2023-11-09 10:29:21.643238
2630  2023-11-09 10:29:21.689164
2631  2023-11-09 10:29:21.736955
2632  2023-11-09 10:29:21.784861
2633  2023-11-09 10:29:21.832699
2634  2023-11-09 10:29:21.880609
2635  2023-11-09 10:29:21.928443
2636  2023-11-09 10:29:21.976316
2637  2023-11-09 10:29:22.023367
2638  2023-11-09 10:29:22.070344
2639  2023-11-09 10:29:22.118156
2640  2023-11-09 10:29:22.166062
2641  2023-11-09 10:29:22.213482
2642  2023-11-09 10:29:22.261394
2643  2023-11-09 10:29:22.308227
2644  2023-11-09 10:29:22.355132
2645  2023-11-09 10:29:22.402904
2646  2023-11-09 10:29:22.450806
2647  2023-11-09 10:29:22.498650
2648  2023-11-09 10:29:22.546555
2649  2023-11-09 10:29:22.594397
2650  2023-11-09 10:29:22.641286
2651  2023-11-09 10:29:22.689198
2652  2023-11-09 10:29:22.736482
2653  2023-11-09 10:29:22.784612
2654  2023-11-09 10:29:22.832335
2655  2023-11-09 10:29:22.880335
2656  2023-11-09 10:29:22.926210
2657  2023-11-09 10:29:22.974047
2658  2023-11-09 10:29:23.020957
2659  2023-11-09 10:29:23.067832
2660  2023-11-09 10:29:23.114518
2661  2023-11-09 10:29:23.162474
2662  2023-11-09 10:29:23.210471
2663  2023-11-09 10:29:23.258474
2664  2023-11-09 10:29:23.307464
2665  2023-11-09 10:29:23.354340
2666  2023-11-09 10:29:23.402300
2667  2023-11-09 10:29:23.450169
2668  2023-11-09 10:29:23.498044
2669  2023-11-09 10:29:23.543886
2670  2023-11-09 10:29:23.591758
2671  2023-11-09 10:29:23.637680
2672  2023-11-09 10:29:23.685507
2673  2023-11-09 10:29:23.731678
2674  2023-11-09 10:29:23.779517
2675  2023-11-09 10:29:23.827426
2676  2023-11-09 10:29:23.875403
2677  2023-11-09 10:29:23.923177
2678  2023-11-09 10:29:23.971005
2679  2023-11-09 10:29:24.017046
2680  2023-11-09 10:29:24.064974
2681  2023-11-09 10:29:24.112823
2682  2023-11-09 10:29:24.160771
2683  2023-11-09 10:29:24.208692
2684  2023-11-09 10:29:24.256570
2685  2023-11-09 10:29:24.304405
2686  2023-11-09 10:29:24.352411
2687  2023-11-09 10:29:24.400275
2688  2023-11-09 10:29:24.446346
2689  2023-11-09 10:29:24.494220
2690  2023-11-09 10:29:24.541121
2691  2023-11-09 10:29:24.588991
2692  2023-11-09 10:29:24.635956
2693  2023-11-09 10:29:24.684839
2694  2023-11-09 10:29:24.730702
2695  2023-11-09 10:29:24.778583
2696  2023-11-09 10:29:24.826654
2697  2023-11-09 10:29:24.875510
2698  2023-11-09 10:29:24.923405
2699  2023-11-09 10:29:24.969265
2700  2023-11-09 10:29:25.017133
2701  2023-11-09 10:29:25.065019
2702  2023-11-09 10:29:25.112997
2703  2023-11-09 10:29:25.160922
2704  2023-11-09 10:29:25.208826
2705  2023-11-09 10:29:25.256699
2706  2023-11-09 10:29:25.304703
2707  2023-11-09 10:29:25.352572
2708  2023-11-09 10:29:25.398402
2709  2023-11-09 10:29:25.446305
2710  2023-11-09 10:29:25.494146
2711  2023-11-09 10:29:25.540034
2712  2023-11-09 10:29:25.587895
2713  2023-11-09 10:29:25.635801
2714  2023-11-09 10:29:25.683639
2715  2023-11-09 10:29:25.730555
2716  2023-11-09 10:29:25.777783
2717  2023-11-09 10:29:25.825691
2718  2023-11-09 10:29:25.871572
2719  2023-11-09 10:29:25.917450
2720  2023-11-09 10:29:25.965416
2721  2023-11-09 10:29:26.013284
2722  2023-11-09 10:29:26.062121
2723  2023-11-09 10:29:26.108667
2724  2023-11-09 10:29:26.156560
2725  2023-11-09 10:29:26.204409
2726  2023-11-09 10:29:26.252251
2727  2023-11-09 10:29:26.300158
2728  2023-11-09 10:29:26.348024
2729  2023-11-09 10:29:26.395867
2730  2023-11-09 10:29:26.443778
2731  2023-11-09 10:29:26.491655
2732  2023-11-09 10:29:26.538528
2733  2023-11-09 10:29:26.586359
2734  2023-11-09 10:29:26.634260
2735  2023-11-09 10:29:26.680108
2736  2023-11-09 10:29:26.728052
2737  2023-11-09 10:29:26.774969
2738  2023-11-09 10:29:26.823890
2739  2023-11-09 10:29:26.871896
2740  2023-11-09 10:29:26.917772
2741  2023-11-09 10:29:26.963654
2742  2023-11-09 10:29:27.011475
2743  2023-11-09 10:29:27.059326
2744  2023-11-09 10:29:27.107010
2745  2023-11-09 10:29:27.154947
2746  2023-11-09 10:29:27.202436
2747  2023-11-09 10:29:27.250377
2748  2023-11-09 10:29:27.298303
2749  2023-11-09 10:29:27.344271
2750  2023-11-09 10:29:27.391966
2751  2023-11-09 10:29:27.439929
2752  2023-11-09 10:29:27.487837
2753  2023-11-09 10:29:27.535721
2754  2023-11-09 10:29:27.582589
2755  2023-11-09 10:29:27.629460
2756  2023-11-09 10:29:27.677299
2757  2023-11-09 10:29:27.725249
2758  2023-11-09 10:29:27.770162
2759  2023-11-09 10:29:27.818001
2760  2023-11-09 10:29:27.864906
2761  2023-11-09 10:29:27.912778
2762  2023-11-09 10:29:27.960653
2763  2023-11-09 10:29:28.006531
2764  2023-11-09 10:29:28.054401
2765  2023-11-09 10:29:28.102276
2766  2023-11-09 10:29:28.151125
2767  2023-11-09 10:29:28.199020
2768  2023-11-09 10:29:28.245889
2769  2023-11-09 10:29:28.292731
2770  2023-11-09 10:29:28.340603
2771  2023-11-09 10:29:28.386732
2772  2023-11-09 10:29:28.434634
2773  2023-11-09 10:29:28.482534
2774  2023-11-09 10:29:28.530446
2775  2023-11-09 10:29:28.578278
2776  2023-11-09 10:29:28.624187
2777  2023-11-09 10:29:28.671030
2778  2023-11-09 10:29:28.717174
2779  2023-11-09 10:29:28.764050
2780  2023-11-09 10:29:28.811000
2781  2023-11-09 10:29:28.857873
2782  2023-11-09 10:29:28.905746
2783  2023-11-09 10:29:28.954682
2784  2023-11-09 10:29:28.999563
2785  2023-11-09 10:29:29.046437
2786  2023-11-09 10:29:29.094304
2787  2023-11-09 10:29:29.141328
2788  2023-11-09 10:29:29.188159
2789  2023-11-09 10:29:29.235130
2790  2023-11-09 10:29:29.282957
2791  2023-11-09 10:29:29.330917
2792  2023-11-09 10:29:29.378753
2793  2023-11-09 10:29:29.424666
2794  2023-11-09 10:29:29.472503
2795  2023-11-09 10:29:29.520531
2796  2023-11-09 10:29:29.568365
2797  2023-11-09 10:29:29.616277
2798  2023-11-09 10:29:29.663986
2799  2023-11-09 10:29:29.710831
2800  2023-11-09 10:29:29.757707
2801  2023-11-09 10:29:29.803584
2802  2023-11-09 10:29:29.851456
2803  2023-11-09 10:29:29.899366
2804  2023-11-09 10:29:29.947232
2805  2023-11-09 10:29:29.995072
2806  2023-11-09 10:29:30.040981
2807  2023-11-09 10:29:30.089819
2808  2023-11-09 10:29:30.136722
2809  2023-11-09 10:29:30.184606
2810  2023-11-09 10:29:30.231477
2811  2023-11-09 10:29:30.277389
2812  2023-11-09 10:29:30.325369
2813  2023-11-09 10:29:30.372833
2814  2023-11-09 10:29:30.421511
2815  2023-11-09 10:29:30.465377
2816  2023-11-09 10:29:30.511219
2817  2023-11-09 10:29:30.559123
2818  2023-11-09 10:29:30.607109
2819  2023-11-09 10:29:30.652879
2820  2023-11-09 10:29:30.700753
2821  2023-11-09 10:29:30.749584
2822  2023-11-09 10:29:30.794498
2823  2023-11-09 10:29:30.842377
2824  2023-11-09 10:29:30.889243
2825  2023-11-09 10:29:30.937111
2826  2023-11-09 10:29:30.984011
2827  2023-11-09 10:29:31.030885
2828  2023-11-09 10:29:31.078781
2829  2023-11-09 10:29:31.126638
2830  2023-11-09 10:29:31.174502
2831  2023-11-09 10:29:31.221401
2832  2023-11-09 10:29:31.268259
2833  2023-11-09 10:29:31.316122
2834  2023-11-09 10:29:31.361996
2835  2023-11-09 10:29:31.409837
2836  2023-11-09 10:29:31.457743
2837  2023-11-09 10:29:31.505581
2838  2023-11-09 10:29:31.553488
2839  2023-11-09 10:29:31.601356
2840  2023-11-09 10:29:31.649197
2841  2023-11-09 10:29:31.697108
2842  2023-11-09 10:29:31.745060
2843  2023-11-09 10:29:31.792967
2844  2023-11-09 10:29:31.839807
2845  2023-11-09 10:29:31.887680
2846  2023-11-09 10:29:31.935551
2847  2023-11-09 10:29:31.983457
2848  2023-11-09 10:29:32.029464
2849  2023-11-09 10:29:32.077002
2850  2023-11-09 10:29:32.122950
2851  2023-11-09 10:29:32.170846
2852  2023-11-09 10:29:32.219833
2853  2023-11-09 10:29:32.266658
2854  2023-11-09 10:29:32.312788
2855  2023-11-09 10:29:32.360784
2856  2023-11-09 10:29:32.408777
2857  2023-11-09 10:29:32.454674
2858  2023-11-09 10:29:32.500530
2859  2023-11-09 10:29:32.548368
2860  2023-11-09 10:29:32.597286
2861  2023-11-09 10:29:32.644114
2862  2023-11-09 10:29:32.692021
2863  2023-11-09 10:29:32.738894
2864  2023-11-09 10:29:32.786757
2865  2023-11-09 10:29:32.833611
2866  2023-11-09 10:29:32.883511
2867  2023-11-09 10:29:32.928353
2868  2023-11-09 10:29:32.975228
2869  2023-11-09 10:29:33.022106
2870  2023-11-09 10:29:33.067981
2871  2023-11-09 10:29:33.114855
2872  2023-11-09 10:29:33.162783
2873  2023-11-09 10:29:33.210655
2874  2023-11-09 10:29:33.258527
2875  2023-11-09 10:29:33.306442
2876  2023-11-09 10:29:33.354357
2877  2023-11-09 10:29:33.402219
2878  2023-11-09 10:29:33.448100
2879  2023-11-09 10:29:33.493978
2880  2023-11-09 10:29:33.541844
2881  2023-11-09 10:29:33.588722
2882  2023-11-09 10:29:33.636593
2883  2023-11-09 10:29:33.684466
2884  2023-11-09 10:29:33.731308
2885  2023-11-09 10:29:33.778218
2886  2023-11-09 10:29:33.823062
2887  2023-11-09 10:29:33.870933
2888  2023-11-09 10:29:33.918889
2889  2023-11-09 10:29:33.966895
2890  2023-11-09 10:29:34.014027
2891  2023-11-09 10:29:34.061933
2892  2023-11-09 10:29:34.108774
2893  2023-11-09 10:29:34.156667
2894  2023-11-09 10:29:34.204582
2895  2023-11-09 10:29:34.252533
2896  2023-11-09 10:29:34.299174
2897  2023-11-09 10:29:34.346881
2898  2023-11-09 10:29:34.394865
2899  2023-11-09 10:29:34.442743
2900  2023-11-09 10:29:34.490700
2901  2023-11-09 10:29:34.538649
2902  2023-11-09 10:29:34.587519
2903  2023-11-09 10:29:34.634306
2904  2023-11-09 10:29:34.681670
2905  2023-11-09 10:29:34.727547
2906  2023-11-09 10:29:34.775493
2907  2023-11-09 10:29:34.822212
2908  2023-11-09 10:29:34.870138
2909  2023-11-09 10:29:34.918092
2910  2023-11-09 10:29:34.963967
2911  2023-11-09 10:29:35.011804
2912  2023-11-09 10:29:35.059728
2913  2023-11-09 10:29:35.107678
2914  2023-11-09 10:29:35.156541
2915  2023-11-09 10:29:35.204420
2916  2023-11-09 10:29:35.251252
2917  2023-11-09 10:29:35.299155
2918  2023-11-09 10:29:35.345999
2919  2023-11-09 10:29:35.390908
2920  2023-11-09 10:29:35.437753
2921  2023-11-09 10:29:35.485659
2922  2023-11-09 10:29:35.533650
2923  2023-11-09 10:29:35.579565
2924  2023-11-09 10:29:35.627594
2925  2023-11-09 10:29:35.675435
2926  2023-11-09 10:29:35.721359
2927  2023-11-09 10:29:35.769221
2928  2023-11-09 10:29:35.817089
2929  2023-11-09 10:29:35.864929
2930  2023-11-09 10:29:35.912834
2931  2023-11-09 10:29:35.960703
2932  2023-11-09 10:29:36.008575
2933  2023-11-09 10:29:36.056418
2934  2023-11-09 10:29:36.104289
2935  2023-11-09 10:29:36.152200
2936  2023-11-09 10:29:36.199067
2937  2023-11-09 10:29:36.246944
2938  2023-11-09 10:29:36.294812
2939  2023-11-09 10:29:36.342685
2940  2023-11-09 10:29:36.388563
2941  2023-11-09 10:29:36.436433
2942  2023-11-09 10:29:36.484273
2943  2023-11-09 10:29:36.532175
2944  2023-11-09 10:29:36.580049
2945  2023-11-09 10:29:36.627923
2946  2023-11-09 10:29:36.675793
2947  2023-11-09 10:29:36.723667
2948  2023-11-09 10:29:36.771506
2949  2023-11-09 10:29:36.819428
2950  2023-11-09 10:29:36.867281
2951  2023-11-09 10:29:36.915182
2952  2023-11-09 10:29:36.963025
2953  2023-11-09 10:29:37.010865
2954  2023-11-09 10:29:37.058777
2955  2023-11-09 10:29:37.104642
2956  2023-11-09 10:29:37.152519
2957  2023-11-09 10:29:37.200399
2958  2023-11-09 10:29:37.248266
2959  2023-11-09 10:29:37.296137
2960  2023-11-09 10:29:37.344022
2961  2023-11-09 10:29:37.391888
2962  2023-11-09 10:29:37.436726
2963  2023-11-09 10:29:37.483635
2964  2023-11-09 10:29:37.531473
2965  2023-11-09 10:29:37.579377
2966  2023-11-09 10:29:37.627336
2967  2023-11-09 10:29:37.675089
2968  2023-11-09 10:29:37.721996
2969  2023-11-09 10:29:37.766844
2970  2023-11-09 10:29:37.814751
2971  2023-11-09 10:29:37.860632
2972  2023-11-09 10:29:37.906594
2973  2023-11-09 10:29:37.954469
2974  2023-11-09 10:29:38.002415
2975  2023-11-09 10:29:38.049736
2976  2023-11-09 10:29:38.097657
2977  2023-11-09 10:29:38.145527
2978  2023-11-09 10:29:38.192385
2979  2023-11-09 10:29:38.239260
2980  2023-11-09 10:29:38.288052
2981  2023-11-09 10:29:38.335998
2982  2023-11-09 10:29:38.383831
2983  2023-11-09 10:29:38.431864
2984  2023-11-09 10:29:38.479749
2985  2023-11-09 10:29:38.524979
2986  2023-11-09 10:29:38.572930
2987  2023-11-09 10:29:38.620851
2988  2023-11-09 10:29:38.668674
2989  2023-11-09 10:29:38.716547
2990  2023-11-09 10:29:38.764418
2991  2023-11-09 10:29:38.810295
2992  2023-11-09 10:29:38.859202
2993  2023-11-09 10:29:38.906040
2994  2023-11-09 10:29:38.954944
2995  2023-11-09 10:29:38.999821
2996  2023-11-09 10:29:39.047694
2997  2023-11-09 10:29:39.095569
2998  2023-11-09 10:29:39.143494
2999  2023-11-09 10:29:39.191365
3000  2023-11-09 10:29:39.239308
3001  2023-11-09 10:29:39.287180
3002  2023-11-09 10:29:39.335189
3003  2023-11-09 10:29:39.383061
3004  2023-11-09 10:29:39.430934
3005  2023-11-09 10:29:39.478803
3006  2023-11-09 10:29:39.526642
3007  2023-11-09 10:29:39.572554
3008  2023-11-09 10:29:39.620424
3009  2023-11-09 10:29:39.668296
3010  2023-11-09 10:29:39.716135
3011  2023-11-09 10:29:39.762038
3012  2023-11-09 10:29:39.808920
3013  2023-11-09 10:29:39.854812
3014  2023-11-09 10:29:39.902707
3015  2023-11-09 10:29:39.950540
3016  2023-11-09 10:29:39.999451
3017  2023-11-09 10:29:40.046300
3018  2023-11-09 10:29:40.092219
3019  2023-11-09 10:29:40.139239
3020  2023-11-09 10:29:40.187011
3021  2023-11-09 10:29:40.231975
3022  2023-11-09 10:29:40.279847
3023  2023-11-09 10:29:40.327719
3024  2023-11-09 10:29:40.375591
3025  2023-11-09 10:29:40.423499
3026  2023-11-09 10:29:40.471370
3027  2023-11-09 10:29:40.519240
3028  2023-11-09 10:29:40.565115
3029  2023-11-09 10:29:40.613992
3030  2023-11-09 10:29:40.660863
3031  2023-11-09 10:29:40.708734
3032  2023-11-09 10:29:40.756631
3033  2023-11-09 10:29:40.804487
3034  2023-11-09 10:29:40.851356
3035  2023-11-09 10:29:40.899144
3036  2023-11-09 10:29:40.947138
3037  2023-11-09 10:29:40.994012
3038  2023-11-09 10:29:41.040858
3039  2023-11-09 10:29:41.088781
3040  2023-11-09 10:29:41.136635
3041  2023-11-09 10:29:41.184504
3042  2023-11-09 10:29:41.232073
3043  2023-11-09 10:29:41.277917
3044  2023-11-09 10:29:41.326825
3045  2023-11-09 10:29:41.373709
3046  2023-11-09 10:29:41.421565
3047  2023-11-09 10:29:41.467526
3048  2023-11-09 10:29:41.513777
3049  2023-11-09 10:29:41.561570
3050  2023-11-09 10:29:41.607600
3051  2023-11-09 10:29:41.654547
3052  2023-11-09 10:29:41.701423
3053  2023-11-09 10:29:41.748298
3054  2023-11-09 10:29:41.794173
3055  2023-11-09 10:29:41.841046
3056  2023-11-09 10:29:41.887938
3057  2023-11-09 10:29:41.935766
3058  2023-11-09 10:29:41.982671
3059  2023-11-09 10:29:42.028635
3060  2023-11-09 10:29:42.074552
3061  2023-11-09 10:29:42.121218
3062  2023-11-09 10:29:42.169122
3063  2023-11-09 10:29:42.215198
3064  2023-11-09 10:29:42.261912
3065  2023-11-09 10:29:42.309798
3066  2023-11-09 10:29:42.357584
3067  2023-11-09 10:29:42.405475
3068  2023-11-09 10:29:42.453454
3069  2023-11-09 10:29:42.501310
3070  2023-11-09 10:29:42.550144
3071  2023-11-09 10:29:42.597018
3072  2023-11-09 10:29:42.643864
3073  2023-11-09 10:29:42.690739
3074  2023-11-09 10:29:42.738706
3075  2023-11-09 10:29:42.786720
3076  2023-11-09 10:29:42.834734
3077  2023-11-09 10:29:42.882711
3078  2023-11-09 10:29:42.930592
3079  2023-11-09 10:29:42.976462
3080  2023-11-09 10:29:43.024329
3081  2023-11-09 10:29:43.072170
3082  2023-11-09 10:29:43.120091
3083  2023-11-09 10:29:43.167288
3084  2023-11-09 10:29:43.215160
3085  2023-11-09 10:29:43.263103
3086  2023-11-09 10:29:43.310968
3087  2023-11-09 10:29:43.358981
3088  2023-11-09 10:29:43.406856
3089  2023-11-09 10:29:43.453530
3090  2023-11-09 10:29:43.500477
3091  2023-11-09 10:29:43.549355
3092  2023-11-09 10:29:43.597251
3093  2023-11-09 10:29:43.645125
3094  2023-11-09 10:29:43.689007
3095  2023-11-09 10:29:43.736845
3096  2023-11-09 10:29:43.784717
3097  2023-11-09 10:29:43.832588
3098  2023-11-09 10:29:43.879463
3099  2023-11-09 10:29:43.926338
3100  2023-11-09 10:29:43.974210
3101  2023-11-09 10:29:44.022685
3102  2023-11-09 10:29:44.069603
3103  2023-11-09 10:29:44.117476
3104  2023-11-09 10:29:44.165384
3105  2023-11-09 10:29:44.213874
3106  2023-11-09 10:29:44.260853
3107  2023-11-09 10:29:44.308697
3108  2023-11-09 10:29:44.355658
3109  2023-11-09 10:29:44.401789
3110  2023-11-09 10:29:44.448758
3111  2023-11-09 10:29:44.496505
3112  2023-11-09 10:29:44.544105
3113  2023-11-09 10:29:44.591978
3114  2023-11-09 10:29:44.639854
3115  2023-11-09 10:29:44.687722
3116  2023-11-09 10:29:44.735594
3117  2023-11-09 10:29:44.783436
3118  2023-11-09 10:29:44.831309
3119  2023-11-09 10:29:44.879214
3120  2023-11-09 10:29:44.925311
3121  2023-11-09 10:29:44.972078
3122  2023-11-09 10:29:45.019000
3123  2023-11-09 10:29:45.066470
3124  2023-11-09 10:29:45.114511
3125  2023-11-09 10:29:45.163363
3126  2023-11-09 10:29:45.210237
3127  2023-11-09 10:29:45.259589
3128  2023-11-09 10:29:45.306654
3129  2023-11-09 10:29:45.354493
3130  2023-11-09 10:29:45.400370
3131  2023-11-09 10:29:45.447244
3132  2023-11-09 10:29:45.494151
3133  2023-11-09 10:29:45.540994
3134  2023-11-09 10:29:45.588866
3135  2023-11-09 10:29:45.636769
3136  2023-11-09 10:29:45.684610
3137  2023-11-09 10:29:45.730520
3138  2023-11-09 10:29:45.776399
3139  2023-11-09 10:29:45.824275
3140  2023-11-09 10:29:45.872142
3141  2023-11-09 10:29:45.920411
3142  2023-11-09 10:29:45.965326
3143  2023-11-09 10:29:46.013269
3144  2023-11-09 10:29:46.061142
3145  2023-11-09 10:29:46.109028
3146  2023-11-09 10:29:46.156808
3147  2023-11-09 10:29:46.204709
3148  2023-11-09 10:29:46.252578
3149  2023-11-09 10:29:46.298578
3150  2023-11-09 10:29:46.346332
3151  2023-11-09 10:29:46.394199
3152  2023-11-09 10:29:46.444073
3153  2023-11-09 10:29:46.489952
3154  2023-11-09 10:29:46.537821
3155  2023-11-09 10:29:46.586684
3156  2023-11-09 10:29:46.631530
3157  2023-11-09 10:29:46.680401
3158  2023-11-09 10:29:46.727323
3159  2023-11-09 10:29:46.775146
3160  2023-11-09 10:29:46.823052
3161  2023-11-09 10:29:46.870890
3162  2023-11-09 10:29:46.916767
3163  2023-11-09 10:29:46.964731
3164  2023-11-09 10:29:47.012633
3165  2023-11-09 10:29:47.058560
3166  2023-11-09 10:29:47.106400
3167  2023-11-09 10:29:47.153516
3168  2023-11-09 10:29:47.200378
3169  2023-11-09 10:29:47.248249
3170  2023-11-09 10:29:47.296121
3171  2023-11-09 10:29:47.343963
3172  2023-11-09 10:29:47.391890
3173  2023-11-09 10:29:47.439741
3174  2023-11-09 10:29:47.487612
3175  2023-11-09 10:29:47.533494
3176  2023-11-09 10:29:47.581362
3177  2023-11-09 10:29:47.629258
3178  2023-11-09 10:29:47.677102
3179  2023-11-09 10:29:47.724981
3180  2023-11-09 10:29:47.772846
3181  2023-11-09 10:29:47.820756
3182  2023-11-09 10:29:47.868759
3183  2023-11-09 10:29:47.916634
3184  2023-11-09 10:29:47.962511
3185  2023-11-09 10:29:48.010466
3186  2023-11-09 10:29:48.060296
3187  2023-11-09 10:29:48.107331
3188  2023-11-09 10:29:48.152215
3189  2023-11-09 10:29:48.201100
3190  2023-11-09 10:29:48.245924
3191  2023-11-09 10:29:48.292790
3192  2023-11-09 10:29:48.339665
3193  2023-11-09 10:29:48.386540
3194  2023-11-09 10:29:48.434453
3195  2023-11-09 10:29:48.482285
3196  2023-11-09 10:29:48.530189
3197  2023-11-09 10:29:48.578028
3198  2023-11-09 10:29:48.624938
3199  2023-11-09 10:29:48.671807
3200  2023-11-09 10:29:48.719873
3201  2023-11-09 10:29:48.767788
3202  2023-11-09 10:29:48.815630
3203  2023-11-09 10:29:48.863556
3204  2023-11-09 10:29:48.911406
3205  2023-11-09 10:29:48.959295
3206  2023-11-09 10:29:49.007118
3207  2023-11-09 10:29:49.055021
3208  2023-11-09 10:29:49.102897
3209  2023-11-09 10:29:49.150341
3210  2023-11-09 10:29:49.199317
3211  2023-11-09 10:29:49.246193
3212  2023-11-09 10:29:49.294060
3213  2023-11-09 10:29:49.341936
3214  2023-11-09 10:29:49.389817
3215  2023-11-09 10:29:49.437676
3216  2023-11-09 10:29:49.484564
3217  2023-11-09 10:29:49.531477
3218  2023-11-09 10:29:49.579349
3219  2023-11-09 10:29:49.627357
3220  2023-11-09 10:29:49.675219
3221  2023-11-09 10:29:49.723089
3222  2023-11-09 10:29:49.771037
3223  2023-11-09 10:29:49.819960
3224  2023-11-09 10:29:49.865885
3225  2023-11-09 10:29:49.913733
3226  2023-11-09 10:29:49.961610
3227  2023-11-09 10:29:50.009606
3228  2023-11-09 10:29:50.060347
3229  2023-11-09 10:29:50.103343
3230  2023-11-09 10:29:50.149389
3231  2023-11-09 10:29:50.199293
3232  2023-11-09 10:29:50.245132
3233  2023-11-09 10:29:50.293042
3234  2023-11-09 10:29:50.340403
3235  2023-11-09 10:29:50.388275
3236  2023-11-09 10:29:50.436222
3237  2023-11-09 10:29:50.483685
3238  2023-11-09 10:29:50.530103
3239  2023-11-09 10:29:50.575980
3240  2023-11-09 10:29:50.622856
3241  2023-11-09 10:29:50.670728
3242  2023-11-09 10:29:50.718833
3243  2023-11-09 10:29:50.766679
3244  2023-11-09 10:29:50.814657
3245  2023-11-09 10:29:50.861570
3246  2023-11-09 10:29:50.908438
3247  2023-11-09 10:29:50.956328
3248  2023-11-09 10:29:51.004278
3249  2023-11-09 10:29:51.052158
3250  2023-11-09 10:29:51.101000
3251  2023-11-09 10:29:51.147892
3252  2023-11-09 10:29:51.195735
3253  2023-11-09 10:29:51.243637
3254  2023-11-09 10:29:51.291510
3255  2023-11-09 10:29:51.339349
3256  2023-11-09 10:29:51.386248
3257  2023-11-09 10:29:51.433132
3258  2023-11-09 10:29:51.481051
3259  2023-11-09 10:29:51.527968
3260  2023-11-09 10:29:51.574834
3261  2023-11-09 10:29:51.624715
3262  2023-11-09 10:29:51.670589
3263  2023-11-09 10:29:51.718453
3264  2023-11-09 10:29:51.763328
3265  2023-11-09 10:29:51.809458
3266  2023-11-09 10:29:51.856304
3267  2023-11-09 10:29:51.904219
3268  2023-11-09 10:29:51.950261
3269  2023-11-09 10:29:51.997100
3270  2023-11-09 10:29:52.044971
3271  2023-11-09 10:29:52.093854
3272  2023-11-09 10:29:52.140745
3273  2023-11-09 10:29:52.188640
3274  2023-11-09 10:29:52.236493
3275  2023-11-09 10:29:52.283872
3276  2023-11-09 10:29:52.331875
3277  2023-11-09 10:29:52.379777
3278  2023-11-09 10:29:52.427667
3279  2023-11-09 10:29:52.474524
3280  2023-11-09 10:29:52.523411
3281  2023-11-09 10:29:52.569272
3282  2023-11-09 10:29:52.617146
3283  2023-11-09 10:29:52.662028
3284  2023-11-09 10:29:52.709912
3285  2023-11-09 10:29:52.754778
3286  2023-11-09 10:29:52.801653
3287  2023-11-09 10:29:52.847403
3288  2023-11-09 10:29:52.895306
3289  2023-11-09 10:29:52.943147
3290  2023-11-09 10:29:52.991050
3291  2023-11-09 10:29:53.038891
3292  2023-11-09 10:29:53.084769
3293  2023-11-09 10:29:53.130768
3294  2023-11-09 10:29:53.178642
3295  2023-11-09 10:29:53.226523
3296  2023-11-09 10:29:53.274391
3297  2023-11-09 10:29:53.323254
3298  2023-11-09 10:29:53.370130
3299  2023-11-09 10:29:53.417017
3300  2023-11-09 10:29:53.464876
3301  2023-11-09 10:29:53.510760
3302  2023-11-09 10:29:53.559626
3303  2023-11-09 10:29:53.607501
3304  2023-11-09 10:29:53.652378
3305  2023-11-09 10:29:53.698384
3306  2023-11-09 10:29:53.746154
3307  2023-11-09 10:29:53.794064
3308  2023-11-09 10:29:53.840901
3309  2023-11-09 10:29:53.888817
3310  2023-11-09 10:29:53.935685
3311  2023-11-09 10:29:53.981525
3312  2023-11-09 10:29:54.029435
3313  2023-11-09 10:29:54.075308
3314  2023-11-09 10:29:54.123177
3315  2023-11-09 10:29:54.169056
3316  2023-11-09 10:29:54.216937
3317  2023-11-09 10:29:54.264769
3318  2023-11-09 10:29:54.312672
3319  2023-11-09 10:29:54.360551
3320  2023-11-09 10:29:54.408417
3321  2023-11-09 10:29:54.456301
3322  2023-11-09 10:29:54.503295
3323  2023-11-09 10:29:54.550044
3324  2023-11-09 10:29:54.595917
3325  2023-11-09 10:29:54.640764
3326  2023-11-09 10:29:54.686681
3327  2023-11-09 10:29:54.733553
3328  2023-11-09 10:29:54.781388
3329  2023-11-09 10:29:54.829287
3330  2023-11-09 10:29:54.877132
3331  2023-11-09 10:29:54.926034
3332  2023-11-09 10:29:54.972909
3333  2023-11-09 10:29:55.020782
3334  2023-11-09 10:29:55.068656
3335  2023-11-09 10:29:55.116492
3336  2023-11-09 10:29:55.163512
3337  2023-11-09 10:29:55.210386
3338  2023-11-09 10:29:55.258306
3339  2023-11-09 10:29:55.306210
3340  2023-11-09 10:29:55.355213
3341  2023-11-09 10:29:55.402097
3342  2023-11-09 10:29:55.448962
3343  2023-11-09 10:29:55.495067
3344  2023-11-09 10:29:55.542000
3345  2023-11-09 10:29:55.588919
3346  2023-11-09 10:29:55.637742
3347  2023-11-09 10:29:55.685724
3348  2023-11-09 10:29:55.733593
3349  2023-11-09 10:29:55.779478
3350  2023-11-09 10:29:55.824391
3351  2023-11-09 10:29:55.871277
3352  2023-11-09 10:29:55.919103
3353  2023-11-09 10:29:55.964981
3354  2023-11-09 10:29:56.013035
3355  2023-11-09 10:29:56.060868
3356  2023-11-09 10:29:56.108094
3357  2023-11-09 10:29:56.154747
3358  2023-11-09 10:29:56.200571
3359  2023-11-09 10:29:56.247893
3360  2023-11-09 10:29:56.293932
3361  2023-11-09 10:29:56.341865
3362  2023-11-09 10:29:56.388814
3363  2023-11-09 10:29:56.436810
3364  2023-11-09 10:29:56.483652
3365  2023-11-09 10:29:56.531559
3366  2023-11-09 10:29:56.606324
3367  2023-11-09 10:29:56.665167
3368  2023-11-09 10:29:56.707056
3369  2023-11-09 10:29:56.750937
3370  2023-11-09 10:29:56.796815
3371  2023-11-09 10:29:56.842691
3372  2023-11-09 10:29:56.890564
3373  2023-11-09 10:29:56.938448
3374  2023-11-09 10:29:56.987350
3375  2023-11-09 10:29:57.034180
3376  2023-11-09 10:29:57.083094
3377  2023-11-09 10:29:57.129955
3378  2023-11-09 10:29:57.176798
3379  2023-11-09 10:29:57.223711
3380  2023-11-09 10:29:57.271550
3381  2023-11-09 10:29:57.319457
3382  2023-11-09 10:29:57.367325
3383  2023-11-09 10:29:57.414163
3384  2023-11-09 10:29:57.481032
3385  2023-11-09 10:29:57.508990
3386  2023-11-09 10:29:57.556829
3387  2023-11-09 10:29:57.602086
3388  2023-11-09 10:29:57.649993
3389  2023-11-09 10:29:57.695906
3390  2023-11-09 10:29:57.745861
3391  2023-11-09 10:29:57.794723
3392  2023-11-09 10:29:57.838701
3393  2023-11-09 10:29:57.905522
3394  2023-11-09 10:29:57.941426
3395  2023-11-09 10:29:57.979326
3396  2023-11-09 10:29:58.024205
3397  2023-11-09 10:29:58.070083
3398  2023-11-09 10:29:58.115969
3399  2023-11-09 10:29:58.164830
3400  2023-11-09 10:29:58.210706
3401  2023-11-09 10:29:58.258819
3402  2023-11-09 10:29:58.308570
3403  2023-11-09 10:29:58.353453
3404  2023-11-09 10:29:58.398355
3405  2023-11-09 10:29:58.444294
3406  2023-11-09 10:29:58.492167
3407  2023-11-09 10:29:58.540286
3408  2023-11-09 10:29:58.587390
3409  2023-11-09 10:29:58.634241
3410  2023-11-09 10:29:58.680532
3411  2023-11-09 10:29:58.726411
3412  2023-11-09 10:29:58.773284
3413  2023-11-09 10:29:58.822190
3414  2023-11-09 10:29:58.869124
3415  2023-11-09 10:29:58.917968
3416  2023-11-09 10:29:58.962957
3417  2023-11-09 10:29:59.010781
3418  2023-11-09 10:29:59.059668
3419  2023-11-09 10:29:59.107370
3420  2023-11-09 10:29:59.155773
3421  2023-11-09 10:29:59.200704
3422  2023-11-09 10:29:59.248567
3423  2023-11-09 10:29:59.296441
3424  2023-11-09 10:29:59.342283
3425  2023-11-09 10:29:59.389160
3426  2023-11-09 10:29:59.437064
3427  2023-11-09 10:29:59.484913
3428  2023-11-09 10:29:59.532808
3429  2023-11-09 10:29:59.580614
3430  2023-11-09 10:29:59.628583
3431  2023-11-09 10:29:59.674530
3432  2023-11-09 10:29:59.721462
3433  2023-11-09 10:29:59.767282
3434  2023-11-09 10:29:59.814265
3435  2023-11-09 10:29:59.861928
3436  2023-11-09 10:29:59.909771
3437  2023-11-09 10:29:59.957675
3438  2023-11-09 10:30:00.005549
3439  2023-11-09 10:30:00.053386
3440  2023-11-09 10:30:00.101292
3441  2023-11-09 10:30:00.150192
3442  2023-11-09 10:30:00.197053
3443  2023-11-09 10:30:00.244948
3444  2023-11-09 10:30:00.292820
3445  2023-11-09 10:30:00.340690
3446  2023-11-09 10:30:00.386566
3447  2023-11-09 10:30:00.434445
3448  2023-11-09 10:30:00.482310
3449  2023-11-09 10:30:00.530275
3450  2023-11-09 10:30:00.578243
3451  2023-11-09 10:30:00.626109
3452  2023-11-09 10:30:00.675056
3453  2023-11-09 10:30:00.719904
3454  2023-11-09 10:30:00.767775
3455  2023-11-09 10:30:00.812725
3456  2023-11-09 10:30:00.858784
3457  2023-11-09 10:30:00.905698
3458  2023-11-09 10:30:00.952432
3459  2023-11-09 10:30:00.999306
3460  2023-11-09 10:30:01.047176
3461  2023-11-09 10:30:01.095088
3462  2023-11-09 10:30:01.142960
3463  2023-11-09 10:30:01.191791
3464  2023-11-09 10:30:01.238701
3465  2023-11-09 10:30:01.286537
3466  2023-11-09 10:30:01.334581
3467  2023-11-09 10:30:01.382310
3468  2023-11-09 10:30:01.430203
3469  2023-11-09 10:30:01.477108
3470  2023-11-09 10:30:01.523949
3471  2023-11-09 10:30:01.570827
3472  2023-11-09 10:30:01.617770
3473  2023-11-09 10:30:01.665772
3474  2023-11-09 10:30:01.713604
3475  2023-11-09 10:30:01.759513
3476  2023-11-09 10:30:01.807380
3477  2023-11-09 10:30:01.855270
3478  2023-11-09 10:30:01.903137
3479  2023-11-09 10:30:01.948978
3480  2023-11-09 10:30:01.997844
3481  2023-11-09 10:30:02.042723
3482  2023-11-09 10:30:02.092591
3483  2023-11-09 10:30:02.141460
3484  2023-11-09 10:30:02.187337
3485  2023-11-09 10:30:02.232216
3486  2023-11-09 10:30:02.280088
3487  2023-11-09 10:30:02.327961
3488  2023-11-09 10:30:02.375832
3489  2023-11-09 10:30:02.423705
3490  2023-11-09 10:30:02.471612
3491  2023-11-09 10:30:02.519448
3492  2023-11-09 10:30:02.567320
3493  2023-11-09 10:30:02.615226
3494  2023-11-09 10:30:02.663102
3495  2023-11-09 10:30:02.711003
3496  2023-11-09 10:30:02.757033
3497  2023-11-09 10:30:02.804906
3498  2023-11-09 10:30:02.850777
3499  2023-11-09 10:30:02.898648
3500  2023-11-09 10:30:02.946525
3501  2023-11-09 10:30:02.993411
3502  2023-11-09 10:30:03.041110
3503  2023-11-09 10:30:03.089071
3504  2023-11-09 10:30:03.136911
3505  2023-11-09 10:30:03.185894
3506  2023-11-09 10:30:03.232739
3507  2023-11-09 10:30:03.280512
3508  2023-11-09 10:30:03.329566
3509  2023-11-09 10:30:03.376532
3510  2023-11-09 10:30:03.425391
3511  2023-11-09 10:30:03.472260
3512  2023-11-09 10:30:03.520159
3513  2023-11-09 10:30:03.569018
3514  2023-11-09 10:30:03.613898
3515  2023-11-09 10:30:03.661760
3516  2023-11-09 10:30:03.710592
3517  2023-11-09 10:30:03.755477
3518  2023-11-09 10:30:03.803379
3519  2023-11-09 10:30:03.851217
3520  2023-11-09 10:30:03.899090
3521  2023-11-09 10:30:03.946993
3522  2023-11-09 10:30:03.994867
3523  2023-11-09 10:30:04.042704
3524  2023-11-09 10:30:04.090607
3525  2023-11-09 10:30:04.138448
3526  2023-11-09 10:30:04.186352
3527  2023-11-09 10:30:04.234222
3528  2023-11-09 10:30:04.283139
3529  2023-11-09 10:30:04.330095
3530  2023-11-09 10:30:04.378010
3531  2023-11-09 10:30:04.426909
3532  2023-11-09 10:30:04.473754
3533  2023-11-09 10:30:04.522626
3534  2023-11-09 10:30:04.569531
3535  2023-11-09 10:30:04.617370
3536  2023-11-09 10:30:04.665278
3537  2023-11-09 10:30:04.713114
3538  2023-11-09 10:30:04.761024
3539  2023-11-09 10:30:04.807861
3540  2023-11-09 10:30:04.853781
3541  2023-11-09 10:30:04.900654
3542  2023-11-09 10:30:04.948515
3543  2023-11-09 10:30:04.996390
3544  2023-11-09 10:30:05.044261
3545  2023-11-09 10:30:05.092136
3546  2023-11-09 10:30:05.140009
3547  2023-11-09 10:30:05.187874
3548  2023-11-09 10:30:05.235761
3549  2023-11-09 10:30:05.282628
3550  2023-11-09 10:30:05.330500
3551  2023-11-09 10:30:05.378384
3552  2023-11-09 10:30:05.424245
3553  2023-11-09 10:30:05.472129
3554  2023-11-09 10:30:05.520988
3555  2023-11-09 10:30:05.567861
3556  2023-11-09 10:30:05.614737
3557  2023-11-09 10:30:05.662614
3558  2023-11-09 10:30:05.710481
3559  2023-11-09 10:30:05.758320
3560  2023-11-09 10:30:05.807225
3561  2023-11-09 10:30:05.853113
