
1  2023-10-19 14:51:17.668005
2  2023-10-19 14:51:17.714917
3  2023-10-19 14:51:17.747855
4  2023-10-19 14:51:17.779746
5  2023-10-19 14:51:17.811677
6  2023-10-19 14:51:17.843581
7  2023-10-19 14:51:17.875493
8  2023-10-19 14:51:17.907405
9  2023-10-19 14:51:17.939323
10  2023-10-19 14:51:17.971237
11  2023-10-19 14:51:18.003170
12  2023-10-19 14:51:18.036063
13  2023-10-19 14:51:18.067998
14  2023-10-19 14:51:18.115820
15  2023-10-19 14:51:18.147773
16  2023-10-19 14:51:18.179682
17  2023-10-19 14:51:18.211592
18  2023-10-19 14:51:18.243518
19  2023-10-19 14:51:18.275428
20  2023-10-19 14:51:18.307335
21  2023-10-19 14:51:18.339252
22  2023-10-19 14:51:18.371170
23  2023-10-19 14:51:18.403093
24  2023-10-19 14:51:18.435993
25  2023-10-19 14:51:18.467931
26  2023-10-19 14:51:18.515739
27  2023-10-19 14:51:18.547691
28  2023-10-19 14:51:18.579607
29  2023-10-19 14:51:18.611525
30  2023-10-19 14:51:18.643439
31  2023-10-19 14:51:18.675310
32  2023-10-19 14:51:18.707227
33  2023-10-19 14:51:18.739151
34  2023-10-19 14:51:18.771060
35  2023-10-19 14:51:18.803971
36  2023-10-19 14:51:18.835935
37  2023-10-19 14:51:18.867836
38  2023-10-19 14:51:18.915670
39  2023-10-19 14:51:18.947620
40  2023-10-19 14:51:18.979531
41  2023-10-19 14:51:19.011452
42  2023-10-19 14:51:19.043355
43  2023-10-19 14:51:19.075274
44  2023-10-19 14:51:19.107197
45  2023-10-19 14:51:19.140111
46  2023-10-19 14:51:19.171027
47  2023-10-19 14:51:19.203900
48  2023-10-19 14:51:19.235812
49  2023-10-19 14:51:19.267727
50  2023-10-19 14:51:19.315672
51  2023-10-19 14:51:19.347593
52  2023-10-19 14:51:19.379478
53  2023-10-19 14:51:19.411394
54  2023-10-19 14:51:19.443296
55  2023-10-19 14:51:19.475208
56  2023-10-19 14:51:19.507146
57  2023-10-19 14:51:19.539002
58  2023-10-19 14:51:19.570953
59  2023-10-19 14:51:19.603875
60  2023-10-19 14:51:19.635784
61  2023-10-19 14:51:19.667703
62  2023-10-19 14:51:19.715578
63  2023-10-19 14:51:19.747487
64  2023-10-19 14:51:19.779390
65  2023-10-19 14:51:19.811323
66  2023-10-19 14:51:19.843242
67  2023-10-19 14:51:19.875169
68  2023-10-19 14:51:19.907054
69  2023-10-19 14:51:19.939976
70  2023-10-19 14:51:19.971878
71  2023-10-19 14:51:20.003798
72  2023-10-19 14:51:20.035718
73  2023-10-19 14:51:20.067632
74  2023-10-19 14:51:20.115488
75  2023-10-19 14:51:20.147406
76  2023-10-19 14:51:20.179328
77  2023-10-19 14:51:20.211249
78  2023-10-19 14:51:20.243155
79  2023-10-19 14:51:20.275092
80  2023-10-19 14:51:20.307977
81  2023-10-19 14:51:20.339905
82  2023-10-19 14:51:20.371826
83  2023-10-19 14:51:20.403721
84  2023-10-19 14:51:20.435639
85  2023-10-19 14:51:20.467562
86  2023-10-19 14:51:20.515441
87  2023-10-19 14:51:20.547340
88  2023-10-19 14:51:20.579264
89  2023-10-19 14:51:20.611163
90  2023-10-19 14:51:20.643084
91  2023-10-19 14:51:20.675006
92  2023-10-19 14:51:20.707913
93  2023-10-19 14:51:20.739855
94  2023-10-19 14:51:20.771737
95  2023-10-19 14:51:20.803618
96  2023-10-19 14:51:20.835565
97  2023-10-19 14:51:20.867499
98  2023-10-19 14:51:20.915355
99  2023-10-19 14:51:20.947291
100  2023-10-19 14:51:20.979185
101  2023-10-19 14:51:21.011096
102  2023-10-19 14:51:21.043018
103  2023-10-19 14:51:21.075935
104  2023-10-19 14:51:21.107843
105  2023-10-19 14:51:21.139773
106  2023-10-19 14:51:21.171669
107  2023-10-19 14:51:21.203576
108  2023-10-19 14:51:21.235520
109  2023-10-19 14:51:21.267413
110  2023-10-19 14:51:21.315308
111  2023-10-19 14:51:21.347202
112  2023-10-19 14:51:21.379143
113  2023-10-19 14:51:21.411037
114  2023-10-19 14:51:21.443933
115  2023-10-19 14:51:21.475847
116  2023-10-19 14:51:21.507779
117  2023-10-19 14:51:21.539689
118  2023-10-19 14:51:21.571604
119  2023-10-19 14:51:21.603521
120  2023-10-19 14:51:21.635431
121  2023-10-19 14:51:21.667348
122  2023-10-19 14:51:21.715212
123  2023-10-19 14:51:21.747149
124  2023-10-19 14:51:21.780007
125  2023-10-19 14:51:21.810970
126  2023-10-19 14:51:21.843868
127  2023-10-19 14:51:21.875750
128  2023-10-19 14:51:21.907718
129  2023-10-19 14:51:21.939630
130  2023-10-19 14:51:21.971535
131  2023-10-19 14:51:22.003442
132  2023-10-19 14:51:22.036356
133  2023-10-19 14:51:22.068273
134  2023-10-19 14:51:22.115112
135  2023-10-19 14:51:22.147062
136  2023-10-19 14:51:22.179974
137  2023-10-19 14:51:22.211896
138  2023-10-19 14:51:22.243803
139  2023-10-19 14:51:22.275716
140  2023-10-19 14:51:22.307638
141  2023-10-19 14:51:22.339555
142  2023-10-19 14:51:22.371461
143  2023-10-19 14:51:22.403374
144  2023-10-19 14:51:22.435289
145  2023-10-19 14:51:22.467219
146  2023-10-19 14:51:22.515101
147  2023-10-19 14:51:22.547004
148  2023-10-19 14:51:22.579902
149  2023-10-19 14:51:22.611825
150  2023-10-19 14:51:22.643734
151  2023-10-19 14:51:22.675646
152  2023-10-19 14:51:22.707561
153  2023-10-19 14:51:22.739492
154  2023-10-19 14:51:22.771388
155  2023-10-19 14:51:22.803325
156  2023-10-19 14:51:22.835229
157  2023-10-19 14:51:22.867149
158  2023-10-19 14:51:22.915013
159  2023-10-19 14:51:22.947883
160  2023-10-19 14:51:22.979839
161  2023-10-19 14:51:23.011765
162  2023-10-19 14:51:23.043659
163  2023-10-19 14:51:23.075574
164  2023-10-19 14:51:23.107488
165  2023-10-19 14:51:23.139421
166  2023-10-19 14:51:23.171331
167  2023-10-19 14:51:23.203245
168  2023-10-19 14:51:23.235150
169  2023-10-19 14:51:23.267074
170  2023-10-19 14:51:23.314937
171  2023-10-19 14:51:23.347849
172  2023-10-19 14:51:23.379772
173  2023-10-19 14:51:23.411685
174  2023-10-19 14:51:23.443596
175  2023-10-19 14:51:23.475508
176  2023-10-19 14:51:23.507386
177  2023-10-19 14:51:23.539337
178  2023-10-19 14:51:23.571252
179  2023-10-19 14:51:23.603166
180  2023-10-19 14:51:23.635084
181  2023-10-19 14:51:23.666995
182  2023-10-19 14:51:23.715862
183  2023-10-19 14:51:23.747777
184  2023-10-19 14:51:23.779714
185  2023-10-19 14:51:23.811605
186  2023-10-19 14:51:23.843539
187  2023-10-19 14:51:23.875435
188  2023-10-19 14:51:23.907349
189  2023-10-19 14:51:23.939268
190  2023-10-19 14:51:23.971180
191  2023-10-19 14:51:24.003115
192  2023-10-19 14:51:24.035975
193  2023-10-19 14:51:24.067887
194  2023-10-19 14:51:24.115794
195  2023-10-19 14:51:24.147717
196  2023-10-19 14:51:24.179643
197  2023-10-19 14:51:24.211545
198  2023-10-19 14:51:24.243417
199  2023-10-19 14:51:24.275369
200  2023-10-19 14:51:24.307307
201  2023-10-19 14:51:24.339219
202  2023-10-19 14:51:24.371126
203  2023-10-19 14:51:24.403039
204  2023-10-19 14:51:24.435943
205  2023-10-19 14:51:24.467858
206  2023-10-19 14:51:24.515722
207  2023-10-19 14:51:24.547643
208  2023-10-19 14:51:24.579545
209  2023-10-19 14:51:24.611476
210  2023-10-19 14:51:24.643401
211  2023-10-19 14:51:24.675291
212  2023-10-19 14:51:24.707216
213  2023-10-19 14:51:24.740090
214  2023-10-19 14:51:24.772005
215  2023-10-19 14:51:24.803960
216  2023-10-19 14:51:24.835834
217  2023-10-19 14:51:24.867747
218  2023-10-19 14:51:24.915670
219  2023-10-19 14:51:24.947579
220  2023-10-19 14:51:24.979494
221  2023-10-19 14:51:25.011399
222  2023-10-19 14:51:25.043312
223  2023-10-19 14:51:25.076191
224  2023-10-19 14:51:25.108105
225  2023-10-19 14:51:25.140021
226  2023-10-19 14:51:25.171986
227  2023-10-19 14:51:25.203851
228  2023-10-19 14:51:25.235764
229  2023-10-19 14:51:25.267679
230  2023-10-19 14:51:25.315551
231  2023-10-19 14:51:25.347466
232  2023-10-19 14:51:25.379380
233  2023-10-19 14:51:25.411295
234  2023-10-19 14:51:25.443210
235  2023-10-19 14:51:25.475123
236  2023-10-19 14:51:25.507039
237  2023-10-19 14:51:25.539952
238  2023-10-19 14:51:25.571867
239  2023-10-19 14:51:25.603779
240  2023-10-19 14:51:25.635694
241  2023-10-19 14:51:25.667609
242  2023-10-19 14:51:25.715506
243  2023-10-19 14:51:25.747396
244  2023-10-19 14:51:25.780334
245  2023-10-19 14:51:25.811226
246  2023-10-19 14:51:25.843140
247  2023-10-19 14:51:25.875054
248  2023-10-19 14:51:25.907967
249  2023-10-19 14:51:25.939881
250  2023-10-19 14:51:25.971794
251  2023-10-19 14:51:26.003719
252  2023-10-19 14:51:26.035625
253  2023-10-19 14:51:26.067540
254  2023-10-19 14:51:26.115458
255  2023-10-19 14:51:26.147326
256  2023-10-19 14:51:26.179240
257  2023-10-19 14:51:26.211153
258  2023-10-19 14:51:26.243069
259  2023-10-19 14:51:26.275982
260  2023-10-19 14:51:26.307896
261  2023-10-19 14:51:26.339818
262  2023-10-19 14:51:26.371726
263  2023-10-19 14:51:26.403640
264  2023-10-19 14:51:26.435556
265  2023-10-19 14:51:26.467474
266  2023-10-19 14:51:26.515343
267  2023-10-19 14:51:26.547257
268  2023-10-19 14:51:26.579170
269  2023-10-19 14:51:26.611086
270  2023-10-19 14:51:26.643000
271  2023-10-19 14:51:26.674914
272  2023-10-19 14:51:26.707826
273  2023-10-19 14:51:26.739740
274  2023-10-19 14:51:26.771696
275  2023-10-19 14:51:26.803570
276  2023-10-19 14:51:26.835511
277  2023-10-19 14:51:26.867433
278  2023-10-19 14:51:26.915300
279  2023-10-19 14:51:26.947188
280  2023-10-19 14:51:26.979102
281  2023-10-19 14:51:27.011018
282  2023-10-19 14:51:27.043962
283  2023-10-19 14:51:27.075888
284  2023-10-19 14:51:27.107756
285  2023-10-19 14:51:27.139672
286  2023-10-19 14:51:27.171622
287  2023-10-19 14:51:27.203527
288  2023-10-19 14:51:27.235416
289  2023-10-19 14:51:27.267328
290  2023-10-19 14:51:27.315202
291  2023-10-19 14:51:27.347116
292  2023-10-19 14:51:27.379033
293  2023-10-19 14:51:27.411943
294  2023-10-19 14:51:27.443915
295  2023-10-19 14:51:27.475815
296  2023-10-19 14:51:27.507687
297  2023-10-19 14:51:27.539601
298  2023-10-19 14:51:27.571516
299  2023-10-19 14:51:27.603480
300  2023-10-19 14:51:27.635374
301  2023-10-19 14:51:27.667297
302  2023-10-19 14:51:27.715171
303  2023-10-19 14:51:27.747046
304  2023-10-19 14:51:27.779959
305  2023-10-19 14:51:27.811872
306  2023-10-19 14:51:27.843826
307  2023-10-19 14:51:27.875730
308  2023-10-19 14:51:27.907617
309  2023-10-19 14:51:27.939561
310  2023-10-19 14:51:27.971446
311  2023-10-19 14:51:28.003361
312  2023-10-19 14:51:28.035276
313  2023-10-19 14:51:28.067191
314  2023-10-19 14:51:28.115099
315  2023-10-19 14:51:28.146978
316  2023-10-19 14:51:28.179889
317  2023-10-19 14:51:28.211803
318  2023-10-19 14:51:28.243752
319  2023-10-19 14:51:28.275668
320  2023-10-19 14:51:28.307547
321  2023-10-19 14:51:28.339460
322  2023-10-19 14:51:28.371380
323  2023-10-19 14:51:28.403329
324  2023-10-19 14:51:28.435206
325  2023-10-19 14:51:28.467121
326  2023-10-19 14:51:28.515020
327  2023-10-19 14:51:28.547955
328  2023-10-19 14:51:28.579820
329  2023-10-19 14:51:28.611765
330  2023-10-19 14:51:28.643689
331  2023-10-19 14:51:28.675601
332  2023-10-19 14:51:28.707523
333  2023-10-19 14:51:28.739426
334  2023-10-19 14:51:28.771347
335  2023-10-19 14:51:28.803258
336  2023-10-19 14:51:28.835172
337  2023-10-19 14:51:28.867091
338  2023-10-19 14:51:28.915964
339  2023-10-19 14:51:28.947886
340  2023-10-19 14:51:28.979775
341  2023-10-19 14:51:29.011696
342  2023-10-19 14:51:29.043613
343  2023-10-19 14:51:29.075493
344  2023-10-19 14:51:29.107443
345  2023-10-19 14:51:29.139350
346  2023-10-19 14:51:29.171269
347  2023-10-19 14:51:29.203199
348  2023-10-19 14:51:29.235103
349  2023-10-19 14:51:29.268022
350  2023-10-19 14:51:29.315859
351  2023-10-19 14:51:29.347809
352  2023-10-19 14:51:29.379724
353  2023-10-19 14:51:29.411597
354  2023-10-19 14:51:29.443556
355  2023-10-19 14:51:29.475456
356  2023-10-19 14:51:29.507368
357  2023-10-19 14:51:29.539289
358  2023-10-19 14:51:29.571167
359  2023-10-19 14:51:29.603081
360  2023-10-19 14:51:29.634996
361  2023-10-19 14:51:29.667938
362  2023-10-19 14:51:29.715819
363  2023-10-19 14:51:29.747723
364  2023-10-19 14:51:29.779610
365  2023-10-19 14:51:29.811524
366  2023-10-19 14:51:29.843477
367  2023-10-19 14:51:29.875389
368  2023-10-19 14:51:29.907307
369  2023-10-19 14:51:29.939219
370  2023-10-19 14:51:29.971096
371  2023-10-19 14:51:30.003012
372  2023-10-19 14:51:30.035924
373  2023-10-19 14:51:30.067875
374  2023-10-19 14:51:30.115739
375  2023-10-19 14:51:30.147625
376  2023-10-19 14:51:30.179572
377  2023-10-19 14:51:30.211481
378  2023-10-19 14:51:30.243402
379  2023-10-19 14:51:30.275328
380  2023-10-19 14:51:30.307229
381  2023-10-19 14:51:30.339147
382  2023-10-19 14:51:30.371053
383  2023-10-19 14:51:30.402976
384  2023-10-19 14:51:30.435893
385  2023-10-19 14:51:30.467806
386  2023-10-19 14:51:30.515641
387  2023-10-19 14:51:30.547591
388  2023-10-19 14:51:30.579470
389  2023-10-19 14:51:30.611419
390  2023-10-19 14:51:30.643298
391  2023-10-19 14:51:30.675241
392  2023-10-19 14:51:30.707182
393  2023-10-19 14:51:30.739088
394  2023-10-19 14:51:30.770992
395  2023-10-19 14:51:30.803868
396  2023-10-19 14:51:30.835825
397  2023-10-19 14:51:30.867733
398  2023-10-19 14:51:30.915625
399  2023-10-19 14:51:30.947515
400  2023-10-19 14:51:30.979433
401  2023-10-19 14:51:31.011313
402  2023-10-19 14:51:31.043232
403  2023-10-19 14:51:31.075174
404  2023-10-19 14:51:31.107092
405  2023-10-19 14:51:31.139971
406  2023-10-19 14:51:31.171897
407  2023-10-19 14:51:31.203837
408  2023-10-19 14:51:31.235744
409  2023-10-19 14:51:31.267671
410  2023-10-19 14:51:31.315529
411  2023-10-19 14:51:31.347445
412  2023-10-19 14:51:31.379361
413  2023-10-19 14:51:31.411274
414  2023-10-19 14:51:31.443187
415  2023-10-19 14:51:31.475101
416  2023-10-19 14:51:31.507034
417  2023-10-19 14:51:31.538942
418  2023-10-19 14:51:31.571814
419  2023-10-19 14:51:31.603729
420  2023-10-19 14:51:31.635644
421  2023-10-19 14:51:31.667559
422  2023-10-19 14:51:31.715469
423  2023-10-19 14:51:31.747372
424  2023-10-19 14:51:31.779289
425  2023-10-19 14:51:31.811211
426  2023-10-19 14:51:31.843138
427  2023-10-19 14:51:31.875031
428  2023-10-19 14:51:31.907917
429  2023-10-19 14:51:31.939866
430  2023-10-19 14:51:31.971744
431  2023-10-19 14:51:32.003659
432  2023-10-19 14:51:32.035616
433  2023-10-19 14:51:32.067488
434  2023-10-19 14:51:32.115360
435  2023-10-19 14:51:32.147303
436  2023-10-19 14:51:32.179219
437  2023-10-19 14:51:32.211132
438  2023-10-19 14:51:32.243058
439  2023-10-19 14:51:32.274963
440  2023-10-19 14:51:32.307846
441  2023-10-19 14:51:32.339788
442  2023-10-19 14:51:32.371712
443  2023-10-19 14:51:32.403619
444  2023-10-19 14:51:32.435504
445  2023-10-19 14:51:32.467469
446  2023-10-19 14:51:32.515290
447  2023-10-19 14:51:32.547234
448  2023-10-19 14:51:32.579156
449  2023-10-19 14:51:32.611064
450  2023-10-19 14:51:32.643947
451  2023-10-19 14:51:32.675899
452  2023-10-19 14:51:32.707819
453  2023-10-19 14:51:32.739717
454  2023-10-19 14:51:32.771640
455  2023-10-19 14:51:32.803523
456  2023-10-19 14:51:32.835471
457  2023-10-19 14:51:32.867408
458  2023-10-19 14:51:32.915257
459  2023-10-19 14:51:32.947162
460  2023-10-19 14:51:32.980093
461  2023-10-19 14:51:33.010998
462  2023-10-19 14:51:33.043908
463  2023-10-19 14:51:33.075829
464  2023-10-19 14:51:33.107751
465  2023-10-19 14:51:33.139648
466  2023-10-19 14:51:33.171568
467  2023-10-19 14:51:33.203489
468  2023-10-19 14:51:33.235366
469  2023-10-19 14:51:33.267306
470  2023-10-19 14:51:33.315151
471  2023-10-19 14:51:33.347113
472  2023-10-19 14:51:33.379011
473  2023-10-19 14:51:33.411935
474  2023-10-19 14:51:33.443837
475  2023-10-19 14:51:33.475721
476  2023-10-19 14:51:33.507663
477  2023-10-19 14:51:33.539587
478  2023-10-19 14:51:33.571511
479  2023-10-19 14:51:33.603408
480  2023-10-19 14:51:33.635341
481  2023-10-19 14:51:33.667236
482  2023-10-19 14:51:33.715082
483  2023-10-19 14:51:33.747034
484  2023-10-19 14:51:33.779909
485  2023-10-19 14:51:33.811865
486  2023-10-19 14:51:33.843740
487  2023-10-19 14:51:33.875652
488  2023-10-19 14:51:33.907600
489  2023-10-19 14:51:33.939522
490  2023-10-19 14:51:33.971452
491  2023-10-19 14:51:34.003353
492  2023-10-19 14:51:34.035257
493  2023-10-19 14:51:34.067172
494  2023-10-19 14:51:34.115074
495  2023-10-19 14:51:34.146953
496  2023-10-19 14:51:34.179883
497  2023-10-19 14:51:34.211780
498  2023-10-19 14:51:34.243668
499  2023-10-19 14:51:34.275582
500  2023-10-19 14:51:34.307539
501  2023-10-19 14:51:34.339438
502  2023-10-19 14:51:34.371373
503  2023-10-19 14:51:34.403288
504  2023-10-19 14:51:34.435195
505  2023-10-19 14:51:34.467098
506  2023-10-19 14:51:34.515939
507  2023-10-19 14:51:34.547905
508  2023-10-19 14:51:34.579796
509  2023-10-19 14:51:34.611714
510  2023-10-19 14:51:34.643597
511  2023-10-19 14:51:34.675548
512  2023-10-19 14:51:34.707476
513  2023-10-19 14:51:34.739343
514  2023-10-19 14:51:34.771295
515  2023-10-19 14:51:34.803209
516  2023-10-19 14:51:34.835085
517  2023-10-19 14:51:34.867001
518  2023-10-19 14:51:34.915904
519  2023-10-19 14:51:34.947821
520  2023-10-19 14:51:34.979699
521  2023-10-19 14:51:35.011640
522  2023-10-19 14:51:35.043528
523  2023-10-19 14:51:35.075481
524  2023-10-19 14:51:35.107402
525  2023-10-19 14:51:35.139318
526  2023-10-19 14:51:35.171221
527  2023-10-19 14:51:35.203148
528  2023-10-19 14:51:35.235058
529  2023-10-19 14:51:35.267963
530  2023-10-19 14:51:35.315837
531  2023-10-19 14:51:35.347758
532  2023-10-19 14:51:35.379629
533  2023-10-19 14:51:35.411583
534  2023-10-19 14:51:35.443497
535  2023-10-19 14:51:35.475415
536  2023-10-19 14:51:35.507342
537  2023-10-19 14:51:35.539242
538  2023-10-19 14:51:35.571152
539  2023-10-19 14:51:35.603075
540  2023-10-19 14:51:35.635001
541  2023-10-19 14:51:35.667918
542  2023-10-19 14:51:35.715776
543  2023-10-19 14:51:35.747684
544  2023-10-19 14:51:35.779603
545  2023-10-19 14:51:35.811501
546  2023-10-19 14:51:35.843422
547  2023-10-19 14:51:35.875343
548  2023-10-19 14:51:35.907260
549  2023-10-19 14:51:35.939167
550  2023-10-19 14:51:35.971106
551  2023-10-19 14:51:36.002963
552  2023-10-19 14:51:36.035917
553  2023-10-19 14:51:36.067830
554  2023-10-19 14:51:36.115702
555  2023-10-19 14:51:36.147611
556  2023-10-19 14:51:36.179517
557  2023-10-19 14:51:36.211447
558  2023-10-19 14:51:36.243357
559  2023-10-19 14:51:36.275276
560  2023-10-19 14:51:36.307179
561  2023-10-19 14:51:36.340107
562  2023-10-19 14:51:36.371022
563  2023-10-19 14:51:36.402932
564  2023-10-19 14:51:36.435843
565  2023-10-19 14:51:36.467718
566  2023-10-19 14:51:36.515650
567  2023-10-19 14:51:36.547550
568  2023-10-19 14:51:36.579470
569  2023-10-19 14:51:36.611388
570  2023-10-19 14:51:36.643302
571  2023-10-19 14:51:36.675208
572  2023-10-19 14:51:36.707120
573  2023-10-19 14:51:36.739048
574  2023-10-19 14:51:36.771964
575  2023-10-19 14:51:36.803872
576  2023-10-19 14:51:36.835766
577  2023-10-19 14:51:36.867681
578  2023-10-19 14:51:36.915565
579  2023-10-19 14:51:36.947481
580  2023-10-19 14:51:36.979391
581  2023-10-19 14:51:37.011264
582  2023-10-19 14:51:37.043227
583  2023-10-19 14:51:37.075095
584  2023-10-19 14:51:37.107059
585  2023-10-19 14:51:37.139973
586  2023-10-19 14:51:37.171875
587  2023-10-19 14:51:37.203786
588  2023-10-19 14:51:37.235706
589  2023-10-19 14:51:37.267612
590  2023-10-19 14:51:37.315487
591  2023-10-19 14:51:37.347432
592  2023-10-19 14:51:37.379319
593  2023-10-19 14:51:37.411227
594  2023-10-19 14:51:37.443152
595  2023-10-19 14:51:37.475061
596  2023-10-19 14:51:37.507969
597  2023-10-19 14:51:37.539889
598  2023-10-19 14:51:37.571765
599  2023-10-19 14:51:37.603722
600  2023-10-19 14:51:37.635637
601  2023-10-19 14:51:37.667539
602  2023-10-19 14:51:37.715414
603  2023-10-19 14:51:37.747327
604  2023-10-19 14:51:37.779245
605  2023-10-19 14:51:37.811173
606  2023-10-19 14:51:37.844072
607  2023-10-19 14:51:37.876005
608  2023-10-19 14:51:37.907921
609  2023-10-19 14:51:37.939816
610  2023-10-19 14:51:37.971742
611  2023-10-19 14:51:38.003663
612  2023-10-19 14:51:38.035563
613  2023-10-19 14:51:38.067484
614  2023-10-19 14:51:38.115311
615  2023-10-19 14:51:38.147227
616  2023-10-19 14:51:38.179176
617  2023-10-19 14:51:38.211130
618  2023-10-19 14:51:38.244007
619  2023-10-19 14:51:38.275920
620  2023-10-19 14:51:38.307823
621  2023-10-19 14:51:38.339750
622  2023-10-19 14:51:38.371668
623  2023-10-19 14:51:38.403573
624  2023-10-19 14:51:38.435503
625  2023-10-19 14:51:38.467402
626  2023-10-19 14:51:38.515285
627  2023-10-19 14:51:38.547189
628  2023-10-19 14:51:38.579113
629  2023-10-19 14:51:38.612023
630  2023-10-19 14:51:38.643953
631  2023-10-19 14:51:38.675812
632  2023-10-19 14:51:38.707764
633  2023-10-19 14:51:38.739682
634  2023-10-19 14:51:38.771601
635  2023-10-19 14:51:38.803511
636  2023-10-19 14:51:38.835441
637  2023-10-19 14:51:38.867359
638  2023-10-19 14:51:38.915212
639  2023-10-19 14:51:38.947138
640  2023-10-19 14:51:38.979045
641  2023-10-19 14:51:39.010959
642  2023-10-19 14:51:39.043827
643  2023-10-19 14:51:39.075781
644  2023-10-19 14:51:39.107694
645  2023-10-19 14:51:39.139626
646  2023-10-19 14:51:39.171527
647  2023-10-19 14:51:39.203401
648  2023-10-19 14:51:39.235316
649  2023-10-19 14:51:39.267277
650  2023-10-19 14:51:39.315154
651  2023-10-19 14:51:39.347064
652  2023-10-19 14:51:39.378958
653  2023-10-19 14:51:39.411880
654  2023-10-19 14:51:39.443804
655  2023-10-19 14:51:39.475741
656  2023-10-19 14:51:39.507639
657  2023-10-19 14:51:39.539529
658  2023-10-19 14:51:39.571467
659  2023-10-19 14:51:39.603384
660  2023-10-19 14:51:39.635288
661  2023-10-19 14:51:39.667197
662  2023-10-19 14:51:39.715032
663  2023-10-19 14:51:39.746980
664  2023-10-19 14:51:39.779895
665  2023-10-19 14:51:39.811830
666  2023-10-19 14:51:39.843734
667  2023-10-19 14:51:39.875656
668  2023-10-19 14:51:39.907565
669  2023-10-19 14:51:39.939472
670  2023-10-19 14:51:39.971397
671  2023-10-19 14:51:40.003297
672  2023-10-19 14:51:40.035248
673  2023-10-19 14:51:40.068125
674  2023-10-19 14:51:40.116019
675  2023-10-19 14:51:40.147919
676  2023-10-19 14:51:40.179827
677  2023-10-19 14:51:40.211757
678  2023-10-19 14:51:40.243619
679  2023-10-19 14:51:40.275533
680  2023-10-19 14:51:40.307506
681  2023-10-19 14:51:40.339403
682  2023-10-19 14:51:40.372275
683  2023-10-19 14:51:40.404233
684  2023-10-19 14:51:40.435147
685  2023-10-19 14:51:40.467065
686  2023-10-19 14:51:40.514930
687  2023-10-19 14:51:40.547848
688  2023-10-19 14:51:40.579747
689  2023-10-19 14:51:40.611634
690  2023-10-19 14:51:40.643590
691  2023-10-19 14:51:40.675464
692  2023-10-19 14:51:40.707417
693  2023-10-19 14:51:40.739330
694  2023-10-19 14:51:40.771249
695  2023-10-19 14:51:40.803121
696  2023-10-19 14:51:40.835037
697  2023-10-19 14:51:40.867949
698  2023-10-19 14:51:40.915851
699  2023-10-19 14:51:40.947771
700  2023-10-19 14:51:40.979698
701  2023-10-19 14:51:41.011592
702  2023-10-19 14:51:41.043517
703  2023-10-19 14:51:41.075447
704  2023-10-19 14:51:41.107342
705  2023-10-19 14:51:41.139282
706  2023-10-19 14:51:41.171174
707  2023-10-19 14:51:41.203103
708  2023-10-19 14:51:41.235030
709  2023-10-19 14:51:41.267920
710  2023-10-19 14:51:41.315798
711  2023-10-19 14:51:41.347665
712  2023-10-19 14:51:41.379641
713  2023-10-19 14:51:41.411538
714  2023-10-19 14:51:41.443453
715  2023-10-19 14:51:41.475374
716  2023-10-19 14:51:41.507275
717  2023-10-19 14:51:41.539189
718  2023-10-19 14:51:41.571119
719  2023-10-19 14:51:41.603020
720  2023-10-19 14:51:41.635946
721  2023-10-19 14:51:41.667845
722  2023-10-19 14:51:41.715735
723  2023-10-19 14:51:41.747628
724  2023-10-19 14:51:41.779552
725  2023-10-19 14:51:41.811460
726  2023-10-19 14:51:41.843381
727  2023-10-19 14:51:41.875254
728  2023-10-19 14:51:41.907237
729  2023-10-19 14:51:41.939117
730  2023-10-19 14:51:41.971070
731  2023-10-19 14:51:42.002966
732  2023-10-19 14:51:42.035891
733  2023-10-19 14:51:42.067747
734  2023-10-19 14:51:42.115611
735  2023-10-19 14:51:42.147570
736  2023-10-19 14:51:42.179488
737  2023-10-19 14:51:42.211412
738  2023-10-19 14:51:42.243315
739  2023-10-19 14:51:42.275222
740  2023-10-19 14:51:42.307143
741  2023-10-19 14:51:42.339048
742  2023-10-19 14:51:42.370968
743  2023-10-19 14:51:42.403884
744  2023-10-19 14:51:42.435801
745  2023-10-19 14:51:42.467715
746  2023-10-19 14:51:42.515583
747  2023-10-19 14:51:42.547507
748  2023-10-19 14:51:42.579420
749  2023-10-19 14:51:42.611323
750  2023-10-19 14:51:42.643260
751  2023-10-19 14:51:42.675158
752  2023-10-19 14:51:42.707066
753  2023-10-19 14:51:42.739974
754  2023-10-19 14:51:42.771916
755  2023-10-19 14:51:42.803816
756  2023-10-19 14:51:42.835741
757  2023-10-19 14:51:42.867638
758  2023-10-19 14:51:42.915499
759  2023-10-19 14:51:42.947428
760  2023-10-19 14:51:42.979330
761  2023-10-19 14:51:43.011257
762  2023-10-19 14:51:43.043173
763  2023-10-19 14:51:43.075090
764  2023-10-19 14:51:43.106996
765  2023-10-19 14:51:43.138931
766  2023-10-19 14:51:43.171825
767  2023-10-19 14:51:43.203736
768  2023-10-19 14:51:43.235621
769  2023-10-19 14:51:43.267572
770  2023-10-19 14:51:43.315443
771  2023-10-19 14:51:43.347353
772  2023-10-19 14:51:43.379298
773  2023-10-19 14:51:43.411195
774  2023-10-19 14:51:43.444060
775  2023-10-19 14:51:43.475019
776  2023-10-19 14:51:43.507926
777  2023-10-19 14:51:43.539835
778  2023-10-19 14:51:43.571718
779  2023-10-19 14:51:43.603667
780  2023-10-19 14:51:43.635581
781  2023-10-19 14:51:43.667503
782  2023-10-19 14:51:43.715398
783  2023-10-19 14:51:43.747249
784  2023-10-19 14:51:43.779214
785  2023-10-19 14:51:43.811139
786  2023-10-19 14:51:43.843042
787  2023-10-19 14:51:43.875935
788  2023-10-19 14:51:43.907872
789  2023-10-19 14:51:43.939768
790  2023-10-19 14:51:43.971680
791  2023-10-19 14:51:44.003561
792  2023-10-19 14:51:44.035476
793  2023-10-19 14:51:44.067425
794  2023-10-19 14:51:44.115318
795  2023-10-19 14:51:44.147209
796  2023-10-19 14:51:44.179139
797  2023-10-19 14:51:44.211048
798  2023-10-19 14:51:44.242921
799  2023-10-19 14:51:44.275896
800  2023-10-19 14:51:44.307799
801  2023-10-19 14:51:44.339663
802  2023-10-19 14:51:44.371610
803  2023-10-19 14:51:44.403536
804  2023-10-19 14:51:44.435458
805  2023-10-19 14:51:44.467357
806  2023-10-19 14:51:44.515237
807  2023-10-19 14:51:44.547157
808  2023-10-19 14:51:44.579022
809  2023-10-19 14:51:44.610973
810  2023-10-19 14:51:44.643891
811  2023-10-19 14:51:44.675804
812  2023-10-19 14:51:44.707711
813  2023-10-19 14:51:44.739636
814  2023-10-19 14:51:44.771543
815  2023-10-19 14:51:44.803468
816  2023-10-19 14:51:44.835376
817  2023-10-19 14:51:44.867289
818  2023-10-19 14:51:44.915168
819  2023-10-19 14:51:44.947072
820  2023-10-19 14:51:44.979003
821  2023-10-19 14:51:45.010924
822  2023-10-19 14:51:45.043841
823  2023-10-19 14:51:45.075734
824  2023-10-19 14:51:45.107608
825  2023-10-19 14:51:45.139564
826  2023-10-19 14:51:45.171486
827  2023-10-19 14:51:45.203388
828  2023-10-19 14:51:45.235313
829  2023-10-19 14:51:45.267223
830  2023-10-19 14:51:45.315106
831  2023-10-19 14:51:45.347012
832  2023-10-19 14:51:45.379880
833  2023-10-19 14:51:45.411845
834  2023-10-19 14:51:45.443737
835  2023-10-19 14:51:45.475674
836  2023-10-19 14:51:45.507581
837  2023-10-19 14:51:45.539453
838  2023-10-19 14:51:45.571368
839  2023-10-19 14:51:45.603283
840  2023-10-19 14:51:45.635198
841  2023-10-19 14:51:45.667112
842  2023-10-19 14:51:45.714984
843  2023-10-19 14:51:45.747932
844  2023-10-19 14:51:45.779838
845  2023-10-19 14:51:45.811726
846  2023-10-19 14:51:45.843641
847  2023-10-19 14:51:45.875555
848  2023-10-19 14:51:45.907472
849  2023-10-19 14:51:45.939385
850  2023-10-19 14:51:45.971299
851  2023-10-19 14:51:46.003213
852  2023-10-19 14:51:46.035168
853  2023-10-19 14:51:46.067042
854  2023-10-19 14:51:46.114949
855  2023-10-19 14:51:46.147826
856  2023-10-19 14:51:46.179742
857  2023-10-19 14:51:46.211656
858  2023-10-19 14:51:46.243569
859  2023-10-19 14:51:46.275485
860  2023-10-19 14:51:46.307399
861  2023-10-19 14:51:46.339316
862  2023-10-19 14:51:46.371229
863  2023-10-19 14:51:46.403143
864  2023-10-19 14:51:46.435058
865  2023-10-19 14:51:46.466973
866  2023-10-19 14:51:46.515842
867  2023-10-19 14:51:46.547757
868  2023-10-19 14:51:46.579672
869  2023-10-19 14:51:46.611587
870  2023-10-19 14:51:46.643501
871  2023-10-19 14:51:46.675416
872  2023-10-19 14:51:46.707359
873  2023-10-19 14:51:46.739271
874  2023-10-19 14:51:46.771158
875  2023-10-19 14:51:46.803074
876  2023-10-19 14:51:46.834988
877  2023-10-19 14:51:46.866928
878  2023-10-19 14:51:46.915815
879  2023-10-19 14:51:46.947688
880  2023-10-19 14:51:46.979602
881  2023-10-19 14:51:47.011517
882  2023-10-19 14:51:47.043431
883  2023-10-19 14:51:47.075380
884  2023-10-19 14:51:47.107260
885  2023-10-19 14:51:47.139174
886  2023-10-19 14:51:47.171089
887  2023-10-19 14:51:47.203004
888  2023-10-19 14:51:47.235916
889  2023-10-19 14:51:47.267834
890  2023-10-19 14:51:47.315702
891  2023-10-19 14:51:47.347617
892  2023-10-19 14:51:47.379532
893  2023-10-19 14:51:47.411447
894  2023-10-19 14:51:47.443363
895  2023-10-19 14:51:47.475276
896  2023-10-19 14:51:47.507191
897  2023-10-19 14:51:47.540138
898  2023-10-19 14:51:47.571019
899  2023-10-19 14:51:47.602934
900  2023-10-19 14:51:47.635846
901  2023-10-19 14:51:47.667761
902  2023-10-19 14:51:47.715633
903  2023-10-19 14:51:47.747548
904  2023-10-19 14:51:47.779490
905  2023-10-19 14:51:47.811378
906  2023-10-19 14:51:47.843290
907  2023-10-19 14:51:47.875207
908  2023-10-19 14:51:47.907121
909  2023-10-19 14:51:47.939036
910  2023-10-19 14:51:47.970950
911  2023-10-19 14:51:48.003862
912  2023-10-19 14:51:48.035819
913  2023-10-19 14:51:48.067691
914  2023-10-19 14:51:48.115595
915  2023-10-19 14:51:48.147478
916  2023-10-19 14:51:48.180436
917  2023-10-19 14:51:48.212332
918  2023-10-19 14:51:48.243256
919  2023-10-19 14:51:48.276167
920  2023-10-19 14:51:48.308048
921  2023-10-19 14:51:48.339963
922  2023-10-19 14:51:48.371876
923  2023-10-19 14:51:48.403791
924  2023-10-19 14:51:48.435706
925  2023-10-19 14:51:48.467621
926  2023-10-19 14:51:48.515494
927  2023-10-19 14:51:48.547408
928  2023-10-19 14:51:48.580351
929  2023-10-19 14:51:48.611237
930  2023-10-19 14:51:48.643152
931  2023-10-19 14:51:48.675066
932  2023-10-19 14:51:48.707978
933  2023-10-19 14:51:48.739920
934  2023-10-19 14:51:48.771808
935  2023-10-19 14:51:48.803722
936  2023-10-19 14:51:48.835637
937  2023-10-19 14:51:48.867553
938  2023-10-19 14:51:48.915423
939  2023-10-19 14:51:48.947337
940  2023-10-19 14:51:48.979253
941  2023-10-19 14:51:49.011167
942  2023-10-19 14:51:49.043082
943  2023-10-19 14:51:49.074997
944  2023-10-19 14:51:49.107910
945  2023-10-19 14:51:49.139856
946  2023-10-19 14:51:49.171769
947  2023-10-19 14:51:49.203679
948  2023-10-19 14:51:49.235604
949  2023-10-19 14:51:49.267518
950  2023-10-19 14:51:49.315386
951  2023-10-19 14:51:49.347268
952  2023-10-19 14:51:49.379183
953  2023-10-19 14:51:49.411098
954  2023-10-19 14:51:49.443013
955  2023-10-19 14:51:49.474926
956  2023-10-19 14:51:49.507838
957  2023-10-19 14:51:49.539754
958  2023-10-19 14:51:49.571667
959  2023-10-19 14:51:49.603585
960  2023-10-19 14:51:49.635527
961  2023-10-19 14:51:49.667440
962  2023-10-19 14:51:49.715317
963  2023-10-19 14:51:49.748224
964  2023-10-19 14:51:49.779142
965  2023-10-19 14:51:49.811057
966  2023-10-19 14:51:49.843940
967  2023-10-19 14:51:49.875855
968  2023-10-19 14:51:49.907795
969  2023-10-19 14:51:49.939684
970  2023-10-19 14:51:49.971598
971  2023-10-19 14:51:50.003514
972  2023-10-19 14:51:50.035427
973  2023-10-19 14:51:50.067375
974  2023-10-19 14:51:50.115216
975  2023-10-19 14:51:50.147130
976  2023-10-19 14:51:50.179045
977  2023-10-19 14:51:50.210990
978  2023-10-19 14:51:50.243871
979  2023-10-19 14:51:50.275821
980  2023-10-19 14:51:50.307736
981  2023-10-19 14:51:50.339615
982  2023-10-19 14:51:50.371555
983  2023-10-19 14:51:50.403469
984  2023-10-19 14:51:50.435359
985  2023-10-19 14:51:50.467314
986  2023-10-19 14:51:50.515154
987  2023-10-19 14:51:50.547060
988  2023-10-19 14:51:50.578974
989  2023-10-19 14:51:50.611886
990  2023-10-19 14:51:50.643830
991  2023-10-19 14:51:50.675752
992  2023-10-19 14:51:50.707631
993  2023-10-19 14:51:50.739545
994  2023-10-19 14:51:50.771504
995  2023-10-19 14:51:50.803410
996  2023-10-19 14:51:50.835327
997  2023-10-19 14:51:50.867245
998  2023-10-19 14:51:50.915074
999  2023-10-19 14:51:50.946989
1000  2023-10-19 14:51:50.979900
1001  2023-10-19 14:51:51.011814
1002  2023-10-19 14:51:51.043779
1003  2023-10-19 14:51:51.075644
1004  2023-10-19 14:51:51.107602
1005  2023-10-19 14:51:51.139473
1006  2023-10-19 14:51:51.171425
1007  2023-10-19 14:51:51.203304
1008  2023-10-19 14:51:51.235251
1009  2023-10-19 14:51:51.267168
1010  2023-10-19 14:51:51.316033
1011  2023-10-19 14:51:51.346947
1012  2023-10-19 14:51:51.379830
1013  2023-10-19 14:51:51.411746
1014  2023-10-19 14:51:51.443662
1015  2023-10-19 14:51:51.475603
1016  2023-10-19 14:51:51.507524
1017  2023-10-19 14:51:51.539446
1018  2023-10-19 14:51:51.571319
1019  2023-10-19 14:51:51.603285
1020  2023-10-19 14:51:51.635148
1021  2023-10-19 14:51:51.667097
1022  2023-10-19 14:51:51.714971
1023  2023-10-19 14:51:51.747890
1024  2023-10-19 14:51:51.779798
1025  2023-10-19 14:51:51.811675
1026  2023-10-19 14:51:51.843627
1027  2023-10-19 14:51:51.875505
1028  2023-10-19 14:51:51.907446
1029  2023-10-19 14:51:51.939376
1030  2023-10-19 14:51:51.971310
1031  2023-10-19 14:51:52.003202
1032  2023-10-19 14:51:52.035105
1033  2023-10-19 14:51:52.066993
1034  2023-10-19 14:51:52.115863
1035  2023-10-19 14:51:52.147817
1036  2023-10-19 14:51:52.179690
1037  2023-10-19 14:51:52.211642
1038  2023-10-19 14:51:52.243547
1039  2023-10-19 14:51:52.275435
1040  2023-10-19 14:51:52.307392
1041  2023-10-19 14:51:52.339304
1042  2023-10-19 14:51:52.371232
1043  2023-10-19 14:51:52.403125
1044  2023-10-19 14:51:52.435047
1045  2023-10-19 14:51:52.466963
1046  2023-10-19 14:51:52.515827
1047  2023-10-19 14:51:52.547741
1048  2023-10-19 14:51:52.579658
1049  2023-10-19 14:51:52.611535
1050  2023-10-19 14:51:52.643450
1051  2023-10-19 14:51:52.675393
1052  2023-10-19 14:51:52.707280
1053  2023-10-19 14:51:52.739194
1054  2023-10-19 14:51:52.771140
1055  2023-10-19 14:51:52.803053
1056  2023-10-19 14:51:52.834983
1057  2023-10-19 14:51:52.867905
1058  2023-10-19 14:51:52.915722
1059  2023-10-19 14:51:52.947688
1060  2023-10-19 14:51:52.979595
1061  2023-10-19 14:51:53.011502
1062  2023-10-19 14:51:53.043380
1063  2023-10-19 14:51:53.075325
1064  2023-10-19 14:51:53.107252
1065  2023-10-19 14:51:53.139167
1066  2023-10-19 14:51:53.171083
1067  2023-10-19 14:51:53.202985
1068  2023-10-19 14:51:53.235908
1069  2023-10-19 14:51:53.267780
1070  2023-10-19 14:51:53.315679
1071  2023-10-19 14:51:53.347610
1072  2023-10-19 14:51:53.379509
1073  2023-10-19 14:51:53.411428
1074  2023-10-19 14:51:53.443310
1075  2023-10-19 14:51:53.475253
1076  2023-10-19 14:51:53.507169
1077  2023-10-19 14:51:53.539084
1078  2023-10-19 14:51:53.571002
1079  2023-10-19 14:51:53.602920
1080  2023-10-19 14:51:53.635797
1081  2023-10-19 14:51:53.667737
1082  2023-10-19 14:51:53.715609
1083  2023-10-19 14:51:53.747534
1084  2023-10-19 14:51:53.779466
1085  2023-10-19 14:51:53.811326
1086  2023-10-19 14:51:53.843298
1087  2023-10-19 14:51:53.875208
1088  2023-10-19 14:51:53.907111
1089  2023-10-19 14:51:53.939014
1090  2023-10-19 14:51:53.970942
1091  2023-10-19 14:51:54.003856
1092  2023-10-19 14:51:54.035728
1093  2023-10-19 14:51:54.067674
1094  2023-10-19 14:51:54.115550
1095  2023-10-19 14:51:54.147429
1096  2023-10-19 14:51:54.179389
1097  2023-10-19 14:51:54.211285
1098  2023-10-19 14:51:54.244195
1099  2023-10-19 14:51:54.276133
1100  2023-10-19 14:51:54.307047
1101  2023-10-19 14:51:54.338969
1102  2023-10-19 14:51:54.371828
1103  2023-10-19 14:51:54.403743
1104  2023-10-19 14:51:54.435685
1105  2023-10-19 14:51:54.467599
1106  2023-10-19 14:51:54.515481
1107  2023-10-19 14:51:54.547386
1108  2023-10-19 14:51:54.579313
1109  2023-10-19 14:51:54.611216
1110  2023-10-19 14:51:54.643101
1111  2023-10-19 14:51:54.675056
1112  2023-10-19 14:51:54.707929
1113  2023-10-19 14:51:54.739887
1114  2023-10-19 14:51:54.771791
1115  2023-10-19 14:51:54.803672
1116  2023-10-19 14:51:54.835592
1117  2023-10-19 14:51:54.867542
1118  2023-10-19 14:51:54.915409
1119  2023-10-19 14:51:54.947330
1120  2023-10-19 14:51:54.979238
1121  2023-10-19 14:51:55.011155
1122  2023-10-19 14:51:55.043073
1123  2023-10-19 14:51:55.074985
1124  2023-10-19 14:51:55.107899
1125  2023-10-19 14:51:55.139810
1126  2023-10-19 14:51:55.171719
1127  2023-10-19 14:51:55.203630
1128  2023-10-19 14:51:55.235554
1129  2023-10-19 14:51:55.267479
1130  2023-10-19 14:51:55.315366
1131  2023-10-19 14:51:55.347268
1132  2023-10-19 14:51:55.379172
1133  2023-10-19 14:51:55.411085
1134  2023-10-19 14:51:55.442961
1135  2023-10-19 14:51:55.475903
1136  2023-10-19 14:51:55.507826
1137  2023-10-19 14:51:55.539738
1138  2023-10-19 14:51:55.571645
1139  2023-10-19 14:51:55.603561
1140  2023-10-19 14:51:55.635485
1141  2023-10-19 14:51:55.667404
1142  2023-10-19 14:51:55.715264
1143  2023-10-19 14:51:55.747191
1144  2023-10-19 14:51:55.779111
1145  2023-10-19 14:51:55.811008
1146  2023-10-19 14:51:55.843893
1147  2023-10-19 14:51:55.875804
1148  2023-10-19 14:51:55.907766
1149  2023-10-19 14:51:55.939669
1150  2023-10-19 14:51:55.971599
1151  2023-10-19 14:51:56.003469
1152  2023-10-19 14:51:56.035383
1153  2023-10-19 14:51:56.067318
1154  2023-10-19 14:51:56.115201
1155  2023-10-19 14:51:56.147121
1156  2023-10-19 14:51:56.179031
1157  2023-10-19 14:51:56.210940
1158  2023-10-19 14:51:56.243821
1159  2023-10-19 14:51:56.275771
1160  2023-10-19 14:51:56.307690
1161  2023-10-19 14:51:56.339594
1162  2023-10-19 14:51:56.371512
1163  2023-10-19 14:51:56.403394
1164  2023-10-19 14:51:56.435340
1165  2023-10-19 14:51:56.467252
1166  2023-10-19 14:51:56.515142
1167  2023-10-19 14:51:56.547008
1168  2023-10-19 14:51:56.579955
1169  2023-10-19 14:51:56.611835
1170  2023-10-19 14:51:56.643795
1171  2023-10-19 14:51:56.675698
1172  2023-10-19 14:51:56.707580
1173  2023-10-19 14:51:56.739526
1174  2023-10-19 14:51:56.771452
1175  2023-10-19 14:51:56.803361
1176  2023-10-19 14:51:56.835242
1177  2023-10-19 14:51:56.867158
1178  2023-10-19 14:51:56.915057
1179  2023-10-19 14:51:56.946975
1180  2023-10-19 14:51:56.979906
1181  2023-10-19 14:51:57.011795
1182  2023-10-19 14:51:57.043718
1183  2023-10-19 14:51:57.075634
1184  2023-10-19 14:51:57.107509
1185  2023-10-19 14:51:57.139451
1186  2023-10-19 14:51:57.171371
1187  2023-10-19 14:51:57.203295
1188  2023-10-19 14:51:57.235223
1189  2023-10-19 14:51:57.267133
1190  2023-10-19 14:51:57.315010
1191  2023-10-19 14:51:57.347867
1192  2023-10-19 14:51:57.379810
1193  2023-10-19 14:51:57.411733
1194  2023-10-19 14:51:57.443663
1195  2023-10-19 14:51:57.475570
1196  2023-10-19 14:51:57.507445
1197  2023-10-19 14:51:57.539404
1198  2023-10-19 14:51:57.571312
1199  2023-10-19 14:51:57.603218
1200  2023-10-19 14:51:57.635098
1201  2023-10-19 14:51:57.667044
1202  2023-10-19 14:51:57.714935
1203  2023-10-19 14:51:57.747857
1204  2023-10-19 14:51:57.779750
1205  2023-10-19 14:51:57.811628
1206  2023-10-19 14:51:57.843582
1207  2023-10-19 14:51:57.875482
1208  2023-10-19 14:51:57.907411
1209  2023-10-19 14:51:57.939316
1210  2023-10-19 14:51:57.971239
1211  2023-10-19 14:51:58.003152
1212  2023-10-19 14:51:58.036026
1213  2023-10-19 14:51:58.067942
1214  2023-10-19 14:51:58.115858
1215  2023-10-19 14:51:58.147757
1216  2023-10-19 14:51:58.179642
1217  2023-10-19 14:51:58.211557
1218  2023-10-19 14:51:58.243472
1219  2023-10-19 14:51:58.275421
1220  2023-10-19 14:51:58.307353
1221  2023-10-19 14:51:58.339254
1222  2023-10-19 14:51:58.371171
1223  2023-10-19 14:51:58.403089
1224  2023-10-19 14:51:58.434999
1225  2023-10-19 14:51:58.466903
1226  2023-10-19 14:51:58.515783
1227  2023-10-19 14:51:58.547688
1228  2023-10-19 14:51:58.579600
1229  2023-10-19 14:51:58.611514
1230  2023-10-19 14:51:58.643437
1231  2023-10-19 14:51:58.675362
1232  2023-10-19 14:51:58.707231
1233  2023-10-19 14:51:58.739145
1234  2023-10-19 14:51:58.771098
1235  2023-10-19 14:51:58.803010
1236  2023-10-19 14:51:58.834931
1237  2023-10-19 14:51:58.867831
1238  2023-10-19 14:51:58.915703
1239  2023-10-19 14:51:58.947615
1240  2023-10-19 14:51:58.979531
1241  2023-10-19 14:51:59.011452
1242  2023-10-19 14:51:59.043361
1243  2023-10-19 14:51:59.075283
1244  2023-10-19 14:51:59.107205
1245  2023-10-19 14:51:59.139120
1246  2023-10-19 14:51:59.171029
1247  2023-10-19 14:51:59.202945
1248  2023-10-19 14:51:59.235853
1249  2023-10-19 14:51:59.267731
1250  2023-10-19 14:51:59.315646
1251  2023-10-19 14:51:59.347552
1252  2023-10-19 14:51:59.379464
1253  2023-10-19 14:51:59.411412
1254  2023-10-19 14:51:59.443299
1255  2023-10-19 14:51:59.475212
1256  2023-10-19 14:51:59.507128
1257  2023-10-19 14:51:59.539037
1258  2023-10-19 14:51:59.570956
1259  2023-10-19 14:51:59.603859
1260  2023-10-19 14:51:59.635780
1261  2023-10-19 14:51:59.667668
1262  2023-10-19 14:51:59.715534
1263  2023-10-19 14:51:59.747480
1264  2023-10-19 14:51:59.779395
1265  2023-10-19 14:51:59.811277
1266  2023-10-19 14:51:59.843233
1267  2023-10-19 14:51:59.875152
1268  2023-10-19 14:51:59.908019
1269  2023-10-19 14:51:59.938975
1270  2023-10-19 14:51:59.971874
1271  2023-10-19 14:52:00.003789
1272  2023-10-19 14:52:00.035715
1273  2023-10-19 14:52:00.067625
1274  2023-10-19 14:52:00.115506
1275  2023-10-19 14:52:00.147425
1276  2023-10-19 14:52:00.179332
1277  2023-10-19 14:52:00.211236
1278  2023-10-19 14:52:00.243158
1279  2023-10-19 14:52:00.275080
1280  2023-10-19 14:52:00.306991
1281  2023-10-19 14:52:00.339863
1282  2023-10-19 14:52:00.371779
1283  2023-10-19 14:52:00.403746
1284  2023-10-19 14:52:00.435648
1285  2023-10-19 14:52:00.467555
1286  2023-10-19 14:52:00.515438
1287  2023-10-19 14:52:00.547372
1288  2023-10-19 14:52:00.579262
1289  2023-10-19 14:52:00.611168
1290  2023-10-19 14:52:00.643092
1291  2023-10-19 14:52:00.675013
1292  2023-10-19 14:52:00.706913
1293  2023-10-19 14:52:00.739829
1294  2023-10-19 14:52:00.771742
1295  2023-10-19 14:52:00.803668
1296  2023-10-19 14:52:00.835571
1297  2023-10-19 14:52:00.867503
1298  2023-10-19 14:52:00.915379
1299  2023-10-19 14:52:00.947288
1300  2023-10-19 14:52:00.979157
1301  2023-10-19 14:52:01.011106
1302  2023-10-19 14:52:01.043026
1303  2023-10-19 14:52:01.075928
1304  2023-10-19 14:52:01.107863
1305  2023-10-19 14:52:01.139758
1306  2023-10-19 14:52:01.171672
1307  2023-10-19 14:52:01.203594
1308  2023-10-19 14:52:01.235501
1309  2023-10-19 14:52:01.267432
1310  2023-10-19 14:52:01.315291
1311  2023-10-19 14:52:01.347218
1312  2023-10-19 14:52:01.379132
1313  2023-10-19 14:52:01.411996
1314  2023-10-19 14:52:01.443911
1315  2023-10-19 14:52:01.475866
1316  2023-10-19 14:52:01.507781
1317  2023-10-19 14:52:01.539689
1318  2023-10-19 14:52:01.571569
1319  2023-10-19 14:52:01.603524
1320  2023-10-19 14:52:01.635455
1321  2023-10-19 14:52:01.667380
1322  2023-10-19 14:52:01.715246
1323  2023-10-19 14:52:01.747127
1324  2023-10-19 14:52:01.779042
1325  2023-10-19 14:52:01.810969
1326  2023-10-19 14:52:01.843875
1327  2023-10-19 14:52:01.875791
1328  2023-10-19 14:52:01.907705
1329  2023-10-19 14:52:01.939618
1330  2023-10-19 14:52:01.971499
1331  2023-10-19 14:52:02.003418
1332  2023-10-19 14:52:02.035368
1333  2023-10-19 14:52:02.067288
1334  2023-10-19 14:52:02.115158
1335  2023-10-19 14:52:02.147074
1336  2023-10-19 14:52:02.178990
1337  2023-10-19 14:52:02.210863
1338  2023-10-19 14:52:02.243805
1339  2023-10-19 14:52:02.275739
1340  2023-10-19 14:52:02.307628
1341  2023-10-19 14:52:02.339519
1342  2023-10-19 14:52:02.371461
1343  2023-10-19 14:52:02.403379
1344  2023-10-19 14:52:02.435319
1345  2023-10-19 14:52:02.467228
1346  2023-10-19 14:52:02.515044
1347  2023-10-19 14:52:02.547001
1348  2023-10-19 14:52:02.579923
1349  2023-10-19 14:52:02.611831
1350  2023-10-19 14:52:02.643734
1351  2023-10-19 14:52:02.675650
1352  2023-10-19 14:52:02.707585
1353  2023-10-19 14:52:02.739484
1354  2023-10-19 14:52:02.771415
1355  2023-10-19 14:52:02.803315
1356  2023-10-19 14:52:02.835245
1357  2023-10-19 14:52:02.867154
1358  2023-10-19 14:52:02.915022
1359  2023-10-19 14:52:02.947928
1360  2023-10-19 14:52:02.979839
1361  2023-10-19 14:52:03.011774
1362  2023-10-19 14:52:03.043666
1363  2023-10-19 14:52:03.075551
1364  2023-10-19 14:52:03.107507
1365  2023-10-19 14:52:03.139421
1366  2023-10-19 14:52:03.171332
1367  2023-10-19 14:52:03.203205
1368  2023-10-19 14:52:03.235159
1369  2023-10-19 14:52:03.267071
1370  2023-10-19 14:52:03.314945
1371  2023-10-19 14:52:03.347852
1372  2023-10-19 14:52:03.379773
1373  2023-10-19 14:52:03.411647
1374  2023-10-19 14:52:03.443604
1375  2023-10-19 14:52:03.475508
1376  2023-10-19 14:52:03.507443
1377  2023-10-19 14:52:03.539352
1378  2023-10-19 14:52:03.571268
1379  2023-10-19 14:52:03.603134
1380  2023-10-19 14:52:03.635110
1381  2023-10-19 14:52:03.667008
1382  2023-10-19 14:52:03.715870
1383  2023-10-19 14:52:03.747782
1384  2023-10-19 14:52:03.779704
1385  2023-10-19 14:52:03.811611
1386  2023-10-19 14:52:03.843531
1387  2023-10-19 14:52:03.875434
1388  2023-10-19 14:52:03.907376
1389  2023-10-19 14:52:03.939281
1390  2023-10-19 14:52:03.971217
1391  2023-10-19 14:52:04.003102
1392  2023-10-19 14:52:04.035018
1393  2023-10-19 14:52:04.067933
1394  2023-10-19 14:52:04.115815
1395  2023-10-19 14:52:04.147679
1396  2023-10-19 14:52:04.179631
1397  2023-10-19 14:52:04.211544
1398  2023-10-19 14:52:04.243448
1399  2023-10-19 14:52:04.275388
1400  2023-10-19 14:52:04.307301
1401  2023-10-19 14:52:04.339207
1402  2023-10-19 14:52:04.371109
1403  2023-10-19 14:52:04.403026
1404  2023-10-19 14:52:04.434941
1405  2023-10-19 14:52:04.467863
1406  2023-10-19 14:52:04.515727
1407  2023-10-19 14:52:04.547643
1408  2023-10-19 14:52:04.579525
1409  2023-10-19 14:52:04.611476
1410  2023-10-19 14:52:04.643392
1411  2023-10-19 14:52:04.675266
1412  2023-10-19 14:52:04.707238
1413  2023-10-19 14:52:04.739097
1414  2023-10-19 14:52:04.771047
1415  2023-10-19 14:52:04.802961
1416  2023-10-19 14:52:04.835891
1417  2023-10-19 14:52:04.867752
1418  2023-10-19 14:52:04.915670
1419  2023-10-19 14:52:04.947540
1420  2023-10-19 14:52:04.979506
1421  2023-10-19 14:52:05.011420
1422  2023-10-19 14:52:05.043316
1423  2023-10-19 14:52:05.075232
1424  2023-10-19 14:52:05.107146
1425  2023-10-19 14:52:05.139030
1426  2023-10-19 14:52:05.170970
1427  2023-10-19 14:52:05.203852
1428  2023-10-19 14:52:05.235808
1429  2023-10-19 14:52:05.267719
1430  2023-10-19 14:52:05.315598
1431  2023-10-19 14:52:05.347507
1432  2023-10-19 14:52:05.379435
1433  2023-10-19 14:52:05.411365
1434  2023-10-19 14:52:05.443257
1435  2023-10-19 14:52:05.475195
1436  2023-10-19 14:52:05.507102
1437  2023-10-19 14:52:05.539012
1438  2023-10-19 14:52:05.571912
1439  2023-10-19 14:52:05.603824
1440  2023-10-19 14:52:05.635744
1441  2023-10-19 14:52:05.667647
1442  2023-10-19 14:52:05.715493
1443  2023-10-19 14:52:05.747399
1444  2023-10-19 14:52:05.779366
1445  2023-10-19 14:52:05.811264
1446  2023-10-19 14:52:05.843203
1447  2023-10-19 14:52:05.875063
1448  2023-10-19 14:52:05.906999
1449  2023-10-19 14:52:05.938930
1450  2023-10-19 14:52:05.971854
1451  2023-10-19 14:52:06.003762
1452  2023-10-19 14:52:06.035657
1453  2023-10-19 14:52:06.067584
1454  2023-10-19 14:52:06.115452
1455  2023-10-19 14:52:06.147377
1456  2023-10-19 14:52:06.179291
1457  2023-10-19 14:52:06.211188
1458  2023-10-19 14:52:06.243102
1459  2023-10-19 14:52:06.274987
1460  2023-10-19 14:52:06.306943
1461  2023-10-19 14:52:06.339818
1462  2023-10-19 14:52:06.371777
1463  2023-10-19 14:52:06.403684
1464  2023-10-19 14:52:06.435626
1465  2023-10-19 14:52:06.467474
1466  2023-10-19 14:52:06.515399
1467  2023-10-19 14:52:06.547295
1468  2023-10-19 14:52:06.579212
1469  2023-10-19 14:52:06.611124
1470  2023-10-19 14:52:06.643045
1471  2023-10-19 14:52:06.674961
1472  2023-10-19 14:52:06.707877
1473  2023-10-19 14:52:06.739745
1474  2023-10-19 14:52:06.771660
1475  2023-10-19 14:52:06.803575
1476  2023-10-19 14:52:06.835488
1477  2023-10-19 14:52:06.867404
1478  2023-10-19 14:52:06.915276
1479  2023-10-19 14:52:06.947190
1480  2023-10-19 14:52:06.980103
1481  2023-10-19 14:52:07.011020
1482  2023-10-19 14:52:07.042934
1483  2023-10-19 14:52:07.075848
1484  2023-10-19 14:52:07.107763
1485  2023-10-19 14:52:07.139676
1486  2023-10-19 14:52:07.171591
1487  2023-10-19 14:52:07.203506
1488  2023-10-19 14:52:07.235428
1489  2023-10-19 14:52:07.267334
1490  2023-10-19 14:52:07.315207
1491  2023-10-19 14:52:07.347121
1492  2023-10-19 14:52:07.379037
1493  2023-10-19 14:52:07.411001
1494  2023-10-19 14:52:07.443862
1495  2023-10-19 14:52:07.475777
1496  2023-10-19 14:52:07.507691
1497  2023-10-19 14:52:07.539633
1498  2023-10-19 14:52:07.571521
1499  2023-10-19 14:52:07.603435
1500  2023-10-19 14:52:07.635350
1501  2023-10-19 14:52:07.667310
1502  2023-10-19 14:52:07.715136
1503  2023-10-19 14:52:07.747107
1504  2023-10-19 14:52:07.778966
1505  2023-10-19 14:52:07.811878
1506  2023-10-19 14:52:07.843792
1507  2023-10-19 14:52:07.875707
1508  2023-10-19 14:52:07.907620
1509  2023-10-19 14:52:07.939536
1510  2023-10-19 14:52:07.971451
1511  2023-10-19 14:52:08.003366
1512  2023-10-19 14:52:08.035280
1513  2023-10-19 14:52:08.067195
1514  2023-10-19 14:52:08.116064
1515  2023-10-19 14:52:08.146981
1516  2023-10-19 14:52:08.178898
1517  2023-10-19 14:52:08.211808
1518  2023-10-19 14:52:08.243723
1519  2023-10-19 14:52:08.275637
1520  2023-10-19 14:52:08.307552
1521  2023-10-19 14:52:08.339467
1522  2023-10-19 14:52:08.371381
1523  2023-10-19 14:52:08.403296
1524  2023-10-19 14:52:08.435210
1525  2023-10-19 14:52:08.467125
1526  2023-10-19 14:52:08.514997
1527  2023-10-19 14:52:08.547909
1528  2023-10-19 14:52:08.579823
1529  2023-10-19 14:52:08.611738
1530  2023-10-19 14:52:08.643653
1531  2023-10-19 14:52:08.675568
1532  2023-10-19 14:52:08.707482
1533  2023-10-19 14:52:08.739396
1534  2023-10-19 14:52:08.771312
1535  2023-10-19 14:52:08.803226
1536  2023-10-19 14:52:08.835140
1537  2023-10-19 14:52:08.867055
1538  2023-10-19 14:52:08.898970
1539  2023-10-19 14:52:08.947839
1540  2023-10-19 14:52:08.979754
1541  2023-10-19 14:52:09.011667
1542  2023-10-19 14:52:09.043583
1543  2023-10-19 14:52:09.075524
1544  2023-10-19 14:52:09.107412
1545  2023-10-19 14:52:09.139327
1546  2023-10-19 14:52:09.171241
1547  2023-10-19 14:52:09.203204
1548  2023-10-19 14:52:09.235110
1549  2023-10-19 14:52:09.266986
1550  2023-10-19 14:52:09.299897
1551  2023-10-19 14:52:09.347770
1552  2023-10-19 14:52:09.379684
1553  2023-10-19 14:52:09.411643
1554  2023-10-19 14:52:09.443513
1555  2023-10-19 14:52:09.475428
1556  2023-10-19 14:52:09.507342
1557  2023-10-19 14:52:09.539282
1558  2023-10-19 14:52:09.571176
1559  2023-10-19 14:52:09.603086
1560  2023-10-19 14:52:09.635001
1561  2023-10-19 14:52:09.666950
1562  2023-10-19 14:52:09.699855
1563  2023-10-19 14:52:09.747725
1564  2023-10-19 14:52:09.779614
1565  2023-10-19 14:52:09.811529
1566  2023-10-19 14:52:09.843444
1567  2023-10-19 14:52:09.875395
1568  2023-10-19 14:52:09.907300
1569  2023-10-19 14:52:09.939187
1570  2023-10-19 14:52:09.971102
1571  2023-10-19 14:52:10.003052
1572  2023-10-19 14:52:10.034961
1573  2023-10-19 14:52:10.067843
1574  2023-10-19 14:52:10.099756
1575  2023-10-19 14:52:10.147630
1576  2023-10-19 14:52:10.179548
1577  2023-10-19 14:52:10.211459
1578  2023-10-19 14:52:10.243374
1579  2023-10-19 14:52:10.275288
1580  2023-10-19 14:52:10.307203
1581  2023-10-19 14:52:10.339118
1582  2023-10-19 14:52:10.371032
1583  2023-10-19 14:52:10.403944
1584  2023-10-19 14:52:10.435859
1585  2023-10-19 14:52:10.467773
1586  2023-10-19 14:52:10.499688
1587  2023-10-19 14:52:10.547560
1588  2023-10-19 14:52:10.579474
1589  2023-10-19 14:52:10.611389
1590  2023-10-19 14:52:10.643303
1591  2023-10-19 14:52:10.675219
1592  2023-10-19 14:52:10.707133
1593  2023-10-19 14:52:10.739055
1594  2023-10-19 14:52:10.771960
1595  2023-10-19 14:52:10.803875
1596  2023-10-19 14:52:10.835789
1597  2023-10-19 14:52:10.867702
1598  2023-10-19 14:52:10.899618
1599  2023-10-19 14:52:10.947490
1600  2023-10-19 14:52:10.979405
1601  2023-10-19 14:52:11.011320
1602  2023-10-19 14:52:11.043234
1603  2023-10-19 14:52:11.075185
1604  2023-10-19 14:52:11.107063
1605  2023-10-19 14:52:11.138978
1606  2023-10-19 14:52:11.171889
1607  2023-10-19 14:52:11.203804
1608  2023-10-19 14:52:11.235719
1609  2023-10-19 14:52:11.267634
1610  2023-10-19 14:52:11.299548
1611  2023-10-19 14:52:11.347420
1612  2023-10-19 14:52:11.379335
1613  2023-10-19 14:52:11.411297
1614  2023-10-19 14:52:11.443164
1615  2023-10-19 14:52:11.475079
1616  2023-10-19 14:52:11.506994
1617  2023-10-19 14:52:11.538935
1618  2023-10-19 14:52:11.571845
1619  2023-10-19 14:52:11.603735
1620  2023-10-19 14:52:11.635649
1621  2023-10-19 14:52:11.667567
1622  2023-10-19 14:52:11.699506
1623  2023-10-19 14:52:11.747354
1624  2023-10-19 14:52:11.779270
1625  2023-10-19 14:52:11.811180
1626  2023-10-19 14:52:11.843095
1627  2023-10-19 14:52:11.875056
1628  2023-10-19 14:52:11.906924
1629  2023-10-19 14:52:11.939836
1630  2023-10-19 14:52:11.971751
1631  2023-10-19 14:52:12.004691
1632  2023-10-19 14:52:12.035580
1633  2023-10-19 14:52:12.067494
1634  2023-10-19 14:52:12.099410
1635  2023-10-19 14:52:12.148305
1636  2023-10-19 14:52:12.179194
1637  2023-10-19 14:52:12.212108
1638  2023-10-19 14:52:12.244021
1639  2023-10-19 14:52:12.275937
1640  2023-10-19 14:52:12.307850
1641  2023-10-19 14:52:12.339765
1642  2023-10-19 14:52:12.371679
1643  2023-10-19 14:52:12.403594
1644  2023-10-19 14:52:12.435509
1645  2023-10-19 14:52:12.468455
1646  2023-10-19 14:52:12.500367
1647  2023-10-19 14:52:12.548246
1648  2023-10-19 14:52:12.580128
1649  2023-10-19 14:52:12.612038
1650  2023-10-19 14:52:12.643952
1651  2023-10-19 14:52:12.675874
1652  2023-10-19 14:52:12.707782
1653  2023-10-19 14:52:12.739696
1654  2023-10-19 14:52:12.771609
1655  2023-10-19 14:52:12.803525
1656  2023-10-19 14:52:12.835439
1657  2023-10-19 14:52:12.867381
1658  2023-10-19 14:52:12.899268
1659  2023-10-19 14:52:12.948188
1660  2023-10-19 14:52:12.980053
1661  2023-10-19 14:52:13.012003
1662  2023-10-19 14:52:13.043883
1663  2023-10-19 14:52:13.075837
1664  2023-10-19 14:52:13.107750
1665  2023-10-19 14:52:13.139627
1666  2023-10-19 14:52:13.171580
1667  2023-10-19 14:52:13.203455
1668  2023-10-19 14:52:13.235401
1669  2023-10-19 14:52:13.267316
1670  2023-10-19 14:52:13.299242
1671  2023-10-19 14:52:13.347070
1672  2023-10-19 14:52:13.379012
1673  2023-10-19 14:52:13.411944
1674  2023-10-19 14:52:13.443840
1675  2023-10-19 14:52:13.475761
1676  2023-10-19 14:52:13.507669
1677  2023-10-19 14:52:13.539590
1678  2023-10-19 14:52:13.571500
1679  2023-10-19 14:52:13.603386
1680  2023-10-19 14:52:13.635333
1681  2023-10-19 14:52:13.667254
1682  2023-10-19 14:52:13.699157
1683  2023-10-19 14:52:13.747001
1684  2023-10-19 14:52:13.778915
1685  2023-10-19 14:52:13.812860
1686  2023-10-19 14:52:13.843783
1687  2023-10-19 14:52:13.875664
1688  2023-10-19 14:52:13.907604
1689  2023-10-19 14:52:13.939513
1690  2023-10-19 14:52:13.971443
1691  2023-10-19 14:52:14.003315
1692  2023-10-19 14:52:14.035282
1693  2023-10-19 14:52:14.068181
1694  2023-10-19 14:52:14.100085
1695  2023-10-19 14:52:14.147961
1696  2023-10-19 14:52:14.179844
1697  2023-10-19 14:52:14.211802
1698  2023-10-19 14:52:14.244698
1699  2023-10-19 14:52:14.275588
1700  2023-10-19 14:52:14.307502
1701  2023-10-19 14:52:14.339424
1702  2023-10-19 14:52:14.371375
1703  2023-10-19 14:52:14.404279
1704  2023-10-19 14:52:14.436190
1705  2023-10-19 14:52:14.468107
1706  2023-10-19 14:52:14.500029
1707  2023-10-19 14:52:14.547860
1708  2023-10-19 14:52:14.579778
1709  2023-10-19 14:52:14.611727
1710  2023-10-19 14:52:14.643604
1711  2023-10-19 14:52:14.675518
1712  2023-10-19 14:52:14.707469
1713  2023-10-19 14:52:14.739383
1714  2023-10-19 14:52:14.771298
1715  2023-10-19 14:52:14.804203
1716  2023-10-19 14:52:14.836134
1717  2023-10-19 14:52:14.868039
1718  2023-10-19 14:52:14.898949
1719  2023-10-19 14:52:14.947823
1720  2023-10-19 14:52:14.979746
1721  2023-10-19 14:52:15.011655
1722  2023-10-19 14:52:15.043561
1723  2023-10-19 14:52:15.075448
1724  2023-10-19 14:52:15.107401
1725  2023-10-19 14:52:15.139277
1726  2023-10-19 14:52:15.171221
1727  2023-10-19 14:52:15.204105
1728  2023-10-19 14:52:15.235021
1729  2023-10-19 14:52:15.266936
1730  2023-10-19 14:52:15.299875
1731  2023-10-19 14:52:15.347755
1732  2023-10-19 14:52:15.379676
1733  2023-10-19 14:52:15.411575
1734  2023-10-19 14:52:15.443501
1735  2023-10-19 14:52:15.475377
1736  2023-10-19 14:52:15.507320
1737  2023-10-19 14:52:15.539207
1738  2023-10-19 14:52:15.571122
1739  2023-10-19 14:52:15.604035
1740  2023-10-19 14:52:15.634952
1741  2023-10-19 14:52:15.667864
1742  2023-10-19 14:52:15.699778
1743  2023-10-19 14:52:15.747685
1744  2023-10-19 14:52:15.779596
1745  2023-10-19 14:52:15.811510
1746  2023-10-19 14:52:15.843420
1747  2023-10-19 14:52:15.875308
1748  2023-10-19 14:52:15.907252
1749  2023-10-19 14:52:15.939166
1750  2023-10-19 14:52:15.971085
1751  2023-10-19 14:52:16.003969
1752  2023-10-19 14:52:16.035912
1753  2023-10-19 14:52:16.067820
1754  2023-10-19 14:52:16.099748
1755  2023-10-19 14:52:16.147580
1756  2023-10-19 14:52:16.179531
1757  2023-10-19 14:52:16.211415
1758  2023-10-19 14:52:16.243393
1759  2023-10-19 14:52:16.275303
1760  2023-10-19 14:52:16.307202
1761  2023-10-19 14:52:16.339100
1762  2023-10-19 14:52:16.371037
1763  2023-10-19 14:52:16.402945
1764  2023-10-19 14:52:16.435847
1765  2023-10-19 14:52:16.467763
1766  2023-10-19 14:52:16.499692
1767  2023-10-19 14:52:16.547510
1768  2023-10-19 14:52:16.579427
1769  2023-10-19 14:52:16.611376
1770  2023-10-19 14:52:16.643291
1771  2023-10-19 14:52:16.675208
1772  2023-10-19 14:52:16.707112
1773  2023-10-19 14:52:16.739022
1774  2023-10-19 14:52:16.770951
1775  2023-10-19 14:52:16.803863
1776  2023-10-19 14:52:16.835744
1777  2023-10-19 14:52:16.867655
1778  2023-10-19 14:52:16.899596
1779  2023-10-19 14:52:16.947442
1780  2023-10-19 14:52:16.979399
1781  2023-10-19 14:52:17.011321
1782  2023-10-19 14:52:17.043223
1783  2023-10-19 14:52:17.076135
1784  2023-10-19 14:52:17.107014
1785  2023-10-19 14:52:17.138929
1786  2023-10-19 14:52:17.171872
1787  2023-10-19 14:52:17.203791
1788  2023-10-19 14:52:17.235674
1789  2023-10-19 14:52:17.267623
1790  2023-10-19 14:52:17.299534
1791  2023-10-19 14:52:17.347421
1792  2023-10-19 14:52:17.379347
1793  2023-10-19 14:52:17.411239
1794  2023-10-19 14:52:17.443154
1795  2023-10-19 14:52:17.476053
1796  2023-10-19 14:52:17.506977
1797  2023-10-19 14:52:17.539899
1798  2023-10-19 14:52:17.571808
1799  2023-10-19 14:52:17.603721
1800  2023-10-19 14:52:17.635599
1801  2023-10-19 14:52:17.667553
1802  2023-10-19 14:52:17.699473
1803  2023-10-19 14:52:17.747305
1804  2023-10-19 14:52:17.779252
1805  2023-10-19 14:52:17.811175
1806  2023-10-19 14:52:17.843085
1807  2023-10-19 14:52:17.875962
1808  2023-10-19 14:52:17.907882
1809  2023-10-19 14:52:17.939843
1810  2023-10-19 14:52:17.971732
1811  2023-10-19 14:52:18.003653
1812  2023-10-19 14:52:18.035576
1813  2023-10-19 14:52:18.067481
1814  2023-10-19 14:52:18.099386
1815  2023-10-19 14:52:18.147286
1816  2023-10-19 14:52:18.179145
1817  2023-10-19 14:52:18.211064
1818  2023-10-19 14:52:18.242979
1819  2023-10-19 14:52:18.274927
1820  2023-10-19 14:52:18.307846
1821  2023-10-19 14:52:18.339742
1822  2023-10-19 14:52:18.371658
1823  2023-10-19 14:52:18.403578
1824  2023-10-19 14:52:18.435489
1825  2023-10-19 14:52:18.467419
1826  2023-10-19 14:52:18.499337
1827  2023-10-19 14:52:18.547205
1828  2023-10-19 14:52:18.580111
1829  2023-10-19 14:52:18.611018
1830  2023-10-19 14:52:18.642943
1831  2023-10-19 14:52:18.675865
1832  2023-10-19 14:52:18.707731
1833  2023-10-19 14:52:18.739682
1834  2023-10-19 14:52:18.771596
1835  2023-10-19 14:52:18.803504
1836  2023-10-19 14:52:18.835426
1837  2023-10-19 14:52:18.867347
1838  2023-10-19 14:52:18.899278
1839  2023-10-19 14:52:18.948091
1840  2023-10-19 14:52:18.979021
1841  2023-10-19 14:52:19.010958
1842  2023-10-19 14:52:19.043859
1843  2023-10-19 14:52:19.075749
1844  2023-10-19 14:52:19.107700
1845  2023-10-19 14:52:19.139611
1846  2023-10-19 14:52:19.171525
1847  2023-10-19 14:52:19.203441
1848  2023-10-19 14:52:19.235320
1849  2023-10-19 14:52:19.267273
1850  2023-10-19 14:52:19.299190
1851  2023-10-19 14:52:19.347068
1852  2023-10-19 14:52:19.378988
1853  2023-10-19 14:52:19.410892
1854  2023-10-19 14:52:19.443812
1855  2023-10-19 14:52:19.475714
1856  2023-10-19 14:52:19.507629
1857  2023-10-19 14:52:19.539511
1858  2023-10-19 14:52:19.571468
1859  2023-10-19 14:52:19.603340
1860  2023-10-19 14:52:19.635255
1861  2023-10-19 14:52:19.667209
1862  2023-10-19 14:52:19.699124
1863  2023-10-19 14:52:19.746979
1864  2023-10-19 14:52:19.779863
1865  2023-10-19 14:52:19.811778
1866  2023-10-19 14:52:19.843720
1867  2023-10-19 14:52:19.875643
1868  2023-10-19 14:52:19.907566
1869  2023-10-19 14:52:19.939437
1870  2023-10-19 14:52:19.971398
1871  2023-10-19 14:52:20.003300
1872  2023-10-19 14:52:20.035220
1873  2023-10-19 14:52:20.068095
1874  2023-10-19 14:52:20.099039
1875  2023-10-19 14:52:20.146930
1876  2023-10-19 14:52:20.179838
1877  2023-10-19 14:52:20.211759
1878  2023-10-19 14:52:20.243663
1879  2023-10-19 14:52:20.275538
1880  2023-10-19 14:52:20.307498
1881  2023-10-19 14:52:20.339367
1882  2023-10-19 14:52:20.371282
1883  2023-10-19 14:52:20.403196
1884  2023-10-19 14:52:20.435112
1885  2023-10-19 14:52:20.467025
1886  2023-10-19 14:52:20.498941
1887  2023-10-19 14:52:20.546853
1888  2023-10-19 14:52:20.579725
1889  2023-10-19 14:52:20.611675
1890  2023-10-19 14:52:20.643588
1891  2023-10-19 14:52:20.675495
1892  2023-10-19 14:52:20.707382
1893  2023-10-19 14:52:20.739339
1894  2023-10-19 14:52:20.771253
1895  2023-10-19 14:52:20.803171
1896  2023-10-19 14:52:20.835046
1897  2023-10-19 14:52:20.867000
1898  2023-10-19 14:52:20.899869
1899  2023-10-19 14:52:20.947787
1900  2023-10-19 14:52:20.979654
1901  2023-10-19 14:52:21.011599
1902  2023-10-19 14:52:21.043546
1903  2023-10-19 14:52:21.075438
1904  2023-10-19 14:52:21.107355
1905  2023-10-19 14:52:21.139279
1906  2023-10-19 14:52:21.171182
1907  2023-10-19 14:52:21.203091
1908  2023-10-19 14:52:21.234999
1909  2023-10-19 14:52:21.267884
1910  2023-10-19 14:52:21.299825
1911  2023-10-19 14:52:21.347706
1912  2023-10-19 14:52:21.379612
1913  2023-10-19 14:52:21.411500
1914  2023-10-19 14:52:21.443414
1915  2023-10-19 14:52:21.475364
1916  2023-10-19 14:52:21.507281
1917  2023-10-19 14:52:21.539159
1918  2023-10-19 14:52:21.571073
1919  2023-10-19 14:52:21.603029
1920  2023-10-19 14:52:21.634930
1921  2023-10-19 14:52:21.667856
1922  2023-10-19 14:52:21.699729
1923  2023-10-19 14:52:21.747601
1924  2023-10-19 14:52:21.779553
1925  2023-10-19 14:52:21.811472
1926  2023-10-19 14:52:21.843373
1927  2023-10-19 14:52:21.875297
1928  2023-10-19 14:52:21.907229
1929  2023-10-19 14:52:21.939124
1930  2023-10-19 14:52:21.971003
1931  2023-10-19 14:52:22.003916
1932  2023-10-19 14:52:22.035885
1933  2023-10-19 14:52:22.067774
1934  2023-10-19 14:52:22.099696
1935  2023-10-19 14:52:22.147590
1936  2023-10-19 14:52:22.179472
1937  2023-10-19 14:52:22.211394
1938  2023-10-19 14:52:22.243320
1939  2023-10-19 14:52:22.275226
1940  2023-10-19 14:52:22.307132
1941  2023-10-19 14:52:22.339046
1942  2023-10-19 14:52:22.370978
1943  2023-10-19 14:52:22.402899
1944  2023-10-19 14:52:22.435814
1945  2023-10-19 14:52:22.467712
1946  2023-10-19 14:52:22.499588
1947  2023-10-19 14:52:22.547461
1948  2023-10-19 14:52:22.579420
1949  2023-10-19 14:52:22.611290
1950  2023-10-19 14:52:22.643258
1951  2023-10-19 14:52:22.675158
1952  2023-10-19 14:52:22.707064
1953  2023-10-19 14:52:22.739947
1954  2023-10-19 14:52:22.771898
1955  2023-10-19 14:52:22.803833
1956  2023-10-19 14:52:22.835717
1957  2023-10-19 14:52:22.867605
1958  2023-10-19 14:52:22.899556
1959  2023-10-19 14:52:22.947395
1960  2023-10-19 14:52:22.979310
1961  2023-10-19 14:52:23.011246
1962  2023-10-19 14:52:23.043134
1963  2023-10-19 14:52:23.075100
1964  2023-10-19 14:52:23.107003
1965  2023-10-19 14:52:23.139877
1966  2023-10-19 14:52:23.171833
1967  2023-10-19 14:52:23.203746
1968  2023-10-19 14:52:23.235666
1969  2023-10-19 14:52:23.267585
1970  2023-10-19 14:52:23.299488
1971  2023-10-19 14:52:23.347367
1972  2023-10-19 14:52:23.379275
1973  2023-10-19 14:52:23.411189
1974  2023-10-19 14:52:23.443106
1975  2023-10-19 14:52:23.476024
1976  2023-10-19 14:52:23.506928
1977  2023-10-19 14:52:23.539814
1978  2023-10-19 14:52:23.571768
1979  2023-10-19 14:52:23.603635
1980  2023-10-19 14:52:23.635554
1981  2023-10-19 14:52:23.667500
1982  2023-10-19 14:52:23.699403
1983  2023-10-19 14:52:23.747290
1984  2023-10-19 14:52:23.779205
1985  2023-10-19 14:52:23.811127
1986  2023-10-19 14:52:23.843052
1987  2023-10-19 14:52:23.874937
1988  2023-10-19 14:52:23.907859
1989  2023-10-19 14:52:23.939764
1990  2023-10-19 14:52:23.971679
1991  2023-10-19 14:52:24.003604
1992  2023-10-19 14:52:24.035508
1993  2023-10-19 14:52:24.067396
1994  2023-10-19 14:52:24.099351
1995  2023-10-19 14:52:24.147181
1996  2023-10-19 14:52:24.179131
1997  2023-10-19 14:52:24.212048
1998  2023-10-19 14:52:24.242930
1999  2023-10-19 14:52:24.274880
2000  2023-10-19 14:52:24.307785
2001  2023-10-19 14:52:24.339699
2002  2023-10-19 14:52:24.371619
2003  2023-10-19 14:52:24.403497
2004  2023-10-19 14:52:24.435466
2005  2023-10-19 14:52:24.467372
2006  2023-10-19 14:52:24.499279
2007  2023-10-19 14:52:24.547167
2008  2023-10-19 14:52:24.579056
2009  2023-10-19 14:52:24.610973
2010  2023-10-19 14:52:24.643894
2011  2023-10-19 14:52:24.675767
2012  2023-10-19 14:52:24.707723
2013  2023-10-19 14:52:24.739633
2014  2023-10-19 14:52:24.771538
2015  2023-10-19 14:52:24.803471
2016  2023-10-19 14:52:24.835400
2017  2023-10-19 14:52:24.867319
2018  2023-10-19 14:52:24.900209
2019  2023-10-19 14:52:24.948041
2020  2023-10-19 14:52:24.978958
2021  2023-10-19 14:52:25.010900
2022  2023-10-19 14:52:25.043832
2023  2023-10-19 14:52:25.075725
2024  2023-10-19 14:52:25.107661
2025  2023-10-19 14:52:25.139574
2026  2023-10-19 14:52:25.171486
2027  2023-10-19 14:52:25.203401
2028  2023-10-19 14:52:25.235311
2029  2023-10-19 14:52:25.267227
2030  2023-10-19 14:52:25.299134
2031  2023-10-19 14:52:25.348017
2032  2023-10-19 14:52:25.379919
2033  2023-10-19 14:52:25.411803
2034  2023-10-19 14:52:25.443741
2035  2023-10-19 14:52:25.475670
2036  2023-10-19 14:52:25.507576
2037  2023-10-19 14:52:25.539462
2038  2023-10-19 14:52:25.571377
2039  2023-10-19 14:52:25.603324
2040  2023-10-19 14:52:25.635241
2041  2023-10-19 14:52:25.667145
2042  2023-10-19 14:52:25.699061
2043  2023-10-19 14:52:25.746933
2044  2023-10-19 14:52:25.779814
2045  2023-10-19 14:52:25.811783
2046  2023-10-19 14:52:25.843675
2047  2023-10-19 14:52:25.875600
2048  2023-10-19 14:52:25.907518
2049  2023-10-19 14:52:25.939388
2050  2023-10-19 14:52:25.971341
2051  2023-10-19 14:52:26.003244
2052  2023-10-19 14:52:26.035174
2053  2023-10-19 14:52:26.067082
2054  2023-10-19 14:52:26.099008
2055  2023-10-19 14:52:26.147863
2056  2023-10-19 14:52:26.179785
2057  2023-10-19 14:52:26.211687
2058  2023-10-19 14:52:26.243613
2059  2023-10-19 14:52:26.275530
2060  2023-10-19 14:52:26.307403
2061  2023-10-19 14:52:26.339347
2062  2023-10-19 14:52:26.371271
2063  2023-10-19 14:52:26.403187
2064  2023-10-19 14:52:26.435098
2065  2023-10-19 14:52:26.467012
2066  2023-10-19 14:52:26.498941
2067  2023-10-19 14:52:26.547804
2068  2023-10-19 14:52:26.579677
2069  2023-10-19 14:52:26.611637
2070  2023-10-19 14:52:26.643551
2071  2023-10-19 14:52:26.675462
2072  2023-10-19 14:52:26.707373
2073  2023-10-19 14:52:26.740246
2074  2023-10-19 14:52:26.771206
2075  2023-10-19 14:52:26.803115
2076  2023-10-19 14:52:26.835032
2077  2023-10-19 14:52:26.867904
2078  2023-10-19 14:52:26.899858
2079  2023-10-19 14:52:26.947691
2080  2023-10-19 14:52:26.979652
2081  2023-10-19 14:52:27.011556
2082  2023-10-19 14:52:27.043478
2083  2023-10-19 14:52:27.075385
2084  2023-10-19 14:52:27.107305
2085  2023-10-19 14:52:27.139228
2086  2023-10-19 14:52:27.171141
2087  2023-10-19 14:52:27.203047
2088  2023-10-19 14:52:27.235921
2089  2023-10-19 14:52:27.267883
2090  2023-10-19 14:52:27.299784
2091  2023-10-19 14:52:27.347673
2092  2023-10-19 14:52:27.379535
2093  2023-10-19 14:52:27.411450
2094  2023-10-19 14:52:27.443423
2095  2023-10-19 14:52:27.475332
2096  2023-10-19 14:52:27.507239
2097  2023-10-19 14:52:27.539147
2098  2023-10-19 14:52:27.571063
2099  2023-10-19 14:52:27.602985
2100  2023-10-19 14:52:27.635895
2101  2023-10-19 14:52:27.667819
2102  2023-10-19 14:52:27.699739
2103  2023-10-19 14:52:27.747580
2104  2023-10-19 14:52:27.779470
2105  2023-10-19 14:52:27.811437
2106  2023-10-19 14:52:27.843331
2107  2023-10-19 14:52:27.875237
2108  2023-10-19 14:52:27.907128
2109  2023-10-19 14:52:27.940036
2110  2023-10-19 14:52:27.971984
2111  2023-10-19 14:52:28.002869
2112  2023-10-19 14:52:28.035781
2113  2023-10-19 14:52:28.067735
2114  2023-10-19 14:52:28.099673
2115  2023-10-19 14:52:28.147524
2116  2023-10-19 14:52:28.179437
2117  2023-10-19 14:52:28.211347
2118  2023-10-19 14:52:28.243262
2119  2023-10-19 14:52:28.275180
2120  2023-10-19 14:52:28.307098
2121  2023-10-19 14:52:28.340002
2122  2023-10-19 14:52:28.371882
2123  2023-10-19 14:52:28.403839
2124  2023-10-19 14:52:28.435759
2125  2023-10-19 14:52:28.467625
2126  2023-10-19 14:52:28.499579
2127  2023-10-19 14:52:28.547477
2128  2023-10-19 14:52:28.579362
2129  2023-10-19 14:52:28.611270
2130  2023-10-19 14:52:28.643195
2131  2023-10-19 14:52:28.675110
2132  2023-10-19 14:52:28.707020
2133  2023-10-19 14:52:28.739898
2134  2023-10-19 14:52:28.771854
2135  2023-10-19 14:52:28.803727
2136  2023-10-19 14:52:28.835642
2137  2023-10-19 14:52:28.867586
2138  2023-10-19 14:52:28.899472
2139  2023-10-19 14:52:28.947343
2140  2023-10-19 14:52:28.979256
2141  2023-10-19 14:52:29.011216
2142  2023-10-19 14:52:29.043127
2143  2023-10-19 14:52:29.076048
2144  2023-10-19 14:52:29.106943
2145  2023-10-19 14:52:29.139828
2146  2023-10-19 14:52:29.171742
2147  2023-10-19 14:52:29.203685
2148  2023-10-19 14:52:29.235572
2149  2023-10-19 14:52:29.267486
2150  2023-10-19 14:52:29.299401
2151  2023-10-19 14:52:29.347273
2152  2023-10-19 14:52:29.379225
2153  2023-10-19 14:52:29.411135
2154  2023-10-19 14:52:29.444015
2155  2023-10-19 14:52:29.475929
2156  2023-10-19 14:52:29.507874
2157  2023-10-19 14:52:29.539757
2158  2023-10-19 14:52:29.571673
2159  2023-10-19 14:52:29.603587
2160  2023-10-19 14:52:29.635502
2161  2023-10-19 14:52:29.667417
2162  2023-10-19 14:52:29.699333
2163  2023-10-19 14:52:29.747203
2164  2023-10-19 14:52:29.779158
2165  2023-10-19 14:52:29.811032
2166  2023-10-19 14:52:29.843944
2167  2023-10-19 14:52:29.875859
2168  2023-10-19 14:52:29.907775
2169  2023-10-19 14:52:29.939688
2170  2023-10-19 14:52:29.971604
2171  2023-10-19 14:52:30.003518
2172  2023-10-19 14:52:30.035463
2173  2023-10-19 14:52:30.067383
2174  2023-10-19 14:52:30.099261
2175  2023-10-19 14:52:30.147134
2176  2023-10-19 14:52:30.179048
2177  2023-10-19 14:52:30.210966
2178  2023-10-19 14:52:30.243915
2179  2023-10-19 14:52:30.275789
2180  2023-10-19 14:52:30.307704
2181  2023-10-19 14:52:30.339618
2182  2023-10-19 14:52:30.371579
2183  2023-10-19 14:52:30.403448
2184  2023-10-19 14:52:30.435362
2185  2023-10-19 14:52:30.467277
2186  2023-10-19 14:52:30.499232
2187  2023-10-19 14:52:30.548061
2188  2023-10-19 14:52:30.578977
2189  2023-10-19 14:52:30.611891
2190  2023-10-19 14:52:30.643805
2191  2023-10-19 14:52:30.675720
2192  2023-10-19 14:52:30.707634
2193  2023-10-19 14:52:30.739549
2194  2023-10-19 14:52:30.771463
2195  2023-10-19 14:52:30.803378
2196  2023-10-19 14:52:30.835296
2197  2023-10-19 14:52:30.867208
2198  2023-10-19 14:52:30.899122
2199  2023-10-19 14:52:30.946994
2200  2023-10-19 14:52:30.979906
2201  2023-10-19 14:52:31.011821
2202  2023-10-19 14:52:31.043735
2203  2023-10-19 14:52:31.075650
2204  2023-10-19 14:52:31.107564
2205  2023-10-19 14:52:31.139478
2206  2023-10-19 14:52:31.171394
2207  2023-10-19 14:52:31.203308
2208  2023-10-19 14:52:31.235223
2209  2023-10-19 14:52:31.267137
2210  2023-10-19 14:52:31.299052
2211  2023-10-19 14:52:31.347922
2212  2023-10-19 14:52:31.379836
2213  2023-10-19 14:52:31.411784
2214  2023-10-19 14:52:31.443665
2215  2023-10-19 14:52:31.475580
2216  2023-10-19 14:52:31.507495
2217  2023-10-19 14:52:31.539435
2218  2023-10-19 14:52:31.571367
2219  2023-10-19 14:52:31.603239
2220  2023-10-19 14:52:31.635153
2221  2023-10-19 14:52:31.667071
2222  2023-10-19 14:52:31.698982
2223  2023-10-19 14:52:31.746906
2224  2023-10-19 14:52:31.779766
2225  2023-10-19 14:52:31.811681
2226  2023-10-19 14:52:31.843596
2227  2023-10-19 14:52:31.875511
2228  2023-10-19 14:52:31.907425
2229  2023-10-19 14:52:31.939339
2230  2023-10-19 14:52:31.971255
2231  2023-10-19 14:52:32.003169
2232  2023-10-19 14:52:32.035083
2233  2023-10-19 14:52:32.067001
2234  2023-10-19 14:52:32.098913
2235  2023-10-19 14:52:32.147782
2236  2023-10-19 14:52:32.179697
2237  2023-10-19 14:52:32.211610
2238  2023-10-19 14:52:32.243526
2239  2023-10-19 14:52:32.275440
2240  2023-10-19 14:52:32.307355
2241  2023-10-19 14:52:32.339270
2242  2023-10-19 14:52:32.371186
2243  2023-10-19 14:52:32.404097
2244  2023-10-19 14:52:32.435014
2245  2023-10-19 14:52:32.466929
2246  2023-10-19 14:52:32.499877
2247  2023-10-19 14:52:32.547712
2248  2023-10-19 14:52:32.579652
2249  2023-10-19 14:52:32.611542
2250  2023-10-19 14:52:32.643456
2251  2023-10-19 14:52:32.675371
2252  2023-10-19 14:52:32.707311
2253  2023-10-19 14:52:32.739252
2254  2023-10-19 14:52:32.771115
2255  2023-10-19 14:52:32.803029
2256  2023-10-19 14:52:32.834973
2257  2023-10-19 14:52:32.867856
2258  2023-10-19 14:52:32.899771
2259  2023-10-19 14:52:32.947642
2260  2023-10-19 14:52:32.979557
2261  2023-10-19 14:52:33.011472
2262  2023-10-19 14:52:33.043387
2263  2023-10-19 14:52:33.075301
2264  2023-10-19 14:52:33.107215
2265  2023-10-19 14:52:33.139130
2266  2023-10-19 14:52:33.171045
2267  2023-10-19 14:52:33.202959
2268  2023-10-19 14:52:33.235873
2269  2023-10-19 14:52:33.267786
2270  2023-10-19 14:52:33.299701
2271  2023-10-19 14:52:33.347573
2272  2023-10-19 14:52:33.379488
2273  2023-10-19 14:52:33.411428
2274  2023-10-19 14:52:33.443316
2275  2023-10-19 14:52:33.475231
2276  2023-10-19 14:52:33.507146
2277  2023-10-19 14:52:33.539098
2278  2023-10-19 14:52:33.571008
2279  2023-10-19 14:52:33.603888
2280  2023-10-19 14:52:33.635806
2281  2023-10-19 14:52:33.667742
2282  2023-10-19 14:52:33.699680
2283  2023-10-19 14:52:33.747507
2284  2023-10-19 14:52:33.779444
2285  2023-10-19 14:52:33.811332
2286  2023-10-19 14:52:33.843247
2287  2023-10-19 14:52:33.875211
2288  2023-10-19 14:52:33.907113
2289  2023-10-19 14:52:33.938995
2290  2023-10-19 14:52:33.970906
2291  2023-10-19 14:52:34.003818
2292  2023-10-19 14:52:34.035758
2293  2023-10-19 14:52:34.067647
2294  2023-10-19 14:52:34.099561
2295  2023-10-19 14:52:34.147433
2296  2023-10-19 14:52:34.179348
2297  2023-10-19 14:52:34.211288
2298  2023-10-19 14:52:34.243213
2299  2023-10-19 14:52:34.275092
2300  2023-10-19 14:52:34.307006
2301  2023-10-19 14:52:34.338921
2302  2023-10-19 14:52:34.371833
2303  2023-10-19 14:52:34.403748
2304  2023-10-19 14:52:34.435662
2305  2023-10-19 14:52:34.467575
2306  2023-10-19 14:52:34.499523
2307  2023-10-19 14:52:34.547362
2308  2023-10-19 14:52:34.579313
2309  2023-10-19 14:52:34.611191
2310  2023-10-19 14:52:34.643106
2311  2023-10-19 14:52:34.675021
2312  2023-10-19 14:52:34.706935
2313  2023-10-19 14:52:34.739847
2314  2023-10-19 14:52:34.771762
2315  2023-10-19 14:52:34.803676
2316  2023-10-19 14:52:34.835591
2317  2023-10-19 14:52:34.867506
2318  2023-10-19 14:52:34.899420
2319  2023-10-19 14:52:34.947292
2320  2023-10-19 14:52:34.979207
2321  2023-10-19 14:52:35.011121
2322  2023-10-19 14:52:35.043036
2323  2023-10-19 14:52:35.074951
2324  2023-10-19 14:52:35.107863
2325  2023-10-19 14:52:35.139777
2326  2023-10-19 14:52:35.171692
2327  2023-10-19 14:52:35.203606
2328  2023-10-19 14:52:35.235522
2329  2023-10-19 14:52:35.268461
2330  2023-10-19 14:52:35.299350
2331  2023-10-19 14:52:35.347222
2332  2023-10-19 14:52:35.379137
2333  2023-10-19 14:52:35.411086
2334  2023-10-19 14:52:35.442968
2335  2023-10-19 14:52:35.476921
2336  2023-10-19 14:52:35.508821
2337  2023-10-19 14:52:35.539708
2338  2023-10-19 14:52:35.571657
2339  2023-10-19 14:52:35.604561
2340  2023-10-19 14:52:35.636498
2341  2023-10-19 14:52:35.667400
2342  2023-10-19 14:52:35.700307
2343  2023-10-19 14:52:35.748151
2344  2023-10-19 14:52:35.780066
2345  2023-10-19 14:52:35.811980
2346  2023-10-19 14:52:35.843895
2347  2023-10-19 14:52:35.876837
2348  2023-10-19 14:52:35.908750
2349  2023-10-19 14:52:35.940664
2350  2023-10-19 14:52:35.972578
2351  2023-10-19 14:52:36.004465
2352  2023-10-19 14:52:36.036408
2353  2023-10-19 14:52:36.068332
2354  2023-10-19 14:52:36.100243
2355  2023-10-19 14:52:36.148115
2356  2023-10-19 14:52:36.180024
2357  2023-10-19 14:52:36.211911
2358  2023-10-19 14:52:36.243825
2359  2023-10-19 14:52:36.275769
2360  2023-10-19 14:52:36.308692
2361  2023-10-19 14:52:36.339569
2362  2023-10-19 14:52:36.371484
2363  2023-10-19 14:52:36.404438
2364  2023-10-19 14:52:36.436355
2365  2023-10-19 14:52:36.468257
2366  2023-10-19 14:52:36.500166
2367  2023-10-19 14:52:36.548066
2368  2023-10-19 14:52:36.579927
2369  2023-10-19 14:52:36.611874
2370  2023-10-19 14:52:36.643792
2371  2023-10-19 14:52:36.675702
2372  2023-10-19 14:52:36.707625
2373  2023-10-19 14:52:36.739539
2374  2023-10-19 14:52:36.771440
2375  2023-10-19 14:52:36.803363
2376  2023-10-19 14:52:36.836273
2377  2023-10-19 14:52:36.868191
2378  2023-10-19 14:52:36.900101
2379  2023-10-19 14:52:36.947990
2380  2023-10-19 14:52:36.979886
2381  2023-10-19 14:52:37.011812
2382  2023-10-19 14:52:37.043686
2383  2023-10-19 14:52:37.075599
2384  2023-10-19 14:52:37.107545
2385  2023-10-19 14:52:37.139458
2386  2023-10-19 14:52:37.171389
2387  2023-10-19 14:52:37.203289
2388  2023-10-19 14:52:37.235211
2389  2023-10-19 14:52:37.267088
2390  2023-10-19 14:52:37.299052
2391  2023-10-19 14:52:37.347902
2392  2023-10-19 14:52:37.379835
2393  2023-10-19 14:52:37.411741
2394  2023-10-19 14:52:37.443651
2395  2023-10-19 14:52:37.475531
2396  2023-10-19 14:52:37.507481
2397  2023-10-19 14:52:37.539405
2398  2023-10-19 14:52:37.571325
2399  2023-10-19 14:52:37.603247
2400  2023-10-19 14:52:37.635103
2401  2023-10-19 14:52:37.667051
2402  2023-10-19 14:52:37.698933
2403  2023-10-19 14:52:37.747828
2404  2023-10-19 14:52:37.779758
2405  2023-10-19 14:52:37.811673
2406  2023-10-19 14:52:37.843576
2407  2023-10-19 14:52:37.875489
2408  2023-10-19 14:52:37.907377
2409  2023-10-19 14:52:37.939328
2410  2023-10-19 14:52:37.971250
2411  2023-10-19 14:52:38.003158
2412  2023-10-19 14:52:38.036033
2413  2023-10-19 14:52:38.067946
2414  2023-10-19 14:52:38.099860
2415  2023-10-19 14:52:38.148765
2416  2023-10-19 14:52:38.179646
2417  2023-10-19 14:52:38.211562
2418  2023-10-19 14:52:38.244509
2419  2023-10-19 14:52:38.276430
2420  2023-10-19 14:52:38.307331
2421  2023-10-19 14:52:38.339237
2422  2023-10-19 14:52:38.371164
2423  2023-10-19 14:52:38.405045
2424  2023-10-19 14:52:38.435989
2425  2023-10-19 14:52:38.467879
2426  2023-10-19 14:52:38.499790
2427  2023-10-19 14:52:38.548704
2428  2023-10-19 14:52:38.579577
2429  2023-10-19 14:52:38.611492
2430  2023-10-19 14:52:38.644440
2431  2023-10-19 14:52:38.676363
2432  2023-10-19 14:52:38.708261
2433  2023-10-19 14:52:38.739151
2434  2023-10-19 14:52:38.771065
2435  2023-10-19 14:52:38.804005
2436  2023-10-19 14:52:38.835921
2437  2023-10-19 14:52:38.867844
2438  2023-10-19 14:52:38.899751
2439  2023-10-19 14:52:38.947593
2440  2023-10-19 14:52:38.979546
2441  2023-10-19 14:52:39.011462
2442  2023-10-19 14:52:39.043337
2443  2023-10-19 14:52:39.075277
2444  2023-10-19 14:52:39.108204
2445  2023-10-19 14:52:39.139117
2446  2023-10-19 14:52:39.170996
2447  2023-10-19 14:52:39.203935
2448  2023-10-19 14:52:39.235821
2449  2023-10-19 14:52:39.267782
2450  2023-10-19 14:52:39.299678
2451  2023-10-19 14:52:39.347523
2452  2023-10-19 14:52:39.379474
2453  2023-10-19 14:52:39.411399
2454  2023-10-19 14:52:39.443295
2455  2023-10-19 14:52:39.475214
2456  2023-10-19 14:52:39.508135
2457  2023-10-19 14:52:39.539045
2458  2023-10-19 14:52:39.570966
2459  2023-10-19 14:52:39.603878
2460  2023-10-19 14:52:39.635793
2461  2023-10-19 14:52:39.667666
2462  2023-10-19 14:52:39.699580
2463  2023-10-19 14:52:39.747498
2464  2023-10-19 14:52:39.779367
2465  2023-10-19 14:52:39.811310
2466  2023-10-19 14:52:39.843203
2467  2023-10-19 14:52:39.875116
2468  2023-10-19 14:52:39.908064
2469  2023-10-19 14:52:39.938940
2470  2023-10-19 14:52:39.971860
2471  2023-10-19 14:52:40.003769
2472  2023-10-19 14:52:40.035716
2473  2023-10-19 14:52:40.067625
2474  2023-10-19 14:52:40.099510
2475  2023-10-19 14:52:40.147418
2476  2023-10-19 14:52:40.179347
2477  2023-10-19 14:52:40.211238
2478  2023-10-19 14:52:40.243134
2479  2023-10-19 14:52:40.275090
2480  2023-10-19 14:52:40.306956
2481  2023-10-19 14:52:40.338901
2482  2023-10-19 14:52:40.370825
2483  2023-10-19 14:52:40.403698
2484  2023-10-19 14:52:40.435613
2485  2023-10-19 14:52:40.467529
2486  2023-10-19 14:52:40.499445
2487  2023-10-19 14:52:40.547355
2488  2023-10-19 14:52:40.579272
2489  2023-10-19 14:52:40.611181
2490  2023-10-19 14:52:40.643099
2491  2023-10-19 14:52:40.675007
2492  2023-10-19 14:52:40.706916
2493  2023-10-19 14:52:40.739825
2494  2023-10-19 14:52:40.771742
2495  2023-10-19 14:52:40.803670
2496  2023-10-19 14:52:40.835569
2497  2023-10-19 14:52:40.867457
2498  2023-10-19 14:52:40.899417
2499  2023-10-19 14:52:40.947244
2500  2023-10-19 14:52:40.979219
2501  2023-10-19 14:52:41.011110
2502  2023-10-19 14:52:41.043038
2503  2023-10-19 14:52:41.075901
2504  2023-10-19 14:52:41.107814
2505  2023-10-19 14:52:41.139776
2506  2023-10-19 14:52:41.171648
2507  2023-10-19 14:52:41.203560
2508  2023-10-19 14:52:41.235473
2509  2023-10-19 14:52:41.267389
2510  2023-10-19 14:52:41.299348
2511  2023-10-19 14:52:41.347213
2512  2023-10-19 14:52:41.379088
2513  2023-10-19 14:52:41.411003
2514  2023-10-19 14:52:41.442956
2515  2023-10-19 14:52:41.474881
2516  2023-10-19 14:52:41.507784
2517  2023-10-19 14:52:41.539698
2518  2023-10-19 14:52:41.571629
2519  2023-10-19 14:52:41.603524
2520  2023-10-19 14:52:41.635441
2521  2023-10-19 14:52:41.667324
2522  2023-10-19 14:52:41.699259
2523  2023-10-19 14:52:41.747109
2524  2023-10-19 14:52:41.779019
2525  2023-10-19 14:52:41.810972
2526  2023-10-19 14:52:41.842886
2527  2023-10-19 14:52:41.875818
2528  2023-10-19 14:52:41.907675
2529  2023-10-19 14:52:41.939589
2530  2023-10-19 14:52:41.971540
2531  2023-10-19 14:52:42.003453
2532  2023-10-19 14:52:42.035369
2533  2023-10-19 14:52:42.067280
2534  2023-10-19 14:52:42.099202
2535  2023-10-19 14:52:42.147073
2536  2023-10-19 14:52:42.178981
2537  2023-10-19 14:52:42.210914
2538  2023-10-19 14:52:42.243776
2539  2023-10-19 14:52:42.275730
2540  2023-10-19 14:52:42.307606
2541  2023-10-19 14:52:42.339520
2542  2023-10-19 14:52:42.371434
2543  2023-10-19 14:52:42.403350
2544  2023-10-19 14:52:42.435299
2545  2023-10-19 14:52:42.467178
2546  2023-10-19 14:52:42.500093
2547  2023-10-19 14:52:42.546965
2548  2023-10-19 14:52:42.579878
2549  2023-10-19 14:52:42.611791
2550  2023-10-19 14:52:42.643743
2551  2023-10-19 14:52:42.675670
2552  2023-10-19 14:52:42.707562
2553  2023-10-19 14:52:42.739485
2554  2023-10-19 14:52:42.771365
2555  2023-10-19 14:52:42.803332
2556  2023-10-19 14:52:42.835232
2557  2023-10-19 14:52:42.867136
2558  2023-10-19 14:52:42.899063
2559  2023-10-19 14:52:42.946933
2560  2023-10-19 14:52:42.979807
2561  2023-10-19 14:52:43.011761
2562  2023-10-19 14:52:43.043640
2563  2023-10-19 14:52:43.075582
2564  2023-10-19 14:52:43.107513
2565  2023-10-19 14:52:43.139406
2566  2023-10-19 14:52:43.171322
2567  2023-10-19 14:52:43.203253
2568  2023-10-19 14:52:43.235171
2569  2023-10-19 14:52:43.267067
2570  2023-10-19 14:52:43.298986
2571  2023-10-19 14:52:43.347825
2572  2023-10-19 14:52:43.379775
2573  2023-10-19 14:52:43.411687
2574  2023-10-19 14:52:43.443603
2575  2023-10-19 14:52:43.475486
2576  2023-10-19 14:52:43.507422
2577  2023-10-19 14:52:43.539310
2578  2023-10-19 14:52:43.571259
2579  2023-10-19 14:52:43.603166
2580  2023-10-19 14:52:43.635083
2581  2023-10-19 14:52:43.668003
2582  2023-10-19 14:52:43.698920
2583  2023-10-19 14:52:43.747753
2584  2023-10-19 14:52:43.779711
2585  2023-10-19 14:52:43.811631
2586  2023-10-19 14:52:43.843546
2587  2023-10-19 14:52:43.875440
2588  2023-10-19 14:52:43.907368
2589  2023-10-19 14:52:43.939276
2590  2023-10-19 14:52:43.971197
2591  2023-10-19 14:52:44.003099
2592  2023-10-19 14:52:44.035028
2593  2023-10-19 14:52:44.066945
2594  2023-10-19 14:52:44.099811
2595  2023-10-19 14:52:44.147720
2596  2023-10-19 14:52:44.179625
2597  2023-10-19 14:52:44.211512
2598  2023-10-19 14:52:44.243427
2599  2023-10-19 14:52:44.275392
2600  2023-10-19 14:52:44.307258
2601  2023-10-19 14:52:44.339218
2602  2023-10-19 14:52:44.371125
2603  2023-10-19 14:52:44.403054
2604  2023-10-19 14:52:44.434950
2605  2023-10-19 14:52:44.466880
2606  2023-10-19 14:52:44.499778
2607  2023-10-19 14:52:44.547657
2608  2023-10-19 14:52:44.579567
2609  2023-10-19 14:52:44.611443
2610  2023-10-19 14:52:44.643369
2611  2023-10-19 14:52:44.675304
2612  2023-10-19 14:52:44.707234
2613  2023-10-19 14:52:44.739135
2614  2023-10-19 14:52:44.771043
2615  2023-10-19 14:52:44.802974
2616  2023-10-19 14:52:44.834889
2617  2023-10-19 14:52:44.867758
2618  2023-10-19 14:52:44.899709
2619  2023-10-19 14:52:44.947544
2620  2023-10-19 14:52:44.979464
2621  2023-10-19 14:52:45.011377
2622  2023-10-19 14:52:45.043339
2623  2023-10-19 14:52:45.075236
2624  2023-10-19 14:52:45.107156
2625  2023-10-19 14:52:45.139058
2626  2023-10-19 14:52:45.170945
2627  2023-10-19 14:52:45.202900
2628  2023-10-19 14:52:45.235816
2629  2023-10-19 14:52:45.267715
2630  2023-10-19 14:52:45.299635
2631  2023-10-19 14:52:45.347520
2632  2023-10-19 14:52:45.379422
2633  2023-10-19 14:52:45.411343
2634  2023-10-19 14:52:45.443218
2635  2023-10-19 14:52:45.475132
2636  2023-10-19 14:52:45.507046
2637  2023-10-19 14:52:45.539958
2638  2023-10-19 14:52:45.571874
2639  2023-10-19 14:52:45.603789
2640  2023-10-19 14:52:45.635743
2641  2023-10-19 14:52:45.667644
2642  2023-10-19 14:52:45.699531
2643  2023-10-19 14:52:45.747443
2644  2023-10-19 14:52:45.779345
2645  2023-10-19 14:52:45.811281
2646  2023-10-19 14:52:45.843183
2647  2023-10-19 14:52:45.875114
2648  2023-10-19 14:52:45.907976
2649  2023-10-19 14:52:45.938929
2650  2023-10-19 14:52:45.971857
2651  2023-10-19 14:52:46.003775
2652  2023-10-19 14:52:46.035668
2653  2023-10-19 14:52:46.067594
2654  2023-10-19 14:52:46.099499
2655  2023-10-19 14:52:46.147365
2656  2023-10-19 14:52:46.179286
2657  2023-10-19 14:52:46.211208
2658  2023-10-19 14:52:46.243078
2659  2023-10-19 14:52:46.275031
2660  2023-10-19 14:52:46.306907
2661  2023-10-19 14:52:46.339822
2662  2023-10-19 14:52:46.371768
2663  2023-10-19 14:52:46.403693
2664  2023-10-19 14:52:46.435604
2665  2023-10-19 14:52:46.467478
2666  2023-10-19 14:52:46.499393
2667  2023-10-19 14:52:46.547265
2668  2023-10-19 14:52:46.579179
2669  2023-10-19 14:52:46.611094
2670  2023-10-19 14:52:46.643060
2671  2023-10-19 14:52:46.674964
2672  2023-10-19 14:52:46.707836
2673  2023-10-19 14:52:46.739750
2674  2023-10-19 14:52:46.771664
2675  2023-10-19 14:52:46.803631
2676  2023-10-19 14:52:46.835531
2677  2023-10-19 14:52:46.867448
2678  2023-10-19 14:52:46.899349
2679  2023-10-19 14:52:46.947233
2680  2023-10-19 14:52:46.979145
2681  2023-10-19 14:52:47.011080
2682  2023-10-19 14:52:47.042980
2683  2023-10-19 14:52:47.074884
2684  2023-10-19 14:52:47.107809
2685  2023-10-19 14:52:47.139707
2686  2023-10-19 14:52:47.171632
2687  2023-10-19 14:52:47.203548
2688  2023-10-19 14:52:47.235466
2689  2023-10-19 14:52:47.267382
2690  2023-10-19 14:52:47.299252
2691  2023-10-19 14:52:47.347152
2692  2023-10-19 14:52:47.379040
2693  2023-10-19 14:52:47.411952
2694  2023-10-19 14:52:47.443866
2695  2023-10-19 14:52:47.475845
2696  2023-10-19 14:52:47.507752
2697  2023-10-19 14:52:47.539610
2698  2023-10-19 14:52:47.571524
2699  2023-10-19 14:52:47.603474
2700  2023-10-19 14:52:47.635391
2701  2023-10-19 14:52:47.667308
2702  2023-10-19 14:52:47.700181
2703  2023-10-19 14:52:47.747055
2704  2023-10-19 14:52:47.779968
2705  2023-10-19 14:52:47.811918
2706  2023-10-19 14:52:47.843796
2707  2023-10-19 14:52:47.875756
2708  2023-10-19 14:52:47.907625
2709  2023-10-19 14:52:47.939590
2710  2023-10-19 14:52:47.971496
2711  2023-10-19 14:52:48.003390
2712  2023-10-19 14:52:48.035311
2713  2023-10-19 14:52:48.067236
2714  2023-10-19 14:52:48.099141
2715  2023-10-19 14:52:48.147025
2716  2023-10-19 14:52:48.178904
2717  2023-10-19 14:52:48.211817
2718  2023-10-19 14:52:48.243758
2719  2023-10-19 14:52:48.275691
2720  2023-10-19 14:52:48.307594
2721  2023-10-19 14:52:48.339479
2722  2023-10-19 14:52:48.371412
2723  2023-10-19 14:52:48.403299
2724  2023-10-19 14:52:48.435266
2725  2023-10-19 14:52:48.467133
2726  2023-10-19 14:52:48.499092
2727  2023-10-19 14:52:48.546950
2728  2023-10-19 14:52:48.579846
2729  2023-10-19 14:52:48.611783
2730  2023-10-19 14:52:48.643683
2731  2023-10-19 14:52:48.675611
2732  2023-10-19 14:52:48.707519
2733  2023-10-19 14:52:48.739432
2734  2023-10-19 14:52:48.771341
2735  2023-10-19 14:52:48.803266
2736  2023-10-19 14:52:48.835179
2737  2023-10-19 14:52:48.867114
2738  2023-10-19 14:52:48.899011
2739  2023-10-19 14:52:48.947845
2740  2023-10-19 14:52:48.979763
2741  2023-10-19 14:52:49.011703
2742  2023-10-19 14:52:49.043621
2743  2023-10-19 14:52:49.075551
2744  2023-10-19 14:52:49.107450
2745  2023-10-19 14:52:49.139368
2746  2023-10-19 14:52:49.171284
2747  2023-10-19 14:52:49.203164
2748  2023-10-19 14:52:49.235109
2749  2023-10-19 14:52:49.267041
2750  2023-10-19 14:52:49.298908
2751  2023-10-19 14:52:49.347809
2752  2023-10-19 14:52:49.379688
2753  2023-10-19 14:52:49.411607
2754  2023-10-19 14:52:49.443516
2755  2023-10-19 14:52:49.475431
2756  2023-10-19 14:52:49.507379
2757  2023-10-19 14:52:49.539305
2758  2023-10-19 14:52:49.571203
2759  2023-10-19 14:52:49.603135
2760  2023-10-19 14:52:49.635034
2761  2023-10-19 14:52:49.666960
2762  2023-10-19 14:52:49.698896
2763  2023-10-19 14:52:49.747738
2764  2023-10-19 14:52:49.779658
2765  2023-10-19 14:52:49.811590
2766  2023-10-19 14:52:49.843495
2767  2023-10-19 14:52:49.875395
2768  2023-10-19 14:52:49.907316
2769  2023-10-19 14:52:49.939234
2770  2023-10-19 14:52:49.971162
2771  2023-10-19 14:52:50.003020
2772  2023-10-19 14:52:50.035970
2773  2023-10-19 14:52:50.067848
2774  2023-10-19 14:52:50.099797
2775  2023-10-19 14:52:50.147691
2776  2023-10-19 14:52:50.179583
2777  2023-10-19 14:52:50.211490
2778  2023-10-19 14:52:50.243379
2779  2023-10-19 14:52:50.275340
2780  2023-10-19 14:52:50.307211
2781  2023-10-19 14:52:50.339172
2782  2023-10-19 14:52:50.371065
2783  2023-10-19 14:52:50.402989
2784  2023-10-19 14:52:50.434903
2785  2023-10-19 14:52:50.467813
2786  2023-10-19 14:52:50.499722
2787  2023-10-19 14:52:50.547609
2788  2023-10-19 14:52:50.579511
2789  2023-10-19 14:52:50.611429
2790  2023-10-19 14:52:50.643340
2791  2023-10-19 14:52:50.675274
2792  2023-10-19 14:52:50.707165
2793  2023-10-19 14:52:50.739109
2794  2023-10-19 14:52:50.771002
2795  2023-10-19 14:52:50.802922
2796  2023-10-19 14:52:50.835823
2797  2023-10-19 14:52:50.867746
2798  2023-10-19 14:52:50.899659
2799  2023-10-19 14:52:50.947530
2800  2023-10-19 14:52:50.979413
2801  2023-10-19 14:52:51.011325
2802  2023-10-19 14:52:51.043243
2803  2023-10-19 14:52:51.075197
2804  2023-10-19 14:52:51.107067
2805  2023-10-19 14:52:51.139013
2806  2023-10-19 14:52:51.170943
2807  2023-10-19 14:52:51.203854
2808  2023-10-19 14:52:51.235769
2809  2023-10-19 14:52:51.267678
2810  2023-10-19 14:52:51.299600
2811  2023-10-19 14:52:51.347473
2812  2023-10-19 14:52:51.379384
2813  2023-10-19 14:52:51.411308
2814  2023-10-19 14:52:51.443236
2815  2023-10-19 14:52:51.475121
2816  2023-10-19 14:52:51.507032
2817  2023-10-19 14:52:51.538958
2818  2023-10-19 14:52:51.571862
2819  2023-10-19 14:52:51.603774
2820  2023-10-19 14:52:51.635689
2821  2023-10-19 14:52:51.667567
2822  2023-10-19 14:52:51.699532
2823  2023-10-19 14:52:51.747355
2824  2023-10-19 14:52:51.779269
2825  2023-10-19 14:52:51.811228
2826  2023-10-19 14:52:51.843103
2827  2023-10-19 14:52:51.875014
2828  2023-10-19 14:52:51.907926
2829  2023-10-19 14:52:51.938843
2830  2023-10-19 14:52:51.971755
2831  2023-10-19 14:52:52.003670
2832  2023-10-19 14:52:52.035583
2833  2023-10-19 14:52:52.067499
2834  2023-10-19 14:52:52.099415
2835  2023-10-19 14:52:52.147323
2836  2023-10-19 14:52:52.179200
2837  2023-10-19 14:52:52.211114
2838  2023-10-19 14:52:52.243073
2839  2023-10-19 14:52:52.274944
2840  2023-10-19 14:52:52.306859
2841  2023-10-19 14:52:52.339771
2842  2023-10-19 14:52:52.371716
2843  2023-10-19 14:52:52.403600
2844  2023-10-19 14:52:52.435514
2845  2023-10-19 14:52:52.467429
2846  2023-10-19 14:52:52.499344
2847  2023-10-19 14:52:52.547249
2848  2023-10-19 14:52:52.579157
2849  2023-10-19 14:52:52.611045
2850  2023-10-19 14:52:52.642960
2851  2023-10-19 14:52:52.674874
2852  2023-10-19 14:52:52.707785
2853  2023-10-19 14:52:52.739700
2854  2023-10-19 14:52:52.771616
2855  2023-10-19 14:52:52.803530
2856  2023-10-19 14:52:52.835445
2857  2023-10-19 14:52:52.867360
2858  2023-10-19 14:52:52.899275
2859  2023-10-19 14:52:52.947172
2860  2023-10-19 14:52:52.979061
2861  2023-10-19 14:52:53.010975
2862  2023-10-19 14:52:53.043887
2863  2023-10-19 14:52:53.075802
2864  2023-10-19 14:52:53.107719
2865  2023-10-19 14:52:53.139632
2866  2023-10-19 14:52:53.171546
2867  2023-10-19 14:52:53.203460
2868  2023-10-19 14:52:53.235402
2869  2023-10-19 14:52:53.267288
2870  2023-10-19 14:52:53.299205
2871  2023-10-19 14:52:53.347118
2872  2023-10-19 14:52:53.378991
2873  2023-10-19 14:52:53.410944
2874  2023-10-19 14:52:53.443818
2875  2023-10-19 14:52:53.475732
2876  2023-10-19 14:52:53.507647
2877  2023-10-19 14:52:53.539561
2878  2023-10-19 14:52:53.571502
2879  2023-10-19 14:52:53.603391
2880  2023-10-19 14:52:53.635306
2881  2023-10-19 14:52:53.667220
2882  2023-10-19 14:52:53.699139
2883  2023-10-19 14:52:53.747010
2884  2023-10-19 14:52:53.779919
2885  2023-10-19 14:52:53.811834
2886  2023-10-19 14:52:53.843748
2887  2023-10-19 14:52:53.875688
2888  2023-10-19 14:52:53.907608
2889  2023-10-19 14:52:53.939492
2890  2023-10-19 14:52:53.971406
2891  2023-10-19 14:52:54.003348
2892  2023-10-19 14:52:54.035281
2893  2023-10-19 14:52:54.067150
2894  2023-10-19 14:52:54.099065
2895  2023-10-19 14:52:54.146977
2896  2023-10-19 14:52:54.179849
2897  2023-10-19 14:52:54.211763
2898  2023-10-19 14:52:54.243678
2899  2023-10-19 14:52:54.275593
2900  2023-10-19 14:52:54.307507
2901  2023-10-19 14:52:54.339421
2902  2023-10-19 14:52:54.371370
2903  2023-10-19 14:52:54.403251
2904  2023-10-19 14:52:54.435166
2905  2023-10-19 14:52:54.467080
2906  2023-10-19 14:52:54.498999
2907  2023-10-19 14:52:54.546904
2908  2023-10-19 14:52:54.579781
2909  2023-10-19 14:52:54.611696
2910  2023-10-19 14:52:54.643609
2911  2023-10-19 14:52:54.675523
2912  2023-10-19 14:52:54.707436
2913  2023-10-19 14:52:54.739352
2914  2023-10-19 14:52:54.771268
2915  2023-10-19 14:52:54.803181
2916  2023-10-19 14:52:54.835096
2917  2023-10-19 14:52:54.867039
2918  2023-10-19 14:52:54.899924
2919  2023-10-19 14:52:54.947833
2920  2023-10-19 14:52:54.979709
2921  2023-10-19 14:52:55.011624
2922  2023-10-19 14:52:55.043538
2923  2023-10-19 14:52:55.075482
2924  2023-10-19 14:52:55.107368
2925  2023-10-19 14:52:55.139283
2926  2023-10-19 14:52:55.171197
2927  2023-10-19 14:52:55.203137
2928  2023-10-19 14:52:55.235026
2929  2023-10-19 14:52:55.266941
2930  2023-10-19 14:52:55.299853
2931  2023-10-19 14:52:55.347725
2932  2023-10-19 14:52:55.379639
2933  2023-10-19 14:52:55.411553
2934  2023-10-19 14:52:55.443469
2935  2023-10-19 14:52:55.475383
2936  2023-10-19 14:52:55.507298
2937  2023-10-19 14:52:55.539213
2938  2023-10-19 14:52:55.571127
2939  2023-10-19 14:52:55.603042
2940  2023-10-19 14:52:55.634957
2941  2023-10-19 14:52:55.667869
2942  2023-10-19 14:52:55.699784
2943  2023-10-19 14:52:55.747656
2944  2023-10-19 14:52:55.779570
2945  2023-10-19 14:52:55.811485
2946  2023-10-19 14:52:55.843399
2947  2023-10-19 14:52:55.875314
2948  2023-10-19 14:52:55.907228
2949  2023-10-19 14:52:55.939142
2950  2023-10-19 14:52:55.971058
2951  2023-10-19 14:52:56.002972
2952  2023-10-19 14:52:56.034886
2953  2023-10-19 14:52:56.067799
2954  2023-10-19 14:52:56.099714
2955  2023-10-19 14:52:56.147586
2956  2023-10-19 14:52:56.179500
2957  2023-10-19 14:52:56.211415
2958  2023-10-19 14:52:56.243380
2959  2023-10-19 14:52:56.275245
2960  2023-10-19 14:52:56.307158
2961  2023-10-19 14:52:56.339073
2962  2023-10-19 14:52:56.370989
2963  2023-10-19 14:52:56.402902
2964  2023-10-19 14:52:56.435815
2965  2023-10-19 14:52:56.467729
2966  2023-10-19 14:52:56.499644
2967  2023-10-19 14:52:56.547516
2968  2023-10-19 14:52:56.579430
2969  2023-10-19 14:52:56.611345
2970  2023-10-19 14:52:56.643260
2971  2023-10-19 14:52:56.675174
2972  2023-10-19 14:52:56.707090
2973  2023-10-19 14:52:56.739003
2974  2023-10-19 14:52:56.770918
2975  2023-10-19 14:52:56.803830
2976  2023-10-19 14:52:56.835745
2977  2023-10-19 14:52:56.867659
2978  2023-10-19 14:52:56.899574
2979  2023-10-19 14:52:56.947446
2980  2023-10-19 14:52:56.979361
2981  2023-10-19 14:52:57.011274
2982  2023-10-19 14:52:57.043190
2983  2023-10-19 14:52:57.075104
2984  2023-10-19 14:52:57.107019
2985  2023-10-19 14:52:57.139931
2986  2023-10-19 14:52:57.171847
2987  2023-10-19 14:52:57.203762
2988  2023-10-19 14:52:57.235676
2989  2023-10-19 14:52:57.267590
2990  2023-10-19 14:52:57.299504
2991  2023-10-19 14:52:57.347376
2992  2023-10-19 14:52:57.379294
2993  2023-10-19 14:52:57.411231
2994  2023-10-19 14:52:57.443120
2995  2023-10-19 14:52:57.475035
2996  2023-10-19 14:52:57.506949
2997  2023-10-19 14:52:57.538892
2998  2023-10-19 14:52:57.571776
2999  2023-10-19 14:52:57.603690
3000  2023-10-19 14:52:57.635605
3001  2023-10-19 14:52:57.667523
3002  2023-10-19 14:52:57.699469
3003  2023-10-19 14:52:57.747310
3004  2023-10-19 14:52:57.779247
3005  2023-10-19 14:52:57.811134
3006  2023-10-19 14:52:57.843049
3007  2023-10-19 14:52:57.874993
3008  2023-10-19 14:52:57.907924
3009  2023-10-19 14:52:57.939790
3010  2023-10-19 14:52:57.971705
3011  2023-10-19 14:52:58.003657
3012  2023-10-19 14:52:58.035564
3013  2023-10-19 14:52:58.067448
3014  2023-10-19 14:52:58.099364
3015  2023-10-19 14:52:58.147235
3016  2023-10-19 14:52:58.179150
3017  2023-10-19 14:52:58.211064
3018  2023-10-19 14:52:58.242979
3019  2023-10-19 14:52:58.276918
3020  2023-10-19 14:52:58.308832
3021  2023-10-19 14:52:58.339720
3022  2023-10-19 14:52:58.372670
3023  2023-10-19 14:52:58.404585
3024  2023-10-19 14:52:58.436490
3025  2023-10-19 14:52:58.468411
3026  2023-10-19 14:52:58.500344
3027  2023-10-19 14:52:58.548215
3028  2023-10-19 14:52:58.581112
3029  2023-10-19 14:52:58.613021
3030  2023-10-19 14:52:58.644933
3031  2023-10-19 14:52:58.676819
3032  2023-10-19 14:52:58.707738
3033  2023-10-19 14:52:58.740648
3034  2023-10-19 14:52:58.772601
3035  2023-10-19 14:52:58.804515
3036  2023-10-19 14:52:58.836443
3037  2023-10-19 14:52:58.868308
3038  2023-10-19 14:52:58.900261
3039  2023-10-19 14:52:58.948134
3040  2023-10-19 14:52:58.980052
3041  2023-10-19 14:52:59.011950
3042  2023-10-19 14:52:59.044866
3043  2023-10-19 14:52:59.076778
3044  2023-10-19 14:52:59.108692
3045  2023-10-19 14:52:59.140615
3046  2023-10-19 14:52:59.172552
3047  2023-10-19 14:52:59.204418
3048  2023-10-19 14:52:59.236364
3049  2023-10-19 14:52:59.268271
3050  2023-10-19 14:52:59.300180
3051  2023-10-19 14:52:59.348055
3052  2023-10-19 14:52:59.379968
3053  2023-10-19 14:52:59.411888
3054  2023-10-19 14:52:59.444798
3055  2023-10-19 14:52:59.476723
3056  2023-10-19 14:52:59.507633
3057  2023-10-19 14:52:59.539513
3058  2023-10-19 14:52:59.572475
3059  2023-10-19 14:52:59.603371
3060  2023-10-19 14:52:59.636279
3061  2023-10-19 14:52:59.668221
3062  2023-10-19 14:52:59.700119
3063  2023-10-19 14:52:59.747955
3064  2023-10-19 14:52:59.779897
3065  2023-10-19 14:52:59.811817
3066  2023-10-19 14:52:59.843726
3067  2023-10-19 14:52:59.875640
3068  2023-10-19 14:52:59.907558
3069  2023-10-19 14:52:59.939469
3070  2023-10-19 14:52:59.971380
3071  2023-10-19 14:53:00.003299
3072  2023-10-19 14:53:00.036224
3073  2023-10-19 14:53:00.068143
3074  2023-10-19 14:53:00.100041
3075  2023-10-19 14:53:00.147926
3076  2023-10-19 14:53:00.179828
3077  2023-10-19 14:53:00.211751
3078  2023-10-19 14:53:00.243655
3079  2023-10-19 14:53:00.275543
3080  2023-10-19 14:53:00.307487
3081  2023-10-19 14:53:00.339414
3082  2023-10-19 14:53:00.371330
3083  2023-10-19 14:53:00.404229
3084  2023-10-19 14:53:00.435144
3085  2023-10-19 14:53:00.467068
3086  2023-10-19 14:53:00.499985
3087  2023-10-19 14:53:00.547850
3088  2023-10-19 14:53:00.579767
3089  2023-10-19 14:53:00.611679
3090  2023-10-19 14:53:00.643587
3091  2023-10-19 14:53:00.675501
3092  2023-10-19 14:53:00.707417
3093  2023-10-19 14:53:00.739338
3094  2023-10-19 14:53:00.771245
3095  2023-10-19 14:53:00.803169
3096  2023-10-19 14:53:00.835048
3097  2023-10-19 14:53:00.866990
3098  2023-10-19 14:53:00.899873
3099  2023-10-19 14:53:00.947744
3100  2023-10-19 14:53:00.979659
3101  2023-10-19 14:53:01.011605
3102  2023-10-19 14:53:01.043493
3103  2023-10-19 14:53:01.075409
3104  2023-10-19 14:53:01.107350
3105  2023-10-19 14:53:01.139269
3106  2023-10-19 14:53:01.171180
3107  2023-10-19 14:53:01.205085
3108  2023-10-19 14:53:01.235015
3109  2023-10-19 14:53:01.268915
3110  2023-10-19 14:53:01.299803
3111  2023-10-19 14:53:01.348712
3112  2023-10-19 14:53:01.379589
3113  2023-10-19 14:53:01.411504
3114  2023-10-19 14:53:01.444443
3115  2023-10-19 14:53:01.477366
3116  2023-10-19 14:53:01.508296
3117  2023-10-19 14:53:01.539216
3118  2023-10-19 14:53:01.571107
3119  2023-10-19 14:53:01.605046
3120  2023-10-19 14:53:01.634935
3121  2023-10-19 14:53:01.668843
3122  2023-10-19 14:53:01.699733
3123  2023-10-19 14:53:01.748639
3124  2023-10-19 14:53:01.779520
3125  2023-10-19 14:53:01.811465
3126  2023-10-19 14:53:01.844386
3127  2023-10-19 14:53:01.877304
3128  2023-10-19 14:53:01.909175
3129  2023-10-19 14:53:01.939094
3130  2023-10-19 14:53:01.971052
3131  2023-10-19 14:53:02.003955
3132  2023-10-19 14:53:02.036836
3133  2023-10-19 14:53:02.067779
3134  2023-10-19 14:53:02.099663
3135  2023-10-19 14:53:02.147581
3136  2023-10-19 14:53:02.179450
3137  2023-10-19 14:53:02.211392
3138  2023-10-19 14:53:02.244322
3139  2023-10-19 14:53:02.276226
3140  2023-10-19 14:53:02.308143
3141  2023-10-19 14:53:02.339052
3142  2023-10-19 14:53:02.370967
3143  2023-10-19 14:53:02.403881
3144  2023-10-19 14:53:02.435812
3145  2023-10-19 14:53:02.467679
3146  2023-10-19 14:53:02.499598
3147  2023-10-19 14:53:02.547499
3148  2023-10-19 14:53:02.579408
3149  2023-10-19 14:53:02.611336
3150  2023-10-19 14:53:02.644255
3151  2023-10-19 14:53:02.676162
3152  2023-10-19 14:53:02.708065
3153  2023-10-19 14:53:02.739950
3154  2023-10-19 14:53:02.770869
3155  2023-10-19 14:53:02.803835
3156  2023-10-19 14:53:02.835695
3157  2023-10-19 14:53:02.867669
3158  2023-10-19 14:53:02.899568
3159  2023-10-19 14:53:02.948420
3160  2023-10-19 14:53:02.979331
3161  2023-10-19 14:53:03.011225
3162  2023-10-19 14:53:03.044143
3163  2023-10-19 14:53:03.076053
3164  2023-10-19 14:53:03.107999
3165  2023-10-19 14:53:03.139880
3166  2023-10-19 14:53:03.171795
3167  2023-10-19 14:53:03.203749
3168  2023-10-19 14:53:03.235656
3169  2023-10-19 14:53:03.267568
3170  2023-10-19 14:53:03.299453
3171  2023-10-19 14:53:03.347364
3172  2023-10-19 14:53:03.379270
3173  2023-10-19 14:53:03.411183
3174  2023-10-19 14:53:03.443069
3175  2023-10-19 14:53:03.475029
3176  2023-10-19 14:53:03.506928
3177  2023-10-19 14:53:03.539811
3178  2023-10-19 14:53:03.571727
3179  2023-10-19 14:53:03.603640
3180  2023-10-19 14:53:03.635592
3181  2023-10-19 14:53:03.667497
3182  2023-10-19 14:53:03.699415
3183  2023-10-19 14:53:03.747288
3184  2023-10-19 14:53:03.779200
3185  2023-10-19 14:53:03.811162
3186  2023-10-19 14:53:03.843045
3187  2023-10-19 14:53:03.874943
3188  2023-10-19 14:53:03.907853
3189  2023-10-19 14:53:03.939743
3190  2023-10-19 14:53:03.971695
3191  2023-10-19 14:53:04.003597
3192  2023-10-19 14:53:04.035487
3193  2023-10-19 14:53:04.068397
3194  2023-10-19 14:53:04.099372
3195  2023-10-19 14:53:04.147226
3196  2023-10-19 14:53:04.179140
3197  2023-10-19 14:53:04.211043
3198  2023-10-19 14:53:04.243966
3199  2023-10-19 14:53:04.274890
3200  2023-10-19 14:53:04.307794
3201  2023-10-19 14:53:04.339704
3202  2023-10-19 14:53:04.371587
3203  2023-10-19 14:53:04.403530
3204  2023-10-19 14:53:04.435457
3205  2023-10-19 14:53:04.467332
3206  2023-10-19 14:53:04.499273
3207  2023-10-19 14:53:04.547118
3208  2023-10-19 14:53:04.579033
3209  2023-10-19 14:53:04.610982
3210  2023-10-19 14:53:04.642860
3211  2023-10-19 14:53:04.675822
3212  2023-10-19 14:53:04.707732
3213  2023-10-19 14:53:04.739639
3214  2023-10-19 14:53:04.771563
3215  2023-10-19 14:53:04.803473
3216  2023-10-19 14:53:04.835377
3217  2023-10-19 14:53:04.867287
3218  2023-10-19 14:53:04.899203
3219  2023-10-19 14:53:04.947083
3220  2023-10-19 14:53:04.978994
3221  2023-10-19 14:53:05.010912
3222  2023-10-19 14:53:05.043827
3223  2023-10-19 14:53:05.075739
3224  2023-10-19 14:53:05.107657
3225  2023-10-19 14:53:05.139569
3226  2023-10-19 14:53:05.171446
3227  2023-10-19 14:53:05.203414
3228  2023-10-19 14:53:05.235302
3229  2023-10-19 14:53:05.267199
3230  2023-10-19 14:53:05.299145
3231  2023-10-19 14:53:05.347015
3232  2023-10-19 14:53:05.378893
3233  2023-10-19 14:53:05.411805
3234  2023-10-19 14:53:05.443720
3235  2023-10-19 14:53:05.475672
3236  2023-10-19 14:53:05.507577
3237  2023-10-19 14:53:05.539506
3238  2023-10-19 14:53:05.571428
3239  2023-10-19 14:53:05.603338
3240  2023-10-19 14:53:05.635271
3241  2023-10-19 14:53:05.667125
3242  2023-10-19 14:53:05.699036
3243  2023-10-19 14:53:05.746911
3244  2023-10-19 14:53:05.778822
3245  2023-10-19 14:53:05.811735
3246  2023-10-19 14:53:05.843648
3247  2023-10-19 14:53:05.875563
3248  2023-10-19 14:53:05.907477
3249  2023-10-19 14:53:05.939392
3250  2023-10-19 14:53:05.971307
3251  2023-10-19 14:53:06.003222
3252  2023-10-19 14:53:06.035136
3253  2023-10-19 14:53:06.068083
3254  2023-10-19 14:53:06.099018
3255  2023-10-19 14:53:06.147871
3256  2023-10-19 14:53:06.179784
3257  2023-10-19 14:53:06.211694
3258  2023-10-19 14:53:06.243580
3259  2023-10-19 14:53:06.275493
3260  2023-10-19 14:53:06.307436
3261  2023-10-19 14:53:06.339367
3262  2023-10-19 14:53:06.371293
3263  2023-10-19 14:53:06.403194
3264  2023-10-19 14:53:06.435125
3265  2023-10-19 14:53:06.467018
3266  2023-10-19 14:53:06.498941
3267  2023-10-19 14:53:06.547809
3268  2023-10-19 14:53:06.579706
3269  2023-10-19 14:53:06.611634
3270  2023-10-19 14:53:06.643542
3271  2023-10-19 14:53:06.675426
3272  2023-10-19 14:53:06.707343
3273  2023-10-19 14:53:06.739284
3274  2023-10-19 14:53:06.771218
3275  2023-10-19 14:53:06.803082
3276  2023-10-19 14:53:06.835040
3277  2023-10-19 14:53:06.866954
3278  2023-10-19 14:53:06.898853
3279  2023-10-19 14:53:06.947737
3280  2023-10-19 14:53:06.979670
3281  2023-10-19 14:53:07.011554
3282  2023-10-19 14:53:07.043468
3283  2023-10-19 14:53:07.075395
3284  2023-10-19 14:53:07.107303
3285  2023-10-19 14:53:07.139213
3286  2023-10-19 14:53:07.171136
3287  2023-10-19 14:53:07.203051
3288  2023-10-19 14:53:07.235925
3289  2023-10-19 14:53:07.266909
3290  2023-10-19 14:53:07.299805
3291  2023-10-19 14:53:07.347625
3292  2023-10-19 14:53:07.379593
3293  2023-10-19 14:53:07.411456
3294  2023-10-19 14:53:07.443415
3295  2023-10-19 14:53:07.475321
3296  2023-10-19 14:53:07.507231
3297  2023-10-19 14:53:07.539153
3298  2023-10-19 14:53:07.572068
3299  2023-10-19 14:53:07.602990
3300  2023-10-19 14:53:07.634900
3301  2023-10-19 14:53:07.667772
3302  2023-10-19 14:53:07.699712
3303  2023-10-19 14:53:07.747556
3304  2023-10-19 14:53:07.779473
3305  2023-10-19 14:53:07.811387
3306  2023-10-19 14:53:07.843301
3307  2023-10-19 14:53:07.875214
3308  2023-10-19 14:53:07.907168
3309  2023-10-19 14:53:07.939099
3310  2023-10-19 14:53:07.971001
3311  2023-10-19 14:53:08.002911
3312  2023-10-19 14:53:08.035790
3313  2023-10-19 14:53:08.067772
3314  2023-10-19 14:53:08.099656
3315  2023-10-19 14:53:08.147513
3316  2023-10-19 14:53:08.179452
3317  2023-10-19 14:53:08.211342
3318  2023-10-19 14:53:08.243269
3319  2023-10-19 14:53:08.275195
3320  2023-10-19 14:53:08.307104
3321  2023-10-19 14:53:08.338978
3322  2023-10-19 14:53:08.370889
3323  2023-10-19 14:53:08.403800
3324  2023-10-19 14:53:08.435716
3325  2023-10-19 14:53:08.467667
3326  2023-10-19 14:53:08.499580
3327  2023-10-19 14:53:08.547457
3328  2023-10-19 14:53:08.579369
3329  2023-10-19 14:53:08.611281
3330  2023-10-19 14:53:08.643198
3331  2023-10-19 14:53:08.675102
3332  2023-10-19 14:53:08.707018
3333  2023-10-19 14:53:08.738942
3334  2023-10-19 14:53:08.770859
3335  2023-10-19 14:53:08.803779
3336  2023-10-19 14:53:08.835688
3337  2023-10-19 14:53:08.867591
3338  2023-10-19 14:53:08.899476
3339  2023-10-19 14:53:08.947346
3340  2023-10-19 14:53:08.979266
3341  2023-10-19 14:53:09.011202
3342  2023-10-19 14:53:09.043124
3343  2023-10-19 14:53:09.075006
3344  2023-10-19 14:53:09.106969
3345  2023-10-19 14:53:09.138872
3346  2023-10-19 14:53:09.171784
3347  2023-10-19 14:53:09.203690
3348  2023-10-19 14:53:09.235605
3349  2023-10-19 14:53:09.267555
3350  2023-10-19 14:53:09.299409
3351  2023-10-19 14:53:09.347313
3352  2023-10-19 14:53:09.379227
3353  2023-10-19 14:53:09.411107
3354  2023-10-19 14:53:09.443025
3355  2023-10-19 14:53:09.474972
3356  2023-10-19 14:53:09.506849
3357  2023-10-19 14:53:09.539797
3358  2023-10-19 14:53:09.571715
3359  2023-10-19 14:53:09.603625
3360  2023-10-19 14:53:09.635566
3361  2023-10-19 14:53:09.667460
3362  2023-10-19 14:53:09.699377
3363  2023-10-19 14:53:09.747234
3364  2023-10-19 14:53:09.779183
3365  2023-10-19 14:53:09.811069
3366  2023-10-19 14:53:09.842993
3367  2023-10-19 14:53:09.874897
3368  2023-10-19 14:53:09.907820
3369  2023-10-19 14:53:09.939729
3370  2023-10-19 14:53:09.971606
3371  2023-10-19 14:53:10.003559
3372  2023-10-19 14:53:10.035437
3373  2023-10-19 14:53:10.067350
3374  2023-10-19 14:53:10.099333
3375  2023-10-19 14:53:10.147181
3376  2023-10-19 14:53:10.179094
3377  2023-10-19 14:53:10.211008
3378  2023-10-19 14:53:10.242932
3379  2023-10-19 14:53:10.274827
3380  2023-10-19 14:53:10.307741
3381  2023-10-19 14:53:10.339623
3382  2023-10-19 14:53:10.371538
3383  2023-10-19 14:53:10.403457
3384  2023-10-19 14:53:10.435399
3385  2023-10-19 14:53:10.467316
3386  2023-10-19 14:53:10.499201
3387  2023-10-19 14:53:10.547128
3388  2023-10-19 14:53:10.579009
3389  2023-10-19 14:53:10.610896
3390  2023-10-19 14:53:10.642853
3391  2023-10-19 14:53:10.675763
3392  2023-10-19 14:53:10.707665
3393  2023-10-19 14:53:10.739581
3394  2023-10-19 14:53:10.771488
3395  2023-10-19 14:53:10.803417
3396  2023-10-19 14:53:10.835355
3397  2023-10-19 14:53:10.867216
3398  2023-10-19 14:53:10.899161
3399  2023-10-19 14:53:10.947046
3400  2023-10-19 14:53:10.978952
3401  2023-10-19 14:53:11.011824
3402  2023-10-19 14:53:11.043781
3403  2023-10-19 14:53:11.075696
3404  2023-10-19 14:53:11.107611
3405  2023-10-19 14:53:11.139483
3406  2023-10-19 14:53:11.171403
3407  2023-10-19 14:53:11.203346
3408  2023-10-19 14:53:11.235263
3409  2023-10-19 14:53:11.267181
3410  2023-10-19 14:53:11.299090
3411  2023-10-19 14:53:11.346965
3412  2023-10-19 14:53:11.379840
3413  2023-10-19 14:53:11.411754
3414  2023-10-19 14:53:11.443669
3415  2023-10-19 14:53:11.475583
3416  2023-10-19 14:53:11.507542
3417  2023-10-19 14:53:11.539413
3418  2023-10-19 14:53:11.571330
3419  2023-10-19 14:53:11.603281
3420  2023-10-19 14:53:11.635208
3421  2023-10-19 14:53:11.667077
3422  2023-10-19 14:53:11.698987
3423  2023-10-19 14:53:11.746894
3424  2023-10-19 14:53:11.779813
3425  2023-10-19 14:53:11.811723
3426  2023-10-19 14:53:11.843629
3427  2023-10-19 14:53:11.875551
3428  2023-10-19 14:53:11.907487
3429  2023-10-19 14:53:11.939371
3430  2023-10-19 14:53:11.971302
3431  2023-10-19 14:53:12.003201
3432  2023-10-19 14:53:12.035138
3433  2023-10-19 14:53:12.067033
3434  2023-10-19 14:53:12.098959
3435  2023-10-19 14:53:12.147839
3436  2023-10-19 14:53:12.179744
3437  2023-10-19 14:53:12.211652
3438  2023-10-19 14:53:12.243574
3439  2023-10-19 14:53:12.275473
3440  2023-10-19 14:53:12.307404
3441  2023-10-19 14:53:12.339278
3442  2023-10-19 14:53:12.371190
3443  2023-10-19 14:53:12.403105
3444  2023-10-19 14:53:12.435021
3445  2023-10-19 14:53:12.466997
3446  2023-10-19 14:53:12.498884
3447  2023-10-19 14:53:12.547761
3448  2023-10-19 14:53:12.579668
3449  2023-10-19 14:53:12.611590
3450  2023-10-19 14:53:12.643492
3451  2023-10-19 14:53:12.675405
3452  2023-10-19 14:53:12.707348
3453  2023-10-19 14:53:12.739204
3454  2023-10-19 14:53:12.771118
3455  2023-10-19 14:53:12.803080
3456  2023-10-19 14:53:12.834978
3457  2023-10-19 14:53:12.867861
3458  2023-10-19 14:53:12.899812
3459  2023-10-19 14:53:12.947683
3460  2023-10-19 14:53:12.979608
3461  2023-10-19 14:53:13.011517
3462  2023-10-19 14:53:13.043390
3463  2023-10-19 14:53:13.075348
3464  2023-10-19 14:53:13.107264
3465  2023-10-19 14:53:13.139180
3466  2023-10-19 14:53:13.171053
3467  2023-10-19 14:53:13.202967
3468  2023-10-19 14:53:13.234917
3469  2023-10-19 14:53:13.266831
3470  2023-10-19 14:53:13.299704
3471  2023-10-19 14:53:13.347609
3472  2023-10-19 14:53:13.379533
3473  2023-10-19 14:53:13.411436
3474  2023-10-19 14:53:13.443381
3475  2023-10-19 14:53:13.475276
3476  2023-10-19 14:53:13.507198
3477  2023-10-19 14:53:13.539130
3478  2023-10-19 14:53:13.571979
3479  2023-10-19 14:53:13.602936
3480  2023-10-19 14:53:13.634838
3481  2023-10-19 14:53:13.667753
3482  2023-10-19 14:53:13.699661
3483  2023-10-19 14:53:13.747514
3484  2023-10-19 14:53:13.779422
3485  2023-10-19 14:53:13.811336
3486  2023-10-19 14:53:13.843320
3487  2023-10-19 14:53:13.875226
3488  2023-10-19 14:53:13.907080
3489  2023-10-19 14:53:13.939032
3490  2023-10-19 14:53:13.970942
3491  2023-10-19 14:53:14.002858
3492  2023-10-19 14:53:14.035776
3493  2023-10-19 14:53:14.067690
3494  2023-10-19 14:53:14.099570
3495  2023-10-19 14:53:14.147485
3496  2023-10-19 14:53:14.179399
3497  2023-10-19 14:53:14.211339
3498  2023-10-19 14:53:14.243207
3499  2023-10-19 14:53:14.275152
3500  2023-10-19 14:53:14.307058
3501  2023-10-19 14:53:14.338978
3502  2023-10-19 14:53:14.370868
3503  2023-10-19 14:53:14.403787
3504  2023-10-19 14:53:14.435712
3505  2023-10-19 14:53:14.467613
3506  2023-10-19 14:53:14.499522
3507  2023-10-19 14:53:14.547420
3508  2023-10-19 14:53:14.579319
3509  2023-10-19 14:53:14.611241
3510  2023-10-19 14:53:14.643162
3511  2023-10-19 14:53:14.675080
3512  2023-10-19 14:53:14.706970
3513  2023-10-19 14:53:14.738896
3514  2023-10-19 14:53:14.771808
3515  2023-10-19 14:53:14.803723
3516  2023-10-19 14:53:14.835597
3517  2023-10-19 14:53:14.867549
3518  2023-10-19 14:53:14.899481
3519  2023-10-19 14:53:14.947297
3520  2023-10-19 14:53:14.979251
3521  2023-10-19 14:53:15.011173
3522  2023-10-19 14:53:15.043072
3523  2023-10-19 14:53:15.074960
3524  2023-10-19 14:53:15.106913
3525  2023-10-19 14:53:15.139815
3526  2023-10-19 14:53:15.171737
3527  2023-10-19 14:53:15.203617
3528  2023-10-19 14:53:15.235556
3529  2023-10-19 14:53:15.267476
3530  2023-10-19 14:53:15.299393
3531  2023-10-19 14:53:15.347270
3532  2023-10-19 14:53:15.379182
3533  2023-10-19 14:53:15.411096
3534  2023-10-19 14:53:15.443030
3535  2023-10-19 14:53:15.474893
3536  2023-10-19 14:53:15.507798
3537  2023-10-19 14:53:15.539746
3538  2023-10-19 14:53:15.571667
3539  2023-10-19 14:53:15.603588
3540  2023-10-19 14:53:15.635494
3541  2023-10-19 14:53:15.667399
3542  2023-10-19 14:53:15.699325
3543  2023-10-19 14:53:15.747226
3544  2023-10-19 14:53:15.779118
3545  2023-10-19 14:53:15.811023
3546  2023-10-19 14:53:15.842943
3547  2023-10-19 14:53:15.874861
3548  2023-10-19 14:53:15.907731
3549  2023-10-19 14:53:15.939678
3550  2023-10-19 14:53:15.971608
3551  2023-10-19 14:53:16.003513
3552  2023-10-19 14:53:16.035387
3553  2023-10-19 14:53:16.067307
3554  2023-10-19 14:53:16.099217
3555  2023-10-19 14:53:16.147089
3556  2023-10-19 14:53:16.179004
3557  2023-10-19 14:53:16.210957
3558  2023-10-19 14:53:16.242871
3559  2023-10-19 14:53:16.275745
3560  2023-10-19 14:53:16.307659
3561  2023-10-19 14:53:16.339575
