
1  2023-10-18 13:54:07.898222
2  2023-10-18 13:54:07.930168
3  2023-10-18 13:54:07.962082
4  2023-10-18 13:54:07.994027
5  2023-10-18 13:54:08.026911
6  2023-10-18 13:54:08.058827
7  2023-10-18 13:54:08.090741
8  2023-10-18 13:54:08.122656
9  2023-10-18 13:54:08.154573
10  2023-10-18 13:54:08.186484
11  2023-10-18 13:54:08.218399
12  2023-10-18 13:54:08.265997
13  2023-10-18 13:54:08.298913
14  2023-10-18 13:54:08.329829
15  2023-10-18 13:54:08.362752
16  2023-10-18 13:54:08.394657
17  2023-10-18 13:54:08.426540
18  2023-10-18 13:54:08.458488
19  2023-10-18 13:54:08.490401
20  2023-10-18 13:54:08.522328
21  2023-10-18 13:54:08.554203
22  2023-10-18 13:54:08.587109
23  2023-10-18 13:54:08.618064
24  2023-10-18 13:54:08.666971
25  2023-10-18 13:54:08.698880
26  2023-10-18 13:54:08.730770
27  2023-10-18 13:54:08.762641
28  2023-10-18 13:54:08.794554
29  2023-10-18 13:54:08.826511
30  2023-10-18 13:54:08.858417
31  2023-10-18 13:54:08.890298
32  2023-10-18 13:54:08.922214
33  2023-10-18 13:54:08.954130
34  2023-10-18 13:54:08.986077
35  2023-10-18 13:54:09.018068
36  2023-10-18 13:54:09.066916
37  2023-10-18 13:54:09.098821
38  2023-10-18 13:54:09.130735
39  2023-10-18 13:54:09.162731
40  2023-10-18 13:54:09.194642
41  2023-10-18 13:54:09.226556
42  2023-10-18 13:54:09.258439
43  2023-10-18 13:54:09.290704
44  2023-10-18 13:54:09.322619
45  2023-10-18 13:54:09.354534
46  2023-10-18 13:54:09.386535
47  2023-10-18 13:54:09.418395
48  2023-10-18 13:54:09.466235
49  2023-10-18 13:54:09.499148
50  2023-10-18 13:54:09.531067
51  2023-10-18 13:54:09.562979
52  2023-10-18 13:54:09.594891
53  2023-10-18 13:54:09.626806
54  2023-10-18 13:54:09.658721
55  2023-10-18 13:54:09.690636
56  2023-10-18 13:54:09.722552
57  2023-10-18 13:54:09.754465
58  2023-10-18 13:54:09.786380
59  2023-10-18 13:54:09.818294
60  2023-10-18 13:54:09.866166
61  2023-10-18 13:54:09.898081
62  2023-10-18 13:54:09.930993
63  2023-10-18 13:54:09.962941
64  2023-10-18 13:54:09.994822
65  2023-10-18 13:54:10.026737
66  2023-10-18 13:54:10.058684
67  2023-10-18 13:54:10.090596
68  2023-10-18 13:54:10.122481
69  2023-10-18 13:54:10.154396
70  2023-10-18 13:54:10.186310
71  2023-10-18 13:54:10.218225
72  2023-10-18 13:54:10.266097
73  2023-10-18 13:54:10.298012
74  2023-10-18 13:54:10.330367
75  2023-10-18 13:54:10.362298
76  2023-10-18 13:54:10.394165
77  2023-10-18 13:54:10.427086
78  2023-10-18 13:54:10.457995
79  2023-10-18 13:54:10.490906
80  2023-10-18 13:54:10.522821
81  2023-10-18 13:54:10.554736
82  2023-10-18 13:54:10.586650
83  2023-10-18 13:54:10.618603
84  2023-10-18 13:54:10.666468
85  2023-10-18 13:54:10.698384
86  2023-10-18 13:54:10.730299
87  2023-10-18 13:54:10.762182
88  2023-10-18 13:54:10.794235
89  2023-10-18 13:54:10.826135
90  2023-10-18 13:54:10.858004
91  2023-10-18 13:54:10.889918
92  2023-10-18 13:54:10.922831
93  2023-10-18 13:54:10.954745
94  2023-10-18 13:54:10.986660
95  2023-10-18 13:54:11.018575
96  2023-10-18 13:54:11.066446
97  2023-10-18 13:54:11.098361
98  2023-10-18 13:54:11.130276
99  2023-10-18 13:54:11.162190
100  2023-10-18 13:54:11.194105
101  2023-10-18 13:54:11.226167
102  2023-10-18 13:54:11.258082
103  2023-10-18 13:54:11.289997
104  2023-10-18 13:54:11.322909
105  2023-10-18 13:54:11.354823
106  2023-10-18 13:54:11.386738
107  2023-10-18 13:54:11.434610
108  2023-10-18 13:54:11.466525
109  2023-10-18 13:54:11.499439
110  2023-10-18 13:54:11.531352
111  2023-10-18 13:54:11.563271
112  2023-10-18 13:54:11.595181
113  2023-10-18 13:54:11.627099
114  2023-10-18 13:54:11.659010
115  2023-10-18 13:54:11.690927
116  2023-10-18 13:54:11.722840
117  2023-10-18 13:54:11.754787
118  2023-10-18 13:54:11.786671
119  2023-10-18 13:54:11.834541
120  2023-10-18 13:54:11.866456
121  2023-10-18 13:54:11.898370
122  2023-10-18 13:54:11.930285
123  2023-10-18 13:54:11.963197
124  2023-10-18 13:54:11.994114
125  2023-10-18 13:54:12.027027
126  2023-10-18 13:54:12.058941
127  2023-10-18 13:54:12.090857
128  2023-10-18 13:54:12.122770
129  2023-10-18 13:54:12.154685
130  2023-10-18 13:54:12.186600
131  2023-10-18 13:54:12.234472
132  2023-10-18 13:54:12.266386
133  2023-10-18 13:54:12.298336
134  2023-10-18 13:54:12.330216
135  2023-10-18 13:54:12.362130
136  2023-10-18 13:54:12.394045
137  2023-10-18 13:54:12.426958
138  2023-10-18 13:54:12.458874
139  2023-10-18 13:54:12.490787
140  2023-10-18 13:54:12.522701
141  2023-10-18 13:54:12.554616
142  2023-10-18 13:54:12.586565
143  2023-10-18 13:54:12.634403
144  2023-10-18 13:54:12.666349
145  2023-10-18 13:54:12.698232
146  2023-10-18 13:54:12.730147
147  2023-10-18 13:54:12.763060
148  2023-10-18 13:54:12.793976
149  2023-10-18 13:54:12.826888
150  2023-10-18 13:54:12.858803
151  2023-10-18 13:54:12.890718
152  2023-10-18 13:54:12.922632
153  2023-10-18 13:54:12.954547
154  2023-10-18 13:54:12.986463
155  2023-10-18 13:54:13.034334
156  2023-10-18 13:54:13.066248
157  2023-10-18 13:54:13.098163
158  2023-10-18 13:54:13.130078
159  2023-10-18 13:54:13.161992
160  2023-10-18 13:54:13.194905
161  2023-10-18 13:54:13.226234
162  2023-10-18 13:54:13.258122
163  2023-10-18 13:54:13.289998
164  2023-10-18 13:54:13.322902
165  2023-10-18 13:54:13.354839
166  2023-10-18 13:54:13.386741
167  2023-10-18 13:54:13.434652
168  2023-10-18 13:54:13.466597
169  2023-10-18 13:54:13.498482
170  2023-10-18 13:54:13.530396
171  2023-10-18 13:54:13.562311
172  2023-10-18 13:54:13.594271
173  2023-10-18 13:54:13.626141
174  2023-10-18 13:54:13.658055
175  2023-10-18 13:54:13.690978
176  2023-10-18 13:54:13.722920
177  2023-10-18 13:54:13.754797
178  2023-10-18 13:54:13.786711
179  2023-10-18 13:54:13.834583
180  2023-10-18 13:54:13.866530
181  2023-10-18 13:54:13.898413
182  2023-10-18 13:54:13.930328
183  2023-10-18 13:54:13.962242
184  2023-10-18 13:54:13.994157
185  2023-10-18 13:54:14.026071
186  2023-10-18 13:54:14.058983
187  2023-10-18 13:54:14.090909
188  2023-10-18 13:54:14.122813
189  2023-10-18 13:54:14.154727
190  2023-10-18 13:54:14.186642
191  2023-10-18 13:54:14.234514
192  2023-10-18 13:54:14.747145
193  2023-10-18 13:54:14.763116
194  2023-10-18 13:54:14.795080
195  2023-10-18 13:54:14.825997
196  2023-10-18 13:54:14.858909
197  2023-10-18 13:54:14.890825
198  2023-10-18 13:54:14.923049
199  2023-10-18 13:54:14.954962
200  2023-10-18 13:54:14.986876
201  2023-10-18 13:54:15.034808
202  2023-10-18 13:54:15.066722
203  2023-10-18 13:54:15.098693
204  2023-10-18 13:54:15.130552
205  2023-10-18 13:54:15.162466
206  2023-10-18 13:54:15.194381
207  2023-10-18 13:54:15.226296
208  2023-10-18 13:54:15.258241
209  2023-10-18 13:54:15.291123
210  2023-10-18 13:54:15.322039
211  2023-10-18 13:54:15.353986
212  2023-10-18 13:54:15.402824
213  2023-10-18 13:54:15.434738
214  2023-10-18 13:54:15.466687
215  2023-10-18 13:54:15.498568
216  2023-10-18 13:54:15.530482
217  2023-10-18 13:54:15.562398
218  2023-10-18 13:54:15.594345
219  2023-10-18 13:54:15.626226
220  2023-10-18 13:54:15.658141
221  2023-10-18 13:54:15.690056
222  2023-10-18 13:54:15.722022
223  2023-10-18 13:54:15.754957
224  2023-10-18 13:54:15.802816
225  2023-10-18 13:54:15.834743
226  2023-10-18 13:54:15.866657
227  2023-10-18 13:54:15.898572
228  2023-10-18 13:54:15.930518
229  2023-10-18 13:54:15.962401
230  2023-10-18 13:54:15.994316
231  2023-10-18 13:54:16.026231
232  2023-10-18 13:54:16.058176
233  2023-10-18 13:54:16.090060
234  2023-10-18 13:54:16.122973
235  2023-10-18 13:54:16.154887
236  2023-10-18 13:54:16.202760
237  2023-10-18 13:54:16.234674
238  2023-10-18 13:54:16.266589
239  2023-10-18 13:54:16.298503
240  2023-10-18 13:54:16.330417
241  2023-10-18 13:54:16.362332
242  2023-10-18 13:54:16.395245
243  2023-10-18 13:54:16.427159
244  2023-10-18 13:54:16.459074
245  2023-10-18 13:54:16.490989
246  2023-10-18 13:54:16.522904
247  2023-10-18 13:54:16.554820
248  2023-10-18 13:54:16.602821
249  2023-10-18 13:54:16.634670
250  2023-10-18 13:54:16.666583
251  2023-10-18 13:54:16.698498
252  2023-10-18 13:54:16.730455
253  2023-10-18 13:54:16.762327
254  2023-10-18 13:54:16.794241
255  2023-10-18 13:54:16.826156
256  2023-10-18 13:54:16.859068
257  2023-10-18 13:54:16.891000
258  2023-10-18 13:54:16.922897
259  2023-10-18 13:54:16.954813
260  2023-10-18 13:54:17.002715
261  2023-10-18 13:54:17.034599
262  2023-10-18 13:54:17.066513
263  2023-10-18 13:54:17.098556
264  2023-10-18 13:54:17.130476
265  2023-10-18 13:54:17.162385
266  2023-10-18 13:54:17.194305
267  2023-10-18 13:54:17.226258
268  2023-10-18 13:54:17.258185
269  2023-10-18 13:54:17.290076
270  2023-10-18 13:54:17.322956
271  2023-10-18 13:54:17.354933
272  2023-10-18 13:54:17.402744
273  2023-10-18 13:54:17.434658
274  2023-10-18 13:54:17.466589
275  2023-10-18 13:54:17.498487
276  2023-10-18 13:54:17.530401
277  2023-10-18 13:54:17.562355
278  2023-10-18 13:54:17.594280
279  2023-10-18 13:54:17.626145
280  2023-10-18 13:54:17.658060
281  2023-10-18 13:54:17.690016
282  2023-10-18 13:54:17.722887
283  2023-10-18 13:54:17.754834
284  2023-10-18 13:54:17.802679
285  2023-10-18 13:54:17.834588
286  2023-10-18 13:54:17.866504
287  2023-10-18 13:54:17.898521
288  2023-10-18 13:54:17.930507
289  2023-10-18 13:54:17.962421
290  2023-10-18 13:54:17.994397
291  2023-10-18 13:54:18.026409
292  2023-10-18 13:54:18.058441
293  2023-10-18 13:54:18.090093
294  2023-10-18 13:54:18.122022
295  2023-10-18 13:54:18.154970
296  2023-10-18 13:54:18.202839
297  2023-10-18 13:54:18.234723
298  2023-10-18 13:54:18.266622
299  2023-10-18 13:54:18.298536
300  2023-10-18 13:54:18.330438
301  2023-10-18 13:54:18.362401
302  2023-10-18 13:54:18.394315
303  2023-10-18 13:54:18.427254
304  2023-10-18 13:54:18.458219
305  2023-10-18 13:54:18.490146
306  2023-10-18 13:54:18.522177
307  2023-10-18 13:54:18.554082
308  2023-10-18 13:54:18.602987
309  2023-10-18 13:54:18.634900
310  2023-10-18 13:54:18.666804
311  2023-10-18 13:54:18.698696
312  2023-10-18 13:54:18.730611
313  2023-10-18 13:54:18.762525
314  2023-10-18 13:54:18.794441
315  2023-10-18 13:54:18.826397
316  2023-10-18 13:54:18.858342
317  2023-10-18 13:54:18.890185
318  2023-10-18 13:54:18.922099
319  2023-10-18 13:54:18.971009
320  2023-10-18 13:54:19.002913
321  2023-10-18 13:54:19.034798
322  2023-10-18 13:54:19.066762
323  2023-10-18 13:54:19.098627
324  2023-10-18 13:54:19.130571
325  2023-10-18 13:54:19.162456
326  2023-10-18 13:54:19.194371
327  2023-10-18 13:54:19.226354
328  2023-10-18 13:54:19.258201
329  2023-10-18 13:54:19.290166
330  2023-10-18 13:54:19.322030
331  2023-10-18 13:54:19.370946
332  2023-10-18 13:54:19.402876
333  2023-10-18 13:54:19.434728
334  2023-10-18 13:54:19.466643
335  2023-10-18 13:54:19.498562
336  2023-10-18 13:54:19.530472
337  2023-10-18 13:54:19.562389
338  2023-10-18 13:54:19.594307
339  2023-10-18 13:54:19.626217
340  2023-10-18 13:54:19.658139
341  2023-10-18 13:54:19.690052
342  2023-10-18 13:54:19.721991
343  2023-10-18 13:54:19.770830
344  2023-10-18 13:54:20.105934
345  2023-10-18 13:54:20.122889
346  2023-10-18 13:54:20.170475
347  2023-10-18 13:54:20.202390
348  2023-10-18 13:54:20.234304
349  2023-10-18 13:54:20.266219
350  2023-10-18 13:54:20.298134
351  2023-10-18 13:54:20.331047
352  2023-10-18 13:54:20.362036
353  2023-10-18 13:54:20.393915
354  2023-10-18 13:54:20.426918
355  2023-10-18 13:54:20.458849
356  2023-10-18 13:54:20.490692
357  2023-10-18 13:54:20.522641
358  2023-10-18 13:54:20.570514
359  2023-10-18 13:54:20.602434
360  2023-10-18 13:54:20.634353
361  2023-10-18 13:54:20.666223
362  2023-10-18 13:54:20.698138
363  2023-10-18 13:54:20.730094
364  2023-10-18 13:54:20.762967
365  2023-10-18 13:54:20.794880
366  2023-10-18 13:54:20.826796
367  2023-10-18 13:54:20.858763
368  2023-10-18 13:54:20.890624
369  2023-10-18 13:54:20.922541
370  2023-10-18 13:54:20.970412
371  2023-10-18 13:54:21.002355
372  2023-10-18 13:54:21.034241
373  2023-10-18 13:54:21.066184
374  2023-10-18 13:54:21.098100
375  2023-10-18 13:54:21.131013
376  2023-10-18 13:54:21.162897
377  2023-10-18 13:54:21.194851
378  2023-10-18 13:54:21.226759
379  2023-10-18 13:54:21.258641
380  2023-10-18 13:54:21.290587
381  2023-10-18 13:54:21.322501
382  2023-10-18 13:54:21.370376
383  2023-10-18 13:54:21.402316
384  2023-10-18 13:54:21.434172
385  2023-10-18 13:54:21.466111
386  2023-10-18 13:54:21.498001
387  2023-10-18 13:54:21.529978
388  2023-10-18 13:54:21.562874
389  2023-10-18 13:54:21.594777
390  2023-10-18 13:54:21.626690
391  2023-10-18 13:54:21.658603
392  2023-10-18 13:54:21.690519
393  2023-10-18 13:54:21.722434
394  2023-10-18 13:54:21.770301
395  2023-10-18 13:54:21.802223
396  2023-10-18 13:54:21.834132
397  2023-10-18 13:54:21.866048
398  2023-10-18 13:54:21.898929
399  2023-10-18 13:54:21.930898
400  2023-10-18 13:54:21.962759
401  2023-10-18 13:54:21.994673
402  2023-10-18 13:54:22.026588
403  2023-10-18 13:54:22.058533
404  2023-10-18 13:54:22.090417
405  2023-10-18 13:54:22.122337
406  2023-10-18 13:54:22.170246
407  2023-10-18 13:54:22.202152
408  2023-10-18 13:54:22.234034
409  2023-10-18 13:54:22.266970
410  2023-10-18 13:54:22.298860
411  2023-10-18 13:54:22.330775
412  2023-10-18 13:54:22.362689
413  2023-10-18 13:54:22.394638
414  2023-10-18 13:54:22.426549
415  2023-10-18 13:54:22.458465
416  2023-10-18 13:54:22.490349
417  2023-10-18 13:54:22.538255
418  2023-10-18 13:54:22.570160
419  2023-10-18 13:54:22.602081
420  2023-10-18 13:54:22.633996
421  2023-10-18 13:54:22.666876
422  2023-10-18 13:54:22.698821
423  2023-10-18 13:54:22.730741
424  2023-10-18 13:54:22.762437
425  2023-10-18 13:54:22.794353
426  2023-10-18 13:54:22.826331
427  2023-10-18 13:54:22.858277
428  2023-10-18 13:54:22.890197
429  2023-10-18 13:54:22.938058
430  2023-10-18 13:54:22.969971
431  2023-10-18 13:54:23.001887
432  2023-10-18 13:54:23.034773
433  2023-10-18 13:54:23.066688
434  2023-10-18 13:54:23.098604
435  2023-10-18 13:54:23.130547
436  2023-10-18 13:54:23.162465
437  2023-10-18 13:54:23.194383
438  2023-10-18 13:54:23.226304
439  2023-10-18 13:54:23.258208
440  2023-10-18 13:54:23.290124
441  2023-10-18 13:54:23.338960
442  2023-10-18 13:54:23.370920
443  2023-10-18 13:54:23.402850
444  2023-10-18 13:54:23.434704
445  2023-10-18 13:54:23.466619
446  2023-10-18 13:54:23.498569
447  2023-10-18 13:54:23.530448
448  2023-10-18 13:54:23.562363
449  2023-10-18 13:54:23.594304
450  2023-10-18 13:54:23.626192
451  2023-10-18 13:54:23.658144
452  2023-10-18 13:54:23.691025
453  2023-10-18 13:54:23.737929
454  2023-10-18 13:54:23.770839
455  2023-10-18 13:54:23.802722
456  2023-10-18 13:54:23.834635
457  2023-10-18 13:54:23.866549
458  2023-10-18 13:54:23.898525
459  2023-10-18 13:54:23.930410
460  2023-10-18 13:54:23.962335
461  2023-10-18 13:54:23.994241
462  2023-10-18 13:54:24.026123
463  2023-10-18 13:54:24.058072
464  2023-10-18 13:54:24.089953
465  2023-10-18 13:54:24.138822
466  2023-10-18 13:54:24.170738
467  2023-10-18 13:54:24.202688
468  2023-10-18 13:54:24.234597
469  2023-10-18 13:54:24.266513
470  2023-10-18 13:54:24.298427
471  2023-10-18 13:54:24.330310
472  2023-10-18 13:54:24.362224
473  2023-10-18 13:54:24.394165
474  2023-10-18 13:54:24.426086
475  2023-10-18 13:54:24.458000
476  2023-10-18 13:54:24.490881
477  2023-10-18 13:54:24.538803
478  2023-10-18 13:54:24.570702
479  2023-10-18 13:54:24.602626
480  2023-10-18 13:54:24.634541
481  2023-10-18 13:54:24.666454
482  2023-10-18 13:54:24.698368
483  2023-10-18 13:54:24.730278
484  2023-10-18 13:54:24.762192
485  2023-10-18 13:54:24.794070
486  2023-10-18 13:54:24.826982
487  2023-10-18 13:54:24.858953
488  2023-10-18 13:54:24.890858
489  2023-10-18 13:54:24.938710
490  2023-10-18 13:54:24.970623
491  2023-10-18 13:54:25.002544
492  2023-10-18 13:54:25.034459
493  2023-10-18 13:54:25.067341
494  2023-10-18 13:54:25.098314
495  2023-10-18 13:54:25.130171
496  2023-10-18 13:54:25.429373
497  2023-10-18 13:54:25.437352
498  2023-10-18 13:54:25.466275
499  2023-10-18 13:54:25.498257
500  2023-10-18 13:54:25.530142
501  2023-10-18 13:54:25.562048
502  2023-10-18 13:54:25.593956
503  2023-10-18 13:54:25.626883
504  2023-10-18 13:54:25.658759
505  2023-10-18 13:54:25.690720
506  2023-10-18 13:54:25.738546
507  2023-10-18 13:54:25.770522
508  2023-10-18 13:54:25.802432
509  2023-10-18 13:54:25.834296
510  2023-10-18 13:54:25.866253
511  2023-10-18 13:54:25.899117
512  2023-10-18 13:54:25.930065
513  2023-10-18 13:54:25.962945
514  2023-10-18 13:54:25.994896
515  2023-10-18 13:54:26.026775
516  2023-10-18 13:54:26.058721
517  2023-10-18 13:54:26.091677
518  2023-10-18 13:54:26.138551
519  2023-10-18 13:54:26.170468
520  2023-10-18 13:54:26.202382
521  2023-10-18 13:54:26.234301
522  2023-10-18 13:54:26.267251
523  2023-10-18 13:54:26.299121
524  2023-10-18 13:54:26.331091
525  2023-10-18 13:54:26.362986
526  2023-10-18 13:54:26.394898
527  2023-10-18 13:54:26.426780
528  2023-10-18 13:54:26.458695
529  2023-10-18 13:54:26.506602
530  2023-10-18 13:54:26.538515
531  2023-10-18 13:54:26.570396
532  2023-10-18 13:54:26.602366
533  2023-10-18 13:54:26.634226
534  2023-10-18 13:54:26.666141
535  2023-10-18 13:54:26.699052
536  2023-10-18 13:54:26.730001
537  2023-10-18 13:54:26.762882
538  2023-10-18 13:54:26.794796
539  2023-10-18 13:54:26.826761
540  2023-10-18 13:54:26.858660
541  2023-10-18 13:54:26.906540
542  2023-10-18 13:54:26.938456
543  2023-10-18 13:54:26.970363
544  2023-10-18 13:54:27.002282
545  2023-10-18 13:54:27.034192
546  2023-10-18 13:54:27.067114
547  2023-10-18 13:54:27.099017
548  2023-10-18 13:54:27.130938
549  2023-10-18 13:54:27.162845
550  2023-10-18 13:54:27.194758
551  2023-10-18 13:54:27.226667
552  2023-10-18 13:54:27.262547
553  2023-10-18 13:54:27.306439
554  2023-10-18 13:54:27.339368
555  2023-10-18 13:54:27.370298
556  2023-10-18 13:54:27.402228
557  2023-10-18 13:54:27.434118
558  2023-10-18 13:54:27.466999
559  2023-10-18 13:54:27.498965
560  2023-10-18 13:54:27.530863
561  2023-10-18 13:54:27.562776
562  2023-10-18 13:54:27.594659
563  2023-10-18 13:54:27.626601
564  2023-10-18 13:54:27.658487
565  2023-10-18 13:54:27.706442
566  2023-10-18 13:54:27.738304
567  2023-10-18 13:54:27.770220
568  2023-10-18 13:54:27.802134
569  2023-10-18 13:54:27.834066
570  2023-10-18 13:54:27.866972
571  2023-10-18 13:54:27.898877
572  2023-10-18 13:54:27.930792
573  2023-10-18 13:54:27.962674
574  2023-10-18 13:54:27.994625
575  2023-10-18 13:54:28.026532
576  2023-10-18 13:54:28.058469
577  2023-10-18 13:54:28.106330
578  2023-10-18 13:54:28.138286
579  2023-10-18 13:54:28.170152
580  2023-10-18 13:54:28.202066
581  2023-10-18 13:54:28.235002
582  2023-10-18 13:54:28.266861
583  2023-10-18 13:54:28.298776
584  2023-10-18 13:54:28.330692
585  2023-10-18 13:54:28.362605
586  2023-10-18 13:54:28.394552
587  2023-10-18 13:54:28.426471
588  2023-10-18 13:54:28.458391
589  2023-10-18 13:54:28.506256
590  2023-10-18 13:54:28.538204
591  2023-10-18 13:54:28.570082
592  2023-10-18 13:54:28.602003
593  2023-10-18 13:54:28.634877
594  2023-10-18 13:54:28.666824
595  2023-10-18 13:54:28.698738
596  2023-10-18 13:54:28.730650
597  2023-10-18 13:54:28.762567
598  2023-10-18 13:54:28.795451
599  2023-10-18 13:54:28.827367
600  2023-10-18 13:54:28.859279
601  2023-10-18 13:54:28.907150
602  2023-10-18 13:54:28.938069
603  2023-10-18 13:54:28.970850
604  2023-10-18 13:54:29.002795
605  2023-10-18 13:54:29.034744
606  2023-10-18 13:54:29.066691
607  2023-10-18 13:54:29.098605
608  2023-10-18 13:54:29.130487
609  2023-10-18 13:54:29.162434
610  2023-10-18 13:54:29.194358
611  2023-10-18 13:54:29.226266
612  2023-10-18 13:54:29.258174
613  2023-10-18 13:54:29.306043
614  2023-10-18 13:54:29.338962
615  2023-10-18 13:54:29.369902
616  2023-10-18 13:54:29.402793
617  2023-10-18 13:54:29.434706
618  2023-10-18 13:54:29.466621
619  2023-10-18 13:54:29.498503
620  2023-10-18 13:54:29.530491
621  2023-10-18 13:54:29.562439
622  2023-10-18 13:54:29.594386
623  2023-10-18 13:54:29.626365
624  2023-10-18 13:54:29.658278
625  2023-10-18 13:54:29.706150
626  2023-10-18 13:54:29.738080
627  2023-10-18 13:54:29.770007
628  2023-10-18 13:54:29.802898
629  2023-10-18 13:54:29.834773
630  2023-10-18 13:54:29.866719
631  2023-10-18 13:54:29.898628
632  2023-10-18 13:54:29.930548
633  2023-10-18 13:54:29.962465
634  2023-10-18 13:54:29.994387
635  2023-10-18 13:54:30.026296
636  2023-10-18 13:54:30.074165
637  2023-10-18 13:54:30.106097
638  2023-10-18 13:54:30.138050
639  2023-10-18 13:54:30.170919
640  2023-10-18 13:54:30.202841
641  2023-10-18 13:54:30.234704
642  2023-10-18 13:54:30.266666
643  2023-10-18 13:54:30.298567
644  2023-10-18 13:54:30.330499
645  2023-10-18 13:54:30.362363
646  2023-10-18 13:54:30.394327
647  2023-10-18 13:54:30.426229
648  2023-10-18 13:54:30.474095
649  2023-10-18 13:54:30.506978
650  2023-10-18 13:54:30.538918
651  2023-10-18 13:54:30.570840
652  2023-10-18 13:54:30.602749
653  2023-10-18 13:54:30.634635
654  2023-10-18 13:54:30.666601
655  2023-10-18 13:54:30.698498
656  2023-10-18 13:54:30.888010
657  2023-10-18 13:54:30.906934
658  2023-10-18 13:54:30.938866
659  2023-10-18 13:54:30.970738
660  2023-10-18 13:54:31.002654
661  2023-10-18 13:54:31.034620
662  2023-10-18 13:54:31.067524
663  2023-10-18 13:54:31.098439
664  2023-10-18 13:54:31.131334
665  2023-10-18 13:54:31.162227
666  2023-10-18 13:54:31.194170
667  2023-10-18 13:54:31.226081
668  2023-10-18 13:54:31.274993
669  2023-10-18 13:54:31.306839
670  2023-10-18 13:54:31.338755
671  2023-10-18 13:54:31.370701
672  2023-10-18 13:54:31.402606
673  2023-10-18 13:54:31.434529
674  2023-10-18 13:54:31.466444
675  2023-10-18 13:54:31.498362
676  2023-10-18 13:54:31.530271
677  2023-10-18 13:54:31.562188
678  2023-10-18 13:54:31.594117
679  2023-10-18 13:54:31.627057
680  2023-10-18 13:54:31.674887
681  2023-10-18 13:54:31.706800
682  2023-10-18 13:54:31.738714
683  2023-10-18 13:54:31.770630
684  2023-10-18 13:54:31.802565
685  2023-10-18 13:54:31.834429
686  2023-10-18 13:54:31.866378
687  2023-10-18 13:54:31.898298
688  2023-10-18 13:54:31.931216
689  2023-10-18 13:54:31.962130
690  2023-10-18 13:54:31.994034
691  2023-10-18 13:54:32.026938
692  2023-10-18 13:54:32.074838
693  2023-10-18 13:54:32.106731
694  2023-10-18 13:54:32.138615
695  2023-10-18 13:54:32.170530
696  2023-10-18 13:54:32.202467
697  2023-10-18 13:54:32.234393
698  2023-10-18 13:54:32.266315
699  2023-10-18 13:54:32.298220
700  2023-10-18 13:54:32.330135
701  2023-10-18 13:54:32.362018
702  2023-10-18 13:54:32.393978
703  2023-10-18 13:54:32.426893
704  2023-10-18 13:54:32.474748
705  2023-10-18 13:54:32.506657
706  2023-10-18 13:54:32.538577
707  2023-10-18 13:54:32.570494
708  2023-10-18 13:54:32.602407
709  2023-10-18 13:54:32.634320
710  2023-10-18 13:54:32.666245
711  2023-10-18 13:54:32.698149
712  2023-10-18 13:54:32.731062
713  2023-10-18 13:54:32.761972
714  2023-10-18 13:54:32.794861
715  2023-10-18 13:54:32.826808
716  2023-10-18 13:54:32.874671
717  2023-10-18 13:54:32.906592
718  2023-10-18 13:54:32.938510
719  2023-10-18 13:54:32.970421
720  2023-10-18 13:54:33.002365
721  2023-10-18 13:54:33.034221
722  2023-10-18 13:54:33.066168
723  2023-10-18 13:54:33.098080
724  2023-10-18 13:54:33.129996
725  2023-10-18 13:54:33.162879
726  2023-10-18 13:54:33.194792
727  2023-10-18 13:54:33.226735
728  2023-10-18 13:54:33.274608
729  2023-10-18 13:54:33.306519
730  2023-10-18 13:54:33.338437
731  2023-10-18 13:54:33.370366
732  2023-10-18 13:54:33.402269
733  2023-10-18 13:54:33.434182
734  2023-10-18 13:54:33.466115
735  2023-10-18 13:54:33.499030
736  2023-10-18 13:54:33.530894
737  2023-10-18 13:54:33.562841
738  2023-10-18 13:54:33.594723
739  2023-10-18 13:54:33.642619
740  2023-10-18 13:54:33.674542
741  2023-10-18 13:54:33.706424
742  2023-10-18 13:54:33.738378
743  2023-10-18 13:54:33.770295
744  2023-10-18 13:54:33.802204
745  2023-10-18 13:54:33.834083
746  2023-10-18 13:54:33.866995
747  2023-10-18 13:54:33.898940
748  2023-10-18 13:54:33.930876
749  2023-10-18 13:54:33.962740
750  2023-10-18 13:54:33.994654
751  2023-10-18 13:54:34.042561
752  2023-10-18 13:54:34.074440
753  2023-10-18 13:54:34.106355
754  2023-10-18 13:54:34.139312
755  2023-10-18 13:54:34.171182
756  2023-10-18 13:54:34.203097
757  2023-10-18 13:54:34.234023
758  2023-10-18 13:54:34.266926
759  2023-10-18 13:54:34.298874
760  2023-10-18 13:54:34.330756
761  2023-10-18 13:54:34.362705
762  2023-10-18 13:54:34.394584
763  2023-10-18 13:54:34.442489
764  2023-10-18 13:54:34.474407
765  2023-10-18 13:54:34.506286
766  2023-10-18 13:54:34.538251
767  2023-10-18 13:54:34.570147
768  2023-10-18 13:54:34.603066
769  2023-10-18 13:54:34.634943
770  2023-10-18 13:54:34.666891
771  2023-10-18 13:54:34.698804
772  2023-10-18 13:54:34.730717
773  2023-10-18 13:54:34.762627
774  2023-10-18 13:54:34.794552
775  2023-10-18 13:54:34.842433
776  2023-10-18 13:54:34.874326
777  2023-10-18 13:54:34.906248
778  2023-10-18 13:54:34.938161
779  2023-10-18 13:54:34.971044
780  2023-10-18 13:54:35.002988
781  2023-10-18 13:54:35.034873
782  2023-10-18 13:54:35.066788
783  2023-10-18 13:54:35.098730
784  2023-10-18 13:54:35.130617
785  2023-10-18 13:54:35.162532
786  2023-10-18 13:54:35.194446
787  2023-10-18 13:54:35.242370
788  2023-10-18 13:54:35.274280
789  2023-10-18 13:54:35.306149
790  2023-10-18 13:54:35.338085
791  2023-10-18 13:54:35.371012
792  2023-10-18 13:54:35.402921
793  2023-10-18 13:54:35.434833
794  2023-10-18 13:54:35.466751
795  2023-10-18 13:54:35.498664
796  2023-10-18 13:54:35.530581
797  2023-10-18 13:54:35.562494
798  2023-10-18 13:54:35.594377
799  2023-10-18 13:54:35.642282
800  2023-10-18 13:54:35.674207
801  2023-10-18 13:54:35.706079
802  2023-10-18 13:54:35.738024
803  2023-10-18 13:54:35.769940
804  2023-10-18 13:54:35.802849
805  2023-10-18 13:54:35.834735
806  2023-10-18 13:54:35.866649
807  2023-10-18 13:54:35.898594
808  2023-10-18 13:54:35.930516
809  2023-10-18 13:54:35.962416
810  2023-10-18 13:54:35.994308
811  2023-10-18 13:54:36.042243
812  2023-10-18 13:54:36.074124
813  2023-10-18 13:54:36.106039
814  2023-10-18 13:54:36.137956
815  2023-10-18 13:54:36.170887
816  2023-10-18 13:54:36.202778
817  2023-10-18 13:54:36.234665
818  2023-10-18 13:54:36.266580
819  2023-10-18 13:54:36.298527
820  2023-10-18 13:54:36.420195
821  2023-10-18 13:54:36.443147
822  2023-10-18 13:54:36.474051
823  2023-10-18 13:54:36.505970
824  2023-10-18 13:54:36.538885
825  2023-10-18 13:54:36.570906
826  2023-10-18 13:54:36.602840
827  2023-10-18 13:54:36.634821
828  2023-10-18 13:54:36.666679
829  2023-10-18 13:54:36.698647
830  2023-10-18 13:54:36.730554
831  2023-10-18 13:54:36.762433
832  2023-10-18 13:54:36.795433
833  2023-10-18 13:54:36.843299
834  2023-10-18 13:54:36.875214
835  2023-10-18 13:54:36.906130
836  2023-10-18 13:54:36.938077
837  2023-10-18 13:54:36.971030
838  2023-10-18 13:54:37.002925
839  2023-10-18 13:54:37.034787
840  2023-10-18 13:54:37.066701
841  2023-10-18 13:54:37.098649
842  2023-10-18 13:54:37.130583
843  2023-10-18 13:54:37.162476
844  2023-10-18 13:54:37.194392
845  2023-10-18 13:54:37.242257
846  2023-10-18 13:54:37.274181
847  2023-10-18 13:54:37.306092
848  2023-10-18 13:54:37.339009
849  2023-10-18 13:54:37.370944
850  2023-10-18 13:54:37.402852
851  2023-10-18 13:54:37.434717
852  2023-10-18 13:54:37.466632
853  2023-10-18 13:54:37.498574
854  2023-10-18 13:54:37.530489
855  2023-10-18 13:54:37.562404
856  2023-10-18 13:54:37.610295
857  2023-10-18 13:54:37.642194
858  2023-10-18 13:54:37.675101
859  2023-10-18 13:54:37.705992
860  2023-10-18 13:54:37.738941
861  2023-10-18 13:54:37.770852
862  2023-10-18 13:54:37.802770
863  2023-10-18 13:54:37.834648
864  2023-10-18 13:54:37.866562
865  2023-10-18 13:54:37.898477
866  2023-10-18 13:54:37.930448
867  2023-10-18 13:54:37.962334
868  2023-10-18 13:54:38.010240
869  2023-10-18 13:54:38.042297
870  2023-10-18 13:54:38.074763
871  2023-10-18 13:54:38.106645
872  2023-10-18 13:54:38.138682
873  2023-10-18 13:54:38.170680
874  2023-10-18 13:54:38.202626
875  2023-10-18 13:54:38.234634
876  2023-10-18 13:54:38.266557
877  2023-10-18 13:54:38.298440
878  2023-10-18 13:54:38.330387
879  2023-10-18 13:54:38.362293
880  2023-10-18 13:54:38.410184
881  2023-10-18 13:54:38.442085
882  2023-10-18 13:54:38.474014
883  2023-10-18 13:54:38.506881
884  2023-10-18 13:54:38.538796
885  2023-10-18 13:54:38.570737
886  2023-10-18 13:54:38.602749
887  2023-10-18 13:54:38.634729
888  2023-10-18 13:54:38.666619
889  2023-10-18 13:54:38.698534
890  2023-10-18 13:54:38.730473
891  2023-10-18 13:54:38.762412
892  2023-10-18 13:54:38.810262
893  2023-10-18 13:54:38.842198
894  2023-10-18 13:54:38.874095
895  2023-10-18 13:54:38.906010
896  2023-10-18 13:54:38.937925
897  2023-10-18 13:54:38.970849
898  2023-10-18 13:54:39.002769
899  2023-10-18 13:54:39.034635
900  2023-10-18 13:54:39.066550
901  2023-10-18 13:54:39.098555
902  2023-10-18 13:54:39.131378
903  2023-10-18 13:54:39.163293
904  2023-10-18 13:54:39.210237
905  2023-10-18 13:54:39.242082
906  2023-10-18 13:54:39.275041
907  2023-10-18 13:54:39.305912
908  2023-10-18 13:54:39.338824
909  2023-10-18 13:54:39.370768
910  2023-10-18 13:54:39.402678
911  2023-10-18 13:54:39.434593
912  2023-10-18 13:54:39.466528
913  2023-10-18 13:54:39.498395
914  2023-10-18 13:54:39.530370
915  2023-10-18 13:54:39.562271
916  2023-10-18 13:54:39.610219
917  2023-10-18 13:54:39.642075
918  2023-10-18 13:54:39.674984
919  2023-10-18 13:54:39.706004
920  2023-10-18 13:54:39.738916
921  2023-10-18 13:54:39.770864
922  2023-10-18 13:54:39.802795
923  2023-10-18 13:54:39.834707
924  2023-10-18 13:54:39.866575
925  2023-10-18 13:54:39.898491
926  2023-10-18 13:54:39.931438
927  2023-10-18 13:54:39.962372
928  2023-10-18 13:54:40.010228
929  2023-10-18 13:54:40.043104
930  2023-10-18 13:54:40.074021
931  2023-10-18 13:54:40.105939
932  2023-10-18 13:54:40.138850
933  2023-10-18 13:54:40.170797
934  2023-10-18 13:54:40.202712
935  2023-10-18 13:54:40.234617
936  2023-10-18 13:54:40.266506
937  2023-10-18 13:54:40.298442
938  2023-10-18 13:54:40.330360
939  2023-10-18 13:54:40.362297
940  2023-10-18 13:54:40.410154
941  2023-10-18 13:54:40.442061
942  2023-10-18 13:54:40.474996
943  2023-10-18 13:54:40.506865
944  2023-10-18 13:54:40.538778
945  2023-10-18 13:54:40.570718
946  2023-10-18 13:54:40.602631
947  2023-10-18 13:54:40.634558
948  2023-10-18 13:54:40.666436
949  2023-10-18 13:54:40.698396
950  2023-10-18 13:54:40.730298
951  2023-10-18 13:54:40.762221
952  2023-10-18 13:54:40.810105
953  2023-10-18 13:54:40.842001
954  2023-10-18 13:54:40.873913
955  2023-10-18 13:54:40.906794
956  2023-10-18 13:54:40.938748
957  2023-10-18 13:54:40.970625
958  2023-10-18 13:54:41.002573
959  2023-10-18 13:54:41.034485
960  2023-10-18 13:54:41.066373
961  2023-10-18 13:54:41.098328
962  2023-10-18 13:54:41.130241
963  2023-10-18 13:54:41.178114
964  2023-10-18 13:54:41.210014
965  2023-10-18 13:54:41.242930
966  2023-10-18 13:54:41.274867
967  2023-10-18 13:54:41.306767
968  2023-10-18 13:54:41.338640
969  2023-10-18 13:54:41.370588
970  2023-10-18 13:54:41.402499
971  2023-10-18 13:54:41.434383
972  2023-10-18 13:54:41.477271
973  2023-10-18 13:54:41.499213
974  2023-10-18 13:54:41.531125
975  2023-10-18 13:54:41.578998
976  2023-10-18 13:54:41.610914
977  2023-10-18 13:54:41.642862
978  2023-10-18 13:54:41.674767
979  2023-10-18 13:54:41.706687
980  2023-10-18 13:54:41.738572
981  2023-10-18 13:54:41.770523
982  2023-10-18 13:54:41.802433
983  2023-10-18 13:54:41.834400
984  2023-10-18 13:54:41.866231
985  2023-10-18 13:54:41.898177
986  2023-10-18 13:54:41.930089
987  2023-10-18 13:54:41.978929
988  2023-10-18 13:54:42.010879
989  2023-10-18 13:54:42.042790
990  2023-10-18 13:54:42.074706
991  2023-10-18 13:54:42.106612
992  2023-10-18 13:54:42.138535
993  2023-10-18 13:54:42.170449
994  2023-10-18 13:54:42.202373
995  2023-10-18 13:54:42.234247
996  2023-10-18 13:54:42.266220
997  2023-10-18 13:54:42.298111
998  2023-10-18 13:54:42.330039
999  2023-10-18 13:54:42.377869
1000  2023-10-18 13:54:42.410806
1001  2023-10-18 13:54:42.442716
1002  2023-10-18 13:54:42.474633
1003  2023-10-18 13:54:42.506545
1004  2023-10-18 13:54:42.538470
1005  2023-10-18 13:54:42.570387
1006  2023-10-18 13:54:42.602294
1007  2023-10-18 13:54:42.634246
1008  2023-10-18 13:54:42.666137
1009  2023-10-18 13:54:42.698006
1010  2023-10-18 13:54:42.730919
1011  2023-10-18 13:54:42.778791
1012  2023-10-18 13:54:42.810744
1013  2023-10-18 13:54:42.842647
1014  2023-10-18 13:54:42.874535
1015  2023-10-18 13:54:42.906450
1016  2023-10-18 13:54:42.938364
1017  2023-10-18 13:54:42.970319
1018  2023-10-18 13:54:43.002235
1019  2023-10-18 13:54:43.034109
1020  2023-10-18 13:54:43.067020
1021  2023-10-18 13:54:43.098935
1022  2023-10-18 13:54:43.131847
1023  2023-10-18 13:54:43.178722
1024  2023-10-18 13:54:43.210687
1025  2023-10-18 13:54:43.242641
1026  2023-10-18 13:54:43.274598
1027  2023-10-18 13:54:43.306470
1028  2023-10-18 13:54:43.338386
1029  2023-10-18 13:54:43.370299
1030  2023-10-18 13:54:43.403236
1031  2023-10-18 13:54:43.434129
1032  2023-10-18 13:54:43.467073
1033  2023-10-18 13:54:43.499005
1034  2023-10-18 13:54:43.530920
1035  2023-10-18 13:54:43.578848
1036  2023-10-18 13:54:43.610762
1037  2023-10-18 13:54:43.642677
1038  2023-10-18 13:54:43.674624
1039  2023-10-18 13:54:43.706506
1040  2023-10-18 13:54:43.738423
1041  2023-10-18 13:54:43.770381
1042  2023-10-18 13:54:43.802284
1043  2023-10-18 13:54:43.834198
1044  2023-10-18 13:54:43.866112
1045  2023-10-18 13:54:43.898992
1046  2023-10-18 13:54:43.930906
1047  2023-10-18 13:54:43.978778
1048  2023-10-18 13:54:44.010694
1049  2023-10-18 13:54:44.042650
1050  2023-10-18 13:54:44.074553
1051  2023-10-18 13:54:44.106437
1052  2023-10-18 13:54:44.138419
1053  2023-10-18 13:54:44.170313
1054  2023-10-18 13:54:44.202237
1055  2023-10-18 13:54:44.234096
1056  2023-10-18 13:54:44.267055
1057  2023-10-18 13:54:44.298923
1058  2023-10-18 13:54:44.330870
1059  2023-10-18 13:54:44.378741
1060  2023-10-18 13:54:44.410624
1061  2023-10-18 13:54:44.442564
1062  2023-10-18 13:54:44.474489
1063  2023-10-18 13:54:44.506420
1064  2023-10-18 13:54:44.538283
1065  2023-10-18 13:54:44.570238
1066  2023-10-18 13:54:44.602144
1067  2023-10-18 13:54:44.634074
1068  2023-10-18 13:54:44.666939
1069  2023-10-18 13:54:44.698853
1070  2023-10-18 13:54:44.730768
1071  2023-10-18 13:54:44.778682
1072  2023-10-18 13:54:44.810603
1073  2023-10-18 13:54:44.842499
1074  2023-10-18 13:54:44.874409
1075  2023-10-18 13:54:44.906334
1076  2023-10-18 13:54:44.938257
1077  2023-10-18 13:54:44.970169
1078  2023-10-18 13:54:45.002089
1079  2023-10-18 13:54:45.034006
1080  2023-10-18 13:54:45.066869
1081  2023-10-18 13:54:45.098784
1082  2023-10-18 13:54:45.146686
1083  2023-10-18 13:54:45.178613
1084  2023-10-18 13:54:45.210486
1085  2023-10-18 13:54:45.242434
1086  2023-10-18 13:54:45.274315
1087  2023-10-18 13:54:45.306262
1088  2023-10-18 13:54:45.338175
1089  2023-10-18 13:54:45.371056
1090  2023-10-18 13:54:45.402971
1091  2023-10-18 13:54:45.434944
1092  2023-10-18 13:54:45.466800
1093  2023-10-18 13:54:45.498756
1094  2023-10-18 13:54:45.546587
1095  2023-10-18 13:54:45.578527
1096  2023-10-18 13:54:45.610417
1097  2023-10-18 13:54:45.642343
1098  2023-10-18 13:54:45.674263
1099  2023-10-18 13:54:45.707208
1100  2023-10-18 13:54:45.739073
1101  2023-10-18 13:54:45.770987
1102  2023-10-18 13:54:45.802934
1103  2023-10-18 13:54:45.834868
1104  2023-10-18 13:54:45.866732
1105  2023-10-18 13:54:45.898646
1106  2023-10-18 13:54:45.946549
1107  2023-10-18 13:54:45.978465
1108  2023-10-18 13:54:46.010453
1109  2023-10-18 13:54:46.042368
1110  2023-10-18 13:54:46.074301
1111  2023-10-18 13:54:46.106256
1112  2023-10-18 13:54:46.138144
1113  2023-10-18 13:54:46.171023
1114  2023-10-18 13:54:46.201945
1115  2023-10-18 13:54:46.234883
1116  2023-10-18 13:54:46.266793
1117  2023-10-18 13:54:46.298843
1118  2023-10-18 13:54:46.346706
1119  2023-10-18 13:54:46.378636
1120  2023-10-18 13:54:46.410507
1121  2023-10-18 13:54:46.442531
1122  2023-10-18 13:54:46.474489
1123  2023-10-18 13:54:46.506402
1124  2023-10-18 13:54:46.538405
1125  2023-10-18 13:54:46.570394
1126  2023-10-18 13:54:46.602268
1127  2023-10-18 13:54:46.634148
1128  2023-10-18 13:54:46.667060
1129  2023-10-18 13:54:46.698976
1130  2023-10-18 13:54:46.746900
1131  2023-10-18 13:54:46.778802
1132  2023-10-18 13:54:46.810828
1133  2023-10-18 13:54:46.842740
1134  2023-10-18 13:54:46.874654
1135  2023-10-18 13:54:46.906567
1136  2023-10-18 13:54:46.938447
1137  2023-10-18 13:54:46.970418
1138  2023-10-18 13:54:47.002340
1139  2023-10-18 13:54:47.034231
1140  2023-10-18 13:54:47.066106
1141  2023-10-18 13:54:47.098053
1142  2023-10-18 13:54:47.146952
1143  2023-10-18 13:54:47.178833
1144  2023-10-18 13:54:47.210719
1145  2023-10-18 13:54:47.242634
1146  2023-10-18 13:54:47.274578
1147  2023-10-18 13:54:47.306498
1148  2023-10-18 13:54:47.338419
1149  2023-10-18 13:54:47.370294
1150  2023-10-18 13:54:47.402250
1151  2023-10-18 13:54:47.434203
1152  2023-10-18 13:54:47.467115
1153  2023-10-18 13:54:47.498031
1154  2023-10-18 13:54:47.546933
1155  2023-10-18 13:54:47.578848
1156  2023-10-18 13:54:47.610730
1157  2023-10-18 13:54:47.642646
1158  2023-10-18 13:54:47.674560
1159  2023-10-18 13:54:47.706507
1160  2023-10-18 13:54:47.738391
1161  2023-10-18 13:54:47.770321
1162  2023-10-18 13:54:47.803219
1163  2023-10-18 13:54:47.835131
1164  2023-10-18 13:54:47.867050
1165  2023-10-18 13:54:47.898962
1166  2023-10-18 13:54:47.946834
1167  2023-10-18 13:54:47.978777
1168  2023-10-18 13:54:48.010662
1169  2023-10-18 13:54:48.042579
1170  2023-10-18 13:54:48.074491
1171  2023-10-18 13:54:48.106423
1172  2023-10-18 13:54:48.138354
1173  2023-10-18 13:54:48.171233
1174  2023-10-18 13:54:48.202149
1175  2023-10-18 13:54:48.235061
1176  2023-10-18 13:54:48.266978
1177  2023-10-18 13:54:48.298891
1178  2023-10-18 13:54:48.346797
1179  2023-10-18 13:54:48.378712
1180  2023-10-18 13:54:48.410592
1181  2023-10-18 13:54:48.442507
1182  2023-10-18 13:54:48.474423
1183  2023-10-18 13:54:48.506338
1184  2023-10-18 13:54:48.538309
1185  2023-10-18 13:54:48.570165
1186  2023-10-18 13:54:48.602081
1187  2023-10-18 13:54:48.635023
1188  2023-10-18 13:54:48.666907
1189  2023-10-18 13:54:48.714816
1190  2023-10-18 13:54:48.746693
1191  2023-10-18 13:54:48.778608
1192  2023-10-18 13:54:48.810523
1193  2023-10-18 13:54:48.842439
1194  2023-10-18 13:54:48.874385
1195  2023-10-18 13:54:48.906269
1196  2023-10-18 13:54:48.938212
1197  2023-10-18 13:54:48.970129
1198  2023-10-18 13:54:49.003008
1199  2023-10-18 13:54:49.034923
1200  2023-10-18 13:54:49.066837
1201  2023-10-18 13:54:49.114710
1202  2023-10-18 13:54:49.146662
1203  2023-10-18 13:54:49.178572
1204  2023-10-18 13:54:49.210454
1205  2023-10-18 13:54:49.242368
1206  2023-10-18 13:54:49.274320
1207  2023-10-18 13:54:49.306261
1208  2023-10-18 13:54:49.338137
1209  2023-10-18 13:54:49.370027
1210  2023-10-18 13:54:49.402939
1211  2023-10-18 13:54:49.434854
1212  2023-10-18 13:54:49.466768
1213  2023-10-18 13:54:49.514667
1214  2023-10-18 13:54:49.546555
1215  2023-10-18 13:54:49.578493
1216  2023-10-18 13:54:49.610384
1217  2023-10-18 13:54:49.642337
1218  2023-10-18 13:54:49.675213
1219  2023-10-18 13:54:49.707127
1220  2023-10-18 13:54:49.739041
1221  2023-10-18 13:54:49.770956
1222  2023-10-18 13:54:49.802871
1223  2023-10-18 13:54:49.834785
1224  2023-10-18 13:54:49.866700
1225  2023-10-18 13:54:49.914587
1226  2023-10-18 13:54:49.946501
1227  2023-10-18 13:54:49.978415
1228  2023-10-18 13:54:50.010316
1229  2023-10-18 13:54:50.043307
1230  2023-10-18 13:54:50.074145
1231  2023-10-18 13:54:50.106062
1232  2023-10-18 13:54:50.138972
1233  2023-10-18 13:54:50.170886
1234  2023-10-18 13:54:50.202801
1235  2023-10-18 13:54:50.234715
1236  2023-10-18 13:54:50.266630
1237  2023-10-18 13:54:50.314544
1238  2023-10-18 13:54:50.346448
1239  2023-10-18 13:54:50.378370
1240  2023-10-18 13:54:50.410246
1241  2023-10-18 13:54:50.442192
1242  2023-10-18 13:54:50.474102
1243  2023-10-18 13:54:50.506989
1244  2023-10-18 13:54:50.538902
1245  2023-10-18 13:54:50.570817
1246  2023-10-18 13:54:50.602732
1247  2023-10-18 13:54:50.634646
1248  2023-10-18 13:54:50.666593
1249  2023-10-18 13:54:50.714466
1250  2023-10-18 13:54:50.746348
1251  2023-10-18 13:54:50.778295
1252  2023-10-18 13:54:50.810177
1253  2023-10-18 13:54:50.842116
1254  2023-10-18 13:54:50.874006
1255  2023-10-18 13:54:50.906919
1256  2023-10-18 13:54:50.938833
1257  2023-10-18 13:54:50.970783
1258  2023-10-18 13:54:51.002720
1259  2023-10-18 13:54:51.034577
1260  2023-10-18 13:54:51.066492
1261  2023-10-18 13:54:51.114364
1262  2023-10-18 13:54:51.146322
1263  2023-10-18 13:54:51.178228
1264  2023-10-18 13:54:51.211139
1265  2023-10-18 13:54:51.242023
1266  2023-10-18 13:54:51.273937
1267  2023-10-18 13:54:51.306906
1268  2023-10-18 13:54:51.338797
1269  2023-10-18 13:54:51.370685
1270  2023-10-18 13:54:51.402593
1271  2023-10-18 13:54:51.434540
1272  2023-10-18 13:54:51.466460
1273  2023-10-18 13:54:51.514325
1274  2023-10-18 13:54:51.546249
1275  2023-10-18 13:54:51.578154
1276  2023-10-18 13:54:51.610083
1277  2023-10-18 13:54:51.641997
1278  2023-10-18 13:54:51.674943
1279  2023-10-18 13:54:51.706811
1280  2023-10-18 13:54:51.738738
1281  2023-10-18 13:54:51.770634
1282  2023-10-18 13:54:51.802548
1283  2023-10-18 13:54:51.834439
1284  2023-10-18 13:54:51.866353
1285  2023-10-18 13:54:51.914250
1286  2023-10-18 13:54:51.946140
1287  2023-10-18 13:54:51.978086
1288  2023-10-18 13:54:52.009970
1289  2023-10-18 13:54:52.042881
1290  2023-10-18 13:54:52.074796
1291  2023-10-18 13:54:52.106741
1292  2023-10-18 13:54:52.138675
1293  2023-10-18 13:54:52.170540
1294  2023-10-18 13:54:52.202455
1295  2023-10-18 13:54:52.234370
1296  2023-10-18 13:54:52.283241
1297  2023-10-18 13:54:52.315157
1298  2023-10-18 13:54:52.347069
1299  2023-10-18 13:54:52.378985
1300  2023-10-18 13:54:52.410901
1301  2023-10-18 13:54:52.442813
1302  2023-10-18 13:54:52.475751
1303  2023-10-18 13:54:52.507683
1304  2023-10-18 13:54:52.539555
1305  2023-10-18 13:54:52.570473
1306  2023-10-18 13:54:52.602389
1307  2023-10-18 13:54:52.635354
1308  2023-10-18 13:54:52.682174
1309  2023-10-18 13:54:52.715088
1310  2023-10-18 13:54:52.747003
1311  2023-10-18 13:54:52.778964
1312  2023-10-18 13:54:52.810866
1313  2023-10-18 13:54:52.842783
1314  2023-10-18 13:54:52.874659
1315  2023-10-18 13:54:52.906574
1316  2023-10-18 13:54:52.938536
1317  2023-10-18 13:54:52.971430
1318  2023-10-18 13:54:53.002318
1319  2023-10-18 13:54:53.034232
1320  2023-10-18 13:54:53.083139
1321  2023-10-18 13:54:53.115017
1322  2023-10-18 13:54:53.146932
1323  2023-10-18 13:54:53.178891
1324  2023-10-18 13:54:53.211808
1325  2023-10-18 13:54:53.242675
1326  2023-10-18 13:54:53.274590
1327  2023-10-18 13:54:53.307534
1328  2023-10-18 13:54:53.339446
1329  2023-10-18 13:54:53.371357
1330  2023-10-18 13:54:53.403246
1331  2023-10-18 13:54:53.434164
1332  2023-10-18 13:54:53.483033
1333  2023-10-18 13:54:53.514994
1334  2023-10-18 13:54:53.546894
1335  2023-10-18 13:54:53.578811
1336  2023-10-18 13:54:53.610730
1337  2023-10-18 13:54:53.643635
1338  2023-10-18 13:54:53.675560
1339  2023-10-18 13:54:53.707457
1340  2023-10-18 13:54:53.739377
1341  2023-10-18 13:54:53.771261
1342  2023-10-18 13:54:53.803220
1343  2023-10-18 13:54:53.835091
1344  2023-10-18 13:54:53.882995
1345  2023-10-18 13:54:53.914945
1346  2023-10-18 13:54:53.946795
1347  2023-10-18 13:54:53.978743
1348  2023-10-18 13:54:54.010648
1349  2023-10-18 13:54:54.042537
1350  2023-10-18 13:54:54.075482
1351  2023-10-18 13:54:54.107416
1352  2023-10-18 13:54:54.139311
1353  2023-10-18 13:54:54.171225
1354  2023-10-18 13:54:54.203148
1355  2023-10-18 13:54:54.235049
1356  2023-10-18 13:54:54.282960
1357  2023-10-18 13:54:54.314843
1358  2023-10-18 13:54:54.346751
1359  2023-10-18 13:54:54.378674
1360  2023-10-18 13:54:54.410603
1361  2023-10-18 13:54:54.442501
1362  2023-10-18 13:54:54.475379
1363  2023-10-18 13:54:54.506298
1364  2023-10-18 13:54:54.538272
1365  2023-10-18 13:54:54.571148
1366  2023-10-18 13:54:54.603092
1367  2023-10-18 13:54:54.634954
1368  2023-10-18 13:54:54.682862
1369  2023-10-18 13:54:54.714740
1370  2023-10-18 13:54:54.746655
1371  2023-10-18 13:54:54.778599
1372  2023-10-18 13:54:54.810484
1373  2023-10-18 13:54:54.842433
1374  2023-10-18 13:54:54.874314
1375  2023-10-18 13:54:54.907267
1376  2023-10-18 13:54:54.938191
1377  2023-10-18 13:54:54.970058
1378  2023-10-18 13:54:55.003014
1379  2023-10-18 13:54:55.034916
1380  2023-10-18 13:54:55.082787
1381  2023-10-18 13:54:55.114704
1382  2023-10-18 13:54:55.146618
1383  2023-10-18 13:54:55.178501
1384  2023-10-18 13:54:55.210445
1385  2023-10-18 13:54:55.242361
1386  2023-10-18 13:54:55.275270
1387  2023-10-18 13:54:55.306159
1388  2023-10-18 13:54:55.338112
1389  2023-10-18 13:54:55.370055
1390  2023-10-18 13:54:55.402942
1391  2023-10-18 13:54:55.434816
1392  2023-10-18 13:54:55.482688
1393  2023-10-18 13:54:55.514633
1394  2023-10-18 13:54:55.546548
1395  2023-10-18 13:54:55.578463
1396  2023-10-18 13:54:55.610380
1397  2023-10-18 13:54:55.642308
1398  2023-10-18 13:54:55.674211
1399  2023-10-18 13:54:55.706121
1400  2023-10-18 13:54:55.739056
1401  2023-10-18 13:54:55.770954
1402  2023-10-18 13:54:55.802865
1403  2023-10-18 13:54:55.834747
1404  2023-10-18 13:54:55.882651
1405  2023-10-18 13:54:55.914583
1406  2023-10-18 13:54:55.946472
1407  2023-10-18 13:54:55.978391
1408  2023-10-18 13:54:56.011274
1409  2023-10-18 13:54:56.043204
1410  2023-10-18 13:54:56.075141
1411  2023-10-18 13:54:56.106023
1412  2023-10-18 13:54:56.138998
1413  2023-10-18 13:54:56.170906
1414  2023-10-18 13:54:56.202805
1415  2023-10-18 13:54:56.250686
1416  2023-10-18 13:54:56.282579
1417  2023-10-18 13:54:56.314505
1418  2023-10-18 13:54:56.346445
1419  2023-10-18 13:54:56.378336
1420  2023-10-18 13:54:56.410242
1421  2023-10-18 13:54:56.442148
1422  2023-10-18 13:54:56.474068
1423  2023-10-18 13:54:56.506976
1424  2023-10-18 13:54:56.538925
1425  2023-10-18 13:54:56.570829
1426  2023-10-18 13:54:56.602725
1427  2023-10-18 13:54:56.650597
1428  2023-10-18 13:54:56.682511
1429  2023-10-18 13:54:56.714429
1430  2023-10-18 13:54:56.746345
1431  2023-10-18 13:54:56.778255
1432  2023-10-18 13:54:56.810161
1433  2023-10-18 13:54:56.843052
1434  2023-10-18 13:54:56.874008
1435  2023-10-18 13:54:56.906934
1436  2023-10-18 13:54:56.938829
1437  2023-10-18 13:54:56.970737
1438  2023-10-18 13:54:57.002771
1439  2023-10-18 13:54:57.050634
1440  2023-10-18 13:54:57.082554
1441  2023-10-18 13:54:57.114469
1442  2023-10-18 13:54:57.146394
1443  2023-10-18 13:54:57.178316
1444  2023-10-18 13:54:57.210220
1445  2023-10-18 13:54:57.242122
1446  2023-10-18 13:54:57.275065
1447  2023-10-18 13:54:57.306951
1448  2023-10-18 13:54:57.338872
1449  2023-10-18 13:54:57.370798
1450  2023-10-18 13:54:57.402698
1451  2023-10-18 13:54:57.450573
1452  2023-10-18 13:54:57.482482
1453  2023-10-18 13:54:57.514395
1454  2023-10-18 13:54:57.546315
1455  2023-10-18 13:54:57.578225
1456  2023-10-18 13:54:57.610137
1457  2023-10-18 13:54:57.642059
1458  2023-10-18 13:54:57.673983
1459  2023-10-18 13:54:57.706913
1460  2023-10-18 13:54:57.738768
1461  2023-10-18 13:54:57.770718
1462  2023-10-18 13:54:57.802666
1463  2023-10-18 13:54:57.850567
1464  2023-10-18 13:54:57.882484
1465  2023-10-18 13:54:57.914422
1466  2023-10-18 13:54:57.946322
1467  2023-10-18 13:54:57.978256
1468  2023-10-18 13:54:58.010142
1469  2023-10-18 13:54:58.042085
1470  2023-10-18 13:54:58.073989
1471  2023-10-18 13:54:58.106910
1472  2023-10-18 13:54:58.138803
1473  2023-10-18 13:54:58.170716
1474  2023-10-18 13:54:58.202634
1475  2023-10-18 13:54:58.250523
1476  2023-10-18 13:54:58.282416
1477  2023-10-18 13:54:58.314358
1478  2023-10-18 13:54:58.346237
1479  2023-10-18 13:54:58.378170
1480  2023-10-18 13:54:58.410082
1481  2023-10-18 13:54:58.441983
1482  2023-10-18 13:54:58.474914
1483  2023-10-18 13:54:58.506815
1484  2023-10-18 13:54:58.538743
1485  2023-10-18 13:54:58.570644
1486  2023-10-18 13:54:58.602572
1487  2023-10-18 13:54:58.650451
1488  2023-10-18 13:54:58.682352
1489  2023-10-18 13:54:58.714262
1490  2023-10-18 13:54:58.746174
1491  2023-10-18 13:54:58.778121
1492  2023-10-18 13:54:58.810067
1493  2023-10-18 13:54:58.842035
1494  2023-10-18 13:54:58.874942
1495  2023-10-18 13:54:58.906854
1496  2023-10-18 13:54:58.938769
1497  2023-10-18 13:54:58.970696
1498  2023-10-18 13:54:59.002598
1499  2023-10-18 13:54:59.050472
1500  2023-10-18 13:54:59.083387
1501  2023-10-18 13:54:59.114271
1502  2023-10-18 13:54:59.146184
1503  2023-10-18 13:54:59.179129
1504  2023-10-18 13:54:59.211009
1505  2023-10-18 13:54:59.242969
1506  2023-10-18 13:54:59.274866
1507  2023-10-18 13:54:59.306797
1508  2023-10-18 13:54:59.338668
1509  2023-10-18 13:54:59.370582
1510  2023-10-18 13:54:59.402548
1511  2023-10-18 13:54:59.450404
1512  2023-10-18 13:54:59.482348
1513  2023-10-18 13:54:59.514202
1514  2023-10-18 13:54:59.546148
1515  2023-10-18 13:54:59.578055
1516  2023-10-18 13:54:59.609972
1517  2023-10-18 13:54:59.642899
1518  2023-10-18 13:54:59.674797
1519  2023-10-18 13:54:59.706718
1520  2023-10-18 13:54:59.738635
1521  2023-10-18 13:54:59.770547
1522  2023-10-18 13:54:59.818386
1523  2023-10-18 13:54:59.850350
1524  2023-10-18 13:54:59.882251
1525  2023-10-18 13:54:59.914171
1526  2023-10-18 13:54:59.947091
1527  2023-10-18 13:54:59.977995
1528  2023-10-18 13:55:00.010871
1529  2023-10-18 13:55:00.042818
1530  2023-10-18 13:55:00.074733
1531  2023-10-18 13:55:00.106646
1532  2023-10-18 13:55:00.138554
1533  2023-10-18 13:55:00.170470
1534  2023-10-18 13:55:00.218357
1535  2023-10-18 13:55:00.250271
1536  2023-10-18 13:55:00.282190
1537  2023-10-18 13:55:00.314087
1538  2023-10-18 13:55:00.346937
1539  2023-10-18 13:55:00.378853
1540  2023-10-18 13:55:00.410766
1541  2023-10-18 13:55:00.442681
1542  2023-10-18 13:55:00.474728
1543  2023-10-18 13:55:00.506652
1544  2023-10-18 13:55:00.538565
1545  2023-10-18 13:55:00.570493
1546  2023-10-18 13:55:00.618353
1547  2023-10-18 13:55:00.650264
1548  2023-10-18 13:55:00.682189
1549  2023-10-18 13:55:00.714093
1550  2023-10-18 13:55:00.746009
1551  2023-10-18 13:55:00.778922
1552  2023-10-18 13:55:00.810837
1553  2023-10-18 13:55:00.842769
1554  2023-10-18 13:55:00.874665
1555  2023-10-18 13:55:00.906579
1556  2023-10-18 13:55:00.938464
1557  2023-10-18 13:55:00.970418
1558  2023-10-18 13:55:01.018288
1559  2023-10-18 13:55:01.050198
1560  2023-10-18 13:55:01.083077
1561  2023-10-18 13:55:01.114992
1562  2023-10-18 13:55:01.146906
1563  2023-10-18 13:55:01.178823
1564  2023-10-18 13:55:01.210736
1565  2023-10-18 13:55:01.242690
1566  2023-10-18 13:55:01.274595
1567  2023-10-18 13:55:01.306507
1568  2023-10-18 13:55:01.338428
1569  2023-10-18 13:55:01.370335
1570  2023-10-18 13:55:01.418238
1571  2023-10-18 13:55:01.450104
1572  2023-10-18 13:55:01.482062
1573  2023-10-18 13:55:01.513972
1574  2023-10-18 13:55:01.546891
1575  2023-10-18 13:55:01.578784
1576  2023-10-18 13:55:01.610699
1577  2023-10-18 13:55:01.642610
1578  2023-10-18 13:55:01.674531
1579  2023-10-18 13:55:01.706539
1580  2023-10-18 13:55:01.738424
1581  2023-10-18 13:55:01.770347
1582  2023-10-18 13:55:01.818298
1583  2023-10-18 13:55:01.850268
1584  2023-10-18 13:55:01.883158
1585  2023-10-18 13:55:01.914079
1586  2023-10-18 13:55:01.945984
1587  2023-10-18 13:55:01.978910
1588  2023-10-18 13:55:02.010819
1589  2023-10-18 13:55:02.042741
1590  2023-10-18 13:55:02.074652
1591  2023-10-18 13:55:02.106558
1592  2023-10-18 13:55:02.139476
1593  2023-10-18 13:55:02.170399
1594  2023-10-18 13:55:02.218266
1595  2023-10-18 13:55:02.250167
1596  2023-10-18 13:55:02.282105
1597  2023-10-18 13:55:02.314006
1598  2023-10-18 13:55:02.346935
1599  2023-10-18 13:55:02.378837
1600  2023-10-18 13:55:02.410746
1601  2023-10-18 13:55:02.442665
1602  2023-10-18 13:55:02.474575
1603  2023-10-18 13:55:02.506459
1604  2023-10-18 13:55:02.538410
1605  2023-10-18 13:55:02.570331
1606  2023-10-18 13:55:02.618193
1607  2023-10-18 13:55:02.650099
1608  2023-10-18 13:55:02.682022
1609  2023-10-18 13:55:02.714937
1610  2023-10-18 13:55:02.746817
1611  2023-10-18 13:55:02.785743
1612  2023-10-18 13:55:02.810680
1613  2023-10-18 13:55:02.842615
1614  2023-10-18 13:55:02.874507
1615  2023-10-18 13:55:02.906422
1616  2023-10-18 13:55:02.938338
1617  2023-10-18 13:55:02.970251
1618  2023-10-18 13:55:03.018092
1619  2023-10-18 13:55:03.050031
1620  2023-10-18 13:55:03.081947
1621  2023-10-18 13:55:03.114860
1622  2023-10-18 13:55:03.146748
1623  2023-10-18 13:55:03.178712
1624  2023-10-18 13:55:03.210607
1625  2023-10-18 13:55:03.242521
1626  2023-10-18 13:55:03.274437
1627  2023-10-18 13:55:03.306354
1628  2023-10-18 13:55:03.338279
1629  2023-10-18 13:55:03.386140
1630  2023-10-18 13:55:03.419020
1631  2023-10-18 13:55:03.449963
1632  2023-10-18 13:55:03.482914
1633  2023-10-18 13:55:03.514797
1634  2023-10-18 13:55:03.546712
1635  2023-10-18 13:55:03.578623
1636  2023-10-18 13:55:03.610539
1637  2023-10-18 13:55:03.642456
1638  2023-10-18 13:55:03.674375
1639  2023-10-18 13:55:03.706282
1640  2023-10-18 13:55:03.738193
1641  2023-10-18 13:55:03.786039
1642  2023-10-18 13:55:03.817953
1643  2023-10-18 13:55:03.850866
1644  2023-10-18 13:55:03.882780
1645  2023-10-18 13:55:03.914698
1646  2023-10-18 13:55:03.946609
1647  2023-10-18 13:55:03.978525
1648  2023-10-18 13:55:04.011469
1649  2023-10-18 13:55:04.043352
1650  2023-10-18 13:55:04.074270
1651  2023-10-18 13:55:04.106210
1652  2023-10-18 13:55:04.139130
1653  2023-10-18 13:55:04.186009
1654  2023-10-18 13:55:04.218917
1655  2023-10-18 13:55:04.250826
1656  2023-10-18 13:55:04.282744
1657  2023-10-18 13:55:04.314667
1658  2023-10-18 13:55:04.346539
1659  2023-10-18 13:55:04.378479
1660  2023-10-18 13:55:04.410406
1661  2023-10-18 13:55:04.442329
1662  2023-10-18 13:55:04.474199
1663  2023-10-18 13:55:04.506138
1664  2023-10-18 13:55:04.538053
1665  2023-10-18 13:55:04.585932
1666  2023-10-18 13:55:04.618812
1667  2023-10-18 13:55:04.650760
1668  2023-10-18 13:55:04.682684
1669  2023-10-18 13:55:04.714586
1670  2023-10-18 13:55:04.746504
1671  2023-10-18 13:55:04.778418
1672  2023-10-18 13:55:04.810344
1673  2023-10-18 13:55:04.842254
1674  2023-10-18 13:55:04.874153
1675  2023-10-18 13:55:04.907072
1676  2023-10-18 13:55:04.937985
1677  2023-10-18 13:55:04.986829
1678  2023-10-18 13:55:05.018776
1679  2023-10-18 13:55:05.050704
1680  2023-10-18 13:55:05.082602
1681  2023-10-18 13:55:05.114521
1682  2023-10-18 13:55:05.146433
1683  2023-10-18 13:55:05.178358
1684  2023-10-18 13:55:05.210279
1685  2023-10-18 13:55:05.243144
1686  2023-10-18 13:55:05.275065
1687  2023-10-18 13:55:05.306973
1688  2023-10-18 13:55:05.338889
1689  2023-10-18 13:55:05.386767
1690  2023-10-18 13:55:05.419732
1691  2023-10-18 13:55:05.450650
1692  2023-10-18 13:55:05.482566
1693  2023-10-18 13:55:05.514481
1694  2023-10-18 13:55:05.546395
1695  2023-10-18 13:55:05.579333
1696  2023-10-18 13:55:05.610257
1697  2023-10-18 13:55:05.642175
1698  2023-10-18 13:55:05.674084
1699  2023-10-18 13:55:05.706004
1700  2023-10-18 13:55:05.738906
1701  2023-10-18 13:55:05.786796
1702  2023-10-18 13:55:05.818856
1703  2023-10-18 13:55:05.850747
1704  2023-10-18 13:55:05.882684
1705  2023-10-18 13:55:05.914580
1706  2023-10-18 13:55:05.946493
1707  2023-10-18 13:55:05.978408
1708  2023-10-18 13:55:06.010339
1709  2023-10-18 13:55:06.042248
1710  2023-10-18 13:55:06.074121
1711  2023-10-18 13:55:06.106063
1712  2023-10-18 13:55:06.137950
1713  2023-10-18 13:55:06.186874
1714  2023-10-18 13:55:06.218762
1715  2023-10-18 13:55:06.250682
1716  2023-10-18 13:55:06.282590
1717  2023-10-18 13:55:06.314511
1718  2023-10-18 13:55:06.346393
1719  2023-10-18 13:55:06.378307
1720  2023-10-18 13:55:06.410278
1721  2023-10-18 13:55:06.442173
1722  2023-10-18 13:55:06.474054
1723  2023-10-18 13:55:06.506997
1724  2023-10-18 13:55:06.538914
1725  2023-10-18 13:55:06.586782
1726  2023-10-18 13:55:06.618665
1727  2023-10-18 13:55:06.650611
1728  2023-10-18 13:55:06.682498
1729  2023-10-18 13:55:06.714409
1730  2023-10-18 13:55:06.746362
1731  2023-10-18 13:55:06.778263
1732  2023-10-18 13:55:06.810190
1733  2023-10-18 13:55:06.843078
1734  2023-10-18 13:55:06.875015
1735  2023-10-18 13:55:06.906896
1736  2023-10-18 13:55:06.938810
1737  2023-10-18 13:55:06.986681
1738  2023-10-18 13:55:07.018627
1739  2023-10-18 13:55:07.050536
1740  2023-10-18 13:55:07.082425
1741  2023-10-18 13:55:07.114394
1742  2023-10-18 13:55:07.146285
1743  2023-10-18 13:55:07.178206
1744  2023-10-18 13:55:07.210135
1745  2023-10-18 13:55:07.242996
1746  2023-10-18 13:55:07.274948
1747  2023-10-18 13:55:07.306861
1748  2023-10-18 13:55:07.354697
1749  2023-10-18 13:55:07.386612
1750  2023-10-18 13:55:07.418553
1751  2023-10-18 13:55:07.450479
1752  2023-10-18 13:55:07.482358
1753  2023-10-18 13:55:07.514313
1754  2023-10-18 13:55:07.546213
1755  2023-10-18 13:55:07.578130
1756  2023-10-18 13:55:07.610042
1757  2023-10-18 13:55:07.642954
1758  2023-10-18 13:55:07.674869
1759  2023-10-18 13:55:07.706784
1760  2023-10-18 13:55:07.754710
1761  2023-10-18 13:55:07.786656
1762  2023-10-18 13:55:07.818570
1763  2023-10-18 13:55:07.850495
1764  2023-10-18 13:55:07.882406
1765  2023-10-18 13:55:07.914284
1766  2023-10-18 13:55:07.946259
1767  2023-10-18 13:55:07.978198
1768  2023-10-18 13:55:08.011107
1769  2023-10-18 13:55:08.043020
1770  2023-10-18 13:55:08.074935
1771  2023-10-18 13:55:08.106855
1772  2023-10-18 13:55:08.154723
1773  2023-10-18 13:55:08.186637
1774  2023-10-18 13:55:08.218665
1775  2023-10-18 13:55:08.250590
1776  2023-10-18 13:55:08.282493
1777  2023-10-18 13:55:08.314384
1778  2023-10-18 13:55:08.346327
1779  2023-10-18 13:55:08.378231
1780  2023-10-18 13:55:08.410145
1781  2023-10-18 13:55:08.443074
1782  2023-10-18 13:55:08.475003
1783  2023-10-18 13:55:08.506898
1784  2023-10-18 13:55:08.554827
1785  2023-10-18 13:55:08.586742
1786  2023-10-18 13:55:08.618655
1787  2023-10-18 13:55:08.650604
1788  2023-10-18 13:55:08.682517
1789  2023-10-18 13:55:08.714444
1790  2023-10-18 13:55:08.746315
1791  2023-10-18 13:55:08.778262
1792  2023-10-18 13:55:08.810246
1793  2023-10-18 13:55:08.842162
1794  2023-10-18 13:55:08.874099
1795  2023-10-18 13:55:08.906988
1796  2023-10-18 13:55:08.954015
1797  2023-10-18 13:55:08.986954
1798  2023-10-18 13:55:09.018832
1799  2023-10-18 13:55:09.050754
1800  2023-10-18 13:55:09.082664
1801  2023-10-18 13:55:09.114572
1802  2023-10-18 13:55:09.146495
1803  2023-10-18 13:55:09.178377
1804  2023-10-18 13:55:09.210380
1805  2023-10-18 13:55:09.242295
1806  2023-10-18 13:55:09.274211
1807  2023-10-18 13:55:09.306124
1808  2023-10-18 13:55:09.354025
1809  2023-10-18 13:55:09.386910
1810  2023-10-18 13:55:09.418825
1811  2023-10-18 13:55:09.450740
1812  2023-10-18 13:55:09.482654
1813  2023-10-18 13:55:09.514569
1814  2023-10-18 13:55:09.546484
1815  2023-10-18 13:55:09.578398
1816  2023-10-18 13:55:09.610312
1817  2023-10-18 13:55:09.642226
1818  2023-10-18 13:55:09.675140
1819  2023-10-18 13:55:09.707054
1820  2023-10-18 13:55:09.754926
1821  2023-10-18 13:55:09.786841
1822  2023-10-18 13:55:09.818756
1823  2023-10-18 13:55:09.850671
1824  2023-10-18 13:55:09.882635
1825  2023-10-18 13:55:09.914500
1826  2023-10-18 13:55:09.946415
1827  2023-10-18 13:55:09.978329
1828  2023-10-18 13:55:10.010254
1829  2023-10-18 13:55:10.042202
1830  2023-10-18 13:55:10.074104
1831  2023-10-18 13:55:10.106986
1832  2023-10-18 13:55:10.154863
1833  2023-10-18 13:55:10.186772
1834  2023-10-18 13:55:10.218686
1835  2023-10-18 13:55:10.250701
1836  2023-10-18 13:55:10.282618
1837  2023-10-18 13:55:10.314499
1838  2023-10-18 13:55:10.346413
1839  2023-10-18 13:55:10.378329
1840  2023-10-18 13:55:10.410283
1841  2023-10-18 13:55:10.442188
1842  2023-10-18 13:55:10.474102
1843  2023-10-18 13:55:10.506016
1844  2023-10-18 13:55:10.554856
1845  2023-10-18 13:55:10.586770
1846  2023-10-18 13:55:10.618686
1847  2023-10-18 13:55:10.650599
1848  2023-10-18 13:55:10.682521
1849  2023-10-18 13:55:10.714449
1850  2023-10-18 13:55:10.746345
1851  2023-10-18 13:55:10.778258
1852  2023-10-18 13:55:10.810209
1853  2023-10-18 13:55:10.842118
1854  2023-10-18 13:55:10.875001
1855  2023-10-18 13:55:10.922872
1856  2023-10-18 13:55:10.954818
1857  2023-10-18 13:55:10.986733
1858  2023-10-18 13:55:11.019623
1859  2023-10-18 13:55:11.050539
1860  2023-10-18 13:55:11.082446
1861  2023-10-18 13:55:11.114361
1862  2023-10-18 13:55:11.146305
1863  2023-10-18 13:55:11.178222
1864  2023-10-18 13:55:11.210136
1865  2023-10-18 13:55:11.242023
1866  2023-10-18 13:55:11.274932
1867  2023-10-18 13:55:11.322845
1868  2023-10-18 13:55:11.354744
1869  2023-10-18 13:55:11.386675
1870  2023-10-18 13:55:11.418580
1871  2023-10-18 13:55:11.451568
1872  2023-10-18 13:55:11.482455
1873  2023-10-18 13:55:11.514369
1874  2023-10-18 13:55:11.546283
1875  2023-10-18 13:55:11.578197
1876  2023-10-18 13:55:11.610113
1877  2023-10-18 13:55:11.642057
1878  2023-10-18 13:55:11.674940
1879  2023-10-18 13:55:11.722813
1880  2023-10-18 13:55:11.754727
1881  2023-10-18 13:55:11.786642
1882  2023-10-18 13:55:11.818556
1883  2023-10-18 13:55:11.850471
1884  2023-10-18 13:55:11.882385
1885  2023-10-18 13:55:11.914299
1886  2023-10-18 13:55:11.946245
1887  2023-10-18 13:55:11.978268
1888  2023-10-18 13:55:12.010165
1889  2023-10-18 13:55:12.043051
1890  2023-10-18 13:55:12.074965
1891  2023-10-18 13:55:12.122871
1892  2023-10-18 13:55:12.154751
1893  2023-10-18 13:55:12.186664
1894  2023-10-18 13:55:12.219617
1895  2023-10-18 13:55:12.251524
1896  2023-10-18 13:55:12.282408
1897  2023-10-18 13:55:12.314323
1898  2023-10-18 13:55:12.346238
1899  2023-10-18 13:55:12.379166
1900  2023-10-18 13:55:12.411065
1901  2023-10-18 13:55:12.442980
1902  2023-10-18 13:55:12.474928
1903  2023-10-18 13:55:12.522806
1904  2023-10-18 13:55:12.554681
1905  2023-10-18 13:55:12.586601
1906  2023-10-18 13:55:12.618537
1907  2023-10-18 13:55:12.650425
1908  2023-10-18 13:55:12.682339
1909  2023-10-18 13:55:12.714254
1910  2023-10-18 13:55:12.746194
1911  2023-10-18 13:55:12.779081
1912  2023-10-18 13:55:12.810996
1913  2023-10-18 13:55:12.842938
1914  2023-10-18 13:55:12.875861
1915  2023-10-18 13:55:12.922731
1916  2023-10-18 13:55:12.954612
1917  2023-10-18 13:55:12.986560
1918  2023-10-18 13:55:13.018441
1919  2023-10-18 13:55:13.050356
1920  2023-10-18 13:55:13.082298
1921  2023-10-18 13:55:13.114185
1922  2023-10-18 13:55:13.146136
1923  2023-10-18 13:55:13.178050
1924  2023-10-18 13:55:13.210963
1925  2023-10-18 13:55:13.242964
1926  2023-10-18 13:55:13.274868
1927  2023-10-18 13:55:13.323753
1928  2023-10-18 13:55:13.354617
1929  2023-10-18 13:55:13.386558
1930  2023-10-18 13:55:13.418470
1931  2023-10-18 13:55:13.450394
1932  2023-10-18 13:55:13.483303
1933  2023-10-18 13:55:13.514226
1934  2023-10-18 13:55:13.546107
1935  2023-10-18 13:55:13.579052
1936  2023-10-18 13:55:13.610991
1937  2023-10-18 13:55:13.642916
1938  2023-10-18 13:55:13.674798
1939  2023-10-18 13:55:13.722670
1940  2023-10-18 13:55:13.754571
1941  2023-10-18 13:55:13.786462
1942  2023-10-18 13:55:13.818378
1943  2023-10-18 13:55:13.851321
1944  2023-10-18 13:55:13.883236
1945  2023-10-18 13:55:13.914153
1946  2023-10-18 13:55:13.946036
1947  2023-10-18 13:55:13.979011
1948  2023-10-18 13:55:14.010912
1949  2023-10-18 13:55:14.042812
1950  2023-10-18 13:55:14.074716
1951  2023-10-18 13:55:14.122564
1952  2023-10-18 13:55:14.154478
1953  2023-10-18 13:55:14.186419
1954  2023-10-18 13:55:14.218336
1955  2023-10-18 13:55:14.250261
1956  2023-10-18 13:55:14.282164
1957  2023-10-18 13:55:14.314086
1958  2023-10-18 13:55:14.346001
1959  2023-10-18 13:55:14.377922
1960  2023-10-18 13:55:14.410843
1961  2023-10-18 13:55:14.442743
1962  2023-10-18 13:55:14.474647
1963  2023-10-18 13:55:14.522526
1964  2023-10-18 13:55:14.554483
1965  2023-10-18 13:55:14.586325
1966  2023-10-18 13:55:14.618265
1967  2023-10-18 13:55:14.650179
1968  2023-10-18 13:55:14.682104
1969  2023-10-18 13:55:14.714010
1970  2023-10-18 13:55:14.746945
1971  2023-10-18 13:55:14.778840
1972  2023-10-18 13:55:14.810764
1973  2023-10-18 13:55:14.842670
1974  2023-10-18 13:55:14.890560
1975  2023-10-18 13:55:14.922460
1976  2023-10-18 13:55:14.954368
1977  2023-10-18 13:55:14.986279
1978  2023-10-18 13:55:15.019167
1979  2023-10-18 13:55:15.051095
1980  2023-10-18 13:55:15.083001
1981  2023-10-18 13:55:15.114912
1982  2023-10-18 13:55:15.146829
1983  2023-10-18 13:55:15.178788
1984  2023-10-18 13:55:15.211684
1985  2023-10-18 13:55:15.242618
1986  2023-10-18 13:55:15.290442
1987  2023-10-18 13:55:15.322358
1988  2023-10-18 13:55:15.354311
1989  2023-10-18 13:55:15.387197
1990  2023-10-18 13:55:15.419098
1991  2023-10-18 13:55:15.451041
1992  2023-10-18 13:55:15.481954
1993  2023-10-18 13:55:15.514875
1994  2023-10-18 13:55:15.546757
1995  2023-10-18 13:55:15.578697
1996  2023-10-18 13:55:15.610617
1997  2023-10-18 13:55:15.642502
1998  2023-10-18 13:55:15.690378
1999  2023-10-18 13:55:15.722320
2000  2023-10-18 13:55:15.754238
2001  2023-10-18 13:55:15.786118
2002  2023-10-18 13:55:15.818032
2003  2023-10-18 13:55:15.850944
2004  2023-10-18 13:55:15.882860
2005  2023-10-18 13:55:15.914807
2006  2023-10-18 13:55:15.946718
2007  2023-10-18 13:55:15.978626
2008  2023-10-18 13:55:16.010548
2009  2023-10-18 13:55:16.042490
2010  2023-10-18 13:55:16.090336
2011  2023-10-18 13:55:16.122220
2012  2023-10-18 13:55:16.154165
2013  2023-10-18 13:55:16.187075
2014  2023-10-18 13:55:16.218993
2015  2023-10-18 13:55:16.250920
2016  2023-10-18 13:55:16.282820
2017  2023-10-18 13:55:16.314740
2018  2023-10-18 13:55:16.346648
2019  2023-10-18 13:55:16.378558
2020  2023-10-18 13:55:16.410491
2021  2023-10-18 13:55:16.442410
2022  2023-10-18 13:55:16.490270
2023  2023-10-18 13:55:16.522193
2024  2023-10-18 13:55:16.554090
2025  2023-10-18 13:55:16.586977
2026  2023-10-18 13:55:16.618891
2027  2023-10-18 13:55:16.650838
2028  2023-10-18 13:55:16.682758
2029  2023-10-18 13:55:16.714635
2030  2023-10-18 13:55:16.746576
2031  2023-10-18 13:55:16.778491
2032  2023-10-18 13:55:16.810378
2033  2023-10-18 13:55:16.843291
2034  2023-10-18 13:55:16.890198
2035  2023-10-18 13:55:16.923077
2036  2023-10-18 13:55:16.953996
2037  2023-10-18 13:55:16.986963
2038  2023-10-18 13:55:17.018822
2039  2023-10-18 13:55:17.050770
2040  2023-10-18 13:55:17.082685
2041  2023-10-18 13:55:17.114598
2042  2023-10-18 13:55:17.146513
2043  2023-10-18 13:55:17.178428
2044  2023-10-18 13:55:17.210311
2045  2023-10-18 13:55:17.242226
2046  2023-10-18 13:55:17.290098
2047  2023-10-18 13:55:17.322041
2048  2023-10-18 13:55:17.354924
2049  2023-10-18 13:55:17.386884
2050  2023-10-18 13:55:17.418782
2051  2023-10-18 13:55:17.450668
2052  2023-10-18 13:55:17.482583
2053  2023-10-18 13:55:17.514498
2054  2023-10-18 13:55:17.546434
2055  2023-10-18 13:55:17.578356
2056  2023-10-18 13:55:17.610246
2057  2023-10-18 13:55:17.642190
2058  2023-10-18 13:55:17.690029
2059  2023-10-18 13:55:17.722941
2060  2023-10-18 13:55:17.754855
2061  2023-10-18 13:55:17.786769
2062  2023-10-18 13:55:17.818710
2063  2023-10-18 13:55:17.850600
2064  2023-10-18 13:55:17.882560
2065  2023-10-18 13:55:17.914595
2066  2023-10-18 13:55:17.946506
2067  2023-10-18 13:55:17.978429
2068  2023-10-18 13:55:18.010344
2069  2023-10-18 13:55:18.042275
2070  2023-10-18 13:55:18.090128
2071  2023-10-18 13:55:18.122101
2072  2023-10-18 13:55:18.154016
2073  2023-10-18 13:55:18.186959
2074  2023-10-18 13:55:18.218887
2075  2023-10-18 13:55:18.250790
2076  2023-10-18 13:55:18.282704
2077  2023-10-18 13:55:18.314618
2078  2023-10-18 13:55:18.346533
2079  2023-10-18 13:55:18.378440
2080  2023-10-18 13:55:18.410332
2081  2023-10-18 13:55:18.459200
2082  2023-10-18 13:55:18.490175
2083  2023-10-18 13:55:18.522056
2084  2023-10-18 13:55:18.553977
2085  2023-10-18 13:55:18.586859
2086  2023-10-18 13:55:18.618773
2087  2023-10-18 13:55:18.650715
2088  2023-10-18 13:55:18.682643
2089  2023-10-18 13:55:18.714519
2090  2023-10-18 13:55:18.746463
2091  2023-10-18 13:55:18.778388
2092  2023-10-18 13:55:18.810264
2093  2023-10-18 13:55:18.858133
2094  2023-10-18 13:55:18.890074
2095  2023-10-18 13:55:18.922960
2096  2023-10-18 13:55:18.954875
2097  2023-10-18 13:55:18.988786
2098  2023-10-18 13:55:19.018737
2099  2023-10-18 13:55:19.050654
2100  2023-10-18 13:55:19.082565
2101  2023-10-18 13:55:19.115448
2102  2023-10-18 13:55:19.146391
2103  2023-10-18 13:55:19.178301
2104  2023-10-18 13:55:19.211191
2105  2023-10-18 13:55:19.259062
2106  2023-10-18 13:55:19.290985
2107  2023-10-18 13:55:19.322891
2108  2023-10-18 13:55:19.354835
2109  2023-10-18 13:55:19.386721
2110  2023-10-18 13:55:19.418636
2111  2023-10-18 13:55:19.450596
2112  2023-10-18 13:55:19.482498
2113  2023-10-18 13:55:19.514423
2114  2023-10-18 13:55:19.546337
2115  2023-10-18 13:55:19.578275
2116  2023-10-18 13:55:19.610154
2117  2023-10-18 13:55:19.657995
2118  2023-10-18 13:55:19.690960
2119  2023-10-18 13:55:19.722856
2120  2023-10-18 13:55:19.754769
2121  2023-10-18 13:55:19.786651
2122  2023-10-18 13:55:19.818566
2123  2023-10-18 13:55:19.850483
2124  2023-10-18 13:55:19.882398
2125  2023-10-18 13:55:19.914346
2126  2023-10-18 13:55:19.946274
2127  2023-10-18 13:55:19.978186
2128  2023-10-18 13:55:20.010088
2129  2023-10-18 13:55:20.058957
2130  2023-10-18 13:55:20.090839
2131  2023-10-18 13:55:20.122787
2132  2023-10-18 13:55:20.154753
2133  2023-10-18 13:55:20.186669
2134  2023-10-18 13:55:20.218610
2135  2023-10-18 13:55:20.250498
2136  2023-10-18 13:55:20.282461
2137  2023-10-18 13:55:20.314369
2138  2023-10-18 13:55:20.347250
2139  2023-10-18 13:55:20.378195
2140  2023-10-18 13:55:20.411069
2141  2023-10-18 13:55:20.457990
2142  2023-10-18 13:55:20.490855
2143  2023-10-18 13:55:20.522804
2144  2023-10-18 13:55:20.554718
2145  2023-10-18 13:55:20.586599
2146  2023-10-18 13:55:20.618546
2147  2023-10-18 13:55:20.650455
2148  2023-10-18 13:55:20.682378
2149  2023-10-18 13:55:20.714292
2150  2023-10-18 13:55:20.746203
2151  2023-10-18 13:55:20.778119
2152  2023-10-18 13:55:20.810999
2153  2023-10-18 13:55:20.858871
2154  2023-10-18 13:55:20.890786
2155  2023-10-18 13:55:20.922701
2156  2023-10-18 13:55:20.954668
2157  2023-10-18 13:55:20.986530
2158  2023-10-18 13:55:21.018480
2159  2023-10-18 13:55:21.051363
2160  2023-10-18 13:55:21.083320
2161  2023-10-18 13:55:21.114222
2162  2023-10-18 13:55:21.147101
2163  2023-10-18 13:55:21.179094
2164  2023-10-18 13:55:21.210979
2165  2023-10-18 13:55:21.258850
2166  2023-10-18 13:55:21.290765
2167  2023-10-18 13:55:21.322680
2168  2023-10-18 13:55:21.354594
2169  2023-10-18 13:55:21.386509
2170  2023-10-18 13:55:21.418424
2171  2023-10-18 13:55:21.450338
2172  2023-10-18 13:55:21.482255
2173  2023-10-18 13:55:21.514168
2174  2023-10-18 13:55:21.546225
2175  2023-10-18 13:55:21.578150
2176  2023-10-18 13:55:21.610072
2177  2023-10-18 13:55:21.658943
2178  2023-10-18 13:55:21.690857
2179  2023-10-18 13:55:21.722821
2180  2023-10-18 13:55:21.754718
2181  2023-10-18 13:55:21.786601
2182  2023-10-18 13:55:21.818516
2183  2023-10-18 13:55:21.850465
2184  2023-10-18 13:55:21.882373
2185  2023-10-18 13:55:21.914290
2186  2023-10-18 13:55:21.946175
2187  2023-10-18 13:55:21.978139
2188  2023-10-18 13:55:22.025994
2189  2023-10-18 13:55:22.058910
2190  2023-10-18 13:55:22.090832
2191  2023-10-18 13:55:22.122739
2192  2023-10-18 13:55:22.154618
2193  2023-10-18 13:55:22.186533
2194  2023-10-18 13:55:22.218478
2195  2023-10-18 13:55:22.250387
2196  2023-10-18 13:55:22.282308
2197  2023-10-18 13:55:22.314235
2198  2023-10-18 13:55:22.347154
2199  2023-10-18 13:55:22.378051
2200  2023-10-18 13:55:22.426934
2201  2023-10-18 13:55:22.458804
2202  2023-10-18 13:55:22.490719
2203  2023-10-18 13:55:22.522695
2204  2023-10-18 13:55:22.554581
2205  2023-10-18 13:55:22.586463
2206  2023-10-18 13:55:22.618411
2207  2023-10-18 13:55:22.650316
2208  2023-10-18 13:55:22.682207
2209  2023-10-18 13:55:22.714146
2210  2023-10-18 13:55:22.747099
2211  2023-10-18 13:55:22.777999
2212  2023-10-18 13:55:22.826820
2213  2023-10-18 13:55:22.858736
2214  2023-10-18 13:55:22.890650
2215  2023-10-18 13:55:22.923633
2216  2023-10-18 13:55:22.954488
2217  2023-10-18 13:55:22.986429
2218  2023-10-18 13:55:23.018309
2219  2023-10-18 13:55:23.051255
2220  2023-10-18 13:55:23.082168
2221  2023-10-18 13:55:23.115084
2222  2023-10-18 13:55:23.147027
2223  2023-10-18 13:55:23.178954
2224  2023-10-18 13:55:23.226786
2225  2023-10-18 13:55:23.258666
2226  2023-10-18 13:55:23.290581
2227  2023-10-18 13:55:23.322535
2228  2023-10-18 13:55:23.354450
2229  2023-10-18 13:55:23.386475
2230  2023-10-18 13:55:23.418353
2231  2023-10-18 13:55:23.450300
2232  2023-10-18 13:55:23.482215
2233  2023-10-18 13:55:23.515097
2234  2023-10-18 13:55:23.547064
2235  2023-10-18 13:55:23.578955
2236  2023-10-18 13:55:23.626796
2237  2023-10-18 13:55:23.658710
2238  2023-10-18 13:55:23.690625
2239  2023-10-18 13:55:23.722540
2240  2023-10-18 13:55:23.754489
2241  2023-10-18 13:55:23.786369
2242  2023-10-18 13:55:23.818283
2243  2023-10-18 13:55:23.850269
2244  2023-10-18 13:55:23.882145
2245  2023-10-18 13:55:23.914061
2246  2023-10-18 13:55:23.945968
2247  2023-10-18 13:55:23.978886
2248  2023-10-18 13:55:24.026726
2249  2023-10-18 13:55:24.058673
2250  2023-10-18 13:55:24.090584
2251  2023-10-18 13:55:24.122392
2252  2023-10-18 13:55:24.154352
2253  2023-10-18 13:55:24.186247
2254  2023-10-18 13:55:24.218190
2255  2023-10-18 13:55:24.251042
2256  2023-10-18 13:55:24.282957
2257  2023-10-18 13:55:24.314982
2258  2023-10-18 13:55:24.346963
2259  2023-10-18 13:55:24.378836
2260  2023-10-18 13:55:24.426851
2261  2023-10-18 13:55:24.458733
2262  2023-10-18 13:55:24.490648
2263  2023-10-18 13:55:24.522563
2264  2023-10-18 13:55:24.554512
2265  2023-10-18 13:55:24.586392
2266  2023-10-18 13:55:24.619380
2267  2023-10-18 13:55:24.652219
2268  2023-10-18 13:55:24.683159
2269  2023-10-18 13:55:24.714085
2270  2023-10-18 13:55:24.746996
2271  2023-10-18 13:55:24.778929
2272  2023-10-18 13:55:24.826750
2273  2023-10-18 13:55:24.858664
2274  2023-10-18 13:55:24.890579
2275  2023-10-18 13:55:24.923504
2276  2023-10-18 13:55:24.954409
2277  2023-10-18 13:55:24.986327
2278  2023-10-18 13:55:25.018239
2279  2023-10-18 13:55:25.051157
2280  2023-10-18 13:55:25.083097
2281  2023-10-18 13:55:25.115010
2282  2023-10-18 13:55:25.146936
2283  2023-10-18 13:55:25.178899
2284  2023-10-18 13:55:25.226765
2285  2023-10-18 13:55:25.258647
2286  2023-10-18 13:55:25.290657
2287  2023-10-18 13:55:25.322538
2288  2023-10-18 13:55:25.354485
2289  2023-10-18 13:55:25.386423
2290  2023-10-18 13:55:25.418315
2291  2023-10-18 13:55:25.450224
2292  2023-10-18 13:55:25.482157
2293  2023-10-18 13:55:25.515028
2294  2023-10-18 13:55:25.546974
2295  2023-10-18 13:55:25.578885
2296  2023-10-18 13:55:25.626765
2297  2023-10-18 13:55:25.658641
2298  2023-10-18 13:55:25.690556
2299  2023-10-18 13:55:25.722471
2300  2023-10-18 13:55:25.754386
2301  2023-10-18 13:55:25.786299
2302  2023-10-18 13:55:25.818246
2303  2023-10-18 13:55:25.850175
2304  2023-10-18 13:55:25.882044
2305  2023-10-18 13:55:25.914955
2306  2023-10-18 13:55:25.946869
2307  2023-10-18 13:55:25.994791
2308  2023-10-18 13:55:26.026692
2309  2023-10-18 13:55:26.058571
2310  2023-10-18 13:55:26.090521
2311  2023-10-18 13:55:26.122461
2312  2023-10-18 13:55:26.154385
2313  2023-10-18 13:55:26.186342
2314  2023-10-18 13:55:26.218210
2315  2023-10-18 13:55:26.250222
2316  2023-10-18 13:55:26.282170
2317  2023-10-18 13:55:26.314055
2318  2023-10-18 13:55:26.347012
2319  2023-10-18 13:55:26.394936
2320  2023-10-18 13:55:26.426883
2321  2023-10-18 13:55:26.458762
2322  2023-10-18 13:55:26.490708
2323  2023-10-18 13:55:26.522592
2324  2023-10-18 13:55:26.554540
2325  2023-10-18 13:55:26.586423
2326  2023-10-18 13:55:26.618374
2327  2023-10-18 13:55:26.650282
2328  2023-10-18 13:55:26.682211
2329  2023-10-18 13:55:26.714082
2330  2023-10-18 13:55:26.747039
2331  2023-10-18 13:55:26.793960
2332  2023-10-18 13:55:26.826872
2333  2023-10-18 13:55:26.858786
2334  2023-10-18 13:55:26.890727
2335  2023-10-18 13:55:26.922649
2336  2023-10-18 13:55:26.954530
2337  2023-10-18 13:55:26.986476
2338  2023-10-18 13:55:27.018413
2339  2023-10-18 13:55:27.050300
2340  2023-10-18 13:55:27.082250
2341  2023-10-18 13:55:27.114134
2342  2023-10-18 13:55:27.146050
2343  2023-10-18 13:55:27.194892
2344  2023-10-18 13:55:27.226803
2345  2023-10-18 13:55:27.258718
2346  2023-10-18 13:55:27.290663
2347  2023-10-18 13:55:27.322544
2348  2023-10-18 13:55:27.354461
2349  2023-10-18 13:55:27.386376
2350  2023-10-18 13:55:27.418291
2351  2023-10-18 13:55:27.450266
2352  2023-10-18 13:55:27.482163
2353  2023-10-18 13:55:27.514034
2354  2023-10-18 13:55:27.546947
2355  2023-10-18 13:55:27.594870
2356  2023-10-18 13:55:27.626767
2357  2023-10-18 13:55:27.658648
2358  2023-10-18 13:55:27.690596
2359  2023-10-18 13:55:27.722522
2360  2023-10-18 13:55:27.754393
2361  2023-10-18 13:55:27.786352
2362  2023-10-18 13:55:27.818221
2363  2023-10-18 13:55:27.850166
2364  2023-10-18 13:55:27.882087
2365  2023-10-18 13:55:27.914005
2366  2023-10-18 13:55:27.946878
2367  2023-10-18 13:55:27.994912
2368  2023-10-18 13:55:28.026697
2369  2023-10-18 13:55:28.058612
2370  2023-10-18 13:55:28.091505
2371  2023-10-18 13:55:28.122406
2372  2023-10-18 13:55:28.154359
2373  2023-10-18 13:55:28.186237
2374  2023-10-18 13:55:28.219182
2375  2023-10-18 13:55:28.251062
2376  2023-10-18 13:55:28.282977
2377  2023-10-18 13:55:28.314927
2378  2023-10-18 13:55:28.346841
2379  2023-10-18 13:55:28.394710
2380  2023-10-18 13:55:28.426593
2381  2023-10-18 13:55:28.458510
2382  2023-10-18 13:55:28.490423
2383  2023-10-18 13:55:28.522337
2384  2023-10-18 13:55:28.555219
2385  2023-10-18 13:55:28.587105
2386  2023-10-18 13:55:28.619019
2387  2023-10-18 13:55:28.650937
2388  2023-10-18 13:55:28.682303
2389  2023-10-18 13:55:28.714218
2390  2023-10-18 13:55:28.746211
2391  2023-10-18 13:55:28.794052
2392  2023-10-18 13:55:28.826964
2393  2023-10-18 13:55:28.858939
2394  2023-10-18 13:55:28.890793
2395  2023-10-18 13:55:28.923705
2396  2023-10-18 13:55:28.955647
2397  2023-10-18 13:55:28.986570
2398  2023-10-18 13:55:29.018485
2399  2023-10-18 13:55:29.050417
2400  2023-10-18 13:55:29.082310
2401  2023-10-18 13:55:29.114199
2402  2023-10-18 13:55:29.146112
2403  2023-10-18 13:55:29.193984
2404  2023-10-18 13:55:29.226897
2405  2023-10-18 13:55:29.258858
2406  2023-10-18 13:55:29.290724
2407  2023-10-18 13:55:29.322672
2408  2023-10-18 13:55:29.354596
2409  2023-10-18 13:55:29.386494
2410  2023-10-18 13:55:29.418384
2411  2023-10-18 13:55:29.450323
2412  2023-10-18 13:55:29.482243
2413  2023-10-18 13:55:29.514234
2414  2023-10-18 13:55:29.562207
2415  2023-10-18 13:55:29.594098
2416  2023-10-18 13:55:29.625982
2417  2023-10-18 13:55:29.658893
2418  2023-10-18 13:55:29.690860
2419  2023-10-18 13:55:29.722722
2420  2023-10-18 13:55:29.754637
2421  2023-10-18 13:55:29.786583
2422  2023-10-18 13:55:29.818467
2423  2023-10-18 13:55:29.851379
2424  2023-10-18 13:55:29.883294
2425  2023-10-18 13:55:29.914211
2426  2023-10-18 13:55:29.962154
2427  2023-10-18 13:55:29.994125
2428  2023-10-18 13:55:30.026073
2429  2023-10-18 13:55:30.058986
2430  2023-10-18 13:55:30.090901
2431  2023-10-18 13:55:30.122815
2432  2023-10-18 13:55:30.154729
2433  2023-10-18 13:55:30.186644
2434  2023-10-18 13:55:30.218561
2435  2023-10-18 13:55:30.250474
2436  2023-10-18 13:55:30.282388
2437  2023-10-18 13:55:30.314302
2438  2023-10-18 13:55:30.362178
2439  2023-10-18 13:55:30.394132
2440  2023-10-18 13:55:30.427002
2441  2023-10-18 13:55:30.458984
2442  2023-10-18 13:55:30.490899
2443  2023-10-18 13:55:30.522813
2444  2023-10-18 13:55:30.554728
2445  2023-10-18 13:55:30.586644
2446  2023-10-18 13:55:30.618590
2447  2023-10-18 13:55:30.650503
2448  2023-10-18 13:55:30.682427
2449  2023-10-18 13:55:30.714352
2450  2023-10-18 13:55:30.762198
2451  2023-10-18 13:55:30.795090
2452  2023-10-18 13:55:30.827047
2453  2023-10-18 13:55:30.858961
2454  2023-10-18 13:55:30.890897
2455  2023-10-18 13:55:30.922792
2456  2023-10-18 13:55:30.954706
2457  2023-10-18 13:55:30.986621
2458  2023-10-18 13:55:31.018638
2459  2023-10-18 13:55:31.050512
2460  2023-10-18 13:55:31.082426
2461  2023-10-18 13:55:31.114340
2462  2023-10-18 13:55:31.164242
2463  2023-10-18 13:55:31.194127
2464  2023-10-18 13:55:31.227042
2465  2023-10-18 13:55:31.258987
2466  2023-10-18 13:55:31.292264
2467  2023-10-18 13:55:31.322252
2468  2023-10-18 13:55:31.355161
2469  2023-10-18 13:55:31.387140
2470  2023-10-18 13:55:31.419055
2471  2023-10-18 13:55:31.451933
2472  2023-10-18 13:55:31.482859
2473  2023-10-18 13:55:31.514777
2474  2023-10-18 13:55:31.563638
2475  2023-10-18 13:55:31.595519
2476  2023-10-18 13:55:31.626490
2477  2023-10-18 13:55:31.659478
2478  2023-10-18 13:55:31.690363
2479  2023-10-18 13:55:31.723276
2480  2023-10-18 13:55:31.755190
2481  2023-10-18 13:55:31.786141
2482  2023-10-18 13:55:31.820049
2483  2023-10-18 13:55:31.850993
2484  2023-10-18 13:55:31.883888
2485  2023-10-18 13:55:31.915792
2486  2023-10-18 13:55:31.963634
2487  2023-10-18 13:55:31.995580
2488  2023-10-18 13:55:32.026466
2489  2023-10-18 13:55:32.058403
2490  2023-10-18 13:55:32.091291
2491  2023-10-18 13:55:32.123207
2492  2023-10-18 13:55:32.155169
2493  2023-10-18 13:55:32.187041
2494  2023-10-18 13:55:32.218952
2495  2023-10-18 13:55:32.250899
2496  2023-10-18 13:55:32.283801
2497  2023-10-18 13:55:32.315715
2498  2023-10-18 13:55:32.363614
2499  2023-10-18 13:55:32.395525
2500  2023-10-18 13:55:32.426443
2501  2023-10-18 13:55:32.459354
2502  2023-10-18 13:55:32.491223
2503  2023-10-18 13:55:32.523179
2504  2023-10-18 13:55:32.555108
2505  2023-10-18 13:55:32.587036
2506  2023-10-18 13:55:32.618938
2507  2023-10-18 13:55:32.650853
2508  2023-10-18 13:55:32.683764
2509  2023-10-18 13:55:32.715743
2510  2023-10-18 13:55:32.763625
2511  2023-10-18 13:55:32.795580
2512  2023-10-18 13:55:32.827496
2513  2023-10-18 13:55:32.859409
2514  2023-10-18 13:55:32.891324
2515  2023-10-18 13:55:32.923240
2516  2023-10-18 13:55:32.955164
2517  2023-10-18 13:55:32.988041
2518  2023-10-18 13:55:33.018961
2519  2023-10-18 13:55:33.050908
2520  2023-10-18 13:55:33.082822
2521  2023-10-18 13:55:33.131739
2522  2023-10-18 13:55:33.163619
2523  2023-10-18 13:55:33.195520
2524  2023-10-18 13:55:33.227428
2525  2023-10-18 13:55:33.259347
2526  2023-10-18 13:55:33.290235
2527  2023-10-18 13:55:33.323195
2528  2023-10-18 13:55:33.355108
2529  2023-10-18 13:55:33.388002
2530  2023-10-18 13:55:33.418913
2531  2023-10-18 13:55:33.450828
2532  2023-10-18 13:55:33.483784
2533  2023-10-18 13:55:33.531629
2534  2023-10-18 13:55:33.562653
2535  2023-10-18 13:55:33.594566
2536  2023-10-18 13:55:33.626448
2537  2023-10-18 13:55:33.658414
2538  2023-10-18 13:55:33.691307
2539  2023-10-18 13:55:33.723190
2540  2023-10-18 13:55:33.755107
2541  2023-10-18 13:55:33.788016
2542  2023-10-18 13:55:33.818969
2543  2023-10-18 13:55:33.850880
2544  2023-10-18 13:55:33.882805
2545  2023-10-18 13:55:33.930670
2546  2023-10-18 13:55:33.963581
2547  2023-10-18 13:55:33.995487
2548  2023-10-18 13:55:34.026442
2549  2023-10-18 13:55:34.059291
2550  2023-10-18 13:55:34.091247
2551  2023-10-18 13:55:34.123170
2552  2023-10-18 13:55:34.155079
2553  2023-10-18 13:55:34.187037
2554  2023-10-18 13:55:34.218899
2555  2023-10-18 13:55:34.250814
2556  2023-10-18 13:55:34.282746
2557  2023-10-18 13:55:34.330598
2558  2023-10-18 13:55:34.362519
2559  2023-10-18 13:55:34.394428
2560  2023-10-18 13:55:34.426349
2561  2023-10-18 13:55:34.458264
2562  2023-10-18 13:55:34.490140
2563  2023-10-18 13:55:34.523085
2564  2023-10-18 13:55:34.554999
2565  2023-10-18 13:55:34.586908
2566  2023-10-18 13:55:34.618822
2567  2023-10-18 13:55:34.650737
2568  2023-10-18 13:55:34.683658
2569  2023-10-18 13:55:34.730532
2570  2023-10-18 13:55:34.763441
2571  2023-10-18 13:55:34.794368
2572  2023-10-18 13:55:34.826276
2573  2023-10-18 13:55:34.858201
2574  2023-10-18 13:55:34.891103
2575  2023-10-18 13:55:34.921986
2576  2023-10-18 13:55:34.954930
2577  2023-10-18 13:55:34.986850
2578  2023-10-18 13:55:35.019776
2579  2023-10-18 13:55:35.050668
2580  2023-10-18 13:55:35.082726
2581  2023-10-18 13:55:35.130595
2582  2023-10-18 13:55:35.162516
2583  2023-10-18 13:55:35.194435
2584  2023-10-18 13:55:35.226341
2585  2023-10-18 13:55:35.258223
2586  2023-10-18 13:55:35.290162
2587  2023-10-18 13:55:35.323053
2588  2023-10-18 13:55:35.354965
2589  2023-10-18 13:55:35.386937
2590  2023-10-18 13:55:35.418796
2591  2023-10-18 13:55:35.450739
2592  2023-10-18 13:55:35.482672
2593  2023-10-18 13:55:35.530525
2594  2023-10-18 13:55:35.562435
2595  2023-10-18 13:55:35.594359
2596  2023-10-18 13:55:35.627257
2597  2023-10-18 13:55:35.660149
2598  2023-10-18 13:55:35.691117
2599  2023-10-18 13:55:35.723012
2600  2023-10-18 13:55:35.754896
2601  2023-10-18 13:55:35.786810
2602  2023-10-18 13:55:35.818795
2603  2023-10-18 13:55:35.850672
2604  2023-10-18 13:55:35.882555
2605  2023-10-18 13:55:35.930466
2606  2023-10-18 13:55:35.963340
2607  2023-10-18 13:55:35.994306
2608  2023-10-18 13:55:36.026202
2609  2023-10-18 13:55:36.059135
2610  2023-10-18 13:55:36.090997
2611  2023-10-18 13:55:36.122912
2612  2023-10-18 13:55:36.154831
2613  2023-10-18 13:55:36.186741
2614  2023-10-18 13:55:36.218656
2615  2023-10-18 13:55:36.250572
2616  2023-10-18 13:55:36.282486
2617  2023-10-18 13:55:36.330403
2618  2023-10-18 13:55:36.362311
2619  2023-10-18 13:55:36.394221
2620  2023-10-18 13:55:36.426136
2621  2023-10-18 13:55:36.458042
2622  2023-10-18 13:55:36.491091
2623  2023-10-18 13:55:36.523032
2624  2023-10-18 13:55:36.554886
2625  2023-10-18 13:55:36.586871
2626  2023-10-18 13:55:36.618786
2627  2023-10-18 13:55:36.650733
2628  2023-10-18 13:55:36.682652
2629  2023-10-18 13:55:36.730521
2630  2023-10-18 13:55:36.762433
2631  2023-10-18 13:55:36.794317
2632  2023-10-18 13:55:36.826230
2633  2023-10-18 13:55:36.858177
2634  2023-10-18 13:55:36.891059
2635  2023-10-18 13:55:36.922001
2636  2023-10-18 13:55:36.954925
2637  2023-10-18 13:55:36.986801
2638  2023-10-18 13:55:37.018717
2639  2023-10-18 13:55:37.050799
2640  2023-10-18 13:55:37.098702
2641  2023-10-18 13:55:37.130583
2642  2023-10-18 13:55:37.162498
2643  2023-10-18 13:55:37.195412
2644  2023-10-18 13:55:37.227369
2645  2023-10-18 13:55:37.259246
2646  2023-10-18 13:55:37.291204
2647  2023-10-18 13:55:37.323101
2648  2023-10-18 13:55:37.354000
2649  2023-10-18 13:55:37.386941
2650  2023-10-18 13:55:37.418815
2651  2023-10-18 13:55:37.450764
2652  2023-10-18 13:55:37.498601
2653  2023-10-18 13:55:37.530516
2654  2023-10-18 13:55:37.562463
2655  2023-10-18 13:55:37.594392
2656  2023-10-18 13:55:37.626260
2657  2023-10-18 13:55:37.658204
2658  2023-10-18 13:55:37.690118
2659  2023-10-18 13:55:37.723001
2660  2023-10-18 13:55:37.754915
2661  2023-10-18 13:55:37.786830
2662  2023-10-18 13:55:37.818776
2663  2023-10-18 13:55:37.850662
2664  2023-10-18 13:55:37.898567
2665  2023-10-18 13:55:37.930485
2666  2023-10-18 13:55:37.962408
2667  2023-10-18 13:55:37.994309
2668  2023-10-18 13:55:38.026191
2669  2023-10-18 13:55:38.058140
2670  2023-10-18 13:55:38.090021
2671  2023-10-18 13:55:38.122963
2672  2023-10-18 13:55:38.154846
2673  2023-10-18 13:55:38.186793
2674  2023-10-18 13:55:38.218726
2675  2023-10-18 13:55:38.250591
2676  2023-10-18 13:55:38.298463
2677  2023-10-18 13:55:38.330377
2678  2023-10-18 13:55:38.362327
2679  2023-10-18 13:55:38.394237
2680  2023-10-18 13:55:38.426151
2681  2023-10-18 13:55:38.459033
2682  2023-10-18 13:55:38.489996
2683  2023-10-18 13:55:38.522863
2684  2023-10-18 13:55:38.554778
2685  2023-10-18 13:55:38.586692
2686  2023-10-18 13:55:38.618606
2687  2023-10-18 13:55:38.650521
2688  2023-10-18 13:55:38.698394
2689  2023-10-18 13:55:38.730341
2690  2023-10-18 13:55:38.763252
2691  2023-10-18 13:55:38.795166
2692  2023-10-18 13:55:38.826051
2693  2023-10-18 13:55:38.857996
2694  2023-10-18 13:55:38.890910
2695  2023-10-18 13:55:38.922834
2696  2023-10-18 13:55:38.954708
2697  2023-10-18 13:55:38.986655
2698  2023-10-18 13:55:39.018538
2699  2023-10-18 13:55:39.050461
2700  2023-10-18 13:55:39.098338
2701  2023-10-18 13:55:39.131237
2702  2023-10-18 13:55:39.162154
2703  2023-10-18 13:55:39.194099
2704  2023-10-18 13:55:39.225984
2705  2023-10-18 13:55:39.258899
2706  2023-10-18 13:55:39.290810
2707  2023-10-18 13:55:39.322748
2708  2023-10-18 13:55:39.354639
2709  2023-10-18 13:55:39.386585
2710  2023-10-18 13:55:39.418469
2711  2023-10-18 13:55:39.450425
2712  2023-10-18 13:55:39.498286
2713  2023-10-18 13:55:39.530214
2714  2023-10-18 13:55:39.562085
2715  2023-10-18 13:55:39.594029
2716  2023-10-18 13:55:39.626911
2717  2023-10-18 13:55:39.658863
2718  2023-10-18 13:55:39.690770
2719  2023-10-18 13:55:39.722718
2720  2023-10-18 13:55:39.754664
2721  2023-10-18 13:55:39.786547
2722  2023-10-18 13:55:39.818462
2723  2023-10-18 13:55:39.850376
2724  2023-10-18 13:55:39.898249
2725  2023-10-18 13:55:39.930218
2726  2023-10-18 13:55:39.962115
2727  2023-10-18 13:55:39.995000
2728  2023-10-18 13:55:40.026905
2729  2023-10-18 13:55:40.058854
2730  2023-10-18 13:55:40.090779
2731  2023-10-18 13:55:40.122691
2732  2023-10-18 13:55:40.154596
2733  2023-10-18 13:55:40.186484
2734  2023-10-18 13:55:40.218435
2735  2023-10-18 13:55:40.250341
2736  2023-10-18 13:55:40.299177
2737  2023-10-18 13:55:40.330152
2738  2023-10-18 13:55:40.362103
2739  2023-10-18 13:55:40.395019
2740  2023-10-18 13:55:40.426899
2741  2023-10-18 13:55:40.458851
2742  2023-10-18 13:55:40.490824
2743  2023-10-18 13:55:40.522703
2744  2023-10-18 13:55:40.554620
2745  2023-10-18 13:55:40.586534
2746  2023-10-18 13:55:40.618446
2747  2023-10-18 13:55:40.666359
2748  2023-10-18 13:55:40.698233
2749  2023-10-18 13:55:40.730202
2750  2023-10-18 13:55:40.763095
2751  2023-10-18 13:55:40.795003
2752  2023-10-18 13:55:40.826889
2753  2023-10-18 13:55:40.858804
2754  2023-10-18 13:55:40.890753
2755  2023-10-18 13:55:40.922665
2756  2023-10-18 13:55:40.954548
2757  2023-10-18 13:55:40.986494
2758  2023-10-18 13:55:41.018407
2759  2023-10-18 13:55:41.066250
2760  2023-10-18 13:55:41.098190
2761  2023-10-18 13:55:41.131076
2762  2023-10-18 13:55:41.163045
2763  2023-10-18 13:55:41.194906
2764  2023-10-18 13:55:41.226847
2765  2023-10-18 13:55:41.258737
2766  2023-10-18 13:55:41.290650
2767  2023-10-18 13:55:41.322610
2768  2023-10-18 13:55:41.354479
2769  2023-10-18 13:55:41.386395
2770  2023-10-18 13:55:41.418308
2771  2023-10-18 13:55:41.466214
2772  2023-10-18 13:55:41.498095
2773  2023-10-18 13:55:41.530072
2774  2023-10-18 13:55:41.562922
2775  2023-10-18 13:55:41.594869
2776  2023-10-18 13:55:41.626785
2777  2023-10-18 13:55:41.658666
2778  2023-10-18 13:55:41.690634
2779  2023-10-18 13:55:41.722521
2780  2023-10-18 13:55:41.754444
2781  2023-10-18 13:55:41.786364
2782  2023-10-18 13:55:41.818277
2783  2023-10-18 13:55:41.866111
2784  2023-10-18 13:55:41.898056
2785  2023-10-18 13:55:41.930938
2786  2023-10-18 13:55:41.962905
2787  2023-10-18 13:55:41.994805
2788  2023-10-18 13:55:42.026845
2789  2023-10-18 13:55:42.058793
2790  2023-10-18 13:55:42.090699
2791  2023-10-18 13:55:42.122624
2792  2023-10-18 13:55:42.154503
2793  2023-10-18 13:55:42.186449
2794  2023-10-18 13:55:42.218332
2795  2023-10-18 13:55:42.266230
2796  2023-10-18 13:55:42.299143
2797  2023-10-18 13:55:42.331078
2798  2023-10-18 13:55:42.362991
2799  2023-10-18 13:55:42.394906
2800  2023-10-18 13:55:42.426898
2801  2023-10-18 13:55:42.458816
2802  2023-10-18 13:55:42.490737
2803  2023-10-18 13:55:42.522651
2804  2023-10-18 13:55:42.554561
2805  2023-10-18 13:55:42.586483
2806  2023-10-18 13:55:42.618360
2807  2023-10-18 13:55:42.666232
2808  2023-10-18 13:55:42.698181
2809  2023-10-18 13:55:42.730136
2810  2023-10-18 13:55:42.763049
2811  2023-10-18 13:55:42.794967
2812  2023-10-18 13:55:42.826877
2813  2023-10-18 13:55:42.858790
2814  2023-10-18 13:55:42.890705
2815  2023-10-18 13:55:42.922620
2816  2023-10-18 13:55:42.954534
2817  2023-10-18 13:55:42.986449
2818  2023-10-18 13:55:43.018364
2819  2023-10-18 13:55:43.066241
2820  2023-10-18 13:55:43.098151
2821  2023-10-18 13:55:43.131064
2822  2023-10-18 13:55:43.161979
2823  2023-10-18 13:55:43.194893
2824  2023-10-18 13:55:43.226807
2825  2023-10-18 13:55:43.258750
2826  2023-10-18 13:55:43.290636
2827  2023-10-18 13:55:43.322551
2828  2023-10-18 13:55:43.354465
2829  2023-10-18 13:55:43.386381
2830  2023-10-18 13:55:43.418297
2831  2023-10-18 13:55:43.466357
2832  2023-10-18 13:55:43.498361
2833  2023-10-18 13:55:43.530326
2834  2023-10-18 13:55:43.562911
2835  2023-10-18 13:55:43.594814
2836  2023-10-18 13:55:43.626763
2837  2023-10-18 13:55:43.658712
2838  2023-10-18 13:55:43.690628
2839  2023-10-18 13:55:43.722583
2840  2023-10-18 13:55:43.754489
2841  2023-10-18 13:55:43.786370
2842  2023-10-18 13:55:43.818287
2843  2023-10-18 13:55:43.866159
2844  2023-10-18 13:55:43.898074
2845  2023-10-18 13:55:43.930023
2846  2023-10-18 13:55:43.962900
2847  2023-10-18 13:55:43.994847
2848  2023-10-18 13:55:44.026763
2849  2023-10-18 13:55:44.058675
2850  2023-10-18 13:55:44.090557
2851  2023-10-18 13:55:44.122475
2852  2023-10-18 13:55:44.154386
2853  2023-10-18 13:55:44.186367
2854  2023-10-18 13:55:44.218216
2855  2023-10-18 13:55:44.267087
2856  2023-10-18 13:55:44.298003
2857  2023-10-18 13:55:44.330915
2858  2023-10-18 13:55:44.362831
2859  2023-10-18 13:55:44.394746
2860  2023-10-18 13:55:44.426659
2861  2023-10-18 13:55:44.458573
2862  2023-10-18 13:55:44.490488
2863  2023-10-18 13:55:44.522446
2864  2023-10-18 13:55:44.554318
2865  2023-10-18 13:55:44.587262
2866  2023-10-18 13:55:44.635105
2867  2023-10-18 13:55:44.667019
2868  2023-10-18 13:55:44.698931
2869  2023-10-18 13:55:44.730848
2870  2023-10-18 13:55:44.762761
2871  2023-10-18 13:55:44.794680
2872  2023-10-18 13:55:44.826592
2873  2023-10-18 13:55:44.858507
2874  2023-10-18 13:55:44.890419
2875  2023-10-18 13:55:44.922334
2876  2023-10-18 13:55:44.954250
2877  2023-10-18 13:55:44.987162
2878  2023-10-18 13:55:45.035032
2879  2023-10-18 13:55:45.065988
2880  2023-10-18 13:55:45.098920
2881  2023-10-18 13:55:45.130779
2882  2023-10-18 13:55:45.162725
2883  2023-10-18 13:55:45.194608
2884  2023-10-18 13:55:45.226522
2885  2023-10-18 13:55:45.258474
2886  2023-10-18 13:55:45.290352
2887  2023-10-18 13:55:45.322296
2888  2023-10-18 13:55:45.354207
2889  2023-10-18 13:55:45.386130
2890  2023-10-18 13:55:45.434019
2891  2023-10-18 13:55:45.466925
2892  2023-10-18 13:55:45.498826
2893  2023-10-18 13:55:45.530726
2894  2023-10-18 13:55:45.562647
2895  2023-10-18 13:55:45.594539
2896  2023-10-18 13:55:45.626453
2897  2023-10-18 13:55:45.658366
2898  2023-10-18 13:55:45.690334
2899  2023-10-18 13:55:45.722195
2900  2023-10-18 13:55:45.754157
2901  2023-10-18 13:55:45.786025
2902  2023-10-18 13:55:45.834958
2903  2023-10-18 13:55:45.866846
2904  2023-10-18 13:55:45.898757
2905  2023-10-18 13:55:45.930666
2906  2023-10-18 13:55:45.962555
2907  2023-10-18 13:55:45.994506
2908  2023-10-18 13:55:46.026419
2909  2023-10-18 13:55:46.058332
2910  2023-10-18 13:55:46.090243
2911  2023-10-18 13:55:46.122128
2912  2023-10-18 13:55:46.155073
2913  2023-10-18 13:55:46.186955
2914  2023-10-18 13:55:46.234856
2915  2023-10-18 13:55:46.266741
2916  2023-10-18 13:55:46.298654
2917  2023-10-18 13:55:46.330569
2918  2023-10-18 13:55:46.362518
2919  2023-10-18 13:55:46.394433
2920  2023-10-18 13:55:46.426348
2921  2023-10-18 13:55:46.458349
2922  2023-10-18 13:55:46.490277
2923  2023-10-18 13:55:46.522231
2924  2023-10-18 13:55:46.555176
2925  2023-10-18 13:55:46.587025
2926  2023-10-18 13:55:46.634998
2927  2023-10-18 13:55:46.666921
2928  2023-10-18 13:55:46.698789
2929  2023-10-18 13:55:46.730743
2930  2023-10-18 13:55:46.762658
2931  2023-10-18 13:55:46.794535
2932  2023-10-18 13:55:46.826478
2933  2023-10-18 13:55:46.858398
2934  2023-10-18 13:55:46.890348
2935  2023-10-18 13:55:46.922222
2936  2023-10-18 13:55:46.954131
2937  2023-10-18 13:55:46.987049
2938  2023-10-18 13:55:47.034928
2939  2023-10-18 13:55:47.066835
2940  2023-10-18 13:55:47.098768
2941  2023-10-18 13:55:47.130661
2942  2023-10-18 13:55:47.162581
2943  2023-10-18 13:55:47.194464
2944  2023-10-18 13:55:47.226410
2945  2023-10-18 13:55:47.258293
2946  2023-10-18 13:55:47.290237
2947  2023-10-18 13:55:47.322123
2948  2023-10-18 13:55:47.355059
2949  2023-10-18 13:55:47.386984
2950  2023-10-18 13:55:47.434822
2951  2023-10-18 13:55:47.466769
2952  2023-10-18 13:55:47.498683
2953  2023-10-18 13:55:47.530603
2954  2023-10-18 13:55:47.562511
2955  2023-10-18 13:55:47.594438
2956  2023-10-18 13:55:47.626358
2957  2023-10-18 13:55:47.658224
2958  2023-10-18 13:55:47.690137
2959  2023-10-18 13:55:47.723051
2960  2023-10-18 13:55:47.754964
2961  2023-10-18 13:55:47.786923
2962  2023-10-18 13:55:47.834788
2963  2023-10-18 13:55:47.866667
2964  2023-10-18 13:55:47.898614
2965  2023-10-18 13:55:47.930495
2966  2023-10-18 13:55:47.962446
2967  2023-10-18 13:55:47.994364
2968  2023-10-18 13:55:48.026285
2969  2023-10-18 13:55:48.058154
2970  2023-10-18 13:55:48.090108
2971  2023-10-18 13:55:48.122017
2972  2023-10-18 13:55:48.154932
2973  2023-10-18 13:55:48.202795
2974  2023-10-18 13:55:48.234731
2975  2023-10-18 13:55:48.266622
2976  2023-10-18 13:55:48.298545
2977  2023-10-18 13:55:48.330460
2978  2023-10-18 13:55:48.362494
2979  2023-10-18 13:55:48.394409
2980  2023-10-18 13:55:48.426339
2981  2023-10-18 13:55:48.458230
2982  2023-10-18 13:55:48.492152
2983  2023-10-18 13:55:48.522034
2984  2023-10-18 13:55:48.554965
2985  2023-10-18 13:55:48.602868
2986  2023-10-18 13:55:48.634765
2987  2023-10-18 13:55:48.666679
2988  2023-10-18 13:55:48.698593
2989  2023-10-18 13:55:48.730518
2990  2023-10-18 13:55:48.762424
2991  2023-10-18 13:55:48.794306
2992  2023-10-18 13:55:48.826223
2993  2023-10-18 13:55:48.859135
2994  2023-10-18 13:55:48.890089
2995  2023-10-18 13:55:48.922963
2996  2023-10-18 13:55:48.954878
2997  2023-10-18 13:55:49.002749
2998  2023-10-18 13:55:49.034696
2999  2023-10-18 13:55:49.066615
3000  2023-10-18 13:55:49.098536
3001  2023-10-18 13:55:49.130407
3002  2023-10-18 13:55:49.162327
3003  2023-10-18 13:55:49.194281
3004  2023-10-18 13:55:49.226179
3005  2023-10-18 13:55:49.259101
3006  2023-10-18 13:55:49.291029
3007  2023-10-18 13:55:49.322929
3008  2023-10-18 13:55:49.354842
3009  2023-10-18 13:55:49.402724
3010  2023-10-18 13:55:49.434627
3011  2023-10-18 13:55:49.466511
3012  2023-10-18 13:55:49.498456
3013  2023-10-18 13:55:49.530369
3014  2023-10-18 13:55:49.562253
3015  2023-10-18 13:55:49.594171
3016  2023-10-18 13:55:49.627114
3017  2023-10-18 13:55:49.659040
3018  2023-10-18 13:55:49.690911
3019  2023-10-18 13:55:49.722826
3020  2023-10-18 13:55:49.754740
3021  2023-10-18 13:55:49.802647
3022  2023-10-18 13:55:49.834527
3023  2023-10-18 13:55:49.866472
3024  2023-10-18 13:55:49.898405
3025  2023-10-18 13:55:49.930317
3026  2023-10-18 13:55:49.962185
3027  2023-10-18 13:55:49.994098
3028  2023-10-18 13:55:50.026052
3029  2023-10-18 13:55:50.058956
3030  2023-10-18 13:55:50.090879
3031  2023-10-18 13:55:50.123787
3032  2023-10-18 13:55:50.154671
3033  2023-10-18 13:55:50.202581
3034  2023-10-18 13:55:50.234490
3035  2023-10-18 13:55:50.266372
3036  2023-10-18 13:55:50.298337
3037  2023-10-18 13:55:50.330201
3038  2023-10-18 13:55:50.364111
3039  2023-10-18 13:55:50.395059
3040  2023-10-18 13:55:50.426996
3041  2023-10-18 13:55:50.459858
3042  2023-10-18 13:55:50.491825
3043  2023-10-18 13:55:50.524682
3044  2023-10-18 13:55:50.554635
3045  2023-10-18 13:55:50.602503
3046  2023-10-18 13:55:50.635386
3047  2023-10-18 13:55:50.666343
3048  2023-10-18 13:55:50.700251
3049  2023-10-18 13:55:50.731169
3050  2023-10-18 13:55:50.764081
3051  2023-10-18 13:55:50.795017
3052  2023-10-18 13:55:50.827016
3053  2023-10-18 13:55:50.858927
3054  2023-10-18 13:55:50.891841
3055  2023-10-18 13:55:50.923724
3056  2023-10-18 13:55:50.954708
3057  2023-10-18 13:55:51.002594
3058  2023-10-18 13:55:51.034556
3059  2023-10-18 13:55:51.066425
3060  2023-10-18 13:55:51.100364
3061  2023-10-18 13:55:51.130252
3062  2023-10-18 13:55:51.162167
3063  2023-10-18 13:55:51.195079
3064  2023-10-18 13:55:51.227028
3065  2023-10-18 13:55:51.258912
3066  2023-10-18 13:55:51.290959
3067  2023-10-18 13:55:51.322860
3068  2023-10-18 13:55:51.354740
3069  2023-10-18 13:55:51.402612
3070  2023-10-18 13:55:51.435525
3071  2023-10-18 13:55:51.468436
3072  2023-10-18 13:55:51.498357
3073  2023-10-18 13:55:51.531311
3074  2023-10-18 13:55:51.562218
3075  2023-10-18 13:55:51.594139
3076  2023-10-18 13:55:51.627012
3077  2023-10-18 13:55:51.658959
3078  2023-10-18 13:55:51.691877
3079  2023-10-18 13:55:51.722799
3080  2023-10-18 13:55:51.770662
3081  2023-10-18 13:55:51.802581
3082  2023-10-18 13:55:51.834535
3083  2023-10-18 13:55:51.866411
3084  2023-10-18 13:55:51.898336
3085  2023-10-18 13:55:51.931230
3086  2023-10-18 13:55:51.963141
3087  2023-10-18 13:55:51.994065
3088  2023-10-18 13:55:52.026946
3089  2023-10-18 13:55:52.058925
3090  2023-10-18 13:55:52.091815
3091  2023-10-18 13:55:52.123733
3092  2023-10-18 13:55:52.172597
3093  2023-10-18 13:55:52.202476
3094  2023-10-18 13:55:52.234389
3095  2023-10-18 13:55:52.266303
3096  2023-10-18 13:55:52.299216
3097  2023-10-18 13:55:52.331133
3098  2023-10-18 13:55:52.363082
3099  2023-10-18 13:55:52.394959
3100  2023-10-18 13:55:52.426874
3101  2023-10-18 13:55:52.459786
3102  2023-10-18 13:55:52.491735
3103  2023-10-18 13:55:52.523647
3104  2023-10-18 13:55:52.571519
3105  2023-10-18 13:55:52.602437
3106  2023-10-18 13:55:52.634322
3107  2023-10-18 13:55:52.666268
3108  2023-10-18 13:55:52.700146
3109  2023-10-18 13:55:52.732106
3110  2023-10-18 13:55:52.763031
3111  2023-10-18 13:55:52.794890
3112  2023-10-18 13:55:52.826805
3113  2023-10-18 13:55:52.859743
3114  2023-10-18 13:55:52.890669
3115  2023-10-18 13:55:52.923588
3116  2023-10-18 13:55:52.971419
3117  2023-10-18 13:55:53.004367
3118  2023-10-18 13:55:53.034283
3119  2023-10-18 13:55:53.066208
3120  2023-10-18 13:55:53.100116
3121  2023-10-18 13:55:53.132986
3122  2023-10-18 13:55:53.162908
3123  2023-10-18 13:55:53.194824
3124  2023-10-18 13:55:53.226775
3125  2023-10-18 13:55:53.258650
3126  2023-10-18 13:55:53.290567
3127  2023-10-18 13:55:53.323528
3128  2023-10-18 13:55:53.371388
3129  2023-10-18 13:55:53.403310
3130  2023-10-18 13:55:53.436217
3131  2023-10-18 13:55:53.467093
3132  2023-10-18 13:55:53.499008
3133  2023-10-18 13:55:53.531946
3134  2023-10-18 13:55:53.562875
3135  2023-10-18 13:55:53.594787
3136  2023-10-18 13:55:53.626691
3137  2023-10-18 13:55:53.658617
3138  2023-10-18 13:55:53.691523
3139  2023-10-18 13:55:53.722477
3140  2023-10-18 13:55:53.771462
3141  2023-10-18 13:55:53.803394
3142  2023-10-18 13:55:53.834313
3143  2023-10-18 13:55:53.866267
3144  2023-10-18 13:55:53.898200
3145  2023-10-18 13:55:53.932136
3146  2023-10-18 13:55:53.963049
3147  2023-10-18 13:55:53.994992
3148  2023-10-18 13:55:54.026891
3149  2023-10-18 13:55:54.058818
3150  2023-10-18 13:55:54.091719
3151  2023-10-18 13:55:54.123632
3152  2023-10-18 13:55:54.171541
3153  2023-10-18 13:55:54.202430
3154  2023-10-18 13:55:54.234339
3155  2023-10-18 13:55:54.266253
3156  2023-10-18 13:55:54.299198
3157  2023-10-18 13:55:54.331128
3158  2023-10-18 13:55:54.362992
3159  2023-10-18 13:55:54.394907
3160  2023-10-18 13:55:54.426822
3161  2023-10-18 13:55:54.458838
3162  2023-10-18 13:55:54.491740
3163  2023-10-18 13:55:54.522677
3164  2023-10-18 13:55:54.570537
3165  2023-10-18 13:55:54.602448
3166  2023-10-18 13:55:54.634436
3167  2023-10-18 13:55:54.666317
3168  2023-10-18 13:55:54.698231
3169  2023-10-18 13:55:54.730173
3170  2023-10-18 13:55:54.763060
3171  2023-10-18 13:55:54.794975
3172  2023-10-18 13:55:54.826887
3173  2023-10-18 13:55:54.858802
3174  2023-10-18 13:55:54.890718
3175  2023-10-18 13:55:54.923681
3176  2023-10-18 13:55:54.971535
3177  2023-10-18 13:55:55.002443
3178  2023-10-18 13:55:55.034370
3179  2023-10-18 13:55:55.066273
3180  2023-10-18 13:55:55.098237
3181  2023-10-18 13:55:55.131077
3182  2023-10-18 13:55:55.163026
3183  2023-10-18 13:55:55.194920
3184  2023-10-18 13:55:55.226868
3185  2023-10-18 13:55:55.258747
3186  2023-10-18 13:55:55.291664
3187  2023-10-18 13:55:55.322630
3188  2023-10-18 13:55:55.370514
3189  2023-10-18 13:55:55.402457
3190  2023-10-18 13:55:55.434392
3191  2023-10-18 13:55:55.466281
3192  2023-10-18 13:55:55.498171
3193  2023-10-18 13:55:55.530116
3194  2023-10-18 13:55:55.562036
3195  2023-10-18 13:55:55.594949
3196  2023-10-18 13:55:55.626827
3197  2023-10-18 13:55:55.658741
3198  2023-10-18 13:55:55.690690
3199  2023-10-18 13:55:55.738530
3200  2023-10-18 13:55:55.770474
3201  2023-10-18 13:55:55.802403
3202  2023-10-18 13:55:55.834275
3203  2023-10-18 13:55:55.866241
3204  2023-10-18 13:55:55.898150
3205  2023-10-18 13:55:55.931048
3206  2023-10-18 13:55:55.962928
3207  2023-10-18 13:55:55.994882
3208  2023-10-18 13:55:56.026758
3209  2023-10-18 13:55:56.058672
3210  2023-10-18 13:55:56.090620
3211  2023-10-18 13:55:56.138483
3212  2023-10-18 13:55:56.171376
3213  2023-10-18 13:55:56.202333
3214  2023-10-18 13:55:56.235202
3215  2023-10-18 13:55:56.267117
3216  2023-10-18 13:55:56.299037
3217  2023-10-18 13:55:56.330988
3218  2023-10-18 13:55:56.362899
3219  2023-10-18 13:55:56.394808
3220  2023-10-18 13:55:56.426723
3221  2023-10-18 13:55:56.458634
3222  2023-10-18 13:55:56.490520
3223  2023-10-18 13:55:56.538430
3224  2023-10-18 13:55:56.570348
3225  2023-10-18 13:55:56.602253
3226  2023-10-18 13:55:56.634159
3227  2023-10-18 13:55:56.666092
3228  2023-10-18 13:55:56.698961
3229  2023-10-18 13:55:56.730931
3230  2023-10-18 13:55:56.762792
3231  2023-10-18 13:55:56.794705
3232  2023-10-18 13:55:56.826619
3233  2023-10-18 13:55:56.858534
3234  2023-10-18 13:55:56.890482
3235  2023-10-18 13:55:56.938353
3236  2023-10-18 13:55:56.970268
3237  2023-10-18 13:55:57.002180
3238  2023-10-18 13:55:57.034065
3239  2023-10-18 13:55:57.066977
3240  2023-10-18 13:55:57.098927
3241  2023-10-18 13:55:57.130807
3242  2023-10-18 13:55:57.162748
3243  2023-10-18 13:55:57.194636
3244  2023-10-18 13:55:57.226550
3245  2023-10-18 13:55:57.258465
3246  2023-10-18 13:55:57.290380
3247  2023-10-18 13:55:57.338280
3248  2023-10-18 13:55:57.370196
3249  2023-10-18 13:55:57.402132
3250  2023-10-18 13:55:57.434995
3251  2023-10-18 13:55:57.466941
3252  2023-10-18 13:55:57.498920
3253  2023-10-18 13:55:57.530846
3254  2023-10-18 13:55:57.562734
3255  2023-10-18 13:55:57.594688
3256  2023-10-18 13:55:57.626602
3257  2023-10-18 13:55:57.658515
3258  2023-10-18 13:55:57.690429
3259  2023-10-18 13:55:57.738301
3260  2023-10-18 13:55:57.770219
3261  2023-10-18 13:55:57.803182
3262  2023-10-18 13:55:57.835107
3263  2023-10-18 13:55:57.867050
3264  2023-10-18 13:55:57.898940
3265  2023-10-18 13:55:57.930824
3266  2023-10-18 13:55:57.962740
3267  2023-10-18 13:55:57.994650
3268  2023-10-18 13:55:58.026596
3269  2023-10-18 13:55:58.058514
3270  2023-10-18 13:55:58.091390
3271  2023-10-18 13:55:58.138266
3272  2023-10-18 13:55:58.170210
3273  2023-10-18 13:55:58.203123
3274  2023-10-18 13:55:58.234041
3275  2023-10-18 13:55:58.266962
3276  2023-10-18 13:55:58.298836
3277  2023-10-18 13:55:58.330750
3278  2023-10-18 13:55:58.362665
3279  2023-10-18 13:55:58.394618
3280  2023-10-18 13:55:58.426494
3281  2023-10-18 13:55:58.458409
3282  2023-10-18 13:55:58.490323
3283  2023-10-18 13:55:58.538260
3284  2023-10-18 13:55:58.570145
3285  2023-10-18 13:55:58.602074
3286  2023-10-18 13:55:58.634937
3287  2023-10-18 13:55:58.666887
3288  2023-10-18 13:55:58.698766
3289  2023-10-18 13:55:58.730681
3290  2023-10-18 13:55:58.762596
3291  2023-10-18 13:55:58.794510
3292  2023-10-18 13:55:58.826425
3293  2023-10-18 13:55:58.858108
3294  2023-10-18 13:55:58.890061
3295  2023-10-18 13:55:58.938902
3296  2023-10-18 13:55:58.970811
3297  2023-10-18 13:55:59.002721
3298  2023-10-18 13:55:59.034680
3299  2023-10-18 13:55:59.066550
3300  2023-10-18 13:55:59.098466
3301  2023-10-18 13:55:59.130380
3302  2023-10-18 13:55:59.162349
3303  2023-10-18 13:55:59.194257
3304  2023-10-18 13:55:59.226204
3305  2023-10-18 13:55:59.258045
3306  2023-10-18 13:55:59.306908
3307  2023-10-18 13:55:59.338822
3308  2023-10-18 13:55:59.370738
3309  2023-10-18 13:55:59.402703
3310  2023-10-18 13:55:59.434603
3311  2023-10-18 13:55:59.466591
3312  2023-10-18 13:55:59.498504
3313  2023-10-18 13:55:59.530418
3314  2023-10-18 13:55:59.562377
3315  2023-10-18 13:55:59.594284
3316  2023-10-18 13:55:59.626163
3317  2023-10-18 13:55:59.659129
3318  2023-10-18 13:55:59.706982
3319  2023-10-18 13:55:59.738899
3320  2023-10-18 13:55:59.770812
3321  2023-10-18 13:55:59.802725
3322  2023-10-18 13:55:59.834637
3323  2023-10-18 13:55:59.866552
3324  2023-10-18 13:55:59.898474
3325  2023-10-18 13:55:59.930388
3326  2023-10-18 13:55:59.963330
3327  2023-10-18 13:55:59.994275
3328  2023-10-18 13:56:00.026201
3329  2023-10-18 13:56:00.058154
3330  2023-10-18 13:56:00.105978
3331  2023-10-18 13:56:00.138923
3332  2023-10-18 13:56:00.170830
3333  2023-10-18 13:56:00.202718
3334  2023-10-18 13:56:00.234632
3335  2023-10-18 13:56:00.266580
3336  2023-10-18 13:56:00.298462
3337  2023-10-18 13:56:00.330396
3338  2023-10-18 13:56:00.362465
3339  2023-10-18 13:56:00.394418
3340  2023-10-18 13:56:00.426294
3341  2023-10-18 13:56:00.458299
3342  2023-10-18 13:56:00.506296
3343  2023-10-18 13:56:00.538197
3344  2023-10-18 13:56:00.571089
3345  2023-10-18 13:56:00.603017
3346  2023-10-18 13:56:00.634914
3347  2023-10-18 13:56:00.666831
3348  2023-10-18 13:56:00.698743
3349  2023-10-18 13:56:00.730660
3350  2023-10-18 13:56:00.762609
3351  2023-10-18 13:56:00.795518
3352  2023-10-18 13:56:00.826403
3353  2023-10-18 13:56:00.858320
3354  2023-10-18 13:56:00.906190
3355  2023-10-18 13:56:00.939133
3356  2023-10-18 13:56:00.971056
3357  2023-10-18 13:56:01.002963
3358  2023-10-18 13:56:01.034845
3359  2023-10-18 13:56:01.066806
3360  2023-10-18 13:56:01.098674
3361  2023-10-18 13:56:01.130589
3362  2023-10-18 13:56:01.162504
3363  2023-10-18 13:56:01.194457
3364  2023-10-18 13:56:01.226371
3365  2023-10-18 13:56:01.258289
3366  2023-10-18 13:56:01.307158
3367  2023-10-18 13:56:01.339644
3368  2023-10-18 13:56:01.370633
3369  2023-10-18 13:56:01.402581
3370  2023-10-18 13:56:01.434495
3371  2023-10-18 13:56:01.466410
3372  2023-10-18 13:56:01.498292
3373  2023-10-18 13:56:01.530268
3374  2023-10-18 13:56:01.562153
3375  2023-10-18 13:56:01.594060
3376  2023-10-18 13:56:01.626960
3377  2023-10-18 13:56:01.658905
3378  2023-10-18 13:56:01.706736
3379  2023-10-18 13:56:01.738693
3380  2023-10-18 13:56:01.770588
3381  2023-10-18 13:56:01.802478
3382  2023-10-18 13:56:01.834395
3383  2023-10-18 13:56:01.866307
3384  2023-10-18 13:56:01.898224
3385  2023-10-18 13:56:01.930172
3386  2023-10-18 13:56:01.963066
3387  2023-10-18 13:56:01.994965
3388  2023-10-18 13:56:02.026879
3389  2023-10-18 13:56:02.058794
3390  2023-10-18 13:56:02.106698
3391  2023-10-18 13:56:02.138610
3392  2023-10-18 13:56:02.170518
3393  2023-10-18 13:56:02.203408
3394  2023-10-18 13:56:02.234364
3395  2023-10-18 13:56:02.267237
3396  2023-10-18 13:56:02.299185
3397  2023-10-18 13:56:02.331099
3398  2023-10-18 13:56:02.363008
3399  2023-10-18 13:56:02.394896
3400  2023-10-18 13:56:02.426809
3401  2023-10-18 13:56:02.458751
3402  2023-10-18 13:56:02.506659
3403  2023-10-18 13:56:02.538602
3404  2023-10-18 13:56:02.570524
3405  2023-10-18 13:56:02.602432
3406  2023-10-18 13:56:02.634318
3407  2023-10-18 13:56:02.667228
3408  2023-10-18 13:56:02.698176
3409  2023-10-18 13:56:02.731169
3410  2023-10-18 13:56:02.763090
3411  2023-10-18 13:56:02.794986
3412  2023-10-18 13:56:02.826901
3413  2023-10-18 13:56:02.874788
3414  2023-10-18 13:56:02.906687
3415  2023-10-18 13:56:02.938598
3416  2023-10-18 13:56:02.970483
3417  2023-10-18 13:56:03.002397
3418  2023-10-18 13:56:03.034372
3419  2023-10-18 13:56:03.066258
3420  2023-10-18 13:56:03.098240
3421  2023-10-18 13:56:03.131151
3422  2023-10-18 13:56:03.162036
3423  2023-10-18 13:56:03.193953
3424  2023-10-18 13:56:03.226903
3425  2023-10-18 13:56:03.274735
3426  2023-10-18 13:56:03.306687
3427  2023-10-18 13:56:03.338567
3428  2023-10-18 13:56:03.370479
3429  2023-10-18 13:56:03.402419
3430  2023-10-18 13:56:03.434311
3431  2023-10-18 13:56:03.466223
3432  2023-10-18 13:56:03.498138
3433  2023-10-18 13:56:03.530053
3434  2023-10-18 13:56:03.562031
3435  2023-10-18 13:56:03.594943
3436  2023-10-18 13:56:03.626857
3437  2023-10-18 13:56:03.674769
3438  2023-10-18 13:56:03.706767
3439  2023-10-18 13:56:03.738721
3440  2023-10-18 13:56:03.770579
3441  2023-10-18 13:56:03.803470
3442  2023-10-18 13:56:03.834386
3443  2023-10-18 13:56:03.866332
3444  2023-10-18 13:56:03.899214
3445  2023-10-18 13:56:03.931127
3446  2023-10-18 13:56:03.963041
3447  2023-10-18 13:56:03.994955
3448  2023-10-18 13:56:04.026906
3449  2023-10-18 13:56:04.074783
3450  2023-10-18 13:56:04.106682
3451  2023-10-18 13:56:04.138602
3452  2023-10-18 13:56:04.171526
3453  2023-10-18 13:56:04.202427
3454  2023-10-18 13:56:04.234316
3455  2023-10-18 13:56:04.266270
3456  2023-10-18 13:56:04.299174
3457  2023-10-18 13:56:04.330089
3458  2023-10-18 13:56:04.362971
3459  2023-10-18 13:56:04.394958
3460  2023-10-18 13:56:04.426863
3461  2023-10-18 13:56:04.474674
3462  2023-10-18 13:56:04.506612
3463  2023-10-18 13:56:04.538532
3464  2023-10-18 13:56:04.570448
3465  2023-10-18 13:56:04.602364
3466  2023-10-18 13:56:04.634247
3467  2023-10-18 13:56:04.666185
3468  2023-10-18 13:56:04.699104
3469  2023-10-18 13:56:04.731040
3470  2023-10-18 13:56:04.762903
3471  2023-10-18 13:56:04.794819
3472  2023-10-18 13:56:04.826731
3473  2023-10-18 13:56:04.874639
3474  2023-10-18 13:56:04.906551
3475  2023-10-18 13:56:04.938487
3476  2023-10-18 13:56:04.970380
3477  2023-10-18 13:56:05.002288
3478  2023-10-18 13:56:05.034179
3479  2023-10-18 13:56:05.067090
3480  2023-10-18 13:56:05.098030
3481  2023-10-18 13:56:05.129971
3482  2023-10-18 13:56:05.162832
3483  2023-10-18 13:56:05.194749
3484  2023-10-18 13:56:05.226664
3485  2023-10-18 13:56:05.274538
3486  2023-10-18 13:56:05.306449
3487  2023-10-18 13:56:05.338407
3488  2023-10-18 13:56:05.370310
3489  2023-10-18 13:56:05.402223
3490  2023-10-18 13:56:05.434107
3491  2023-10-18 13:56:05.466024
3492  2023-10-18 13:56:05.498934
3493  2023-10-18 13:56:05.530848
3494  2023-10-18 13:56:05.562763
3495  2023-10-18 13:56:05.594678
3496  2023-10-18 13:56:05.626593
3497  2023-10-18 13:56:05.675472
3498  2023-10-18 13:56:05.707378
3499  2023-10-18 13:56:05.738321
3500  2023-10-18 13:56:05.771207
3501  2023-10-18 13:56:05.803124
3502  2023-10-18 13:56:05.835039
3503  2023-10-18 13:56:05.866952
3504  2023-10-18 13:56:05.898880
3505  2023-10-18 13:56:05.930781
3506  2023-10-18 13:56:05.962696
3507  2023-10-18 13:56:05.994610
3508  2023-10-18 13:56:06.026525
3509  2023-10-18 13:56:06.074398
3510  2023-10-18 13:56:06.106377
3511  2023-10-18 13:56:06.138271
3512  2023-10-18 13:56:06.170186
3513  2023-10-18 13:56:06.202099
3514  2023-10-18 13:56:06.235012
3515  2023-10-18 13:56:06.266959
3516  2023-10-18 13:56:06.298988
3517  2023-10-18 13:56:06.330895
3518  2023-10-18 13:56:06.362844
3519  2023-10-18 13:56:06.394725
3520  2023-10-18 13:56:06.426674
3521  2023-10-18 13:56:06.474511
3522  2023-10-18 13:56:06.506426
3523  2023-10-18 13:56:06.538387
3524  2023-10-18 13:56:06.570292
3525  2023-10-18 13:56:06.602222
3526  2023-10-18 13:56:06.635095
3527  2023-10-18 13:56:06.666997
3528  2023-10-18 13:56:06.698961
3529  2023-10-18 13:56:06.730826
3530  2023-10-18 13:56:06.762772
3531  2023-10-18 13:56:06.794656
3532  2023-10-18 13:56:06.842530
3533  2023-10-18 13:56:06.874505
3534  2023-10-18 13:56:06.906357
3535  2023-10-18 13:56:06.938310
3536  2023-10-18 13:56:06.970186
3537  2023-10-18 13:56:07.002147
3538  2023-10-18 13:56:07.034015
3539  2023-10-18 13:56:07.066928
3540  2023-10-18 13:56:07.098875
3541  2023-10-18 13:56:07.130757
3542  2023-10-18 13:56:07.162672
3543  2023-10-18 13:56:07.194586
3544  2023-10-18 13:56:07.242498
3545  2023-10-18 13:56:07.274399
3546  2023-10-18 13:56:07.306288
3547  2023-10-18 13:56:07.338235
3548  2023-10-18 13:56:07.370117
3549  2023-10-18 13:56:07.402058
3550  2023-10-18 13:56:07.434979
3551  2023-10-18 13:56:07.466859
3552  2023-10-18 13:56:07.498774
3553  2023-10-18 13:56:07.530688
3554  2023-10-18 13:56:07.562648
3555  2023-10-18 13:56:07.594542
3556  2023-10-18 13:56:07.642413
3557  2023-10-18 13:56:07.674315
3558  2023-10-18 13:56:07.706219
3559  2023-10-18 13:56:07.738135
3560  2023-10-18 13:56:07.770050
3561  2023-10-18 13:56:07.803959
