
1  2023-11-03 11:05:38.977768
2  2023-11-03 11:05:39.010681
3  2023-11-03 11:05:39.042644
4  2023-11-03 11:05:39.074559
5  2023-11-03 11:05:39.106517
6  2023-11-03 11:05:39.138432
7  2023-11-03 11:05:39.170353
8  2023-11-03 11:05:39.218219
9  2023-11-03 11:05:39.250145
10  2023-11-03 11:05:39.282047
11  2023-11-03 11:05:39.314010
12  2023-11-03 11:05:39.345877
13  2023-11-03 11:05:39.378819
14  2023-11-03 11:05:39.409707
15  2023-11-03 11:05:39.442618
16  2023-11-03 11:05:39.474532
17  2023-11-03 11:05:39.506448
18  2023-11-03 11:05:39.538363
19  2023-11-03 11:05:39.570276
20  2023-11-03 11:05:39.618149
21  2023-11-03 11:05:39.650063
22  2023-11-03 11:05:39.682034
23  2023-11-03 11:05:39.713893
24  2023-11-03 11:05:39.745808
25  2023-11-03 11:05:39.777724
26  2023-11-03 11:05:39.810635
27  2023-11-03 11:05:39.842639
28  2023-11-03 11:05:39.874571
29  2023-11-03 11:05:39.906477
30  2023-11-03 11:05:39.938433
31  2023-11-03 11:05:39.970273
32  2023-11-03 11:05:40.018182
33  2023-11-03 11:05:40.050095
34  2023-11-03 11:05:40.081977
35  2023-11-03 11:05:40.113889
36  2023-11-03 11:05:40.145848
37  2023-11-03 11:05:40.178747
38  2023-11-03 11:05:40.209667
39  2023-11-03 11:05:40.242592
40  2023-11-03 11:05:40.274600
41  2023-11-03 11:05:40.306616
42  2023-11-03 11:05:40.338537
43  2023-11-03 11:05:40.370415
44  2023-11-03 11:05:40.418367
45  2023-11-03 11:05:40.450202
46  2023-11-03 11:05:40.482189
47  2023-11-03 11:05:40.514031
48  2023-11-03 11:05:40.546347
49  2023-11-03 11:05:40.578263
50  2023-11-03 11:05:40.610266
51  2023-11-03 11:05:40.642170
52  2023-11-03 11:05:40.675088
53  2023-11-03 11:05:40.705966
54  2023-11-03 11:05:40.737911
55  2023-11-03 11:05:40.769842
56  2023-11-03 11:05:40.817666
57  2023-11-03 11:05:40.850608
58  2023-11-03 11:05:40.882587
59  2023-11-03 11:05:40.914543
60  2023-11-03 11:05:40.946417
61  2023-11-03 11:05:40.978361
62  2023-11-03 11:05:41.010246
63  2023-11-03 11:05:41.042200
64  2023-11-03 11:05:41.074137
65  2023-11-03 11:05:41.106048
66  2023-11-03 11:05:41.137950
67  2023-11-03 11:05:41.169820
68  2023-11-03 11:05:41.217724
69  2023-11-03 11:05:41.250633
70  2023-11-03 11:05:41.281667
71  2023-11-03 11:05:41.314579
72  2023-11-03 11:05:41.346495
73  2023-11-03 11:05:41.378409
74  2023-11-03 11:05:41.410323
75  2023-11-03 11:05:41.442239
76  2023-11-03 11:05:41.474187
77  2023-11-03 11:05:41.506216
78  2023-11-03 11:05:41.538140
79  2023-11-03 11:05:41.570071
80  2023-11-03 11:05:41.617897
81  2023-11-03 11:05:41.649812
82  2023-11-03 11:05:41.681727
83  2023-11-03 11:05:41.713642
84  2023-11-03 11:05:41.746190
85  2023-11-03 11:05:41.778105
86  2023-11-03 11:05:41.810020
87  2023-11-03 11:05:41.841967
88  2023-11-03 11:05:41.873847
89  2023-11-03 11:05:41.905763
90  2023-11-03 11:05:41.937742
91  2023-11-03 11:05:41.986547
92  2023-11-03 11:05:42.018461
93  2023-11-03 11:05:42.050375
94  2023-11-03 11:05:42.082330
95  2023-11-03 11:05:42.114245
96  2023-11-03 11:05:42.146160
97  2023-11-03 11:05:42.178080
98  2023-11-03 11:05:42.210043
99  2023-11-03 11:05:42.241954
100  2023-11-03 11:05:42.273852
101  2023-11-03 11:05:42.306731
102  2023-11-03 11:05:42.338646
103  2023-11-03 11:05:42.386518
104  2023-11-03 11:05:42.418435
105  2023-11-03 11:05:42.450347
106  2023-11-03 11:05:42.482304
107  2023-11-03 11:05:42.514176
108  2023-11-03 11:05:42.546091
109  2023-11-03 11:05:42.578008
110  2023-11-03 11:05:42.609953
111  2023-11-03 11:05:42.641871
112  2023-11-03 11:05:42.674749
113  2023-11-03 11:05:42.706695
114  2023-11-03 11:05:42.738625
115  2023-11-03 11:05:42.786449
116  2023-11-03 11:05:42.818395
117  2023-11-03 11:05:42.850278
118  2023-11-03 11:05:42.882227
119  2023-11-03 11:05:42.914108
120  2023-11-03 11:05:42.946057
121  2023-11-03 11:05:42.977990
122  2023-11-03 11:05:43.009900
123  2023-11-03 11:05:43.042807
124  2023-11-03 11:05:43.073728
125  2023-11-03 11:05:43.106625
126  2023-11-03 11:05:43.138546
127  2023-11-03 11:05:43.186380
128  2023-11-03 11:05:43.218325
129  2023-11-03 11:05:43.250209
130  2023-11-03 11:05:43.282124
131  2023-11-03 11:05:43.314039
132  2023-11-03 11:05:43.345994
133  2023-11-03 11:05:43.377900
134  2023-11-03 11:05:43.409821
135  2023-11-03 11:05:43.441743
136  2023-11-03 11:05:43.473662
137  2023-11-03 11:05:43.506565
138  2023-11-03 11:05:43.538485
139  2023-11-03 11:05:43.586311
140  2023-11-03 11:05:43.618314
141  2023-11-03 11:05:43.650228
142  2023-11-03 11:05:43.682143
143  2023-11-03 11:05:43.714111
144  2023-11-03 11:05:43.745973
145  2023-11-03 11:05:43.777951
146  2023-11-03 11:05:43.809855
147  2023-11-03 11:05:43.842759
148  2023-11-03 11:05:43.874663
149  2023-11-03 11:05:43.906693
150  2023-11-03 11:05:43.938564
151  2023-11-03 11:05:43.986460
152  2023-11-03 11:05:44.018334
153  2023-11-03 11:05:44.050249
154  2023-11-03 11:05:44.082164
155  2023-11-03 11:05:44.113982
156  2023-11-03 11:05:44.146890
157  2023-11-03 11:05:44.177940
158  2023-11-03 11:05:44.209795
159  2023-11-03 11:05:44.242738
160  2023-11-03 11:05:44.274651
161  2023-11-03 11:05:44.306600
162  2023-11-03 11:05:44.338451
163  2023-11-03 11:05:44.386359
164  2023-11-03 11:05:44.418268
165  2023-11-03 11:05:44.450153
166  2023-11-03 11:05:44.482126
167  2023-11-03 11:05:44.514023
168  2023-11-03 11:05:44.545939
169  2023-11-03 11:05:44.577811
170  2023-11-03 11:05:44.609841
171  2023-11-03 11:05:44.641806
172  2023-11-03 11:05:44.673744
173  2023-11-03 11:05:44.706667
174  2023-11-03 11:05:44.738551
175  2023-11-03 11:05:44.786415
176  2023-11-03 11:05:44.818335
177  2023-11-03 11:05:44.850219
178  2023-11-03 11:05:44.882181
179  2023-11-03 11:05:44.914098
180  2023-11-03 11:05:44.946159
181  2023-11-03 11:05:44.978024
182  2023-11-03 11:05:45.009944
183  2023-11-03 11:05:45.041861
184  2023-11-03 11:05:45.073769
185  2023-11-03 11:05:45.106652
186  2023-11-03 11:05:45.291159
187  2023-11-03 11:05:45.314180
188  2023-11-03 11:05:45.346077
189  2023-11-03 11:05:45.377927
190  2023-11-03 11:05:45.409879
191  2023-11-03 11:05:45.441797
192  2023-11-03 11:05:45.473715
193  2023-11-03 11:05:45.506613
194  2023-11-03 11:05:45.554496
195  2023-11-03 11:05:45.586371
196  2023-11-03 11:05:45.618325
197  2023-11-03 11:05:45.650199
198  2023-11-03 11:05:45.682167
199  2023-11-03 11:05:45.714067
200  2023-11-03 11:05:45.746948
201  2023-11-03 11:05:45.777901
202  2023-11-03 11:05:45.809803
203  2023-11-03 11:05:45.842695
204  2023-11-03 11:05:45.874600
205  2023-11-03 11:05:45.906515
206  2023-11-03 11:05:45.954387
207  2023-11-03 11:05:45.986354
208  2023-11-03 11:05:46.018258
209  2023-11-03 11:05:46.050180
210  2023-11-03 11:05:46.082046
211  2023-11-03 11:05:46.113987
212  2023-11-03 11:05:46.145875
213  2023-11-03 11:05:46.177840
214  2023-11-03 11:05:46.209735
215  2023-11-03 11:05:46.242659
216  2023-11-03 11:05:46.274600
217  2023-11-03 11:05:46.306470
218  2023-11-03 11:05:46.354318
219  2023-11-03 11:05:46.386232
220  2023-11-03 11:05:46.418191
221  2023-11-03 11:05:46.450062
222  2023-11-03 11:05:46.481976
223  2023-11-03 11:05:46.513930
224  2023-11-03 11:05:46.546828
225  2023-11-03 11:05:46.577764
226  2023-11-03 11:05:46.609683
227  2023-11-03 11:05:46.642603
228  2023-11-03 11:05:46.674497
229  2023-11-03 11:05:46.706406
230  2023-11-03 11:05:46.754278
231  2023-11-03 11:05:46.786164
232  2023-11-03 11:05:46.818093
233  2023-11-03 11:05:46.849993
234  2023-11-03 11:05:46.881908
235  2023-11-03 11:05:46.913822
236  2023-11-03 11:05:46.945737
237  2023-11-03 11:05:46.977707
238  2023-11-03 11:05:47.010650
239  2023-11-03 11:05:47.042518
240  2023-11-03 11:05:47.074422
241  2023-11-03 11:05:47.106375
242  2023-11-03 11:05:47.154247
243  2023-11-03 11:05:47.186217
244  2023-11-03 11:05:47.218132
245  2023-11-03 11:05:47.250046
246  2023-11-03 11:05:47.281961
247  2023-11-03 11:05:47.313937
248  2023-11-03 11:05:47.345882
249  2023-11-03 11:05:47.378763
250  2023-11-03 11:05:47.409712
251  2023-11-03 11:05:47.442625
252  2023-11-03 11:05:47.474588
253  2023-11-03 11:05:47.506454
254  2023-11-03 11:05:47.554326
255  2023-11-03 11:05:47.586241
256  2023-11-03 11:05:47.618155
257  2023-11-03 11:05:47.650186
258  2023-11-03 11:05:47.682101
259  2023-11-03 11:05:47.714059
260  2023-11-03 11:05:47.745931
261  2023-11-03 11:05:47.777968
262  2023-11-03 11:05:47.809913
263  2023-11-03 11:05:47.841839
264  2023-11-03 11:05:47.873754
265  2023-11-03 11:05:47.905654
266  2023-11-03 11:05:47.954490
267  2023-11-03 11:05:47.986405
268  2023-11-03 11:05:48.018320
269  2023-11-03 11:05:48.050278
270  2023-11-03 11:05:48.082150
271  2023-11-03 11:05:48.114064
272  2023-11-03 11:05:48.145979
273  2023-11-03 11:05:48.177926
274  2023-11-03 11:05:48.209841
275  2023-11-03 11:05:48.241755
276  2023-11-03 11:05:48.273670
277  2023-11-03 11:05:48.306580
278  2023-11-03 11:05:48.354421
279  2023-11-03 11:05:48.386336
280  2023-11-03 11:05:48.418251
281  2023-11-03 11:05:48.450166
282  2023-11-03 11:05:48.482080
283  2023-11-03 11:05:48.514032
284  2023-11-03 11:05:48.545910
285  2023-11-03 11:05:48.577856
286  2023-11-03 11:05:48.609739
287  2023-11-03 11:05:48.641703
288  2023-11-03 11:05:48.674608
289  2023-11-03 11:05:48.706513
290  2023-11-03 11:05:48.754353
291  2023-11-03 11:05:48.786267
292  2023-11-03 11:05:48.818182
293  2023-11-03 11:05:48.850097
294  2023-11-03 11:05:48.882012
295  2023-11-03 11:05:48.913927
296  2023-11-03 11:05:48.945841
297  2023-11-03 11:05:48.977797
298  2023-11-03 11:05:49.010716
299  2023-11-03 11:05:49.042615
300  2023-11-03 11:05:49.074523
301  2023-11-03 11:05:49.122397
302  2023-11-03 11:05:49.154284
303  2023-11-03 11:05:49.186199
304  2023-11-03 11:05:49.218114
305  2023-11-03 11:05:49.250075
306  2023-11-03 11:05:49.281943
307  2023-11-03 11:05:49.313858
308  2023-11-03 11:05:49.345804
309  2023-11-03 11:05:49.378715
310  2023-11-03 11:05:49.410599
311  2023-11-03 11:05:49.442569
312  2023-11-03 11:05:49.474459
313  2023-11-03 11:05:49.522301
314  2023-11-03 11:05:49.554246
315  2023-11-03 11:05:49.586162
316  2023-11-03 11:05:49.618045
317  2023-11-03 11:05:49.649959
318  2023-11-03 11:05:49.681938
319  2023-11-03 11:05:49.713826
320  2023-11-03 11:05:49.745704
321  2023-11-03 11:05:49.778677
322  2023-11-03 11:05:49.810561
323  2023-11-03 11:05:49.842475
324  2023-11-03 11:05:49.874403
325  2023-11-03 11:05:49.922265
326  2023-11-03 11:05:49.954160
327  2023-11-03 11:05:49.986061
328  2023-11-03 11:05:50.017976
329  2023-11-03 11:05:50.049958
330  2023-11-03 11:05:50.081805
331  2023-11-03 11:05:50.113720
332  2023-11-03 11:05:50.145635
333  2023-11-03 11:05:50.178596
334  2023-11-03 11:05:50.210499
335  2023-11-03 11:05:50.242428
336  2023-11-03 11:05:50.274334
337  2023-11-03 11:05:50.322163
338  2023-11-03 11:05:50.354078
339  2023-11-03 11:05:50.385992
340  2023-11-03 11:05:50.417907
341  2023-11-03 11:05:50.449822
342  2023-11-03 11:05:50.481845
343  2023-11-03 11:05:50.514757
344  2023-11-03 11:05:50.546672
345  2023-11-03 11:05:50.578619
346  2023-11-03 11:05:50.610548
347  2023-11-03 11:05:50.642463
348  2023-11-03 11:05:50.674473
349  2023-11-03 11:05:50.722302
350  2023-11-03 11:05:50.754216
351  2023-11-03 11:05:51.239918
352  2023-11-03 11:05:51.250890
353  2023-11-03 11:05:51.281806
354  2023-11-03 11:05:51.313720
355  2023-11-03 11:05:51.346665
356  2023-11-03 11:05:51.378633
357  2023-11-03 11:05:51.410497
358  2023-11-03 11:05:51.442408
359  2023-11-03 11:05:51.474326
360  2023-11-03 11:05:51.522163
361  2023-11-03 11:05:51.554112
362  2023-11-03 11:05:51.586042
363  2023-11-03 11:05:51.617907
364  2023-11-03 11:05:51.649822
365  2023-11-03 11:05:51.681737
366  2023-11-03 11:05:51.713684
367  2023-11-03 11:05:51.746564
368  2023-11-03 11:05:51.778510
369  2023-11-03 11:05:51.810435
370  2023-11-03 11:05:51.842345
371  2023-11-03 11:05:51.874287
372  2023-11-03 11:05:51.922172
373  2023-11-03 11:05:51.954059
374  2023-11-03 11:05:51.985924
375  2023-11-03 11:05:52.017839
376  2023-11-03 11:05:52.049803
377  2023-11-03 11:05:52.082666
378  2023-11-03 11:05:52.114580
379  2023-11-03 11:05:52.146495
380  2023-11-03 11:05:52.178444
381  2023-11-03 11:05:52.210361
382  2023-11-03 11:05:52.242278
383  2023-11-03 11:05:52.274188
384  2023-11-03 11:05:52.322028
385  2023-11-03 11:05:52.353941
386  2023-11-03 11:05:52.385855
387  2023-11-03 11:05:52.417782
388  2023-11-03 11:05:52.449685
389  2023-11-03 11:05:52.482597
390  2023-11-03 11:05:52.514511
391  2023-11-03 11:05:52.546487
392  2023-11-03 11:05:52.578372
393  2023-11-03 11:05:52.610289
394  2023-11-03 11:05:52.642237
395  2023-11-03 11:05:52.674137
396  2023-11-03 11:05:52.721957
397  2023-11-03 11:05:52.753872
398  2023-11-03 11:05:52.785786
399  2023-11-03 11:05:52.817701
400  2023-11-03 11:05:52.849647
401  2023-11-03 11:05:52.882528
402  2023-11-03 11:05:52.914443
403  2023-11-03 11:05:52.946357
404  2023-11-03 11:05:52.978304
405  2023-11-03 11:05:53.010221
406  2023-11-03 11:05:53.042153
407  2023-11-03 11:05:53.089974
408  2023-11-03 11:05:53.121888
409  2023-11-03 11:05:53.153858
410  2023-11-03 11:05:53.185773
411  2023-11-03 11:05:53.217688
412  2023-11-03 11:05:53.250600
413  2023-11-03 11:05:53.282514
414  2023-11-03 11:05:53.314429
415  2023-11-03 11:05:53.346345
416  2023-11-03 11:05:53.378290
417  2023-11-03 11:05:53.410175
418  2023-11-03 11:05:53.442123
419  2023-11-03 11:05:53.489960
420  2023-11-03 11:05:53.521875
421  2023-11-03 11:05:53.554845
422  2023-11-03 11:05:53.585821
423  2023-11-03 11:05:53.617736
424  2023-11-03 11:05:53.649650
425  2023-11-03 11:05:53.682563
426  2023-11-03 11:05:53.714477
427  2023-11-03 11:05:53.746392
428  2023-11-03 11:05:53.778361
429  2023-11-03 11:05:53.810263
430  2023-11-03 11:05:53.842137
431  2023-11-03 11:05:53.890008
432  2023-11-03 11:05:53.922946
433  2023-11-03 11:05:53.953839
434  2023-11-03 11:05:53.986750
435  2023-11-03 11:05:54.018664
436  2023-11-03 11:05:54.049840
437  2023-11-03 11:05:54.081708
438  2023-11-03 11:05:54.114620
439  2023-11-03 11:05:54.146535
440  2023-11-03 11:05:54.178482
441  2023-11-03 11:05:54.210404
442  2023-11-03 11:05:54.242315
443  2023-11-03 11:05:54.290151
444  2023-11-03 11:05:54.322066
445  2023-11-03 11:05:54.353981
446  2023-11-03 11:05:54.385941
447  2023-11-03 11:05:54.417810
448  2023-11-03 11:05:54.450722
449  2023-11-03 11:05:54.482637
450  2023-11-03 11:05:54.514552
451  2023-11-03 11:05:54.546466
452  2023-11-03 11:05:54.578413
453  2023-11-03 11:05:54.610296
454  2023-11-03 11:05:54.642242
455  2023-11-03 11:05:54.690083
456  2023-11-03 11:05:54.721997
457  2023-11-03 11:05:54.753912
458  2023-11-03 11:05:54.785827
459  2023-11-03 11:05:54.817741
460  2023-11-03 11:05:54.850653
461  2023-11-03 11:05:54.882568
462  2023-11-03 11:05:54.914483
463  2023-11-03 11:05:54.946398
464  2023-11-03 11:05:54.978341
465  2023-11-03 11:05:55.010272
466  2023-11-03 11:05:55.042143
467  2023-11-03 11:05:55.090018
468  2023-11-03 11:05:55.121935
469  2023-11-03 11:05:55.153843
470  2023-11-03 11:05:55.185758
471  2023-11-03 11:05:55.217673
472  2023-11-03 11:05:55.250585
473  2023-11-03 11:05:55.282500
474  2023-11-03 11:05:55.314414
475  2023-11-03 11:05:55.346329
476  2023-11-03 11:05:55.378278
477  2023-11-03 11:05:55.410194
478  2023-11-03 11:05:55.442073
479  2023-11-03 11:05:55.489945
480  2023-11-03 11:05:55.521860
481  2023-11-03 11:05:55.553774
482  2023-11-03 11:05:55.585691
483  2023-11-03 11:05:55.618603
484  2023-11-03 11:05:55.650517
485  2023-11-03 11:05:55.682433
486  2023-11-03 11:05:55.714349
487  2023-11-03 11:05:55.746261
488  2023-11-03 11:05:55.778218
489  2023-11-03 11:05:55.810158
490  2023-11-03 11:05:55.842075
491  2023-11-03 11:05:55.889878
492  2023-11-03 11:05:55.921826
493  2023-11-03 11:05:55.953707
494  2023-11-03 11:05:55.986619
495  2023-11-03 11:05:56.018534
496  2023-11-03 11:05:56.050449
497  2023-11-03 11:05:56.082363
498  2023-11-03 11:05:56.114279
499  2023-11-03 11:05:56.146193
500  2023-11-03 11:05:56.178137
501  2023-11-03 11:05:56.210054
502  2023-11-03 11:05:56.241987
503  2023-11-03 11:05:56.289824
504  2023-11-03 11:05:56.429477
505  2023-11-03 11:05:56.450396
506  2023-11-03 11:05:56.482451
507  2023-11-03 11:05:56.514332
508  2023-11-03 11:05:56.546246
509  2023-11-03 11:05:56.578198
510  2023-11-03 11:05:56.610127
511  2023-11-03 11:05:56.657947
512  2023-11-03 11:05:56.689862
513  2023-11-03 11:05:56.722774
514  2023-11-03 11:05:56.754691
515  2023-11-03 11:05:56.786620
516  2023-11-03 11:05:56.818519
517  2023-11-03 11:05:56.850440
518  2023-11-03 11:05:56.882348
519  2023-11-03 11:05:56.914263
520  2023-11-03 11:05:56.946177
521  2023-11-03 11:05:56.978154
522  2023-11-03 11:05:57.010085
523  2023-11-03 11:05:57.058910
524  2023-11-03 11:05:57.090804
525  2023-11-03 11:05:57.122707
526  2023-11-03 11:05:57.154625
527  2023-11-03 11:05:57.186591
528  2023-11-03 11:05:57.218454
529  2023-11-03 11:05:57.250365
530  2023-11-03 11:05:57.282280
531  2023-11-03 11:05:57.314194
532  2023-11-03 11:05:57.346109
533  2023-11-03 11:05:57.379022
534  2023-11-03 11:05:57.409985
535  2023-11-03 11:05:57.458824
536  2023-11-03 11:05:57.489727
537  2023-11-03 11:05:57.522640
538  2023-11-03 11:05:57.554552
539  2023-11-03 11:05:57.586469
540  2023-11-03 11:05:57.618382
541  2023-11-03 11:05:57.650297
542  2023-11-03 11:05:57.682211
543  2023-11-03 11:05:57.714126
544  2023-11-03 11:05:57.746040
545  2023-11-03 11:05:57.777959
546  2023-11-03 11:05:57.809904
547  2023-11-03 11:05:57.858748
548  2023-11-03 11:05:57.890655
549  2023-11-03 11:05:57.922569
550  2023-11-03 11:05:57.954483
551  2023-11-03 11:05:57.986398
552  2023-11-03 11:05:58.018341
553  2023-11-03 11:05:58.050227
554  2023-11-03 11:05:58.082142
555  2023-11-03 11:05:58.114057
556  2023-11-03 11:05:58.146011
557  2023-11-03 11:05:58.177913
558  2023-11-03 11:05:58.210833
559  2023-11-03 11:05:58.258672
560  2023-11-03 11:05:58.290628
561  2023-11-03 11:05:58.322529
562  2023-11-03 11:05:58.354456
563  2023-11-03 11:05:58.386329
564  2023-11-03 11:05:58.418272
565  2023-11-03 11:05:58.450160
566  2023-11-03 11:05:58.482131
567  2023-11-03 11:05:58.514046
568  2023-11-03 11:05:58.545902
569  2023-11-03 11:05:58.577826
570  2023-11-03 11:05:58.610731
571  2023-11-03 11:05:58.657604
572  2023-11-03 11:05:58.690518
573  2023-11-03 11:05:58.722432
574  2023-11-03 11:05:58.754352
575  2023-11-03 11:05:58.786260
576  2023-11-03 11:05:58.818214
577  2023-11-03 11:05:58.850091
578  2023-11-03 11:05:58.883034
579  2023-11-03 11:05:58.913919
580  2023-11-03 11:05:58.945865
581  2023-11-03 11:05:58.977786
582  2023-11-03 11:05:59.010667
583  2023-11-03 11:05:59.058598
584  2023-11-03 11:05:59.090490
585  2023-11-03 11:05:59.122376
586  2023-11-03 11:05:59.154276
587  2023-11-03 11:05:59.186191
588  2023-11-03 11:05:59.218108
589  2023-11-03 11:05:59.250058
590  2023-11-03 11:05:59.281968
591  2023-11-03 11:05:59.313850
592  2023-11-03 11:05:59.345765
593  2023-11-03 11:05:59.378753
594  2023-11-03 11:05:59.409633
595  2023-11-03 11:05:59.458520
596  2023-11-03 11:05:59.490426
597  2023-11-03 11:05:59.522488
598  2023-11-03 11:05:59.554394
599  2023-11-03 11:05:59.586318
600  2023-11-03 11:05:59.618234
601  2023-11-03 11:05:59.650158
602  2023-11-03 11:05:59.682077
603  2023-11-03 11:05:59.713967
604  2023-11-03 11:05:59.745900
605  2023-11-03 11:05:59.777814
606  2023-11-03 11:05:59.809729
607  2023-11-03 11:05:59.858601
608  2023-11-03 11:05:59.890463
609  2023-11-03 11:05:59.922419
610  2023-11-03 11:05:59.954292
611  2023-11-03 11:05:59.986207
612  2023-11-03 11:06:00.018169
613  2023-11-03 11:06:00.050081
614  2023-11-03 11:06:00.081989
615  2023-11-03 11:06:00.113916
616  2023-11-03 11:06:00.145781
617  2023-11-03 11:06:00.178719
618  2023-11-03 11:06:00.210688
619  2023-11-03 11:06:00.258523
620  2023-11-03 11:06:00.290441
621  2023-11-03 11:06:00.322351
622  2023-11-03 11:06:00.354267
623  2023-11-03 11:06:00.386183
624  2023-11-03 11:06:00.418059
625  2023-11-03 11:06:00.449999
626  2023-11-03 11:06:00.481917
627  2023-11-03 11:06:00.513828
628  2023-11-03 11:06:00.545760
629  2023-11-03 11:06:00.578651
630  2023-11-03 11:06:00.626496
631  2023-11-03 11:06:00.658411
632  2023-11-03 11:06:00.690367
633  2023-11-03 11:06:00.722287
634  2023-11-03 11:06:00.754190
635  2023-11-03 11:06:00.786137
636  2023-11-03 11:06:00.818134
637  2023-11-03 11:06:00.850985
638  2023-11-03 11:06:00.881902
639  2023-11-03 11:06:00.913875
640  2023-11-03 11:06:00.945730
641  2023-11-03 11:06:00.977699
642  2023-11-03 11:06:01.026545
643  2023-11-03 11:06:01.058429
644  2023-11-03 11:06:01.090344
645  2023-11-03 11:06:01.122299
646  2023-11-03 11:06:01.154397
647  2023-11-03 11:06:01.186321
648  2023-11-03 11:06:01.218231
649  2023-11-03 11:06:01.250157
650  2023-11-03 11:06:01.282079
651  2023-11-03 11:06:01.313970
652  2023-11-03 11:06:01.345882
653  2023-11-03 11:06:01.377811
654  2023-11-03 11:06:01.426633
655  2023-11-03 11:06:01.458596
656  2023-11-03 11:06:01.490466
657  2023-11-03 11:06:01.522510
658  2023-11-03 11:06:01.554379
659  2023-11-03 11:06:01.586286
660  2023-11-03 11:06:01.618212
661  2023-11-03 11:06:01.650143
662  2023-11-03 11:06:01.682072
663  2023-11-03 11:06:01.713955
664  2023-11-03 11:06:01.745877
665  2023-11-03 11:06:01.777792
666  2023-11-03 11:06:01.826611
667  2023-11-03 11:06:01.858526
668  2023-11-03 11:06:02.065973
669  2023-11-03 11:06:02.081954
670  2023-11-03 11:06:02.113893
671  2023-11-03 11:06:02.145788
672  2023-11-03 11:06:02.178737
673  2023-11-03 11:06:02.226573
674  2023-11-03 11:06:02.258459
675  2023-11-03 11:06:02.290372
676  2023-11-03 11:06:02.322329
677  2023-11-03 11:06:02.354246
678  2023-11-03 11:06:02.386134
679  2023-11-03 11:06:02.418031
680  2023-11-03 11:06:02.449976
681  2023-11-03 11:06:02.481894
682  2023-11-03 11:06:02.513821
683  2023-11-03 11:06:02.545691
684  2023-11-03 11:06:02.578649
685  2023-11-03 11:06:02.626505
686  2023-11-03 11:06:02.658388
687  2023-11-03 11:06:02.690303
688  2023-11-03 11:06:02.722262
689  2023-11-03 11:06:02.754176
690  2023-11-03 11:06:02.786091
691  2023-11-03 11:06:02.817962
692  2023-11-03 11:06:02.849924
693  2023-11-03 11:06:02.881875
694  2023-11-03 11:06:02.913861
695  2023-11-03 11:06:02.945775
696  2023-11-03 11:06:02.978698
697  2023-11-03 11:06:03.026557
698  2023-11-03 11:06:03.058471
699  2023-11-03 11:06:03.090368
700  2023-11-03 11:06:03.122300
701  2023-11-03 11:06:03.154204
702  2023-11-03 11:06:03.186122
703  2023-11-03 11:06:03.218054
704  2023-11-03 11:06:03.250914
705  2023-11-03 11:06:03.282881
706  2023-11-03 11:06:03.314791
707  2023-11-03 11:06:03.346723
708  2023-11-03 11:06:03.378733
709  2023-11-03 11:06:03.426649
710  2023-11-03 11:06:03.458508
711  2023-11-03 11:06:03.490423
712  2023-11-03 11:06:03.522370
713  2023-11-03 11:06:03.554292
714  2023-11-03 11:06:03.586199
715  2023-11-03 11:06:03.618089
716  2023-11-03 11:06:03.649996
717  2023-11-03 11:06:03.681944
718  2023-11-03 11:06:03.713859
719  2023-11-03 11:06:03.745789
720  2023-11-03 11:06:03.777687
721  2023-11-03 11:06:03.826641
722  2023-11-03 11:06:03.858505
723  2023-11-03 11:06:03.890446
724  2023-11-03 11:06:03.922369
725  2023-11-03 11:06:03.954295
726  2023-11-03 11:06:03.986199
727  2023-11-03 11:06:04.018158
728  2023-11-03 11:06:04.050038
729  2023-11-03 11:06:04.081944
730  2023-11-03 11:06:04.113857
731  2023-11-03 11:06:04.145784
732  2023-11-03 11:06:04.193656
733  2023-11-03 11:06:04.226573
734  2023-11-03 11:06:04.258509
735  2023-11-03 11:06:04.290351
736  2023-11-03 11:06:04.322307
737  2023-11-03 11:06:04.354214
738  2023-11-03 11:06:04.386132
739  2023-11-03 11:06:04.418010
740  2023-11-03 11:06:04.449983
741  2023-11-03 11:06:04.481889
742  2023-11-03 11:06:04.513785
743  2023-11-03 11:06:04.545702
744  2023-11-03 11:06:04.594583
745  2023-11-03 11:06:04.626483
746  2023-11-03 11:06:04.658409
747  2023-11-03 11:06:04.690316
748  2023-11-03 11:06:04.722242
749  2023-11-03 11:06:04.754149
750  2023-11-03 11:06:04.786099
751  2023-11-03 11:06:04.817973
752  2023-11-03 11:06:04.849891
753  2023-11-03 11:06:04.881771
754  2023-11-03 11:06:04.914730
755  2023-11-03 11:06:04.946666
756  2023-11-03 11:06:04.994505
757  2023-11-03 11:06:05.026438
758  2023-11-03 11:06:05.058351
759  2023-11-03 11:06:05.090255
760  2023-11-03 11:06:05.122176
761  2023-11-03 11:06:05.154085
762  2023-11-03 11:06:05.186016
763  2023-11-03 11:06:05.218923
764  2023-11-03 11:06:05.249835
765  2023-11-03 11:06:05.282237
766  2023-11-03 11:06:05.314188
767  2023-11-03 11:06:05.346111
768  2023-11-03 11:06:05.393973
769  2023-11-03 11:06:05.425903
770  2023-11-03 11:06:05.457812
771  2023-11-03 11:06:05.489713
772  2023-11-03 11:06:05.522595
773  2023-11-03 11:06:05.554555
774  2023-11-03 11:06:05.586468
775  2023-11-03 11:06:05.618373
776  2023-11-03 11:06:05.650253
777  2023-11-03 11:06:05.682212
778  2023-11-03 11:06:05.714165
779  2023-11-03 11:06:05.746049
780  2023-11-03 11:06:05.793916
781  2023-11-03 11:06:05.825817
782  2023-11-03 11:06:05.858696
783  2023-11-03 11:06:05.890624
784  2023-11-03 11:06:05.922526
785  2023-11-03 11:06:05.954442
786  2023-11-03 11:06:05.986396
787  2023-11-03 11:06:06.018296
788  2023-11-03 11:06:06.050186
789  2023-11-03 11:06:06.082101
790  2023-11-03 11:06:06.114079
791  2023-11-03 11:06:06.145969
792  2023-11-03 11:06:06.193860
793  2023-11-03 11:06:06.225744
794  2023-11-03 11:06:06.258667
795  2023-11-03 11:06:06.290593
796  2023-11-03 11:06:06.322459
797  2023-11-03 11:06:06.354373
798  2023-11-03 11:06:06.386317
799  2023-11-03 11:06:06.418238
800  2023-11-03 11:06:06.450125
801  2023-11-03 11:06:06.482032
802  2023-11-03 11:06:06.513985
803  2023-11-03 11:06:06.545903
804  2023-11-03 11:06:06.593783
805  2023-11-03 11:06:06.625679
806  2023-11-03 11:06:06.658561
807  2023-11-03 11:06:06.690475
808  2023-11-03 11:06:06.722390
809  2023-11-03 11:06:06.754305
810  2023-11-03 11:06:06.786219
811  2023-11-03 11:06:06.818134
812  2023-11-03 11:06:06.850049
813  2023-11-03 11:06:06.881964
814  2023-11-03 11:06:06.913878
815  2023-11-03 11:06:06.945793
816  2023-11-03 11:06:06.994662
817  2023-11-03 11:06:07.025614
818  2023-11-03 11:06:07.058492
819  2023-11-03 11:06:07.090406
820  2023-11-03 11:06:07.261948
821  2023-11-03 11:06:07.282937
822  2023-11-03 11:06:07.314807
823  2023-11-03 11:06:07.345810
824  2023-11-03 11:06:07.393692
825  2023-11-03 11:06:07.425606
826  2023-11-03 11:06:07.458518
827  2023-11-03 11:06:07.490435
828  2023-11-03 11:06:07.522348
829  2023-11-03 11:06:07.554262
830  2023-11-03 11:06:07.586177
831  2023-11-03 11:06:07.618092
832  2023-11-03 11:06:07.650007
833  2023-11-03 11:06:07.681921
834  2023-11-03 11:06:07.714866
835  2023-11-03 11:06:07.761708
836  2023-11-03 11:06:07.794629
837  2023-11-03 11:06:07.826535
838  2023-11-03 11:06:07.858450
839  2023-11-03 11:06:07.890364
840  2023-11-03 11:06:07.922323
841  2023-11-03 11:06:07.954194
842  2023-11-03 11:06:07.986212
843  2023-11-03 11:06:08.018068
844  2023-11-03 11:06:08.050061
845  2023-11-03 11:06:08.081941
846  2023-11-03 11:06:08.113856
847  2023-11-03 11:06:08.161728
848  2023-11-03 11:06:08.193643
849  2023-11-03 11:06:08.226560
850  2023-11-03 11:06:08.258503
851  2023-11-03 11:06:08.290429
852  2023-11-03 11:06:08.322299
853  2023-11-03 11:06:08.354213
854  2023-11-03 11:06:08.386162
855  2023-11-03 11:06:08.418044
856  2023-11-03 11:06:08.449967
857  2023-11-03 11:06:08.481872
858  2023-11-03 11:06:08.513834
859  2023-11-03 11:06:08.561659
860  2023-11-03 11:06:08.594605
861  2023-11-03 11:06:08.626516
862  2023-11-03 11:06:08.658401
863  2023-11-03 11:06:08.690315
864  2023-11-03 11:06:08.722321
865  2023-11-03 11:06:08.754176
866  2023-11-03 11:06:08.786059
867  2023-11-03 11:06:08.817974
868  2023-11-03 11:06:08.849922
869  2023-11-03 11:06:08.881804
870  2023-11-03 11:06:08.913718
871  2023-11-03 11:06:08.962588
872  2023-11-03 11:06:08.994503
873  2023-11-03 11:06:09.026417
874  2023-11-03 11:06:09.058332
875  2023-11-03 11:06:09.090247
876  2023-11-03 11:06:09.122161
877  2023-11-03 11:06:09.154076
878  2023-11-03 11:06:09.185991
879  2023-11-03 11:06:09.217905
880  2023-11-03 11:06:09.249820
881  2023-11-03 11:06:09.281735
882  2023-11-03 11:06:09.313650
883  2023-11-03 11:06:09.362519
884  2023-11-03 11:06:09.394434
885  2023-11-03 11:06:09.426351
886  2023-11-03 11:06:09.458314
887  2023-11-03 11:06:09.490178
888  2023-11-03 11:06:09.522092
889  2023-11-03 11:06:09.554051
890  2023-11-03 11:06:09.585957
891  2023-11-03 11:06:09.617837
892  2023-11-03 11:06:09.649751
893  2023-11-03 11:06:09.681666
894  2023-11-03 11:06:09.714578
895  2023-11-03 11:06:09.762488
896  2023-11-03 11:06:09.794365
897  2023-11-03 11:06:09.826280
898  2023-11-03 11:06:09.858194
899  2023-11-03 11:06:09.890114
900  2023-11-03 11:06:09.922024
901  2023-11-03 11:06:09.953938
902  2023-11-03 11:06:09.985853
903  2023-11-03 11:06:10.017768
904  2023-11-03 11:06:10.049683
905  2023-11-03 11:06:10.082595
906  2023-11-03 11:06:10.114510
907  2023-11-03 11:06:10.162444
908  2023-11-03 11:06:10.194296
909  2023-11-03 11:06:10.226211
910  2023-11-03 11:06:10.258126
911  2023-11-03 11:06:10.290047
912  2023-11-03 11:06:10.321955
913  2023-11-03 11:06:10.353870
914  2023-11-03 11:06:10.385784
915  2023-11-03 11:06:10.418697
916  2023-11-03 11:06:10.450611
917  2023-11-03 11:06:10.482526
918  2023-11-03 11:06:10.514441
919  2023-11-03 11:06:10.562313
920  2023-11-03 11:06:10.594229
921  2023-11-03 11:06:10.626220
922  2023-11-03 11:06:10.658057
923  2023-11-03 11:06:10.689972
924  2023-11-03 11:06:10.721918
925  2023-11-03 11:06:10.753834
926  2023-11-03 11:06:10.785716
927  2023-11-03 11:06:10.818628
928  2023-11-03 11:06:10.850543
929  2023-11-03 11:06:10.882487
930  2023-11-03 11:06:10.914372
931  2023-11-03 11:06:10.962276
932  2023-11-03 11:06:10.994159
933  2023-11-03 11:06:11.026073
934  2023-11-03 11:06:11.058031
935  2023-11-03 11:06:11.089935
936  2023-11-03 11:06:11.122815
937  2023-11-03 11:06:11.153732
938  2023-11-03 11:06:11.185647
939  2023-11-03 11:06:11.218683
940  2023-11-03 11:06:11.250600
941  2023-11-03 11:06:11.282512
942  2023-11-03 11:06:11.314426
943  2023-11-03 11:06:11.362298
944  2023-11-03 11:06:11.394213
945  2023-11-03 11:06:11.426163
946  2023-11-03 11:06:11.458042
947  2023-11-03 11:06:11.489957
948  2023-11-03 11:06:11.522869
949  2023-11-03 11:06:11.553787
950  2023-11-03 11:06:11.585702
951  2023-11-03 11:06:11.618616
952  2023-11-03 11:06:11.650528
953  2023-11-03 11:06:11.682443
954  2023-11-03 11:06:11.730475
955  2023-11-03 11:06:11.762350
956  2023-11-03 11:06:11.794265
957  2023-11-03 11:06:11.826180
958  2023-11-03 11:06:11.858094
959  2023-11-03 11:06:11.890009
960  2023-11-03 11:06:11.921924
961  2023-11-03 11:06:11.953838
962  2023-11-03 11:06:11.986751
963  2023-11-03 11:06:12.017668
964  2023-11-03 11:06:12.050580
965  2023-11-03 11:06:12.082495
966  2023-11-03 11:06:12.130375
967  2023-11-03 11:06:12.162283
968  2023-11-03 11:06:12.194196
969  2023-11-03 11:06:12.226121
970  2023-11-03 11:06:12.258027
971  2023-11-03 11:06:12.289940
972  2023-11-03 11:06:12.331868
973  2023-11-03 11:06:12.353770
974  2023-11-03 11:06:12.385685
975  2023-11-03 11:06:12.418645
976  2023-11-03 11:06:12.450511
977  2023-11-03 11:06:12.482426
978  2023-11-03 11:06:12.530441
979  2023-11-03 11:06:12.562325
980  2023-11-03 11:06:12.594264
981  2023-11-03 11:06:12.626154
982  2023-11-03 11:06:12.658069
983  2023-11-03 11:06:12.689985
984  2023-11-03 11:06:12.721929
985  2023-11-03 11:06:12.753844
986  2023-11-03 11:06:12.785728
987  2023-11-03 11:06:12.817642
988  2023-11-03 11:06:12.850591
989  2023-11-03 11:06:12.882513
990  2023-11-03 11:06:12.930371
991  2023-11-03 11:06:12.962293
992  2023-11-03 11:06:12.994171
993  2023-11-03 11:06:13.026085
994  2023-11-03 11:06:13.058000
995  2023-11-03 11:06:13.089915
996  2023-11-03 11:06:13.121830
997  2023-11-03 11:06:13.153744
998  2023-11-03 11:06:13.185659
999  2023-11-03 11:06:13.218571
1000  2023-11-03 11:06:13.250486
1001  2023-11-03 11:06:13.282400
1002  2023-11-03 11:06:13.330330
1003  2023-11-03 11:06:13.362187
1004  2023-11-03 11:06:13.394102
1005  2023-11-03 11:06:13.426017
1006  2023-11-03 11:06:13.457931
1007  2023-11-03 11:06:13.489846
1008  2023-11-03 11:06:13.521761
1009  2023-11-03 11:06:13.553675
1010  2023-11-03 11:06:13.586588
1011  2023-11-03 11:06:13.618502
1012  2023-11-03 11:06:13.650417
1013  2023-11-03 11:06:13.682332
1014  2023-11-03 11:06:13.730246
1015  2023-11-03 11:06:13.762120
1016  2023-11-03 11:06:13.794092
1017  2023-11-03 11:06:13.825948
1018  2023-11-03 11:06:13.857863
1019  2023-11-03 11:06:13.889777
1020  2023-11-03 11:06:13.921732
1021  2023-11-03 11:06:13.954604
1022  2023-11-03 11:06:13.986519
1023  2023-11-03 11:06:14.018433
1024  2023-11-03 11:06:14.050378
1025  2023-11-03 11:06:14.082263
1026  2023-11-03 11:06:14.130171
1027  2023-11-03 11:06:14.162050
1028  2023-11-03 11:06:14.193964
1029  2023-11-03 11:06:14.225879
1030  2023-11-03 11:06:14.257867
1031  2023-11-03 11:06:14.289709
1032  2023-11-03 11:06:14.322621
1033  2023-11-03 11:06:14.354535
1034  2023-11-03 11:06:14.386491
1035  2023-11-03 11:06:14.418365
1036  2023-11-03 11:06:14.450279
1037  2023-11-03 11:06:14.482194
1038  2023-11-03 11:06:14.530129
1039  2023-11-03 11:06:14.561981
1040  2023-11-03 11:06:14.593942
1041  2023-11-03 11:06:14.625858
1042  2023-11-03 11:06:14.658770
1043  2023-11-03 11:06:14.690686
1044  2023-11-03 11:06:14.722600
1045  2023-11-03 11:06:14.754514
1046  2023-11-03 11:06:14.786429
1047  2023-11-03 11:06:14.818344
1048  2023-11-03 11:06:14.850258
1049  2023-11-03 11:06:14.882173
1050  2023-11-03 11:06:14.930060
1051  2023-11-03 11:06:14.961975
1052  2023-11-03 11:06:14.993969
1053  2023-11-03 11:06:15.025884
1054  2023-11-03 11:06:15.057799
1055  2023-11-03 11:06:15.089713
1056  2023-11-03 11:06:15.121628
1057  2023-11-03 11:06:15.154540
1058  2023-11-03 11:06:15.186455
1059  2023-11-03 11:06:15.218370
1060  2023-11-03 11:06:15.250284
1061  2023-11-03 11:06:15.298217
1062  2023-11-03 11:06:15.330119
1063  2023-11-03 11:06:15.361986
1064  2023-11-03 11:06:15.393901
1065  2023-11-03 11:06:15.425815
1066  2023-11-03 11:06:15.457730
1067  2023-11-03 11:06:15.490648
1068  2023-11-03 11:06:15.522557
1069  2023-11-03 11:06:15.554472
1070  2023-11-03 11:06:15.586386
1071  2023-11-03 11:06:15.618301
1072  2023-11-03 11:06:15.650216
1073  2023-11-03 11:06:15.698129
1074  2023-11-03 11:06:15.730083
1075  2023-11-03 11:06:15.763055
1076  2023-11-03 11:06:15.793970
1077  2023-11-03 11:06:15.826884
1078  2023-11-03 11:06:15.858799
1079  2023-11-03 11:06:15.890713
1080  2023-11-03 11:06:15.922665
1081  2023-11-03 11:06:15.954575
1082  2023-11-03 11:06:15.986456
1083  2023-11-03 11:06:16.018371
1084  2023-11-03 11:06:16.050285
1085  2023-11-03 11:06:16.099199
1086  2023-11-03 11:06:16.130130
1087  2023-11-03 11:06:16.163028
1088  2023-11-03 11:06:16.194951
1089  2023-11-03 11:06:16.226940
1090  2023-11-03 11:06:16.258919
1091  2023-11-03 11:06:16.290836
1092  2023-11-03 11:06:16.322706
1093  2023-11-03 11:06:16.354652
1094  2023-11-03 11:06:16.386535
1095  2023-11-03 11:06:16.418482
1096  2023-11-03 11:06:16.450364
1097  2023-11-03 11:06:16.497905
1098  2023-11-03 11:06:16.530019
1099  2023-11-03 11:06:16.561903
1100  2023-11-03 11:06:16.593925
1101  2023-11-03 11:06:16.625855
1102  2023-11-03 11:06:16.657711
1103  2023-11-03 11:06:16.690624
1104  2023-11-03 11:06:16.722575
1105  2023-11-03 11:06:16.754483
1106  2023-11-03 11:06:16.786399
1107  2023-11-03 11:06:16.818314
1108  2023-11-03 11:06:16.850248
1109  2023-11-03 11:06:16.898069
1110  2023-11-03 11:06:16.930029
1111  2023-11-03 11:06:16.961931
1112  2023-11-03 11:06:16.994811
1113  2023-11-03 11:06:17.026725
1114  2023-11-03 11:06:17.058642
1115  2023-11-03 11:06:17.090555
1116  2023-11-03 11:06:17.122469
1117  2023-11-03 11:06:17.154384
1118  2023-11-03 11:06:17.186299
1119  2023-11-03 11:06:17.218247
1120  2023-11-03 11:06:17.250166
1121  2023-11-03 11:06:17.299030
1122  2023-11-03 11:06:17.330943
1123  2023-11-03 11:06:17.361829
1124  2023-11-03 11:06:17.411697
1125  2023-11-03 11:06:17.434637
1126  2023-11-03 11:06:17.458572
1127  2023-11-03 11:06:17.490531
1128  2023-11-03 11:06:17.522405
1129  2023-11-03 11:06:17.554330
1130  2023-11-03 11:06:17.586231
1131  2023-11-03 11:06:17.618145
1132  2023-11-03 11:06:17.650061
1133  2023-11-03 11:06:17.697997
1134  2023-11-03 11:06:17.730889
1135  2023-11-03 11:06:17.762792
1136  2023-11-03 11:06:17.793723
1137  2023-11-03 11:06:17.826587
1138  2023-11-03 11:06:17.858504
1139  2023-11-03 11:06:17.890450
1140  2023-11-03 11:06:17.922395
1141  2023-11-03 11:06:17.954246
1142  2023-11-03 11:06:17.986161
1143  2023-11-03 11:06:18.018114
1144  2023-11-03 11:06:18.050022
1145  2023-11-03 11:06:18.097864
1146  2023-11-03 11:06:18.130837
1147  2023-11-03 11:06:18.162689
1148  2023-11-03 11:06:18.194666
1149  2023-11-03 11:06:18.226561
1150  2023-11-03 11:06:18.258480
1151  2023-11-03 11:06:18.290407
1152  2023-11-03 11:06:18.322294
1153  2023-11-03 11:06:18.354214
1154  2023-11-03 11:06:18.386134
1155  2023-11-03 11:06:18.418049
1156  2023-11-03 11:06:18.449958
1157  2023-11-03 11:06:18.498830
1158  2023-11-03 11:06:18.530707
1159  2023-11-03 11:06:18.562621
1160  2023-11-03 11:06:18.594535
1161  2023-11-03 11:06:18.626499
1162  2023-11-03 11:06:18.658445
1163  2023-11-03 11:06:18.690315
1164  2023-11-03 11:06:18.722268
1165  2023-11-03 11:06:18.754182
1166  2023-11-03 11:06:18.786097
1167  2023-11-03 11:06:18.818054
1168  2023-11-03 11:06:18.849962
1169  2023-11-03 11:06:18.897844
1170  2023-11-03 11:06:18.929744
1171  2023-11-03 11:06:18.961631
1172  2023-11-03 11:06:18.994569
1173  2023-11-03 11:06:19.026454
1174  2023-11-03 11:06:19.058407
1175  2023-11-03 11:06:19.090309
1176  2023-11-03 11:06:19.122239
1177  2023-11-03 11:06:19.154187
1178  2023-11-03 11:06:19.186066
1179  2023-11-03 11:06:19.217943
1180  2023-11-03 11:06:19.265845
1181  2023-11-03 11:06:19.297762
1182  2023-11-03 11:06:19.329689
1183  2023-11-03 11:06:19.362556
1184  2023-11-03 11:06:19.394500
1185  2023-11-03 11:06:19.426437
1186  2023-11-03 11:06:19.458300
1187  2023-11-03 11:06:19.490280
1188  2023-11-03 11:06:19.522185
1189  2023-11-03 11:06:19.554106
1190  2023-11-03 11:06:19.585992
1191  2023-11-03 11:06:19.617874
1192  2023-11-03 11:06:19.665777
1193  2023-11-03 11:06:19.697719
1194  2023-11-03 11:06:19.730631
1195  2023-11-03 11:06:19.762520
1196  2023-11-03 11:06:19.794402
1197  2023-11-03 11:06:19.826317
1198  2023-11-03 11:06:19.858264
1199  2023-11-03 11:06:19.890216
1200  2023-11-03 11:06:19.922106
1201  2023-11-03 11:06:19.954010
1202  2023-11-03 11:06:19.986051
1203  2023-11-03 11:06:20.018005
1204  2023-11-03 11:06:20.065869
1205  2023-11-03 11:06:20.098684
1206  2023-11-03 11:06:20.130640
1207  2023-11-03 11:06:20.162577
1208  2023-11-03 11:06:20.194560
1209  2023-11-03 11:06:20.226480
1210  2023-11-03 11:06:20.258522
1211  2023-11-03 11:06:20.290445
1212  2023-11-03 11:06:20.322363
1213  2023-11-03 11:06:20.354276
1214  2023-11-03 11:06:20.386199
1215  2023-11-03 11:06:20.418062
1216  2023-11-03 11:06:20.465980
1217  2023-11-03 11:06:20.497883
1218  2023-11-03 11:06:20.529810
1219  2023-11-03 11:06:20.561712
1220  2023-11-03 11:06:20.594624
1221  2023-11-03 11:06:20.626548
1222  2023-11-03 11:06:20.658420
1223  2023-11-03 11:06:20.690379
1224  2023-11-03 11:06:20.722282
1225  2023-11-03 11:06:20.754197
1226  2023-11-03 11:06:20.786135
1227  2023-11-03 11:06:20.817993
1228  2023-11-03 11:06:20.866005
1229  2023-11-03 11:06:20.897895
1230  2023-11-03 11:06:20.929828
1231  2023-11-03 11:06:20.961686
1232  2023-11-03 11:06:20.994680
1233  2023-11-03 11:06:21.026556
1234  2023-11-03 11:06:21.058471
1235  2023-11-03 11:06:21.090384
1236  2023-11-03 11:06:21.122301
1237  2023-11-03 11:06:21.154217
1238  2023-11-03 11:06:21.186142
1239  2023-11-03 11:06:21.218002
1240  2023-11-03 11:06:21.265904
1241  2023-11-03 11:06:21.297819
1242  2023-11-03 11:06:21.330738
1243  2023-11-03 11:06:21.362661
1244  2023-11-03 11:06:21.394567
1245  2023-11-03 11:06:21.426479
1246  2023-11-03 11:06:21.458361
1247  2023-11-03 11:06:21.490274
1248  2023-11-03 11:06:21.522363
1249  2023-11-03 11:06:21.554272
1250  2023-11-03 11:06:21.586194
1251  2023-11-03 11:06:21.618071
1252  2023-11-03 11:06:21.666093
1253  2023-11-03 11:06:21.698095
1254  2023-11-03 11:06:21.729975
1255  2023-11-03 11:06:21.761893
1256  2023-11-03 11:06:21.793815
1257  2023-11-03 11:06:21.825793
1258  2023-11-03 11:06:21.858192
1259  2023-11-03 11:06:21.890133
1260  2023-11-03 11:06:21.922179
1261  2023-11-03 11:06:21.954078
1262  2023-11-03 11:06:21.985995
1263  2023-11-03 11:06:22.017919
1264  2023-11-03 11:06:22.065775
1265  2023-11-03 11:06:22.098652
1266  2023-11-03 11:06:22.130601
1267  2023-11-03 11:06:22.162533
1268  2023-11-03 11:06:22.194423
1269  2023-11-03 11:06:22.226357
1270  2023-11-03 11:06:22.258219
1271  2023-11-03 11:06:22.290134
1272  2023-11-03 11:06:22.322110
1273  2023-11-03 11:06:22.354007
1274  2023-11-03 11:06:22.385912
1275  2023-11-03 11:06:22.417792
1276  2023-11-03 11:06:22.465715
1277  2023-11-03 11:06:22.498640
1278  2023-11-03 11:06:22.530536
1279  2023-11-03 11:06:22.562449
1280  2023-11-03 11:06:22.594355
1281  2023-11-03 11:06:22.626281
1282  2023-11-03 11:06:22.658150
1283  2023-11-03 11:06:22.690145
1284  2023-11-03 11:06:22.722015
1285  2023-11-03 11:06:22.754894
1286  2023-11-03 11:06:22.785856
1287  2023-11-03 11:06:22.834679
1288  2023-11-03 11:06:22.866652
1289  2023-11-03 11:06:22.898542
1290  2023-11-03 11:06:22.930423
1291  2023-11-03 11:06:22.971314
1292  2023-11-03 11:06:22.994293
1293  2023-11-03 11:06:23.026199
1294  2023-11-03 11:06:23.058090
1295  2023-11-03 11:06:23.089997
1296  2023-11-03 11:06:23.121960
1297  2023-11-03 11:06:23.154853
1298  2023-11-03 11:06:23.185816
1299  2023-11-03 11:06:23.233773
1300  2023-11-03 11:06:23.266707
1301  2023-11-03 11:06:23.298593
1302  2023-11-03 11:06:23.330499
1303  2023-11-03 11:06:23.361994
1304  2023-11-03 11:06:23.393879
1305  2023-11-03 11:06:23.425880
1306  2023-11-03 11:06:23.458790
1307  2023-11-03 11:06:23.490677
1308  2023-11-03 11:06:23.522628
1309  2023-11-03 11:06:23.554589
1310  2023-11-03 11:06:23.586468
1311  2023-11-03 11:06:23.634324
1312  2023-11-03 11:06:23.666238
1313  2023-11-03 11:06:23.698182
1314  2023-11-03 11:06:23.730093
1315  2023-11-03 11:06:23.761987
1316  2023-11-03 11:06:23.793912
1317  2023-11-03 11:06:23.825825
1318  2023-11-03 11:06:23.858750
1319  2023-11-03 11:06:23.890606
1320  2023-11-03 11:06:23.922520
1321  2023-11-03 11:06:23.954500
1322  2023-11-03 11:06:23.986555
1323  2023-11-03 11:06:24.034416
1324  2023-11-03 11:06:24.066346
1325  2023-11-03 11:06:24.098293
1326  2023-11-03 11:06:24.130289
1327  2023-11-03 11:06:24.162160
1328  2023-11-03 11:06:24.194124
1329  2023-11-03 11:06:24.226029
1330  2023-11-03 11:06:24.257963
1331  2023-11-03 11:06:24.289870
1332  2023-11-03 11:06:24.321734
1333  2023-11-03 11:06:24.353729
1334  2023-11-03 11:06:24.386680
1335  2023-11-03 11:06:24.434508
1336  2023-11-03 11:06:24.466442
1337  2023-11-03 11:06:24.498365
1338  2023-11-03 11:06:24.530397
1339  2023-11-03 11:06:24.562278
1340  2023-11-03 11:06:24.594228
1341  2023-11-03 11:06:24.626166
1342  2023-11-03 11:06:24.658098
1343  2023-11-03 11:06:24.689970
1344  2023-11-03 11:06:24.721887
1345  2023-11-03 11:06:24.753817
1346  2023-11-03 11:06:24.786710
1347  2023-11-03 11:06:24.834601
1348  2023-11-03 11:06:24.866518
1349  2023-11-03 11:06:24.898543
1350  2023-11-03 11:06:24.930420
1351  2023-11-03 11:06:24.962369
1352  2023-11-03 11:06:24.994296
1353  2023-11-03 11:06:25.026208
1354  2023-11-03 11:06:25.058146
1355  2023-11-03 11:06:25.089992
1356  2023-11-03 11:06:25.121907
1357  2023-11-03 11:06:25.153869
1358  2023-11-03 11:06:25.185767
1359  2023-11-03 11:06:25.234644
1360  2023-11-03 11:06:25.266565
1361  2023-11-03 11:06:25.298483
1362  2023-11-03 11:06:25.330386
1363  2023-11-03 11:06:25.362265
1364  2023-11-03 11:06:25.394224
1365  2023-11-03 11:06:25.426135
1366  2023-11-03 11:06:25.458043
1367  2023-11-03 11:06:25.489924
1368  2023-11-03 11:06:25.521838
1369  2023-11-03 11:06:25.553784
1370  2023-11-03 11:06:25.586665
1371  2023-11-03 11:06:25.634575
1372  2023-11-03 11:06:25.666483
1373  2023-11-03 11:06:25.698411
1374  2023-11-03 11:06:25.730306
1375  2023-11-03 11:06:25.762196
1376  2023-11-03 11:06:25.794167
1377  2023-11-03 11:06:25.826079
1378  2023-11-03 11:06:25.858006
1379  2023-11-03 11:06:25.889855
1380  2023-11-03 11:06:25.921769
1381  2023-11-03 11:06:25.953714
1382  2023-11-03 11:06:25.986596
1383  2023-11-03 11:06:26.034469
1384  2023-11-03 11:06:26.066418
1385  2023-11-03 11:06:26.098338
1386  2023-11-03 11:06:26.130257
1387  2023-11-03 11:06:26.162127
1388  2023-11-03 11:06:26.194042
1389  2023-11-03 11:06:26.226019
1390  2023-11-03 11:06:26.258870
1391  2023-11-03 11:06:26.290785
1392  2023-11-03 11:06:26.322698
1393  2023-11-03 11:06:26.354613
1394  2023-11-03 11:06:26.402517
1395  2023-11-03 11:06:26.434426
1396  2023-11-03 11:06:26.466315
1397  2023-11-03 11:06:26.498283
1398  2023-11-03 11:06:26.530327
1399  2023-11-03 11:06:26.562209
1400  2023-11-03 11:06:26.594154
1401  2023-11-03 11:06:26.626039
1402  2023-11-03 11:06:26.657953
1403  2023-11-03 11:06:26.690865
1404  2023-11-03 11:06:26.721830
1405  2023-11-03 11:06:26.753746
1406  2023-11-03 11:06:26.802602
1407  2023-11-03 11:06:26.834512
1408  2023-11-03 11:06:26.866482
1409  2023-11-03 11:06:26.898468
1410  2023-11-03 11:06:26.930382
1411  2023-11-03 11:06:26.962303
1412  2023-11-03 11:06:26.994177
1413  2023-11-03 11:06:27.026099
1414  2023-11-03 11:06:27.058078
1415  2023-11-03 11:06:27.089949
1416  2023-11-03 11:06:27.121836
1417  2023-11-03 11:06:27.153750
1418  2023-11-03 11:06:27.202657
1419  2023-11-03 11:06:27.234613
1420  2023-11-03 11:06:27.266497
1421  2023-11-03 11:06:27.298408
1422  2023-11-03 11:06:27.330309
1423  2023-11-03 11:06:27.362195
1424  2023-11-03 11:06:27.394109
1425  2023-11-03 11:06:27.426024
1426  2023-11-03 11:06:27.457939
1427  2023-11-03 11:06:27.490851
1428  2023-11-03 11:06:27.521768
1429  2023-11-03 11:06:27.554680
1430  2023-11-03 11:06:27.602600
1431  2023-11-03 11:06:27.634497
1432  2023-11-03 11:06:27.666411
1433  2023-11-03 11:06:27.698328
1434  2023-11-03 11:06:27.730253
1435  2023-11-03 11:06:27.762126
1436  2023-11-03 11:06:27.794041
1437  2023-11-03 11:06:27.825955
1438  2023-11-03 11:06:27.857871
1439  2023-11-03 11:06:27.889785
1440  2023-11-03 11:06:27.922696
1441  2023-11-03 11:06:27.954612
1442  2023-11-03 11:06:28.002513
1443  2023-11-03 11:06:28.034441
1444  2023-11-03 11:06:28.066338
1445  2023-11-03 11:06:28.098264
1446  2023-11-03 11:06:28.130188
1447  2023-11-03 11:06:28.162059
1448  2023-11-03 11:06:28.193972
1449  2023-11-03 11:06:28.225887
1450  2023-11-03 11:06:28.257831
1451  2023-11-03 11:06:28.289716
1452  2023-11-03 11:06:28.322628
1453  2023-11-03 11:06:28.354543
1454  2023-11-03 11:06:28.402457
1455  2023-11-03 11:06:28.434360
1456  2023-11-03 11:06:28.466276
1457  2023-11-03 11:06:28.498199
1458  2023-11-03 11:06:28.530074
1459  2023-11-03 11:06:28.573960
1460  2023-11-03 11:06:28.594899
1461  2023-11-03 11:06:28.625818
1462  2023-11-03 11:06:28.658730
1463  2023-11-03 11:06:28.690645
1464  2023-11-03 11:06:28.722559
1465  2023-11-03 11:06:28.754504
1466  2023-11-03 11:06:28.802376
1467  2023-11-03 11:06:28.834306
1468  2023-11-03 11:06:28.866230
1469  2023-11-03 11:06:28.898149
1470  2023-11-03 11:06:28.930038
1471  2023-11-03 11:06:28.961920
1472  2023-11-03 11:06:28.993834
1473  2023-11-03 11:06:29.026747
1474  2023-11-03 11:06:29.058661
1475  2023-11-03 11:06:29.090576
1476  2023-11-03 11:06:29.122491
1477  2023-11-03 11:06:29.154405
1478  2023-11-03 11:06:29.202310
1479  2023-11-03 11:06:29.234193
1480  2023-11-03 11:06:29.266174
1481  2023-11-03 11:06:29.298057
1482  2023-11-03 11:06:29.329968
1483  2023-11-03 11:06:29.361851
1484  2023-11-03 11:06:29.393766
1485  2023-11-03 11:06:29.426705
1486  2023-11-03 11:06:29.458621
1487  2023-11-03 11:06:29.490507
1488  2023-11-03 11:06:29.522422
1489  2023-11-03 11:06:29.554365
1490  2023-11-03 11:06:29.602241
1491  2023-11-03 11:06:29.634161
1492  2023-11-03 11:06:29.666105
1493  2023-11-03 11:06:29.697986
1494  2023-11-03 11:06:29.729920
1495  2023-11-03 11:06:29.762828
1496  2023-11-03 11:06:29.794724
1497  2023-11-03 11:06:29.826610
1498  2023-11-03 11:06:29.858524
1499  2023-11-03 11:06:29.890471
1500  2023-11-03 11:06:29.922387
1501  2023-11-03 11:06:29.954268
1502  2023-11-03 11:06:30.002180
1503  2023-11-03 11:06:30.034099
1504  2023-11-03 11:06:30.066043
1505  2023-11-03 11:06:30.098007
1506  2023-11-03 11:06:30.129937
1507  2023-11-03 11:06:30.162802
1508  2023-11-03 11:06:30.194718
1509  2023-11-03 11:06:30.225635
1510  2023-11-03 11:06:30.258547
1511  2023-11-03 11:06:30.290461
1512  2023-11-03 11:06:30.322376
1513  2023-11-03 11:06:30.370286
1514  2023-11-03 11:06:30.402228
1515  2023-11-03 11:06:30.434129
1516  2023-11-03 11:06:30.466026
1517  2023-11-03 11:06:30.497936
1518  2023-11-03 11:06:30.529854
1519  2023-11-03 11:06:30.562734
1520  2023-11-03 11:06:30.594648
1521  2023-11-03 11:06:30.626564
1522  2023-11-03 11:06:30.658478
1523  2023-11-03 11:06:30.690537
1524  2023-11-03 11:06:30.722451
1525  2023-11-03 11:06:30.770376
1526  2023-11-03 11:06:30.802284
1527  2023-11-03 11:06:30.834186
1528  2023-11-03 11:06:30.866113
1529  2023-11-03 11:06:30.898009
1530  2023-11-03 11:06:30.929945
1531  2023-11-03 11:06:30.962809
1532  2023-11-03 11:06:30.994724
1533  2023-11-03 11:06:31.026639
1534  2023-11-03 11:06:31.058553
1535  2023-11-03 11:06:31.090468
1536  2023-11-03 11:06:31.122383
1537  2023-11-03 11:06:31.170287
1538  2023-11-03 11:06:31.202202
1539  2023-11-03 11:06:31.234135
1540  2023-11-03 11:06:31.266048
1541  2023-11-03 11:06:31.297948
1542  2023-11-03 11:06:31.329868
1543  2023-11-03 11:06:31.362740
1544  2023-11-03 11:06:31.394666
1545  2023-11-03 11:06:31.426570
1546  2023-11-03 11:06:31.458484
1547  2023-11-03 11:06:31.490399
1548  2023-11-03 11:06:31.522314
1549  2023-11-03 11:06:31.570232
1550  2023-11-03 11:06:31.602153
1551  2023-11-03 11:06:31.634056
1552  2023-11-03 11:06:31.665967
1553  2023-11-03 11:06:31.697876
1554  2023-11-03 11:06:31.730790
1555  2023-11-03 11:06:31.761706
1556  2023-11-03 11:06:31.794642
1557  2023-11-03 11:06:31.826501
1558  2023-11-03 11:06:31.858416
1559  2023-11-03 11:06:31.890364
1560  2023-11-03 11:06:31.922281
1561  2023-11-03 11:06:31.970151
1562  2023-11-03 11:06:32.002091
1563  2023-11-03 11:06:32.033981
1564  2023-11-03 11:06:32.066889
1565  2023-11-03 11:06:32.097812
1566  2023-11-03 11:06:32.130723
1567  2023-11-03 11:06:32.162603
1568  2023-11-03 11:06:32.194518
1569  2023-11-03 11:06:32.226432
1570  2023-11-03 11:06:32.258347
1571  2023-11-03 11:06:32.290262
1572  2023-11-03 11:06:32.322176
1573  2023-11-03 11:06:32.370095
1574  2023-11-03 11:06:32.402000
1575  2023-11-03 11:06:32.433908
1576  2023-11-03 11:06:32.465824
1577  2023-11-03 11:06:32.498707
1578  2023-11-03 11:06:32.530674
1579  2023-11-03 11:06:32.562534
1580  2023-11-03 11:06:32.594647
1581  2023-11-03 11:06:32.626562
1582  2023-11-03 11:06:32.658477
1583  2023-11-03 11:06:32.690477
1584  2023-11-03 11:06:32.722392
1585  2023-11-03 11:06:32.770299
1586  2023-11-03 11:06:32.802211
1587  2023-11-03 11:06:32.834175
1588  2023-11-03 11:06:32.866074
1589  2023-11-03 11:06:32.898072
1590  2023-11-03 11:06:32.929976
1591  2023-11-03 11:06:32.962856
1592  2023-11-03 11:06:32.993773
1593  2023-11-03 11:06:33.026685
1594  2023-11-03 11:06:33.058600
1595  2023-11-03 11:06:33.090515
1596  2023-11-03 11:06:33.122430
1597  2023-11-03 11:06:33.170304
1598  2023-11-03 11:06:33.202249
1599  2023-11-03 11:06:33.234207
1600  2023-11-03 11:06:33.266085
1601  2023-11-03 11:06:33.298009
1602  2023-11-03 11:06:33.329913
1603  2023-11-03 11:06:33.361790
1604  2023-11-03 11:06:33.394702
1605  2023-11-03 11:06:33.426652
1606  2023-11-03 11:06:33.458562
1607  2023-11-03 11:06:33.490446
1608  2023-11-03 11:06:33.522361
1609  2023-11-03 11:06:33.570267
1610  2023-11-03 11:06:33.602188
1611  2023-11-03 11:06:33.634101
1612  2023-11-03 11:06:33.666035
1613  2023-11-03 11:06:33.697924
1614  2023-11-03 11:06:33.730806
1615  2023-11-03 11:06:33.761757
1616  2023-11-03 11:06:33.794666
1617  2023-11-03 11:06:33.826548
1618  2023-11-03 11:06:33.858463
1619  2023-11-03 11:06:33.890413
1620  2023-11-03 11:06:33.938287
1621  2023-11-03 11:06:33.970214
1622  2023-11-03 11:06:34.002131
1623  2023-11-03 11:06:34.034031
1624  2023-11-03 11:06:34.065941
1625  2023-11-03 11:06:34.097857
1626  2023-11-03 11:06:34.130736
1627  2023-11-03 11:06:34.162696
1628  2023-11-03 11:06:34.194564
1629  2023-11-03 11:06:34.226597
1630  2023-11-03 11:06:34.258511
1631  2023-11-03 11:06:34.290426
1632  2023-11-03 11:06:34.338336
1633  2023-11-03 11:06:34.370242
1634  2023-11-03 11:06:34.402160
1635  2023-11-03 11:06:34.434079
1636  2023-11-03 11:06:34.465990
1637  2023-11-03 11:06:34.498870
1638  2023-11-03 11:06:34.530786
1639  2023-11-03 11:06:34.561701
1640  2023-11-03 11:06:34.594613
1641  2023-11-03 11:06:34.626528
1642  2023-11-03 11:06:34.658443
1643  2023-11-03 11:06:34.690357
1644  2023-11-03 11:06:34.738282
1645  2023-11-03 11:06:34.770184
1646  2023-11-03 11:06:34.802108
1647  2023-11-03 11:06:34.835003
1648  2023-11-03 11:06:34.865920
1649  2023-11-03 11:06:34.897835
1650  2023-11-03 11:06:34.930716
1651  2023-11-03 11:06:34.962653
1652  2023-11-03 11:06:34.995578
1653  2023-11-03 11:06:35.027498
1654  2023-11-03 11:06:35.059403
1655  2023-11-03 11:06:35.091320
1656  2023-11-03 11:06:35.139193
1657  2023-11-03 11:06:35.171103
1658  2023-11-03 11:06:35.203020
1659  2023-11-03 11:06:35.234904
1660  2023-11-03 11:06:35.266865
1661  2023-11-03 11:06:35.298774
1662  2023-11-03 11:06:35.330725
1663  2023-11-03 11:06:35.362561
1664  2023-11-03 11:06:35.394476
1665  2023-11-03 11:06:35.427423
1666  2023-11-03 11:06:35.458305
1667  2023-11-03 11:06:35.491251
1668  2023-11-03 11:06:35.539132
1669  2023-11-03 11:06:35.571082
1670  2023-11-03 11:06:35.602993
1671  2023-11-03 11:06:35.634929
1672  2023-11-03 11:06:35.666837
1673  2023-11-03 11:06:35.698776
1674  2023-11-03 11:06:35.730657
1675  2023-11-03 11:06:35.762570
1676  2023-11-03 11:06:35.794484
1677  2023-11-03 11:06:35.826424
1678  2023-11-03 11:06:35.858319
1679  2023-11-03 11:06:35.890205
1680  2023-11-03 11:06:35.938070
1681  2023-11-03 11:06:35.970017
1682  2023-11-03 11:06:36.001962
1683  2023-11-03 11:06:36.034843
1684  2023-11-03 11:06:36.066783
1685  2023-11-03 11:06:36.098696
1686  2023-11-03 11:06:36.130621
1687  2023-11-03 11:06:36.162689
1688  2023-11-03 11:06:36.194666
1689  2023-11-03 11:06:36.226521
1690  2023-11-03 11:06:36.258430
1691  2023-11-03 11:06:36.290344
1692  2023-11-03 11:06:36.338185
1693  2023-11-03 11:06:36.370157
1694  2023-11-03 11:06:36.402056
1695  2023-11-03 11:06:36.434928
1696  2023-11-03 11:06:36.466881
1697  2023-11-03 11:06:36.498907
1698  2023-11-03 11:06:36.529928
1699  2023-11-03 11:06:36.561821
1700  2023-11-03 11:06:36.594882
1701  2023-11-03 11:06:36.626805
1702  2023-11-03 11:06:36.659724
1703  2023-11-03 11:06:36.690706
1704  2023-11-03 11:06:36.738694
1705  2023-11-03 11:06:36.770614
1706  2023-11-03 11:06:36.803564
1707  2023-11-03 11:06:36.834440
1708  2023-11-03 11:06:36.866383
1709  2023-11-03 11:06:36.899295
1710  2023-11-03 11:06:36.931213
1711  2023-11-03 11:06:36.963137
1712  2023-11-03 11:06:36.994024
1713  2023-11-03 11:06:37.025959
1714  2023-11-03 11:06:37.058913
1715  2023-11-03 11:06:37.090801
1716  2023-11-03 11:06:37.138686
1717  2023-11-03 11:06:37.170597
1718  2023-11-03 11:06:37.202505
1719  2023-11-03 11:06:37.234419
1720  2023-11-03 11:06:37.266325
1721  2023-11-03 11:06:37.298271
1722  2023-11-03 11:06:37.330265
1723  2023-11-03 11:06:37.362142
1724  2023-11-03 11:06:37.394056
1725  2023-11-03 11:06:37.426022
1726  2023-11-03 11:06:37.458924
1727  2023-11-03 11:06:37.490798
1728  2023-11-03 11:06:37.538719
1729  2023-11-03 11:06:37.570652
1730  2023-11-03 11:06:37.602529
1731  2023-11-03 11:06:37.634456
1732  2023-11-03 11:06:37.666370
1733  2023-11-03 11:06:37.698296
1734  2023-11-03 11:06:37.730182
1735  2023-11-03 11:06:37.762172
1736  2023-11-03 11:06:37.794022
1737  2023-11-03 11:06:37.825951
1738  2023-11-03 11:06:37.857920
1739  2023-11-03 11:06:37.905828
1740  2023-11-03 11:06:37.937739
1741  2023-11-03 11:06:37.970663
1742  2023-11-03 11:06:38.002533
1743  2023-11-03 11:06:38.034486
1744  2023-11-03 11:06:38.066405
1745  2023-11-03 11:06:38.098308
1746  2023-11-03 11:06:38.130237
1747  2023-11-03 11:06:38.162150
1748  2023-11-03 11:06:38.194052
1749  2023-11-03 11:06:38.225936
1750  2023-11-03 11:06:38.257974
1751  2023-11-03 11:06:38.305870
1752  2023-11-03 11:06:38.337777
1753  2023-11-03 11:06:38.369818
1754  2023-11-03 11:06:38.401717
1755  2023-11-03 11:06:38.434629
1756  2023-11-03 11:06:38.466542
1757  2023-11-03 11:06:38.498448
1758  2023-11-03 11:06:38.530384
1759  2023-11-03 11:06:38.562248
1760  2023-11-03 11:06:38.594211
1761  2023-11-03 11:06:38.626127
1762  2023-11-03 11:06:38.658035
1763  2023-11-03 11:06:38.705897
1764  2023-11-03 11:06:38.737809
1765  2023-11-03 11:06:38.770739
1766  2023-11-03 11:06:38.802685
1767  2023-11-03 11:06:38.834715
1768  2023-11-03 11:06:38.866621
1769  2023-11-03 11:06:38.898527
1770  2023-11-03 11:06:38.930438
1771  2023-11-03 11:06:38.962321
1772  2023-11-03 11:06:38.994283
1773  2023-11-03 11:06:39.026188
1774  2023-11-03 11:06:39.058280
1775  2023-11-03 11:06:39.106165
1776  2023-11-03 11:06:39.138063
1777  2023-11-03 11:06:39.169987
1778  2023-11-03 11:06:39.201901
1779  2023-11-03 11:06:39.233814
1780  2023-11-03 11:06:39.265714
1781  2023-11-03 11:06:39.298635
1782  2023-11-03 11:06:39.330563
1783  2023-11-03 11:06:39.362465
1784  2023-11-03 11:06:39.394379
1785  2023-11-03 11:06:39.426305
1786  2023-11-03 11:06:39.458182
1787  2023-11-03 11:06:39.507042
1788  2023-11-03 11:06:39.537990
1789  2023-11-03 11:06:39.569915
1790  2023-11-03 11:06:39.601833
1791  2023-11-03 11:06:39.634754
1792  2023-11-03 11:06:39.666614
1793  2023-11-03 11:06:39.698569
1794  2023-11-03 11:06:39.730491
1795  2023-11-03 11:06:39.787289
1796  2023-11-03 11:06:39.812236
1797  2023-11-03 11:06:39.826228
1798  2023-11-03 11:06:39.858099
1799  2023-11-03 11:06:39.906011
1800  2023-11-03 11:06:39.937936
1801  2023-11-03 11:06:39.970833
1802  2023-11-03 11:06:40.002773
1803  2023-11-03 11:06:40.034688
1804  2023-11-03 11:06:40.066596
1805  2023-11-03 11:06:40.098495
1806  2023-11-03 11:06:40.130412
1807  2023-11-03 11:06:40.162286
1808  2023-11-03 11:06:40.194230
1809  2023-11-03 11:06:40.226122
1810  2023-11-03 11:06:40.258412
1811  2023-11-03 11:06:40.306355
1812  2023-11-03 11:06:40.338318
1813  2023-11-03 11:06:40.370259
1814  2023-11-03 11:06:40.402181
1815  2023-11-03 11:06:40.434119
1816  2023-11-03 11:06:40.466003
1817  2023-11-03 11:06:40.497931
1818  2023-11-03 11:06:40.529839
1819  2023-11-03 11:06:40.562739
1820  2023-11-03 11:06:40.594666
1821  2023-11-03 11:06:40.626582
1822  2023-11-03 11:06:40.658495
1823  2023-11-03 11:06:40.706454
1824  2023-11-03 11:06:40.738369
1825  2023-11-03 11:06:40.770296
1826  2023-11-03 11:06:40.802229
1827  2023-11-03 11:06:40.834113
1828  2023-11-03 11:06:40.866035
1829  2023-11-03 11:06:40.897970
1830  2023-11-03 11:06:40.929856
1831  2023-11-03 11:06:40.962788
1832  2023-11-03 11:06:40.994707
1833  2023-11-03 11:06:41.026628
1834  2023-11-03 11:06:41.058735
1835  2023-11-03 11:06:41.106549
1836  2023-11-03 11:06:41.138464
1837  2023-11-03 11:06:41.170389
1838  2023-11-03 11:06:41.202305
1839  2023-11-03 11:06:41.234207
1840  2023-11-03 11:06:41.266134
1841  2023-11-03 11:06:41.298059
1842  2023-11-03 11:06:41.329975
1843  2023-11-03 11:06:41.362862
1844  2023-11-03 11:06:41.393781
1845  2023-11-03 11:06:41.425697
1846  2023-11-03 11:06:41.474575
1847  2023-11-03 11:06:41.506485
1848  2023-11-03 11:06:41.538393
1849  2023-11-03 11:06:41.570312
1850  2023-11-03 11:06:41.602225
1851  2023-11-03 11:06:41.634188
1852  2023-11-03 11:06:41.666023
1853  2023-11-03 11:06:41.697986
1854  2023-11-03 11:06:41.729897
1855  2023-11-03 11:06:41.761812
1856  2023-11-03 11:06:41.794679
1857  2023-11-03 11:06:41.826643
1858  2023-11-03 11:06:41.874500
1859  2023-11-03 11:06:41.906410
1860  2023-11-03 11:06:41.938329
1861  2023-11-03 11:06:41.970259
1862  2023-11-03 11:06:42.002126
1863  2023-11-03 11:06:42.034078
1864  2023-11-03 11:06:42.066015
1865  2023-11-03 11:06:42.097908
1866  2023-11-03 11:06:42.129782
1867  2023-11-03 11:06:42.162778
1868  2023-11-03 11:06:42.194672
1869  2023-11-03 11:06:42.226572
1870  2023-11-03 11:06:42.274446
1871  2023-11-03 11:06:42.306353
1872  2023-11-03 11:06:42.338258
1873  2023-11-03 11:06:42.370179
1874  2023-11-03 11:06:42.402125
1875  2023-11-03 11:06:42.434025
1876  2023-11-03 11:06:42.465937
1877  2023-11-03 11:06:42.497847
1878  2023-11-03 11:06:42.530738
1879  2023-11-03 11:06:42.562689
1880  2023-11-03 11:06:42.594590
1881  2023-11-03 11:06:42.626508
1882  2023-11-03 11:06:42.674368
1883  2023-11-03 11:06:42.706279
1884  2023-11-03 11:06:42.738184
1885  2023-11-03 11:06:42.770129
1886  2023-11-03 11:06:42.802041
1887  2023-11-03 11:06:42.833949
1888  2023-11-03 11:06:42.866843
1889  2023-11-03 11:06:42.897778
1890  2023-11-03 11:06:42.930701
1891  2023-11-03 11:06:42.962557
1892  2023-11-03 11:06:42.994513
1893  2023-11-03 11:06:43.026417
1894  2023-11-03 11:06:43.074298
1895  2023-11-03 11:06:43.106214
1896  2023-11-03 11:06:43.138138
1897  2023-11-03 11:06:43.170037
1898  2023-11-03 11:06:43.201967
1899  2023-11-03 11:06:43.233872
1900  2023-11-03 11:06:43.265774
1901  2023-11-03 11:06:43.298692
1902  2023-11-03 11:06:43.330613
1903  2023-11-03 11:06:43.362488
1904  2023-11-03 11:06:43.394448
1905  2023-11-03 11:06:43.426369
1906  2023-11-03 11:06:43.474234
1907  2023-11-03 11:06:43.506139
1908  2023-11-03 11:06:43.538058
1909  2023-11-03 11:06:43.569981
1910  2023-11-03 11:06:43.601888
1911  2023-11-03 11:06:43.633809
1912  2023-11-03 11:06:43.666709
1913  2023-11-03 11:06:43.698644
1914  2023-11-03 11:06:43.730570
1915  2023-11-03 11:06:43.762489
1916  2023-11-03 11:06:43.794455
1917  2023-11-03 11:06:43.826321
1918  2023-11-03 11:06:43.874219
1919  2023-11-03 11:06:43.906154
1920  2023-11-03 11:06:43.938060
1921  2023-11-03 11:06:43.969969
1922  2023-11-03 11:06:44.002848
1923  2023-11-03 11:06:44.033820
1924  2023-11-03 11:06:44.066708
1925  2023-11-03 11:06:44.098617
1926  2023-11-03 11:06:44.130507
1927  2023-11-03 11:06:44.162419
1928  2023-11-03 11:06:44.194368
1929  2023-11-03 11:06:44.226307
1930  2023-11-03 11:06:44.274197
1931  2023-11-03 11:06:44.306074
1932  2023-11-03 11:06:44.338005
1933  2023-11-03 11:06:44.369895
1934  2023-11-03 11:06:44.401830
1935  2023-11-03 11:06:44.433746
1936  2023-11-03 11:06:44.466661
1937  2023-11-03 11:06:44.498562
1938  2023-11-03 11:06:44.530466
1939  2023-11-03 11:06:44.562351
1940  2023-11-03 11:06:44.594310
1941  2023-11-03 11:06:44.626249
1942  2023-11-03 11:06:44.674124
1943  2023-11-03 11:06:44.706030
1944  2023-11-03 11:06:44.737933
1945  2023-11-03 11:06:44.770851
1946  2023-11-03 11:06:44.802714
1947  2023-11-03 11:06:44.857563
1948  2023-11-03 11:06:44.904437
1949  2023-11-03 11:06:44.931365
1950  2023-11-03 11:06:44.962282
1951  2023-11-03 11:06:44.994223
1952  2023-11-03 11:06:45.042242
1953  2023-11-03 11:06:45.074133
1954  2023-11-03 11:06:45.106068
1955  2023-11-03 11:06:45.137967
1956  2023-11-03 11:06:45.169897
1957  2023-11-03 11:06:45.201804
1958  2023-11-03 11:06:45.234741
1959  2023-11-03 11:06:45.266617
1960  2023-11-03 11:06:45.298540
1961  2023-11-03 11:06:45.330444
1962  2023-11-03 11:06:45.362327
1963  2023-11-03 11:06:45.394242
1964  2023-11-03 11:06:45.442114
1965  2023-11-03 11:06:45.474065
1966  2023-11-03 11:06:45.505989
1967  2023-11-03 11:06:45.537892
1968  2023-11-03 11:06:45.569803
1969  2023-11-03 11:06:45.601736
1970  2023-11-03 11:06:45.634632
1971  2023-11-03 11:06:45.666546
1972  2023-11-03 11:06:45.698647
1973  2023-11-03 11:06:45.730566
1974  2023-11-03 11:06:45.762461
1975  2023-11-03 11:06:45.794367
1976  2023-11-03 11:06:45.842254
1977  2023-11-03 11:06:45.874164
1978  2023-11-03 11:06:45.906062
1979  2023-11-03 11:06:45.937980
1980  2023-11-03 11:06:45.969866
1981  2023-11-03 11:06:46.002820
1982  2023-11-03 11:06:46.034724
1983  2023-11-03 11:06:46.066637
1984  2023-11-03 11:06:46.098554
1985  2023-11-03 11:06:46.130470
1986  2023-11-03 11:06:46.162351
1987  2023-11-03 11:06:46.194414
1988  2023-11-03 11:06:46.242336
1989  2023-11-03 11:06:46.274242
1990  2023-11-03 11:06:46.306146
1991  2023-11-03 11:06:46.338060
1992  2023-11-03 11:06:46.369975
1993  2023-11-03 11:06:46.401908
1994  2023-11-03 11:06:46.434804
1995  2023-11-03 11:06:46.465824
1996  2023-11-03 11:06:46.498707
1997  2023-11-03 11:06:46.530714
1998  2023-11-03 11:06:46.562576
1999  2023-11-03 11:06:46.594491
2000  2023-11-03 11:06:46.642404
2001  2023-11-03 11:06:46.674335
2002  2023-11-03 11:06:46.707242
2003  2023-11-03 11:06:46.738136
2004  2023-11-03 11:06:46.770058
2005  2023-11-03 11:06:46.801971
2006  2023-11-03 11:06:46.834850
2007  2023-11-03 11:06:46.865828
2008  2023-11-03 11:06:46.898678
2009  2023-11-03 11:06:46.930618
2010  2023-11-03 11:06:46.962539
2011  2023-11-03 11:06:46.994422
2012  2023-11-03 11:06:47.042295
2013  2023-11-03 11:06:47.074241
2014  2023-11-03 11:06:47.106192
2015  2023-11-03 11:06:47.138073
2016  2023-11-03 11:06:47.170016
2017  2023-11-03 11:06:47.201917
2018  2023-11-03 11:06:47.233813
2019  2023-11-03 11:06:47.266745
2020  2023-11-03 11:06:47.298659
2021  2023-11-03 11:06:47.330559
2022  2023-11-03 11:06:47.362439
2023  2023-11-03 11:06:47.394354
2024  2023-11-03 11:06:47.442261
2025  2023-11-03 11:06:47.474174
2026  2023-11-03 11:06:47.506088
2027  2023-11-03 11:06:47.538003
2028  2023-11-03 11:06:47.569919
2029  2023-11-03 11:06:47.601846
2030  2023-11-03 11:06:47.633760
2031  2023-11-03 11:06:47.666659
2032  2023-11-03 11:06:47.698578
2033  2023-11-03 11:06:47.730497
2034  2023-11-03 11:06:47.762370
2035  2023-11-03 11:06:47.794285
2036  2023-11-03 11:06:47.842214
2037  2023-11-03 11:06:47.874103
2038  2023-11-03 11:06:47.907021
2039  2023-11-03 11:06:47.937948
2040  2023-11-03 11:06:47.969852
2041  2023-11-03 11:06:48.002800
2042  2023-11-03 11:06:48.034684
2043  2023-11-03 11:06:48.066591
2044  2023-11-03 11:06:48.098472
2045  2023-11-03 11:06:48.130413
2046  2023-11-03 11:06:48.163302
2047  2023-11-03 11:06:48.194216
2048  2023-11-03 11:06:48.242136
2049  2023-11-03 11:06:48.274049
2050  2023-11-03 11:06:48.305952
2051  2023-11-03 11:06:48.338831
2052  2023-11-03 11:06:48.370746
2053  2023-11-03 11:06:48.402704
2054  2023-11-03 11:06:48.434623
2055  2023-11-03 11:06:48.466515
2056  2023-11-03 11:06:48.498441
2057  2023-11-03 11:06:48.530360
2058  2023-11-03 11:06:48.562233
2059  2023-11-03 11:06:48.594209
2060  2023-11-03 11:06:48.642045
2061  2023-11-03 11:06:48.674104
2062  2023-11-03 11:06:48.706029
2063  2023-11-03 11:06:48.737926
2064  2023-11-03 11:06:48.770825
2065  2023-11-03 11:06:48.802740
2066  2023-11-03 11:06:48.834698
2067  2023-11-03 11:06:48.866564
2068  2023-11-03 11:06:48.898484
2069  2023-11-03 11:06:48.930408
2070  2023-11-03 11:06:48.962282
2071  2023-11-03 11:06:49.010212
2072  2023-11-03 11:06:49.042118
2073  2023-11-03 11:06:49.074016
2074  2023-11-03 11:06:49.105946
2075  2023-11-03 11:06:49.138593
2076  2023-11-03 11:06:49.170607
2077  2023-11-03 11:06:49.202607
2078  2023-11-03 11:06:49.234633
2079  2023-11-03 11:06:49.266582
2080  2023-11-03 11:06:49.298580
2081  2023-11-03 11:06:49.330574
2082  2023-11-03 11:06:49.362549
2083  2023-11-03 11:06:49.410453
2084  2023-11-03 11:06:49.442369
2085  2023-11-03 11:06:49.474281
2086  2023-11-03 11:06:49.506269
2087  2023-11-03 11:06:49.538271
2088  2023-11-03 11:06:49.570215
2089  2023-11-03 11:06:49.602103
2090  2023-11-03 11:06:49.634007
2091  2023-11-03 11:06:49.666888
2092  2023-11-03 11:06:49.697838
2093  2023-11-03 11:06:49.729752
2094  2023-11-03 11:06:49.762631
2095  2023-11-03 11:06:49.810536
2096  2023-11-03 11:06:49.842449
2097  2023-11-03 11:06:49.874401
2098  2023-11-03 11:06:49.906297
2099  2023-11-03 11:06:49.938199
2100  2023-11-03 11:06:49.970116
2101  2023-11-03 11:06:50.002024
2102  2023-11-03 11:06:50.033950
2103  2023-11-03 11:06:50.066853
2104  2023-11-03 11:06:50.097774
2105  2023-11-03 11:06:50.130678
2106  2023-11-03 11:06:50.162562
2107  2023-11-03 11:06:50.210472
2108  2023-11-03 11:06:50.242380
2109  2023-11-03 11:06:50.274265
2110  2023-11-03 11:06:50.306220
2111  2023-11-03 11:06:50.338134
2112  2023-11-03 11:06:50.370047
2113  2023-11-03 11:06:50.401927
2114  2023-11-03 11:06:50.433880
2115  2023-11-03 11:06:50.466787
2116  2023-11-03 11:06:50.498717
2117  2023-11-03 11:06:50.530609
2118  2023-11-03 11:06:50.562493
2119  2023-11-03 11:06:50.610407
2120  2023-11-03 11:06:50.642316
2121  2023-11-03 11:06:50.674236
2122  2023-11-03 11:06:50.706151
2123  2023-11-03 11:06:50.738061
2124  2023-11-03 11:06:50.770044
2125  2023-11-03 11:06:50.802041
2126  2023-11-03 11:06:50.834910
2127  2023-11-03 11:06:50.865873
2128  2023-11-03 11:06:50.897788
2129  2023-11-03 11:06:50.930689
2130  2023-11-03 11:06:50.962568
2131  2023-11-03 11:06:51.010467
2132  2023-11-03 11:06:51.042355
2133  2023-11-03 11:06:51.074269
2134  2023-11-03 11:06:51.106215
2135  2023-11-03 11:06:51.138150
2136  2023-11-03 11:06:51.170045
2137  2023-11-03 11:06:51.201962
2138  2023-11-03 11:06:51.233880
2139  2023-11-03 11:06:51.265789
2140  2023-11-03 11:06:51.298703
2141  2023-11-03 11:06:51.330634
2142  2023-11-03 11:06:51.362500
2143  2023-11-03 11:06:51.410403
2144  2023-11-03 11:06:51.442311
2145  2023-11-03 11:06:51.474231
2146  2023-11-03 11:06:51.506157
2147  2023-11-03 11:06:51.538061
2148  2023-11-03 11:06:51.569990
2149  2023-11-03 11:06:51.601890
2150  2023-11-03 11:06:51.633817
2151  2023-11-03 11:06:51.666723
2152  2023-11-03 11:06:51.698647
2153  2023-11-03 11:06:51.730547
2154  2023-11-03 11:06:51.762430
2155  2023-11-03 11:06:51.810336
2156  2023-11-03 11:06:51.842254
2157  2023-11-03 11:06:51.874172
2158  2023-11-03 11:06:51.906080
2159  2023-11-03 11:06:51.938000
2160  2023-11-03 11:06:51.969907
2161  2023-11-03 11:06:52.001821
2162  2023-11-03 11:06:52.034749
2163  2023-11-03 11:06:52.066695
2164  2023-11-03 11:06:52.098569
2165  2023-11-03 11:06:52.130503
2166  2023-11-03 11:06:52.162361
2167  2023-11-03 11:06:52.210274
2168  2023-11-03 11:06:52.242200
2169  2023-11-03 11:06:52.274128
2170  2023-11-03 11:06:52.306019
2171  2023-11-03 11:06:52.337928
2172  2023-11-03 11:06:52.369808
2173  2023-11-03 11:06:52.401746
2174  2023-11-03 11:06:52.434671
2175  2023-11-03 11:06:52.466603
2176  2023-11-03 11:06:52.498494
2177  2023-11-03 11:06:52.530405
2178  2023-11-03 11:06:52.578288
2179  2023-11-03 11:06:52.610189
2180  2023-11-03 11:06:52.642113
2181  2023-11-03 11:06:52.674032
2182  2023-11-03 11:06:52.705959
2183  2023-11-03 11:06:52.737853
2184  2023-11-03 11:06:52.769769
2185  2023-11-03 11:06:52.802689
2186  2023-11-03 11:06:52.834596
2187  2023-11-03 11:06:52.866511
2188  2023-11-03 11:06:52.898427
2189  2023-11-03 11:06:52.930343
2190  2023-11-03 11:06:52.978208
2191  2023-11-03 11:06:53.010126
2192  2023-11-03 11:06:53.042056
2193  2023-11-03 11:06:53.074025
2194  2023-11-03 11:06:53.105955
2195  2023-11-03 11:06:53.137914
2196  2023-11-03 11:06:53.169813
2197  2023-11-03 11:06:53.201726
2198  2023-11-03 11:06:53.234639
2199  2023-11-03 11:06:53.266556
2200  2023-11-03 11:06:53.298467
2201  2023-11-03 11:06:53.330383
2202  2023-11-03 11:06:53.378255
2203  2023-11-03 11:06:53.410171
2204  2023-11-03 11:06:53.442115
2205  2023-11-03 11:06:53.474014
2206  2023-11-03 11:06:53.506883
2207  2023-11-03 11:06:53.538804
2208  2023-11-03 11:06:53.570744
2209  2023-11-03 11:06:53.602680
2210  2023-11-03 11:06:53.634613
2211  2023-11-03 11:06:53.667453
2212  2023-11-03 11:06:53.698397
2213  2023-11-03 11:06:53.730316
2214  2023-11-03 11:06:53.778188
2215  2023-11-03 11:06:53.810109
2216  2023-11-03 11:06:53.842031
2217  2023-11-03 11:06:53.873900
2218  2023-11-03 11:06:53.905846
2219  2023-11-03 11:06:53.938762
2220  2023-11-03 11:06:53.970668
2221  2023-11-03 11:06:54.002777
2222  2023-11-03 11:06:54.035677
2223  2023-11-03 11:06:54.066606
2224  2023-11-03 11:06:54.098527
2225  2023-11-03 11:06:54.131430
2226  2023-11-03 11:06:54.179301
2227  2023-11-03 11:06:54.210187
2228  2023-11-03 11:06:54.242141
2229  2023-11-03 11:06:54.275072
2230  2023-11-03 11:06:54.306930
2231  2023-11-03 11:06:54.337883
2232  2023-11-03 11:06:54.370816
2233  2023-11-03 11:06:54.403714
2234  2023-11-03 11:06:54.435624
2235  2023-11-03 11:06:54.467541
2236  2023-11-03 11:06:54.499446
2237  2023-11-03 11:06:54.531361
2238  2023-11-03 11:06:54.579242
2239  2023-11-03 11:06:54.611141
2240  2023-11-03 11:06:54.643063
2241  2023-11-03 11:06:54.674980
2242  2023-11-03 11:06:54.706891
2243  2023-11-03 11:06:54.738872
2244  2023-11-03 11:06:54.770801
2245  2023-11-03 11:06:54.803670
2246  2023-11-03 11:06:54.835618
2247  2023-11-03 11:06:54.866565
2248  2023-11-03 11:06:54.898461
2249  2023-11-03 11:06:54.930458
2250  2023-11-03 11:06:54.978396
2251  2023-11-03 11:06:55.011322
2252  2023-11-03 11:06:55.043354
2253  2023-11-03 11:06:55.075269
2254  2023-11-03 11:06:55.106292
2255  2023-11-03 11:06:55.139174
2256  2023-11-03 11:06:55.171094
2257  2023-11-03 11:06:55.203034
2258  2023-11-03 11:06:55.234922
2259  2023-11-03 11:06:55.266884
2260  2023-11-03 11:06:55.298831
2261  2023-11-03 11:06:55.330799
2262  2023-11-03 11:06:55.378636
2263  2023-11-03 11:06:55.410557
2264  2023-11-03 11:06:55.442482
2265  2023-11-03 11:06:55.474401
2266  2023-11-03 11:06:55.506302
2267  2023-11-03 11:06:55.538229
2268  2023-11-03 11:06:55.570493
2269  2023-11-03 11:06:55.602408
2270  2023-11-03 11:06:55.634322
2271  2023-11-03 11:06:55.666237
2272  2023-11-03 11:06:55.698219
2273  2023-11-03 11:06:55.730130
2274  2023-11-03 11:06:55.777997
2275  2023-11-03 11:06:55.809919
2276  2023-11-03 11:06:55.842848
2277  2023-11-03 11:06:55.874726
2278  2023-11-03 11:06:55.906730
2279  2023-11-03 11:06:55.938582
2280  2023-11-03 11:06:55.970502
2281  2023-11-03 11:06:56.002531
2282  2023-11-03 11:06:56.075351
2283  2023-11-03 11:06:56.098276
2284  2023-11-03 11:06:56.130192
2285  2023-11-03 11:06:56.178063
2286  2023-11-03 11:06:56.210944
2287  2023-11-03 11:06:56.241907
2288  2023-11-03 11:06:56.273808
2289  2023-11-03 11:06:56.306689
2290  2023-11-03 11:06:56.338603
2291  2023-11-03 11:06:56.370517
2292  2023-11-03 11:06:56.403470
2293  2023-11-03 11:06:56.434348
2294  2023-11-03 11:06:56.466268
2295  2023-11-03 11:06:56.499208
2296  2023-11-03 11:06:56.546084
2297  2023-11-03 11:06:56.578996
2298  2023-11-03 11:06:56.610876
2299  2023-11-03 11:06:56.642791
2300  2023-11-03 11:06:56.674705
2301  2023-11-03 11:06:56.706672
2302  2023-11-03 11:06:56.738534
2303  2023-11-03 11:06:56.771478
2304  2023-11-03 11:06:56.803407
2305  2023-11-03 11:06:56.834322
2306  2023-11-03 11:06:56.866246
2307  2023-11-03 11:06:56.899138
2308  2023-11-03 11:06:56.945979
2309  2023-11-03 11:06:56.978925
2310  2023-11-03 11:06:57.010807
2311  2023-11-03 11:06:57.042801
2312  2023-11-03 11:06:57.073720
2313  2023-11-03 11:06:57.105753
2314  2023-11-03 11:06:57.138663
2315  2023-11-03 11:06:57.170580
2316  2023-11-03 11:06:57.202444
2317  2023-11-03 11:06:57.234400
2318  2023-11-03 11:06:57.266318
2319  2023-11-03 11:06:57.298220
2320  2023-11-03 11:06:57.346101
2321  2023-11-03 11:06:57.378024
2322  2023-11-03 11:06:57.410919
2323  2023-11-03 11:06:57.442848
2324  2023-11-03 11:06:57.474751
2325  2023-11-03 11:06:57.506673
2326  2023-11-03 11:06:57.538587
2327  2023-11-03 11:06:57.570497
2328  2023-11-03 11:06:57.602422
2329  2023-11-03 11:06:57.634327
2330  2023-11-03 11:06:57.666246
2331  2023-11-03 11:06:57.698173
2332  2023-11-03 11:06:57.745991
2333  2023-11-03 11:06:57.777979
2334  2023-11-03 11:06:57.809874
2335  2023-11-03 11:06:57.842764
2336  2023-11-03 11:06:57.874676
2337  2023-11-03 11:06:57.906606
2338  2023-11-03 11:06:57.938524
2339  2023-11-03 11:06:57.970438
2340  2023-11-03 11:06:58.002336
2341  2023-11-03 11:06:58.034251
2342  2023-11-03 11:06:58.066211
2343  2023-11-03 11:06:58.098098
2344  2023-11-03 11:06:58.145922
2345  2023-11-03 11:06:58.177869
2346  2023-11-03 11:06:58.210783
2347  2023-11-03 11:06:58.242758
2348  2023-11-03 11:06:58.274593
2349  2023-11-03 11:06:58.306545
2350  2023-11-03 11:06:58.338459
2351  2023-11-03 11:06:58.370358
2352  2023-11-03 11:06:58.402268
2353  2023-11-03 11:06:58.434225
2354  2023-11-03 11:06:58.466117
2355  2023-11-03 11:06:58.498022
2356  2023-11-03 11:06:58.545926
2357  2023-11-03 11:06:58.577943
2358  2023-11-03 11:06:58.610836
2359  2023-11-03 11:06:58.642722
2360  2023-11-03 11:06:58.674629
2361  2023-11-03 11:06:58.706538
2362  2023-11-03 11:06:58.738468
2363  2023-11-03 11:06:58.770519
2364  2023-11-03 11:06:58.802367
2365  2023-11-03 11:06:58.834394
2366  2023-11-03 11:06:58.866311
2367  2023-11-03 11:06:58.898361
2368  2023-11-03 11:06:58.946215
2369  2023-11-03 11:06:58.978153
2370  2023-11-03 11:06:59.010064
2371  2023-11-03 11:06:59.041936
2372  2023-11-03 11:06:59.073840
2373  2023-11-03 11:06:59.105787
2374  2023-11-03 11:06:59.137700
2375  2023-11-03 11:06:59.170582
2376  2023-11-03 11:06:59.202522
2377  2023-11-03 11:06:59.234437
2378  2023-11-03 11:06:59.266374
2379  2023-11-03 11:06:59.298305
2380  2023-11-03 11:06:59.346183
2381  2023-11-03 11:06:59.378248
2382  2023-11-03 11:06:59.410126
2383  2023-11-03 11:06:59.442035
2384  2023-11-03 11:06:59.473950
2385  2023-11-03 11:06:59.505860
2386  2023-11-03 11:06:59.537786
2387  2023-11-03 11:06:59.570703
2388  2023-11-03 11:06:59.602640
2389  2023-11-03 11:06:59.634634
2390  2023-11-03 11:06:59.666623
2391  2023-11-03 11:06:59.698543
2392  2023-11-03 11:06:59.746406
2393  2023-11-03 11:06:59.778300
2394  2023-11-03 11:06:59.810222
2395  2023-11-03 11:06:59.842126
2396  2023-11-03 11:06:59.874063
2397  2023-11-03 11:06:59.905929
2398  2023-11-03 11:06:59.937873
2399  2023-11-03 11:06:59.969809
2400  2023-11-03 11:07:00.002695
2401  2023-11-03 11:07:00.034617
2402  2023-11-03 11:07:00.066542
2403  2023-11-03 11:07:00.114401
2404  2023-11-03 11:07:00.146332
2405  2023-11-03 11:07:00.178237
2406  2023-11-03 11:07:00.210159
2407  2023-11-03 11:07:00.242060
2408  2023-11-03 11:07:00.274950
2409  2023-11-03 11:07:00.305901
2410  2023-11-03 11:07:00.338772
2411  2023-11-03 11:07:00.370716
2412  2023-11-03 11:07:00.402666
2413  2023-11-03 11:07:00.434558
2414  2023-11-03 11:07:00.466442
2415  2023-11-03 11:07:00.514349
2416  2023-11-03 11:07:00.546248
2417  2023-11-03 11:07:00.578173
2418  2023-11-03 11:07:00.610079
2419  2023-11-03 11:07:00.641998
2420  2023-11-03 11:07:00.674969
2421  2023-11-03 11:07:00.705932
2422  2023-11-03 11:07:00.737848
2423  2023-11-03 11:07:00.769762
2424  2023-11-03 11:07:00.802714
2425  2023-11-03 11:07:00.834628
2426  2023-11-03 11:07:00.866615
2427  2023-11-03 11:07:00.914497
2428  2023-11-03 11:07:00.946522
2429  2023-11-03 11:07:00.978424
2430  2023-11-03 11:07:01.010338
2431  2023-11-03 11:07:01.042223
2432  2023-11-03 11:07:01.074180
2433  2023-11-03 11:07:01.106051
2434  2023-11-03 11:07:01.138018
2435  2023-11-03 11:07:01.169910
2436  2023-11-03 11:07:01.202835
2437  2023-11-03 11:07:01.233743
2438  2023-11-03 11:07:01.266671
2439  2023-11-03 11:07:01.314559
2440  2023-11-03 11:07:01.346454
2441  2023-11-03 11:07:01.378362
2442  2023-11-03 11:07:01.410272
2443  2023-11-03 11:07:01.442192
2444  2023-11-03 11:07:01.474102
2445  2023-11-03 11:07:01.506032
2446  2023-11-03 11:07:01.537935
2447  2023-11-03 11:07:01.569853
2448  2023-11-03 11:07:01.601769
2449  2023-11-03 11:07:01.634642
2450  2023-11-03 11:07:01.666602
2451  2023-11-03 11:07:01.714473
2452  2023-11-03 11:07:01.746530
2453  2023-11-03 11:07:01.778453
2454  2023-11-03 11:07:01.810384
2455  2023-11-03 11:07:01.842272
2456  2023-11-03 11:07:01.875187
2457  2023-11-03 11:07:01.906101
2458  2023-11-03 11:07:01.938031
2459  2023-11-03 11:07:01.969931
2460  2023-11-03 11:07:02.002869
2461  2023-11-03 11:07:02.034770
2462  2023-11-03 11:07:02.066690
2463  2023-11-03 11:07:02.114556
2464  2023-11-03 11:07:02.146461
2465  2023-11-03 11:07:02.178370
2466  2023-11-03 11:07:02.210289
2467  2023-11-03 11:07:02.242237
2468  2023-11-03 11:07:02.274132
2469  2023-11-03 11:07:02.306001
2470  2023-11-03 11:07:02.337954
2471  2023-11-03 11:07:02.369881
2472  2023-11-03 11:07:02.401806
2473  2023-11-03 11:07:02.434691
2474  2023-11-03 11:07:02.466605
2475  2023-11-03 11:07:02.514477
2476  2023-11-03 11:07:02.546390
2477  2023-11-03 11:07:02.578316
2478  2023-11-03 11:07:02.610231
2479  2023-11-03 11:07:02.642133
2480  2023-11-03 11:07:02.674069
2481  2023-11-03 11:07:02.705965
2482  2023-11-03 11:07:02.737876
2483  2023-11-03 11:07:02.769800
2484  2023-11-03 11:07:02.802732
2485  2023-11-03 11:07:02.834617
2486  2023-11-03 11:07:02.866538
2487  2023-11-03 11:07:02.914425
2488  2023-11-03 11:07:02.946330
2489  2023-11-03 11:07:02.978261
2490  2023-11-03 11:07:03.010156
2491  2023-11-03 11:07:03.042068
2492  2023-11-03 11:07:03.073981
2493  2023-11-03 11:07:03.106875
2494  2023-11-03 11:07:03.138802
2495  2023-11-03 11:07:03.170728
2496  2023-11-03 11:07:03.202642
2497  2023-11-03 11:07:03.234519
2498  2023-11-03 11:07:03.266465
2499  2023-11-03 11:07:03.314331
2500  2023-11-03 11:07:03.346271
2501  2023-11-03 11:07:03.378165
2502  2023-11-03 11:07:03.410091
2503  2023-11-03 11:07:03.442996
2504  2023-11-03 11:07:03.473929
2505  2023-11-03 11:07:03.505832
2506  2023-11-03 11:07:03.538707
2507  2023-11-03 11:07:03.570658
2508  2023-11-03 11:07:03.602584
2509  2023-11-03 11:07:03.634501
2510  2023-11-03 11:07:03.682354
2511  2023-11-03 11:07:03.714238
2512  2023-11-03 11:07:03.746198
2513  2023-11-03 11:07:03.778104
2514  2023-11-03 11:07:03.810013
2515  2023-11-03 11:07:03.841938
2516  2023-11-03 11:07:03.874809
2517  2023-11-03 11:07:03.905767
2518  2023-11-03 11:07:03.938694
2519  2023-11-03 11:07:03.970585
2520  2023-11-03 11:07:04.002502
2521  2023-11-03 11:07:04.034416
2522  2023-11-03 11:07:04.082296
2523  2023-11-03 11:07:04.114224
2524  2023-11-03 11:07:04.146125
2525  2023-11-03 11:07:04.178009
2526  2023-11-03 11:07:04.209913
2527  2023-11-03 11:07:04.241872
2528  2023-11-03 11:07:04.274808
2529  2023-11-03 11:07:04.306712
2530  2023-11-03 11:07:04.338571
2531  2023-11-03 11:07:04.370523
2532  2023-11-03 11:07:04.402433
2533  2023-11-03 11:07:04.434350
2534  2023-11-03 11:07:04.482185
2535  2023-11-03 11:07:04.514133
2536  2023-11-03 11:07:04.546073
2537  2023-11-03 11:07:04.577976
2538  2023-11-03 11:07:04.609880
2539  2023-11-03 11:07:04.641802
2540  2023-11-03 11:07:04.674706
2541  2023-11-03 11:07:04.706586
2542  2023-11-03 11:07:04.738500
2543  2023-11-03 11:07:04.770415
2544  2023-11-03 11:07:04.802332
2545  2023-11-03 11:07:04.834244
2546  2023-11-03 11:07:04.882116
2547  2023-11-03 11:07:04.914040
2548  2023-11-03 11:07:04.945977
2549  2023-11-03 11:07:04.977860
2550  2023-11-03 11:07:05.009819
2551  2023-11-03 11:07:05.041741
2552  2023-11-03 11:07:05.074636
2553  2023-11-03 11:07:05.106563
2554  2023-11-03 11:07:05.138531
2555  2023-11-03 11:07:05.170516
2556  2023-11-03 11:07:05.202427
2557  2023-11-03 11:07:05.234361
2558  2023-11-03 11:07:05.282183
2559  2023-11-03 11:07:05.314097
2560  2023-11-03 11:07:05.346075
2561  2023-11-03 11:07:05.377974
2562  2023-11-03 11:07:05.410840
2563  2023-11-03 11:07:05.441788
2564  2023-11-03 11:07:05.474723
2565  2023-11-03 11:07:05.506611
2566  2023-11-03 11:07:05.538533
2567  2023-11-03 11:07:05.570462
2568  2023-11-03 11:07:05.602382
2569  2023-11-03 11:07:05.634245
2570  2023-11-03 11:07:05.682346
2571  2023-11-03 11:07:05.714280
2572  2023-11-03 11:07:05.746193
2573  2023-11-03 11:07:05.778078
2574  2023-11-03 11:07:05.810042
2575  2023-11-03 11:07:05.841986
2576  2023-11-03 11:07:05.874902
2577  2023-11-03 11:07:05.905913
2578  2023-11-03 11:07:05.937805
2579  2023-11-03 11:07:05.970723
2580  2023-11-03 11:07:06.002639
2581  2023-11-03 11:07:06.034551
2582  2023-11-03 11:07:06.082505
2583  2023-11-03 11:07:06.114420
2584  2023-11-03 11:07:06.146335
2585  2023-11-03 11:07:06.178251
2586  2023-11-03 11:07:06.210209
2587  2023-11-03 11:07:06.242138
2588  2023-11-03 11:07:06.274021
2589  2023-11-03 11:07:06.305935
2590  2023-11-03 11:07:06.337875
2591  2023-11-03 11:07:06.370770
2592  2023-11-03 11:07:06.402723
2593  2023-11-03 11:07:06.434599
2594  2023-11-03 11:07:06.482437
2595  2023-11-03 11:07:06.514392
2596  2023-11-03 11:07:06.546311
2597  2023-11-03 11:07:06.578258
2598  2023-11-03 11:07:06.610138
2599  2023-11-03 11:07:06.642058
2600  2023-11-03 11:07:06.673926
2601  2023-11-03 11:07:06.707864
2602  2023-11-03 11:07:06.738785
2603  2023-11-03 11:07:06.769779
2604  2023-11-03 11:07:06.802685
2605  2023-11-03 11:07:06.834593
2606  2023-11-03 11:07:06.882432
2607  2023-11-03 11:07:06.914347
2608  2023-11-03 11:07:06.946262
2609  2023-11-03 11:07:06.978234
2610  2023-11-03 11:07:07.010134
2611  2023-11-03 11:07:07.043064
2612  2023-11-03 11:07:07.073973
2613  2023-11-03 11:07:07.106887
2614  2023-11-03 11:07:07.138787
2615  2023-11-03 11:07:07.171677
2616  2023-11-03 11:07:07.202645
2617  2023-11-03 11:07:07.234516
2618  2023-11-03 11:07:07.282363
2619  2023-11-03 11:07:07.314278
2620  2023-11-03 11:07:07.346237
2621  2023-11-03 11:07:07.378140
2622  2023-11-03 11:07:07.410068
2623  2023-11-03 11:07:07.441967
2624  2023-11-03 11:07:07.473876
2625  2023-11-03 11:07:07.505797
2626  2023-11-03 11:07:07.538727
2627  2023-11-03 11:07:07.570664
2628  2023-11-03 11:07:07.602534
2629  2023-11-03 11:07:07.650380
2630  2023-11-03 11:07:07.682295
2631  2023-11-03 11:07:07.714237
2632  2023-11-03 11:07:07.746124
2633  2023-11-03 11:07:07.778073
2634  2023-11-03 11:07:07.809995
2635  2023-11-03 11:07:07.841902
2636  2023-11-03 11:07:07.873818
2637  2023-11-03 11:07:07.906723
2638  2023-11-03 11:07:07.938678
2639  2023-11-03 11:07:07.970558
2640  2023-11-03 11:07:08.002472
2641  2023-11-03 11:07:08.050353
2642  2023-11-03 11:07:08.082226
2643  2023-11-03 11:07:08.114140
2644  2023-11-03 11:07:08.146055
2645  2023-11-03 11:07:08.178022
2646  2023-11-03 11:07:08.210915
2647  2023-11-03 11:07:08.241981
2648  2023-11-03 11:07:08.273976
2649  2023-11-03 11:07:08.306983
2650  2023-11-03 11:07:08.337891
2651  2023-11-03 11:07:08.369789
2652  2023-11-03 11:07:08.402704
2653  2023-11-03 11:07:08.450539
2654  2023-11-03 11:07:08.482454
2655  2023-11-03 11:07:08.514368
2656  2023-11-03 11:07:08.546283
2657  2023-11-03 11:07:08.578237
2658  2023-11-03 11:07:08.610155
2659  2023-11-03 11:07:08.642068
2660  2023-11-03 11:07:08.673980
2661  2023-11-03 11:07:08.706021
2662  2023-11-03 11:07:08.737940
2663  2023-11-03 11:07:08.769864
2664  2023-11-03 11:07:08.802807
2665  2023-11-03 11:07:08.850597
2666  2023-11-03 11:07:08.882515
2667  2023-11-03 11:07:08.914467
2668  2023-11-03 11:07:08.946463
2669  2023-11-03 11:07:08.978443
2670  2023-11-03 11:07:09.010333
2671  2023-11-03 11:07:09.042250
2672  2023-11-03 11:07:09.074173
2673  2023-11-03 11:07:09.106070
2674  2023-11-03 11:07:09.137952
2675  2023-11-03 11:07:09.170865
2676  2023-11-03 11:07:09.202822
2677  2023-11-03 11:07:09.250686
2678  2023-11-03 11:07:09.282565
2679  2023-11-03 11:07:09.314480
2680  2023-11-03 11:07:09.346429
2681  2023-11-03 11:07:09.378344
2682  2023-11-03 11:07:09.410261
2683  2023-11-03 11:07:09.442164
2684  2023-11-03 11:07:09.474088
2685  2023-11-03 11:07:09.505994
2686  2023-11-03 11:07:09.537915
2687  2023-11-03 11:07:09.569823
2688  2023-11-03 11:07:09.602743
2689  2023-11-03 11:07:09.650582
2690  2023-11-03 11:07:09.682496
2691  2023-11-03 11:07:09.714411
2692  2023-11-03 11:07:09.746326
2693  2023-11-03 11:07:09.778282
2694  2023-11-03 11:07:09.810217
2695  2023-11-03 11:07:09.842108
2696  2023-11-03 11:07:09.874023
2697  2023-11-03 11:07:09.905959
2698  2023-11-03 11:07:09.937969
2699  2023-11-03 11:07:09.969870
2700  2023-11-03 11:07:10.001789
2701  2023-11-03 11:07:10.050622
2702  2023-11-03 11:07:10.082537
2703  2023-11-03 11:07:10.114452
2704  2023-11-03 11:07:10.146367
2705  2023-11-03 11:07:10.178360
2706  2023-11-03 11:07:10.210241
2707  2023-11-03 11:07:10.242158
2708  2023-11-03 11:07:10.274201
2709  2023-11-03 11:07:10.306117
2710  2023-11-03 11:07:10.338137
2711  2023-11-03 11:07:10.370020
2712  2023-11-03 11:07:10.401951
2713  2023-11-03 11:07:10.449775
2714  2023-11-03 11:07:10.481690
2715  2023-11-03 11:07:10.514602
2716  2023-11-03 11:07:10.546517
2717  2023-11-03 11:07:10.578460
2718  2023-11-03 11:07:10.610380
2719  2023-11-03 11:07:10.642310
2720  2023-11-03 11:07:10.674242
2721  2023-11-03 11:07:10.706118
2722  2023-11-03 11:07:10.739005
2723  2023-11-03 11:07:10.769922
2724  2023-11-03 11:07:10.802868
2725  2023-11-03 11:07:10.850704
2726  2023-11-03 11:07:10.882664
2727  2023-11-03 11:07:10.914533
2728  2023-11-03 11:07:10.946448
2729  2023-11-03 11:07:10.978394
2730  2023-11-03 11:07:11.010332
2731  2023-11-03 11:07:11.042226
2732  2023-11-03 11:07:11.074145
2733  2023-11-03 11:07:11.106061
2734  2023-11-03 11:07:11.137963
2735  2023-11-03 11:07:11.170898
2736  2023-11-03 11:07:11.218720
2737  2023-11-03 11:07:11.250635
2738  2023-11-03 11:07:11.282550
2739  2023-11-03 11:07:11.314464
2740  2023-11-03 11:07:11.346379
2741  2023-11-03 11:07:11.378458
2742  2023-11-03 11:07:11.410486
2743  2023-11-03 11:07:11.442401
2744  2023-11-03 11:07:11.474313
2745  2023-11-03 11:07:11.506239
2746  2023-11-03 11:07:11.538164
2747  2023-11-03 11:07:11.570027
2748  2023-11-03 11:07:11.617899
2749  2023-11-03 11:07:11.649889
2750  2023-11-03 11:07:11.682819
2751  2023-11-03 11:07:11.714718
2752  2023-11-03 11:07:11.746648
2753  2023-11-03 11:07:11.778583
2754  2023-11-03 11:07:11.810499
2755  2023-11-03 11:07:11.842417
2756  2023-11-03 11:07:11.874292
2757  2023-11-03 11:07:11.906206
2758  2023-11-03 11:07:11.938121
2759  2023-11-03 11:07:11.970041
2760  2023-11-03 11:07:12.017908
2761  2023-11-03 11:07:12.049856
2762  2023-11-03 11:07:12.082734
2763  2023-11-03 11:07:12.114649
2764  2023-11-03 11:07:12.146564
2765  2023-11-03 11:07:12.178508
2766  2023-11-03 11:07:12.210426
2767  2023-11-03 11:07:12.242340
2768  2023-11-03 11:07:12.274302
2769  2023-11-03 11:07:12.306173
2770  2023-11-03 11:07:12.338088
2771  2023-11-03 11:07:12.369968
2772  2023-11-03 11:07:12.417839
2773  2023-11-03 11:07:12.449753
2774  2023-11-03 11:07:12.482665
2775  2023-11-03 11:07:12.514580
2776  2023-11-03 11:07:12.546495
2777  2023-11-03 11:07:12.578441
2778  2023-11-03 11:07:12.610360
2779  2023-11-03 11:07:12.642271
2780  2023-11-03 11:07:12.674228
2781  2023-11-03 11:07:12.706095
2782  2023-11-03 11:07:12.738027
2783  2023-11-03 11:07:12.769931
2784  2023-11-03 11:07:12.818772
2785  2023-11-03 11:07:12.850683
2786  2023-11-03 11:07:12.882598
2787  2023-11-03 11:07:12.914513
2788  2023-11-03 11:07:12.946427
2789  2023-11-03 11:07:12.978374
2790  2023-11-03 11:07:13.010305
2791  2023-11-03 11:07:13.042244
2792  2023-11-03 11:07:13.074125
2793  2023-11-03 11:07:13.106031
2794  2023-11-03 11:07:13.138923
2795  2023-11-03 11:07:13.170835
2796  2023-11-03 11:07:13.218702
2797  2023-11-03 11:07:13.250671
2798  2023-11-03 11:07:13.282529
2799  2023-11-03 11:07:13.314444
2800  2023-11-03 11:07:13.346407
2801  2023-11-03 11:07:13.378327
2802  2023-11-03 11:07:13.410235
2803  2023-11-03 11:07:13.442152
2804  2023-11-03 11:07:13.474046
2805  2023-11-03 11:07:13.505963
2806  2023-11-03 11:07:13.539970
2807  2023-11-03 11:07:13.569892
2808  2023-11-03 11:07:13.619746
2809  2023-11-03 11:07:13.651672
2810  2023-11-03 11:07:13.683571
2811  2023-11-03 11:07:13.715480
2812  2023-11-03 11:07:13.747404
2813  2023-11-03 11:07:13.779337
2814  2023-11-03 11:07:13.811245
2815  2023-11-03 11:07:13.844142
2816  2023-11-03 11:07:13.876099
2817  2023-11-03 11:07:13.908007
2818  2023-11-03 11:07:13.939037
2819  2023-11-03 11:07:13.971919
2820  2023-11-03 11:07:14.018901
2821  2023-11-03 11:07:14.051801
2822  2023-11-03 11:07:14.083708
2823  2023-11-03 11:07:14.115630
2824  2023-11-03 11:07:14.147540
2825  2023-11-03 11:07:14.179448
2826  2023-11-03 11:07:14.211370
2827  2023-11-03 11:07:14.243284
2828  2023-11-03 11:07:14.275204
2829  2023-11-03 11:07:14.307114
2830  2023-11-03 11:07:14.339033
2831  2023-11-03 11:07:14.370949
2832  2023-11-03 11:07:14.418844
2833  2023-11-03 11:07:14.450736
2834  2023-11-03 11:07:14.482665
2835  2023-11-03 11:07:14.514557
2836  2023-11-03 11:07:14.547443
2837  2023-11-03 11:07:14.579392
2838  2023-11-03 11:07:14.611308
2839  2023-11-03 11:07:14.643209
2840  2023-11-03 11:07:14.675105
2841  2023-11-03 11:07:14.708078
2842  2023-11-03 11:07:14.738933
2843  2023-11-03 11:07:14.770875
2844  2023-11-03 11:07:14.818790
2845  2023-11-03 11:07:14.850671
2846  2023-11-03 11:07:14.882588
2847  2023-11-03 11:07:14.914489
2848  2023-11-03 11:07:14.946405
2849  2023-11-03 11:07:14.978322
2850  2023-11-03 11:07:15.011232
2851  2023-11-03 11:07:15.043147
2852  2023-11-03 11:07:15.075066
2853  2023-11-03 11:07:15.106979
2854  2023-11-03 11:07:15.138886
2855  2023-11-03 11:07:15.186768
2856  2023-11-03 11:07:15.218680
2857  2023-11-03 11:07:15.250596
2858  2023-11-03 11:07:15.282507
2859  2023-11-03 11:07:15.314421
2860  2023-11-03 11:07:15.346336
2861  2023-11-03 11:07:15.378250
2862  2023-11-03 11:07:15.410167
2863  2023-11-03 11:07:15.442084
2864  2023-11-03 11:07:15.473966
2865  2023-11-03 11:07:15.505909
2866  2023-11-03 11:07:15.537795
2867  2023-11-03 11:07:15.586706
2868  2023-11-03 11:07:15.618580
2869  2023-11-03 11:07:15.650518
2870  2023-11-03 11:07:15.682438
2871  2023-11-03 11:07:15.714353
2872  2023-11-03 11:07:15.746267
2873  2023-11-03 11:07:15.778196
2874  2023-11-03 11:07:15.810101
2875  2023-11-03 11:07:15.842011
2876  2023-11-03 11:07:15.873977
2877  2023-11-03 11:07:15.906001
2878  2023-11-03 11:07:15.939906
2879  2023-11-03 11:07:15.986752
2880  2023-11-03 11:07:16.019706
2881  2023-11-03 11:07:16.051607
2882  2023-11-03 11:07:16.083541
2883  2023-11-03 11:07:16.114406
2884  2023-11-03 11:07:16.146321
2885  2023-11-03 11:07:16.179236
2886  2023-11-03 11:07:16.212179
2887  2023-11-03 11:07:16.243124
2888  2023-11-03 11:07:16.275016
2889  2023-11-03 11:07:16.306925
2890  2023-11-03 11:07:16.339864
2891  2023-11-03 11:07:16.386711
2892  2023-11-03 11:07:16.419633
2893  2023-11-03 11:07:16.451539
2894  2023-11-03 11:07:16.482488
2895  2023-11-03 11:07:16.514337
2896  2023-11-03 11:07:16.546252
2897  2023-11-03 11:07:16.579191
2898  2023-11-03 11:07:16.611120
2899  2023-11-03 11:07:16.643028
2900  2023-11-03 11:07:16.674908
2901  2023-11-03 11:07:16.706862
2902  2023-11-03 11:07:16.738772
2903  2023-11-03 11:07:16.786609
2904  2023-11-03 11:07:16.818539
2905  2023-11-03 11:07:16.850474
2906  2023-11-03 11:07:16.882389
2907  2023-11-03 11:07:16.915348
2908  2023-11-03 11:07:16.946183
2909  2023-11-03 11:07:16.978140
2910  2023-11-03 11:07:17.011039
2911  2023-11-03 11:07:17.042956
2912  2023-11-03 11:07:17.074890
2913  2023-11-03 11:07:17.106824
2914  2023-11-03 11:07:17.138721
2915  2023-11-03 11:07:17.186584
2916  2023-11-03 11:07:17.218455
2917  2023-11-03 11:07:17.250429
2918  2023-11-03 11:07:17.282317
2919  2023-11-03 11:07:17.314242
2920  2023-11-03 11:07:17.346174
2921  2023-11-03 11:07:17.378069
2922  2023-11-03 11:07:17.409976
2923  2023-11-03 11:07:17.442887
2924  2023-11-03 11:07:17.474824
2925  2023-11-03 11:07:17.506751
2926  2023-11-03 11:07:17.538660
2927  2023-11-03 11:07:17.586472
2928  2023-11-03 11:07:17.618427
2929  2023-11-03 11:07:17.650337
2930  2023-11-03 11:07:17.682249
2931  2023-11-03 11:07:17.714163
2932  2023-11-03 11:07:17.746045
2933  2023-11-03 11:07:17.777991
2934  2023-11-03 11:07:17.809906
2935  2023-11-03 11:07:17.841830
2936  2023-11-03 11:07:17.873753
2937  2023-11-03 11:07:17.906649
2938  2023-11-03 11:07:17.938574
2939  2023-11-03 11:07:17.986403
2940  2023-11-03 11:07:18.018318
2941  2023-11-03 11:07:18.050278
2942  2023-11-03 11:07:18.082183
2943  2023-11-03 11:07:18.114088
2944  2023-11-03 11:07:18.146119
2945  2023-11-03 11:07:18.178035
2946  2023-11-03 11:07:18.210976
2947  2023-11-03 11:07:18.242872
2948  2023-11-03 11:07:18.274779
2949  2023-11-03 11:07:18.306715
2950  2023-11-03 11:07:18.338613
2951  2023-11-03 11:07:18.386490
2952  2023-11-03 11:07:18.418394
2953  2023-11-03 11:07:18.450317
2954  2023-11-03 11:07:18.482197
2955  2023-11-03 11:07:18.514167
2956  2023-11-03 11:07:18.546053
2957  2023-11-03 11:07:18.578073
2958  2023-11-03 11:07:18.609966
2959  2023-11-03 11:07:18.642888
2960  2023-11-03 11:07:18.675771
2961  2023-11-03 11:07:18.706748
2962  2023-11-03 11:07:18.754583
2963  2023-11-03 11:07:18.786495
2964  2023-11-03 11:07:18.818376
2965  2023-11-03 11:07:18.850332
2966  2023-11-03 11:07:18.882238
2967  2023-11-03 11:07:18.914173
2968  2023-11-03 11:07:18.946035
2969  2023-11-03 11:07:18.977999
2970  2023-11-03 11:07:19.010900
2971  2023-11-03 11:07:19.042852
2972  2023-11-03 11:07:19.074733
2973  2023-11-03 11:07:19.106638
2974  2023-11-03 11:07:19.154525
2975  2023-11-03 11:07:19.186434
2976  2023-11-03 11:07:19.218377
2977  2023-11-03 11:07:19.250409
2978  2023-11-03 11:07:19.282329
2979  2023-11-03 11:07:19.314245
2980  2023-11-03 11:07:19.346160
2981  2023-11-03 11:07:19.378074
2982  2023-11-03 11:07:19.410001
2983  2023-11-03 11:07:19.442897
2984  2023-11-03 11:07:19.474800
2985  2023-11-03 11:07:19.506716
2986  2023-11-03 11:07:19.554603
2987  2023-11-03 11:07:19.586475
2988  2023-11-03 11:07:19.618389
2989  2023-11-03 11:07:19.650349
2990  2023-11-03 11:07:19.682249
2991  2023-11-03 11:07:19.715170
2992  2023-11-03 11:07:19.746082
2993  2023-11-03 11:07:19.778131
2994  2023-11-03 11:07:19.810037
2995  2023-11-03 11:07:19.842020
2996  2023-11-03 11:07:19.873908
2997  2023-11-03 11:07:19.906819
2998  2023-11-03 11:07:19.954697
2999  2023-11-03 11:07:19.986607
3000  2023-11-03 11:07:20.018480
3001  2023-11-03 11:07:20.050426
3002  2023-11-03 11:07:20.082344
3003  2023-11-03 11:07:20.114276
3004  2023-11-03 11:07:20.146190
3005  2023-11-03 11:07:20.178062
3006  2023-11-03 11:07:20.209970
3007  2023-11-03 11:07:20.241932
3008  2023-11-03 11:07:20.273882
3009  2023-11-03 11:07:20.306750
3010  2023-11-03 11:07:20.354791
3011  2023-11-03 11:07:20.386721
3012  2023-11-03 11:07:20.418608
3013  2023-11-03 11:07:20.450522
3014  2023-11-03 11:07:20.482444
3015  2023-11-03 11:07:20.514318
3016  2023-11-03 11:07:20.546234
3017  2023-11-03 11:07:20.578196
3018  2023-11-03 11:07:20.610103
3019  2023-11-03 11:07:20.642009
3020  2023-11-03 11:07:20.674888
3021  2023-11-03 11:07:20.706835
3022  2023-11-03 11:07:20.754728
3023  2023-11-03 11:07:20.786623
3024  2023-11-03 11:07:20.818503
3025  2023-11-03 11:07:20.850450
3026  2023-11-03 11:07:20.882365
3027  2023-11-03 11:07:20.914315
3028  2023-11-03 11:07:20.946467
3029  2023-11-03 11:07:20.978384
3030  2023-11-03 11:07:21.010371
3031  2023-11-03 11:07:21.042278
3032  2023-11-03 11:07:21.074226
3033  2023-11-03 11:07:21.106147
3034  2023-11-03 11:07:21.154113
3035  2023-11-03 11:07:21.186027
3036  2023-11-03 11:07:21.217941
3037  2023-11-03 11:07:21.249824
3038  2023-11-03 11:07:21.282738
3039  2023-11-03 11:07:21.314692
3040  2023-11-03 11:07:21.346610
3041  2023-11-03 11:07:21.378533
3042  2023-11-03 11:07:21.410448
3043  2023-11-03 11:07:21.442437
3044  2023-11-03 11:07:21.474440
3045  2023-11-03 11:07:21.507309
3046  2023-11-03 11:07:21.554225
3047  2023-11-03 11:07:21.587100
3048  2023-11-03 11:07:21.618012
3049  2023-11-03 11:07:21.649957
3050  2023-11-03 11:07:21.681875
3051  2023-11-03 11:07:21.713799
3052  2023-11-03 11:07:21.746701
3053  2023-11-03 11:07:21.778618
3054  2023-11-03 11:07:21.810533
3055  2023-11-03 11:07:21.842621
3056  2023-11-03 11:07:21.874603
3057  2023-11-03 11:07:21.906584
3058  2023-11-03 11:07:21.954453
3059  2023-11-03 11:07:21.986370
3060  2023-11-03 11:07:22.018284
3061  2023-11-03 11:07:22.050234
3062  2023-11-03 11:07:22.082081
3063  2023-11-03 11:07:22.114047
3064  2023-11-03 11:07:22.145958
3065  2023-11-03 11:07:22.178883
3066  2023-11-03 11:07:22.209773
3067  2023-11-03 11:07:22.242716
3068  2023-11-03 11:07:22.274606
3069  2023-11-03 11:07:22.322480
3070  2023-11-03 11:07:22.354409
3071  2023-11-03 11:07:22.386310
3072  2023-11-03 11:07:22.418247
3073  2023-11-03 11:07:22.450133
3074  2023-11-03 11:07:22.482013
3075  2023-11-03 11:07:22.513928
3076  2023-11-03 11:07:22.546895
3077  2023-11-03 11:07:22.577783
3078  2023-11-03 11:07:22.609703
3079  2023-11-03 11:07:22.642585
3080  2023-11-03 11:07:22.674526
3081  2023-11-03 11:07:22.722417
3082  2023-11-03 11:07:22.754342
3083  2023-11-03 11:07:22.786260
3084  2023-11-03 11:07:22.818384
3085  2023-11-03 11:07:22.850300
3086  2023-11-03 11:07:22.882163
3087  2023-11-03 11:07:22.914079
3088  2023-11-03 11:07:22.946017
3089  2023-11-03 11:07:22.977924
3090  2023-11-03 11:07:23.010824
3091  2023-11-03 11:07:23.042709
3092  2023-11-03 11:07:23.074658
3093  2023-11-03 11:07:23.122494
3094  2023-11-03 11:07:23.154451
3095  2023-11-03 11:07:23.186355
3096  2023-11-03 11:07:23.218269
3097  2023-11-03 11:07:23.250204
3098  2023-11-03 11:07:23.282068
3099  2023-11-03 11:07:23.314039
3100  2023-11-03 11:07:23.345944
3101  2023-11-03 11:07:23.377826
3102  2023-11-03 11:07:23.410771
3103  2023-11-03 11:07:23.442692
3104  2023-11-03 11:07:23.474587
3105  2023-11-03 11:07:23.522425
3106  2023-11-03 11:07:23.554379
3107  2023-11-03 11:07:23.586284
3108  2023-11-03 11:07:23.618235
3109  2023-11-03 11:07:23.650111
3110  2023-11-03 11:07:23.682139
3111  2023-11-03 11:07:23.714118
3112  2023-11-03 11:07:23.745976
3113  2023-11-03 11:07:23.777975
3114  2023-11-03 11:07:23.809897
3115  2023-11-03 11:07:23.842808
3116  2023-11-03 11:07:23.874699
3117  2023-11-03 11:07:23.922542
3118  2023-11-03 11:07:23.954457
3119  2023-11-03 11:07:23.986412
3120  2023-11-03 11:07:24.018335
3121  2023-11-03 11:07:24.050184
3122  2023-11-03 11:07:24.082150
3123  2023-11-03 11:07:24.114064
3124  2023-11-03 11:07:24.146025
3125  2023-11-03 11:07:24.177935
3126  2023-11-03 11:07:24.209855
3127  2023-11-03 11:07:24.241765
3128  2023-11-03 11:07:24.274693
3129  2023-11-03 11:07:24.322607
3130  2023-11-03 11:07:24.354623
3131  2023-11-03 11:07:24.386538
3132  2023-11-03 11:07:24.418453
3133  2023-11-03 11:07:24.450368
3134  2023-11-03 11:07:24.482281
3135  2023-11-03 11:07:24.514233
3136  2023-11-03 11:07:24.546213
3137  2023-11-03 11:07:24.579088
3138  2023-11-03 11:07:24.611007
3139  2023-11-03 11:07:24.642901
3140  2023-11-03 11:07:24.674894
3141  2023-11-03 11:07:24.722677
3142  2023-11-03 11:07:24.754592
3143  2023-11-03 11:07:24.786540
3144  2023-11-03 11:07:24.818585
3145  2023-11-03 11:07:24.850462
3146  2023-11-03 11:07:24.882335
3147  2023-11-03 11:07:24.914291
3148  2023-11-03 11:07:24.946230
3149  2023-11-03 11:07:24.978116
3150  2023-11-03 11:07:25.010036
3151  2023-11-03 11:07:25.041950
3152  2023-11-03 11:07:25.073887
3153  2023-11-03 11:07:25.122763
3154  2023-11-03 11:07:25.154677
3155  2023-11-03 11:07:25.186629
3156  2023-11-03 11:07:25.218550
3157  2023-11-03 11:07:25.250465
3158  2023-11-03 11:07:25.282172
3159  2023-11-03 11:07:25.314087
3160  2023-11-03 11:07:25.346157
3161  2023-11-03 11:07:25.378065
3162  2023-11-03 11:07:25.410093
3163  2023-11-03 11:07:25.442091
3164  2023-11-03 11:07:25.473991
3165  2023-11-03 11:07:25.521832
3166  2023-11-03 11:07:25.554787
3167  2023-11-03 11:07:25.586658
3168  2023-11-03 11:07:25.618573
3169  2023-11-03 11:07:25.650522
3170  2023-11-03 11:07:25.682402
3171  2023-11-03 11:07:25.714317
3172  2023-11-03 11:07:25.746263
3173  2023-11-03 11:07:25.778161
3174  2023-11-03 11:07:25.810089
3175  2023-11-03 11:07:25.842008
3176  2023-11-03 11:07:25.874922
3177  2023-11-03 11:07:25.921853
3178  2023-11-03 11:07:25.953957
3179  2023-11-03 11:07:25.985866
3180  2023-11-03 11:07:26.018752
3181  2023-11-03 11:07:26.050662
3182  2023-11-03 11:07:26.082579
3183  2023-11-03 11:07:26.114494
3184  2023-11-03 11:07:26.146408
3185  2023-11-03 11:07:26.178325
3186  2023-11-03 11:07:26.210303
3187  2023-11-03 11:07:26.242231
3188  2023-11-03 11:07:26.290059
3189  2023-11-03 11:07:26.322005
3190  2023-11-03 11:07:26.353889
3191  2023-11-03 11:07:26.385831
3192  2023-11-03 11:07:26.418716
3193  2023-11-03 11:07:26.450635
3194  2023-11-03 11:07:26.482545
3195  2023-11-03 11:07:26.514460
3196  2023-11-03 11:07:26.546374
3197  2023-11-03 11:07:26.578321
3198  2023-11-03 11:07:26.610258
3199  2023-11-03 11:07:26.642170
3200  2023-11-03 11:07:26.689991
3201  2023-11-03 11:07:26.721958
3202  2023-11-03 11:07:26.753820
3203  2023-11-03 11:07:26.785735
3204  2023-11-03 11:07:26.818647
3205  2023-11-03 11:07:26.850562
3206  2023-11-03 11:07:26.882476
3207  2023-11-03 11:07:26.914391
3208  2023-11-03 11:07:26.946306
3209  2023-11-03 11:07:26.978256
3210  2023-11-03 11:07:27.010170
3211  2023-11-03 11:07:27.042085
3212  2023-11-03 11:07:27.090012
3213  2023-11-03 11:07:27.122957
3214  2023-11-03 11:07:27.153842
3215  2023-11-03 11:07:27.185756
3216  2023-11-03 11:07:27.218701
3217  2023-11-03 11:07:27.250584
3218  2023-11-03 11:07:27.282505
3219  2023-11-03 11:07:27.314413
3220  2023-11-03 11:07:27.346327
3221  2023-11-03 11:07:27.378242
3222  2023-11-03 11:07:27.410203
3223  2023-11-03 11:07:27.442114
3224  2023-11-03 11:07:27.489943
3225  2023-11-03 11:07:27.521858
3226  2023-11-03 11:07:27.553800
3227  2023-11-03 11:07:27.586716
3228  2023-11-03 11:07:27.618600
3229  2023-11-03 11:07:27.650514
3230  2023-11-03 11:07:27.682468
3231  2023-11-03 11:07:27.714377
3232  2023-11-03 11:07:27.746259
3233  2023-11-03 11:07:27.778225
3234  2023-11-03 11:07:27.810109
3235  2023-11-03 11:07:27.842108
3236  2023-11-03 11:07:27.889969
3237  2023-11-03 11:07:27.921897
3238  2023-11-03 11:07:27.953904
3239  2023-11-03 11:07:27.985819
3240  2023-11-03 11:07:28.017734
3241  2023-11-03 11:07:28.050756
3242  2023-11-03 11:07:28.082560
3243  2023-11-03 11:07:28.114475
3244  2023-11-03 11:07:28.146390
3245  2023-11-03 11:07:28.178349
3246  2023-11-03 11:07:28.210263
3247  2023-11-03 11:07:28.242201
3248  2023-11-03 11:07:28.290184
3249  2023-11-03 11:07:28.322099
3250  2023-11-03 11:07:28.354014
3251  2023-11-03 11:07:28.385929
3252  2023-11-03 11:07:28.417843
3253  2023-11-03 11:07:28.450756
3254  2023-11-03 11:07:28.482677
3255  2023-11-03 11:07:28.514585
3256  2023-11-03 11:07:28.546499
3257  2023-11-03 11:07:28.578689
3258  2023-11-03 11:07:28.610557
3259  2023-11-03 11:07:28.642479
3260  2023-11-03 11:07:28.690319
3261  2023-11-03 11:07:28.722266
3262  2023-11-03 11:07:28.754224
3263  2023-11-03 11:07:28.786063
3264  2023-11-03 11:07:28.817977
3265  2023-11-03 11:07:28.850080
3266  2023-11-03 11:07:28.882042
3267  2023-11-03 11:07:28.913983
3268  2023-11-03 11:07:28.945898
3269  2023-11-03 11:07:28.978812
3270  2023-11-03 11:07:29.010759
3271  2023-11-03 11:07:29.042681
3272  2023-11-03 11:07:29.090520
3273  2023-11-03 11:07:29.122426
3274  2023-11-03 11:07:29.154341
3275  2023-11-03 11:07:29.186255
3276  2023-11-03 11:07:29.218170
3277  2023-11-03 11:07:29.250085
3278  2023-11-03 11:07:29.282000
3279  2023-11-03 11:07:29.313914
3280  2023-11-03 11:07:29.345829
3281  2023-11-03 11:07:29.378778
3282  2023-11-03 11:07:29.410696
3283  2023-11-03 11:07:29.442606
3284  2023-11-03 11:07:29.490443
3285  2023-11-03 11:07:29.522357
3286  2023-11-03 11:07:29.554272
3287  2023-11-03 11:07:29.586187
3288  2023-11-03 11:07:29.618101
3289  2023-11-03 11:07:29.650016
3290  2023-11-03 11:07:29.681931
3291  2023-11-03 11:07:29.713845
3292  2023-11-03 11:07:29.746758
3293  2023-11-03 11:07:29.778705
3294  2023-11-03 11:07:29.810622
3295  2023-11-03 11:07:29.858459
3296  2023-11-03 11:07:29.890374
3297  2023-11-03 11:07:29.922289
3298  2023-11-03 11:07:29.954204
3299  2023-11-03 11:07:29.986118
3300  2023-11-03 11:07:30.018033
3301  2023-11-03 11:07:30.049984
3302  2023-11-03 11:07:30.081872
3303  2023-11-03 11:07:30.114774
3304  2023-11-03 11:07:30.146689
3305  2023-11-03 11:07:30.178639
3306  2023-11-03 11:07:30.210550
3307  2023-11-03 11:07:30.258439
3308  2023-11-03 11:07:30.290305
3309  2023-11-03 11:07:30.322220
3310  2023-11-03 11:07:30.354134
3311  2023-11-03 11:07:30.386094
3312  2023-11-03 11:07:30.417964
3313  2023-11-03 11:07:30.449879
3314  2023-11-03 11:07:30.481793
3315  2023-11-03 11:07:30.514705
3316  2023-11-03 11:07:30.546620
3317  2023-11-03 11:07:30.578562
3318  2023-11-03 11:07:30.610478
3319  2023-11-03 11:07:30.658322
3320  2023-11-03 11:07:30.690236
3321  2023-11-03 11:07:30.722151
3322  2023-11-03 11:07:30.754139
3323  2023-11-03 11:07:30.786054
3324  2023-11-03 11:07:30.817969
3325  2023-11-03 11:07:30.850006
3326  2023-11-03 11:07:30.881920
3327  2023-11-03 11:07:30.914835
3328  2023-11-03 11:07:30.946747
3329  2023-11-03 11:07:30.978697
3330  2023-11-03 11:07:31.010620
3331  2023-11-03 11:07:31.058449
3332  2023-11-03 11:07:31.090364
3333  2023-11-03 11:07:31.122279
3334  2023-11-03 11:07:31.154205
3335  2023-11-03 11:07:31.186109
3336  2023-11-03 11:07:31.218023
3337  2023-11-03 11:07:31.250935
3338  2023-11-03 11:07:31.282849
3339  2023-11-03 11:07:31.313766
3340  2023-11-03 11:07:31.346712
3341  2023-11-03 11:07:31.378627
3342  2023-11-03 11:07:31.410536
3343  2023-11-03 11:07:31.458424
3344  2023-11-03 11:07:31.490294
3345  2023-11-03 11:07:31.522209
3346  2023-11-03 11:07:31.554201
3347  2023-11-03 11:07:31.586071
3348  2023-11-03 11:07:31.617953
3349  2023-11-03 11:07:31.650866
3350  2023-11-03 11:07:31.682816
3351  2023-11-03 11:07:31.714697
3352  2023-11-03 11:07:31.746609
3353  2023-11-03 11:07:31.778551
3354  2023-11-03 11:07:31.810470
3355  2023-11-03 11:07:31.858311
3356  2023-11-03 11:07:31.890261
3357  2023-11-03 11:07:31.922141
3358  2023-11-03 11:07:31.954055
3359  2023-11-03 11:07:31.985970
3360  2023-11-03 11:07:32.017885
3361  2023-11-03 11:07:32.050797
3362  2023-11-03 11:07:32.082712
3363  2023-11-03 11:07:32.114626
3364  2023-11-03 11:07:32.146541
3365  2023-11-03 11:07:32.178506
3366  2023-11-03 11:07:32.210402
3367  2023-11-03 11:07:32.258242
3368  2023-11-03 11:07:32.290202
3369  2023-11-03 11:07:32.323070
3370  2023-11-03 11:07:32.353986
3371  2023-11-03 11:07:32.386009
3372  2023-11-03 11:07:32.417923
3373  2023-11-03 11:07:32.449852
3374  2023-11-03 11:07:32.481766
3375  2023-11-03 11:07:32.514678
3376  2023-11-03 11:07:32.546595
3377  2023-11-03 11:07:32.578550
3378  2023-11-03 11:07:32.610458
3379  2023-11-03 11:07:32.658295
3380  2023-11-03 11:07:32.692235
3381  2023-11-03 11:07:32.724136
3382  2023-11-03 11:07:32.754057
3383  2023-11-03 11:07:32.787977
3384  2023-11-03 11:07:32.819851
3385  2023-11-03 11:07:32.851806
3386  2023-11-03 11:07:32.883713
3387  2023-11-03 11:07:32.915647
3388  2023-11-03 11:07:32.947541
3389  2023-11-03 11:07:32.979463
3390  2023-11-03 11:07:33.011381
3391  2023-11-03 11:07:33.059242
3392  2023-11-03 11:07:33.092153
3393  2023-11-03 11:07:33.124068
3394  2023-11-03 11:07:33.156003
3395  2023-11-03 11:07:33.187898
3396  2023-11-03 11:07:33.219817
3397  2023-11-03 11:07:33.251739
3398  2023-11-03 11:07:33.283647
3399  2023-11-03 11:07:33.315557
3400  2023-11-03 11:07:33.347442
3401  2023-11-03 11:07:33.379397
3402  2023-11-03 11:07:33.411300
3403  2023-11-03 11:07:33.459174
3404  2023-11-03 11:07:33.491095
3405  2023-11-03 11:07:33.523002
3406  2023-11-03 11:07:33.554922
3407  2023-11-03 11:07:33.586855
3408  2023-11-03 11:07:33.618781
3409  2023-11-03 11:07:33.651668
3410  2023-11-03 11:07:33.683582
3411  2023-11-03 11:07:33.715488
3412  2023-11-03 11:07:33.746406
3413  2023-11-03 11:07:33.779325
3414  2023-11-03 11:07:33.827190
3415  2023-11-03 11:07:33.859107
3416  2023-11-03 11:07:33.891020
3417  2023-11-03 11:07:33.922928
3418  2023-11-03 11:07:33.954852
3419  2023-11-03 11:07:33.986760
3420  2023-11-03 11:07:34.018687
3421  2023-11-03 11:07:34.051591
3422  2023-11-03 11:07:34.082476
3423  2023-11-03 11:07:34.114422
3424  2023-11-03 11:07:34.146338
3425  2023-11-03 11:07:34.179247
3426  2023-11-03 11:07:34.227105
3427  2023-11-03 11:07:34.259230
3428  2023-11-03 11:07:34.291137
3429  2023-11-03 11:07:34.323068
3430  2023-11-03 11:07:34.354957
3431  2023-11-03 11:07:34.386870
3432  2023-11-03 11:07:34.418794
3433  2023-11-03 11:07:34.450670
3434  2023-11-03 11:07:34.482618
3435  2023-11-03 11:07:34.514533
3436  2023-11-03 11:07:34.546445
3437  2023-11-03 11:07:34.578359
3438  2023-11-03 11:07:34.626237
3439  2023-11-03 11:07:34.658157
3440  2023-11-03 11:07:34.690063
3441  2023-11-03 11:07:34.721976
3442  2023-11-03 11:07:34.753909
3443  2023-11-03 11:07:34.785825
3444  2023-11-03 11:07:34.817932
3445  2023-11-03 11:07:34.849843
3446  2023-11-03 11:07:34.882772
3447  2023-11-03 11:07:34.914638
3448  2023-11-03 11:07:34.946554
3449  2023-11-03 11:07:34.978503
3450  2023-11-03 11:07:35.026365
3451  2023-11-03 11:07:35.058285
3452  2023-11-03 11:07:35.090202
3453  2023-11-03 11:07:35.124105
3454  2023-11-03 11:07:35.154038
3455  2023-11-03 11:07:35.186945
3456  2023-11-03 11:07:35.218825
3457  2023-11-03 11:07:35.250740
3458  2023-11-03 11:07:35.283692
3459  2023-11-03 11:07:35.314609
3460  2023-11-03 11:07:35.346634
3461  2023-11-03 11:07:35.378507
3462  2023-11-03 11:07:35.426391
3463  2023-11-03 11:07:35.458324
3464  2023-11-03 11:07:35.492317
3465  2023-11-03 11:07:35.523428
3466  2023-11-03 11:07:35.555343
3467  2023-11-03 11:07:35.587252
3468  2023-11-03 11:07:35.618144
3469  2023-11-03 11:07:35.652090
3470  2023-11-03 11:07:35.683022
3471  2023-11-03 11:07:35.714942
3472  2023-11-03 11:07:35.746800
3473  2023-11-03 11:07:35.778753
3474  2023-11-03 11:07:35.826622
3475  2023-11-03 11:07:35.858502
3476  2023-11-03 11:07:35.891444
3477  2023-11-03 11:07:35.923329
3478  2023-11-03 11:07:35.955260
3479  2023-11-03 11:07:35.986171
3480  2023-11-03 11:07:36.018106
3481  2023-11-03 11:07:36.051022
3482  2023-11-03 11:07:36.082904
3483  2023-11-03 11:07:36.114845
3484  2023-11-03 11:07:36.146732
3485  2023-11-03 11:07:36.178691
3486  2023-11-03 11:07:36.226562
3487  2023-11-03 11:07:36.258485
3488  2023-11-03 11:07:36.291377
3489  2023-11-03 11:07:36.323291
3490  2023-11-03 11:07:36.355205
3491  2023-11-03 11:07:36.386129
3492  2023-11-03 11:07:36.418077
3493  2023-11-03 11:07:36.450953
3494  2023-11-03 11:07:36.482864
3495  2023-11-03 11:07:36.514813
3496  2023-11-03 11:07:36.546663
3497  2023-11-03 11:07:36.578655
3498  2023-11-03 11:07:36.626452
3499  2023-11-03 11:07:36.658416
3500  2023-11-03 11:07:36.690318
3501  2023-11-03 11:07:36.722228
3502  2023-11-03 11:07:36.754149
3503  2023-11-03 11:07:36.786089
3504  2023-11-03 11:07:36.817938
3505  2023-11-03 11:07:36.850919
3506  2023-11-03 11:07:36.882766
3507  2023-11-03 11:07:36.914680
3508  2023-11-03 11:07:36.946594
3509  2023-11-03 11:07:36.978545
3510  2023-11-03 11:07:37.026408
3511  2023-11-03 11:07:37.058338
3512  2023-11-03 11:07:37.091233
3513  2023-11-03 11:07:37.122160
3514  2023-11-03 11:07:37.154042
3515  2023-11-03 11:07:37.185986
3516  2023-11-03 11:07:37.218914
3517  2023-11-03 11:07:37.250832
3518  2023-11-03 11:07:37.282756
3519  2023-11-03 11:07:37.314637
3520  2023-11-03 11:07:37.346559
3521  2023-11-03 11:07:37.394428
3522  2023-11-03 11:07:37.426344
3523  2023-11-03 11:07:37.458258
3524  2023-11-03 11:07:37.490209
3525  2023-11-03 11:07:37.522092
3526  2023-11-03 11:07:37.554013
3527  2023-11-03 11:07:37.585934
3528  2023-11-03 11:07:37.617802
3529  2023-11-03 11:07:37.650846
3530  2023-11-03 11:07:37.682796
3531  2023-11-03 11:07:37.714744
3532  2023-11-03 11:07:37.746623
3533  2023-11-03 11:07:37.794537
3534  2023-11-03 11:07:37.826410
3535  2023-11-03 11:07:37.858324
3536  2023-11-03 11:07:37.890317
3537  2023-11-03 11:07:37.922204
3538  2023-11-03 11:07:37.954104
3539  2023-11-03 11:07:37.986019
3540  2023-11-03 11:07:38.018027
3541  2023-11-03 11:07:38.050942
3542  2023-11-03 11:07:38.082853
3543  2023-11-03 11:07:38.114792
3544  2023-11-03 11:07:38.146686
3545  2023-11-03 11:07:38.194557
3546  2023-11-03 11:07:38.226489
3547  2023-11-03 11:07:38.258404
3548  2023-11-03 11:07:38.290269
3549  2023-11-03 11:07:38.322288
3550  2023-11-03 11:07:38.354263
3551  2023-11-03 11:07:38.387165
3552  2023-11-03 11:07:38.418078
3553  2023-11-03 11:07:38.450158
3554  2023-11-03 11:07:38.482082
3555  2023-11-03 11:07:38.515067
3556  2023-11-03 11:07:38.545976
3557  2023-11-03 11:07:38.593857
3558  2023-11-03 11:07:38.625733
3559  2023-11-03 11:07:38.658644
3560  2023-11-03 11:07:38.690559
3561  2023-11-03 11:07:38.722507
