
1  2023-12-05 10:09:21.746448
2  2023-12-05 10:09:21.778353
3  2023-12-05 10:09:21.810180
4  2023-12-05 10:09:21.842128
5  2023-12-05 10:09:21.874309
6  2023-12-05 10:09:21.906134
7  2023-12-05 10:09:21.953970
8  2023-12-05 10:09:21.985885
9  2023-12-05 10:09:22.017799
10  2023-12-05 10:09:22.050712
11  2023-12-05 10:09:22.081692
12  2023-12-05 10:09:22.114600
13  2023-12-05 10:09:22.146577
14  2023-12-05 10:09:22.178485
15  2023-12-05 10:09:22.210359
16  2023-12-05 10:09:22.242305
17  2023-12-05 10:09:22.274230
18  2023-12-05 10:09:22.306140
19  2023-12-05 10:09:22.338059
20  2023-12-05 10:09:22.385890
21  2023-12-05 10:09:22.417804
22  2023-12-05 10:09:22.449695
23  2023-12-05 10:09:22.481642
24  2023-12-05 10:09:22.514560
25  2023-12-05 10:09:22.546470
26  2023-12-05 10:09:22.578350
27  2023-12-05 10:09:22.610296
28  2023-12-05 10:09:22.642380
29  2023-12-05 10:09:22.674292
30  2023-12-05 10:09:22.706172
31  2023-12-05 10:09:22.738089
32  2023-12-05 10:09:22.785959
33  2023-12-05 10:09:22.817921
34  2023-12-05 10:09:22.849789
35  2023-12-05 10:09:22.881741
36  2023-12-05 10:09:22.913658
37  2023-12-05 10:09:22.946541
38  2023-12-05 10:09:22.978611
39  2023-12-05 10:09:23.010500
40  2023-12-05 10:09:23.042420
41  2023-12-05 10:09:23.074341
42  2023-12-05 10:09:23.106249
43  2023-12-05 10:09:23.138164
44  2023-12-05 10:09:23.186005
45  2023-12-05 10:09:23.217956
46  2023-12-05 10:09:23.249834
47  2023-12-05 10:09:23.281749
48  2023-12-05 10:09:23.313664
49  2023-12-05 10:09:23.346576
50  2023-12-05 10:09:23.378491
51  2023-12-05 10:09:23.410406
52  2023-12-05 10:09:23.442351
53  2023-12-05 10:09:23.474322
54  2023-12-05 10:09:23.506276
55  2023-12-05 10:09:23.538244
56  2023-12-05 10:09:23.586116
57  2023-12-05 10:09:23.618030
58  2023-12-05 10:09:23.649953
59  2023-12-05 10:09:23.681860
60  2023-12-05 10:09:23.713775
61  2023-12-05 10:09:23.745689
62  2023-12-05 10:09:23.778602
63  2023-12-05 10:09:23.809989
64  2023-12-05 10:09:23.841910
65  2023-12-05 10:09:23.873782
66  2023-12-05 10:09:23.905730
67  2023-12-05 10:09:23.938609
68  2023-12-05 10:09:23.986519
69  2023-12-05 10:09:24.018395
70  2023-12-05 10:09:24.050311
71  2023-12-05 10:09:24.082268
72  2023-12-05 10:09:24.114219
73  2023-12-05 10:09:24.146104
74  2023-12-05 10:09:24.178014
75  2023-12-05 10:09:24.209929
76  2023-12-05 10:09:24.241892
77  2023-12-05 10:09:24.273758
78  2023-12-05 10:09:24.305709
79  2023-12-05 10:09:24.338604
80  2023-12-05 10:09:24.386458
81  2023-12-05 10:09:24.418372
82  2023-12-05 10:09:24.450286
83  2023-12-05 10:09:24.482236
84  2023-12-05 10:09:24.514115
85  2023-12-05 10:09:24.546036
86  2023-12-05 10:09:24.577983
87  2023-12-05 10:09:24.609859
88  2023-12-05 10:09:24.641773
89  2023-12-05 10:09:24.673689
90  2023-12-05 10:09:24.706600
91  2023-12-05 10:09:24.738603
92  2023-12-05 10:09:24.786523
93  2023-12-05 10:09:24.818469
94  2023-12-05 10:09:24.850388
95  2023-12-05 10:09:24.882427
96  2023-12-05 10:09:24.914341
97  2023-12-05 10:09:24.946250
98  2023-12-05 10:09:24.978170
99  2023-12-05 10:09:25.010095
100  2023-12-05 10:09:25.041999
101  2023-12-05 10:09:25.073920
102  2023-12-05 10:09:25.105796
103  2023-12-05 10:09:25.137711
104  2023-12-05 10:09:25.186581
105  2023-12-05 10:09:25.218495
106  2023-12-05 10:09:25.250409
107  2023-12-05 10:09:25.282325
108  2023-12-05 10:09:25.314239
109  2023-12-05 10:09:25.346155
110  2023-12-05 10:09:25.378593
111  2023-12-05 10:09:25.410506
112  2023-12-05 10:09:25.442425
113  2023-12-05 10:09:25.474422
114  2023-12-05 10:09:25.506336
115  2023-12-05 10:09:25.538250
116  2023-12-05 10:09:25.586090
117  2023-12-05 10:09:25.618004
118  2023-12-05 10:09:25.649919
119  2023-12-05 10:09:25.681834
120  2023-12-05 10:09:25.713781
121  2023-12-05 10:09:25.746662
122  2023-12-05 10:09:25.777617
123  2023-12-05 10:09:25.810524
124  2023-12-05 10:09:25.842441
125  2023-12-05 10:09:25.874353
126  2023-12-05 10:09:25.906265
127  2023-12-05 10:09:25.938185
128  2023-12-05 10:09:25.986021
129  2023-12-05 10:09:26.017968
130  2023-12-05 10:09:26.049850
131  2023-12-05 10:09:26.081765
132  2023-12-05 10:09:26.113723
133  2023-12-05 10:09:26.146632
134  2023-12-05 10:09:26.178552
135  2023-12-05 10:09:26.210446
136  2023-12-05 10:09:26.242367
137  2023-12-05 10:09:26.274304
138  2023-12-05 10:09:26.306179
139  2023-12-05 10:09:26.338197
140  2023-12-05 10:09:26.386007
141  2023-12-05 10:09:26.417965
142  2023-12-05 10:09:26.449836
143  2023-12-05 10:09:26.481803
144  2023-12-05 10:09:26.513709
145  2023-12-05 10:09:26.546582
146  2023-12-05 10:09:26.578524
147  2023-12-05 10:09:26.610467
148  2023-12-05 10:09:26.642488
149  2023-12-05 10:09:26.674409
150  2023-12-05 10:09:26.706317
151  2023-12-05 10:09:26.738237
152  2023-12-05 10:09:26.786078
153  2023-12-05 10:09:26.818028
154  2023-12-05 10:09:26.849908
155  2023-12-05 10:09:26.881894
156  2023-12-05 10:09:26.913839
157  2023-12-05 10:09:26.945722
158  2023-12-05 10:09:26.978634
159  2023-12-05 10:09:27.010549
160  2023-12-05 10:09:27.042464
161  2023-12-05 10:09:27.074378
162  2023-12-05 10:09:27.106293
163  2023-12-05 10:09:27.138295
164  2023-12-05 10:09:27.186167
165  2023-12-05 10:09:27.218086
166  2023-12-05 10:09:27.250015
167  2023-12-05 10:09:27.281879
168  2023-12-05 10:09:27.313841
169  2023-12-05 10:09:27.345744
170  2023-12-05 10:09:27.377666
171  2023-12-05 10:09:27.410543
172  2023-12-05 10:09:27.442486
173  2023-12-05 10:09:27.474400
174  2023-12-05 10:09:27.506322
175  2023-12-05 10:09:27.538239
176  2023-12-05 10:09:27.586065
177  2023-12-05 10:09:27.618018
178  2023-12-05 10:09:27.649951
179  2023-12-05 10:09:27.681844
180  2023-12-05 10:09:27.713761
181  2023-12-05 10:09:27.746683
182  2023-12-05 10:09:27.778583
183  2023-12-05 10:09:27.810498
184  2023-12-05 10:09:27.842380
185  2023-12-05 10:09:27.874328
186  2023-12-05 10:09:27.906209
187  2023-12-05 10:09:27.938128
188  2023-12-05 10:09:27.985996
189  2023-12-05 10:09:28.017911
190  2023-12-05 10:09:28.049825
191  2023-12-05 10:09:28.081740
192  2023-12-05 10:09:28.113655
193  2023-12-05 10:09:28.146568
194  2023-12-05 10:09:28.178481
195  2023-12-05 10:09:28.210396
196  2023-12-05 10:09:28.242310
197  2023-12-05 10:09:28.274225
198  2023-12-05 10:09:28.306074
199  2023-12-05 10:09:28.337990
200  2023-12-05 10:09:28.385893
201  2023-12-05 10:09:28.417810
202  2023-12-05 10:09:28.449726
203  2023-12-05 10:09:28.482603
204  2023-12-05 10:09:28.514572
205  2023-12-05 10:09:28.546478
206  2023-12-05 10:09:28.578345
207  2023-12-05 10:09:28.610291
208  2023-12-05 10:09:28.642174
209  2023-12-05 10:09:28.674090
210  2023-12-05 10:09:28.706018
211  2023-12-05 10:09:28.737918
212  2023-12-05 10:09:28.785790
213  2023-12-05 10:09:28.817705
214  2023-12-05 10:09:28.850620
215  2023-12-05 10:09:28.882532
216  2023-12-05 10:09:28.914480
217  2023-12-05 10:09:28.946361
218  2023-12-05 10:09:28.978339
219  2023-12-05 10:09:29.010404
220  2023-12-05 10:09:29.042286
221  2023-12-05 10:09:29.074234
222  2023-12-05 10:09:29.106146
223  2023-12-05 10:09:29.138070
224  2023-12-05 10:09:29.185947
225  2023-12-05 10:09:29.217860
226  2023-12-05 10:09:29.249766
227  2023-12-05 10:09:29.281768
228  2023-12-05 10:09:29.313677
229  2023-12-05 10:09:29.345635
230  2023-12-05 10:09:29.378550
231  2023-12-05 10:09:29.410451
232  2023-12-05 10:09:29.442333
233  2023-12-05 10:09:29.474278
234  2023-12-05 10:09:29.506192
235  2023-12-05 10:09:29.538076
236  2023-12-05 10:09:29.585948
237  2023-12-05 10:09:29.617953
238  2023-12-05 10:09:29.649940
239  2023-12-05 10:09:29.681863
240  2023-12-05 10:09:29.713839
241  2023-12-05 10:09:29.745791
242  2023-12-05 10:09:29.777668
243  2023-12-05 10:09:29.810622
244  2023-12-05 10:09:29.842529
245  2023-12-05 10:09:29.874409
246  2023-12-05 10:09:29.906354
247  2023-12-05 10:09:29.938270
248  2023-12-05 10:09:29.986144
249  2023-12-05 10:09:30.018072
250  2023-12-05 10:09:30.049970
251  2023-12-05 10:09:30.081854
252  2023-12-05 10:09:30.113854
253  2023-12-05 10:09:30.145820
254  2023-12-05 10:09:30.177700
255  2023-12-05 10:09:30.210611
256  2023-12-05 10:09:30.242558
257  2023-12-05 10:09:30.274476
258  2023-12-05 10:09:30.306388
259  2023-12-05 10:09:30.338270
260  2023-12-05 10:09:30.386176
261  2023-12-05 10:09:30.418056
262  2023-12-05 10:09:30.449971
263  2023-12-05 10:09:30.481886
264  2023-12-05 10:09:30.513841
265  2023-12-05 10:09:30.545750
266  2023-12-05 10:09:30.577629
267  2023-12-05 10:09:30.610578
268  2023-12-05 10:09:30.641716
269  2023-12-05 10:09:30.674586
270  2023-12-05 10:09:30.706500
271  2023-12-05 10:09:30.738415
272  2023-12-05 10:09:30.786363
273  2023-12-05 10:09:30.818284
274  2023-12-05 10:09:30.850162
275  2023-12-05 10:09:30.882107
276  2023-12-05 10:09:30.914024
277  2023-12-05 10:09:30.945939
278  2023-12-05 10:09:30.977820
279  2023-12-05 10:09:31.010738
280  2023-12-05 10:09:31.042685
281  2023-12-05 10:09:31.074692
282  2023-12-05 10:09:31.105691
283  2023-12-05 10:09:31.138604
284  2023-12-05 10:09:31.186625
285  2023-12-05 10:09:31.218509
286  2023-12-05 10:09:31.250423
287  2023-12-05 10:09:31.282370
288  2023-12-05 10:09:31.314362
289  2023-12-05 10:09:31.346275
290  2023-12-05 10:09:31.378192
291  2023-12-05 10:09:31.410079
292  2023-12-05 10:09:31.441980
293  2023-12-05 10:09:31.474974
294  2023-12-05 10:09:31.505888
295  2023-12-05 10:09:31.538768
296  2023-12-05 10:09:31.586689
297  2023-12-05 10:09:31.618700
298  2023-12-05 10:09:31.650603
299  2023-12-05 10:09:31.682637
300  2023-12-05 10:09:31.714538
301  2023-12-05 10:09:31.746450
302  2023-12-05 10:09:31.778375
303  2023-12-05 10:09:31.810298
304  2023-12-05 10:09:31.842226
305  2023-12-05 10:09:31.874124
306  2023-12-05 10:09:31.906022
307  2023-12-05 10:09:31.937905
308  2023-12-05 10:09:31.985791
309  2023-12-05 10:09:32.018724
310  2023-12-05 10:09:32.050637
311  2023-12-05 10:09:32.082574
312  2023-12-05 10:09:32.114485
313  2023-12-05 10:09:32.146384
314  2023-12-05 10:09:32.178303
315  2023-12-05 10:09:32.210177
316  2023-12-05 10:09:32.242093
317  2023-12-05 10:09:32.274012
318  2023-12-05 10:09:32.305955
319  2023-12-05 10:09:32.337835
320  2023-12-05 10:09:32.386782
321  2023-12-05 10:09:32.417728
322  2023-12-05 10:09:32.450653
323  2023-12-05 10:09:32.482652
324  2023-12-05 10:09:32.514646
325  2023-12-05 10:09:32.546561
326  2023-12-05 10:09:32.578465
327  2023-12-05 10:09:32.610525
328  2023-12-05 10:09:32.642522
329  2023-12-05 10:09:32.674513
330  2023-12-05 10:09:32.706382
331  2023-12-05 10:09:32.738337
332  2023-12-05 10:09:32.786210
333  2023-12-05 10:09:32.818167
334  2023-12-05 10:09:32.850169
335  2023-12-05 10:09:32.882097
336  2023-12-05 10:09:32.914965
337  2023-12-05 10:09:32.945916
338  2023-12-05 10:09:32.977915
339  2023-12-05 10:09:33.010910
340  2023-12-05 10:09:33.041848
341  2023-12-05 10:09:33.074708
342  2023-12-05 10:09:33.105784
343  2023-12-05 10:09:33.138665
344  2023-12-05 10:09:33.186562
345  2023-12-05 10:09:33.218474
346  2023-12-05 10:09:33.250466
347  2023-12-05 10:09:33.282382
348  2023-12-05 10:09:33.314265
349  2023-12-05 10:09:33.346225
350  2023-12-05 10:09:33.378164
351  2023-12-05 10:09:33.410128
352  2023-12-05 10:09:33.442041
353  2023-12-05 10:09:33.474192
354  2023-12-05 10:09:33.506100
355  2023-12-05 10:09:33.538034
356  2023-12-05 10:09:33.586593
357  2023-12-05 10:09:33.618600
358  2023-12-05 10:09:33.650508
359  2023-12-05 10:09:33.682392
360  2023-12-05 10:09:33.714383
361  2023-12-05 10:09:33.746292
362  2023-12-05 10:09:33.778204
363  2023-12-05 10:09:33.810120
364  2023-12-05 10:09:33.842038
365  2023-12-05 10:09:33.873954
366  2023-12-05 10:09:33.905872
367  2023-12-05 10:09:33.937748
368  2023-12-05 10:09:33.985679
369  2023-12-05 10:09:34.018572
370  2023-12-05 10:09:34.050479
371  2023-12-05 10:09:34.082393
372  2023-12-05 10:09:34.114307
373  2023-12-05 10:09:34.146222
374  2023-12-05 10:09:34.178136
375  2023-12-05 10:09:34.210059
376  2023-12-05 10:09:34.241981
377  2023-12-05 10:09:34.273879
378  2023-12-05 10:09:34.305794
379  2023-12-05 10:09:34.337710
380  2023-12-05 10:09:34.386579
381  2023-12-05 10:09:34.418493
382  2023-12-05 10:09:34.450408
383  2023-12-05 10:09:34.482328
384  2023-12-05 10:09:34.514237
385  2023-12-05 10:09:34.546149
386  2023-12-05 10:09:34.578071
387  2023-12-05 10:09:34.609981
388  2023-12-05 10:09:34.641895
389  2023-12-05 10:09:34.673816
390  2023-12-05 10:09:34.705728
391  2023-12-05 10:09:34.737642
392  2023-12-05 10:09:34.786509
393  2023-12-05 10:09:34.818436
394  2023-12-05 10:09:34.850338
395  2023-12-05 10:09:34.882271
396  2023-12-05 10:09:34.914172
397  2023-12-05 10:09:34.946092
398  2023-12-05 10:09:34.978014
399  2023-12-05 10:09:35.009920
400  2023-12-05 10:09:35.041832
401  2023-12-05 10:09:35.073741
402  2023-12-05 10:09:35.105654
403  2023-12-05 10:09:35.138565
404  2023-12-05 10:09:35.186554
405  2023-12-05 10:09:35.218430
406  2023-12-05 10:09:35.250374
407  2023-12-05 10:09:35.282290
408  2023-12-05 10:09:35.314204
409  2023-12-05 10:09:35.346089
410  2023-12-05 10:09:35.378031
411  2023-12-05 10:09:35.409952
412  2023-12-05 10:09:35.441879
413  2023-12-05 10:09:35.473781
414  2023-12-05 10:09:35.505707
415  2023-12-05 10:09:35.538613
416  2023-12-05 10:09:35.586491
417  2023-12-05 10:09:35.618390
418  2023-12-05 10:09:35.650304
419  2023-12-05 10:09:35.682219
420  2023-12-05 10:09:35.714134
421  2023-12-05 10:09:35.746055
422  2023-12-05 10:09:35.778048
423  2023-12-05 10:09:35.809958
424  2023-12-05 10:09:35.841887
425  2023-12-05 10:09:35.873798
426  2023-12-05 10:09:35.905702
427  2023-12-05 10:09:35.937621
428  2023-12-05 10:09:35.986493
429  2023-12-05 10:09:36.018396
430  2023-12-05 10:09:36.050314
431  2023-12-05 10:09:36.082227
432  2023-12-05 10:09:36.114143
433  2023-12-05 10:09:36.146060
434  2023-12-05 10:09:36.177983
435  2023-12-05 10:09:36.209896
436  2023-12-05 10:09:36.241804
437  2023-12-05 10:09:36.273721
438  2023-12-05 10:09:36.306596
439  2023-12-05 10:09:36.338540
440  2023-12-05 10:09:36.386416
441  2023-12-05 10:09:36.418329
442  2023-12-05 10:09:36.450241
443  2023-12-05 10:09:36.482276
444  2023-12-05 10:09:36.514319
445  2023-12-05 10:09:36.546233
446  2023-12-05 10:09:36.578149
447  2023-12-05 10:09:36.610066
448  2023-12-05 10:09:36.641980
449  2023-12-05 10:09:36.673893
450  2023-12-05 10:09:36.705812
451  2023-12-05 10:09:36.737723
452  2023-12-05 10:09:36.786590
453  2023-12-05 10:09:36.818508
454  2023-12-05 10:09:36.850421
455  2023-12-05 10:09:36.882343
456  2023-12-05 10:09:36.914256
457  2023-12-05 10:09:36.946170
458  2023-12-05 10:09:36.978078
459  2023-12-05 10:09:37.010012
460  2023-12-05 10:09:37.041913
461  2023-12-05 10:09:37.073825
462  2023-12-05 10:09:37.105742
463  2023-12-05 10:09:37.138653
464  2023-12-05 10:09:37.186526
465  2023-12-05 10:09:37.218435
466  2023-12-05 10:09:37.250350
467  2023-12-05 10:09:37.282265
468  2023-12-05 10:09:37.314181
469  2023-12-05 10:09:37.346097
470  2023-12-05 10:09:37.378006
471  2023-12-05 10:09:37.409940
472  2023-12-05 10:09:37.442837
473  2023-12-05 10:09:37.474755
474  2023-12-05 10:09:37.506669
475  2023-12-05 10:09:37.538580
476  2023-12-05 10:09:37.586420
477  2023-12-05 10:09:37.618367
478  2023-12-05 10:09:37.650280
479  2023-12-05 10:09:37.682197
480  2023-12-05 10:09:37.714115
481  2023-12-05 10:09:37.746033
482  2023-12-05 10:09:37.777951
483  2023-12-05 10:09:37.809863
484  2023-12-05 10:09:37.842766
485  2023-12-05 10:09:37.873651
486  2023-12-05 10:09:37.906597
487  2023-12-05 10:09:37.938512
488  2023-12-05 10:09:37.986381
489  2023-12-05 10:09:38.018301
490  2023-12-05 10:09:38.050214
491  2023-12-05 10:09:38.082126
492  2023-12-05 10:09:38.114056
493  2023-12-05 10:09:38.145959
494  2023-12-05 10:09:38.177880
495  2023-12-05 10:09:38.209787
496  2023-12-05 10:09:38.242704
497  2023-12-05 10:09:38.274619
498  2023-12-05 10:09:38.306525
499  2023-12-05 10:09:38.338446
500  2023-12-05 10:09:38.386315
501  2023-12-05 10:09:38.418229
502  2023-12-05 10:09:38.450140
503  2023-12-05 10:09:38.482075
504  2023-12-05 10:09:38.513970
505  2023-12-05 10:09:38.545889
506  2023-12-05 10:09:38.577803
507  2023-12-05 10:09:38.609718
508  2023-12-05 10:09:38.641629
509  2023-12-05 10:09:38.674509
510  2023-12-05 10:09:38.706462
511  2023-12-05 10:09:38.738373
512  2023-12-05 10:09:38.786241
513  2023-12-05 10:09:38.818126
514  2023-12-05 10:09:38.850077
515  2023-12-05 10:09:38.882026
516  2023-12-05 10:09:38.913869
517  2023-12-05 10:09:38.945823
518  2023-12-05 10:09:38.977730
519  2023-12-05 10:09:39.009653
520  2023-12-05 10:09:39.042573
521  2023-12-05 10:09:39.074439
522  2023-12-05 10:09:39.106385
523  2023-12-05 10:09:39.138301
524  2023-12-05 10:09:39.186173
525  2023-12-05 10:09:39.218092
526  2023-12-05 10:09:39.250009
527  2023-12-05 10:09:39.281922
528  2023-12-05 10:09:39.313839
529  2023-12-05 10:09:39.346711
530  2023-12-05 10:09:39.378666
531  2023-12-05 10:09:39.410578
532  2023-12-05 10:09:39.442488
533  2023-12-05 10:09:39.474401
534  2023-12-05 10:09:39.506284
535  2023-12-05 10:09:39.538238
536  2023-12-05 10:09:39.586101
537  2023-12-05 10:09:39.618021
538  2023-12-05 10:09:39.649946
539  2023-12-05 10:09:39.681854
540  2023-12-05 10:09:39.713776
541  2023-12-05 10:09:39.745677
542  2023-12-05 10:09:39.778592
543  2023-12-05 10:09:39.810509
544  2023-12-05 10:09:39.842387
545  2023-12-05 10:09:39.874299
546  2023-12-05 10:09:39.906214
547  2023-12-05 10:09:39.938164
548  2023-12-05 10:09:39.986043
549  2023-12-05 10:09:40.018957
550  2023-12-05 10:09:40.049833
551  2023-12-05 10:09:40.081781
552  2023-12-05 10:09:40.113694
553  2023-12-05 10:09:40.146602
554  2023-12-05 10:09:40.178515
555  2023-12-05 10:09:40.210434
556  2023-12-05 10:09:40.242348
557  2023-12-05 10:09:40.274230
558  2023-12-05 10:09:40.306177
559  2023-12-05 10:09:40.338276
560  2023-12-05 10:09:40.386190
561  2023-12-05 10:09:40.418097
562  2023-12-05 10:09:40.450019
563  2023-12-05 10:09:40.481941
564  2023-12-05 10:09:40.513845
565  2023-12-05 10:09:40.545760
566  2023-12-05 10:09:40.577678
567  2023-12-05 10:09:40.610590
568  2023-12-05 10:09:40.642499
569  2023-12-05 10:09:40.674379
570  2023-12-05 10:09:40.706294
571  2023-12-05 10:09:40.738247
572  2023-12-05 10:09:40.786110
573  2023-12-05 10:09:40.818031
574  2023-12-05 10:09:40.849961
575  2023-12-05 10:09:40.881864
576  2023-12-05 10:09:40.913773
577  2023-12-05 10:09:40.945693
578  2023-12-05 10:09:40.978599
579  2023-12-05 10:09:41.009562
580  2023-12-05 10:09:41.042591
581  2023-12-05 10:09:41.074520
582  2023-12-05 10:09:41.106388
583  2023-12-05 10:09:41.138306
584  2023-12-05 10:09:41.186206
585  2023-12-05 10:09:41.218121
586  2023-12-05 10:09:41.250045
587  2023-12-05 10:09:41.281950
588  2023-12-05 10:09:41.313871
589  2023-12-05 10:09:41.345783
590  2023-12-05 10:09:41.377698
591  2023-12-05 10:09:41.410607
592  2023-12-05 10:09:41.442521
593  2023-12-05 10:09:41.474443
594  2023-12-05 10:09:41.506318
595  2023-12-05 10:09:41.538233
596  2023-12-05 10:09:41.586136
597  2023-12-05 10:09:41.618051
598  2023-12-05 10:09:41.649975
599  2023-12-05 10:09:41.681889
600  2023-12-05 10:09:41.713805
601  2023-12-05 10:09:41.746709
602  2023-12-05 10:09:41.778642
603  2023-12-05 10:09:41.810567
604  2023-12-05 10:09:41.842419
605  2023-12-05 10:09:41.874335
606  2023-12-05 10:09:41.906248
607  2023-12-05 10:09:41.938163
608  2023-12-05 10:09:41.986079
609  2023-12-05 10:09:42.017983
610  2023-12-05 10:09:42.050893
611  2023-12-05 10:09:42.081819
612  2023-12-05 10:09:42.113728
613  2023-12-05 10:09:42.146638
614  2023-12-05 10:09:42.178526
615  2023-12-05 10:09:42.210485
616  2023-12-05 10:09:42.242349
617  2023-12-05 10:09:42.274264
618  2023-12-05 10:09:42.306210
619  2023-12-05 10:09:42.338125
620  2023-12-05 10:09:42.386007
621  2023-12-05 10:09:42.417913
622  2023-12-05 10:09:42.449833
623  2023-12-05 10:09:42.481745
624  2023-12-05 10:09:42.513655
625  2023-12-05 10:09:42.546569
626  2023-12-05 10:09:42.578450
627  2023-12-05 10:09:42.610404
628  2023-12-05 10:09:42.642311
629  2023-12-05 10:09:42.674233
630  2023-12-05 10:09:42.706108
631  2023-12-05 10:09:42.738023
632  2023-12-05 10:09:42.785943
633  2023-12-05 10:09:42.817843
634  2023-12-05 10:09:42.850756
635  2023-12-05 10:09:42.882669
636  2023-12-05 10:09:42.914590
637  2023-12-05 10:09:42.946508
638  2023-12-05 10:09:42.978428
639  2023-12-05 10:09:43.010327
640  2023-12-05 10:09:43.042209
641  2023-12-05 10:09:43.074124
642  2023-12-05 10:09:43.106082
643  2023-12-05 10:09:43.138951
644  2023-12-05 10:09:43.185860
645  2023-12-05 10:09:43.217775
646  2023-12-05 10:09:43.250683
647  2023-12-05 10:09:43.282599
648  2023-12-05 10:09:43.314529
649  2023-12-05 10:09:43.346429
650  2023-12-05 10:09:43.378343
651  2023-12-05 10:09:43.410256
652  2023-12-05 10:09:43.442139
653  2023-12-05 10:09:43.474054
654  2023-12-05 10:09:43.505969
655  2023-12-05 10:09:43.537883
656  2023-12-05 10:09:43.585790
657  2023-12-05 10:09:43.617704
658  2023-12-05 10:09:43.649617
659  2023-12-05 10:09:43.682534
660  2023-12-05 10:09:43.714453
661  2023-12-05 10:09:43.746358
662  2023-12-05 10:09:43.778272
663  2023-12-05 10:09:43.810189
664  2023-12-05 10:09:43.842069
665  2023-12-05 10:09:43.873984
666  2023-12-05 10:09:43.905899
667  2023-12-05 10:09:43.937813
668  2023-12-05 10:09:43.985720
669  2023-12-05 10:09:44.017648
670  2023-12-05 10:09:44.050568
671  2023-12-05 10:09:44.082459
672  2023-12-05 10:09:44.114378
673  2023-12-05 10:09:44.146292
674  2023-12-05 10:09:44.178202
675  2023-12-05 10:09:44.210117
676  2023-12-05 10:09:44.242000
677  2023-12-05 10:09:44.273914
678  2023-12-05 10:09:44.305829
679  2023-12-05 10:09:44.337743
680  2023-12-05 10:09:44.385649
681  2023-12-05 10:09:44.417573
682  2023-12-05 10:09:44.450473
683  2023-12-05 10:09:44.482388
684  2023-12-05 10:09:44.514302
685  2023-12-05 10:09:44.546225
686  2023-12-05 10:09:44.578136
687  2023-12-05 10:09:44.610104
688  2023-12-05 10:09:44.642100
689  2023-12-05 10:09:44.674044
690  2023-12-05 10:09:44.705970
691  2023-12-05 10:09:44.737885
692  2023-12-05 10:09:44.785792
693  2023-12-05 10:09:44.817706
694  2023-12-05 10:09:44.849619
695  2023-12-05 10:09:44.882532
696  2023-12-05 10:09:44.914445
697  2023-12-05 10:09:44.946380
698  2023-12-05 10:09:44.978282
699  2023-12-05 10:09:45.010157
700  2023-12-05 10:09:45.042079
701  2023-12-05 10:09:45.073986
702  2023-12-05 10:09:45.105900
703  2023-12-05 10:09:45.137815
704  2023-12-05 10:09:45.185719
705  2023-12-05 10:09:45.218601
706  2023-12-05 10:09:45.250514
707  2023-12-05 10:09:45.282460
708  2023-12-05 10:09:45.314383
709  2023-12-05 10:09:45.346292
710  2023-12-05 10:09:45.378206
711  2023-12-05 10:09:45.410087
712  2023-12-05 10:09:45.442001
713  2023-12-05 10:09:45.473952
714  2023-12-05 10:09:45.505868
715  2023-12-05 10:09:45.537745
716  2023-12-05 10:09:45.585653
717  2023-12-05 10:09:45.618529
718  2023-12-05 10:09:45.650485
719  2023-12-05 10:09:45.682390
720  2023-12-05 10:09:45.714306
721  2023-12-05 10:09:45.746229
722  2023-12-05 10:09:45.778102
723  2023-12-05 10:09:45.810080
724  2023-12-05 10:09:45.841972
725  2023-12-05 10:09:45.873846
726  2023-12-05 10:09:45.905761
727  2023-12-05 10:09:45.937706
728  2023-12-05 10:09:45.986584
729  2023-12-05 10:09:46.018493
730  2023-12-05 10:09:46.050409
731  2023-12-05 10:09:46.082321
732  2023-12-05 10:09:46.114235
733  2023-12-05 10:09:46.146150
734  2023-12-05 10:09:46.178074
735  2023-12-05 10:09:46.209948
736  2023-12-05 10:09:46.241863
737  2023-12-05 10:09:46.273809
738  2023-12-05 10:09:46.305692
739  2023-12-05 10:09:46.337607
740  2023-12-05 10:09:46.386527
741  2023-12-05 10:09:46.418432
742  2023-12-05 10:09:46.450336
743  2023-12-05 10:09:46.482260
744  2023-12-05 10:09:46.514175
745  2023-12-05 10:09:46.546049
746  2023-12-05 10:09:46.578010
747  2023-12-05 10:09:46.609878
748  2023-12-05 10:09:46.641793
749  2023-12-05 10:09:46.673708
750  2023-12-05 10:09:46.705622
751  2023-12-05 10:09:46.738534
752  2023-12-05 10:09:46.786445
753  2023-12-05 10:09:46.818352
754  2023-12-05 10:09:46.850272
755  2023-12-05 10:09:46.882180
756  2023-12-05 10:09:46.914103
757  2023-12-05 10:09:46.946026
758  2023-12-05 10:09:46.977936
759  2023-12-05 10:09:47.009808
760  2023-12-05 10:09:47.041723
761  2023-12-05 10:09:47.073638
762  2023-12-05 10:09:47.106550
763  2023-12-05 10:09:47.138464
764  2023-12-05 10:09:47.186369
765  2023-12-05 10:09:47.218288
766  2023-12-05 10:09:47.250199
767  2023-12-05 10:09:47.282110
768  2023-12-05 10:09:47.314002
769  2023-12-05 10:09:47.346958
770  2023-12-05 10:09:47.377911
771  2023-12-05 10:09:47.409786
772  2023-12-05 10:09:47.441701
773  2023-12-05 10:09:47.474680
774  2023-12-05 10:09:47.506528
775  2023-12-05 10:09:47.538442
776  2023-12-05 10:09:47.586346
777  2023-12-05 10:09:47.618270
778  2023-12-05 10:09:47.650182
779  2023-12-05 10:09:47.682090
780  2023-12-05 10:09:47.714017
781  2023-12-05 10:09:47.745933
782  2023-12-05 10:09:47.777839
783  2023-12-05 10:09:47.809753
784  2023-12-05 10:09:47.841631
785  2023-12-05 10:09:47.873695
786  2023-12-05 10:09:47.905610
787  2023-12-05 10:09:47.937559
788  2023-12-05 10:09:47.986434
789  2023-12-05 10:09:48.018350
790  2023-12-05 10:09:48.050255
791  2023-12-05 10:09:48.082169
792  2023-12-05 10:09:48.114117
793  2023-12-05 10:09:48.146019
794  2023-12-05 10:09:48.177924
795  2023-12-05 10:09:48.209796
796  2023-12-05 10:09:48.241711
797  2023-12-05 10:09:48.274623
798  2023-12-05 10:09:48.306586
799  2023-12-05 10:09:48.338452
800  2023-12-05 10:09:48.386356
801  2023-12-05 10:09:48.418276
802  2023-12-05 10:09:48.450194
803  2023-12-05 10:09:48.482104
804  2023-12-05 10:09:48.514014
805  2023-12-05 10:09:48.545929
806  2023-12-05 10:09:48.577848
807  2023-12-05 10:09:48.609726
808  2023-12-05 10:09:48.641677
809  2023-12-05 10:09:48.674553
810  2023-12-05 10:09:48.706468
811  2023-12-05 10:09:48.738382
812  2023-12-05 10:09:48.786287
813  2023-12-05 10:09:48.818215
814  2023-12-05 10:09:48.850116
815  2023-12-05 10:09:48.882031
816  2023-12-05 10:09:48.913950
817  2023-12-05 10:09:48.945865
818  2023-12-05 10:09:48.977742
819  2023-12-05 10:09:49.009657
820  2023-12-05 10:09:49.041571
821  2023-12-05 10:09:49.074483
822  2023-12-05 10:09:49.106398
823  2023-12-05 10:09:49.138312
824  2023-12-05 10:09:49.186227
825  2023-12-05 10:09:49.218132
826  2023-12-05 10:09:49.250013
827  2023-12-05 10:09:49.281965
828  2023-12-05 10:09:49.313877
829  2023-12-05 10:09:49.345791
830  2023-12-05 10:09:49.377672
831  2023-12-05 10:09:49.409587
832  2023-12-05 10:09:49.442499
833  2023-12-05 10:09:49.474424
834  2023-12-05 10:09:49.506328
835  2023-12-05 10:09:49.538242
836  2023-12-05 10:09:49.586114
837  2023-12-05 10:09:49.618064
838  2023-12-05 10:09:49.649987
839  2023-12-05 10:09:49.681895
840  2023-12-05 10:09:49.713773
841  2023-12-05 10:09:49.745727
842  2023-12-05 10:09:49.777602
843  2023-12-05 10:09:49.810515
844  2023-12-05 10:09:49.842429
845  2023-12-05 10:09:49.874343
846  2023-12-05 10:09:49.906265
847  2023-12-05 10:09:49.938173
848  2023-12-05 10:09:49.986085
849  2023-12-05 10:09:50.017996
850  2023-12-05 10:09:50.049916
851  2023-12-05 10:09:50.081823
852  2023-12-05 10:09:50.113758
853  2023-12-05 10:09:50.145803
854  2023-12-05 10:09:50.178675
855  2023-12-05 10:09:50.210587
856  2023-12-05 10:09:50.242566
857  2023-12-05 10:09:50.274416
858  2023-12-05 10:09:50.306365
859  2023-12-05 10:09:50.338280
860  2023-12-05 10:09:50.386309
861  2023-12-05 10:09:50.418228
862  2023-12-05 10:09:50.450140
863  2023-12-05 10:09:50.482022
864  2023-12-05 10:09:50.513968
865  2023-12-05 10:09:50.545851
866  2023-12-05 10:09:50.577766
867  2023-12-05 10:09:50.609680
868  2023-12-05 10:09:50.641626
869  2023-12-05 10:09:50.674507
870  2023-12-05 10:09:50.706422
871  2023-12-05 10:09:50.738336
872  2023-12-05 10:09:50.786241
873  2023-12-05 10:09:50.818154
874  2023-12-05 10:09:50.850074
875  2023-12-05 10:09:50.881952
876  2023-12-05 10:09:50.913913
877  2023-12-05 10:09:50.945815
878  2023-12-05 10:09:50.977730
879  2023-12-05 10:09:51.009648
880  2023-12-05 10:09:51.042523
881  2023-12-05 10:09:51.074437
882  2023-12-05 10:09:51.106352
883  2023-12-05 10:09:51.138266
884  2023-12-05 10:09:51.186178
885  2023-12-05 10:09:51.218053
886  2023-12-05 10:09:51.250002
887  2023-12-05 10:09:51.281913
888  2023-12-05 10:09:51.313834
889  2023-12-05 10:09:51.345748
890  2023-12-05 10:09:51.377707
891  2023-12-05 10:09:51.409622
892  2023-12-05 10:09:51.441536
893  2023-12-05 10:09:51.474448
894  2023-12-05 10:09:51.506363
895  2023-12-05 10:09:51.538277
896  2023-12-05 10:09:51.586188
897  2023-12-05 10:09:51.618095
898  2023-12-05 10:09:51.650015
899  2023-12-05 10:09:51.681927
900  2023-12-05 10:09:51.713850
901  2023-12-05 10:09:51.746753
902  2023-12-05 10:09:51.777637
903  2023-12-05 10:09:51.810550
904  2023-12-05 10:09:51.842464
905  2023-12-05 10:09:51.874378
906  2023-12-05 10:09:51.906293
907  2023-12-05 10:09:51.938207
908  2023-12-05 10:09:51.986112
909  2023-12-05 10:09:52.018119
910  2023-12-05 10:09:52.050955
911  2023-12-05 10:09:52.081859
912  2023-12-05 10:09:52.113773
913  2023-12-05 10:09:52.146688
914  2023-12-05 10:09:52.178565
915  2023-12-05 10:09:52.210479
916  2023-12-05 10:09:52.242394
917  2023-12-05 10:09:52.274308
918  2023-12-05 10:09:52.306223
919  2023-12-05 10:09:52.338138
920  2023-12-05 10:09:52.386055
921  2023-12-05 10:09:52.417961
922  2023-12-05 10:09:52.449875
923  2023-12-05 10:09:52.481753
924  2023-12-05 10:09:52.513702
925  2023-12-05 10:09:52.546614
926  2023-12-05 10:09:52.578495
927  2023-12-05 10:09:52.610409
928  2023-12-05 10:09:52.642357
929  2023-12-05 10:09:52.674271
930  2023-12-05 10:09:52.706153
931  2023-12-05 10:09:52.738068
932  2023-12-05 10:09:52.785985
933  2023-12-05 10:09:52.817908
934  2023-12-05 10:09:52.849770
935  2023-12-05 10:09:52.881718
936  2023-12-05 10:09:52.914596
937  2023-12-05 10:09:52.946510
938  2023-12-05 10:09:52.978472
939  2023-12-05 10:09:53.010372
940  2023-12-05 10:09:53.042266
941  2023-12-05 10:09:53.074169
942  2023-12-05 10:09:53.106099
943  2023-12-05 10:09:53.139027
944  2023-12-05 10:09:53.186900
945  2023-12-05 10:09:53.218815
946  2023-12-05 10:09:53.250727
947  2023-12-05 10:09:53.282650
948  2023-12-05 10:09:53.314551
949  2023-12-05 10:09:53.346481
950  2023-12-05 10:09:53.378355
951  2023-12-05 10:09:53.410270
952  2023-12-05 10:09:53.442184
953  2023-12-05 10:09:53.474132
954  2023-12-05 10:09:53.506013
955  2023-12-05 10:09:53.537928
956  2023-12-05 10:09:53.585800
957  2023-12-05 10:09:53.618766
958  2023-12-05 10:09:53.650663
959  2023-12-05 10:09:53.682587
960  2023-12-05 10:09:53.714457
961  2023-12-05 10:09:53.746372
962  2023-12-05 10:09:53.778316
963  2023-12-05 10:09:53.810200
964  2023-12-05 10:09:53.842115
965  2023-12-05 10:09:53.874029
966  2023-12-05 10:09:53.905944
967  2023-12-05 10:09:53.937895
968  2023-12-05 10:09:53.985762
969  2023-12-05 10:09:54.018664
970  2023-12-05 10:09:54.050597
971  2023-12-05 10:09:54.082528
972  2023-12-05 10:09:54.114466
973  2023-12-05 10:09:54.146352
974  2023-12-05 10:09:54.178246
975  2023-12-05 10:09:54.210161
976  2023-12-05 10:09:54.243075
977  2023-12-05 10:09:54.274989
978  2023-12-05 10:09:54.306908
979  2023-12-05 10:09:54.337789
980  2023-12-05 10:09:54.386692
981  2023-12-05 10:09:54.418608
982  2023-12-05 10:09:54.450541
983  2023-12-05 10:09:54.482433
984  2023-12-05 10:09:54.514317
985  2023-12-05 10:09:54.546232
986  2023-12-05 10:09:54.578146
987  2023-12-05 10:09:54.610094
988  2023-12-05 10:09:54.641975
989  2023-12-05 10:09:54.674921
990  2023-12-05 10:09:54.706836
991  2023-12-05 10:09:54.738748
992  2023-12-05 10:09:54.786589
993  2023-12-05 10:09:54.818505
994  2023-12-05 10:09:54.850452
995  2023-12-05 10:09:54.882365
996  2023-12-05 10:09:54.914261
997  2023-12-05 10:09:54.946162
998  2023-12-05 10:09:54.978145
999  2023-12-05 10:09:55.011020
1000  2023-12-05 10:09:55.041905
1001  2023-12-05 10:09:55.073820
1002  2023-12-05 10:09:55.105734
1003  2023-12-05 10:09:55.138690
1004  2023-12-05 10:09:55.186577
1005  2023-12-05 10:09:55.218468
1006  2023-12-05 10:09:55.250395
1007  2023-12-05 10:09:55.282294
1008  2023-12-05 10:09:55.314208
1009  2023-12-05 10:09:55.346129
1010  2023-12-05 10:09:55.378007
1011  2023-12-05 10:09:55.409921
1012  2023-12-05 10:09:55.441888
1013  2023-12-05 10:09:55.473867
1014  2023-12-05 10:09:55.505756
1015  2023-12-05 10:09:55.538699
1016  2023-12-05 10:09:55.586610
1017  2023-12-05 10:09:55.618525
1018  2023-12-05 10:09:55.650476
1019  2023-12-05 10:09:55.682384
1020  2023-12-05 10:09:55.714292
1021  2023-12-05 10:09:55.746214
1022  2023-12-05 10:09:55.778123
1023  2023-12-05 10:09:55.810068
1024  2023-12-05 10:09:55.841956
1025  2023-12-05 10:09:55.873872
1026  2023-12-05 10:09:55.905788
1027  2023-12-05 10:09:55.937795
1028  2023-12-05 10:09:55.985961
1029  2023-12-05 10:09:56.017873
1030  2023-12-05 10:09:56.049891
1031  2023-12-05 10:09:56.081812
1032  2023-12-05 10:09:56.113718
1033  2023-12-05 10:09:56.146629
1034  2023-12-05 10:09:56.178544
1035  2023-12-05 10:09:56.210460
1036  2023-12-05 10:09:56.242342
1037  2023-12-05 10:09:56.274302
1038  2023-12-05 10:09:56.306203
1039  2023-12-05 10:09:56.338087
1040  2023-12-05 10:09:56.385999
1041  2023-12-05 10:09:56.417936
1042  2023-12-05 10:09:56.449926
1043  2023-12-05 10:09:56.481843
1044  2023-12-05 10:09:56.514753
1045  2023-12-05 10:09:56.546670
1046  2023-12-05 10:09:56.578736
1047  2023-12-05 10:09:56.610653
1048  2023-12-05 10:09:56.642571
1049  2023-12-05 10:09:56.674490
1050  2023-12-05 10:09:56.706397
1051  2023-12-05 10:09:56.738311
1052  2023-12-05 10:09:56.786205
1053  2023-12-05 10:09:56.818098
1054  2023-12-05 10:09:56.850021
1055  2023-12-05 10:09:56.881933
1056  2023-12-05 10:09:56.913846
1057  2023-12-05 10:09:56.945766
1058  2023-12-05 10:09:56.978669
1059  2023-12-05 10:09:57.010584
1060  2023-12-05 10:09:57.042496
1061  2023-12-05 10:09:57.074412
1062  2023-12-05 10:09:57.106327
1063  2023-12-05 10:09:57.138250
1064  2023-12-05 10:09:57.186119
1065  2023-12-05 10:09:57.218040
1066  2023-12-05 10:09:57.249946
1067  2023-12-05 10:09:57.281922
1068  2023-12-05 10:09:57.313835
1069  2023-12-05 10:09:57.345787
1070  2023-12-05 10:09:57.378693
1071  2023-12-05 10:09:57.410608
1072  2023-12-05 10:09:57.442491
1073  2023-12-05 10:09:57.474502
1074  2023-12-05 10:09:57.506490
1075  2023-12-05 10:09:57.538555
1076  2023-12-05 10:09:57.586456
1077  2023-12-05 10:09:57.618413
1078  2023-12-05 10:09:57.650297
1079  2023-12-05 10:09:57.682211
1080  2023-12-05 10:09:57.714126
1081  2023-12-05 10:09:57.746041
1082  2023-12-05 10:09:57.777955
1083  2023-12-05 10:09:57.809946
1084  2023-12-05 10:09:57.841865
1085  2023-12-05 10:09:57.874740
1086  2023-12-05 10:09:57.905705
1087  2023-12-05 10:09:57.937605
1088  2023-12-05 10:09:57.986472
1089  2023-12-05 10:09:58.018391
1090  2023-12-05 10:09:58.050301
1091  2023-12-05 10:09:58.082221
1092  2023-12-05 10:09:58.114100
1093  2023-12-05 10:09:58.146056
1094  2023-12-05 10:09:58.177960
1095  2023-12-05 10:09:58.209878
1096  2023-12-05 10:09:58.242755
1097  2023-12-05 10:09:58.274728
1098  2023-12-05 10:09:58.305746
1099  2023-12-05 10:09:58.337662
1100  2023-12-05 10:09:58.386545
1101  2023-12-05 10:09:58.418445
1102  2023-12-05 10:09:58.450397
1103  2023-12-05 10:09:58.482315
1104  2023-12-05 10:09:58.514193
1105  2023-12-05 10:09:58.546141
1106  2023-12-05 10:09:58.578061
1107  2023-12-05 10:09:58.609979
1108  2023-12-05 10:09:58.641991
1109  2023-12-05 10:09:58.673857
1110  2023-12-05 10:09:58.705806
1111  2023-12-05 10:09:58.737720
1112  2023-12-05 10:09:58.785595
1113  2023-12-05 10:09:58.818517
1114  2023-12-05 10:09:58.850416
1115  2023-12-05 10:09:58.882332
1116  2023-12-05 10:09:58.914214
1117  2023-12-05 10:09:58.946159
1118  2023-12-05 10:09:58.978075
1119  2023-12-05 10:09:59.009997
1120  2023-12-05 10:09:59.041912
1121  2023-12-05 10:09:59.073787
1122  2023-12-05 10:09:59.105738
1123  2023-12-05 10:09:59.137650
1124  2023-12-05 10:09:59.186527
1125  2023-12-05 10:09:59.218433
1126  2023-12-05 10:09:59.250351
1127  2023-12-05 10:09:59.282263
1128  2023-12-05 10:09:59.314177
1129  2023-12-05 10:09:59.346112
1130  2023-12-05 10:09:59.378022
1131  2023-12-05 10:09:59.409925
1132  2023-12-05 10:09:59.441841
1133  2023-12-05 10:09:59.473757
1134  2023-12-05 10:09:59.506667
1135  2023-12-05 10:09:59.538574
1136  2023-12-05 10:09:59.586465
1137  2023-12-05 10:09:59.618361
1138  2023-12-05 10:09:59.650280
1139  2023-12-05 10:09:59.682193
1140  2023-12-05 10:09:59.714076
1141  2023-12-05 10:09:59.746032
1142  2023-12-05 10:09:59.777940
1143  2023-12-05 10:09:59.809820
1144  2023-12-05 10:09:59.841952
1145  2023-12-05 10:09:59.873829
1146  2023-12-05 10:09:59.905780
1147  2023-12-05 10:09:59.937690
1148  2023-12-05 10:09:59.985675
1149  2023-12-05 10:10:00.018549
1150  2023-12-05 10:10:00.050463
1151  2023-12-05 10:10:00.082412
1152  2023-12-05 10:10:00.114292
1153  2023-12-05 10:10:00.146238
1154  2023-12-05 10:10:00.178154
1155  2023-12-05 10:10:00.210066
1156  2023-12-05 10:10:00.241983
1157  2023-12-05 10:10:00.273918
1158  2023-12-05 10:10:00.305813
1159  2023-12-05 10:10:00.337729
1160  2023-12-05 10:10:00.385568
1161  2023-12-05 10:10:00.418531
1162  2023-12-05 10:10:00.450441
1163  2023-12-05 10:10:00.482341
1164  2023-12-05 10:10:00.514253
1165  2023-12-05 10:10:00.546137
1166  2023-12-05 10:10:00.578082
1167  2023-12-05 10:10:00.610002
1168  2023-12-05 10:10:00.641940
1169  2023-12-05 10:10:00.673832
1170  2023-12-05 10:10:00.705710
1171  2023-12-05 10:10:00.737661
1172  2023-12-05 10:10:00.786526
1173  2023-12-05 10:10:00.818448
1174  2023-12-05 10:10:00.850365
1175  2023-12-05 10:10:00.882271
1176  2023-12-05 10:10:00.914152
1177  2023-12-05 10:10:00.946067
1178  2023-12-05 10:10:00.978027
1179  2023-12-05 10:10:01.009932
1180  2023-12-05 10:10:01.041847
1181  2023-12-05 10:10:01.073725
1182  2023-12-05 10:10:01.106670
1183  2023-12-05 10:10:01.137591
1184  2023-12-05 10:10:01.186459
1185  2023-12-05 10:10:01.218381
1186  2023-12-05 10:10:01.250288
1187  2023-12-05 10:10:01.282199
1188  2023-12-05 10:10:01.314112
1189  2023-12-05 10:10:01.346057
1190  2023-12-05 10:10:01.377944
1191  2023-12-05 10:10:01.409860
1192  2023-12-05 10:10:01.441779
1193  2023-12-05 10:10:01.473688
1194  2023-12-05 10:10:01.505570
1195  2023-12-05 10:10:01.537626
1196  2023-12-05 10:10:01.586511
1197  2023-12-05 10:10:01.618407
1198  2023-12-05 10:10:01.650322
1199  2023-12-05 10:10:01.682237
1200  2023-12-05 10:10:01.714152
1201  2023-12-05 10:10:01.746079
1202  2023-12-05 10:10:01.777982
1203  2023-12-05 10:10:01.809915
1204  2023-12-05 10:10:01.841896
1205  2023-12-05 10:10:01.873766
1206  2023-12-05 10:10:01.905715
1207  2023-12-05 10:10:01.937635
1208  2023-12-05 10:10:01.986506
1209  2023-12-05 10:10:02.018415
1210  2023-12-05 10:10:02.050327
1211  2023-12-05 10:10:02.082240
1212  2023-12-05 10:10:02.114154
1213  2023-12-05 10:10:02.146078
1214  2023-12-05 10:10:02.178950
1215  2023-12-05 10:10:02.210864
1216  2023-12-05 10:10:02.241822
1217  2023-12-05 10:10:02.273731
1218  2023-12-05 10:10:02.306644
1219  2023-12-05 10:10:02.338557
1220  2023-12-05 10:10:02.386427
1221  2023-12-05 10:10:02.418351
1222  2023-12-05 10:10:02.450265
1223  2023-12-05 10:10:02.482171
1224  2023-12-05 10:10:02.514087
1225  2023-12-05 10:10:02.545968
1226  2023-12-05 10:10:02.577921
1227  2023-12-05 10:10:02.609832
1228  2023-12-05 10:10:02.641751
1229  2023-12-05 10:10:02.673665
1230  2023-12-05 10:10:02.706538
1231  2023-12-05 10:10:02.738493
1232  2023-12-05 10:10:02.786358
1233  2023-12-05 10:10:02.818280
1234  2023-12-05 10:10:02.850194
1235  2023-12-05 10:10:02.882100
1236  2023-12-05 10:10:02.914036
1237  2023-12-05 10:10:02.945941
1238  2023-12-05 10:10:02.977842
1239  2023-12-05 10:10:03.009771
1240  2023-12-05 10:10:03.041674
1241  2023-12-05 10:10:03.073599
1242  2023-12-05 10:10:03.106469
1243  2023-12-05 10:10:03.138383
1244  2023-12-05 10:10:03.186302
1245  2023-12-05 10:10:03.218202
1246  2023-12-05 10:10:03.250116
1247  2023-12-05 10:10:03.282037
1248  2023-12-05 10:10:03.313945
1249  2023-12-05 10:10:03.345828
1250  2023-12-05 10:10:03.377742
1251  2023-12-05 10:10:03.409692
1252  2023-12-05 10:10:03.441609
1253  2023-12-05 10:10:03.474538
1254  2023-12-05 10:10:03.506399
1255  2023-12-05 10:10:03.538313
1256  2023-12-05 10:10:03.586217
1257  2023-12-05 10:10:03.618132
1258  2023-12-05 10:10:03.650061
1259  2023-12-05 10:10:03.681971
1260  2023-12-05 10:10:03.713898
1261  2023-12-05 10:10:03.745758
1262  2023-12-05 10:10:03.777673
1263  2023-12-05 10:10:03.809589
1264  2023-12-05 10:10:03.842500
1265  2023-12-05 10:10:03.874447
1266  2023-12-05 10:10:03.906329
1267  2023-12-05 10:10:03.938243
1268  2023-12-05 10:10:03.986147
1269  2023-12-05 10:10:04.018031
1270  2023-12-05 10:10:04.049992
1271  2023-12-05 10:10:04.081913
1272  2023-12-05 10:10:04.113809
1273  2023-12-05 10:10:04.145688
1274  2023-12-05 10:10:04.177604
1275  2023-12-05 10:10:04.210515
1276  2023-12-05 10:10:04.242430
1277  2023-12-05 10:10:04.274375
1278  2023-12-05 10:10:04.306302
1279  2023-12-05 10:10:04.338173
1280  2023-12-05 10:10:04.386077
1281  2023-12-05 10:10:04.418004
1282  2023-12-05 10:10:04.449875
1283  2023-12-05 10:10:04.481843
1284  2023-12-05 10:10:04.513738
1285  2023-12-05 10:10:04.545618
1286  2023-12-05 10:10:04.578530
1287  2023-12-05 10:10:04.610445
1288  2023-12-05 10:10:04.642397
1289  2023-12-05 10:10:04.674274
1290  2023-12-05 10:10:04.706189
1291  2023-12-05 10:10:04.738103
1292  2023-12-05 10:10:04.786015
1293  2023-12-05 10:10:04.817924
1294  2023-12-05 10:10:04.849805
1295  2023-12-05 10:10:04.881719
1296  2023-12-05 10:10:04.913634
1297  2023-12-05 10:10:04.945548
1298  2023-12-05 10:10:04.978460
1299  2023-12-05 10:10:05.010375
1300  2023-12-05 10:10:05.042290
1301  2023-12-05 10:10:05.074204
1302  2023-12-05 10:10:05.106119
1303  2023-12-05 10:10:05.138110
1304  2023-12-05 10:10:05.186050
1305  2023-12-05 10:10:05.217967
1306  2023-12-05 10:10:05.250014
1307  2023-12-05 10:10:05.281761
1308  2023-12-05 10:10:05.314673
1309  2023-12-05 10:10:05.346588
1310  2023-12-05 10:10:05.378503
1311  2023-12-05 10:10:05.410417
1312  2023-12-05 10:10:05.442332
1313  2023-12-05 10:10:05.474281
1314  2023-12-05 10:10:05.506161
1315  2023-12-05 10:10:05.538089
1316  2023-12-05 10:10:05.586945
1317  2023-12-05 10:10:05.617911
1318  2023-12-05 10:10:05.649777
1319  2023-12-05 10:10:05.681725
1320  2023-12-05 10:10:05.714638
1321  2023-12-05 10:10:05.746518
1322  2023-12-05 10:10:05.778433
1323  2023-12-05 10:10:05.810390
1324  2023-12-05 10:10:05.842296
1325  2023-12-05 10:10:05.874176
1326  2023-12-05 10:10:05.906091
1327  2023-12-05 10:10:05.938006
1328  2023-12-05 10:10:05.985917
1329  2023-12-05 10:10:06.017831
1330  2023-12-05 10:10:06.049745
1331  2023-12-05 10:10:06.081622
1332  2023-12-05 10:10:06.114533
1333  2023-12-05 10:10:06.146448
1334  2023-12-05 10:10:06.178395
1335  2023-12-05 10:10:06.210277
1336  2023-12-05 10:10:06.242192
1337  2023-12-05 10:10:06.274107
1338  2023-12-05 10:10:06.306049
1339  2023-12-05 10:10:06.337936
1340  2023-12-05 10:10:06.385844
1341  2023-12-05 10:10:06.417755
1342  2023-12-05 10:10:06.449637
1343  2023-12-05 10:10:06.482549
1344  2023-12-05 10:10:06.514464
1345  2023-12-05 10:10:06.546378
1346  2023-12-05 10:10:06.578293
1347  2023-12-05 10:10:06.610207
1348  2023-12-05 10:10:06.642122
1349  2023-12-05 10:10:06.674037
1350  2023-12-05 10:10:06.705951
1351  2023-12-05 10:10:06.737866
1352  2023-12-05 10:10:06.785773
1353  2023-12-05 10:10:06.817696
1354  2023-12-05 10:10:06.849567
1355  2023-12-05 10:10:06.882479
1356  2023-12-05 10:10:06.914394
1357  2023-12-05 10:10:06.946308
1358  2023-12-05 10:10:06.978223
1359  2023-12-05 10:10:07.010138
1360  2023-12-05 10:10:07.042052
1361  2023-12-05 10:10:07.073967
1362  2023-12-05 10:10:07.105881
1363  2023-12-05 10:10:07.137797
1364  2023-12-05 10:10:07.185700
1365  2023-12-05 10:10:07.217618
1366  2023-12-05 10:10:07.250496
1367  2023-12-05 10:10:07.282410
1368  2023-12-05 10:10:07.314325
1369  2023-12-05 10:10:07.346240
1370  2023-12-05 10:10:07.378154
1371  2023-12-05 10:10:07.410070
1372  2023-12-05 10:10:07.442009
1373  2023-12-05 10:10:07.473899
1374  2023-12-05 10:10:07.506811
1375  2023-12-05 10:10:07.537728
1376  2023-12-05 10:10:07.586640
1377  2023-12-05 10:10:07.618549
1378  2023-12-05 10:10:07.650426
1379  2023-12-05 10:10:07.682341
1380  2023-12-05 10:10:07.714262
1381  2023-12-05 10:10:07.746170
1382  2023-12-05 10:10:07.778085
1383  2023-12-05 10:10:07.809999
1384  2023-12-05 10:10:07.841960
1385  2023-12-05 10:10:07.873828
1386  2023-12-05 10:10:07.905743
1387  2023-12-05 10:10:07.937658
1388  2023-12-05 10:10:07.985563
1389  2023-12-05 10:10:08.018442
1390  2023-12-05 10:10:08.094239
1391  2023-12-05 10:10:08.114186
1392  2023-12-05 10:10:08.146146
1393  2023-12-05 10:10:08.178138
1394  2023-12-05 10:10:08.210023
1395  2023-12-05 10:10:08.241935
1396  2023-12-05 10:10:08.273850
1397  2023-12-05 10:10:08.305804
1398  2023-12-05 10:10:08.337712
1399  2023-12-05 10:10:08.385581
1400  2023-12-05 10:10:08.418463
1401  2023-12-05 10:10:08.450377
1402  2023-12-05 10:10:08.482325
1403  2023-12-05 10:10:08.514245
1404  2023-12-05 10:10:08.546121
1405  2023-12-05 10:10:08.578036
1406  2023-12-05 10:10:08.609951
1407  2023-12-05 10:10:08.641899
1408  2023-12-05 10:10:08.673813
1409  2023-12-05 10:10:08.705694
1410  2023-12-05 10:10:08.737609
1411  2023-12-05 10:10:08.786527
1412  2023-12-05 10:10:08.818393
1413  2023-12-05 10:10:08.850342
1414  2023-12-05 10:10:08.882222
1415  2023-12-05 10:10:08.914137
1416  2023-12-05 10:10:08.946051
1417  2023-12-05 10:10:08.978006
1418  2023-12-05 10:10:09.009919
1419  2023-12-05 10:10:09.041795
1420  2023-12-05 10:10:09.073710
1421  2023-12-05 10:10:09.105657
1422  2023-12-05 10:10:09.138537
1423  2023-12-05 10:10:09.186445
1424  2023-12-05 10:10:09.218323
1425  2023-12-05 10:10:09.250238
1426  2023-12-05 10:10:09.282152
1427  2023-12-05 10:10:09.314067
1428  2023-12-05 10:10:09.345982
1429  2023-12-05 10:10:09.377896
1430  2023-12-05 10:10:09.409811
1431  2023-12-05 10:10:09.441725
1432  2023-12-05 10:10:09.473640
1433  2023-12-05 10:10:09.506552
1434  2023-12-05 10:10:09.538467
1435  2023-12-05 10:10:09.586370
1436  2023-12-05 10:10:09.618253
1437  2023-12-05 10:10:09.650168
1438  2023-12-05 10:10:09.682083
1439  2023-12-05 10:10:09.713997
1440  2023-12-05 10:10:09.745912
1441  2023-12-05 10:10:09.777826
1442  2023-12-05 10:10:09.809741
1443  2023-12-05 10:10:09.841656
1444  2023-12-05 10:10:09.873570
1445  2023-12-05 10:10:09.906482
1446  2023-12-05 10:10:09.938397
1447  2023-12-05 10:10:09.986427
1448  2023-12-05 10:10:10.018308
1449  2023-12-05 10:10:10.050222
1450  2023-12-05 10:10:10.082137
1451  2023-12-05 10:10:10.114052
1452  2023-12-05 10:10:10.145966
1453  2023-12-05 10:10:10.177881
1454  2023-12-05 10:10:10.209796
1455  2023-12-05 10:10:10.241710
1456  2023-12-05 10:10:10.273625
1457  2023-12-05 10:10:10.306592
1458  2023-12-05 10:10:10.338514
1459  2023-12-05 10:10:10.386359
1460  2023-12-05 10:10:10.418238
1461  2023-12-05 10:10:10.450152
1462  2023-12-05 10:10:10.482067
1463  2023-12-05 10:10:10.514024
1464  2023-12-05 10:10:10.545898
1465  2023-12-05 10:10:10.577811
1466  2023-12-05 10:10:10.609726
1467  2023-12-05 10:10:10.641675
1468  2023-12-05 10:10:10.673628
1469  2023-12-05 10:10:10.705603
1470  2023-12-05 10:10:10.738516
1471  2023-12-05 10:10:10.786419
1472  2023-12-05 10:10:10.818302
1473  2023-12-05 10:10:10.850249
1474  2023-12-05 10:10:10.882131
1475  2023-12-05 10:10:10.914046
1476  2023-12-05 10:10:10.945960
1477  2023-12-05 10:10:10.977875
1478  2023-12-05 10:10:11.009790
1479  2023-12-05 10:10:11.041704
1480  2023-12-05 10:10:11.073619
1481  2023-12-05 10:10:11.105534
1482  2023-12-05 10:10:11.138445
1483  2023-12-05 10:10:11.186350
1484  2023-12-05 10:10:11.218232
1485  2023-12-05 10:10:11.250147
1486  2023-12-05 10:10:11.282061
1487  2023-12-05 10:10:11.313976
1488  2023-12-05 10:10:11.345891
1489  2023-12-05 10:10:11.377805
1490  2023-12-05 10:10:11.409720
1491  2023-12-05 10:10:11.441634
1492  2023-12-05 10:10:11.473549
1493  2023-12-05 10:10:11.505628
1494  2023-12-05 10:10:11.537542
1495  2023-12-05 10:10:11.586412
1496  2023-12-05 10:10:11.618326
1497  2023-12-05 10:10:11.650241
1498  2023-12-05 10:10:11.682156
1499  2023-12-05 10:10:11.714070
1500  2023-12-05 10:10:11.745985
1501  2023-12-05 10:10:11.777899
1502  2023-12-05 10:10:11.809814
1503  2023-12-05 10:10:11.841729
1504  2023-12-05 10:10:11.874641
1505  2023-12-05 10:10:11.906555
1506  2023-12-05 10:10:11.938470
1507  2023-12-05 10:10:11.986342
1508  2023-12-05 10:10:12.018256
1509  2023-12-05 10:10:12.050171
1510  2023-12-05 10:10:12.082086
1511  2023-12-05 10:10:12.114002
1512  2023-12-05 10:10:12.145915
1513  2023-12-05 10:10:12.178864
1514  2023-12-05 10:10:12.210744
1515  2023-12-05 10:10:12.241659
1516  2023-12-05 10:10:12.274571
1517  2023-12-05 10:10:12.306487
1518  2023-12-05 10:10:12.338401
1519  2023-12-05 10:10:12.386275
1520  2023-12-05 10:10:12.418187
1521  2023-12-05 10:10:12.450101
1522  2023-12-05 10:10:12.482016
1523  2023-12-05 10:10:12.514075
1524  2023-12-05 10:10:12.546058
1525  2023-12-05 10:10:12.577948
1526  2023-12-05 10:10:12.609855
1527  2023-12-05 10:10:12.641806
1528  2023-12-05 10:10:12.673720
1529  2023-12-05 10:10:12.705599
1530  2023-12-05 10:10:12.738511
1531  2023-12-05 10:10:12.786383
1532  2023-12-05 10:10:12.818297
1533  2023-12-05 10:10:12.850246
1534  2023-12-05 10:10:12.882159
1535  2023-12-05 10:10:12.914047
1536  2023-12-05 10:10:12.945956
1537  2023-12-05 10:10:12.977905
1538  2023-12-05 10:10:13.009823
1539  2023-12-05 10:10:13.041700
1540  2023-12-05 10:10:13.073614
1541  2023-12-05 10:10:13.106559
1542  2023-12-05 10:10:13.138516
1543  2023-12-05 10:10:13.186473
1544  2023-12-05 10:10:13.218502
1545  2023-12-05 10:10:13.250549
1546  2023-12-05 10:10:13.282463
1547  2023-12-05 10:10:13.314409
1548  2023-12-05 10:10:13.346328
1549  2023-12-05 10:10:13.378207
1550  2023-12-05 10:10:13.410122
1551  2023-12-05 10:10:13.442036
1552  2023-12-05 10:10:13.473982
1553  2023-12-05 10:10:13.505869
1554  2023-12-05 10:10:13.537780
1555  2023-12-05 10:10:13.585652
1556  2023-12-05 10:10:13.617567
1557  2023-12-05 10:10:13.650479
1558  2023-12-05 10:10:13.682394
1559  2023-12-05 10:10:13.714308
1560  2023-12-05 10:10:13.746223
1561  2023-12-05 10:10:13.778137
1562  2023-12-05 10:10:13.810166
1563  2023-12-05 10:10:13.842080
1564  2023-12-05 10:10:13.873995
1565  2023-12-05 10:10:13.905910
1566  2023-12-05 10:10:13.937824
1567  2023-12-05 10:10:13.985696
1568  2023-12-05 10:10:14.017611
1569  2023-12-05 10:10:14.049525
1570  2023-12-05 10:10:14.082437
1571  2023-12-05 10:10:14.114352
1572  2023-12-05 10:10:14.146267
1573  2023-12-05 10:10:14.178181
1574  2023-12-05 10:10:14.210096
1575  2023-12-05 10:10:14.242010
1576  2023-12-05 10:10:14.273925
1577  2023-12-05 10:10:14.305840
1578  2023-12-05 10:10:14.337754
1579  2023-12-05 10:10:14.385626
1580  2023-12-05 10:10:14.418538
1581  2023-12-05 10:10:14.450453
1582  2023-12-05 10:10:14.482372
1583  2023-12-05 10:10:14.514282
1584  2023-12-05 10:10:14.546197
1585  2023-12-05 10:10:14.578111
1586  2023-12-05 10:10:14.610026
1587  2023-12-05 10:10:14.641941
1588  2023-12-05 10:10:14.674854
1589  2023-12-05 10:10:14.706800
1590  2023-12-05 10:10:14.737684
1591  2023-12-05 10:10:14.786554
1592  2023-12-05 10:10:14.818469
1593  2023-12-05 10:10:14.850383
1594  2023-12-05 10:10:14.882338
1595  2023-12-05 10:10:14.915242
1596  2023-12-05 10:10:14.947155
1597  2023-12-05 10:10:14.979071
1598  2023-12-05 10:10:15.010987
1599  2023-12-05 10:10:15.042876
1600  2023-12-05 10:10:15.074920
1601  2023-12-05 10:10:15.106852
1602  2023-12-05 10:10:15.138775
1603  2023-12-05 10:10:15.186742
1604  2023-12-05 10:10:15.218798
1605  2023-12-05 10:10:15.250715
1606  2023-12-05 10:10:15.282627
1607  2023-12-05 10:10:15.314510
1608  2023-12-05 10:10:15.346426
1609  2023-12-05 10:10:15.379376
1610  2023-12-05 10:10:15.410252
1611  2023-12-05 10:10:15.442097
1612  2023-12-05 10:10:15.474013
1613  2023-12-05 10:10:15.506960
1614  2023-12-05 10:10:15.538872
1615  2023-12-05 10:10:15.586793
1616  2023-12-05 10:10:15.617750
1617  2023-12-05 10:10:15.649754
1618  2023-12-05 10:10:15.681711
1619  2023-12-05 10:10:15.714149
1620  2023-12-05 10:10:15.746064
1621  2023-12-05 10:10:15.777978
1622  2023-12-05 10:10:15.809955
1623  2023-12-05 10:10:15.841919
1624  2023-12-05 10:10:15.873783
1625  2023-12-05 10:10:15.906704
1626  2023-12-05 10:10:15.938660
1627  2023-12-05 10:10:15.986481
1628  2023-12-05 10:10:16.018436
1629  2023-12-05 10:10:16.050344
1630  2023-12-05 10:10:16.082261
1631  2023-12-05 10:10:16.114171
1632  2023-12-05 10:10:16.146086
1633  2023-12-05 10:10:16.178006
1634  2023-12-05 10:10:16.209884
1635  2023-12-05 10:10:16.241835
1636  2023-12-05 10:10:16.274755
1637  2023-12-05 10:10:16.306643
1638  2023-12-05 10:10:16.338543
1639  2023-12-05 10:10:16.386450
1640  2023-12-05 10:10:16.418326
1641  2023-12-05 10:10:16.450295
1642  2023-12-05 10:10:16.483184
1643  2023-12-05 10:10:16.514101
1644  2023-12-05 10:10:16.547018
1645  2023-12-05 10:10:16.577943
1646  2023-12-05 10:10:16.609862
1647  2023-12-05 10:10:16.642762
1648  2023-12-05 10:10:16.674672
1649  2023-12-05 10:10:16.706591
1650  2023-12-05 10:10:16.738470
1651  2023-12-05 10:10:16.786375
1652  2023-12-05 10:10:16.818256
1653  2023-12-05 10:10:16.850173
1654  2023-12-05 10:10:16.882086
1655  2023-12-05 10:10:16.915031
1656  2023-12-05 10:10:16.946943
1657  2023-12-05 10:10:16.978859
1658  2023-12-05 10:10:17.009772
1659  2023-12-05 10:10:17.041691
1660  2023-12-05 10:10:17.074601
1661  2023-12-05 10:10:17.106519
1662  2023-12-05 10:10:17.138414
1663  2023-12-05 10:10:17.186273
1664  2023-12-05 10:10:17.218187
1665  2023-12-05 10:10:17.250133
1666  2023-12-05 10:10:17.282049
1667  2023-12-05 10:10:17.313930
1668  2023-12-05 10:10:17.345885
1669  2023-12-05 10:10:17.377760
1670  2023-12-05 10:10:17.409674
1671  2023-12-05 10:10:17.441645
1672  2023-12-05 10:10:17.474556
1673  2023-12-05 10:10:17.506447
1674  2023-12-05 10:10:17.538364
1675  2023-12-05 10:10:17.586237
1676  2023-12-05 10:10:17.618147
1677  2023-12-05 10:10:17.650031
1678  2023-12-05 10:10:17.681977
1679  2023-12-05 10:10:17.714858
1680  2023-12-05 10:10:17.745776
1681  2023-12-05 10:10:17.778723
1682  2023-12-05 10:10:17.810601
1683  2023-12-05 10:10:17.842553
1684  2023-12-05 10:10:17.874466
1685  2023-12-05 10:10:17.906370
1686  2023-12-05 10:10:17.938414
1687  2023-12-05 10:10:17.986278
1688  2023-12-05 10:10:18.018177
1689  2023-12-05 10:10:18.050115
1690  2023-12-05 10:10:18.081999
1691  2023-12-05 10:10:18.113943
1692  2023-12-05 10:10:18.145873
1693  2023-12-05 10:10:18.177788
1694  2023-12-05 10:10:18.209696
1695  2023-12-05 10:10:18.242569
1696  2023-12-05 10:10:18.274513
1697  2023-12-05 10:10:18.306433
1698  2023-12-05 10:10:18.338367
1699  2023-12-05 10:10:18.386228
1700  2023-12-05 10:10:18.418255
1701  2023-12-05 10:10:18.450139
1702  2023-12-05 10:10:18.482131
1703  2023-12-05 10:10:18.514169
1704  2023-12-05 10:10:18.546036
1705  2023-12-05 10:10:18.578004
1706  2023-12-05 10:10:18.609862
1707  2023-12-05 10:10:18.641813
1708  2023-12-05 10:10:18.673727
1709  2023-12-05 10:10:18.705641
1710  2023-12-05 10:10:18.738555
1711  2023-12-05 10:10:18.786421
1712  2023-12-05 10:10:18.818336
1713  2023-12-05 10:10:18.850253
1714  2023-12-05 10:10:18.882134
1715  2023-12-05 10:10:18.914092
1716  2023-12-05 10:10:18.946014
1717  2023-12-05 10:10:18.977914
1718  2023-12-05 10:10:19.009792
1719  2023-12-05 10:10:19.041744
1720  2023-12-05 10:10:19.073787
1721  2023-12-05 10:10:19.105696
1722  2023-12-05 10:10:19.138586
1723  2023-12-05 10:10:19.186486
1724  2023-12-05 10:10:19.218390
1725  2023-12-05 10:10:19.250273
1726  2023-12-05 10:10:19.282188
1727  2023-12-05 10:10:19.314133
1728  2023-12-05 10:10:19.346048
1729  2023-12-05 10:10:19.377968
1730  2023-12-05 10:10:19.409846
1731  2023-12-05 10:10:19.441942
1732  2023-12-05 10:10:19.473856
1733  2023-12-05 10:10:19.505772
1734  2023-12-05 10:10:19.538358
1735  2023-12-05 10:10:19.586234
1736  2023-12-05 10:10:19.618151
1737  2023-12-05 10:10:19.650064
1738  2023-12-05 10:10:19.681990
1739  2023-12-05 10:10:19.713895
1740  2023-12-05 10:10:19.745815
1741  2023-12-05 10:10:19.777723
1742  2023-12-05 10:10:19.809638
1743  2023-12-05 10:10:19.842516
1744  2023-12-05 10:10:19.874477
1745  2023-12-05 10:10:19.906380
1746  2023-12-05 10:10:19.938321
1747  2023-12-05 10:10:19.986163
1748  2023-12-05 10:10:20.018077
1749  2023-12-05 10:10:20.050005
1750  2023-12-05 10:10:20.081875
1751  2023-12-05 10:10:20.113826
1752  2023-12-05 10:10:20.145747
1753  2023-12-05 10:10:20.178649
1754  2023-12-05 10:10:20.210571
1755  2023-12-05 10:10:20.242446
1756  2023-12-05 10:10:20.274361
1757  2023-12-05 10:10:20.306276
1758  2023-12-05 10:10:20.338249
1759  2023-12-05 10:10:20.386097
1760  2023-12-05 10:10:20.418008
1761  2023-12-05 10:10:20.449928
1762  2023-12-05 10:10:20.481843
1763  2023-12-05 10:10:20.513721
1764  2023-12-05 10:10:20.545684
1765  2023-12-05 10:10:20.577583
1766  2023-12-05 10:10:20.610518
1767  2023-12-05 10:10:20.642378
1768  2023-12-05 10:10:20.674292
1769  2023-12-05 10:10:20.706237
1770  2023-12-05 10:10:20.738273
1771  2023-12-05 10:10:20.786303
1772  2023-12-05 10:10:20.818318
1773  2023-12-05 10:10:20.850227
1774  2023-12-05 10:10:20.882143
1775  2023-12-05 10:10:20.914067
1776  2023-12-05 10:10:20.945971
1777  2023-12-05 10:10:20.977895
1778  2023-12-05 10:10:21.009805
1779  2023-12-05 10:10:21.041684
1780  2023-12-05 10:10:21.073599
1781  2023-12-05 10:10:21.106550
1782  2023-12-05 10:10:21.138427
1783  2023-12-05 10:10:21.186328
1784  2023-12-05 10:10:21.218221
1785  2023-12-05 10:10:21.250201
1786  2023-12-05 10:10:21.282084
1787  2023-12-05 10:10:21.314034
1788  2023-12-05 10:10:21.345918
1789  2023-12-05 10:10:21.377879
1790  2023-12-05 10:10:21.409779
1791  2023-12-05 10:10:21.441657
1792  2023-12-05 10:10:21.474609
1793  2023-12-05 10:10:21.505661
1794  2023-12-05 10:10:21.538568
1795  2023-12-05 10:10:21.586440
1796  2023-12-05 10:10:21.618355
1797  2023-12-05 10:10:21.650308
1798  2023-12-05 10:10:21.682342
1799  2023-12-05 10:10:21.714225
1800  2023-12-05 10:10:21.746171
1801  2023-12-05 10:10:21.778084
1802  2023-12-05 10:10:21.810018
1803  2023-12-05 10:10:21.841883
1804  2023-12-05 10:10:21.873798
1805  2023-12-05 10:10:21.905748
1806  2023-12-05 10:10:21.937677
1807  2023-12-05 10:10:21.985613
1808  2023-12-05 10:10:22.018556
1809  2023-12-05 10:10:22.050471
1810  2023-12-05 10:10:22.082385
1811  2023-12-05 10:10:22.114269
1812  2023-12-05 10:10:22.146225
1813  2023-12-05 10:10:22.178130
1814  2023-12-05 10:10:22.210044
1815  2023-12-05 10:10:22.241960
1816  2023-12-05 10:10:22.273880
1817  2023-12-05 10:10:22.305789
1818  2023-12-05 10:10:22.338671
1819  2023-12-05 10:10:22.385543
1820  2023-12-05 10:10:22.418505
1821  2023-12-05 10:10:22.450425
1822  2023-12-05 10:10:22.482323
1823  2023-12-05 10:10:22.514232
1824  2023-12-05 10:10:22.546114
1825  2023-12-05 10:10:22.578064
1826  2023-12-05 10:10:22.609977
1827  2023-12-05 10:10:22.641894
1828  2023-12-05 10:10:22.673772
1829  2023-12-05 10:10:22.705687
1830  2023-12-05 10:10:22.737645
1831  2023-12-05 10:10:22.786471
1832  2023-12-05 10:10:22.818421
1833  2023-12-05 10:10:22.850331
1834  2023-12-05 10:10:22.882251
1835  2023-12-05 10:10:22.914129
1836  2023-12-05 10:10:22.946075
1837  2023-12-05 10:10:22.977999
1838  2023-12-05 10:10:23.010872
1839  2023-12-05 10:10:23.041823
1840  2023-12-05 10:10:23.073702
1841  2023-12-05 10:10:23.105621
1842  2023-12-05 10:10:23.138531
1843  2023-12-05 10:10:23.186435
1844  2023-12-05 10:10:23.218346
1845  2023-12-05 10:10:23.250261
1846  2023-12-05 10:10:23.282179
1847  2023-12-05 10:10:23.314060
1848  2023-12-05 10:10:23.346020
1849  2023-12-05 10:10:23.377934
1850  2023-12-05 10:10:23.409837
1851  2023-12-05 10:10:23.441839
1852  2023-12-05 10:10:23.473758
1853  2023-12-05 10:10:23.506666
1854  2023-12-05 10:10:23.538566
1855  2023-12-05 10:10:23.586420
1856  2023-12-05 10:10:23.618372
1857  2023-12-05 10:10:23.650283
1858  2023-12-05 10:10:23.682196
1859  2023-12-05 10:10:23.714078
1860  2023-12-05 10:10:23.745993
1861  2023-12-05 10:10:23.777943
1862  2023-12-05 10:10:23.809856
1863  2023-12-05 10:10:23.841771
1864  2023-12-05 10:10:23.874681
1865  2023-12-05 10:10:23.905598
1866  2023-12-05 10:10:23.938520
1867  2023-12-05 10:10:23.986389
1868  2023-12-05 10:10:24.018300
1869  2023-12-05 10:10:24.050211
1870  2023-12-05 10:10:24.082133
1871  2023-12-05 10:10:24.114008
1872  2023-12-05 10:10:24.145957
1873  2023-12-05 10:10:24.177886
1874  2023-12-05 10:10:24.209784
1875  2023-12-05 10:10:24.241702
1876  2023-12-05 10:10:24.274611
1877  2023-12-05 10:10:24.306531
1878  2023-12-05 10:10:24.338635
1879  2023-12-05 10:10:24.386320
1880  2023-12-05 10:10:24.418229
1881  2023-12-05 10:10:24.450135
1882  2023-12-05 10:10:24.482055
1883  2023-12-05 10:10:24.513949
1884  2023-12-05 10:10:24.545891
1885  2023-12-05 10:10:24.577809
1886  2023-12-05 10:10:24.609715
1887  2023-12-05 10:10:24.641633
1888  2023-12-05 10:10:24.674564
1889  2023-12-05 10:10:24.706455
1890  2023-12-05 10:10:24.738374
1891  2023-12-05 10:10:24.786210
1892  2023-12-05 10:10:24.818159
1893  2023-12-05 10:10:24.850072
1894  2023-12-05 10:10:24.881998
1895  2023-12-05 10:10:24.913899
1896  2023-12-05 10:10:24.945816
1897  2023-12-05 10:10:24.978695
1898  2023-12-05 10:10:25.009723
1899  2023-12-05 10:10:25.041636
1900  2023-12-05 10:10:25.074535
1901  2023-12-05 10:10:25.106460
1902  2023-12-05 10:10:25.138375
1903  2023-12-05 10:10:25.186247
1904  2023-12-05 10:10:25.218165
1905  2023-12-05 10:10:25.250081
1906  2023-12-05 10:10:25.282005
1907  2023-12-05 10:10:25.313949
1908  2023-12-05 10:10:25.345976
1909  2023-12-05 10:10:25.377861
1910  2023-12-05 10:10:25.409799
1911  2023-12-05 10:10:25.442715
1912  2023-12-05 10:10:25.474631
1913  2023-12-05 10:10:25.506537
1914  2023-12-05 10:10:25.538459
1915  2023-12-05 10:10:25.586290
1916  2023-12-05 10:10:25.618205
1917  2023-12-05 10:10:25.650162
1918  2023-12-05 10:10:25.682068
1919  2023-12-05 10:10:25.713989
1920  2023-12-05 10:10:25.745863
1921  2023-12-05 10:10:25.777778
1922  2023-12-05 10:10:25.809734
1923  2023-12-05 10:10:25.841644
1924  2023-12-05 10:10:25.874547
1925  2023-12-05 10:10:25.906464
1926  2023-12-05 10:10:25.938394
1927  2023-12-05 10:10:25.986220
1928  2023-12-05 10:10:26.018135
1929  2023-12-05 10:10:26.050082
1930  2023-12-05 10:10:26.082005
1931  2023-12-05 10:10:26.113883
1932  2023-12-05 10:10:26.145794
1933  2023-12-05 10:10:26.177708
1934  2023-12-05 10:10:26.209660
1935  2023-12-05 10:10:26.241569
1936  2023-12-05 10:10:26.274493
1937  2023-12-05 10:10:26.306406
1938  2023-12-05 10:10:26.338312
1939  2023-12-05 10:10:26.386151
1940  2023-12-05 10:10:26.418065
1941  2023-12-05 10:10:26.450017
1942  2023-12-05 10:10:26.481942
1943  2023-12-05 10:10:26.513844
1944  2023-12-05 10:10:26.545724
1945  2023-12-05 10:10:26.577638
1946  2023-12-05 10:10:26.609596
1947  2023-12-05 10:10:26.642518
1948  2023-12-05 10:10:26.674414
1949  2023-12-05 10:10:26.706325
1950  2023-12-05 10:10:26.738260
1951  2023-12-05 10:10:26.786081
1952  2023-12-05 10:10:26.817995
1953  2023-12-05 10:10:26.849946
1954  2023-12-05 10:10:26.882823
1955  2023-12-05 10:10:26.913771
1956  2023-12-05 10:10:26.945654
1957  2023-12-05 10:10:26.978566
1958  2023-12-05 10:10:27.010481
1959  2023-12-05 10:10:27.042430
1960  2023-12-05 10:10:27.074349
1961  2023-12-05 10:10:27.106264
1962  2023-12-05 10:10:27.138172
1963  2023-12-05 10:10:27.186011
1964  2023-12-05 10:10:27.218928
1965  2023-12-05 10:10:27.249840
1966  2023-12-05 10:10:27.281826
1967  2023-12-05 10:10:27.313703
1968  2023-12-05 10:10:27.346616
1969  2023-12-05 10:10:27.378626
1970  2023-12-05 10:10:27.409540
1971  2023-12-05 10:10:27.442452
1972  2023-12-05 10:10:27.474403
1973  2023-12-05 10:10:27.506290
1974  2023-12-05 10:10:27.538230
1975  2023-12-05 10:10:27.586068
1976  2023-12-05 10:10:27.617983
1977  2023-12-05 10:10:27.649897
1978  2023-12-05 10:10:27.681815
1979  2023-12-05 10:10:27.713776
1980  2023-12-05 10:10:27.745641
1981  2023-12-05 10:10:27.777556
1982  2023-12-05 10:10:27.810516
1983  2023-12-05 10:10:27.842416
1984  2023-12-05 10:10:27.874328
1985  2023-12-05 10:10:27.906243
1986  2023-12-05 10:10:27.938159
1987  2023-12-05 10:10:27.985998
1988  2023-12-05 10:10:28.017962
1989  2023-12-05 10:10:28.049880
1990  2023-12-05 10:10:28.081742
1991  2023-12-05 10:10:28.113657
1992  2023-12-05 10:10:28.145602
1993  2023-12-05 10:10:28.178514
1994  2023-12-05 10:10:28.210398
1995  2023-12-05 10:10:28.242424
1996  2023-12-05 10:10:28.274378
1997  2023-12-05 10:10:28.306287
1998  2023-12-05 10:10:28.338320
1999  2023-12-05 10:10:28.386201
2000  2023-12-05 10:10:28.418072
2001  2023-12-05 10:10:28.450217
2002  2023-12-05 10:10:28.482132
2003  2023-12-05 10:10:28.514046
2004  2023-12-05 10:10:28.545961
2005  2023-12-05 10:10:28.577875
2006  2023-12-05 10:10:28.609790
2007  2023-12-05 10:10:28.641705
2008  2023-12-05 10:10:28.673659
2009  2023-12-05 10:10:28.705568
2010  2023-12-05 10:10:28.738493
2011  2023-12-05 10:10:28.786318
2012  2023-12-05 10:10:28.818232
2013  2023-12-05 10:10:28.850147
2014  2023-12-05 10:10:28.882061
2015  2023-12-05 10:10:28.913976
2016  2023-12-05 10:10:28.945891
2017  2023-12-05 10:10:28.977807
2018  2023-12-05 10:10:29.009721
2019  2023-12-05 10:10:29.041636
2020  2023-12-05 10:10:29.074591
2021  2023-12-05 10:10:29.105498
2022  2023-12-05 10:10:29.138402
2023  2023-12-05 10:10:29.186314
2024  2023-12-05 10:10:29.218228
2025  2023-12-05 10:10:29.253136
2026  2023-12-05 10:10:29.282090
2027  2023-12-05 10:10:29.313972
2028  2023-12-05 10:10:29.345887
2029  2023-12-05 10:10:29.377832
2030  2023-12-05 10:10:29.409716
2031  2023-12-05 10:10:29.441630
2032  2023-12-05 10:10:29.473581
2033  2023-12-05 10:10:29.506511
2034  2023-12-05 10:10:29.538403
2035  2023-12-05 10:10:29.586244
2036  2023-12-05 10:10:29.618158
2037  2023-12-05 10:10:29.650073
2038  2023-12-05 10:10:29.682018
2039  2023-12-05 10:10:29.713943
2040  2023-12-05 10:10:29.745817
2041  2023-12-05 10:10:29.777731
2042  2023-12-05 10:10:29.810673
2043  2023-12-05 10:10:29.841597
2044  2023-12-05 10:10:29.874473
2045  2023-12-05 10:10:29.906418
2046  2023-12-05 10:10:29.938334
2047  2023-12-05 10:10:29.986174
2048  2023-12-05 10:10:30.018126
2049  2023-12-05 10:10:30.050040
2050  2023-12-05 10:10:30.081918
2051  2023-12-05 10:10:30.113832
2052  2023-12-05 10:10:30.145786
2053  2023-12-05 10:10:30.178693
2054  2023-12-05 10:10:30.210573
2055  2023-12-05 10:10:30.241491
2056  2023-12-05 10:10:30.274437
2057  2023-12-05 10:10:30.306354
2058  2023-12-05 10:10:30.338264
2059  2023-12-05 10:10:30.386104
2060  2023-12-05 10:10:30.418019
2061  2023-12-05 10:10:30.449933
2062  2023-12-05 10:10:30.481848
2063  2023-12-05 10:10:30.513762
2064  2023-12-05 10:10:30.545677
2065  2023-12-05 10:10:30.578589
2066  2023-12-05 10:10:30.610517
2067  2023-12-05 10:10:30.642452
2068  2023-12-05 10:10:30.674371
2069  2023-12-05 10:10:30.706287
2070  2023-12-05 10:10:30.738201
2071  2023-12-05 10:10:30.786035
2072  2023-12-05 10:10:30.817949
2073  2023-12-05 10:10:30.849863
2074  2023-12-05 10:10:30.882776
2075  2023-12-05 10:10:30.914690
2076  2023-12-05 10:10:30.945607
2077  2023-12-05 10:10:30.978519
2078  2023-12-05 10:10:31.010435
2079  2023-12-05 10:10:31.042383
2080  2023-12-05 10:10:31.074292
2081  2023-12-05 10:10:31.106209
2082  2023-12-05 10:10:31.138168
2083  2023-12-05 10:10:31.186094
2084  2023-12-05 10:10:31.218009
2085  2023-12-05 10:10:31.249923
2086  2023-12-05 10:10:31.281838
2087  2023-12-05 10:10:31.313752
2088  2023-12-05 10:10:31.346698
2089  2023-12-05 10:10:31.378620
2090  2023-12-05 10:10:31.410494
2091  2023-12-05 10:10:31.442438
2092  2023-12-05 10:10:31.474363
2093  2023-12-05 10:10:31.506268
2094  2023-12-05 10:10:31.538196
2095  2023-12-05 10:10:31.586024
2096  2023-12-05 10:10:31.617939
2097  2023-12-05 10:10:31.649854
2098  2023-12-05 10:10:31.681769
2099  2023-12-05 10:10:31.713766
2100  2023-12-05 10:10:31.745716
2101  2023-12-05 10:10:31.777754
2102  2023-12-05 10:10:31.809714
2103  2023-12-05 10:10:31.841620
2104  2023-12-05 10:10:31.873535
2105  2023-12-05 10:10:31.906453
2106  2023-12-05 10:10:31.938378
2107  2023-12-05 10:10:31.986197
2108  2023-12-05 10:10:32.018143
2109  2023-12-05 10:10:32.050065
2110  2023-12-05 10:10:32.081941
2111  2023-12-05 10:10:32.113855
2112  2023-12-05 10:10:32.145770
2113  2023-12-05 10:10:32.177685
2114  2023-12-05 10:10:32.209599
2115  2023-12-05 10:10:32.241550
2116  2023-12-05 10:10:32.274473
2117  2023-12-05 10:10:32.306377
2118  2023-12-05 10:10:32.338293
2119  2023-12-05 10:10:32.386127
2120  2023-12-05 10:10:32.418042
2121  2023-12-05 10:10:32.449956
2122  2023-12-05 10:10:32.481871
2123  2023-12-05 10:10:32.513785
2124  2023-12-05 10:10:32.545700
2125  2023-12-05 10:10:32.577692
2126  2023-12-05 10:10:32.609660
2127  2023-12-05 10:10:32.641617
2128  2023-12-05 10:10:32.673525
2129  2023-12-05 10:10:32.706455
2130  2023-12-05 10:10:32.738356
2131  2023-12-05 10:10:32.786337
2132  2023-12-05 10:10:32.818252
2133  2023-12-05 10:10:32.850166
2134  2023-12-05 10:10:32.882081
2135  2023-12-05 10:10:32.913995
2136  2023-12-05 10:10:32.945910
2137  2023-12-05 10:10:32.977825
2138  2023-12-05 10:10:33.009739
2139  2023-12-05 10:10:33.041687
2140  2023-12-05 10:10:33.073605
2141  2023-12-05 10:10:33.105517
2142  2023-12-05 10:10:33.138428
2143  2023-12-05 10:10:33.186267
2144  2023-12-05 10:10:33.218182
2145  2023-12-05 10:10:33.250096
2146  2023-12-05 10:10:33.282011
2147  2023-12-05 10:10:33.313926
2148  2023-12-05 10:10:33.346872
2149  2023-12-05 10:10:33.378754
2150  2023-12-05 10:10:33.409669
2151  2023-12-05 10:10:33.442613
2152  2023-12-05 10:10:33.474540
2153  2023-12-05 10:10:33.506445
2154  2023-12-05 10:10:33.538359
2155  2023-12-05 10:10:33.586197
2156  2023-12-05 10:10:33.618112
2157  2023-12-05 10:10:33.650026
2158  2023-12-05 10:10:33.681986
2159  2023-12-05 10:10:33.713901
2160  2023-12-05 10:10:33.745770
2161  2023-12-05 10:10:33.777685
2162  2023-12-05 10:10:33.809630
2163  2023-12-05 10:10:33.842543
2164  2023-12-05 10:10:33.874476
2165  2023-12-05 10:10:33.906377
2166  2023-12-05 10:10:33.938293
2167  2023-12-05 10:10:33.986127
2168  2023-12-05 10:10:34.018074
2169  2023-12-05 10:10:34.050014
2170  2023-12-05 10:10:34.081871
2171  2023-12-05 10:10:34.113786
2172  2023-12-05 10:10:34.145782
2173  2023-12-05 10:10:34.177696
2174  2023-12-05 10:10:34.210709
2175  2023-12-05 10:10:34.242620
2176  2023-12-05 10:10:34.274528
2177  2023-12-05 10:10:34.306461
2178  2023-12-05 10:10:34.338367
2179  2023-12-05 10:10:34.386235
2180  2023-12-05 10:10:34.418111
2181  2023-12-05 10:10:34.450057
2182  2023-12-05 10:10:34.482074
2183  2023-12-05 10:10:34.513988
2184  2023-12-05 10:10:34.545902
2185  2023-12-05 10:10:34.577886
2186  2023-12-05 10:10:34.609836
2187  2023-12-05 10:10:34.641752
2188  2023-12-05 10:10:34.673665
2189  2023-12-05 10:10:34.705577
2190  2023-12-05 10:10:34.738487
2191  2023-12-05 10:10:34.786464
2192  2023-12-05 10:10:34.818379
2193  2023-12-05 10:10:34.850327
2194  2023-12-05 10:10:34.882208
2195  2023-12-05 10:10:34.914123
2196  2023-12-05 10:10:34.946037
2197  2023-12-05 10:10:34.977952
2198  2023-12-05 10:10:35.009907
2199  2023-12-05 10:10:35.041812
2200  2023-12-05 10:10:35.073750
2201  2023-12-05 10:10:35.105642
2202  2023-12-05 10:10:35.137559
2203  2023-12-05 10:10:35.185532
2204  2023-12-05 10:10:35.218444
2205  2023-12-05 10:10:35.250359
2206  2023-12-05 10:10:35.282273
2207  2023-12-05 10:10:35.314188
2208  2023-12-05 10:10:35.346103
2209  2023-12-05 10:10:35.378017
2210  2023-12-05 10:10:35.409972
2211  2023-12-05 10:10:35.441882
2212  2023-12-05 10:10:35.473813
2213  2023-12-05 10:10:35.505728
2214  2023-12-05 10:10:35.538619
2215  2023-12-05 10:10:35.586460
2216  2023-12-05 10:10:35.618374
2217  2023-12-05 10:10:35.650289
2218  2023-12-05 10:10:35.682204
2219  2023-12-05 10:10:35.714118
2220  2023-12-05 10:10:35.746033
2221  2023-12-05 10:10:35.777948
2222  2023-12-05 10:10:35.809893
2223  2023-12-05 10:10:35.842831
2224  2023-12-05 10:10:35.873769
2225  2023-12-05 10:10:35.905767
2226  2023-12-05 10:10:35.938625
2227  2023-12-05 10:10:35.986505
2228  2023-12-05 10:10:36.018411
2229  2023-12-05 10:10:36.051363
2230  2023-12-05 10:10:36.082340
2231  2023-12-05 10:10:36.114255
2232  2023-12-05 10:10:36.146169
2233  2023-12-05 10:10:36.178125
2234  2023-12-05 10:10:36.210134
2235  2023-12-05 10:10:36.243044
2236  2023-12-05 10:10:36.273987
2237  2023-12-05 10:10:36.307893
2238  2023-12-05 10:10:36.339802
2239  2023-12-05 10:10:36.386630
2240  2023-12-05 10:10:36.417546
2241  2023-12-05 10:10:36.451504
2242  2023-12-05 10:10:36.482373
2243  2023-12-05 10:10:36.515318
2244  2023-12-05 10:10:36.547232
2245  2023-12-05 10:10:36.579146
2246  2023-12-05 10:10:36.611063
2247  2023-12-05 10:10:36.642974
2248  2023-12-05 10:10:36.674899
2249  2023-12-05 10:10:36.706813
2250  2023-12-05 10:10:36.738689
2251  2023-12-05 10:10:36.786592
2252  2023-12-05 10:10:36.818474
2253  2023-12-05 10:10:36.851436
2254  2023-12-05 10:10:36.883333
2255  2023-12-05 10:10:36.915247
2256  2023-12-05 10:10:36.947167
2257  2023-12-05 10:10:36.979076
2258  2023-12-05 10:10:37.010994
2259  2023-12-05 10:10:37.042906
2260  2023-12-05 10:10:37.074823
2261  2023-12-05 10:10:37.106735
2262  2023-12-05 10:10:37.138652
2263  2023-12-05 10:10:37.186535
2264  2023-12-05 10:10:37.218441
2265  2023-12-05 10:10:37.250319
2266  2023-12-05 10:10:37.282268
2267  2023-12-05 10:10:37.314148
2268  2023-12-05 10:10:37.346064
2269  2023-12-05 10:10:37.378976
2270  2023-12-05 10:10:37.409926
2271  2023-12-05 10:10:37.442837
2272  2023-12-05 10:10:37.474751
2273  2023-12-05 10:10:37.506680
2274  2023-12-05 10:10:37.538583
2275  2023-12-05 10:10:37.586502
2276  2023-12-05 10:10:37.618423
2277  2023-12-05 10:10:37.650329
2278  2023-12-05 10:10:37.682243
2279  2023-12-05 10:10:37.714158
2280  2023-12-05 10:10:37.746068
2281  2023-12-05 10:10:37.777990
2282  2023-12-05 10:10:37.809904
2283  2023-12-05 10:10:37.841819
2284  2023-12-05 10:10:37.873731
2285  2023-12-05 10:10:37.906663
2286  2023-12-05 10:10:37.938563
2287  2023-12-05 10:10:37.986562
2288  2023-12-05 10:10:38.017500
2289  2023-12-05 10:10:38.050537
2290  2023-12-05 10:10:38.082451
2291  2023-12-05 10:10:38.114394
2292  2023-12-05 10:10:38.146313
2293  2023-12-05 10:10:38.178226
2294  2023-12-05 10:10:38.210143
2295  2023-12-05 10:10:38.242055
2296  2023-12-05 10:10:38.273977
2297  2023-12-05 10:10:38.306926
2298  2023-12-05 10:10:38.338767
2299  2023-12-05 10:10:38.386638
2300  2023-12-05 10:10:38.418705
2301  2023-12-05 10:10:38.449669
2302  2023-12-05 10:10:38.482584
2303  2023-12-05 10:10:38.515644
2304  2023-12-05 10:10:38.546507
2305  2023-12-05 10:10:38.578512
2306  2023-12-05 10:10:38.610564
2307  2023-12-05 10:10:38.642554
2308  2023-12-05 10:10:38.675512
2309  2023-12-05 10:10:38.707428
2310  2023-12-05 10:10:38.739346
2311  2023-12-05 10:10:38.787339
2312  2023-12-05 10:10:38.819347
2313  2023-12-05 10:10:38.850216
2314  2023-12-05 10:10:38.882138
2315  2023-12-05 10:10:38.915089
2316  2023-12-05 10:10:38.946993
2317  2023-12-05 10:10:38.978972
2318  2023-12-05 10:10:39.009990
2319  2023-12-05 10:10:39.041903
2320  2023-12-05 10:10:39.074838
2321  2023-12-05 10:10:39.106866
2322  2023-12-05 10:10:39.138789
2323  2023-12-05 10:10:39.186681
2324  2023-12-05 10:10:39.218568
2325  2023-12-05 10:10:39.250450
2326  2023-12-05 10:10:39.282523
2327  2023-12-05 10:10:39.314573
2328  2023-12-05 10:10:39.347502
2329  2023-12-05 10:10:39.378403
2330  2023-12-05 10:10:39.410401
2331  2023-12-05 10:10:39.442311
2332  2023-12-05 10:10:39.475233
2333  2023-12-05 10:10:39.506190
2334  2023-12-05 10:10:39.539217
2335  2023-12-05 10:10:39.586086
2336  2023-12-05 10:10:39.619004
2337  2023-12-05 10:10:39.649890
2338  2023-12-05 10:10:39.681856
2339  2023-12-05 10:10:39.713906
2340  2023-12-05 10:10:39.745903
2341  2023-12-05 10:10:39.778875
2342  2023-12-05 10:10:39.809871
2343  2023-12-05 10:10:39.841814
2344  2023-12-05 10:10:39.874769
2345  2023-12-05 10:10:39.906801
2346  2023-12-05 10:10:39.938796
2347  2023-12-05 10:10:39.985663
2348  2023-12-05 10:10:40.017683
2349  2023-12-05 10:10:40.049599
2350  2023-12-05 10:10:40.082478
2351  2023-12-05 10:10:40.114426
2352  2023-12-05 10:10:40.146342
2353  2023-12-05 10:10:40.179252
2354  2023-12-05 10:10:40.210173
2355  2023-12-05 10:10:40.242053
2356  2023-12-05 10:10:40.273977
2357  2023-12-05 10:10:40.307015
2358  2023-12-05 10:10:40.337936
2359  2023-12-05 10:10:40.385850
2360  2023-12-05 10:10:40.417754
2361  2023-12-05 10:10:40.449631
2362  2023-12-05 10:10:40.481593
2363  2023-12-05 10:10:40.514505
2364  2023-12-05 10:10:40.546431
2365  2023-12-05 10:10:40.578319
2366  2023-12-05 10:10:40.610234
2367  2023-12-05 10:10:40.642147
2368  2023-12-05 10:10:40.675138
2369  2023-12-05 10:10:40.706054
2370  2023-12-05 10:10:40.738983
2371  2023-12-05 10:10:40.785975
2372  2023-12-05 10:10:40.817882
2373  2023-12-05 10:10:40.850772
2374  2023-12-05 10:10:40.881682
2375  2023-12-05 10:10:40.913644
2376  2023-12-05 10:10:40.946539
2377  2023-12-05 10:10:40.978561
2378  2023-12-05 10:10:41.010506
2379  2023-12-05 10:10:41.042422
2380  2023-12-05 10:10:41.074483
2381  2023-12-05 10:10:41.106383
2382  2023-12-05 10:10:41.138298
2383  2023-12-05 10:10:41.186273
2384  2023-12-05 10:10:41.219258
2385  2023-12-05 10:10:41.250174
2386  2023-12-05 10:10:41.282057
2387  2023-12-05 10:10:41.313972
2388  2023-12-05 10:10:41.345933
2389  2023-12-05 10:10:41.378834
2390  2023-12-05 10:10:41.410715
2391  2023-12-05 10:10:41.442664
2392  2023-12-05 10:10:41.474701
2393  2023-12-05 10:10:41.506661
2394  2023-12-05 10:10:41.538672
2395  2023-12-05 10:10:41.585545
2396  2023-12-05 10:10:41.618452
2397  2023-12-05 10:10:41.650351
2398  2023-12-05 10:10:41.682294
2399  2023-12-05 10:10:41.714234
2400  2023-12-05 10:10:41.746090
2401  2023-12-05 10:10:41.778072
2402  2023-12-05 10:10:41.809997
2403  2023-12-05 10:10:41.841904
2404  2023-12-05 10:10:41.873832
2405  2023-12-05 10:10:41.905775
2406  2023-12-05 10:10:41.937807
2407  2023-12-05 10:10:41.985679
2408  2023-12-05 10:10:42.017590
2409  2023-12-05 10:10:42.050510
2410  2023-12-05 10:10:42.082384
2411  2023-12-05 10:10:42.114299
2412  2023-12-05 10:10:42.146265
2413  2023-12-05 10:10:42.178164
2414  2023-12-05 10:10:42.210045
2415  2023-12-05 10:10:42.242014
2416  2023-12-05 10:10:42.273916
2417  2023-12-05 10:10:42.305827
2418  2023-12-05 10:10:42.337764
2419  2023-12-05 10:10:42.385608
2420  2023-12-05 10:10:42.417526
2421  2023-12-05 10:10:42.450430
2422  2023-12-05 10:10:42.482346
2423  2023-12-05 10:10:42.514261
2424  2023-12-05 10:10:42.546175
2425  2023-12-05 10:10:42.578092
2426  2023-12-05 10:10:42.610016
2427  2023-12-05 10:10:42.641931
2428  2023-12-05 10:10:42.673837
2429  2023-12-05 10:10:42.705747
2430  2023-12-05 10:10:42.737674
2431  2023-12-05 10:10:42.785539
2432  2023-12-05 10:10:42.818461
2433  2023-12-05 10:10:42.850360
2434  2023-12-05 10:10:42.882248
2435  2023-12-05 10:10:42.914192
2436  2023-12-05 10:10:42.946106
2437  2023-12-05 10:10:42.977989
2438  2023-12-05 10:10:43.009935
2439  2023-12-05 10:10:43.041854
2440  2023-12-05 10:10:43.073769
2441  2023-12-05 10:10:43.105648
2442  2023-12-05 10:10:43.137606
2443  2023-12-05 10:10:43.185607
2444  2023-12-05 10:10:43.217520
2445  2023-12-05 10:10:43.250429
2446  2023-12-05 10:10:43.282313
2447  2023-12-05 10:10:43.314260
2448  2023-12-05 10:10:43.346177
2449  2023-12-05 10:10:43.378086
2450  2023-12-05 10:10:43.410007
2451  2023-12-05 10:10:43.441928
2452  2023-12-05 10:10:43.473850
2453  2023-12-05 10:10:43.506747
2454  2023-12-05 10:10:43.538629
2455  2023-12-05 10:10:43.586541
2456  2023-12-05 10:10:43.618465
2457  2023-12-05 10:10:43.650359
2458  2023-12-05 10:10:43.682243
2459  2023-12-05 10:10:43.714158
2460  2023-12-05 10:10:43.746073
2461  2023-12-05 10:10:43.777989
2462  2023-12-05 10:10:43.809911
2463  2023-12-05 10:10:43.841846
2464  2023-12-05 10:10:43.873732
2465  2023-12-05 10:10:43.905679
2466  2023-12-05 10:10:43.938606
2467  2023-12-05 10:10:43.985510
2468  2023-12-05 10:10:44.018419
2469  2023-12-05 10:10:44.050304
2470  2023-12-05 10:10:44.082252
2471  2023-12-05 10:10:44.114163
2472  2023-12-05 10:10:44.146080
2473  2023-12-05 10:10:44.178078
2474  2023-12-05 10:10:44.210115
2475  2023-12-05 10:10:44.242105
2476  2023-12-05 10:10:44.274019
2477  2023-12-05 10:10:44.305975
2478  2023-12-05 10:10:44.337850
2479  2023-12-05 10:10:44.385756
2480  2023-12-05 10:10:44.417674
2481  2023-12-05 10:10:44.449612
2482  2023-12-05 10:10:44.482414
2483  2023-12-05 10:10:44.514399
2484  2023-12-05 10:10:44.546278
2485  2023-12-05 10:10:44.578227
2486  2023-12-05 10:10:44.610143
2487  2023-12-05 10:10:44.642058
2488  2023-12-05 10:10:44.674009
2489  2023-12-05 10:10:44.705887
2490  2023-12-05 10:10:44.737805
2491  2023-12-05 10:10:44.785672
2492  2023-12-05 10:10:44.817586
2493  2023-12-05 10:10:44.850498
2494  2023-12-05 10:10:44.882413
2495  2023-12-05 10:10:44.914454
2496  2023-12-05 10:10:44.946401
2497  2023-12-05 10:10:44.978284
2498  2023-12-05 10:10:45.010234
2499  2023-12-05 10:10:45.042322
2500  2023-12-05 10:10:45.074235
2501  2023-12-05 10:10:45.106174
2502  2023-12-05 10:10:45.138066
2503  2023-12-05 10:10:45.185951
2504  2023-12-05 10:10:45.217857
2505  2023-12-05 10:10:45.249770
2506  2023-12-05 10:10:45.281685
2507  2023-12-05 10:10:45.313596
2508  2023-12-05 10:10:45.345480
2509  2023-12-05 10:10:45.378413
2510  2023-12-05 10:10:45.410306
2511  2023-12-05 10:10:45.442228
2512  2023-12-05 10:10:45.474135
2513  2023-12-05 10:10:45.506084
2514  2023-12-05 10:10:45.537984
2515  2023-12-05 10:10:45.585835
2516  2023-12-05 10:10:45.617787
2517  2023-12-05 10:10:45.649702
2518  2023-12-05 10:10:45.681613
2519  2023-12-05 10:10:45.714522
2520  2023-12-05 10:10:45.746436
2521  2023-12-05 10:10:45.778323
2522  2023-12-05 10:10:45.810321
2523  2023-12-05 10:10:45.842304
2524  2023-12-05 10:10:45.874251
2525  2023-12-05 10:10:45.906167
2526  2023-12-05 10:10:45.938047
2527  2023-12-05 10:10:45.985958
2528  2023-12-05 10:10:46.017964
2529  2023-12-05 10:10:46.049859
2530  2023-12-05 10:10:46.081763
2531  2023-12-05 10:10:46.113676
2532  2023-12-05 10:10:46.145595
2533  2023-12-05 10:10:46.178512
2534  2023-12-05 10:10:46.210420
2535  2023-12-05 10:10:46.242300
2536  2023-12-05 10:10:46.274251
2537  2023-12-05 10:10:46.306167
2538  2023-12-05 10:10:46.338078
2539  2023-12-05 10:10:46.385915
2540  2023-12-05 10:10:46.417832
2541  2023-12-05 10:10:46.449786
2542  2023-12-05 10:10:46.481697
2543  2023-12-05 10:10:46.513609
2544  2023-12-05 10:10:46.545521
2545  2023-12-05 10:10:46.578402
2546  2023-12-05 10:10:46.610317
2547  2023-12-05 10:10:46.642265
2548  2023-12-05 10:10:46.674176
2549  2023-12-05 10:10:46.706102
2550  2023-12-05 10:10:46.738019
2551  2023-12-05 10:10:46.785893
2552  2023-12-05 10:10:46.817792
2553  2023-12-05 10:10:46.849706
2554  2023-12-05 10:10:46.882587
2555  2023-12-05 10:10:46.914502
2556  2023-12-05 10:10:46.946459
2557  2023-12-05 10:10:46.978370
2558  2023-12-05 10:10:47.010282
2559  2023-12-05 10:10:47.042194
2560  2023-12-05 10:10:47.074112
2561  2023-12-05 10:10:47.106026
2562  2023-12-05 10:10:47.137906
2563  2023-12-05 10:10:47.185812
2564  2023-12-05 10:10:47.217727
2565  2023-12-05 10:10:47.249637
2566  2023-12-05 10:10:47.281552
2567  2023-12-05 10:10:47.314464
2568  2023-12-05 10:10:47.346379
2569  2023-12-05 10:10:47.378294
2570  2023-12-05 10:10:47.410209
2571  2023-12-05 10:10:47.442127
2572  2023-12-05 10:10:47.474043
2573  2023-12-05 10:10:47.505982
2574  2023-12-05 10:10:47.537873
2575  2023-12-05 10:10:47.585705
2576  2023-12-05 10:10:47.617657
2577  2023-12-05 10:10:47.649577
2578  2023-12-05 10:10:47.682493
2579  2023-12-05 10:10:47.714397
2580  2023-12-05 10:10:47.746307
2581  2023-12-05 10:10:47.778227
2582  2023-12-05 10:10:47.810144
2583  2023-12-05 10:10:47.842054
2584  2023-12-05 10:10:47.873965
2585  2023-12-05 10:10:47.905886
2586  2023-12-05 10:10:47.937800
2587  2023-12-05 10:10:47.985635
2588  2023-12-05 10:10:48.017550
2589  2023-12-05 10:10:48.050496
2590  2023-12-05 10:10:48.082420
2591  2023-12-05 10:10:48.114324
2592  2023-12-05 10:10:48.146239
2593  2023-12-05 10:10:48.178163
2594  2023-12-05 10:10:48.210069
2595  2023-12-05 10:10:48.241984
2596  2023-12-05 10:10:48.273907
2597  2023-12-05 10:10:48.305823
2598  2023-12-05 10:10:48.338735
2599  2023-12-05 10:10:48.385566
2600  2023-12-05 10:10:48.417480
2601  2023-12-05 10:10:48.450442
2602  2023-12-05 10:10:48.482343
2603  2023-12-05 10:10:48.514223
2604  2023-12-05 10:10:48.546171
2605  2023-12-05 10:10:48.578081
2606  2023-12-05 10:10:48.609997
2607  2023-12-05 10:10:48.641913
2608  2023-12-05 10:10:48.673849
2609  2023-12-05 10:10:48.705751
2610  2023-12-05 10:10:48.737659
2611  2023-12-05 10:10:48.785496
2612  2023-12-05 10:10:48.818408
2613  2023-12-05 10:10:48.850373
2614  2023-12-05 10:10:48.882269
2615  2023-12-05 10:10:48.914187
2616  2023-12-05 10:10:48.946099
2617  2023-12-05 10:10:48.978013
2618  2023-12-05 10:10:49.009938
2619  2023-12-05 10:10:49.041854
2620  2023-12-05 10:10:49.073767
2621  2023-12-05 10:10:49.105675
2622  2023-12-05 10:10:49.137630
2623  2023-12-05 10:10:49.186450
2624  2023-12-05 10:10:49.218374
2625  2023-12-05 10:10:49.250293
2626  2023-12-05 10:10:49.282204
2627  2023-12-05 10:10:49.314119
2628  2023-12-05 10:10:49.346032
2629  2023-12-05 10:10:49.377958
2630  2023-12-05 10:10:49.409874
2631  2023-12-05 10:10:49.441775
2632  2023-12-05 10:10:49.473693
2633  2023-12-05 10:10:49.505609
2634  2023-12-05 10:10:49.538514
2635  2023-12-05 10:10:49.586354
2636  2023-12-05 10:10:49.618268
2637  2023-12-05 10:10:49.650183
2638  2023-12-05 10:10:49.682129
2639  2023-12-05 10:10:49.714044
2640  2023-12-05 10:10:49.745993
2641  2023-12-05 10:10:49.777872
2642  2023-12-05 10:10:49.809796
2643  2023-12-05 10:10:49.841711
2644  2023-12-05 10:10:49.873622
2645  2023-12-05 10:10:49.905551
2646  2023-12-05 10:10:49.938443
2647  2023-12-05 10:10:49.986284
2648  2023-12-05 10:10:50.018198
2649  2023-12-05 10:10:50.050113
2650  2023-12-05 10:10:50.082059
2651  2023-12-05 10:10:50.113983
2652  2023-12-05 10:10:50.145889
2653  2023-12-05 10:10:50.177818
2654  2023-12-05 10:10:50.209724
2655  2023-12-05 10:10:50.241637
2656  2023-12-05 10:10:50.274549
2657  2023-12-05 10:10:50.306471
2658  2023-12-05 10:10:50.338343
2659  2023-12-05 10:10:50.386252
2660  2023-12-05 10:10:50.418128
2661  2023-12-05 10:10:50.450043
2662  2023-12-05 10:10:50.481995
2663  2023-12-05 10:10:50.513874
2664  2023-12-05 10:10:50.545821
2665  2023-12-05 10:10:50.577737
2666  2023-12-05 10:10:50.609653
2667  2023-12-05 10:10:50.642563
2668  2023-12-05 10:10:50.674451
2669  2023-12-05 10:10:50.706406
2670  2023-12-05 10:10:50.738274
2671  2023-12-05 10:10:50.786144
2672  2023-12-05 10:10:50.818058
2673  2023-12-05 10:10:50.850006
2674  2023-12-05 10:10:50.881940
2675  2023-12-05 10:10:50.913845
2676  2023-12-05 10:10:50.945750
2677  2023-12-05 10:10:50.978661
2678  2023-12-05 10:10:51.009582
2679  2023-12-05 10:10:51.041625
2680  2023-12-05 10:10:51.073532
2681  2023-12-05 10:10:51.106462
2682  2023-12-05 10:10:51.138372
2683  2023-12-05 10:10:51.186236
2684  2023-12-05 10:10:51.218143
2685  2023-12-05 10:10:51.250025
2686  2023-12-05 10:10:51.281977
2687  2023-12-05 10:10:51.313903
2688  2023-12-05 10:10:51.345838
2689  2023-12-05 10:10:51.377843
2690  2023-12-05 10:10:51.409770
2691  2023-12-05 10:10:51.441673
2692  2023-12-05 10:10:51.473594
2693  2023-12-05 10:10:51.506513
2694  2023-12-05 10:10:51.538423
2695  2023-12-05 10:10:51.586252
2696  2023-12-05 10:10:51.618167
2697  2023-12-05 10:10:51.650082
2698  2023-12-05 10:10:51.682010
2699  2023-12-05 10:10:51.713937
2700  2023-12-05 10:10:51.745834
2701  2023-12-05 10:10:51.777752
2702  2023-12-05 10:10:51.809669
2703  2023-12-05 10:10:51.841590
2704  2023-12-05 10:10:51.874493
2705  2023-12-05 10:10:51.906416
2706  2023-12-05 10:10:51.938326
2707  2023-12-05 10:10:51.986162
2708  2023-12-05 10:10:52.018076
2709  2023-12-05 10:10:52.049991
2710  2023-12-05 10:10:52.081944
2711  2023-12-05 10:10:52.113860
2712  2023-12-05 10:10:52.145771
2713  2023-12-05 10:10:52.178672
2714  2023-12-05 10:10:52.210592
2715  2023-12-05 10:10:52.242508
2716  2023-12-05 10:10:52.274435
2717  2023-12-05 10:10:52.306338
2718  2023-12-05 10:10:52.338221
2719  2023-12-05 10:10:52.386190
2720  2023-12-05 10:10:52.418131
2721  2023-12-05 10:10:52.450046
2722  2023-12-05 10:10:52.481959
2723  2023-12-05 10:10:52.513495
2724  2023-12-05 10:10:52.546439
2725  2023-12-05 10:10:52.578331
2726  2023-12-05 10:10:52.610300
2727  2023-12-05 10:10:52.642214
2728  2023-12-05 10:10:52.674131
2729  2023-12-05 10:10:52.706053
2730  2023-12-05 10:10:52.737970
2731  2023-12-05 10:10:52.785885
2732  2023-12-05 10:10:52.817801
2733  2023-12-05 10:10:52.849715
2734  2023-12-05 10:10:52.882594
2735  2023-12-05 10:10:52.913617
2736  2023-12-05 10:10:52.946525
2737  2023-12-05 10:10:52.978461
2738  2023-12-05 10:10:53.010356
2739  2023-12-05 10:10:53.042279
2740  2023-12-05 10:10:53.074185
2741  2023-12-05 10:10:53.106105
2742  2023-12-05 10:10:53.138050
2743  2023-12-05 10:10:53.185852
2744  2023-12-05 10:10:53.217767
2745  2023-12-05 10:10:53.249721
2746  2023-12-05 10:10:53.281629
2747  2023-12-05 10:10:53.314545
2748  2023-12-05 10:10:53.346474
2749  2023-12-05 10:10:53.378370
2750  2023-12-05 10:10:53.410290
2751  2023-12-05 10:10:53.442201
2752  2023-12-05 10:10:53.474117
2753  2023-12-05 10:10:53.506026
2754  2023-12-05 10:10:53.537947
2755  2023-12-05 10:10:53.585784
2756  2023-12-05 10:10:53.617698
2757  2023-12-05 10:10:53.649613
2758  2023-12-05 10:10:53.681561
2759  2023-12-05 10:10:53.714438
2760  2023-12-05 10:10:53.746389
2761  2023-12-05 10:10:53.778299
2762  2023-12-05 10:10:53.810195
2763  2023-12-05 10:10:53.842131
2764  2023-12-05 10:10:53.874046
2765  2023-12-05 10:10:53.905968
2766  2023-12-05 10:10:53.937876
2767  2023-12-05 10:10:53.985712
2768  2023-12-05 10:10:54.017708
2769  2023-12-05 10:10:54.049654
2770  2023-12-05 10:10:54.081618
2771  2023-12-05 10:10:54.114667
2772  2023-12-05 10:10:54.145614
2773  2023-12-05 10:10:54.177499
2774  2023-12-05 10:10:54.210417
2775  2023-12-05 10:10:54.242325
2776  2023-12-05 10:10:54.274362
2777  2023-12-05 10:10:54.306390
2778  2023-12-05 10:10:54.338315
2779  2023-12-05 10:10:54.386148
2780  2023-12-05 10:10:54.418062
2781  2023-12-05 10:10:54.450010
2782  2023-12-05 10:10:54.481927
2783  2023-12-05 10:10:54.513846
2784  2023-12-05 10:10:54.545755
2785  2023-12-05 10:10:54.577668
2786  2023-12-05 10:10:54.610019
2787  2023-12-05 10:10:54.642060
2788  2023-12-05 10:10:54.673968
2789  2023-12-05 10:10:54.705883
2790  2023-12-05 10:10:54.737796
2791  2023-12-05 10:10:54.785635
2792  2023-12-05 10:10:54.817550
2793  2023-12-05 10:10:54.850462
2794  2023-12-05 10:10:54.882377
2795  2023-12-05 10:10:54.914326
2796  2023-12-05 10:10:54.946247
2797  2023-12-05 10:10:54.978152
2798  2023-12-05 10:10:55.010035
2799  2023-12-05 10:10:55.041986
2800  2023-12-05 10:10:55.073915
2801  2023-12-05 10:10:55.105812
2802  2023-12-05 10:10:55.138743
2803  2023-12-05 10:10:55.185601
2804  2023-12-05 10:10:55.217515
2805  2023-12-05 10:10:55.250444
2806  2023-12-05 10:10:55.282351
2807  2023-12-05 10:10:55.314252
2808  2023-12-05 10:10:55.346172
2809  2023-12-05 10:10:55.378093
2810  2023-12-05 10:10:55.410008
2811  2023-12-05 10:10:55.441913
2812  2023-12-05 10:10:55.473849
2813  2023-12-05 10:10:55.505744
2814  2023-12-05 10:10:55.537670
2815  2023-12-05 10:10:55.585495
2816  2023-12-05 10:10:55.618407
2817  2023-12-05 10:10:55.650368
2818  2023-12-05 10:10:55.682269
2819  2023-12-05 10:10:55.714182
2820  2023-12-05 10:10:55.746101
2821  2023-12-05 10:10:55.778015
2822  2023-12-05 10:10:55.809936
2823  2023-12-05 10:10:55.841852
2824  2023-12-05 10:10:55.873790
2825  2023-12-05 10:10:55.905753
2826  2023-12-05 10:10:55.937665
2827  2023-12-05 10:10:55.986503
2828  2023-12-05 10:10:56.018417
2829  2023-12-05 10:10:56.050364
2830  2023-12-05 10:10:56.082286
2831  2023-12-05 10:10:56.114197
2832  2023-12-05 10:10:56.146110
2833  2023-12-05 10:10:56.178022
2834  2023-12-05 10:10:56.209935
2835  2023-12-05 10:10:56.241856
2836  2023-12-05 10:10:56.273775
2837  2023-12-05 10:10:56.305649
2838  2023-12-05 10:10:56.337604
2839  2023-12-05 10:10:56.386433
2840  2023-12-05 10:10:56.418347
2841  2023-12-05 10:10:56.450342
2842  2023-12-05 10:10:56.482330
2843  2023-12-05 10:10:56.514241
2844  2023-12-05 10:10:56.546154
2845  2023-12-05 10:10:56.578039
2846  2023-12-05 10:10:56.609954
2847  2023-12-05 10:10:56.641901
2848  2023-12-05 10:10:56.674789
2849  2023-12-05 10:10:56.705732
2850  2023-12-05 10:10:56.738654
2851  2023-12-05 10:10:56.785483
2852  2023-12-05 10:10:56.818404
2853  2023-12-05 10:10:56.850344
2854  2023-12-05 10:10:56.882225
2855  2023-12-05 10:10:56.914169
2856  2023-12-05 10:10:56.946084
2857  2023-12-05 10:10:56.978008
2858  2023-12-05 10:10:57.009914
2859  2023-12-05 10:10:57.041836
2860  2023-12-05 10:10:57.073744
2861  2023-12-05 10:10:57.105661
2862  2023-12-05 10:10:57.138573
2863  2023-12-05 10:10:57.186457
2864  2023-12-05 10:10:57.218365
2865  2023-12-05 10:10:57.250275
2866  2023-12-05 10:10:57.282191
2867  2023-12-05 10:10:57.314110
2868  2023-12-05 10:10:57.346016
2869  2023-12-05 10:10:57.377933
2870  2023-12-05 10:10:57.409845
2871  2023-12-05 10:10:57.441762
2872  2023-12-05 10:10:57.474681
2873  2023-12-05 10:10:57.505598
2874  2023-12-05 10:10:57.538500
2875  2023-12-05 10:10:57.586341
2876  2023-12-05 10:10:57.618364
2877  2023-12-05 10:10:57.650270
2878  2023-12-05 10:10:57.682184
2879  2023-12-05 10:10:57.714101
2880  2023-12-05 10:10:57.748018
2881  2023-12-05 10:10:57.777933
2882  2023-12-05 10:10:57.809845
2883  2023-12-05 10:10:57.841764
2884  2023-12-05 10:10:57.875669
2885  2023-12-05 10:10:57.907587
2886  2023-12-05 10:10:57.938505
2887  2023-12-05 10:10:57.987367
2888  2023-12-05 10:10:58.019287
2889  2023-12-05 10:10:58.051197
2890  2023-12-05 10:10:58.083112
2891  2023-12-05 10:10:58.115027
2892  2023-12-05 10:10:58.146910
2893  2023-12-05 10:10:58.179046
2894  2023-12-05 10:10:58.210954
2895  2023-12-05 10:10:58.243834
2896  2023-12-05 10:10:58.275782
2897  2023-12-05 10:10:58.307695
2898  2023-12-05 10:10:58.339615
2899  2023-12-05 10:10:58.387479
2900  2023-12-05 10:10:58.419396
2901  2023-12-05 10:10:58.451311
2902  2023-12-05 10:10:58.483225
2903  2023-12-05 10:10:58.515141
2904  2023-12-05 10:10:58.547053
2905  2023-12-05 10:10:58.578972
2906  2023-12-05 10:10:58.610889
2907  2023-12-05 10:10:58.642800
2908  2023-12-05 10:10:58.675710
2909  2023-12-05 10:10:58.706629
2910  2023-12-05 10:10:58.738664
2911  2023-12-05 10:10:58.786482
2912  2023-12-05 10:10:58.818396
2913  2023-12-05 10:10:58.851341
2914  2023-12-05 10:10:58.883244
2915  2023-12-05 10:10:58.915170
2916  2023-12-05 10:10:58.947096
2917  2023-12-05 10:10:58.979012
2918  2023-12-05 10:10:59.010912
2919  2023-12-05 10:10:59.042850
2920  2023-12-05 10:10:59.074745
2921  2023-12-05 10:10:59.106658
2922  2023-12-05 10:10:59.138572
2923  2023-12-05 10:10:59.186443
2924  2023-12-05 10:10:59.218357
2925  2023-12-05 10:10:59.250274
2926  2023-12-05 10:10:59.282187
2927  2023-12-05 10:10:59.314101
2928  2023-12-05 10:10:59.346015
2929  2023-12-05 10:10:59.377941
2930  2023-12-05 10:10:59.409846
2931  2023-12-05 10:10:59.441760
2932  2023-12-05 10:10:59.474712
2933  2023-12-05 10:10:59.506627
2934  2023-12-05 10:10:59.538124
2935  2023-12-05 10:10:59.585997
2936  2023-12-05 10:10:59.617927
2937  2023-12-05 10:10:59.649840
2938  2023-12-05 10:10:59.681741
2939  2023-12-05 10:10:59.713655
2940  2023-12-05 10:10:59.745571
2941  2023-12-05 10:10:59.777490
2942  2023-12-05 10:10:59.810406
2943  2023-12-05 10:10:59.842314
2944  2023-12-05 10:10:59.874228
2945  2023-12-05 10:10:59.906146
2946  2023-12-05 10:10:59.938058
2947  2023-12-05 10:10:59.985934
2948  2023-12-05 10:11:00.017946
2949  2023-12-05 10:11:00.049879
2950  2023-12-05 10:11:00.081778
2951  2023-12-05 10:11:00.113701
2952  2023-12-05 10:11:00.145607
2953  2023-12-05 10:11:00.178552
2954  2023-12-05 10:11:00.210401
2955  2023-12-05 10:11:00.242363
2956  2023-12-05 10:11:00.274265
2957  2023-12-05 10:11:00.306179
2958  2023-12-05 10:11:00.338107
2959  2023-12-05 10:11:00.386084
2960  2023-12-05 10:11:00.420029
2961  2023-12-05 10:11:00.449962
2962  2023-12-05 10:11:00.481862
2963  2023-12-05 10:11:00.515790
2964  2023-12-05 10:11:00.546655
2965  2023-12-05 10:11:00.579607
2966  2023-12-05 10:11:00.609517
2967  2023-12-05 10:11:00.642419
2968  2023-12-05 10:11:00.674346
2969  2023-12-05 10:11:00.706260
2970  2023-12-05 10:11:00.740138
2971  2023-12-05 10:11:00.787039
2972  2023-12-05 10:11:00.819070
2973  2023-12-05 10:11:00.850149
2974  2023-12-05 10:11:00.882064
2975  2023-12-05 10:11:00.914982
2976  2023-12-05 10:11:00.945894
2977  2023-12-05 10:11:00.979818
2978  2023-12-05 10:11:01.010707
2979  2023-12-05 10:11:01.041636
2980  2023-12-05 10:11:01.075552
2981  2023-12-05 10:11:01.107464
2982  2023-12-05 10:11:01.138397
2983  2023-12-05 10:11:01.187267
2984  2023-12-05 10:11:01.219161
2985  2023-12-05 10:11:01.250088
2986  2023-12-05 10:11:01.282056
2987  2023-12-05 10:11:01.315069
2988  2023-12-05 10:11:01.346986
2989  2023-12-05 10:11:01.378899
2990  2023-12-05 10:11:01.409839
2991  2023-12-05 10:11:01.441700
2992  2023-12-05 10:11:01.473630
2993  2023-12-05 10:11:01.507557
2994  2023-12-05 10:11:01.539470
2995  2023-12-05 10:11:01.587345
2996  2023-12-05 10:11:01.619269
2997  2023-12-05 10:11:01.650142
2998  2023-12-05 10:11:01.682058
2999  2023-12-05 10:11:01.715014
3000  2023-12-05 10:11:01.746933
3001  2023-12-05 10:11:01.778829
3002  2023-12-05 10:11:01.809751
3003  2023-12-05 10:11:01.841662
3004  2023-12-05 10:11:01.874574
3005  2023-12-05 10:11:01.906506
3006  2023-12-05 10:11:01.938402
3007  2023-12-05 10:11:01.986243
3008  2023-12-05 10:11:02.018189
3009  2023-12-05 10:11:02.050073
3010  2023-12-05 10:11:02.081999
3011  2023-12-05 10:11:02.114946
3012  2023-12-05 10:11:02.146844
3013  2023-12-05 10:11:02.178763
3014  2023-12-05 10:11:02.209824
3015  2023-12-05 10:11:02.242737
3016  2023-12-05 10:11:02.274757
3017  2023-12-05 10:11:02.306680
3018  2023-12-05 10:11:02.338534
3019  2023-12-05 10:11:02.386454
3020  2023-12-05 10:11:02.418345
3021  2023-12-05 10:11:02.450237
3022  2023-12-05 10:11:02.482150
3023  2023-12-05 10:11:02.515092
3024  2023-12-05 10:11:02.547000
3025  2023-12-05 10:11:02.578977
3026  2023-12-05 10:11:02.609978
3027  2023-12-05 10:11:02.641840
3028  2023-12-05 10:11:02.674791
3029  2023-12-05 10:11:02.706825
3030  2023-12-05 10:11:02.738737
3031  2023-12-05 10:11:02.786620
3032  2023-12-05 10:11:02.818631
3033  2023-12-05 10:11:02.850568
3034  2023-12-05 10:11:02.882486
3035  2023-12-05 10:11:02.914380
3036  2023-12-05 10:11:02.946289
3037  2023-12-05 10:11:02.978171
3038  2023-12-05 10:11:03.011117
3039  2023-12-05 10:11:03.042033
3040  2023-12-05 10:11:03.073916
3041  2023-12-05 10:11:03.105866
3042  2023-12-05 10:11:03.138787
3043  2023-12-05 10:11:03.187752
3044  2023-12-05 10:11:03.218667
3045  2023-12-05 10:11:03.250532
3046  2023-12-05 10:11:03.281704
3047  2023-12-05 10:11:03.313682
3048  2023-12-05 10:11:03.345592
3049  2023-12-05 10:11:03.378474
3050  2023-12-05 10:11:03.410422
3051  2023-12-05 10:11:03.442334
3052  2023-12-05 10:11:03.474252
3053  2023-12-05 10:11:03.506212
3054  2023-12-05 10:11:03.538126
3055  2023-12-05 10:11:03.585998
3056  2023-12-05 10:11:03.617924
3057  2023-12-05 10:11:03.649840
3058  2023-12-05 10:11:03.681747
3059  2023-12-05 10:11:03.713661
3060  2023-12-05 10:11:03.746582
3061  2023-12-05 10:11:03.778454
3062  2023-12-05 10:11:03.810404
3063  2023-12-05 10:11:03.842315
3064  2023-12-05 10:11:03.874230
3065  2023-12-05 10:11:03.906227
3066  2023-12-05 10:11:03.938159
3067  2023-12-05 10:11:03.986044
3068  2023-12-05 10:11:04.017974
3069  2023-12-05 10:11:04.050012
3070  2023-12-05 10:11:04.081903
3071  2023-12-05 10:11:04.113835
3072  2023-12-05 10:11:04.146719
3073  2023-12-05 10:11:04.178638
3074  2023-12-05 10:11:04.210524
3075  2023-12-05 10:11:04.242485
3076  2023-12-05 10:11:04.274399
3077  2023-12-05 10:11:04.306324
3078  2023-12-05 10:11:04.338213
3079  2023-12-05 10:11:04.386094
3080  2023-12-05 10:11:04.418133
3081  2023-12-05 10:11:04.450016
3082  2023-12-05 10:11:04.482045
3083  2023-12-05 10:11:04.513992
3084  2023-12-05 10:11:04.545930
3085  2023-12-05 10:11:04.577840
3086  2023-12-05 10:11:04.609755
3087  2023-12-05 10:11:04.642773
3088  2023-12-05 10:11:04.674690
3089  2023-12-05 10:11:04.706567
3090  2023-12-05 10:11:04.738514
3091  2023-12-05 10:11:04.786395
3092  2023-12-05 10:11:04.818305
3093  2023-12-05 10:11:04.850212
3094  2023-12-05 10:11:04.882096
3095  2023-12-05 10:11:04.914011
3096  2023-12-05 10:11:04.945927
3097  2023-12-05 10:11:04.978838
3098  2023-12-05 10:11:05.009796
3099  2023-12-05 10:11:05.041705
3100  2023-12-05 10:11:05.073586
3101  2023-12-05 10:11:05.106538
3102  2023-12-05 10:11:05.138443
3103  2023-12-05 10:11:05.186327
3104  2023-12-05 10:11:05.218236
3105  2023-12-05 10:11:05.250112
3106  2023-12-05 10:11:05.282026
3107  2023-12-05 10:11:05.313995
3108  2023-12-05 10:11:05.345890
3109  2023-12-05 10:11:05.377831
3110  2023-12-05 10:11:05.409716
3111  2023-12-05 10:11:05.441722
3112  2023-12-05 10:11:05.473634
3113  2023-12-05 10:11:05.505635
3114  2023-12-05 10:11:05.537539
3115  2023-12-05 10:11:05.586406
3116  2023-12-05 10:11:05.618325
3117  2023-12-05 10:11:05.650206
3118  2023-12-05 10:11:05.682153
3119  2023-12-05 10:11:05.714033
3120  2023-12-05 10:11:05.746002
3121  2023-12-05 10:11:05.777916
3122  2023-12-05 10:11:05.809952
3123  2023-12-05 10:11:05.841909
3124  2023-12-05 10:11:05.873814
3125  2023-12-05 10:11:05.905707
3126  2023-12-05 10:11:05.937617
3127  2023-12-05 10:11:05.985632
3128  2023-12-05 10:11:06.017584
3129  2023-12-05 10:11:06.050602
3130  2023-12-05 10:11:06.082465
3131  2023-12-05 10:11:06.114425
3132  2023-12-05 10:11:06.146331
3133  2023-12-05 10:11:06.178235
3134  2023-12-05 10:11:06.210124
3135  2023-12-05 10:11:06.242078
3136  2023-12-05 10:11:06.273954
3137  2023-12-05 10:11:06.305868
3138  2023-12-05 10:11:06.337823
3139  2023-12-05 10:11:06.385655
3140  2023-12-05 10:11:06.418620
3141  2023-12-05 10:11:06.450483
3142  2023-12-05 10:11:06.482429
3143  2023-12-05 10:11:06.514348
3144  2023-12-05 10:11:06.546265
3145  2023-12-05 10:11:06.578231
3146  2023-12-05 10:11:06.610193
3147  2023-12-05 10:11:06.642141
3148  2023-12-05 10:11:06.674054
3149  2023-12-05 10:11:06.705974
3150  2023-12-05 10:11:06.737890
3151  2023-12-05 10:11:06.785757
3152  2023-12-05 10:11:06.817691
3153  2023-12-05 10:11:06.849608
3154  2023-12-05 10:11:06.881467
3155  2023-12-05 10:11:06.914427
3156  2023-12-05 10:11:06.946324
3157  2023-12-05 10:11:06.978210
3158  2023-12-05 10:11:07.010156
3159  2023-12-05 10:11:07.042038
3160  2023-12-05 10:11:07.073983
3161  2023-12-05 10:11:07.105901
3162  2023-12-05 10:11:07.137965
3163  2023-12-05 10:11:07.185838
3164  2023-12-05 10:11:07.218739
3165  2023-12-05 10:11:07.249623
3166  2023-12-05 10:11:07.282536
3167  2023-12-05 10:11:07.314451
3168  2023-12-05 10:11:07.346415
3169  2023-12-05 10:11:07.378280
3170  2023-12-05 10:11:07.410194
3171  2023-12-05 10:11:07.442109
3172  2023-12-05 10:11:07.474054
3173  2023-12-05 10:11:07.505969
3174  2023-12-05 10:11:07.537883
3175  2023-12-05 10:11:07.585755
3176  2023-12-05 10:11:07.617678
3177  2023-12-05 10:11:07.650585
3178  2023-12-05 10:11:07.682514
3179  2023-12-05 10:11:07.714428
3180  2023-12-05 10:11:07.746327
3181  2023-12-05 10:11:07.778246
3182  2023-12-05 10:11:07.810124
3183  2023-12-05 10:11:07.842038
3184  2023-12-05 10:11:07.873985
3185  2023-12-05 10:11:07.905916
3186  2023-12-05 10:11:07.937825
3187  2023-12-05 10:11:07.985686
3188  2023-12-05 10:11:08.018567
3189  2023-12-05 10:11:08.050531
3190  2023-12-05 10:11:08.082396
3191  2023-12-05 10:11:08.114353
3192  2023-12-05 10:11:08.146259
3193  2023-12-05 10:11:08.178140
3194  2023-12-05 10:11:08.210099
3195  2023-12-05 10:11:08.242002
3196  2023-12-05 10:11:08.273930
3197  2023-12-05 10:11:08.306795
3198  2023-12-05 10:11:08.338744
3199  2023-12-05 10:11:08.385621
3200  2023-12-05 10:11:08.417536
3201  2023-12-05 10:11:08.450412
3202  2023-12-05 10:11:08.482366
3203  2023-12-05 10:11:08.514272
3204  2023-12-05 10:11:08.546187
3205  2023-12-05 10:11:08.578101
3206  2023-12-05 10:11:08.610021
3207  2023-12-05 10:11:08.642938
3208  2023-12-05 10:11:08.673813
3209  2023-12-05 10:11:08.705767
3210  2023-12-05 10:11:08.737686
3211  2023-12-05 10:11:08.785555
3212  2023-12-05 10:11:08.818466
3213  2023-12-05 10:11:08.850342
3214  2023-12-05 10:11:08.882257
3215  2023-12-05 10:11:08.914202
3216  2023-12-05 10:11:08.946117
3217  2023-12-05 10:11:08.978030
3218  2023-12-05 10:11:09.009965
3219  2023-12-05 10:11:09.041886
3220  2023-12-05 10:11:09.073774
3221  2023-12-05 10:11:09.105706
3222  2023-12-05 10:11:09.137610
3223  2023-12-05 10:11:09.186489
3224  2023-12-05 10:11:09.218391
3225  2023-12-05 10:11:09.250308
3226  2023-12-05 10:11:09.282227
3227  2023-12-05 10:11:09.314137
3228  2023-12-05 10:11:09.346052
3229  2023-12-05 10:11:09.377963
3230  2023-12-05 10:11:09.409885
3231  2023-12-05 10:11:09.441812
3232  2023-12-05 10:11:09.473706
3233  2023-12-05 10:11:09.505588
3234  2023-12-05 10:11:09.537503
3235  2023-12-05 10:11:09.585500
3236  2023-12-05 10:11:09.618434
3237  2023-12-05 10:11:09.649516
3238  2023-12-05 10:11:09.682435
3239  2023-12-05 10:11:09.714340
3240  2023-12-05 10:11:09.746254
3241  2023-12-05 10:11:09.778172
3242  2023-12-05 10:11:09.810082
3243  2023-12-05 10:11:09.842002
3244  2023-12-05 10:11:09.873946
3245  2023-12-05 10:11:09.905793
3246  2023-12-05 10:11:09.937708
3247  2023-12-05 10:11:09.985617
3248  2023-12-05 10:11:10.017527
3249  2023-12-05 10:11:10.050454
3250  2023-12-05 10:11:10.082354
3251  2023-12-05 10:11:10.114272
3252  2023-12-05 10:11:10.146186
3253  2023-12-05 10:11:10.178098
3254  2023-12-05 10:11:10.210023
3255  2023-12-05 10:11:10.241943
3256  2023-12-05 10:11:10.273846
3257  2023-12-05 10:11:10.305762
3258  2023-12-05 10:11:10.337678
3259  2023-12-05 10:11:10.386547
3260  2023-12-05 10:11:10.418455
3261  2023-12-05 10:11:10.450337
3262  2023-12-05 10:11:10.482293
3263  2023-12-05 10:11:10.514168
3264  2023-12-05 10:11:10.546116
3265  2023-12-05 10:11:10.578027
3266  2023-12-05 10:11:10.609965
3267  2023-12-05 10:11:10.641864
3268  2023-12-05 10:11:10.673775
3269  2023-12-05 10:11:10.705687
3270  2023-12-05 10:11:10.737568
3271  2023-12-05 10:11:10.786477
3272  2023-12-05 10:11:10.818386
3273  2023-12-05 10:11:10.850267
3274  2023-12-05 10:11:10.882184
3275  2023-12-05 10:11:10.914130
3276  2023-12-05 10:11:10.946047
3277  2023-12-05 10:11:10.977960
3278  2023-12-05 10:11:11.009890
3279  2023-12-05 10:11:11.041756
3280  2023-12-05 10:11:11.073669
3281  2023-12-05 10:11:11.105597
3282  2023-12-05 10:11:11.138504
3283  2023-12-05 10:11:11.186369
3284  2023-12-05 10:11:11.218326
3285  2023-12-05 10:11:11.250229
3286  2023-12-05 10:11:11.282148
3287  2023-12-05 10:11:11.314058
3288  2023-12-05 10:11:11.345987
3289  2023-12-05 10:11:11.377909
3290  2023-12-05 10:11:11.409819
3291  2023-12-05 10:11:11.441844
3292  2023-12-05 10:11:11.473754
3293  2023-12-05 10:11:11.505681
3294  2023-12-05 10:11:11.537664
3295  2023-12-05 10:11:11.585577
3296  2023-12-05 10:11:11.617486
3297  2023-12-05 10:11:11.650416
3298  2023-12-05 10:11:11.682308
3299  2023-12-05 10:11:11.714222
3300  2023-12-05 10:11:11.746139
3301  2023-12-05 10:11:11.778054
3302  2023-12-05 10:11:11.809967
3303  2023-12-05 10:11:11.841893
3304  2023-12-05 10:11:11.873813
3305  2023-12-05 10:11:11.905712
3306  2023-12-05 10:11:11.937594
3307  2023-12-05 10:11:11.986496
3308  2023-12-05 10:11:12.018421
3309  2023-12-05 10:11:12.050323
3310  2023-12-05 10:11:12.082238
3311  2023-12-05 10:11:12.114152
3312  2023-12-05 10:11:12.146075
3313  2023-12-05 10:11:12.177982
3314  2023-12-05 10:11:12.210011
3315  2023-12-05 10:11:12.241931
3316  2023-12-05 10:11:12.273809
3317  2023-12-05 10:11:12.306721
3318  2023-12-05 10:11:12.338637
3319  2023-12-05 10:11:12.386560
3320  2023-12-05 10:11:12.418473
3321  2023-12-05 10:11:12.450376
3322  2023-12-05 10:11:12.482280
3323  2023-12-05 10:11:12.514168
3324  2023-12-05 10:11:12.546130
3325  2023-12-05 10:11:12.578026
3326  2023-12-05 10:11:12.609974
3327  2023-12-05 10:11:12.641978
3328  2023-12-05 10:11:12.673874
3329  2023-12-05 10:11:12.705757
3330  2023-12-05 10:11:12.737672
3331  2023-12-05 10:11:12.786574
3332  2023-12-05 10:11:12.817502
3333  2023-12-05 10:11:12.850372
3334  2023-12-05 10:11:12.882287
3335  2023-12-05 10:11:12.914238
3336  2023-12-05 10:11:12.946150
3337  2023-12-05 10:11:12.978031
3338  2023-12-05 10:11:13.009994
3339  2023-12-05 10:11:13.041892
3340  2023-12-05 10:11:13.073773
3341  2023-12-05 10:11:13.105687
3342  2023-12-05 10:11:13.137732
3343  2023-12-05 10:11:13.186607
3344  2023-12-05 10:11:13.218520
3345  2023-12-05 10:11:13.250437
3346  2023-12-05 10:11:13.282344
3347  2023-12-05 10:11:13.314269
3348  2023-12-05 10:11:13.346178
3349  2023-12-05 10:11:13.378089
3350  2023-12-05 10:11:13.410002
3351  2023-12-05 10:11:13.441918
3352  2023-12-05 10:11:13.473857
3353  2023-12-05 10:11:13.505714
3354  2023-12-05 10:11:13.537628
3355  2023-12-05 10:11:13.586547
3356  2023-12-05 10:11:13.618450
3357  2023-12-05 10:11:13.650367
3358  2023-12-05 10:11:13.682289
3359  2023-12-05 10:11:13.714188
3360  2023-12-05 10:11:13.746111
3361  2023-12-05 10:11:13.778017
3362  2023-12-05 10:11:13.809948
3363  2023-12-05 10:11:13.841847
3364  2023-12-05 10:11:13.873729
3365  2023-12-05 10:11:13.905644
3366  2023-12-05 10:11:13.937597
3367  2023-12-05 10:11:13.986462
3368  2023-12-05 10:11:14.018385
3369  2023-12-05 10:11:14.050290
3370  2023-12-05 10:11:14.082373
3371  2023-12-05 10:11:14.114289
3372  2023-12-05 10:11:14.146213
3373  2023-12-05 10:11:14.178119
3374  2023-12-05 10:11:14.210033
3375  2023-12-05 10:11:14.241953
3376  2023-12-05 10:11:14.273829
3377  2023-12-05 10:11:14.305744
3378  2023-12-05 10:11:14.337774
3379  2023-12-05 10:11:14.385771
3380  2023-12-05 10:11:14.417686
3381  2023-12-05 10:11:14.449602
3382  2023-12-05 10:11:14.481511
3383  2023-12-05 10:11:14.514481
3384  2023-12-05 10:11:14.546401
3385  2023-12-05 10:11:14.578394
3386  2023-12-05 10:11:14.610307
3387  2023-12-05 10:11:14.642225
3388  2023-12-05 10:11:14.674103
3389  2023-12-05 10:11:14.706018
3390  2023-12-05 10:11:14.737937
3391  2023-12-05 10:11:14.785838
3392  2023-12-05 10:11:14.817750
3393  2023-12-05 10:11:14.849634
3394  2023-12-05 10:11:14.882549
3395  2023-12-05 10:11:14.913509
3396  2023-12-05 10:11:14.946432
3397  2023-12-05 10:11:14.978328
3398  2023-12-05 10:11:15.010253
3399  2023-12-05 10:11:15.042199
3400  2023-12-05 10:11:15.074388
3401  2023-12-05 10:11:15.106328
3402  2023-12-05 10:11:15.138282
3403  2023-12-05 10:11:15.186241
3404  2023-12-05 10:11:15.218125
3405  2023-12-05 10:11:15.250167
3406  2023-12-05 10:11:15.282089
3407  2023-12-05 10:11:15.313996
3408  2023-12-05 10:11:15.345927
3409  2023-12-05 10:11:15.377834
3410  2023-12-05 10:11:15.409750
3411  2023-12-05 10:11:15.441655
3412  2023-12-05 10:11:15.473569
3413  2023-12-05 10:11:15.505451
3414  2023-12-05 10:11:15.538363
3415  2023-12-05 10:11:15.586267
3416  2023-12-05 10:11:15.618181
3417  2023-12-05 10:11:15.650102
3418  2023-12-05 10:11:15.682012
3419  2023-12-05 10:11:15.713930
3420  2023-12-05 10:11:15.745846
3421  2023-12-05 10:11:15.777760
3422  2023-12-05 10:11:15.809671
3423  2023-12-05 10:11:15.841554
3424  2023-12-05 10:11:15.873468
3425  2023-12-05 10:11:15.906380
3426  2023-12-05 10:11:15.938295
3427  2023-12-05 10:11:15.986198
3428  2023-12-05 10:11:16.018119
3429  2023-12-05 10:11:16.050031
3430  2023-12-05 10:11:16.081953
3431  2023-12-05 10:11:16.113861
3432  2023-12-05 10:11:16.145851
3433  2023-12-05 10:11:16.177822
3434  2023-12-05 10:11:16.209728
3435  2023-12-05 10:11:16.241611
3436  2023-12-05 10:11:16.273525
3437  2023-12-05 10:11:16.306437
3438  2023-12-05 10:11:16.338352
3439  2023-12-05 10:11:16.386275
3440  2023-12-05 10:11:16.418170
3441  2023-12-05 10:11:16.450085
3442  2023-12-05 10:11:16.481999
3443  2023-12-05 10:11:16.513918
3444  2023-12-05 10:11:16.545834
3445  2023-12-05 10:11:16.577746
3446  2023-12-05 10:11:16.609677
3447  2023-12-05 10:11:16.641541
3448  2023-12-05 10:11:16.674453
3449  2023-12-05 10:11:16.706368
3450  2023-12-05 10:11:16.738282
3451  2023-12-05 10:11:16.786194
3452  2023-12-05 10:11:16.818110
3453  2023-12-05 10:11:16.850019
3454  2023-12-05 10:11:16.881913
3455  2023-12-05 10:11:16.913849
3456  2023-12-05 10:11:16.945765
3457  2023-12-05 10:11:16.977679
3458  2023-12-05 10:11:17.010554
3459  2023-12-05 10:11:17.042468
3460  2023-12-05 10:11:17.074383
3461  2023-12-05 10:11:17.106382
3462  2023-12-05 10:11:17.138252
3463  2023-12-05 10:11:17.186125
3464  2023-12-05 10:11:17.218039
3465  2023-12-05 10:11:17.249968
3466  2023-12-05 10:11:17.281883
3467  2023-12-05 10:11:17.313919
3468  2023-12-05 10:11:17.345833
3469  2023-12-05 10:11:17.377747
3470  2023-12-05 10:11:17.409668
3471  2023-12-05 10:11:17.442543
3472  2023-12-05 10:11:17.473495
3473  2023-12-05 10:11:17.506372
3474  2023-12-05 10:11:17.538287
3475  2023-12-05 10:11:17.586191
3476  2023-12-05 10:11:17.618113
3477  2023-12-05 10:11:17.650024
3478  2023-12-05 10:11:17.681950
3479  2023-12-05 10:11:17.713852
3480  2023-12-05 10:11:17.745764
3481  2023-12-05 10:11:17.777678
3482  2023-12-05 10:11:17.810592
3483  2023-12-05 10:11:17.842473
3484  2023-12-05 10:11:17.874388
3485  2023-12-05 10:11:17.906302
3486  2023-12-05 10:11:17.938217
3487  2023-12-05 10:11:17.986121
3488  2023-12-05 10:11:18.018049
3489  2023-12-05 10:11:18.049966
3490  2023-12-05 10:11:18.081891
3491  2023-12-05 10:11:18.113914
3492  2023-12-05 10:11:18.145808
3493  2023-12-05 10:11:18.177711
3494  2023-12-05 10:11:18.209630
3495  2023-12-05 10:11:18.241618
3496  2023-12-05 10:11:18.273533
3497  2023-12-05 10:11:18.306445
3498  2023-12-05 10:11:18.338359
3499  2023-12-05 10:11:18.386263
3500  2023-12-05 10:11:18.418178
3501  2023-12-05 10:11:18.450101
3502  2023-12-05 10:11:18.482007
3503  2023-12-05 10:11:18.513922
3504  2023-12-05 10:11:18.546839
3505  2023-12-05 10:11:18.577751
3506  2023-12-05 10:11:18.610672
3507  2023-12-05 10:11:18.642673
3508  2023-12-05 10:11:18.673589
3509  2023-12-05 10:11:18.705504
3510  2023-12-05 10:11:18.738416
3511  2023-12-05 10:11:18.786318
3512  2023-12-05 10:11:18.818297
3513  2023-12-05 10:11:18.850254
3514  2023-12-05 10:11:18.882274
3515  2023-12-05 10:11:18.914232
3516  2023-12-05 10:11:18.946132
3517  2023-12-05 10:11:18.978017
3518  2023-12-05 10:11:19.009966
3519  2023-12-05 10:11:19.041845
3520  2023-12-05 10:11:19.073873
3521  2023-12-05 10:11:19.105787
3522  2023-12-05 10:11:19.137735
3523  2023-12-05 10:11:19.185609
3524  2023-12-05 10:11:19.217524
3525  2023-12-05 10:11:19.250433
3526  2023-12-05 10:11:19.283360
3527  2023-12-05 10:11:19.314272
3528  2023-12-05 10:11:19.347183
3529  2023-12-05 10:11:19.380112
3530  2023-12-05 10:11:19.412005
3531  2023-12-05 10:11:19.443915
3532  2023-12-05 10:11:19.475799
3533  2023-12-05 10:11:19.507713
3534  2023-12-05 10:11:19.539643
3535  2023-12-05 10:11:19.587500
3536  2023-12-05 10:11:19.619448
3537  2023-12-05 10:11:19.651369
3538  2023-12-05 10:11:19.683278
3539  2023-12-05 10:11:19.715202
3540  2023-12-05 10:11:19.747105
3541  2023-12-05 10:11:19.779022
3542  2023-12-05 10:11:19.810933
3543  2023-12-05 10:11:19.842850
3544  2023-12-05 10:11:19.875728
3545  2023-12-05 10:11:19.906678
3546  2023-12-05 10:11:19.939605
3547  2023-12-05 10:11:19.987460
3548  2023-12-05 10:11:20.019385
3549  2023-12-05 10:11:20.051291
3550  2023-12-05 10:11:20.083204
3551  2023-12-05 10:11:20.115127
3552  2023-12-05 10:11:20.147033
3553  2023-12-05 10:11:20.178953
3554  2023-12-05 10:11:20.211830
3555  2023-12-05 10:11:20.242785
3556  2023-12-05 10:11:20.274694
3557  2023-12-05 10:11:20.306628
3558  2023-12-05 10:11:20.339521
3559  2023-12-05 10:11:20.387391
3560  2023-12-05 10:11:20.418325
3561  2023-12-05 10:11:20.451238
