
1  2023-11-13 13:42:03.374748
2  2023-11-13 13:42:03.406680
3  2023-11-13 13:42:03.438552
4  2023-11-13 13:42:03.470506
5  2023-11-13 13:42:03.502422
6  2023-11-13 13:42:03.535324
7  2023-11-13 13:42:03.567208
8  2023-11-13 13:42:03.599123
9  2023-11-13 13:42:03.631078
10  2023-11-13 13:42:03.662952
11  2023-11-13 13:42:03.710865
12  2023-11-13 13:42:03.742704
13  2023-11-13 13:42:03.774650
14  2023-11-13 13:42:03.806587
15  2023-11-13 13:42:03.839445
16  2023-11-13 13:42:03.871361
17  2023-11-13 13:42:03.903276
18  2023-11-13 13:42:03.935189
19  2023-11-13 13:42:03.967105
20  2023-11-13 13:42:03.999050
21  2023-11-13 13:42:04.031070
22  2023-11-13 13:42:04.062974
23  2023-11-13 13:42:04.110862
24  2023-11-13 13:42:04.142776
25  2023-11-13 13:42:04.174693
26  2023-11-13 13:42:04.206650
27  2023-11-13 13:42:04.238580
28  2023-11-13 13:42:04.270548
29  2023-11-13 13:42:04.302497
30  2023-11-13 13:42:04.334412
31  2023-11-13 13:42:04.366368
32  2023-11-13 13:42:04.399239
33  2023-11-13 13:42:04.431155
34  2023-11-13 13:42:04.463068
35  2023-11-13 13:42:04.510971
36  2023-11-13 13:42:04.542855
37  2023-11-13 13:42:04.574770
38  2023-11-13 13:42:04.606684
39  2023-11-13 13:42:04.638649
40  2023-11-13 13:42:04.670514
41  2023-11-13 13:42:04.702428
42  2023-11-13 13:42:04.735341
43  2023-11-13 13:42:04.767255
44  2023-11-13 13:42:04.799170
45  2023-11-13 13:42:04.831163
46  2023-11-13 13:42:04.863075
47  2023-11-13 13:42:04.910961
48  2023-11-13 13:42:04.942873
49  2023-11-13 13:42:04.974924
50  2023-11-13 13:42:05.006839
51  2023-11-13 13:42:05.038753
52  2023-11-13 13:42:05.070773
53  2023-11-13 13:42:05.102687
54  2023-11-13 13:42:05.134602
55  2023-11-13 13:42:05.166517
56  2023-11-13 13:42:05.198432
57  2023-11-13 13:42:05.231344
58  2023-11-13 13:42:05.263258
59  2023-11-13 13:42:05.311130
60  2023-11-13 13:42:05.343045
61  2023-11-13 13:42:05.374960
62  2023-11-13 13:42:05.406874
63  2023-11-13 13:42:05.438794
64  2023-11-13 13:42:05.470801
65  2023-11-13 13:42:05.502727
66  2023-11-13 13:42:05.534626
67  2023-11-13 13:42:05.566541
68  2023-11-13 13:42:05.598456
69  2023-11-13 13:42:05.631369
70  2023-11-13 13:42:05.663282
71  2023-11-13 13:42:05.711154
72  2023-11-13 13:42:05.743069
73  2023-11-13 13:42:05.774984
74  2023-11-13 13:42:05.806898
75  2023-11-13 13:42:05.838816
76  2023-11-13 13:42:05.870728
77  2023-11-13 13:42:05.902643
78  2023-11-13 13:42:05.934557
79  2023-11-13 13:42:05.967516
80  2023-11-13 13:42:05.999475
81  2023-11-13 13:42:06.030393
82  2023-11-13 13:42:06.063305
83  2023-11-13 13:42:06.110875
84  2023-11-13 13:42:06.142820
85  2023-11-13 13:42:06.174740
86  2023-11-13 13:42:06.206619
87  2023-11-13 13:42:06.238534
88  2023-11-13 13:42:06.270448
89  2023-11-13 13:42:06.302404
90  2023-11-13 13:42:06.335275
91  2023-11-13 13:42:06.367190
92  2023-11-13 13:42:06.399232
93  2023-11-13 13:42:06.431193
94  2023-11-13 13:42:06.463066
95  2023-11-13 13:42:06.511096
96  2023-11-13 13:42:06.542977
97  2023-11-13 13:42:06.574891
98  2023-11-13 13:42:06.606806
99  2023-11-13 13:42:06.638758
100  2023-11-13 13:42:06.670635
101  2023-11-13 13:42:06.702550
102  2023-11-13 13:42:06.734465
103  2023-11-13 13:42:06.766380
104  2023-11-13 13:42:06.798294
105  2023-11-13 13:42:06.831207
106  2023-11-13 13:42:06.863262
107  2023-11-13 13:42:06.911134
108  2023-11-13 13:42:06.943140
109  2023-11-13 13:42:06.975055
110  2023-11-13 13:42:07.006936
111  2023-11-13 13:42:07.038889
112  2023-11-13 13:42:07.070806
113  2023-11-13 13:42:07.102712
114  2023-11-13 13:42:07.134623
115  2023-11-13 13:42:07.166571
116  2023-11-13 13:42:07.198453
117  2023-11-13 13:42:07.231336
118  2023-11-13 13:42:07.263264
119  2023-11-13 13:42:07.311172
120  2023-11-13 13:42:07.343079
121  2023-11-13 13:42:07.375236
122  2023-11-13 13:42:07.407151
123  2023-11-13 13:42:07.438688
124  2023-11-13 13:42:07.470607
125  2023-11-13 13:42:07.503560
126  2023-11-13 13:42:07.534505
127  2023-11-13 13:42:07.566422
128  2023-11-13 13:42:07.599343
129  2023-11-13 13:42:07.631219
130  2023-11-13 13:42:07.663166
131  2023-11-13 13:42:07.711006
132  2023-11-13 13:42:07.742952
133  2023-11-13 13:42:07.774873
134  2023-11-13 13:42:07.806774
135  2023-11-13 13:42:07.838809
136  2023-11-13 13:42:07.870678
137  2023-11-13 13:42:07.902593
138  2023-11-13 13:42:07.934507
139  2023-11-13 13:42:07.966455
140  2023-11-13 13:42:07.999342
141  2023-11-13 13:42:08.030339
142  2023-11-13 13:42:08.063251
143  2023-11-13 13:42:08.111123
144  2023-11-13 13:42:08.143037
145  2023-11-13 13:42:08.174952
146  2023-11-13 13:42:08.206867
147  2023-11-13 13:42:08.238788
148  2023-11-13 13:42:08.270696
149  2023-11-13 13:42:08.302674
150  2023-11-13 13:42:08.334525
151  2023-11-13 13:42:08.366440
152  2023-11-13 13:42:08.398355
153  2023-11-13 13:42:08.431324
154  2023-11-13 13:42:08.463181
155  2023-11-13 13:42:08.511173
156  2023-11-13 13:42:08.543088
157  2023-11-13 13:42:08.575002
158  2023-11-13 13:42:08.606917
159  2023-11-13 13:42:08.638832
160  2023-11-13 13:42:08.670756
161  2023-11-13 13:42:08.702661
162  2023-11-13 13:42:08.734576
163  2023-11-13 13:42:08.767488
164  2023-11-13 13:42:08.799403
165  2023-11-13 13:42:08.831140
166  2023-11-13 13:42:08.863054
167  2023-11-13 13:42:08.910926
168  2023-11-13 13:42:08.942838
169  2023-11-13 13:42:08.974720
170  2023-11-13 13:42:09.006635
171  2023-11-13 13:42:09.038604
172  2023-11-13 13:42:09.070518
173  2023-11-13 13:42:09.103461
174  2023-11-13 13:42:09.134348
175  2023-11-13 13:42:09.167260
176  2023-11-13 13:42:09.199175
177  2023-11-13 13:42:09.231090
178  2023-11-13 13:42:09.263069
179  2023-11-13 13:42:09.310977
180  2023-11-13 13:42:09.342886
181  2023-11-13 13:42:09.374812
182  2023-11-13 13:42:09.406715
183  2023-11-13 13:42:09.438628
184  2023-11-13 13:42:09.470553
185  2023-11-13 13:42:09.503426
186  2023-11-13 13:42:09.534383
187  2023-11-13 13:42:09.567277
188  2023-11-13 13:42:09.599207
189  2023-11-13 13:42:09.631128
190  2023-11-13 13:42:09.663030
191  2023-11-13 13:42:09.710903
192  2023-11-13 13:42:09.742826
193  2023-11-13 13:42:09.774732
194  2023-11-13 13:42:09.806659
195  2023-11-13 13:42:09.838559
196  2023-11-13 13:42:09.870474
197  2023-11-13 13:42:09.902417
198  2023-11-13 13:42:09.935332
199  2023-11-13 13:42:09.967245
200  2023-11-13 13:42:09.999159
201  2023-11-13 13:42:10.031074
202  2023-11-13 13:42:10.063110
203  2023-11-13 13:42:10.110983
204  2023-11-13 13:42:10.142388
205  2023-11-13 13:42:10.174271
206  2023-11-13 13:42:10.207184
207  2023-11-13 13:42:10.239002
208  2023-11-13 13:42:10.270960
209  2023-11-13 13:42:10.302902
210  2023-11-13 13:42:10.334786
211  2023-11-13 13:42:10.366701
212  2023-11-13 13:42:10.398615
213  2023-11-13 13:42:10.430569
214  2023-11-13 13:42:10.462445
215  2023-11-13 13:42:10.510359
216  2023-11-13 13:42:10.543231
217  2023-11-13 13:42:10.575144
218  2023-11-13 13:42:10.607058
219  2023-11-13 13:42:10.638973
220  2023-11-13 13:42:10.670887
221  2023-11-13 13:42:10.702802
222  2023-11-13 13:42:10.734723
223  2023-11-13 13:42:10.766632
224  2023-11-13 13:42:10.798546
225  2023-11-13 13:42:10.831459
226  2023-11-13 13:42:10.862376
227  2023-11-13 13:42:10.911245
228  2023-11-13 13:42:10.943160
229  2023-11-13 13:42:10.975074
230  2023-11-13 13:42:11.006990
231  2023-11-13 13:42:11.038904
232  2023-11-13 13:42:11.070818
233  2023-11-13 13:42:11.102733
234  2023-11-13 13:42:11.134648
235  2023-11-13 13:42:11.166562
236  2023-11-13 13:42:11.198477
237  2023-11-13 13:42:11.231478
238  2023-11-13 13:42:11.262426
239  2023-11-13 13:42:11.311266
240  2023-11-13 13:42:11.343213
241  2023-11-13 13:42:11.375131
242  2023-11-13 13:42:11.407045
243  2023-11-13 13:42:11.438962
244  2023-11-13 13:42:11.470868
245  2023-11-13 13:42:11.502754
246  2023-11-13 13:42:11.534698
247  2023-11-13 13:42:11.566583
248  2023-11-13 13:42:11.598496
249  2023-11-13 13:42:11.630411
250  2023-11-13 13:42:11.662363
251  2023-11-13 13:42:11.711229
252  2023-11-13 13:42:11.743158
253  2023-11-13 13:42:11.775073
254  2023-11-13 13:42:11.806998
255  2023-11-13 13:42:11.838902
256  2023-11-13 13:42:11.870971
257  2023-11-13 13:42:11.902886
258  2023-11-13 13:42:11.934808
259  2023-11-13 13:42:11.966724
260  2023-11-13 13:42:11.998630
261  2023-11-13 13:42:12.030544
262  2023-11-13 13:42:12.063456
263  2023-11-13 13:42:12.110814
264  2023-11-13 13:42:12.142729
265  2023-11-13 13:42:12.175650
266  2023-11-13 13:42:12.206558
267  2023-11-13 13:42:12.238578
268  2023-11-13 13:42:12.271504
269  2023-11-13 13:42:12.303454
270  2023-11-13 13:42:12.335368
271  2023-11-13 13:42:12.367248
272  2023-11-13 13:42:12.399163
273  2023-11-13 13:42:12.431078
274  2023-11-13 13:42:12.462992
275  2023-11-13 13:42:12.510865
276  2023-11-13 13:42:12.542794
277  2023-11-13 13:42:12.574497
278  2023-11-13 13:42:12.606424
279  2023-11-13 13:42:12.639300
280  2023-11-13 13:42:12.671234
281  2023-11-13 13:42:12.703179
282  2023-11-13 13:42:12.735078
283  2023-11-13 13:42:12.766983
284  2023-11-13 13:42:12.798867
285  2023-11-13 13:42:12.830809
286  2023-11-13 13:42:12.862729
287  2023-11-13 13:42:12.910599
288  2023-11-13 13:42:12.942613
289  2023-11-13 13:42:12.974589
290  2023-11-13 13:42:13.006503
291  2023-11-13 13:42:13.038378
292  2023-11-13 13:42:13.071290
293  2023-11-13 13:42:13.103256
294  2023-11-13 13:42:13.135157
295  2023-11-13 13:42:13.167034
296  2023-11-13 13:42:13.198949
297  2023-11-13 13:42:13.230896
298  2023-11-13 13:42:13.262778
299  2023-11-13 13:42:13.310682
300  2023-11-13 13:42:13.342565
301  2023-11-13 13:42:13.374479
302  2023-11-13 13:42:13.406395
303  2023-11-13 13:42:13.438309
304  2023-11-13 13:42:13.471221
305  2023-11-13 13:42:13.503135
306  2023-11-13 13:42:13.535050
307  2023-11-13 13:42:13.566965
308  2023-11-13 13:42:13.598879
309  2023-11-13 13:42:13.630794
310  2023-11-13 13:42:13.662709
311  2023-11-13 13:42:13.710688
312  2023-11-13 13:42:13.742603
313  2023-11-13 13:42:13.774518
314  2023-11-13 13:42:13.806433
315  2023-11-13 13:42:13.838347
316  2023-11-13 13:42:13.871263
317  2023-11-13 13:42:13.903178
318  2023-11-13 13:42:13.935093
319  2023-11-13 13:42:13.967007
320  2023-11-13 13:42:13.998922
321  2023-11-13 13:42:14.030837
322  2023-11-13 13:42:14.062752
323  2023-11-13 13:42:14.110624
324  2023-11-13 13:42:14.142554
325  2023-11-13 13:42:14.174485
326  2023-11-13 13:42:14.206368
327  2023-11-13 13:42:14.239280
328  2023-11-13 13:42:14.271194
329  2023-11-13 13:42:14.303142
330  2023-11-13 13:42:14.335024
331  2023-11-13 13:42:14.366938
332  2023-11-13 13:42:14.398963
333  2023-11-13 13:42:14.430878
334  2023-11-13 13:42:14.462830
335  2023-11-13 13:42:14.510685
336  2023-11-13 13:42:14.542646
337  2023-11-13 13:42:14.575083
338  2023-11-13 13:42:14.606998
339  2023-11-13 13:42:14.638912
340  2023-11-13 13:42:14.670827
341  2023-11-13 13:42:14.702742
342  2023-11-13 13:42:14.734790
343  2023-11-13 13:42:14.766753
344  2023-11-13 13:42:14.798664
345  2023-11-13 13:42:14.830538
346  2023-11-13 13:42:14.862453
347  2023-11-13 13:42:14.911322
348  2023-11-13 13:42:14.943237
349  2023-11-13 13:42:14.975152
350  2023-11-13 13:42:15.007119
351  2023-11-13 13:42:15.039025
352  2023-11-13 13:42:15.070940
353  2023-11-13 13:42:15.102854
354  2023-11-13 13:42:15.134769
355  2023-11-13 13:42:15.167683
356  2023-11-13 13:42:15.198598
357  2023-11-13 13:42:15.231511
358  2023-11-13 13:42:15.262427
359  2023-11-13 13:42:15.311297
360  2023-11-13 13:42:15.343211
361  2023-11-13 13:42:15.375219
362  2023-11-13 13:42:15.407041
363  2023-11-13 13:42:15.438956
364  2023-11-13 13:42:15.470871
365  2023-11-13 13:42:15.503784
366  2023-11-13 13:42:15.534699
367  2023-11-13 13:42:15.566614
368  2023-11-13 13:42:15.598529
369  2023-11-13 13:42:15.630444
370  2023-11-13 13:42:15.663356
371  2023-11-13 13:42:15.711229
372  2023-11-13 13:42:15.743244
373  2023-11-13 13:42:15.775195
374  2023-11-13 13:42:15.807081
375  2023-11-13 13:42:15.839027
376  2023-11-13 13:42:15.870910
377  2023-11-13 13:42:15.903821
378  2023-11-13 13:42:15.934771
379  2023-11-13 13:42:15.966679
380  2023-11-13 13:42:15.999564
381  2023-11-13 13:42:16.031479
382  2023-11-13 13:42:16.062396
383  2023-11-13 13:42:16.111296
384  2023-11-13 13:42:16.143260
385  2023-11-13 13:42:16.175175
386  2023-11-13 13:42:16.207240
387  2023-11-13 13:42:16.239136
388  2023-11-13 13:42:16.271090
389  2023-11-13 13:42:16.303042
390  2023-11-13 13:42:16.334996
391  2023-11-13 13:42:16.366944
392  2023-11-13 13:42:16.398825
393  2023-11-13 13:42:16.430741
394  2023-11-13 13:42:16.462694
395  2023-11-13 13:42:16.510526
396  2023-11-13 13:42:16.542441
397  2023-11-13 13:42:16.574400
398  2023-11-13 13:42:16.607268
399  2023-11-13 13:42:16.639182
400  2023-11-13 13:42:16.671097
401  2023-11-13 13:42:16.703055
402  2023-11-13 13:42:16.734926
403  2023-11-13 13:42:16.767007
404  2023-11-13 13:42:16.798971
405  2023-11-13 13:42:16.830931
406  2023-11-13 13:42:16.862799
407  2023-11-13 13:42:16.910672
408  2023-11-13 13:42:16.942586
409  2023-11-13 13:42:16.974538
410  2023-11-13 13:42:17.006467
411  2023-11-13 13:42:17.039361
412  2023-11-13 13:42:17.071327
413  2023-11-13 13:42:17.103358
414  2023-11-13 13:42:17.135267
415  2023-11-13 13:42:17.167191
416  2023-11-13 13:42:17.199097
417  2023-11-13 13:42:17.231139
418  2023-11-13 13:42:17.263024
419  2023-11-13 13:42:17.310947
420  2023-11-13 13:42:17.342852
421  2023-11-13 13:42:17.374754
422  2023-11-13 13:42:17.406639
423  2023-11-13 13:42:17.438601
424  2023-11-13 13:42:17.470513
425  2023-11-13 13:42:17.502384
426  2023-11-13 13:42:17.535331
427  2023-11-13 13:42:17.567244
428  2023-11-13 13:42:17.598347
429  2023-11-13 13:42:17.631237
430  2023-11-13 13:42:17.663152
431  2023-11-13 13:42:17.711082
432  2023-11-13 13:42:17.742991
433  2023-11-13 13:42:17.774907
434  2023-11-13 13:42:17.806822
435  2023-11-13 13:42:17.838739
436  2023-11-13 13:42:17.870677
437  2023-11-13 13:42:17.902561
438  2023-11-13 13:42:17.934479
439  2023-11-13 13:42:17.966364
440  2023-11-13 13:42:17.998315
441  2023-11-13 13:42:18.031226
442  2023-11-13 13:42:18.063137
443  2023-11-13 13:42:18.111010
444  2023-11-13 13:42:18.142922
445  2023-11-13 13:42:18.174816
446  2023-11-13 13:42:18.206721
447  2023-11-13 13:42:18.238667
448  2023-11-13 13:42:18.270581
449  2023-11-13 13:42:18.302511
450  2023-11-13 13:42:18.335416
451  2023-11-13 13:42:18.366453
452  2023-11-13 13:42:18.398327
453  2023-11-13 13:42:18.431296
454  2023-11-13 13:42:18.463189
455  2023-11-13 13:42:18.511058
456  2023-11-13 13:42:18.542977
457  2023-11-13 13:42:18.574892
458  2023-11-13 13:42:18.606810
459  2023-11-13 13:42:18.638734
460  2023-11-13 13:42:18.670601
461  2023-11-13 13:42:18.702561
462  2023-11-13 13:42:18.734470
463  2023-11-13 13:42:18.767335
464  2023-11-13 13:42:18.799222
465  2023-11-13 13:42:18.831171
466  2023-11-13 13:42:18.863085
467  2023-11-13 13:42:18.910955
468  2023-11-13 13:42:18.942872
469  2023-11-13 13:42:18.974803
470  2023-11-13 13:42:19.006698
471  2023-11-13 13:42:19.038582
472  2023-11-13 13:42:19.070531
473  2023-11-13 13:42:19.103438
474  2023-11-13 13:42:19.134366
475  2023-11-13 13:42:19.167238
476  2023-11-13 13:42:19.199190
477  2023-11-13 13:42:19.231104
478  2023-11-13 13:42:19.263014
479  2023-11-13 13:42:19.310885
480  2023-11-13 13:42:19.342807
481  2023-11-13 13:42:19.374730
482  2023-11-13 13:42:19.406598
483  2023-11-13 13:42:19.438545
484  2023-11-13 13:42:19.471456
485  2023-11-13 13:42:19.503373
486  2023-11-13 13:42:19.534300
487  2023-11-13 13:42:19.567203
488  2023-11-13 13:42:19.599112
489  2023-11-13 13:42:19.631031
490  2023-11-13 13:42:19.662946
491  2023-11-13 13:42:19.710814
492  2023-11-13 13:42:19.742732
493  2023-11-13 13:42:19.774673
494  2023-11-13 13:42:19.806529
495  2023-11-13 13:42:19.839442
496  2023-11-13 13:42:19.871394
497  2023-11-13 13:42:19.903307
498  2023-11-13 13:42:19.935216
499  2023-11-13 13:42:19.967132
500  2023-11-13 13:42:19.999048
501  2023-11-13 13:42:20.030961
502  2023-11-13 13:42:20.062884
503  2023-11-13 13:42:20.110753
504  2023-11-13 13:42:20.142743
505  2023-11-13 13:42:20.175652
506  2023-11-13 13:42:20.206697
507  2023-11-13 13:42:20.238576
508  2023-11-13 13:42:20.270537
509  2023-11-13 13:42:20.303404
510  2023-11-13 13:42:20.334361
511  2023-11-13 13:42:20.367269
512  2023-11-13 13:42:20.399228
513  2023-11-13 13:42:20.431188
514  2023-11-13 13:42:20.463209
515  2023-11-13 13:42:20.511201
516  2023-11-13 13:42:20.543111
517  2023-11-13 13:42:20.575026
518  2023-11-13 13:42:20.606940
519  2023-11-13 13:42:20.638856
520  2023-11-13 13:42:20.670736
521  2023-11-13 13:42:20.702690
522  2023-11-13 13:42:20.734605
523  2023-11-13 13:42:20.766521
524  2023-11-13 13:42:20.798394
525  2023-11-13 13:42:20.830309
526  2023-11-13 13:42:20.863259
527  2023-11-13 13:42:20.911125
528  2023-11-13 13:42:20.943043
529  2023-11-13 13:42:20.974930
530  2023-11-13 13:42:21.006910
531  2023-11-13 13:42:21.038826
532  2023-11-13 13:42:21.070709
533  2023-11-13 13:42:21.102666
534  2023-11-13 13:42:21.134569
535  2023-11-13 13:42:21.166630
536  2023-11-13 13:42:21.198509
537  2023-11-13 13:42:21.230465
538  2023-11-13 13:42:21.262379
539  2023-11-13 13:42:21.311241
540  2023-11-13 13:42:21.343147
541  2023-11-13 13:42:21.375068
542  2023-11-13 13:42:21.406986
543  2023-11-13 13:42:21.438893
544  2023-11-13 13:42:21.470815
545  2023-11-13 13:42:21.502726
546  2023-11-13 13:42:21.534667
547  2023-11-13 13:42:21.566557
548  2023-11-13 13:42:21.598470
549  2023-11-13 13:42:21.630354
550  2023-11-13 13:42:21.663306
551  2023-11-13 13:42:21.711163
552  2023-11-13 13:42:21.743086
553  2023-11-13 13:42:21.774857
554  2023-11-13 13:42:21.806871
555  2023-11-13 13:42:21.838787
556  2023-11-13 13:42:21.870669
557  2023-11-13 13:42:21.902630
558  2023-11-13 13:42:21.934537
559  2023-11-13 13:42:21.967411
560  2023-11-13 13:42:21.999325
561  2023-11-13 13:42:22.031269
562  2023-11-13 13:42:22.063186
563  2023-11-13 13:42:22.111060
564  2023-11-13 13:42:22.142980
565  2023-11-13 13:42:22.174888
566  2023-11-13 13:42:22.206816
567  2023-11-13 13:42:22.238685
568  2023-11-13 13:42:22.270600
569  2023-11-13 13:42:22.302559
570  2023-11-13 13:42:22.334471
571  2023-11-13 13:42:22.366433
572  2023-11-13 13:42:22.398369
573  2023-11-13 13:42:22.431315
574  2023-11-13 13:42:22.463234
575  2023-11-13 13:42:22.511216
576  2023-11-13 13:42:22.543236
577  2023-11-13 13:42:22.575132
578  2023-11-13 13:42:22.607047
579  2023-11-13 13:42:22.639032
580  2023-11-13 13:42:22.670951
581  2023-11-13 13:42:22.702867
582  2023-11-13 13:42:22.734786
583  2023-11-13 13:42:22.766698
584  2023-11-13 13:42:22.798577
585  2023-11-13 13:42:22.830531
586  2023-11-13 13:42:22.863438
587  2023-11-13 13:42:22.910482
588  2023-11-13 13:42:22.942388
589  2023-11-13 13:42:22.974316
590  2023-11-13 13:42:23.007225
591  2023-11-13 13:42:23.039131
592  2023-11-13 13:42:23.071013
593  2023-11-13 13:42:23.102942
594  2023-11-13 13:42:23.134849
595  2023-11-13 13:42:23.166764
596  2023-11-13 13:42:23.198749
597  2023-11-13 13:42:23.230674
598  2023-11-13 13:42:23.263542
599  2023-11-13 13:42:23.310450
600  2023-11-13 13:42:23.342371
601  2023-11-13 13:42:23.374287
602  2023-11-13 13:42:23.406288
603  2023-11-13 13:42:23.439192
604  2023-11-13 13:42:23.471112
605  2023-11-13 13:42:23.502987
606  2023-11-13 13:42:23.534934
607  2023-11-13 13:42:23.566961
608  2023-11-13 13:42:23.598878
609  2023-11-13 13:42:23.630794
610  2023-11-13 13:42:23.662673
611  2023-11-13 13:42:23.710592
612  2023-11-13 13:42:23.742460
613  2023-11-13 13:42:23.774417
614  2023-11-13 13:42:23.807329
615  2023-11-13 13:42:23.839209
616  2023-11-13 13:42:23.871156
617  2023-11-13 13:42:23.903121
618  2023-11-13 13:42:23.935067
619  2023-11-13 13:42:23.967097
620  2023-11-13 13:42:23.999091
621  2023-11-13 13:42:24.031001
622  2023-11-13 13:42:24.062912
623  2023-11-13 13:42:24.110788
624  2023-11-13 13:42:24.142702
625  2023-11-13 13:42:24.174702
626  2023-11-13 13:42:24.206644
627  2023-11-13 13:42:24.238536
628  2023-11-13 13:42:24.270456
629  2023-11-13 13:42:24.303323
630  2023-11-13 13:42:24.335282
631  2023-11-13 13:42:24.367189
632  2023-11-13 13:42:24.399101
633  2023-11-13 13:42:24.430982
634  2023-11-13 13:42:24.462909
635  2023-11-13 13:42:24.510684
636  2023-11-13 13:42:24.542598
637  2023-11-13 13:42:24.574554
638  2023-11-13 13:42:24.606467
639  2023-11-13 13:42:24.638639
640  2023-11-13 13:42:24.670624
641  2023-11-13 13:42:24.702541
642  2023-11-13 13:42:24.735454
643  2023-11-13 13:42:24.766402
644  2023-11-13 13:42:24.799283
645  2023-11-13 13:42:24.831198
646  2023-11-13 13:42:24.863112
647  2023-11-13 13:42:24.911105
648  2023-11-13 13:42:24.943019
649  2023-11-13 13:42:24.975021
650  2023-11-13 13:42:25.006997
651  2023-11-13 13:42:25.038909
652  2023-11-13 13:42:25.070790
653  2023-11-13 13:42:25.102787
654  2023-11-13 13:42:25.134672
655  2023-11-13 13:42:25.166656
656  2023-11-13 13:42:25.198575
657  2023-11-13 13:42:25.231447
658  2023-11-13 13:42:25.262405
659  2023-11-13 13:42:25.311235
660  2023-11-13 13:42:25.342331
661  2023-11-13 13:42:25.375206
662  2023-11-13 13:42:25.407121
663  2023-11-13 13:42:25.439036
664  2023-11-13 13:42:25.470950
665  2023-11-13 13:42:25.502865
666  2023-11-13 13:42:25.534878
667  2023-11-13 13:42:25.566793
668  2023-11-13 13:42:25.598708
669  2023-11-13 13:42:25.630622
670  2023-11-13 13:42:25.662537
671  2023-11-13 13:42:25.710409
672  2023-11-13 13:42:25.743321
673  2023-11-13 13:42:25.775370
674  2023-11-13 13:42:25.807284
675  2023-11-13 13:42:25.839199
676  2023-11-13 13:42:25.871114
677  2023-11-13 13:42:25.903028
678  2023-11-13 13:42:25.934943
679  2023-11-13 13:42:25.966858
680  2023-11-13 13:42:25.998774
681  2023-11-13 13:42:26.030687
682  2023-11-13 13:42:26.062602
683  2023-11-13 13:42:26.110474
684  2023-11-13 13:42:26.142388
685  2023-11-13 13:42:26.175301
686  2023-11-13 13:42:26.207244
687  2023-11-13 13:42:26.239217
688  2023-11-13 13:42:26.271190
689  2023-11-13 13:42:26.303144
690  2023-11-13 13:42:26.335102
691  2023-11-13 13:42:26.367039
692  2023-11-13 13:42:26.398954
693  2023-11-13 13:42:26.430968
694  2023-11-13 13:42:26.463197
695  2023-11-13 13:42:26.511074
696  2023-11-13 13:42:26.542948
697  2023-11-13 13:42:26.574862
698  2023-11-13 13:42:26.606783
699  2023-11-13 13:42:26.638726
700  2023-11-13 13:42:26.670607
701  2023-11-13 13:42:26.702553
702  2023-11-13 13:42:26.734589
703  2023-11-13 13:42:26.766583
704  2023-11-13 13:42:26.798564
705  2023-11-13 13:42:26.830430
706  2023-11-13 13:42:26.863354
707  2023-11-13 13:42:26.911227
708  2023-11-13 13:42:26.943129
709  2023-11-13 13:42:26.975113
710  2023-11-13 13:42:27.007058
711  2023-11-13 13:42:27.038973
712  2023-11-13 13:42:27.071006
713  2023-11-13 13:42:27.102921
714  2023-11-13 13:42:27.134835
715  2023-11-13 13:42:27.166750
716  2023-11-13 13:42:27.198665
717  2023-11-13 13:42:27.230580
718  2023-11-13 13:42:27.262494
719  2023-11-13 13:42:27.310366
720  2023-11-13 13:42:27.343278
721  2023-11-13 13:42:27.375193
722  2023-11-13 13:42:27.407108
723  2023-11-13 13:42:27.439022
724  2023-11-13 13:42:27.471034
725  2023-11-13 13:42:27.502949
726  2023-11-13 13:42:27.534864
727  2023-11-13 13:42:27.566778
728  2023-11-13 13:42:27.598693
729  2023-11-13 13:42:27.630607
730  2023-11-13 13:42:27.662522
731  2023-11-13 13:42:27.710394
732  2023-11-13 13:42:27.743306
733  2023-11-13 13:42:27.775221
734  2023-11-13 13:42:27.807136
735  2023-11-13 13:42:27.839050
736  2023-11-13 13:42:27.870965
737  2023-11-13 13:42:27.902880
738  2023-11-13 13:42:27.934794
739  2023-11-13 13:42:27.966839
740  2023-11-13 13:42:27.998753
741  2023-11-13 13:42:28.030840
742  2023-11-13 13:42:28.062880
743  2023-11-13 13:42:28.110752
744  2023-11-13 13:42:28.142667
745  2023-11-13 13:42:28.174581
746  2023-11-13 13:42:28.206496
747  2023-11-13 13:42:28.238411
748  2023-11-13 13:42:28.270442
749  2023-11-13 13:42:28.303387
750  2023-11-13 13:42:28.335269
751  2023-11-13 13:42:28.367184
752  2023-11-13 13:42:28.399200
753  2023-11-13 13:42:28.431151
754  2023-11-13 13:42:28.463064
755  2023-11-13 13:42:28.510932
756  2023-11-13 13:42:28.542816
757  2023-11-13 13:42:28.574731
758  2023-11-13 13:42:28.606719
759  2023-11-13 13:42:28.638671
760  2023-11-13 13:42:28.670590
761  2023-11-13 13:42:28.702463
762  2023-11-13 13:42:28.734378
763  2023-11-13 13:42:28.766372
764  2023-11-13 13:42:28.798370
765  2023-11-13 13:42:28.831246
766  2023-11-13 13:42:28.863280
767  2023-11-13 13:42:28.911152
768  2023-11-13 13:42:28.943067
769  2023-11-13 13:42:28.975014
770  2023-11-13 13:42:29.006928
771  2023-11-13 13:42:29.038811
772  2023-11-13 13:42:29.070726
773  2023-11-13 13:42:29.102673
774  2023-11-13 13:42:29.134600
775  2023-11-13 13:42:29.166470
776  2023-11-13 13:42:29.198385
777  2023-11-13 13:42:29.231297
778  2023-11-13 13:42:29.263211
779  2023-11-13 13:42:29.311083
780  2023-11-13 13:42:29.343088
781  2023-11-13 13:42:29.375003
782  2023-11-13 13:42:29.406917
783  2023-11-13 13:42:29.438832
784  2023-11-13 13:42:29.470747
785  2023-11-13 13:42:29.503660
786  2023-11-13 13:42:29.534576
787  2023-11-13 13:42:29.566491
788  2023-11-13 13:42:29.599406
789  2023-11-13 13:42:29.630359
790  2023-11-13 13:42:29.663324
791  2023-11-13 13:42:29.711196
792  2023-11-13 13:42:29.743110
793  2023-11-13 13:42:29.775025
794  2023-11-13 13:42:29.806972
795  2023-11-13 13:42:29.838856
796  2023-11-13 13:42:29.870843
797  2023-11-13 13:42:29.902881
798  2023-11-13 13:42:29.934808
799  2023-11-13 13:42:29.966710
800  2023-11-13 13:42:29.998625
801  2023-11-13 13:42:30.030539
802  2023-11-13 13:42:30.062454
803  2023-11-13 13:42:30.110326
804  2023-11-13 13:42:30.143249
805  2023-11-13 13:42:30.175153
806  2023-11-13 13:42:30.207067
807  2023-11-13 13:42:30.238982
808  2023-11-13 13:42:30.270897
809  2023-11-13 13:42:30.302815
810  2023-11-13 13:42:30.334732
811  2023-11-13 13:42:30.366641
812  2023-11-13 13:42:30.398555
813  2023-11-13 13:42:30.430470
814  2023-11-13 13:42:30.462385
815  2023-11-13 13:42:30.511254
816  2023-11-13 13:42:30.543254
817  2023-11-13 13:42:30.575168
818  2023-11-13 13:42:30.607083
819  2023-11-13 13:42:30.638998
820  2023-11-13 13:42:30.670912
821  2023-11-13 13:42:30.702827
822  2023-11-13 13:42:30.734890
823  2023-11-13 13:42:30.766805
824  2023-11-13 13:42:30.798759
825  2023-11-13 13:42:30.830634
826  2023-11-13 13:42:30.862549
827  2023-11-13 13:42:30.910421
828  2023-11-13 13:42:30.942335
829  2023-11-13 13:42:30.974278
830  2023-11-13 13:42:31.006338
831  2023-11-13 13:42:31.039211
832  2023-11-13 13:42:31.071121
833  2023-11-13 13:42:31.103066
834  2023-11-13 13:42:31.134975
835  2023-11-13 13:42:31.166865
836  2023-11-13 13:42:31.198780
837  2023-11-13 13:42:31.230694
838  2023-11-13 13:42:31.262665
839  2023-11-13 13:42:31.310525
840  2023-11-13 13:42:31.342439
841  2023-11-13 13:42:31.375308
842  2023-11-13 13:42:31.407222
843  2023-11-13 13:42:31.439137
844  2023-11-13 13:42:31.471052
845  2023-11-13 13:42:31.502966
846  2023-11-13 13:42:31.534881
847  2023-11-13 13:42:31.566796
848  2023-11-13 13:42:31.598711
849  2023-11-13 13:42:31.630625
850  2023-11-13 13:42:31.662540
851  2023-11-13 13:42:31.710412
852  2023-11-13 13:42:31.743484
853  2023-11-13 13:42:31.774401
854  2023-11-13 13:42:31.807313
855  2023-11-13 13:42:31.839228
856  2023-11-13 13:42:31.871143
857  2023-11-13 13:42:31.903057
858  2023-11-13 13:42:31.934972
859  2023-11-13 13:42:31.966886
860  2023-11-13 13:42:31.998801
861  2023-11-13 13:42:32.030813
862  2023-11-13 13:42:32.062723
863  2023-11-13 13:42:32.110581
864  2023-11-13 13:42:32.142496
865  2023-11-13 13:42:32.174412
866  2023-11-13 13:42:32.207293
867  2023-11-13 13:42:32.239256
868  2023-11-13 13:42:32.271154
869  2023-11-13 13:42:32.303067
870  2023-11-13 13:42:32.334982
871  2023-11-13 13:42:32.366889
872  2023-11-13 13:42:32.398804
873  2023-11-13 13:42:32.431717
874  2023-11-13 13:42:32.462635
875  2023-11-13 13:42:32.510555
876  2023-11-13 13:42:32.542562
877  2023-11-13 13:42:32.574472
878  2023-11-13 13:42:32.606386
879  2023-11-13 13:42:32.638391
880  2023-11-13 13:42:32.671303
881  2023-11-13 13:42:32.703182
882  2023-11-13 13:42:32.735097
883  2023-11-13 13:42:32.767044
884  2023-11-13 13:42:32.798959
885  2023-11-13 13:42:32.830841
886  2023-11-13 13:42:32.862761
887  2023-11-13 13:42:32.910627
888  2023-11-13 13:42:32.942710
889  2023-11-13 13:42:32.974682
890  2023-11-13 13:42:33.006553
891  2023-11-13 13:42:33.039451
892  2023-11-13 13:42:33.071366
893  2023-11-13 13:42:33.103280
894  2023-11-13 13:42:33.135195
895  2023-11-13 13:42:33.167110
896  2023-11-13 13:42:33.199024
897  2023-11-13 13:42:33.230939
898  2023-11-13 13:42:33.262854
899  2023-11-13 13:42:33.310699
900  2023-11-13 13:42:33.342614
901  2023-11-13 13:42:33.374528
902  2023-11-13 13:42:33.406532
903  2023-11-13 13:42:33.439444
904  2023-11-13 13:42:33.470361
905  2023-11-13 13:42:33.503273
906  2023-11-13 13:42:33.535188
907  2023-11-13 13:42:33.567103
908  2023-11-13 13:42:33.599018
909  2023-11-13 13:42:33.630932
910  2023-11-13 13:42:33.662847
911  2023-11-13 13:42:33.710828
912  2023-11-13 13:42:33.742633
913  2023-11-13 13:42:33.774548
914  2023-11-13 13:42:33.806463
915  2023-11-13 13:42:33.839410
916  2023-11-13 13:42:33.871289
917  2023-11-13 13:42:33.903204
918  2023-11-13 13:42:33.935119
919  2023-11-13 13:42:33.967070
920  2023-11-13 13:42:33.998948
921  2023-11-13 13:42:34.030863
922  2023-11-13 13:42:34.062777
923  2023-11-13 13:42:34.110654
924  2023-11-13 13:42:34.142609
925  2023-11-13 13:42:34.174517
926  2023-11-13 13:42:34.206393
927  2023-11-13 13:42:34.239305
928  2023-11-13 13:42:34.271220
929  2023-11-13 13:42:34.303135
930  2023-11-13 13:42:34.335050
931  2023-11-13 13:42:34.366964
932  2023-11-13 13:42:34.399012
933  2023-11-13 13:42:34.430897
934  2023-11-13 13:42:34.462883
935  2023-11-13 13:42:34.510916
936  2023-11-13 13:42:34.542806
937  2023-11-13 13:42:34.574725
938  2023-11-13 13:42:34.606625
939  2023-11-13 13:42:34.638540
940  2023-11-13 13:42:34.670454
941  2023-11-13 13:42:34.702369
942  2023-11-13 13:42:34.735281
943  2023-11-13 13:42:34.767244
944  2023-11-13 13:42:34.799143
945  2023-11-13 13:42:34.831025
946  2023-11-13 13:42:34.862940
947  2023-11-13 13:42:34.910812
948  2023-11-13 13:42:34.942729
949  2023-11-13 13:42:34.974671
950  2023-11-13 13:42:35.006570
951  2023-11-13 13:42:35.038651
952  2023-11-13 13:42:35.071192
953  2023-11-13 13:42:35.103107
954  2023-11-13 13:42:35.135021
955  2023-11-13 13:42:35.166936
956  2023-11-13 13:42:35.198851
957  2023-11-13 13:42:35.230765
958  2023-11-13 13:42:35.262680
959  2023-11-13 13:42:35.310552
960  2023-11-13 13:42:35.342468
961  2023-11-13 13:42:35.375389
962  2023-11-13 13:42:35.407437
963  2023-11-13 13:42:35.439350
964  2023-11-13 13:42:35.471196
965  2023-11-13 13:42:35.503111
966  2023-11-13 13:42:35.535025
967  2023-11-13 13:42:35.566940
968  2023-11-13 13:42:35.599026
969  2023-11-13 13:42:35.631940
970  2023-11-13 13:42:35.662855
971  2023-11-13 13:42:35.711748
972  2023-11-13 13:42:35.743791
973  2023-11-13 13:42:35.775749
974  2023-11-13 13:42:35.807619
975  2023-11-13 13:42:35.839534
976  2023-11-13 13:42:35.871487
977  2023-11-13 13:42:35.903363
978  2023-11-13 13:42:35.935354
979  2023-11-13 13:42:35.967369
980  2023-11-13 13:42:35.999418
981  2023-11-13 13:42:36.031283
982  2023-11-13 13:42:36.063198
983  2023-11-13 13:42:36.111070
984  2023-11-13 13:42:36.142983
985  2023-11-13 13:42:36.174944
986  2023-11-13 13:42:36.206813
987  2023-11-13 13:42:36.238728
988  2023-11-13 13:42:36.270678
989  2023-11-13 13:42:36.302588
990  2023-11-13 13:42:36.334471
991  2023-11-13 13:42:36.366386
992  2023-11-13 13:42:36.399307
993  2023-11-13 13:42:36.431241
994  2023-11-13 13:42:36.463159
995  2023-11-13 13:42:36.511031
996  2023-11-13 13:42:36.542941
997  2023-11-13 13:42:36.574862
998  2023-11-13 13:42:36.606962
999  2023-11-13 13:42:36.638865
1000  2023-11-13 13:42:36.670775
1001  2023-11-13 13:42:36.703702
1002  2023-11-13 13:42:36.734579
1003  2023-11-13 13:42:36.766529
1004  2023-11-13 13:42:36.799406
1005  2023-11-13 13:42:36.831323
1006  2023-11-13 13:42:36.863235
1007  2023-11-13 13:42:36.911107
1008  2023-11-13 13:42:36.943021
1009  2023-11-13 13:42:36.974942
1010  2023-11-13 13:42:37.006850
1011  2023-11-13 13:42:37.038778
1012  2023-11-13 13:42:37.070725
1013  2023-11-13 13:42:37.103633
1014  2023-11-13 13:42:37.134542
1015  2023-11-13 13:42:37.166424
1016  2023-11-13 13:42:37.199371
1017  2023-11-13 13:42:37.231293
1018  2023-11-13 13:42:37.263200
1019  2023-11-13 13:42:37.311070
1020  2023-11-13 13:42:37.342994
1021  2023-11-13 13:42:37.374904
1022  2023-11-13 13:42:37.406819
1023  2023-11-13 13:42:37.438696
1024  2023-11-13 13:42:37.471639
1025  2023-11-13 13:42:37.503569
1026  2023-11-13 13:42:37.534485
1027  2023-11-13 13:42:37.567352
1028  2023-11-13 13:42:37.599272
1029  2023-11-13 13:42:37.631212
1030  2023-11-13 13:42:37.663143
1031  2023-11-13 13:42:37.711001
1032  2023-11-13 13:42:37.742886
1033  2023-11-13 13:42:37.774797
1034  2023-11-13 13:42:37.806747
1035  2023-11-13 13:42:37.838669
1036  2023-11-13 13:42:37.870573
1037  2023-11-13 13:42:37.902457
1038  2023-11-13 13:42:37.935416
1039  2023-11-13 13:42:37.966315
1040  2023-11-13 13:42:37.999245
1041  2023-11-13 13:42:38.031143
1042  2023-11-13 13:42:38.063061
1043  2023-11-13 13:42:38.110933
1044  2023-11-13 13:42:38.142850
1045  2023-11-13 13:42:38.174728
1046  2023-11-13 13:42:38.206675
1047  2023-11-13 13:42:38.238587
1048  2023-11-13 13:42:38.270503
1049  2023-11-13 13:42:38.302423
1050  2023-11-13 13:42:38.335299
1051  2023-11-13 13:42:38.367213
1052  2023-11-13 13:42:38.399164
1053  2023-11-13 13:42:38.431079
1054  2023-11-13 13:42:38.462989
1055  2023-11-13 13:42:38.510863
1056  2023-11-13 13:42:38.542782
1057  2023-11-13 13:42:38.574688
1058  2023-11-13 13:42:38.606617
1059  2023-11-13 13:42:38.638504
1060  2023-11-13 13:42:38.670534
1061  2023-11-13 13:42:38.703433
1062  2023-11-13 13:42:38.734349
1063  2023-11-13 13:42:38.767288
1064  2023-11-13 13:42:38.799143
1065  2023-11-13 13:42:38.831090
1066  2023-11-13 13:42:38.863006
1067  2023-11-13 13:42:38.910877
1068  2023-11-13 13:42:38.942803
1069  2023-11-13 13:42:38.974705
1070  2023-11-13 13:42:39.006589
1071  2023-11-13 13:42:39.038503
1072  2023-11-13 13:42:39.070459
1073  2023-11-13 13:42:39.102367
1074  2023-11-13 13:42:39.134288
1075  2023-11-13 13:42:39.167160
1076  2023-11-13 13:42:39.199109
1077  2023-11-13 13:42:39.230976
1078  2023-11-13 13:42:39.262931
1079  2023-11-13 13:42:39.310834
1080  2023-11-13 13:42:39.342763
1081  2023-11-13 13:42:39.374672
1082  2023-11-13 13:42:39.406589
1083  2023-11-13 13:42:39.438500
1084  2023-11-13 13:42:39.471400
1085  2023-11-13 13:42:39.503316
1086  2023-11-13 13:42:39.535243
1087  2023-11-13 13:42:39.567147
1088  2023-11-13 13:42:39.599063
1089  2023-11-13 13:42:39.630994
1090  2023-11-13 13:42:39.662908
1091  2023-11-13 13:42:39.710909
1092  2023-11-13 13:42:39.742824
1093  2023-11-13 13:42:39.774708
1094  2023-11-13 13:42:39.806658
1095  2023-11-13 13:42:39.838536
1096  2023-11-13 13:42:39.870492
1097  2023-11-13 13:42:39.903393
1098  2023-11-13 13:42:39.934314
1099  2023-11-13 13:42:39.967192
1100  2023-11-13 13:42:39.999106
1101  2023-11-13 13:42:40.031055
1102  2023-11-13 13:42:40.062966
1103  2023-11-13 13:42:40.110842
1104  2023-11-13 13:42:40.142754
1105  2023-11-13 13:42:40.174675
1106  2023-11-13 13:42:40.206552
1107  2023-11-13 13:42:40.238466
1108  2023-11-13 13:42:40.270411
1109  2023-11-13 13:42:40.303339
1110  2023-11-13 13:42:40.334294
1111  2023-11-13 13:42:40.367261
1112  2023-11-13 13:42:40.399279
1113  2023-11-13 13:42:40.431178
1114  2023-11-13 13:42:40.463093
1115  2023-11-13 13:42:40.510961
1116  2023-11-13 13:42:40.542878
1117  2023-11-13 13:42:40.574799
1118  2023-11-13 13:42:40.606707
1119  2023-11-13 13:42:40.639587
1120  2023-11-13 13:42:40.670538
1121  2023-11-13 13:42:40.702459
1122  2023-11-13 13:42:40.734373
1123  2023-11-13 13:42:40.767246
1124  2023-11-13 13:42:40.799188
1125  2023-11-13 13:42:40.831110
1126  2023-11-13 13:42:40.863020
1127  2023-11-13 13:42:40.910862
1128  2023-11-13 13:42:40.942822
1129  2023-11-13 13:42:40.974738
1130  2023-11-13 13:42:41.006639
1131  2023-11-13 13:42:41.038551
1132  2023-11-13 13:42:41.070435
1133  2023-11-13 13:42:41.102385
1134  2023-11-13 13:42:41.135296
1135  2023-11-13 13:42:41.167293
1136  2023-11-13 13:42:41.199196
1137  2023-11-13 13:42:41.231110
1138  2023-11-13 13:42:41.263022
1139  2023-11-13 13:42:41.310898
1140  2023-11-13 13:42:41.342815
1141  2023-11-13 13:42:41.374731
1142  2023-11-13 13:42:41.406647
1143  2023-11-13 13:42:41.438555
1144  2023-11-13 13:42:41.470469
1145  2023-11-13 13:42:41.502398
1146  2023-11-13 13:42:41.534301
1147  2023-11-13 13:42:41.567211
1148  2023-11-13 13:42:41.599121
1149  2023-11-13 13:42:41.631046
1150  2023-11-13 13:42:41.662960
1151  2023-11-13 13:42:41.710826
1152  2023-11-13 13:42:41.742742
1153  2023-11-13 13:42:41.774679
1154  2023-11-13 13:42:41.806578
1155  2023-11-13 13:42:41.838493
1156  2023-11-13 13:42:41.871365
1157  2023-11-13 13:42:41.902325
1158  2023-11-13 13:42:41.935231
1159  2023-11-13 13:42:41.967144
1160  2023-11-13 13:42:41.999056
1161  2023-11-13 13:42:42.030990
1162  2023-11-13 13:42:42.062880
1163  2023-11-13 13:42:42.110725
1164  2023-11-13 13:42:42.142684
1165  2023-11-13 13:42:42.174617
1166  2023-11-13 13:42:42.206509
1167  2023-11-13 13:42:42.239381
1168  2023-11-13 13:42:42.271295
1169  2023-11-13 13:42:42.303256
1170  2023-11-13 13:42:42.335164
1171  2023-11-13 13:42:42.367079
1172  2023-11-13 13:42:42.398986
1173  2023-11-13 13:42:42.430902
1174  2023-11-13 13:42:42.462833
1175  2023-11-13 13:42:42.510691
1176  2023-11-13 13:42:42.542612
1177  2023-11-13 13:42:42.574531
1178  2023-11-13 13:42:42.607429
1179  2023-11-13 13:42:42.638482
1180  2023-11-13 13:42:42.670351
1181  2023-11-13 13:42:42.703303
1182  2023-11-13 13:42:42.735211
1183  2023-11-13 13:42:42.767119
1184  2023-11-13 13:42:42.799053
1185  2023-11-13 13:42:42.830972
1186  2023-11-13 13:42:42.862872
1187  2023-11-13 13:42:42.910772
1188  2023-11-13 13:42:42.942703
1189  2023-11-13 13:42:42.974635
1190  2023-11-13 13:42:43.006542
1191  2023-11-13 13:42:43.038463
1192  2023-11-13 13:42:43.071328
1193  2023-11-13 13:42:43.103296
1194  2023-11-13 13:42:43.135190
1195  2023-11-13 13:42:43.167102
1196  2023-11-13 13:42:43.199031
1197  2023-11-13 13:42:43.230936
1198  2023-11-13 13:42:43.262851
1199  2023-11-13 13:42:43.310729
1200  2023-11-13 13:42:43.342602
1201  2023-11-13 13:42:43.375548
1202  2023-11-13 13:42:43.406478
1203  2023-11-13 13:42:43.439371
1204  2023-11-13 13:42:43.471259
1205  2023-11-13 13:42:43.503206
1206  2023-11-13 13:42:43.535119
1207  2023-11-13 13:42:43.567039
1208  2023-11-13 13:42:43.599005
1209  2023-11-13 13:42:43.631040
1210  2023-11-13 13:42:43.662983
1211  2023-11-13 13:42:43.710822
1212  2023-11-13 13:42:43.742737
1213  2023-11-13 13:42:43.774695
1214  2023-11-13 13:42:43.806614
1215  2023-11-13 13:42:43.838520
1216  2023-11-13 13:42:43.870395
1217  2023-11-13 13:42:43.902358
1218  2023-11-13 13:42:43.935273
1219  2023-11-13 13:42:43.967170
1220  2023-11-13 13:42:43.999194
1221  2023-11-13 13:42:44.031107
1222  2023-11-13 13:42:44.063021
1223  2023-11-13 13:42:44.111181
1224  2023-11-13 13:42:44.143096
1225  2023-11-13 13:42:44.175043
1226  2023-11-13 13:42:44.206959
1227  2023-11-13 13:42:44.238878
1228  2023-11-13 13:42:44.270805
1229  2023-11-13 13:42:44.302758
1230  2023-11-13 13:42:44.334695
1231  2023-11-13 13:42:44.366649
1232  2023-11-13 13:42:44.398624
1233  2023-11-13 13:42:44.431496
1234  2023-11-13 13:42:44.463461
1235  2023-11-13 13:42:44.511282
1236  2023-11-13 13:42:44.543197
1237  2023-11-13 13:42:44.575144
1238  2023-11-13 13:42:44.607059
1239  2023-11-13 13:42:44.638941
1240  2023-11-13 13:42:44.670859
1241  2023-11-13 13:42:44.702769
1242  2023-11-13 13:42:44.734717
1243  2023-11-13 13:42:44.766599
1244  2023-11-13 13:42:44.798517
1245  2023-11-13 13:42:44.831426
1246  2023-11-13 13:42:44.862375
1247  2023-11-13 13:42:44.911212
1248  2023-11-13 13:42:44.943127
1249  2023-11-13 13:42:44.975076
1250  2023-11-13 13:42:45.007051
1251  2023-11-13 13:42:45.039054
1252  2023-11-13 13:42:45.071011
1253  2023-11-13 13:42:45.103046
1254  2023-11-13 13:42:45.134995
1255  2023-11-13 13:42:45.166912
1256  2023-11-13 13:42:45.198831
1257  2023-11-13 13:42:45.230705
1258  2023-11-13 13:42:45.262689
1259  2023-11-13 13:42:45.310619
1260  2023-11-13 13:42:45.342539
1261  2023-11-13 13:42:45.374444
1262  2023-11-13 13:42:45.407312
1263  2023-11-13 13:42:45.439285
1264  2023-11-13 13:42:45.471151
1265  2023-11-13 13:42:45.503056
1266  2023-11-13 13:42:45.534971
1267  2023-11-13 13:42:45.566980
1268  2023-11-13 13:42:45.598929
1269  2023-11-13 13:42:45.630809
1270  2023-11-13 13:42:45.662724
1271  2023-11-13 13:42:45.710595
1272  2023-11-13 13:42:45.742510
1273  2023-11-13 13:42:45.774509
1274  2023-11-13 13:42:45.807422
1275  2023-11-13 13:42:45.839340
1276  2023-11-13 13:42:45.871318
1277  2023-11-13 13:42:45.903232
1278  2023-11-13 13:42:45.935147
1279  2023-11-13 13:42:45.967061
1280  2023-11-13 13:42:45.998976
1281  2023-11-13 13:42:46.030891
1282  2023-11-13 13:42:46.062805
1283  2023-11-13 13:42:46.110678
1284  2023-11-13 13:42:46.142592
1285  2023-11-13 13:42:46.174507
1286  2023-11-13 13:42:46.206422
1287  2023-11-13 13:42:46.239334
1288  2023-11-13 13:42:46.271248
1289  2023-11-13 13:42:46.303163
1290  2023-11-13 13:42:46.335078
1291  2023-11-13 13:42:46.367051
1292  2023-11-13 13:42:46.398965
1293  2023-11-13 13:42:46.430923
1294  2023-11-13 13:42:46.462839
1295  2023-11-13 13:42:46.510715
1296  2023-11-13 13:42:46.542582
1297  2023-11-13 13:42:46.574497
1298  2023-11-13 13:42:46.606412
1299  2023-11-13 13:42:46.639355
1300  2023-11-13 13:42:46.671238
1301  2023-11-13 13:42:46.703153
1302  2023-11-13 13:42:46.735171
1303  2023-11-13 13:42:46.767127
1304  2023-11-13 13:42:46.799043
1305  2023-11-13 13:42:46.830915
1306  2023-11-13 13:42:46.862912
1307  2023-11-13 13:42:46.910785
1308  2023-11-13 13:42:46.942699
1309  2023-11-13 13:42:46.974534
1310  2023-11-13 13:42:47.006449
1311  2023-11-13 13:42:47.038403
1312  2023-11-13 13:42:47.071315
1313  2023-11-13 13:42:47.103287
1314  2023-11-13 13:42:47.135176
1315  2023-11-13 13:42:47.167059
1316  2023-11-13 13:42:47.198973
1317  2023-11-13 13:42:47.230979
1318  2023-11-13 13:42:47.262960
1319  2023-11-13 13:42:47.310867
1320  2023-11-13 13:42:47.342821
1321  2023-11-13 13:42:47.374697
1322  2023-11-13 13:42:47.406619
1323  2023-11-13 13:42:47.438568
1324  2023-11-13 13:42:47.470492
1325  2023-11-13 13:42:47.502355
1326  2023-11-13 13:42:47.535267
1327  2023-11-13 13:42:47.567182
1328  2023-11-13 13:42:47.599097
1329  2023-11-13 13:42:47.631011
1330  2023-11-13 13:42:47.663010
1331  2023-11-13 13:42:47.710882
1332  2023-11-13 13:42:47.742796
1333  2023-11-13 13:42:47.774711
1334  2023-11-13 13:42:47.806626
1335  2023-11-13 13:42:47.838540
1336  2023-11-13 13:42:47.870455
1337  2023-11-13 13:42:47.902370
1338  2023-11-13 13:42:47.935282
1339  2023-11-13 13:42:47.967196
1340  2023-11-13 13:42:47.999111
1341  2023-11-13 13:42:48.031026
1342  2023-11-13 13:42:48.062940
1343  2023-11-13 13:42:48.110813
1344  2023-11-13 13:42:48.142727
1345  2023-11-13 13:42:48.174642
1346  2023-11-13 13:42:48.206557
1347  2023-11-13 13:42:48.239469
1348  2023-11-13 13:42:48.270386
1349  2023-11-13 13:42:48.303298
1350  2023-11-13 13:42:48.335213
1351  2023-11-13 13:42:48.367263
1352  2023-11-13 13:42:48.399042
1353  2023-11-13 13:42:48.430957
1354  2023-11-13 13:42:48.462871
1355  2023-11-13 13:42:48.510743
1356  2023-11-13 13:42:48.542658
1357  2023-11-13 13:42:48.574573
1358  2023-11-13 13:42:48.607485
1359  2023-11-13 13:42:48.639399
1360  2023-11-13 13:42:48.671345
1361  2023-11-13 13:42:48.703229
1362  2023-11-13 13:42:48.734358
1363  2023-11-13 13:42:48.767270
1364  2023-11-13 13:42:48.799238
1365  2023-11-13 13:42:48.831099
1366  2023-11-13 13:42:48.863014
1367  2023-11-13 13:42:48.910886
1368  2023-11-13 13:42:48.942940
1369  2023-11-13 13:42:48.974886
1370  2023-11-13 13:42:49.006807
1371  2023-11-13 13:42:49.038684
1372  2023-11-13 13:42:49.070598
1373  2023-11-13 13:42:49.102587
1374  2023-11-13 13:42:49.134518
1375  2023-11-13 13:42:49.166432
1376  2023-11-13 13:42:49.199344
1377  2023-11-13 13:42:49.231259
1378  2023-11-13 13:42:49.263182
1379  2023-11-13 13:42:49.311046
1380  2023-11-13 13:42:49.342960
1381  2023-11-13 13:42:49.374875
1382  2023-11-13 13:42:49.406791
1383  2023-11-13 13:42:49.438704
1384  2023-11-13 13:42:49.470619
1385  2023-11-13 13:42:49.502678
1386  2023-11-13 13:42:49.534593
1387  2023-11-13 13:42:49.566508
1388  2023-11-13 13:42:49.598422
1389  2023-11-13 13:42:49.630337
1390  2023-11-13 13:42:49.663249
1391  2023-11-13 13:42:49.711121
1392  2023-11-13 13:42:49.743036
1393  2023-11-13 13:42:49.774951
1394  2023-11-13 13:42:49.806865
1395  2023-11-13 13:42:49.838790
1396  2023-11-13 13:42:49.870694
1397  2023-11-13 13:42:49.902609
1398  2023-11-13 13:42:49.934524
1399  2023-11-13 13:42:49.966439
1400  2023-11-13 13:42:49.999350
1401  2023-11-13 13:42:50.031265
1402  2023-11-13 13:42:50.063180
1403  2023-11-13 13:42:50.111052
1404  2023-11-13 13:42:50.143053
1405  2023-11-13 13:42:50.174969
1406  2023-11-13 13:42:50.206883
1407  2023-11-13 13:42:50.238797
1408  2023-11-13 13:42:50.270712
1409  2023-11-13 13:42:50.302699
1410  2023-11-13 13:42:50.334541
1411  2023-11-13 13:42:50.366533
1412  2023-11-13 13:42:50.398448
1413  2023-11-13 13:42:50.430405
1414  2023-11-13 13:42:50.463274
1415  2023-11-13 13:42:50.511171
1416  2023-11-13 13:42:50.543061
1417  2023-11-13 13:42:50.574976
1418  2023-11-13 13:42:50.607009
1419  2023-11-13 13:42:50.638923
1420  2023-11-13 13:42:50.670838
1421  2023-11-13 13:42:50.702753
1422  2023-11-13 13:42:50.734667
1423  2023-11-13 13:42:50.766582
1424  2023-11-13 13:42:50.798496
1425  2023-11-13 13:42:50.830901
1426  2023-11-13 13:42:50.862816
1427  2023-11-13 13:42:50.910688
1428  2023-11-13 13:42:50.942693
1429  2023-11-13 13:42:50.974608
1430  2023-11-13 13:42:51.006523
1431  2023-11-13 13:42:51.038437
1432  2023-11-13 13:42:51.071349
1433  2023-11-13 13:42:51.103269
1434  2023-11-13 13:42:51.135179
1435  2023-11-13 13:42:51.167094
1436  2023-11-13 13:42:51.199008
1437  2023-11-13 13:42:51.230923
1438  2023-11-13 13:42:51.262969
1439  2023-11-13 13:42:51.310882
1440  2023-11-13 13:42:51.343791
1441  2023-11-13 13:42:51.374709
1442  2023-11-13 13:42:51.406623
1443  2023-11-13 13:42:51.438707
1444  2023-11-13 13:42:51.471130
1445  2023-11-13 13:42:51.503047
1446  2023-11-13 13:42:51.535048
1447  2023-11-13 13:42:51.566962
1448  2023-11-13 13:42:51.598942
1449  2023-11-13 13:42:51.630929
1450  2023-11-13 13:42:51.662807
1451  2023-11-13 13:42:51.710678
1452  2023-11-13 13:42:51.742593
1453  2023-11-13 13:42:51.774662
1454  2023-11-13 13:42:51.806580
1455  2023-11-13 13:42:51.838635
1456  2023-11-13 13:42:51.870506
1457  2023-11-13 13:42:51.902498
1458  2023-11-13 13:42:51.934456
1459  2023-11-13 13:42:51.966369
1460  2023-11-13 13:42:51.999239
1461  2023-11-13 13:42:52.030315
1462  2023-11-13 13:42:52.063227
1463  2023-11-13 13:42:52.111099
1464  2023-11-13 13:42:52.143044
1465  2023-11-13 13:42:52.174962
1466  2023-11-13 13:42:52.206844
1467  2023-11-13 13:42:52.238758
1468  2023-11-13 13:42:52.270709
1469  2023-11-13 13:42:52.302615
1470  2023-11-13 13:42:52.334502
1471  2023-11-13 13:42:52.366417
1472  2023-11-13 13:42:52.398495
1473  2023-11-13 13:42:52.430461
1474  2023-11-13 13:42:52.463322
1475  2023-11-13 13:42:52.511225
1476  2023-11-13 13:42:52.543108
1477  2023-11-13 13:42:52.575023
1478  2023-11-13 13:42:52.606938
1479  2023-11-13 13:42:52.638886
1480  2023-11-13 13:42:52.670767
1481  2023-11-13 13:42:52.702682
1482  2023-11-13 13:42:52.734596
1483  2023-11-13 13:42:52.766556
1484  2023-11-13 13:42:52.798426
1485  2023-11-13 13:42:52.830340
1486  2023-11-13 13:42:52.863252
1487  2023-11-13 13:42:52.911124
1488  2023-11-13 13:42:52.943039
1489  2023-11-13 13:42:52.974954
1490  2023-11-13 13:42:53.006868
1491  2023-11-13 13:42:53.038791
1492  2023-11-13 13:42:53.070698
1493  2023-11-13 13:42:53.102767
1494  2023-11-13 13:42:53.134681
1495  2023-11-13 13:42:53.166596
1496  2023-11-13 13:42:53.198510
1497  2023-11-13 13:42:53.230425
1498  2023-11-13 13:42:53.262340
1499  2023-11-13 13:42:53.311223
1500  2023-11-13 13:42:53.343124
1501  2023-11-13 13:42:53.375039
1502  2023-11-13 13:42:53.406953
1503  2023-11-13 13:42:53.438868
1504  2023-11-13 13:42:53.470927
1505  2023-11-13 13:42:53.502842
1506  2023-11-13 13:42:53.534757
1507  2023-11-13 13:42:53.566671
1508  2023-11-13 13:42:53.598586
1509  2023-11-13 13:42:53.630501
1510  2023-11-13 13:42:53.663413
1511  2023-11-13 13:42:53.711285
1512  2023-11-13 13:42:53.743199
1513  2023-11-13 13:42:53.775114
1514  2023-11-13 13:42:53.807030
1515  2023-11-13 13:42:53.839028
1516  2023-11-13 13:42:53.871046
1517  2023-11-13 13:42:53.903013
1518  2023-11-13 13:42:53.934928
1519  2023-11-13 13:42:53.966875
1520  2023-11-13 13:42:53.998763
1521  2023-11-13 13:42:54.030672
1522  2023-11-13 13:42:54.062652
1523  2023-11-13 13:42:54.110577
1524  2023-11-13 13:42:54.143490
1525  2023-11-13 13:42:54.175406
1526  2023-11-13 13:42:54.206321
1527  2023-11-13 13:42:54.239233
1528  2023-11-13 13:42:54.271148
1529  2023-11-13 13:42:54.303093
1530  2023-11-13 13:42:54.334977
1531  2023-11-13 13:42:54.366892
1532  2023-11-13 13:42:54.398807
1533  2023-11-13 13:42:54.430752
1534  2023-11-13 13:42:54.462666
1535  2023-11-13 13:42:54.510557
1536  2023-11-13 13:42:54.543420
1537  2023-11-13 13:42:54.574337
1538  2023-11-13 13:42:54.607250
1539  2023-11-13 13:42:54.639196
1540  2023-11-13 13:42:54.671079
1541  2023-11-13 13:42:54.702994
1542  2023-11-13 13:42:54.734908
1543  2023-11-13 13:42:54.766796
1544  2023-11-13 13:42:54.798752
1545  2023-11-13 13:42:54.830655
1546  2023-11-13 13:42:54.862709
1547  2023-11-13 13:42:54.910581
1548  2023-11-13 13:42:54.942496
1549  2023-11-13 13:42:54.974411
1550  2023-11-13 13:42:55.007323
1551  2023-11-13 13:42:55.039237
1552  2023-11-13 13:42:55.072184
1553  2023-11-13 13:42:55.103067
1554  2023-11-13 13:42:55.134981
1555  2023-11-13 13:42:55.166896
1556  2023-11-13 13:42:55.198811
1557  2023-11-13 13:42:55.230725
1558  2023-11-13 13:42:55.262640
1559  2023-11-13 13:42:55.310512
1560  2023-11-13 13:42:55.343425
1561  2023-11-13 13:42:55.375351
1562  2023-11-13 13:42:55.407255
1563  2023-11-13 13:42:55.439301
1564  2023-11-13 13:42:55.472213
1565  2023-11-13 13:42:55.504194
1566  2023-11-13 13:42:55.535045
1567  2023-11-13 13:42:55.566959
1568  2023-11-13 13:42:55.599927
1569  2023-11-13 13:42:55.630834
1570  2023-11-13 13:42:55.663732
1571  2023-11-13 13:42:55.711611
1572  2023-11-13 13:42:55.743520
1573  2023-11-13 13:42:55.775590
1574  2023-11-13 13:42:55.807627
1575  2023-11-13 13:42:55.839554
1576  2023-11-13 13:42:55.871458
1577  2023-11-13 13:42:55.903365
1578  2023-11-13 13:42:55.935293
1579  2023-11-13 13:42:55.967168
1580  2023-11-13 13:42:55.999119
1581  2023-11-13 13:42:56.031029
1582  2023-11-13 13:42:56.063067
1583  2023-11-13 13:42:56.110938
1584  2023-11-13 13:42:56.142823
1585  2023-11-13 13:42:56.174740
1586  2023-11-13 13:42:56.206653
1587  2023-11-13 13:42:56.238568
1588  2023-11-13 13:42:56.270481
1589  2023-11-13 13:42:56.302396
1590  2023-11-13 13:42:56.334355
1591  2023-11-13 13:42:56.367223
1592  2023-11-13 13:42:56.399267
1593  2023-11-13 13:42:56.431185
1594  2023-11-13 13:42:56.463107
1595  2023-11-13 13:42:56.510936
1596  2023-11-13 13:42:56.542918
1597  2023-11-13 13:42:56.574825
1598  2023-11-13 13:42:56.606758
1599  2023-11-13 13:42:56.639627
1600  2023-11-13 13:42:56.671570
1601  2023-11-13 13:42:56.703456
1602  2023-11-13 13:42:56.734373
1603  2023-11-13 13:42:56.767310
1604  2023-11-13 13:42:56.799199
1605  2023-11-13 13:42:56.832166
1606  2023-11-13 13:42:56.863135
1607  2023-11-13 13:42:56.912000
1608  2023-11-13 13:42:56.943910
1609  2023-11-13 13:42:56.974827
1610  2023-11-13 13:42:57.006752
1611  2023-11-13 13:42:57.039662
1612  2023-11-13 13:42:57.071561
1613  2023-11-13 13:42:57.103478
1614  2023-11-13 13:42:57.134401
1615  2023-11-13 13:42:57.167273
1616  2023-11-13 13:42:57.199219
1617  2023-11-13 13:42:57.231133
1618  2023-11-13 13:42:57.263017
1619  2023-11-13 13:42:57.310920
1620  2023-11-13 13:42:57.342804
1621  2023-11-13 13:42:57.374719
1622  2023-11-13 13:42:57.406635
1623  2023-11-13 13:42:57.438580
1624  2023-11-13 13:42:57.470493
1625  2023-11-13 13:42:57.503409
1626  2023-11-13 13:42:57.535322
1627  2023-11-13 13:42:57.567205
1628  2023-11-13 13:42:57.599152
1629  2023-11-13 13:42:57.631066
1630  2023-11-13 13:42:57.662978
1631  2023-11-13 13:42:57.710853
1632  2023-11-13 13:42:57.742774
1633  2023-11-13 13:42:57.774649
1634  2023-11-13 13:42:57.806566
1635  2023-11-13 13:42:57.839507
1636  2023-11-13 13:42:57.870424
1637  2023-11-13 13:42:57.902343
1638  2023-11-13 13:42:57.935255
1639  2023-11-13 13:42:57.967136
1640  2023-11-13 13:42:57.999080
1641  2023-11-13 13:42:58.031000
1642  2023-11-13 13:42:58.062914
1643  2023-11-13 13:42:58.110785
1644  2023-11-13 13:42:58.142706
1645  2023-11-13 13:42:58.174611
1646  2023-11-13 13:42:58.206496
1647  2023-11-13 13:42:58.238617
1648  2023-11-13 13:42:58.270518
1649  2023-11-13 13:42:58.302439
1650  2023-11-13 13:42:58.335342
1651  2023-11-13 13:42:58.367257
1652  2023-11-13 13:42:58.399170
1653  2023-11-13 13:42:58.431089
1654  2023-11-13 13:42:58.462995
1655  2023-11-13 13:42:58.510883
1656  2023-11-13 13:42:58.542801
1657  2023-11-13 13:42:58.574704
1658  2023-11-13 13:42:58.606585
1659  2023-11-13 13:42:58.638535
1660  2023-11-13 13:42:58.670452
1661  2023-11-13 13:42:58.703372
1662  2023-11-13 13:42:58.735282
1663  2023-11-13 13:42:58.767187
1664  2023-11-13 13:42:58.799102
1665  2023-11-13 13:42:58.831014
1666  2023-11-13 13:42:58.862944
1667  2023-11-13 13:42:58.910914
1668  2023-11-13 13:42:58.942827
1669  2023-11-13 13:42:58.974753
1670  2023-11-13 13:42:59.006685
1671  2023-11-13 13:42:59.038576
1672  2023-11-13 13:42:59.070483
1673  2023-11-13 13:42:59.102402
1674  2023-11-13 13:42:59.134320
1675  2023-11-13 13:42:59.167241
1676  2023-11-13 13:42:59.199143
1677  2023-11-13 13:42:59.231054
1678  2023-11-13 13:42:59.262969
1679  2023-11-13 13:42:59.310841
1680  2023-11-13 13:42:59.342762
1681  2023-11-13 13:42:59.374678
1682  2023-11-13 13:42:59.406552
1683  2023-11-13 13:42:59.438512
1684  2023-11-13 13:42:59.470415
1685  2023-11-13 13:42:59.503342
1686  2023-11-13 13:42:59.535239
1687  2023-11-13 13:42:59.567156
1688  2023-11-13 13:42:59.599069
1689  2023-11-13 13:42:59.630987
1690  2023-11-13 13:42:59.662899
1691  2023-11-13 13:42:59.710773
1692  2023-11-13 13:42:59.742686
1693  2023-11-13 13:42:59.774617
1694  2023-11-13 13:42:59.806518
1695  2023-11-13 13:42:59.838433
1696  2023-11-13 13:42:59.870345
1697  2023-11-13 13:42:59.903273
1698  2023-11-13 13:42:59.935173
1699  2023-11-13 13:42:59.967086
1700  2023-11-13 13:42:59.999001
1701  2023-11-13 13:43:00.030917
1702  2023-11-13 13:43:00.062854
1703  2023-11-13 13:43:00.110701
1704  2023-11-13 13:43:00.142626
1705  2023-11-13 13:43:00.174535
1706  2023-11-13 13:43:00.207412
1707  2023-11-13 13:43:00.238360
1708  2023-11-13 13:43:00.271287
1709  2023-11-13 13:43:00.303195
1710  2023-11-13 13:43:00.335103
1711  2023-11-13 13:43:00.367016
1712  2023-11-13 13:43:00.398933
1713  2023-11-13 13:43:00.430816
1714  2023-11-13 13:43:00.462772
1715  2023-11-13 13:43:00.510753
1716  2023-11-13 13:43:00.542681
1717  2023-11-13 13:43:00.574695
1718  2023-11-13 13:43:00.606613
1719  2023-11-13 13:43:00.638525
1720  2023-11-13 13:43:00.670435
1721  2023-11-13 13:43:00.703348
1722  2023-11-13 13:43:00.735282
1723  2023-11-13 13:43:00.767176
1724  2023-11-13 13:43:00.799092
1725  2023-11-13 13:43:00.831008
1726  2023-11-13 13:43:00.862927
1727  2023-11-13 13:43:00.910752
1728  2023-11-13 13:43:00.942702
1729  2023-11-13 13:43:00.974626
1730  2023-11-13 13:43:01.006541
1731  2023-11-13 13:43:01.038446
1732  2023-11-13 13:43:01.070361
1733  2023-11-13 13:43:01.103294
1734  2023-11-13 13:43:01.135185
1735  2023-11-13 13:43:01.167097
1736  2023-11-13 13:43:01.199014
1737  2023-11-13 13:43:01.230939
1738  2023-11-13 13:43:01.262822
1739  2023-11-13 13:43:01.310799
1740  2023-11-13 13:43:01.342738
1741  2023-11-13 13:43:01.374639
1742  2023-11-13 13:43:01.406561
1743  2023-11-13 13:43:01.438469
1744  2023-11-13 13:43:01.470372
1745  2023-11-13 13:43:01.503294
1746  2023-11-13 13:43:01.535206
1747  2023-11-13 13:43:01.567127
1748  2023-11-13 13:43:01.599035
1749  2023-11-13 13:43:01.630943
1750  2023-11-13 13:43:01.662865
1751  2023-11-13 13:43:01.710705
1752  2023-11-13 13:43:01.742678
1753  2023-11-13 13:43:01.774579
1754  2023-11-13 13:43:01.806484
1755  2023-11-13 13:43:01.838419
1756  2023-11-13 13:43:01.871332
1757  2023-11-13 13:43:01.903284
1758  2023-11-13 13:43:01.935278
1759  2023-11-13 13:43:01.967180
1760  2023-11-13 13:43:01.999089
1761  2023-11-13 13:43:02.031004
1762  2023-11-13 13:43:02.062928
1763  2023-11-13 13:43:02.110796
1764  2023-11-13 13:43:02.142705
1765  2023-11-13 13:43:02.175617
1766  2023-11-13 13:43:02.206534
1767  2023-11-13 13:43:02.238451
1768  2023-11-13 13:43:02.270362
1769  2023-11-13 13:43:02.303288
1770  2023-11-13 13:43:02.335190
1771  2023-11-13 13:43:02.367105
1772  2023-11-13 13:43:02.399027
1773  2023-11-13 13:43:02.430935
1774  2023-11-13 13:43:02.462860
1775  2023-11-13 13:43:02.510735
1776  2023-11-13 13:43:02.542635
1777  2023-11-13 13:43:02.574556
1778  2023-11-13 13:43:02.606466
1779  2023-11-13 13:43:02.638374
1780  2023-11-13 13:43:02.671293
1781  2023-11-13 13:43:02.703200
1782  2023-11-13 13:43:02.735115
1783  2023-11-13 13:43:02.767107
1784  2023-11-13 13:43:02.799094
1785  2023-11-13 13:43:02.830998
1786  2023-11-13 13:43:02.862906
1787  2023-11-13 13:43:02.910818
1788  2023-11-13 13:43:02.942763
1789  2023-11-13 13:43:02.974682
1790  2023-11-13 13:43:03.006596
1791  2023-11-13 13:43:03.038515
1792  2023-11-13 13:43:03.070428
1793  2023-11-13 13:43:03.102343
1794  2023-11-13 13:43:03.135265
1795  2023-11-13 13:43:03.167171
1796  2023-11-13 13:43:03.199078
1797  2023-11-13 13:43:03.231006
1798  2023-11-13 13:43:03.262920
1799  2023-11-13 13:43:03.310808
1800  2023-11-13 13:43:03.343695
1801  2023-11-13 13:43:03.374611
1802  2023-11-13 13:43:03.406528
1803  2023-11-13 13:43:03.438432
1804  2023-11-13 13:43:03.471358
1805  2023-11-13 13:43:03.503237
1806  2023-11-13 13:43:03.535188
1807  2023-11-13 13:43:03.567103
1808  2023-11-13 13:43:03.599015
1809  2023-11-13 13:43:03.630926
1810  2023-11-13 13:43:03.662834
1811  2023-11-13 13:43:03.710680
1812  2023-11-13 13:43:03.742627
1813  2023-11-13 13:43:03.774541
1814  2023-11-13 13:43:03.806459
1815  2023-11-13 13:43:03.838374
1816  2023-11-13 13:43:03.871251
1817  2023-11-13 13:43:03.903165
1818  2023-11-13 13:43:03.935153
1819  2023-11-13 13:43:03.967161
1820  2023-11-13 13:43:03.999057
1821  2023-11-13 13:43:04.030968
1822  2023-11-13 13:43:04.062897
1823  2023-11-13 13:43:04.110727
1824  2023-11-13 13:43:04.142685
1825  2023-11-13 13:43:04.174587
1826  2023-11-13 13:43:04.206504
1827  2023-11-13 13:43:04.238419
1828  2023-11-13 13:43:04.271298
1829  2023-11-13 13:43:04.303212
1830  2023-11-13 13:43:04.335155
1831  2023-11-13 13:43:04.367067
1832  2023-11-13 13:43:04.398998
1833  2023-11-13 13:43:04.430876
1834  2023-11-13 13:43:04.462851
1835  2023-11-13 13:43:04.510664
1836  2023-11-13 13:43:04.542572
1837  2023-11-13 13:43:04.574535
1838  2023-11-13 13:43:04.606442
1839  2023-11-13 13:43:04.638360
1840  2023-11-13 13:43:04.671229
1841  2023-11-13 13:43:04.703143
1842  2023-11-13 13:43:04.735091
1843  2023-11-13 13:43:04.767006
1844  2023-11-13 13:43:04.798924
1845  2023-11-13 13:43:04.830802
1846  2023-11-13 13:43:04.862717
1847  2023-11-13 13:43:04.910588
1848  2023-11-13 13:43:04.942504
1849  2023-11-13 13:43:04.975453
1850  2023-11-13 13:43:05.006365
1851  2023-11-13 13:43:05.039300
1852  2023-11-13 13:43:05.071159
1853  2023-11-13 13:43:05.103119
1854  2023-11-13 13:43:05.135072
1855  2023-11-13 13:43:05.167065
1856  2023-11-13 13:43:05.199005
1857  2023-11-13 13:43:05.230869
1858  2023-11-13 13:43:05.262831
1859  2023-11-13 13:43:05.310697
1860  2023-11-13 13:43:05.342617
1861  2023-11-13 13:43:05.374525
1862  2023-11-13 13:43:05.406440
1863  2023-11-13 13:43:05.439351
1864  2023-11-13 13:43:05.471269
1865  2023-11-13 13:43:05.503141
1866  2023-11-13 13:43:05.535148
1867  2023-11-13 13:43:05.567187
1868  2023-11-13 13:43:05.599135
1869  2023-11-13 13:43:05.631017
1870  2023-11-13 13:43:05.662931
1871  2023-11-13 13:43:05.710829
1872  2023-11-13 13:43:05.742718
1873  2023-11-13 13:43:05.774633
1874  2023-11-13 13:43:05.806584
1875  2023-11-13 13:43:05.839459
1876  2023-11-13 13:43:05.870411
1877  2023-11-13 13:43:05.903288
1878  2023-11-13 13:43:05.935203
1879  2023-11-13 13:43:05.967118
1880  2023-11-13 13:43:05.999033
1881  2023-11-13 13:43:06.030947
1882  2023-11-13 13:43:06.062862
1883  2023-11-13 13:43:06.110734
1884  2023-11-13 13:43:06.142648
1885  2023-11-13 13:43:06.174564
1886  2023-11-13 13:43:06.206512
1887  2023-11-13 13:43:06.238424
1888  2023-11-13 13:43:06.271305
1889  2023-11-13 13:43:06.303274
1890  2023-11-13 13:43:06.335134
1891  2023-11-13 13:43:06.367049
1892  2023-11-13 13:43:06.398964
1893  2023-11-13 13:43:06.430912
1894  2023-11-13 13:43:06.462793
1895  2023-11-13 13:43:06.510698
1896  2023-11-13 13:43:06.542579
1897  2023-11-13 13:43:06.574494
1898  2023-11-13 13:43:06.606446
1899  2023-11-13 13:43:06.639356
1900  2023-11-13 13:43:06.671236
1901  2023-11-13 13:43:06.703150
1902  2023-11-13 13:43:06.735065
1903  2023-11-13 13:43:06.767013
1904  2023-11-13 13:43:06.798894
1905  2023-11-13 13:43:06.830809
1906  2023-11-13 13:43:06.862723
1907  2023-11-13 13:43:06.910596
1908  2023-11-13 13:43:06.942510
1909  2023-11-13 13:43:06.974425
1910  2023-11-13 13:43:07.006340
1911  2023-11-13 13:43:07.039251
1912  2023-11-13 13:43:07.071166
1913  2023-11-13 13:43:07.103081
1914  2023-11-13 13:43:07.134995
1915  2023-11-13 13:43:07.167021
1916  2023-11-13 13:43:07.198935
1917  2023-11-13 13:43:07.230850
1918  2023-11-13 13:43:07.262765
1919  2023-11-13 13:43:07.310637
1920  2023-11-13 13:43:07.342551
1921  2023-11-13 13:43:07.374466
1922  2023-11-13 13:43:07.406381
1923  2023-11-13 13:43:07.439293
1924  2023-11-13 13:43:07.471207
1925  2023-11-13 13:43:07.503122
1926  2023-11-13 13:43:07.535037
1927  2023-11-13 13:43:07.567103
1928  2023-11-13 13:43:07.599018
1929  2023-11-13 13:43:07.630933
1930  2023-11-13 13:43:07.662853
1931  2023-11-13 13:43:07.710866
1932  2023-11-13 13:43:07.742846
1933  2023-11-13 13:43:07.774856
1934  2023-11-13 13:43:07.806727
1935  2023-11-13 13:43:07.838676
1936  2023-11-13 13:43:07.870624
1937  2023-11-13 13:43:07.902539
1938  2023-11-13 13:43:07.934495
1939  2023-11-13 13:43:07.966406
1940  2023-11-13 13:43:07.999280
1941  2023-11-13 13:43:08.031195
1942  2023-11-13 13:43:08.063109
1943  2023-11-13 13:43:08.110981
1944  2023-11-13 13:43:08.142982
1945  2023-11-13 13:43:08.174999
1946  2023-11-13 13:43:08.206910
1947  2023-11-13 13:43:08.238825
1948  2023-11-13 13:43:08.270786
1949  2023-11-13 13:43:08.302699
1950  2023-11-13 13:43:08.334570
1951  2023-11-13 13:43:08.366485
1952  2023-11-13 13:43:08.398400
1953  2023-11-13 13:43:08.430314
1954  2023-11-13 13:43:08.463226
1955  2023-11-13 13:43:08.511098
1956  2023-11-13 13:43:08.543013
1957  2023-11-13 13:43:08.574928
1958  2023-11-13 13:43:08.606842
1959  2023-11-13 13:43:08.638757
1960  2023-11-13 13:43:08.670672
1961  2023-11-13 13:43:08.702586
1962  2023-11-13 13:43:08.734501
1963  2023-11-13 13:43:08.766416
1964  2023-11-13 13:43:08.799363
1965  2023-11-13 13:43:08.831242
1966  2023-11-13 13:43:08.863246
1967  2023-11-13 13:43:08.911203
1968  2023-11-13 13:43:08.943118
1969  2023-11-13 13:43:08.975110
1970  2023-11-13 13:43:09.007067
1971  2023-11-13 13:43:09.039023
1972  2023-11-13 13:43:09.070937
1973  2023-11-13 13:43:09.102930
1974  2023-11-13 13:43:09.134988
1975  2023-11-13 13:43:09.166870
1976  2023-11-13 13:43:09.198785
1977  2023-11-13 13:43:09.230699
1978  2023-11-13 13:43:09.262677
1979  2023-11-13 13:43:09.310523
1980  2023-11-13 13:43:09.342483
1981  2023-11-13 13:43:09.374411
1982  2023-11-13 13:43:09.407323
1983  2023-11-13 13:43:09.439252
1984  2023-11-13 13:43:09.471153
1985  2023-11-13 13:43:09.503187
1986  2023-11-13 13:43:09.535102
1987  2023-11-13 13:43:09.567016
1988  2023-11-13 13:43:09.598962
1989  2023-11-13 13:43:09.630846
1990  2023-11-13 13:43:09.662760
1991  2023-11-13 13:43:09.710632
1992  2023-11-13 13:43:09.742547
1993  2023-11-13 13:43:09.774462
1994  2023-11-13 13:43:09.806376
1995  2023-11-13 13:43:09.839288
1996  2023-11-13 13:43:09.871203
1997  2023-11-13 13:43:09.903118
1998  2023-11-13 13:43:09.935115
1999  2023-11-13 13:43:09.967029
2000  2023-11-13 13:43:09.998944
2001  2023-11-13 13:43:10.030859
2002  2023-11-13 13:43:10.062784
2003  2023-11-13 13:43:10.110646
2004  2023-11-13 13:43:10.142681
2005  2023-11-13 13:43:10.174595
2006  2023-11-13 13:43:10.206510
2007  2023-11-13 13:43:10.238425
2008  2023-11-13 13:43:10.271337
2009  2023-11-13 13:43:10.303299
2010  2023-11-13 13:43:10.335166
2011  2023-11-13 13:43:10.367081
2012  2023-11-13 13:43:10.398995
2013  2023-11-13 13:43:10.430953
2014  2023-11-13 13:43:10.462828
2015  2023-11-13 13:43:10.510954
2016  2023-11-13 13:43:10.542868
2017  2023-11-13 13:43:10.574861
2018  2023-11-13 13:43:10.606776
2019  2023-11-13 13:43:10.638691
2020  2023-11-13 13:43:10.670605
2021  2023-11-13 13:43:10.702520
2022  2023-11-13 13:43:10.734435
2023  2023-11-13 13:43:10.767347
2024  2023-11-13 13:43:10.799261
2025  2023-11-13 13:43:10.831176
2026  2023-11-13 13:43:10.863091
2027  2023-11-13 13:43:10.911060
2028  2023-11-13 13:43:10.943113
2029  2023-11-13 13:43:10.975028
2030  2023-11-13 13:43:11.006942
2031  2023-11-13 13:43:11.038857
2032  2023-11-13 13:43:11.070784
2033  2023-11-13 13:43:11.102686
2034  2023-11-13 13:43:11.134601
2035  2023-11-13 13:43:11.166676
2036  2023-11-13 13:43:11.198591
2037  2023-11-13 13:43:11.230505
2038  2023-11-13 13:43:11.263317
2039  2023-11-13 13:43:11.311211
2040  2023-11-13 13:43:11.343157
2041  2023-11-13 13:43:11.375040
2042  2023-11-13 13:43:11.406955
2043  2023-11-13 13:43:11.438870
2044  2023-11-13 13:43:11.470861
2045  2023-11-13 13:43:11.502825
2046  2023-11-13 13:43:11.534697
2047  2023-11-13 13:43:11.566738
2048  2023-11-13 13:43:11.598696
2049  2023-11-13 13:43:11.630698
2050  2023-11-13 13:43:11.662662
2051  2023-11-13 13:43:11.710510
2052  2023-11-13 13:43:11.742495
2053  2023-11-13 13:43:11.774492
2054  2023-11-13 13:43:11.806442
2055  2023-11-13 13:43:11.838358
2056  2023-11-13 13:43:11.871234
2057  2023-11-13 13:43:11.903148
2058  2023-11-13 13:43:11.935090
2059  2023-11-13 13:43:11.967013
2060  2023-11-13 13:43:11.998892
2061  2023-11-13 13:43:12.030809
2062  2023-11-13 13:43:12.062722
2063  2023-11-13 13:43:12.110668
2064  2023-11-13 13:43:12.142627
2065  2023-11-13 13:43:12.174539
2066  2023-11-13 13:43:12.206412
2067  2023-11-13 13:43:12.238456
2068  2023-11-13 13:43:12.270509
2069  2023-11-13 13:43:12.302468
2070  2023-11-13 13:43:12.335337
2071  2023-11-13 13:43:12.367252
2072  2023-11-13 13:43:12.399166
2073  2023-11-13 13:43:12.431081
2074  2023-11-13 13:43:12.462996
2075  2023-11-13 13:43:12.510868
2076  2023-11-13 13:43:12.542782
2077  2023-11-13 13:43:12.574813
2078  2023-11-13 13:43:12.606727
2079  2023-11-13 13:43:12.638642
2080  2023-11-13 13:43:12.670557
2081  2023-11-13 13:43:12.703469
2082  2023-11-13 13:43:12.735384
2083  2023-11-13 13:43:12.767298
2084  2023-11-13 13:43:12.798366
2085  2023-11-13 13:43:12.831278
2086  2023-11-13 13:43:12.863192
2087  2023-11-13 13:43:12.911064
2088  2023-11-13 13:43:12.942979
2089  2023-11-13 13:43:12.974894
2090  2023-11-13 13:43:13.006785
2091  2023-11-13 13:43:13.038785
2092  2023-11-13 13:43:13.070700
2093  2023-11-13 13:43:13.102614
2094  2023-11-13 13:43:13.134578
2095  2023-11-13 13:43:13.166444
2096  2023-11-13 13:43:13.198358
2097  2023-11-13 13:43:13.231270
2098  2023-11-13 13:43:13.263266
2099  2023-11-13 13:43:13.311260
2100  2023-11-13 13:43:13.343202
2101  2023-11-13 13:43:13.375081
2102  2023-11-13 13:43:13.406996
2103  2023-11-13 13:43:13.439041
2104  2023-11-13 13:43:13.470989
2105  2023-11-13 13:43:13.502871
2106  2023-11-13 13:43:13.534880
2107  2023-11-13 13:43:13.566807
2108  2023-11-13 13:43:13.598834
2109  2023-11-13 13:43:13.630756
2110  2023-11-13 13:43:13.662794
2111  2023-11-13 13:43:13.710666
2112  2023-11-13 13:43:13.742580
2113  2023-11-13 13:43:13.774495
2114  2023-11-13 13:43:13.806410
2115  2023-11-13 13:43:13.838446
2116  2023-11-13 13:43:13.870360
2117  2023-11-13 13:43:13.903386
2118  2023-11-13 13:43:13.935301
2119  2023-11-13 13:43:13.967215
2120  2023-11-13 13:43:13.999237
2121  2023-11-13 13:43:14.031151
2122  2023-11-13 13:43:14.063066
2123  2023-11-13 13:43:14.110938
2124  2023-11-13 13:43:14.142853
2125  2023-11-13 13:43:14.174859
2126  2023-11-13 13:43:14.206803
2127  2023-11-13 13:43:14.238725
2128  2023-11-13 13:43:14.270640
2129  2023-11-13 13:43:14.302587
2130  2023-11-13 13:43:14.334469
2131  2023-11-13 13:43:14.366384
2132  2023-11-13 13:43:14.398414
2133  2023-11-13 13:43:14.430359
2134  2023-11-13 13:43:14.463334
2135  2023-11-13 13:43:14.511231
2136  2023-11-13 13:43:14.543120
2137  2023-11-13 13:43:14.575035
2138  2023-11-13 13:43:14.606950
2139  2023-11-13 13:43:14.638890
2140  2023-11-13 13:43:14.670783
2141  2023-11-13 13:43:14.702855
2142  2023-11-13 13:43:14.734769
2143  2023-11-13 13:43:14.766684
2144  2023-11-13 13:43:14.798765
2145  2023-11-13 13:43:14.830679
2146  2023-11-13 13:43:14.862594
2147  2023-11-13 13:43:14.910466
2148  2023-11-13 13:43:14.943378
2149  2023-11-13 13:43:14.975293
2150  2023-11-13 13:43:15.008246
2151  2023-11-13 13:43:15.040161
2152  2023-11-13 13:43:15.072097
2153  2023-11-13 13:43:15.103096
2154  2023-11-13 13:43:15.135009
2155  2023-11-13 13:43:15.167956
2156  2023-11-13 13:43:15.199879
2157  2023-11-13 13:43:15.231785
2158  2023-11-13 13:43:15.263666
2159  2023-11-13 13:43:15.311545
2160  2023-11-13 13:43:15.344504
2161  2023-11-13 13:43:15.375371
2162  2023-11-13 13:43:15.407283
2163  2023-11-13 13:43:15.439197
2164  2023-11-13 13:43:15.472150
2165  2023-11-13 13:43:15.504024
2166  2023-11-13 13:43:15.535966
2167  2023-11-13 13:43:15.567885
2168  2023-11-13 13:43:15.599803
2169  2023-11-13 13:43:15.631715
2170  2023-11-13 13:43:15.663629
2171  2023-11-13 13:43:15.711500
2172  2023-11-13 13:43:15.743413
2173  2023-11-13 13:43:15.775340
2174  2023-11-13 13:43:15.807213
2175  2023-11-13 13:43:15.839159
2176  2023-11-13 13:43:15.871043
2177  2023-11-13 13:43:15.902988
2178  2023-11-13 13:43:15.934902
2179  2023-11-13 13:43:15.966825
2180  2023-11-13 13:43:15.998702
2181  2023-11-13 13:43:16.030616
2182  2023-11-13 13:43:16.062530
2183  2023-11-13 13:43:16.111432
2184  2023-11-13 13:43:16.143347
2185  2023-11-13 13:43:16.175277
2186  2023-11-13 13:43:16.207094
2187  2023-11-13 13:43:16.239072
2188  2023-11-13 13:43:16.270986
2189  2023-11-13 13:43:16.302903
2190  2023-11-13 13:43:16.334813
2191  2023-11-13 13:43:16.366730
2192  2023-11-13 13:43:16.398650
2193  2023-11-13 13:43:16.430566
2194  2023-11-13 13:43:16.462473
2195  2023-11-13 13:43:16.511362
2196  2023-11-13 13:43:16.543225
2197  2023-11-13 13:43:16.575161
2198  2023-11-13 13:43:16.607084
2199  2023-11-13 13:43:16.638999
2200  2023-11-13 13:43:16.670916
2201  2023-11-13 13:43:16.702828
2202  2023-11-13 13:43:16.734746
2203  2023-11-13 13:43:16.766661
2204  2023-11-13 13:43:16.799539
2205  2023-11-13 13:43:16.830494
2206  2023-11-13 13:43:16.862402
2207  2023-11-13 13:43:16.911242
2208  2023-11-13 13:43:16.943156
2209  2023-11-13 13:43:16.975072
2210  2023-11-13 13:43:17.007018
2211  2023-11-13 13:43:17.039928
2212  2023-11-13 13:43:17.071842
2213  2023-11-13 13:43:17.103757
2214  2023-11-13 13:43:17.134700
2215  2023-11-13 13:43:17.166606
2216  2023-11-13 13:43:17.199506
2217  2023-11-13 13:43:17.231416
2218  2023-11-13 13:43:17.263301
2219  2023-11-13 13:43:17.311202
2220  2023-11-13 13:43:17.343129
2221  2023-11-13 13:43:17.375001
2222  2023-11-13 13:43:17.406946
2223  2023-11-13 13:43:17.438875
2224  2023-11-13 13:43:17.470776
2225  2023-11-13 13:43:17.502699
2226  2023-11-13 13:43:17.534610
2227  2023-11-13 13:43:17.566528
2228  2023-11-13 13:43:17.599432
2229  2023-11-13 13:43:17.631349
2230  2023-11-13 13:43:17.663269
2231  2023-11-13 13:43:17.712272
2232  2023-11-13 13:43:17.743137
2233  2023-11-13 13:43:17.775057
2234  2023-11-13 13:43:17.806936
2235  2023-11-13 13:43:17.839881
2236  2023-11-13 13:43:17.871804
2237  2023-11-13 13:43:17.902719
2238  2023-11-13 13:43:17.934625
2239  2023-11-13 13:43:17.966541
2240  2023-11-13 13:43:17.999461
2241  2023-11-13 13:43:18.030341
2242  2023-11-13 13:43:18.063277
2243  2023-11-13 13:43:18.111154
2244  2023-11-13 13:43:18.143071
2245  2023-11-13 13:43:18.174983
2246  2023-11-13 13:43:18.206900
2247  2023-11-13 13:43:18.238812
2248  2023-11-13 13:43:18.270742
2249  2023-11-13 13:43:18.302643
2250  2023-11-13 13:43:18.334560
2251  2023-11-13 13:43:18.366473
2252  2023-11-13 13:43:18.399386
2253  2023-11-13 13:43:18.431300
2254  2023-11-13 13:43:18.463182
2255  2023-11-13 13:43:18.511094
2256  2023-11-13 13:43:18.543003
2257  2023-11-13 13:43:18.574931
2258  2023-11-13 13:43:18.606830
2259  2023-11-13 13:43:18.638766
2260  2023-11-13 13:43:18.670668
2261  2023-11-13 13:43:18.702574
2262  2023-11-13 13:43:18.734500
2263  2023-11-13 13:43:18.767400
2264  2023-11-13 13:43:18.799325
2265  2023-11-13 13:43:18.831199
2266  2023-11-13 13:43:18.863143
2267  2023-11-13 13:43:18.911018
2268  2023-11-13 13:43:18.942935
2269  2023-11-13 13:43:18.974844
2270  2023-11-13 13:43:19.006763
2271  2023-11-13 13:43:19.038643
2272  2023-11-13 13:43:19.070595
2273  2023-11-13 13:43:19.102506
2274  2023-11-13 13:43:19.134419
2275  2023-11-13 13:43:19.166332
2276  2023-11-13 13:43:19.199267
2277  2023-11-13 13:43:19.231181
2278  2023-11-13 13:43:19.263073
2279  2023-11-13 13:43:19.310947
2280  2023-11-13 13:43:19.342926
2281  2023-11-13 13:43:19.374869
2282  2023-11-13 13:43:19.406793
2283  2023-11-13 13:43:19.438700
2284  2023-11-13 13:43:19.470613
2285  2023-11-13 13:43:19.502527
2286  2023-11-13 13:43:19.534439
2287  2023-11-13 13:43:19.567283
2288  2023-11-13 13:43:19.599319
2289  2023-11-13 13:43:19.631179
2290  2023-11-13 13:43:19.663129
2291  2023-11-13 13:43:19.711072
2292  2023-11-13 13:43:19.742985
2293  2023-11-13 13:43:19.774899
2294  2023-11-13 13:43:19.806815
2295  2023-11-13 13:43:19.838748
2296  2023-11-13 13:43:19.870647
2297  2023-11-13 13:43:19.902561
2298  2023-11-13 13:43:19.934474
2299  2023-11-13 13:43:19.967392
2300  2023-11-13 13:43:19.999304
2301  2023-11-13 13:43:20.031220
2302  2023-11-13 13:43:20.063130
2303  2023-11-13 13:43:20.111006
2304  2023-11-13 13:43:20.142916
2305  2023-11-13 13:43:20.174841
2306  2023-11-13 13:43:20.206751
2307  2023-11-13 13:43:20.238660
2308  2023-11-13 13:43:20.270575
2309  2023-11-13 13:43:20.302490
2310  2023-11-13 13:43:20.334404
2311  2023-11-13 13:43:20.367310
2312  2023-11-13 13:43:20.399230
2313  2023-11-13 13:43:20.431148
2314  2023-11-13 13:43:20.463029
2315  2023-11-13 13:43:20.510933
2316  2023-11-13 13:43:20.542848
2317  2023-11-13 13:43:20.574763
2318  2023-11-13 13:43:20.606689
2319  2023-11-13 13:43:20.638592
2320  2023-11-13 13:43:20.670511
2321  2023-11-13 13:43:20.702425
2322  2023-11-13 13:43:20.734342
2323  2023-11-13 13:43:20.767246
2324  2023-11-13 13:43:20.799162
2325  2023-11-13 13:43:20.831080
2326  2023-11-13 13:43:20.862991
2327  2023-11-13 13:43:20.910867
2328  2023-11-13 13:43:20.942783
2329  2023-11-13 13:43:20.974696
2330  2023-11-13 13:43:21.006615
2331  2023-11-13 13:43:21.038568
2332  2023-11-13 13:43:21.070488
2333  2023-11-13 13:43:21.102463
2334  2023-11-13 13:43:21.134371
2335  2023-11-13 13:43:21.167296
2336  2023-11-13 13:43:21.199200
2337  2023-11-13 13:43:21.231115
2338  2023-11-13 13:43:21.263031
2339  2023-11-13 13:43:21.310893
2340  2023-11-13 13:43:21.342824
2341  2023-11-13 13:43:21.374698
2342  2023-11-13 13:43:21.406645
2343  2023-11-13 13:43:21.438559
2344  2023-11-13 13:43:21.470472
2345  2023-11-13 13:43:21.503406
2346  2023-11-13 13:43:21.535300
2347  2023-11-13 13:43:21.567215
2348  2023-11-13 13:43:21.599153
2349  2023-11-13 13:43:21.631014
2350  2023-11-13 13:43:21.662964
2351  2023-11-13 13:43:21.710833
2352  2023-11-13 13:43:21.742759
2353  2023-11-13 13:43:21.774693
2354  2023-11-13 13:43:21.806582
2355  2023-11-13 13:43:21.838494
2356  2023-11-13 13:43:21.870404
2357  2023-11-13 13:43:21.903315
2358  2023-11-13 13:43:21.935234
2359  2023-11-13 13:43:21.967147
2360  2023-11-13 13:43:21.999061
2361  2023-11-13 13:43:22.030974
2362  2023-11-13 13:43:22.062889
2363  2023-11-13 13:43:22.110777
2364  2023-11-13 13:43:22.142819
2365  2023-11-13 13:43:22.174721
2366  2023-11-13 13:43:22.206638
2367  2023-11-13 13:43:22.238553
2368  2023-11-13 13:43:22.270469
2369  2023-11-13 13:43:22.302386
2370  2023-11-13 13:43:22.335298
2371  2023-11-13 13:43:22.367212
2372  2023-11-13 13:43:22.399091
2373  2023-11-13 13:43:22.431038
2374  2023-11-13 13:43:22.462960
2375  2023-11-13 13:43:22.510827
2376  2023-11-13 13:43:22.542828
2377  2023-11-13 13:43:22.574743
2378  2023-11-13 13:43:22.607169
2379  2023-11-13 13:43:22.639082
2380  2023-11-13 13:43:22.670998
2381  2023-11-13 13:43:22.702917
2382  2023-11-13 13:43:22.734837
2383  2023-11-13 13:43:22.766741
2384  2023-11-13 13:43:22.798702
2385  2023-11-13 13:43:22.830650
2386  2023-11-13 13:43:22.862561
2387  2023-11-13 13:43:22.910437
2388  2023-11-13 13:43:22.942419
2389  2023-11-13 13:43:22.975330
2390  2023-11-13 13:43:23.007263
2391  2023-11-13 13:43:23.039158
2392  2023-11-13 13:43:23.071073
2393  2023-11-13 13:43:23.102989
2394  2023-11-13 13:43:23.134903
2395  2023-11-13 13:43:23.166833
2396  2023-11-13 13:43:23.198732
2397  2023-11-13 13:43:23.230648
2398  2023-11-13 13:43:23.263555
2399  2023-11-13 13:43:23.311433
2400  2023-11-13 13:43:23.343369
2401  2023-11-13 13:43:23.375269
2402  2023-11-13 13:43:23.407178
2403  2023-11-13 13:43:23.439093
2404  2023-11-13 13:43:23.470985
2405  2023-11-13 13:43:23.502941
2406  2023-11-13 13:43:23.534837
2407  2023-11-13 13:43:23.566748
2408  2023-11-13 13:43:23.598671
2409  2023-11-13 13:43:23.630623
2410  2023-11-13 13:43:23.663458
2411  2023-11-13 13:43:23.710367
2412  2023-11-13 13:43:23.743268
2413  2023-11-13 13:43:23.774727
2414  2023-11-13 13:43:23.806708
2415  2023-11-13 13:43:23.838655
2416  2023-11-13 13:43:23.870605
2417  2023-11-13 13:43:23.902554
2418  2023-11-13 13:43:23.934473
2419  2023-11-13 13:43:23.966393
2420  2023-11-13 13:43:23.999310
2421  2023-11-13 13:43:24.031178
2422  2023-11-13 13:43:24.063131
2423  2023-11-13 13:43:24.110998
2424  2023-11-13 13:43:24.142911
2425  2023-11-13 13:43:24.174827
2426  2023-11-13 13:43:24.206740
2427  2023-11-13 13:43:24.238666
2428  2023-11-13 13:43:24.270577
2429  2023-11-13 13:43:24.302488
2430  2023-11-13 13:43:24.334407
2431  2023-11-13 13:43:24.367331
2432  2023-11-13 13:43:24.399226
2433  2023-11-13 13:43:24.431268
2434  2023-11-13 13:43:24.463183
2435  2023-11-13 13:43:24.511055
2436  2023-11-13 13:43:24.542970
2437  2023-11-13 13:43:24.574917
2438  2023-11-13 13:43:24.606832
2439  2023-11-13 13:43:24.638746
2440  2023-11-13 13:43:24.670666
2441  2023-11-13 13:43:24.702576
2442  2023-11-13 13:43:24.734497
2443  2023-11-13 13:43:24.767403
2444  2023-11-13 13:43:24.799316
2445  2023-11-13 13:43:24.831199
2446  2023-11-13 13:43:24.863114
2447  2023-11-13 13:43:24.910986
2448  2023-11-13 13:43:24.942901
2449  2023-11-13 13:43:24.974847
2450  2023-11-13 13:43:25.006793
2451  2023-11-13 13:43:25.038679
2452  2023-11-13 13:43:25.070559
2453  2023-11-13 13:43:25.102507
2454  2023-11-13 13:43:25.134425
2455  2023-11-13 13:43:25.167333
2456  2023-11-13 13:43:25.199249
2457  2023-11-13 13:43:25.231161
2458  2023-11-13 13:43:25.263045
2459  2023-11-13 13:43:25.310956
2460  2023-11-13 13:43:25.342905
2461  2023-11-13 13:43:25.374858
2462  2023-11-13 13:43:25.406769
2463  2023-11-13 13:43:25.438704
2464  2023-11-13 13:43:25.470564
2465  2023-11-13 13:43:25.502478
2466  2023-11-13 13:43:25.534430
2467  2023-11-13 13:43:25.567353
2468  2023-11-13 13:43:25.599261
2469  2023-11-13 13:43:25.631216
2470  2023-11-13 13:43:25.663129
2471  2023-11-13 13:43:25.711088
2472  2023-11-13 13:43:25.742969
2473  2023-11-13 13:43:25.774884
2474  2023-11-13 13:43:25.806848
2475  2023-11-13 13:43:25.838748
2476  2023-11-13 13:43:25.870671
2477  2023-11-13 13:43:25.902543
2478  2023-11-13 13:43:25.934457
2479  2023-11-13 13:43:25.967375
2480  2023-11-13 13:43:25.999284
2481  2023-11-13 13:43:26.031231
2482  2023-11-13 13:43:26.063113
2483  2023-11-13 13:43:26.111011
2484  2023-11-13 13:43:26.142900
2485  2023-11-13 13:43:26.174818
2486  2023-11-13 13:43:26.206786
2487  2023-11-13 13:43:26.238676
2488  2023-11-13 13:43:26.270601
2489  2023-11-13 13:43:26.302504
2490  2023-11-13 13:43:26.334388
2491  2023-11-13 13:43:26.367301
2492  2023-11-13 13:43:26.399215
2493  2023-11-13 13:43:26.431171
2494  2023-11-13 13:43:26.463044
2495  2023-11-13 13:43:26.510962
2496  2023-11-13 13:43:26.542964
2497  2023-11-13 13:43:26.574879
2498  2023-11-13 13:43:26.606842
2499  2023-11-13 13:43:26.638741
2500  2023-11-13 13:43:26.670685
2501  2023-11-13 13:43:26.702538
2502  2023-11-13 13:43:26.734452
2503  2023-11-13 13:43:26.767372
2504  2023-11-13 13:43:26.799279
2505  2023-11-13 13:43:26.831194
2506  2023-11-13 13:43:26.863108
2507  2023-11-13 13:43:26.910981
2508  2023-11-13 13:43:26.942895
2509  2023-11-13 13:43:26.974810
2510  2023-11-13 13:43:27.006725
2511  2023-11-13 13:43:27.038639
2512  2023-11-13 13:43:27.070588
2513  2023-11-13 13:43:27.102468
2514  2023-11-13 13:43:27.134428
2515  2023-11-13 13:43:27.167295
2516  2023-11-13 13:43:27.199210
2517  2023-11-13 13:43:27.231125
2518  2023-11-13 13:43:27.263042
2519  2023-11-13 13:43:27.310911
2520  2023-11-13 13:43:27.342866
2521  2023-11-13 13:43:27.374741
2522  2023-11-13 13:43:27.406655
2523  2023-11-13 13:43:27.438570
2524  2023-11-13 13:43:27.470527
2525  2023-11-13 13:43:27.502399
2526  2023-11-13 13:43:27.535311
2527  2023-11-13 13:43:27.567226
2528  2023-11-13 13:43:27.599179
2529  2023-11-13 13:43:27.631089
2530  2023-11-13 13:43:27.662970
2531  2023-11-13 13:43:27.710842
2532  2023-11-13 13:43:27.742757
2533  2023-11-13 13:43:27.774672
2534  2023-11-13 13:43:27.806620
2535  2023-11-13 13:43:27.838501
2536  2023-11-13 13:43:27.870416
2537  2023-11-13 13:43:27.902330
2538  2023-11-13 13:43:27.935242
2539  2023-11-13 13:43:27.967157
2540  2023-11-13 13:43:27.999071
2541  2023-11-13 13:43:28.030986
2542  2023-11-13 13:43:28.062901
2543  2023-11-13 13:43:28.110773
2544  2023-11-13 13:43:28.142719
2545  2023-11-13 13:43:28.174602
2546  2023-11-13 13:43:28.206517
2547  2023-11-13 13:43:28.238469
2548  2023-11-13 13:43:28.271344
2549  2023-11-13 13:43:28.303258
2550  2023-11-13 13:43:28.335173
2551  2023-11-13 13:43:28.367256
2552  2023-11-13 13:43:28.399171
2553  2023-11-13 13:43:28.431086
2554  2023-11-13 13:43:28.463001
2555  2023-11-13 13:43:28.510873
2556  2023-11-13 13:43:28.542821
2557  2023-11-13 13:43:28.574702
2558  2023-11-13 13:43:28.606617
2559  2023-11-13 13:43:28.639563
2560  2023-11-13 13:43:28.671487
2561  2023-11-13 13:43:28.702361
2562  2023-11-13 13:43:28.735222
2563  2023-11-13 13:43:28.767138
2564  2023-11-13 13:43:28.799075
2565  2023-11-13 13:43:28.830996
2566  2023-11-13 13:43:28.862872
2567  2023-11-13 13:43:28.910811
2568  2023-11-13 13:43:28.942726
2569  2023-11-13 13:43:28.974640
2570  2023-11-13 13:43:29.006556
2571  2023-11-13 13:43:29.038469
2572  2023-11-13 13:43:29.071382
2573  2023-11-13 13:43:29.103296
2574  2023-11-13 13:43:29.135211
2575  2023-11-13 13:43:29.167125
2576  2023-11-13 13:43:29.199040
2577  2023-11-13 13:43:29.230954
2578  2023-11-13 13:43:29.262899
2579  2023-11-13 13:43:29.310778
2580  2023-11-13 13:43:29.342698
2581  2023-11-13 13:43:29.374570
2582  2023-11-13 13:43:29.406485
2583  2023-11-13 13:43:29.438442
2584  2023-11-13 13:43:29.470357
2585  2023-11-13 13:43:29.503227
2586  2023-11-13 13:43:29.535285
2587  2023-11-13 13:43:29.567199
2588  2023-11-13 13:43:29.599204
2589  2023-11-13 13:43:29.631126
2590  2023-11-13 13:43:29.663041
2591  2023-11-13 13:43:29.710913
2592  2023-11-13 13:43:29.742827
2593  2023-11-13 13:43:29.774742
2594  2023-11-13 13:43:29.806657
2595  2023-11-13 13:43:29.838571
2596  2023-11-13 13:43:29.870486
2597  2023-11-13 13:43:29.903399
2598  2023-11-13 13:43:29.935313
2599  2023-11-13 13:43:29.967227
2600  2023-11-13 13:43:29.999142
2601  2023-11-13 13:43:30.031057
2602  2023-11-13 13:43:30.062972
2603  2023-11-13 13:43:30.110844
2604  2023-11-13 13:43:30.142864
2605  2023-11-13 13:43:30.174717
2606  2023-11-13 13:43:30.206668
2607  2023-11-13 13:43:30.238593
2608  2023-11-13 13:43:30.270712
2609  2023-11-13 13:43:30.302573
2610  2023-11-13 13:43:30.334528
2611  2023-11-13 13:43:30.366443
2612  2023-11-13 13:43:30.399355
2613  2023-11-13 13:43:30.430321
2614  2023-11-13 13:43:30.463275
2615  2023-11-13 13:43:30.511180
2616  2023-11-13 13:43:30.543154
2617  2023-11-13 13:43:30.575124
2618  2023-11-13 13:43:30.618067
2619  2023-11-13 13:43:30.638954
2620  2023-11-13 13:43:30.670868
2621  2023-11-13 13:43:30.702783
2622  2023-11-13 13:43:30.734698
2623  2023-11-13 13:43:30.766612
2624  2023-11-13 13:43:30.798527
2625  2023-11-13 13:43:30.830595
2626  2023-11-13 13:43:30.862510
2627  2023-11-13 13:43:30.910373
2628  2023-11-13 13:43:30.942592
2629  2023-11-13 13:43:30.974464
2630  2023-11-13 13:43:31.006491
2631  2023-11-13 13:43:31.039364
2632  2023-11-13 13:43:31.071331
2633  2023-11-13 13:43:31.103282
2634  2023-11-13 13:43:31.134475
2635  2023-11-13 13:43:31.166389
2636  2023-11-13 13:43:31.198348
2637  2023-11-13 13:43:31.231261
2638  2023-11-13 13:43:31.263175
2639  2023-11-13 13:43:31.311047
2640  2023-11-13 13:43:31.343073
2641  2023-11-13 13:43:31.374978
2642  2023-11-13 13:43:31.406893
2643  2023-11-13 13:43:31.438808
2644  2023-11-13 13:43:31.470627
2645  2023-11-13 13:43:31.502638
2646  2023-11-13 13:43:31.534633
2647  2023-11-13 13:43:31.566631
2648  2023-11-13 13:43:31.598588
2649  2023-11-13 13:43:31.630498
2650  2023-11-13 13:43:31.663373
2651  2023-11-13 13:43:31.711245
2652  2023-11-13 13:43:31.743325
2653  2023-11-13 13:43:31.774349
2654  2023-11-13 13:43:31.807340
2655  2023-11-13 13:43:31.839297
2656  2023-11-13 13:43:31.871211
2657  2023-11-13 13:43:31.903126
2658  2023-11-13 13:43:31.935075
2659  2023-11-13 13:43:31.966988
2660  2023-11-13 13:43:31.998870
2661  2023-11-13 13:43:32.030797
2662  2023-11-13 13:43:32.062875
2663  2023-11-13 13:43:32.110710
2664  2023-11-13 13:43:32.142671
2665  2023-11-13 13:43:32.174580
2666  2023-11-13 13:43:32.206453
2667  2023-11-13 13:43:32.238475
2668  2023-11-13 13:43:32.270433
2669  2023-11-13 13:43:32.303302
2670  2023-11-13 13:43:32.335216
2671  2023-11-13 13:43:32.367131
2672  2023-11-13 13:43:32.399046
2673  2023-11-13 13:43:32.431077
2674  2023-11-13 13:43:32.462992
2675  2023-11-13 13:43:32.510903
2676  2023-11-13 13:43:32.542779
2677  2023-11-13 13:43:32.574693
2678  2023-11-13 13:43:32.606608
2679  2023-11-13 13:43:32.638522
2680  2023-11-13 13:43:32.670437
2681  2023-11-13 13:43:32.703349
2682  2023-11-13 13:43:32.735304
2683  2023-11-13 13:43:32.767219
2684  2023-11-13 13:43:32.799133
2685  2023-11-13 13:43:32.831048
2686  2023-11-13 13:43:32.862963
2687  2023-11-13 13:43:32.910835
2688  2023-11-13 13:43:32.942749
2689  2023-11-13 13:43:32.974664
2690  2023-11-13 13:43:33.006609
2691  2023-11-13 13:43:33.038493
2692  2023-11-13 13:43:33.070518
2693  2023-11-13 13:43:33.102432
2694  2023-11-13 13:43:33.134386
2695  2023-11-13 13:43:33.167264
2696  2023-11-13 13:43:33.199174
2697  2023-11-13 13:43:33.231089
2698  2023-11-13 13:43:33.263045
2699  2023-11-13 13:43:33.310908
2700  2023-11-13 13:43:33.342854
2701  2023-11-13 13:43:33.374705
2702  2023-11-13 13:43:33.406718
2703  2023-11-13 13:43:33.438669
2704  2023-11-13 13:43:33.470582
2705  2023-11-13 13:43:33.502462
2706  2023-11-13 13:43:33.534486
2707  2023-11-13 13:43:33.566401
2708  2023-11-13 13:43:33.599313
2709  2023-11-13 13:43:33.631227
2710  2023-11-13 13:43:33.663142
2711  2023-11-13 13:43:33.711014
2712  2023-11-13 13:43:33.742929
2713  2023-11-13 13:43:33.774898
2714  2023-11-13 13:43:33.806871
2715  2023-11-13 13:43:33.838786
2716  2023-11-13 13:43:33.870701
2717  2023-11-13 13:43:33.902615
2718  2023-11-13 13:43:33.934530
2719  2023-11-13 13:43:33.966445
2720  2023-11-13 13:43:33.999357
2721  2023-11-13 13:43:34.031276
2722  2023-11-13 13:43:34.063307
2723  2023-11-13 13:43:34.111179
2724  2023-11-13 13:43:34.143094
2725  2023-11-13 13:43:34.175011
2726  2023-11-13 13:43:34.206923
2727  2023-11-13 13:43:34.238838
2728  2023-11-13 13:43:34.270815
2729  2023-11-13 13:43:34.302831
2730  2023-11-13 13:43:34.334676
2731  2023-11-13 13:43:34.366591
2732  2023-11-13 13:43:34.398506
2733  2023-11-13 13:43:34.431452
2734  2023-11-13 13:43:34.463332
2735  2023-11-13 13:43:34.511249
2736  2023-11-13 13:43:34.543119
2737  2023-11-13 13:43:34.576062
2738  2023-11-13 13:43:34.606949
2739  2023-11-13 13:43:34.638898
2740  2023-11-13 13:43:34.671811
2741  2023-11-13 13:43:34.704723
2742  2023-11-13 13:43:34.736636
2743  2023-11-13 13:43:34.767550
2744  2023-11-13 13:43:34.800474
2745  2023-11-13 13:43:34.832384
2746  2023-11-13 13:43:34.864305
2747  2023-11-13 13:43:34.912163
2748  2023-11-13 13:43:34.944078
2749  2023-11-13 13:43:34.975995
2750  2023-11-13 13:43:35.007918
2751  2023-11-13 13:43:35.039826
2752  2023-11-13 13:43:35.071785
2753  2023-11-13 13:43:35.103847
2754  2023-11-13 13:43:35.135867
2755  2023-11-13 13:43:35.167783
2756  2023-11-13 13:43:35.199694
2757  2023-11-13 13:43:35.231601
2758  2023-11-13 13:43:35.264480
2759  2023-11-13 13:43:35.311412
2760  2023-11-13 13:43:35.344267
2761  2023-11-13 13:43:35.376215
2762  2023-11-13 13:43:35.408131
2763  2023-11-13 13:43:35.440041
2764  2023-11-13 13:43:35.471977
2765  2023-11-13 13:43:35.503874
2766  2023-11-13 13:43:35.535789
2767  2023-11-13 13:43:35.567706
2768  2023-11-13 13:43:35.599615
2769  2023-11-13 13:43:35.631537
2770  2023-11-13 13:43:35.663450
2771  2023-11-13 13:43:35.711313
2772  2023-11-13 13:43:35.743239
2773  2023-11-13 13:43:35.775146
2774  2023-11-13 13:43:35.807062
2775  2023-11-13 13:43:35.838978
2776  2023-11-13 13:43:35.870890
2777  2023-11-13 13:43:35.903771
2778  2023-11-13 13:43:35.934728
2779  2023-11-13 13:43:35.966635
2780  2023-11-13 13:43:35.998518
2781  2023-11-13 13:43:36.031463
2782  2023-11-13 13:43:36.063391
2783  2023-11-13 13:43:36.111267
2784  2023-11-13 13:43:36.143165
2785  2023-11-13 13:43:36.175086
2786  2023-11-13 13:43:36.206993
2787  2023-11-13 13:43:36.238875
2788  2023-11-13 13:43:36.270830
2789  2023-11-13 13:43:36.302737
2790  2023-11-13 13:43:36.334654
2791  2023-11-13 13:43:36.366570
2792  2023-11-13 13:43:36.398483
2793  2023-11-13 13:43:36.430396
2794  2023-11-13 13:43:36.463307
2795  2023-11-13 13:43:36.511182
2796  2023-11-13 13:43:36.543097
2797  2023-11-13 13:43:36.575006
2798  2023-11-13 13:43:36.606926
2799  2023-11-13 13:43:36.638843
2800  2023-11-13 13:43:36.670771
2801  2023-11-13 13:43:36.702670
2802  2023-11-13 13:43:36.734693
2803  2023-11-13 13:43:36.766499
2804  2023-11-13 13:43:36.799410
2805  2023-11-13 13:43:36.832321
2806  2023-11-13 13:43:36.863207
2807  2023-11-13 13:43:36.911110
2808  2023-11-13 13:43:36.942993
2809  2023-11-13 13:43:36.974939
2810  2023-11-13 13:43:37.006859
2811  2023-11-13 13:43:37.038850
2812  2023-11-13 13:43:37.071764
2813  2023-11-13 13:43:37.103678
2814  2023-11-13 13:43:37.134593
2815  2023-11-13 13:43:37.166509
2816  2023-11-13 13:43:37.200417
2817  2023-11-13 13:43:37.232335
2818  2023-11-13 13:43:37.264270
2819  2023-11-13 13:43:37.312121
2820  2023-11-13 13:43:37.345033
2821  2023-11-13 13:43:37.374978
2822  2023-11-13 13:43:37.406865
2823  2023-11-13 13:43:37.438806
2824  2023-11-13 13:43:37.471661
2825  2023-11-13 13:43:37.502611
2826  2023-11-13 13:43:37.534536
2827  2023-11-13 13:43:37.566408
2828  2023-11-13 13:43:37.600367
2829  2023-11-13 13:43:37.632277
2830  2023-11-13 13:43:37.663182
2831  2023-11-13 13:43:37.711053
2832  2023-11-13 13:43:37.743964
2833  2023-11-13 13:43:37.774882
2834  2023-11-13 13:43:37.806766
2835  2023-11-13 13:43:37.839708
2836  2023-11-13 13:43:37.871626
2837  2023-11-13 13:43:37.903537
2838  2023-11-13 13:43:37.934456
2839  2023-11-13 13:43:37.966397
2840  2023-11-13 13:43:37.999420
2841  2023-11-13 13:43:38.031334
2842  2023-11-13 13:43:38.063247
2843  2023-11-13 13:43:38.111118
2844  2023-11-13 13:43:38.143042
2845  2023-11-13 13:43:38.174918
2846  2023-11-13 13:43:38.206863
2847  2023-11-13 13:43:38.238792
2848  2023-11-13 13:43:38.271695
2849  2023-11-13 13:43:38.303574
2850  2023-11-13 13:43:38.335518
2851  2023-11-13 13:43:38.366439
2852  2023-11-13 13:43:38.399364
2853  2023-11-13 13:43:38.431269
2854  2023-11-13 13:43:38.463177
2855  2023-11-13 13:43:38.511050
2856  2023-11-13 13:43:38.542964
2857  2023-11-13 13:43:38.574884
2858  2023-11-13 13:43:38.606814
2859  2023-11-13 13:43:38.639753
2860  2023-11-13 13:43:38.670628
2861  2023-11-13 13:43:38.703505
2862  2023-11-13 13:43:38.735467
2863  2023-11-13 13:43:38.767333
2864  2023-11-13 13:43:38.799277
2865  2023-11-13 13:43:38.831120
2866  2023-11-13 13:43:38.863087
2867  2023-11-13 13:43:38.910959
2868  2023-11-13 13:43:38.942879
2869  2023-11-13 13:43:38.974795
2870  2023-11-13 13:43:39.006708
2871  2023-11-13 13:43:39.038637
2872  2023-11-13 13:43:39.070534
2873  2023-11-13 13:43:39.102447
2874  2023-11-13 13:43:39.135327
2875  2023-11-13 13:43:39.167240
2876  2023-11-13 13:43:39.199155
2877  2023-11-13 13:43:39.231103
2878  2023-11-13 13:43:39.263022
2879  2023-11-13 13:43:39.310858
2880  2023-11-13 13:43:39.342808
2881  2023-11-13 13:43:39.374722
2882  2023-11-13 13:43:39.406649
2883  2023-11-13 13:43:39.438547
2884  2023-11-13 13:43:39.470463
2885  2023-11-13 13:43:39.502377
2886  2023-11-13 13:43:39.535258
2887  2023-11-13 13:43:39.567203
2888  2023-11-13 13:43:39.599117
2889  2023-11-13 13:43:39.631035
2890  2023-11-13 13:43:39.662916
2891  2023-11-13 13:43:39.710832
2892  2023-11-13 13:43:39.742749
2893  2023-11-13 13:43:39.774650
2894  2023-11-13 13:43:39.806569
2895  2023-11-13 13:43:39.838484
2896  2023-11-13 13:43:39.871398
2897  2023-11-13 13:43:39.903309
2898  2023-11-13 13:43:39.935189
2899  2023-11-13 13:43:39.967102
2900  2023-11-13 13:43:39.999018
2901  2023-11-13 13:43:40.030964
2902  2023-11-13 13:43:40.062879
2903  2023-11-13 13:43:40.110756
2904  2023-11-13 13:43:40.142666
2905  2023-11-13 13:43:40.174581
2906  2023-11-13 13:43:40.206504
2907  2023-11-13 13:43:40.238410
2908  2023-11-13 13:43:40.271320
2909  2023-11-13 13:43:40.303212
2910  2023-11-13 13:43:40.335149
2911  2023-11-13 13:43:40.367033
2912  2023-11-13 13:43:40.398979
2913  2023-11-13 13:43:40.430862
2914  2023-11-13 13:43:40.462818
2915  2023-11-13 13:43:40.510695
2916  2023-11-13 13:43:40.542595
2917  2023-11-13 13:43:40.574516
2918  2023-11-13 13:43:40.606430
2919  2023-11-13 13:43:40.639342
2920  2023-11-13 13:43:40.671258
2921  2023-11-13 13:43:40.703166
2922  2023-11-13 13:43:40.735080
2923  2023-11-13 13:43:40.766998
2924  2023-11-13 13:43:40.798880
2925  2023-11-13 13:43:40.830793
2926  2023-11-13 13:43:40.862738
2927  2023-11-13 13:43:40.910613
2928  2023-11-13 13:43:40.942528
2929  2023-11-13 13:43:40.974442
2930  2023-11-13 13:43:41.007355
2931  2023-11-13 13:43:41.039270
2932  2023-11-13 13:43:41.071261
2933  2023-11-13 13:43:41.103187
2934  2023-11-13 13:43:41.135184
2935  2023-11-13 13:43:41.167098
2936  2023-11-13 13:43:41.198980
2937  2023-11-13 13:43:41.230931
2938  2023-11-13 13:43:41.262844
2939  2023-11-13 13:43:41.310718
2940  2023-11-13 13:43:41.342629
2941  2023-11-13 13:43:41.374512
2942  2023-11-13 13:43:41.406459
2943  2023-11-13 13:43:41.439364
2944  2023-11-13 13:43:41.471283
2945  2023-11-13 13:43:41.503198
2946  2023-11-13 13:43:41.535111
2947  2023-11-13 13:43:41.567026
2948  2023-11-13 13:43:41.598911
2949  2023-11-13 13:43:41.630856
2950  2023-11-13 13:43:41.662782
2951  2023-11-13 13:43:41.710644
2952  2023-11-13 13:43:41.742563
2953  2023-11-13 13:43:41.774482
2954  2023-11-13 13:43:41.806389
2955  2023-11-13 13:43:41.839331
2956  2023-11-13 13:43:41.871214
2957  2023-11-13 13:43:41.903129
2958  2023-11-13 13:43:41.935051
2959  2023-11-13 13:43:41.966958
2960  2023-11-13 13:43:41.998841
2961  2023-11-13 13:43:42.030756
2962  2023-11-13 13:43:42.062792
2963  2023-11-13 13:43:42.110589
2964  2023-11-13 13:43:42.142493
2965  2023-11-13 13:43:42.175400
2966  2023-11-13 13:43:42.207318
2967  2023-11-13 13:43:42.239235
2968  2023-11-13 13:43:42.271145
2969  2023-11-13 13:43:42.303059
2970  2023-11-13 13:43:42.334973
2971  2023-11-13 13:43:42.366888
2972  2023-11-13 13:43:42.399809
2973  2023-11-13 13:43:42.430718
2974  2023-11-13 13:43:42.462636
2975  2023-11-13 13:43:42.511511
2976  2023-11-13 13:43:42.542421
2977  2023-11-13 13:43:42.575350
2978  2023-11-13 13:43:42.607248
2979  2023-11-13 13:43:42.639170
2980  2023-11-13 13:43:42.671044
2981  2023-11-13 13:43:42.702990
2982  2023-11-13 13:43:42.734905
2983  2023-11-13 13:43:42.766830
2984  2023-11-13 13:43:42.798703
2985  2023-11-13 13:43:42.830617
2986  2023-11-13 13:43:42.862570
2987  2023-11-13 13:43:42.910406
2988  2023-11-13 13:43:42.942352
2989  2023-11-13 13:43:42.975265
2990  2023-11-13 13:43:43.007184
2991  2023-11-13 13:43:43.039093
2992  2023-11-13 13:43:43.071008
2993  2023-11-13 13:43:43.102922
2994  2023-11-13 13:43:43.134844
2995  2023-11-13 13:43:43.166750
2996  2023-11-13 13:43:43.198666
2997  2023-11-13 13:43:43.230582
2998  2023-11-13 13:43:43.262493
2999  2023-11-13 13:43:43.311379
3000  2023-11-13 13:43:43.343298
3001  2023-11-13 13:43:43.375198
3002  2023-11-13 13:43:43.407108
3003  2023-11-13 13:43:43.439022
3004  2023-11-13 13:43:43.470946
3005  2023-11-13 13:43:43.502834
3006  2023-11-13 13:43:43.534781
3007  2023-11-13 13:43:43.566685
3008  2023-11-13 13:43:43.598598
3009  2023-11-13 13:43:43.631478
3010  2023-11-13 13:43:43.663392
3011  2023-11-13 13:43:43.711319
3012  2023-11-13 13:43:43.743212
3013  2023-11-13 13:43:43.775129
3014  2023-11-13 13:43:43.807007
3015  2023-11-13 13:43:43.838962
3016  2023-11-13 13:43:43.870838
3017  2023-11-13 13:43:43.902752
3018  2023-11-13 13:43:43.934713
3019  2023-11-13 13:43:43.966617
3020  2023-11-13 13:43:43.998532
3021  2023-11-13 13:43:44.030411
3022  2023-11-13 13:43:44.063356
3023  2023-11-13 13:43:44.111227
3024  2023-11-13 13:43:44.143140
3025  2023-11-13 13:43:44.175058
3026  2023-11-13 13:43:44.206974
3027  2023-11-13 13:43:44.238887
3028  2023-11-13 13:43:44.270798
3029  2023-11-13 13:43:44.302683
3030  2023-11-13 13:43:44.334633
3031  2023-11-13 13:43:44.366546
3032  2023-11-13 13:43:44.399454
3033  2023-11-13 13:43:44.431339
3034  2023-11-13 13:43:44.463254
3035  2023-11-13 13:43:44.511156
3036  2023-11-13 13:43:44.543063
3037  2023-11-13 13:43:44.574989
3038  2023-11-13 13:43:44.606901
3039  2023-11-13 13:43:44.638817
3040  2023-11-13 13:43:44.670716
3041  2023-11-13 13:43:44.702643
3042  2023-11-13 13:43:44.734566
3043  2023-11-13 13:43:44.766473
3044  2023-11-13 13:43:44.799405
3045  2023-11-13 13:43:44.831270
3046  2023-11-13 13:43:44.863185
3047  2023-11-13 13:43:44.911057
3048  2023-11-13 13:43:44.942972
3049  2023-11-13 13:43:44.974889
3050  2023-11-13 13:43:45.006838
3051  2023-11-13 13:43:45.038757
3052  2023-11-13 13:43:45.070663
3053  2023-11-13 13:43:45.102577
3054  2023-11-13 13:43:45.134494
3055  2023-11-13 13:43:45.167370
3056  2023-11-13 13:43:45.199285
3057  2023-11-13 13:43:45.231200
3058  2023-11-13 13:43:45.263114
3059  2023-11-13 13:43:45.310986
3060  2023-11-13 13:43:45.342902
3061  2023-11-13 13:43:45.374826
3062  2023-11-13 13:43:45.406777
3063  2023-11-13 13:43:45.438692
3064  2023-11-13 13:43:45.470561
3065  2023-11-13 13:43:45.502476
3066  2023-11-13 13:43:45.534431
3067  2023-11-13 13:43:45.567333
3068  2023-11-13 13:43:45.599247
3069  2023-11-13 13:43:45.631173
3070  2023-11-13 13:43:45.663047
3071  2023-11-13 13:43:45.710954
3072  2023-11-13 13:43:45.742833
3073  2023-11-13 13:43:45.774778
3074  2023-11-13 13:43:45.806702
3075  2023-11-13 13:43:45.839574
3076  2023-11-13 13:43:45.870524
3077  2023-11-13 13:43:45.903411
3078  2023-11-13 13:43:45.935319
3079  2023-11-13 13:43:45.966362
3080  2023-11-13 13:43:45.999274
3081  2023-11-13 13:43:46.031140
3082  2023-11-13 13:43:46.063171
3083  2023-11-13 13:43:46.111075
3084  2023-11-13 13:43:46.142991
3085  2023-11-13 13:43:46.174905
3086  2023-11-13 13:43:46.206819
3087  2023-11-13 13:43:46.238733
3088  2023-11-13 13:43:46.270651
3089  2023-11-13 13:43:46.302561
3090  2023-11-13 13:43:46.335443
3091  2023-11-13 13:43:46.366563
3092  2023-11-13 13:43:46.399474
3093  2023-11-13 13:43:46.430553
3094  2023-11-13 13:43:46.462418
3095  2023-11-13 13:43:46.511324
3096  2023-11-13 13:43:46.543202
3097  2023-11-13 13:43:46.575116
3098  2023-11-13 13:43:46.607063
3099  2023-11-13 13:43:46.638982
3100  2023-11-13 13:43:46.670891
3101  2023-11-13 13:43:46.702775
3102  2023-11-13 13:43:46.734690
3103  2023-11-13 13:43:46.766771
3104  2023-11-13 13:43:46.798678
3105  2023-11-13 13:43:46.830581
3106  2023-11-13 13:43:46.862470
3107  2023-11-13 13:43:46.911339
3108  2023-11-13 13:43:46.943254
3109  2023-11-13 13:43:46.975169
3110  2023-11-13 13:43:47.007084
3111  2023-11-13 13:43:47.038998
3112  2023-11-13 13:43:47.070944
3113  2023-11-13 13:43:47.102827
3114  2023-11-13 13:43:47.134746
3115  2023-11-13 13:43:47.166697
3116  2023-11-13 13:43:47.199569
3117  2023-11-13 13:43:47.231484
3118  2023-11-13 13:43:47.263398
3119  2023-11-13 13:43:47.311286
3120  2023-11-13 13:43:47.343185
3121  2023-11-13 13:43:47.375100
3122  2023-11-13 13:43:47.407014
3123  2023-11-13 13:43:47.438929
3124  2023-11-13 13:43:47.470876
3125  2023-11-13 13:43:47.502787
3126  2023-11-13 13:43:47.535670
3127  2023-11-13 13:43:47.566625
3128  2023-11-13 13:43:47.598541
3129  2023-11-13 13:43:47.630469
3130  2023-11-13 13:43:47.663329
3131  2023-11-13 13:43:47.711201
3132  2023-11-13 13:43:47.743116
3133  2023-11-13 13:43:47.775030
3134  2023-11-13 13:43:47.806976
3135  2023-11-13 13:43:47.838894
3136  2023-11-13 13:43:47.870787
3137  2023-11-13 13:43:47.902784
3138  2023-11-13 13:43:47.934732
3139  2023-11-13 13:43:47.966822
3140  2023-11-13 13:43:47.998689
3141  2023-11-13 13:43:48.030604
3142  2023-11-13 13:43:48.062518
3143  2023-11-13 13:43:48.110417
3144  2023-11-13 13:43:48.143310
3145  2023-11-13 13:43:48.175218
3146  2023-11-13 13:43:48.207132
3147  2023-11-13 13:43:48.239046
3148  2023-11-13 13:43:48.270961
3149  2023-11-13 13:43:48.302876
3150  2023-11-13 13:43:48.334790
3151  2023-11-13 13:43:48.366780
3152  2023-11-13 13:43:48.399692
3153  2023-11-13 13:43:48.430610
3154  2023-11-13 13:43:48.463672
3155  2023-11-13 13:43:48.511623
3156  2023-11-13 13:43:48.542645
3157  2023-11-13 13:43:48.574580
3158  2023-11-13 13:43:48.606494
3159  2023-11-13 13:43:48.638444
3160  2023-11-13 13:43:48.671354
3161  2023-11-13 13:43:48.703236
3162  2023-11-13 13:43:48.735150
3163  2023-11-13 13:43:48.767101
3164  2023-11-13 13:43:48.799006
3165  2023-11-13 13:43:48.830895
3166  2023-11-13 13:43:48.862809
3167  2023-11-13 13:43:48.910715
3168  2023-11-13 13:43:48.942634
3169  2023-11-13 13:43:48.974547
3170  2023-11-13 13:43:49.006540
3171  2023-11-13 13:43:49.039416
3172  2023-11-13 13:43:49.070333
3173  2023-11-13 13:43:49.103288
3174  2023-11-13 13:43:49.135160
3175  2023-11-13 13:43:49.167074
3176  2023-11-13 13:43:49.198989
3177  2023-11-13 13:43:49.230904
3178  2023-11-13 13:43:49.262822
3179  2023-11-13 13:43:49.311688
3180  2023-11-13 13:43:49.342649
3181  2023-11-13 13:43:49.374520
3182  2023-11-13 13:43:49.407432
3183  2023-11-13 13:43:49.439347
3184  2023-11-13 13:43:49.471304
3185  2023-11-13 13:43:49.503206
3186  2023-11-13 13:43:49.535091
3187  2023-11-13 13:43:49.567005
3188  2023-11-13 13:43:49.598951
3189  2023-11-13 13:43:49.630874
3190  2023-11-13 13:43:49.662749
3191  2023-11-13 13:43:49.710568
3192  2023-11-13 13:43:49.742483
3193  2023-11-13 13:43:49.774398
3194  2023-11-13 13:43:49.807362
3195  2023-11-13 13:43:49.839269
3196  2023-11-13 13:43:49.871139
3197  2023-11-13 13:43:49.903054
3198  2023-11-13 13:43:49.935009
3199  2023-11-13 13:43:49.966918
3200  2023-11-13 13:43:49.998798
3201  2023-11-13 13:43:50.030712
3202  2023-11-13 13:43:50.062673
3203  2023-11-13 13:43:50.110626
3204  2023-11-13 13:43:50.142582
3205  2023-11-13 13:43:50.174489
3206  2023-11-13 13:43:50.206529
3207  2023-11-13 13:43:50.238444
3208  2023-11-13 13:43:50.270397
3209  2023-11-13 13:43:50.303321
3210  2023-11-13 13:43:50.335185
3211  2023-11-13 13:43:50.367100
3212  2023-11-13 13:43:50.399053
3213  2023-11-13 13:43:50.430963
3214  2023-11-13 13:43:50.462851
3215  2023-11-13 13:43:50.510872
3216  2023-11-13 13:43:50.542758
3217  2023-11-13 13:43:50.574666
3218  2023-11-13 13:43:50.606673
3219  2023-11-13 13:43:50.638588
3220  2023-11-13 13:43:50.670503
3221  2023-11-13 13:43:50.702417
3222  2023-11-13 13:43:50.735330
3223  2023-11-13 13:43:50.767245
3224  2023-11-13 13:43:50.799161
3225  2023-11-13 13:43:50.831074
3226  2023-11-13 13:43:50.863021
3227  2023-11-13 13:43:50.910860
3228  2023-11-13 13:43:50.942775
3229  2023-11-13 13:43:50.974774
3230  2023-11-13 13:43:51.006719
3231  2023-11-13 13:43:51.038601
3232  2023-11-13 13:43:51.070516
3233  2023-11-13 13:43:51.102473
3234  2023-11-13 13:43:51.135343
3235  2023-11-13 13:43:51.167257
3236  2023-11-13 13:43:51.199325
3237  2023-11-13 13:43:51.231240
3238  2023-11-13 13:43:51.263155
3239  2023-11-13 13:43:51.311027
3240  2023-11-13 13:43:51.342941
3241  2023-11-13 13:43:51.374856
3242  2023-11-13 13:43:51.406771
3243  2023-11-13 13:43:51.438685
3244  2023-11-13 13:43:51.470603
3245  2023-11-13 13:43:51.502518
3246  2023-11-13 13:43:51.534572
3247  2023-11-13 13:43:51.566487
3248  2023-11-13 13:43:51.598435
3249  2023-11-13 13:43:51.631352
3250  2023-11-13 13:43:51.663229
3251  2023-11-13 13:43:51.711101
3252  2023-11-13 13:43:51.743015
3253  2023-11-13 13:43:51.774930
3254  2023-11-13 13:43:51.806881
3255  2023-11-13 13:43:51.838813
3256  2023-11-13 13:43:51.870674
3257  2023-11-13 13:43:51.902589
3258  2023-11-13 13:43:51.934554
3259  2023-11-13 13:43:51.966455
3260  2023-11-13 13:43:51.999330
3261  2023-11-13 13:43:52.031245
3262  2023-11-13 13:43:52.063191
3263  2023-11-13 13:43:52.111107
3264  2023-11-13 13:43:52.143054
3265  2023-11-13 13:43:52.174936
3266  2023-11-13 13:43:52.206851
3267  2023-11-13 13:43:52.238773
3268  2023-11-13 13:43:52.270680
3269  2023-11-13 13:43:52.302595
3270  2023-11-13 13:43:52.334509
3271  2023-11-13 13:43:52.366424
3272  2023-11-13 13:43:52.399336
3273  2023-11-13 13:43:52.431251
3274  2023-11-13 13:43:52.463165
3275  2023-11-13 13:43:52.511175
3276  2023-11-13 13:43:52.543089
3277  2023-11-13 13:43:52.575004
3278  2023-11-13 13:43:52.606918
3279  2023-11-13 13:43:52.638833
3280  2023-11-13 13:43:52.670748
3281  2023-11-13 13:43:52.702662
3282  2023-11-13 13:43:52.734577
3283  2023-11-13 13:43:52.766492
3284  2023-11-13 13:43:52.799404
3285  2023-11-13 13:43:52.831319
3286  2023-11-13 13:43:52.863233
3287  2023-11-13 13:43:52.911105
3288  2023-11-13 13:43:52.943052
3289  2023-11-13 13:43:52.974935
3290  2023-11-13 13:43:53.006849
3291  2023-11-13 13:43:53.038769
3292  2023-11-13 13:43:53.070679
3293  2023-11-13 13:43:53.102720
3294  2023-11-13 13:43:53.134634
3295  2023-11-13 13:43:53.166549
3296  2023-11-13 13:43:53.198463
3297  2023-11-13 13:43:53.231376
3298  2023-11-13 13:43:53.263290
3299  2023-11-13 13:43:53.311162
3300  2023-11-13 13:43:53.343204
3301  2023-11-13 13:43:53.375118
3302  2023-11-13 13:43:53.407152
3303  2023-11-13 13:43:53.438948
3304  2023-11-13 13:43:53.470863
3305  2023-11-13 13:43:53.502824
3306  2023-11-13 13:43:53.534692
3307  2023-11-13 13:43:53.566606
3308  2023-11-13 13:43:53.599552
3309  2023-11-13 13:43:53.630469
3310  2023-11-13 13:43:53.663348
3311  2023-11-13 13:43:53.711220
3312  2023-11-13 13:43:53.743135
3313  2023-11-13 13:43:53.775049
3314  2023-11-13 13:43:53.806998
3315  2023-11-13 13:43:53.838912
3316  2023-11-13 13:43:53.870794
3317  2023-11-13 13:43:53.902708
3318  2023-11-13 13:43:53.934653
3319  2023-11-13 13:43:53.966538
3320  2023-11-13 13:43:53.998452
3321  2023-11-13 13:43:54.030367
3322  2023-11-13 13:43:54.063279
3323  2023-11-13 13:43:54.111151
3324  2023-11-13 13:43:54.143065
3325  2023-11-13 13:43:54.174980
3326  2023-11-13 13:43:54.206895
3327  2023-11-13 13:43:54.238809
3328  2023-11-13 13:43:54.270724
3329  2023-11-13 13:43:54.302639
3330  2023-11-13 13:43:54.335561
3331  2023-11-13 13:43:54.366468
3332  2023-11-13 13:43:54.398383
3333  2023-11-13 13:43:54.431295
3334  2023-11-13 13:43:54.463209
3335  2023-11-13 13:43:54.511081
3336  2023-11-13 13:43:54.542996
3337  2023-11-13 13:43:54.574911
3338  2023-11-13 13:43:54.606825
3339  2023-11-13 13:43:54.638740
3340  2023-11-13 13:43:54.670655
3341  2023-11-13 13:43:54.702569
3342  2023-11-13 13:43:54.734562
3343  2023-11-13 13:43:54.767578
3344  2023-11-13 13:43:54.800473
3345  2023-11-13 13:43:54.831343
3346  2023-11-13 13:43:54.864286
3347  2023-11-13 13:43:54.911129
3348  2023-11-13 13:43:54.944076
3349  2023-11-13 13:43:54.975995
3350  2023-11-13 13:43:55.007902
3351  2023-11-13 13:43:55.039818
3352  2023-11-13 13:43:55.072730
3353  2023-11-13 13:43:55.104644
3354  2023-11-13 13:43:55.136558
3355  2023-11-13 13:43:55.168472
3356  2023-11-13 13:43:55.200387
3357  2023-11-13 13:43:55.232300
3358  2023-11-13 13:43:55.264215
3359  2023-11-13 13:43:55.312087
3360  2023-11-13 13:43:55.344001
3361  2023-11-13 13:43:55.375915
3362  2023-11-13 13:43:55.407837
3363  2023-11-13 13:43:55.439745
3364  2023-11-13 13:43:55.471659
3365  2023-11-13 13:43:55.503578
3366  2023-11-13 13:43:55.535490
3367  2023-11-13 13:43:55.567407
3368  2023-11-13 13:43:55.600317
3369  2023-11-13 13:43:55.632232
3370  2023-11-13 13:43:55.664146
3371  2023-11-13 13:43:55.712017
3372  2023-11-13 13:43:55.743934
3373  2023-11-13 13:43:55.775843
3374  2023-11-13 13:43:55.807756
3375  2023-11-13 13:43:55.839679
3376  2023-11-13 13:43:55.871592
3377  2023-11-13 13:43:55.903512
3378  2023-11-13 13:43:55.935420
3379  2023-11-13 13:43:55.967343
3380  2023-11-13 13:43:55.999274
3381  2023-11-13 13:43:56.032283
3382  2023-11-13 13:43:56.063382
3383  2023-11-13 13:43:56.112067
3384  2023-11-13 13:43:56.142985
3385  2023-11-13 13:43:56.175901
3386  2023-11-13 13:43:56.207801
3387  2023-11-13 13:43:56.239732
3388  2023-11-13 13:43:56.271644
3389  2023-11-13 13:43:56.303561
3390  2023-11-13 13:43:56.335471
3391  2023-11-13 13:43:56.367395
3392  2023-11-13 13:43:56.399302
3393  2023-11-13 13:43:56.431221
3394  2023-11-13 13:43:56.463130
3395  2023-11-13 13:43:56.511011
3396  2023-11-13 13:43:56.542917
3397  2023-11-13 13:43:56.574831
3398  2023-11-13 13:43:56.606772
3399  2023-11-13 13:43:56.639670
3400  2023-11-13 13:43:56.670574
3401  2023-11-13 13:43:56.703488
3402  2023-11-13 13:43:56.735403
3403  2023-11-13 13:43:56.767317
3404  2023-11-13 13:43:56.799231
3405  2023-11-13 13:43:56.831152
3406  2023-11-13 13:43:56.863080
3407  2023-11-13 13:43:56.910932
3408  2023-11-13 13:43:56.942853
3409  2023-11-13 13:43:56.974779
3410  2023-11-13 13:43:57.006676
3411  2023-11-13 13:43:57.038591
3412  2023-11-13 13:43:57.070507
3413  2023-11-13 13:43:57.102425
3414  2023-11-13 13:43:57.135322
3415  2023-11-13 13:43:57.167215
3416  2023-11-13 13:43:57.200171
3417  2023-11-13 13:43:57.231075
3418  2023-11-13 13:43:57.262959
3419  2023-11-13 13:43:57.310870
3420  2023-11-13 13:43:57.342788
3421  2023-11-13 13:43:57.374695
3422  2023-11-13 13:43:57.406612
3423  2023-11-13 13:43:57.440540
3424  2023-11-13 13:43:57.471404
3425  2023-11-13 13:43:57.503330
3426  2023-11-13 13:43:57.535264
3427  2023-11-13 13:43:57.567305
3428  2023-11-13 13:43:57.599195
3429  2023-11-13 13:43:57.633115
3430  2023-11-13 13:43:57.663908
3431  2023-11-13 13:43:57.711940
3432  2023-11-13 13:43:57.743908
3433  2023-11-13 13:43:57.774770
3434  2023-11-13 13:43:57.806685
3435  2023-11-13 13:43:57.840598
3436  2023-11-13 13:43:57.872591
3437  2023-11-13 13:43:57.903510
3438  2023-11-13 13:43:57.935421
3439  2023-11-13 13:43:57.966408
3440  2023-11-13 13:43:57.999400
3441  2023-11-13 13:43:58.032308
3442  2023-11-13 13:43:58.064224
3443  2023-11-13 13:43:58.112100
3444  2023-11-13 13:43:58.144014
3445  2023-11-13 13:43:58.174897
3446  2023-11-13 13:43:58.206842
3447  2023-11-13 13:43:58.239757
3448  2023-11-13 13:43:58.271667
3449  2023-11-13 13:43:58.303750
3450  2023-11-13 13:43:58.335658
3451  2023-11-13 13:43:58.366544
3452  2023-11-13 13:43:58.398488
3453  2023-11-13 13:43:58.431401
3454  2023-11-13 13:43:58.463319
3455  2023-11-13 13:43:58.511189
3456  2023-11-13 13:43:58.543103
3457  2023-11-13 13:43:58.575147
3458  2023-11-13 13:43:58.607063
3459  2023-11-13 13:43:58.638977
3460  2023-11-13 13:43:58.670892
3461  2023-11-13 13:43:58.703808
3462  2023-11-13 13:43:58.735718
3463  2023-11-13 13:43:58.766689
3464  2023-11-13 13:43:58.798602
3465  2023-11-13 13:43:58.831519
3466  2023-11-13 13:43:58.863475
3467  2023-11-13 13:43:58.911373
3468  2023-11-13 13:43:58.943289
3469  2023-11-13 13:43:58.975202
3470  2023-11-13 13:43:59.007055
3471  2023-11-13 13:43:59.039003
3472  2023-11-13 13:43:59.071061
3473  2023-11-13 13:43:59.102976
3474  2023-11-13 13:43:59.134890
3475  2023-11-13 13:43:59.166774
3476  2023-11-13 13:43:59.198686
3477  2023-11-13 13:43:59.230692
3478  2023-11-13 13:43:59.262679
3479  2023-11-13 13:43:59.310558
3480  2023-11-13 13:43:59.343468
3481  2023-11-13 13:43:59.374385
3482  2023-11-13 13:43:59.407262
3483  2023-11-13 13:43:59.439213
3484  2023-11-13 13:43:59.471129
3485  2023-11-13 13:43:59.503040
3486  2023-11-13 13:43:59.534952
3487  2023-11-13 13:43:59.566836
3488  2023-11-13 13:43:59.598786
3489  2023-11-13 13:43:59.630703
3490  2023-11-13 13:43:59.662620
3491  2023-11-13 13:43:59.710485
3492  2023-11-13 13:43:59.743365
3493  2023-11-13 13:43:59.775284
3494  2023-11-13 13:43:59.807232
3495  2023-11-13 13:43:59.839108
3496  2023-11-13 13:43:59.871027
3497  2023-11-13 13:43:59.902970
3498  2023-11-13 13:43:59.934885
3499  2023-11-13 13:43:59.966817
3500  2023-11-13 13:43:59.998681
3501  2023-11-13 13:44:00.030646
3502  2023-11-13 13:44:00.062556
3503  2023-11-13 13:44:00.110433
3504  2023-11-13 13:44:00.143341
3505  2023-11-13 13:44:00.175263
3506  2023-11-13 13:44:00.207124
3507  2023-11-13 13:44:00.239074
3508  2023-11-13 13:44:00.270954
3509  2023-11-13 13:44:00.302859
3510  2023-11-13 13:44:00.334773
3511  2023-11-13 13:44:00.366760
3512  2023-11-13 13:44:00.398675
3513  2023-11-13 13:44:00.430628
3514  2023-11-13 13:44:00.462683
3515  2023-11-13 13:44:00.510554
3516  2023-11-13 13:44:00.542456
3517  2023-11-13 13:44:00.574367
3518  2023-11-13 13:44:00.607365
3519  2023-11-13 13:44:00.639284
3520  2023-11-13 13:44:00.671196
3521  2023-11-13 13:44:00.703109
3522  2023-11-13 13:44:00.735023
3523  2023-11-13 13:44:00.766939
3524  2023-11-13 13:44:00.798939
3525  2023-11-13 13:44:00.830856
3526  2023-11-13 13:44:00.862778
3527  2023-11-13 13:44:00.910609
3528  2023-11-13 13:44:00.942560
3529  2023-11-13 13:44:00.975467
3530  2023-11-13 13:44:01.007383
3531  2023-11-13 13:44:01.039265
3532  2023-11-13 13:44:01.071180
3533  2023-11-13 13:44:01.103128
3534  2023-11-13 13:44:01.135041
3535  2023-11-13 13:44:01.166970
3536  2023-11-13 13:44:01.198838
3537  2023-11-13 13:44:01.230792
3538  2023-11-13 13:44:01.262774
3539  2023-11-13 13:44:01.310615
3540  2023-11-13 13:44:01.343567
3541  2023-11-13 13:44:01.374604
3542  2023-11-13 13:44:01.407486
3543  2023-11-13 13:44:01.438424
3544  2023-11-13 13:44:01.471304
3545  2023-11-13 13:44:01.503249
3546  2023-11-13 13:44:01.535167
3547  2023-11-13 13:44:01.567078
3548  2023-11-13 13:44:01.598994
3549  2023-11-13 13:44:01.630926
3550  2023-11-13 13:44:01.662824
3551  2023-11-13 13:44:01.710705
3552  2023-11-13 13:44:01.742611
3553  2023-11-13 13:44:01.774528
3554  2023-11-13 13:44:01.807484
3555  2023-11-13 13:44:01.838468
3556  2023-11-13 13:44:01.871414
3557  2023-11-13 13:44:01.903325
3558  2023-11-13 13:44:01.935242
3559  2023-11-13 13:44:01.967132
3560  2023-11-13 13:44:01.999039
3561  2023-11-13 13:44:02.030988
