
1  2023-10-24 15:15:54.303888
2  2023-10-24 15:15:54.335802
3  2023-10-24 15:15:54.367716
4  2023-10-24 15:15:54.399631
5  2023-10-24 15:15:54.447542
6  2023-10-24 15:15:54.479457
7  2023-10-24 15:15:54.511407
8  2023-10-24 15:15:54.543369
9  2023-10-24 15:15:54.576238
10  2023-10-24 15:15:54.607182
11  2023-10-24 15:15:54.640063
12  2023-10-24 15:15:54.671983
13  2023-10-24 15:15:54.703892
14  2023-10-24 15:15:54.735807
15  2023-10-24 15:15:54.767722
16  2023-10-24 15:15:54.799637
17  2023-10-24 15:15:54.847508
18  2023-10-24 15:15:54.879424
19  2023-10-24 15:15:54.911337
20  2023-10-24 15:15:54.943252
21  2023-10-24 15:15:54.976164
22  2023-10-24 15:15:55.007236
23  2023-10-24 15:15:55.039180
24  2023-10-24 15:15:55.072064
25  2023-10-24 15:15:55.103977
26  2023-10-24 15:15:55.135894
27  2023-10-24 15:15:55.167806
28  2023-10-24 15:15:55.199727
29  2023-10-24 15:15:55.247595
30  2023-10-24 15:15:55.279508
31  2023-10-24 15:15:55.311456
32  2023-10-24 15:15:55.343341
33  2023-10-24 15:15:55.375294
34  2023-10-24 15:15:55.408164
35  2023-10-24 15:15:55.440081
36  2023-10-24 15:15:55.471993
37  2023-10-24 15:15:55.503910
38  2023-10-24 15:15:55.535825
39  2023-10-24 15:15:55.568417
40  2023-10-24 15:15:55.600434
41  2023-10-24 15:15:55.647407
42  2023-10-24 15:15:55.680411
43  2023-10-24 15:15:55.711281
44  2023-10-24 15:15:55.743242
45  2023-10-24 15:15:55.776108
46  2023-10-24 15:15:55.808063
47  2023-10-24 15:15:55.839983
48  2023-10-24 15:15:55.871891
49  2023-10-24 15:15:55.903804
50  2023-10-24 15:15:55.935721
51  2023-10-24 15:15:55.968593
52  2023-10-24 15:15:55.999572
53  2023-10-24 15:15:56.048381
54  2023-10-24 15:15:56.080350
55  2023-10-24 15:15:56.111211
56  2023-10-24 15:15:56.144125
57  2023-10-24 15:15:56.176039
58  2023-10-24 15:15:56.207953
59  2023-10-24 15:15:56.239868
60  2023-10-24 15:15:56.271795
61  2023-10-24 15:15:56.303769
62  2023-10-24 15:15:56.335684
63  2023-10-24 15:15:56.367598
64  2023-10-24 15:15:56.399512
65  2023-10-24 15:15:56.447384
66  2023-10-24 15:15:56.479349
67  2023-10-24 15:15:56.512220
68  2023-10-24 15:15:56.544228
69  2023-10-24 15:15:56.576127
70  2023-10-24 15:15:56.608042
71  2023-10-24 15:15:56.639999
72  2023-10-24 15:15:56.671913
73  2023-10-24 15:15:56.703828
74  2023-10-24 15:15:56.735744
75  2023-10-24 15:15:56.767658
76  2023-10-24 15:15:56.799594
77  2023-10-24 15:15:56.847492
78  2023-10-24 15:15:56.880436
79  2023-10-24 15:15:56.912318
80  2023-10-24 15:15:56.944233
81  2023-10-24 15:15:56.975569
82  2023-10-24 15:15:57.008481
83  2023-10-24 15:15:57.039400
84  2023-10-24 15:15:57.071313
85  2023-10-24 15:15:57.103320
86  2023-10-24 15:15:57.136269
87  2023-10-24 15:15:57.167174
88  2023-10-24 15:15:57.200027
89  2023-10-24 15:15:57.247942
90  2023-10-24 15:15:57.279851
91  2023-10-24 15:15:57.311762
92  2023-10-24 15:15:57.343684
93  2023-10-24 15:15:57.375608
94  2023-10-24 15:15:57.407546
95  2023-10-24 15:15:57.439451
96  2023-10-24 15:15:57.471342
97  2023-10-24 15:15:57.503294
98  2023-10-24 15:15:57.535180
99  2023-10-24 15:15:57.568209
100  2023-10-24 15:15:57.616053
101  2023-10-24 15:15:57.647932
102  2023-10-24 15:15:57.679889
103  2023-10-24 15:15:57.711762
104  2023-10-24 15:15:57.743702
105  2023-10-24 15:15:57.775752
106  2023-10-24 15:15:57.807801
107  2023-10-24 15:15:57.839719
108  2023-10-24 15:15:57.871614
109  2023-10-24 15:15:57.903567
110  2023-10-24 15:15:57.935451
111  2023-10-24 15:15:57.967394
112  2023-10-24 15:15:58.016202
113  2023-10-24 15:15:58.048152
114  2023-10-24 15:15:58.080032
115  2023-10-24 15:15:58.111947
116  2023-10-24 15:15:58.143929
117  2023-10-24 15:15:58.175844
118  2023-10-24 15:15:58.207758
119  2023-10-24 15:15:58.239677
120  2023-10-24 15:15:58.271594
121  2023-10-24 15:15:58.303512
122  2023-10-24 15:15:58.335438
123  2023-10-24 15:15:58.367371
124  2023-10-24 15:15:58.415281
125  2023-10-24 15:15:58.447192
126  2023-10-24 15:15:58.480166
127  2023-10-24 15:15:58.512083
128  2023-10-24 15:15:58.543969
129  2023-10-24 15:15:58.575849
130  2023-10-24 15:15:58.607817
131  2023-10-24 15:15:58.639720
132  2023-10-24 15:15:58.671596
133  2023-10-24 15:15:58.703572
134  2023-10-24 15:15:58.735453
135  2023-10-24 15:15:58.768334
136  2023-10-24 15:15:58.815255
137  2023-10-24 15:15:58.848121
138  2023-10-24 15:15:58.880040
139  2023-10-24 15:15:58.911950
140  2023-10-24 15:15:58.943897
141  2023-10-24 15:15:58.975811
142  2023-10-24 15:15:59.007696
143  2023-10-24 15:15:59.039644
144  2023-10-24 15:15:59.071551
145  2023-10-24 15:15:59.103473
146  2023-10-24 15:15:59.135401
147  2023-10-24 15:15:59.168315
148  2023-10-24 15:15:59.216137
149  2023-10-24 15:15:59.248121
150  2023-10-24 15:15:59.280118
151  2023-10-24 15:15:59.312080
152  2023-10-24 15:15:59.344007
153  2023-10-24 15:15:59.375928
154  2023-10-24 15:15:59.407794
155  2023-10-24 15:15:59.439740
156  2023-10-24 15:15:59.471649
157  2023-10-24 15:15:59.503604
158  2023-10-24 15:15:59.535486
159  2023-10-24 15:15:59.567414
160  2023-10-24 15:15:59.615359
161  2023-10-24 15:15:59.647340
162  2023-10-24 15:15:59.680254
163  2023-10-24 15:15:59.712158
164  2023-10-24 15:15:59.743143
165  2023-10-24 15:15:59.775996
166  2023-10-24 15:15:59.808148
167  2023-10-24 15:15:59.840066
168  2023-10-24 15:15:59.871945
169  2023-10-24 15:15:59.903860
170  2023-10-24 15:15:59.935780
171  2023-10-24 15:15:59.967734
172  2023-10-24 15:16:00.015604
173  2023-10-24 15:16:00.047450
174  2023-10-24 15:16:00.079396
175  2023-10-24 15:16:00.111315
176  2023-10-24 15:16:00.143245
177  2023-10-24 15:16:00.176163
178  2023-10-24 15:16:00.208051
179  2023-10-24 15:16:00.239976
180  2023-10-24 15:16:00.271951
181  2023-10-24 15:16:00.304033
182  2023-10-24 15:16:00.335945
183  2023-10-24 15:16:00.367976
184  2023-10-24 15:16:00.415858
185  2023-10-24 15:16:00.447773
186  2023-10-24 15:16:00.479741
187  2023-10-24 15:16:00.511649
188  2023-10-24 15:16:00.543581
189  2023-10-24 15:16:00.575473
190  2023-10-24 15:16:00.607394
191  2023-10-24 15:16:00.639293
192  2023-10-24 15:16:00.671224
193  2023-10-24 15:16:00.703130
194  2023-10-24 15:16:00.736054
195  2023-10-24 15:16:00.767961
196  2023-10-24 15:16:00.815935
197  2023-10-24 15:16:00.848063
198  2023-10-24 15:16:00.879970
199  2023-10-24 15:16:00.911894
200  2023-10-24 15:16:00.943622
201  2023-10-24 15:16:00.975664
202  2023-10-24 15:16:01.007612
203  2023-10-24 15:16:01.039475
204  2023-10-24 15:16:01.071402
205  2023-10-24 15:16:01.103311
206  2023-10-24 15:16:01.135239
207  2023-10-24 15:16:01.184122
208  2023-10-24 15:16:01.215976
209  2023-10-24 15:16:01.247891
210  2023-10-24 15:16:01.279839
211  2023-10-24 15:16:01.311759
212  2023-10-24 15:16:01.343805
213  2023-10-24 15:16:01.375616
214  2023-10-24 15:16:01.407494
215  2023-10-24 15:16:01.439413
216  2023-10-24 15:16:01.471325
217  2023-10-24 15:16:01.504250
218  2023-10-24 15:16:01.535125
219  2023-10-24 15:16:01.583994
220  2023-10-24 15:16:01.615811
221  2023-10-24 15:16:01.647893
222  2023-10-24 15:16:01.679810
223  2023-10-24 15:16:01.711724
224  2023-10-24 15:16:01.743688
225  2023-10-24 15:16:01.775615
226  2023-10-24 15:16:01.807498
227  2023-10-24 15:16:01.839432
228  2023-10-24 15:16:01.871330
229  2023-10-24 15:16:01.903260
230  2023-10-24 15:16:01.935157
231  2023-10-24 15:16:01.984036
232  2023-10-24 15:16:02.015911
233  2023-10-24 15:16:02.047876
234  2023-10-24 15:16:02.079770
235  2023-10-24 15:16:02.111690
236  2023-10-24 15:16:02.143634
237  2023-10-24 15:16:02.175532
238  2023-10-24 15:16:02.207469
239  2023-10-24 15:16:02.239348
240  2023-10-24 15:16:02.271227
241  2023-10-24 15:16:02.303143
242  2023-10-24 15:16:02.336097
243  2023-10-24 15:16:02.383972
244  2023-10-24 15:16:02.415840
245  2023-10-24 15:16:02.447803
246  2023-10-24 15:16:02.479701
247  2023-10-24 15:16:02.511622
248  2023-10-24 15:16:02.543555
249  2023-10-24 15:16:02.575452
250  2023-10-24 15:16:02.607358
251  2023-10-24 15:16:02.639275
252  2023-10-24 15:16:02.671224
253  2023-10-24 15:16:02.704131
254  2023-10-24 15:16:02.736015
255  2023-10-24 15:16:02.783888
256  2023-10-24 15:16:02.815812
257  2023-10-24 15:16:02.847716
258  2023-10-24 15:16:02.879729
259  2023-10-24 15:16:02.911675
260  2023-10-24 15:16:02.943617
261  2023-10-24 15:16:02.975537
262  2023-10-24 15:16:03.007427
263  2023-10-24 15:16:03.039355
264  2023-10-24 15:16:03.071266
265  2023-10-24 15:16:03.103181
266  2023-10-24 15:16:03.136124
267  2023-10-24 15:16:03.183921
268  2023-10-24 15:16:03.215835
269  2023-10-24 15:16:03.247750
270  2023-10-24 15:16:03.279716
271  2023-10-24 15:16:03.311638
272  2023-10-24 15:16:03.343616
273  2023-10-24 15:16:03.375530
274  2023-10-24 15:16:03.407454
275  2023-10-24 15:16:03.440372
276  2023-10-24 15:16:03.472287
277  2023-10-24 15:16:03.503268
278  2023-10-24 15:16:03.535289
279  2023-10-24 15:16:03.584104
280  2023-10-24 15:16:03.616019
281  2023-10-24 15:16:03.647934
282  2023-10-24 15:16:03.679890
283  2023-10-24 15:16:03.711789
284  2023-10-24 15:16:03.743709
285  2023-10-24 15:16:03.775636
286  2023-10-24 15:16:03.807565
287  2023-10-24 15:16:03.839452
288  2023-10-24 15:16:03.871370
289  2023-10-24 15:16:03.904287
290  2023-10-24 15:16:03.935207
291  2023-10-24 15:16:03.984035
292  2023-10-24 15:16:04.015950
293  2023-10-24 15:16:04.047865
294  2023-10-24 15:16:04.079841
295  2023-10-24 15:16:04.111694
296  2023-10-24 15:16:04.143640
297  2023-10-24 15:16:04.175568
298  2023-10-24 15:16:04.207486
299  2023-10-24 15:16:04.239416
300  2023-10-24 15:16:04.271312
301  2023-10-24 15:16:04.304210
302  2023-10-24 15:16:04.336095
303  2023-10-24 15:16:04.383995
304  2023-10-24 15:16:04.415881
305  2023-10-24 15:16:04.447795
306  2023-10-24 15:16:04.479747
307  2023-10-24 15:16:04.511676
308  2023-10-24 15:16:04.543637
309  2023-10-24 15:16:04.575599
310  2023-10-24 15:16:04.607514
311  2023-10-24 15:16:04.639437
312  2023-10-24 15:16:04.672340
313  2023-10-24 15:16:04.703288
314  2023-10-24 15:16:04.752189
315  2023-10-24 15:16:04.783105
316  2023-10-24 15:16:04.816017
317  2023-10-24 15:16:04.847966
318  2023-10-24 15:16:04.879905
319  2023-10-24 15:16:04.911793
320  2023-10-24 15:16:04.943707
321  2023-10-24 15:16:04.975623
322  2023-10-24 15:16:05.007542
323  2023-10-24 15:16:05.039454
324  2023-10-24 15:16:05.071383
325  2023-10-24 15:16:05.103284
326  2023-10-24 15:16:05.152119
327  2023-10-24 15:16:05.184043
328  2023-10-24 15:16:05.215984
329  2023-10-24 15:16:05.247863
330  2023-10-24 15:16:05.279804
331  2023-10-24 15:16:05.311749
332  2023-10-24 15:16:05.343643
333  2023-10-24 15:16:05.375576
334  2023-10-24 15:16:05.407475
335  2023-10-24 15:16:05.439387
336  2023-10-24 15:16:05.471310
337  2023-10-24 15:16:05.503219
338  2023-10-24 15:16:05.552112
339  2023-10-24 15:16:05.583964
340  2023-10-24 15:16:05.615879
341  2023-10-24 15:16:05.647793
342  2023-10-24 15:16:05.679741
343  2023-10-24 15:16:05.711666
344  2023-10-24 15:16:05.743571
345  2023-10-24 15:16:05.775484
346  2023-10-24 15:16:05.807415
347  2023-10-24 15:16:05.839331
348  2023-10-24 15:16:05.871243
349  2023-10-24 15:16:05.904177
350  2023-10-24 15:16:05.951980
351  2023-10-24 15:16:05.983903
352  2023-10-24 15:16:06.015809
353  2023-10-24 15:16:06.047757
354  2023-10-24 15:16:06.079670
355  2023-10-24 15:16:06.111595
356  2023-10-24 15:16:06.143503
357  2023-10-24 15:16:06.175427
358  2023-10-24 15:16:06.207337
359  2023-10-24 15:16:06.239265
360  2023-10-24 15:16:06.271177
361  2023-10-24 15:16:06.304076
362  2023-10-24 15:16:06.351946
363  2023-10-24 15:16:06.383825
364  2023-10-24 15:16:06.415740
365  2023-10-24 15:16:06.447655
366  2023-10-24 15:16:06.479623
367  2023-10-24 15:16:06.511530
368  2023-10-24 15:16:06.543436
369  2023-10-24 15:16:06.575357
370  2023-10-24 15:16:06.607279
371  2023-10-24 15:16:06.639195
372  2023-10-24 15:16:06.672104
373  2023-10-24 15:16:06.703123
374  2023-10-24 15:16:06.751960
375  2023-10-24 15:16:06.783874
376  2023-10-24 15:16:06.815789
377  2023-10-24 15:16:06.847704
378  2023-10-24 15:16:06.879654
379  2023-10-24 15:16:06.911604
380  2023-10-24 15:16:06.943482
381  2023-10-24 15:16:06.975397
382  2023-10-24 15:16:07.007309
383  2023-10-24 15:16:07.039245
384  2023-10-24 15:16:07.072167
385  2023-10-24 15:16:07.104099
386  2023-10-24 15:16:07.152053
387  2023-10-24 15:16:07.183968
388  2023-10-24 15:16:07.215883
389  2023-10-24 15:16:07.247797
390  2023-10-24 15:16:07.279745
391  2023-10-24 15:16:07.311657
392  2023-10-24 15:16:07.343619
393  2023-10-24 15:16:07.375456
394  2023-10-24 15:16:07.407419
395  2023-10-24 15:16:07.439319
396  2023-10-24 15:16:07.472285
397  2023-10-24 15:16:07.504250
398  2023-10-24 15:16:07.552123
399  2023-10-24 15:16:07.584037
400  2023-10-24 15:16:07.615951
401  2023-10-24 15:16:07.647866
402  2023-10-24 15:16:07.679823
403  2023-10-24 15:16:07.711763
404  2023-10-24 15:16:07.743677
405  2023-10-24 15:16:07.775686
406  2023-10-24 15:16:07.807592
407  2023-10-24 15:16:07.839501
408  2023-10-24 15:16:07.871414
409  2023-10-24 15:16:07.903337
410  2023-10-24 15:16:07.951173
411  2023-10-24 15:16:07.984089
412  2023-10-24 15:16:08.015999
413  2023-10-24 15:16:08.047955
414  2023-10-24 15:16:08.079861
415  2023-10-24 15:16:08.111776
416  2023-10-24 15:16:08.143699
417  2023-10-24 15:16:08.175612
418  2023-10-24 15:16:08.207519
419  2023-10-24 15:16:08.239449
420  2023-10-24 15:16:08.272314
421  2023-10-24 15:16:08.303285
422  2023-10-24 15:16:08.351103
423  2023-10-24 15:16:08.384049
424  2023-10-24 15:16:08.415930
425  2023-10-24 15:16:08.447846
426  2023-10-24 15:16:08.479867
427  2023-10-24 15:16:08.511831
428  2023-10-24 15:16:08.543746
429  2023-10-24 15:16:08.575691
430  2023-10-24 15:16:08.607624
431  2023-10-24 15:16:08.639613
432  2023-10-24 15:16:08.671723
433  2023-10-24 15:16:08.719609
434  2023-10-24 15:16:08.751496
435  2023-10-24 15:16:08.783376
436  2023-10-24 15:16:08.815291
437  2023-10-24 15:16:08.847238
438  2023-10-24 15:16:08.880151
439  2023-10-24 15:16:08.912067
440  2023-10-24 15:16:08.943984
441  2023-10-24 15:16:08.975916
442  2023-10-24 15:16:09.007820
443  2023-10-24 15:16:09.039726
444  2023-10-24 15:16:09.071631
445  2023-10-24 15:16:09.119477
446  2023-10-24 15:16:09.151392
447  2023-10-24 15:16:09.183307
448  2023-10-24 15:16:09.215349
449  2023-10-24 15:16:09.248262
450  2023-10-24 15:16:09.280227
451  2023-10-24 15:16:09.311225
452  2023-10-24 15:16:09.343152
453  2023-10-24 15:16:09.376075
454  2023-10-24 15:16:09.407967
455  2023-10-24 15:16:09.439893
456  2023-10-24 15:16:09.471804
457  2023-10-24 15:16:09.519634
458  2023-10-24 15:16:09.551552
459  2023-10-24 15:16:09.584498
460  2023-10-24 15:16:09.615577
461  2023-10-24 15:16:09.647383
462  2023-10-24 15:16:09.680296
463  2023-10-24 15:16:09.712244
464  2023-10-24 15:16:09.744157
465  2023-10-24 15:16:09.776100
466  2023-10-24 15:16:09.807990
467  2023-10-24 15:16:09.840043
468  2023-10-24 15:16:09.871929
469  2023-10-24 15:16:09.919770
470  2023-10-24 15:16:09.951682
471  2023-10-24 15:16:09.983597
472  2023-10-24 15:16:10.015511
473  2023-10-24 15:16:10.047428
474  2023-10-24 15:16:10.079387
475  2023-10-24 15:16:10.111281
476  2023-10-24 15:16:10.144167
477  2023-10-24 15:16:10.176119
478  2023-10-24 15:16:10.208033
479  2023-10-24 15:16:10.239946
480  2023-10-24 15:16:10.271851
481  2023-10-24 15:16:10.319698
482  2023-10-24 15:16:10.351613
483  2023-10-24 15:16:10.383527
484  2023-10-24 15:16:10.415442
485  2023-10-24 15:16:10.448354
486  2023-10-24 15:16:10.479306
487  2023-10-24 15:16:10.511217
488  2023-10-24 15:16:10.544132
489  2023-10-24 15:16:10.576046
490  2023-10-24 15:16:10.607958
491  2023-10-24 15:16:10.639883
492  2023-10-24 15:16:10.671790
493  2023-10-24 15:16:10.719629
494  2023-10-24 15:16:10.751543
495  2023-10-24 15:16:10.783458
496  2023-10-24 15:16:10.815373
497  2023-10-24 15:16:10.848285
498  2023-10-24 15:16:10.879236
499  2023-10-24 15:16:10.911163
500  2023-10-24 15:16:10.944089
501  2023-10-24 15:16:10.975984
502  2023-10-24 15:16:11.007891
503  2023-10-24 15:16:11.039799
504  2023-10-24 15:16:11.071687
505  2023-10-24 15:16:11.119560
506  2023-10-24 15:16:11.151488
507  2023-10-24 15:16:11.183389
508  2023-10-24 15:16:11.215303
509  2023-10-24 15:16:11.248216
510  2023-10-24 15:16:11.280131
511  2023-10-24 15:16:11.312092
512  2023-10-24 15:16:11.343994
513  2023-10-24 15:16:11.375923
514  2023-10-24 15:16:11.407843
515  2023-10-24 15:16:11.439739
516  2023-10-24 15:16:11.471618
517  2023-10-24 15:16:11.519490
518  2023-10-24 15:16:11.551405
519  2023-10-24 15:16:11.584320
520  2023-10-24 15:16:11.616235
521  2023-10-24 15:16:11.648148
522  2023-10-24 15:16:11.680079
523  2023-10-24 15:16:11.712027
524  2023-10-24 15:16:11.743921
525  2023-10-24 15:16:11.775805
526  2023-10-24 15:16:11.807760
527  2023-10-24 15:16:11.839635
528  2023-10-24 15:16:11.871605
529  2023-10-24 15:16:11.920419
530  2023-10-24 15:16:11.952333
531  2023-10-24 15:16:11.983250
532  2023-10-24 15:16:12.016164
533  2023-10-24 15:16:12.048078
534  2023-10-24 15:16:12.080052
535  2023-10-24 15:16:12.111908
536  2023-10-24 15:16:12.143855
537  2023-10-24 15:16:12.175736
538  2023-10-24 15:16:12.207659
539  2023-10-24 15:16:12.239603
540  2023-10-24 15:16:12.287438
541  2023-10-24 15:16:12.319396
542  2023-10-24 15:16:12.352322
543  2023-10-24 15:16:12.384179
544  2023-10-24 15:16:12.416093
545  2023-10-24 15:16:12.448017
546  2023-10-24 15:16:12.479924
547  2023-10-24 15:16:12.511889
548  2023-10-24 15:16:12.543757
549  2023-10-24 15:16:12.575724
550  2023-10-24 15:16:12.607598
551  2023-10-24 15:16:12.639533
552  2023-10-24 15:16:12.687397
553  2023-10-24 15:16:12.720280
554  2023-10-24 15:16:12.752199
555  2023-10-24 15:16:12.783147
556  2023-10-24 15:16:12.816024
557  2023-10-24 15:16:12.847939
558  2023-10-24 15:16:12.879916
559  2023-10-24 15:16:12.911822
560  2023-10-24 15:16:12.943724
561  2023-10-24 15:16:12.975682
562  2023-10-24 15:16:13.007591
563  2023-10-24 15:16:13.039457
564  2023-10-24 15:16:13.087316
565  2023-10-24 15:16:13.119228
566  2023-10-24 15:16:13.151154
567  2023-10-24 15:16:13.184090
568  2023-10-24 15:16:13.215984
569  2023-10-24 15:16:13.247869
570  2023-10-24 15:16:13.279810
571  2023-10-24 15:16:13.311701
572  2023-10-24 15:16:13.343615
573  2023-10-24 15:16:13.375529
574  2023-10-24 15:16:13.407492
575  2023-10-24 15:16:13.439415
576  2023-10-24 15:16:13.487229
577  2023-10-24 15:16:13.519185
578  2023-10-24 15:16:13.552115
579  2023-10-24 15:16:13.584149
580  2023-10-24 15:16:13.616056
581  2023-10-24 15:16:13.647950
582  2023-10-24 15:16:13.679978
583  2023-10-24 15:16:13.711893
584  2023-10-24 15:16:13.743804
585  2023-10-24 15:16:13.775718
586  2023-10-24 15:16:13.807624
587  2023-10-24 15:16:13.839542
588  2023-10-24 15:16:13.887406
589  2023-10-24 15:16:13.919344
590  2023-10-24 15:16:13.952255
591  2023-10-24 15:16:13.984156
592  2023-10-24 15:16:14.016036
593  2023-10-24 15:16:14.047990
594  2023-10-24 15:16:14.079892
595  2023-10-24 15:16:14.111808
596  2023-10-24 15:16:14.143732
597  2023-10-24 15:16:14.175637
598  2023-10-24 15:16:14.207576
599  2023-10-24 15:16:14.239479
600  2023-10-24 15:16:14.288308
601  2023-10-24 15:16:14.319274
602  2023-10-24 15:16:14.352144
603  2023-10-24 15:16:14.384053
604  2023-10-24 15:16:14.415966
605  2023-10-24 15:16:14.447880
606  2023-10-24 15:16:14.479825
607  2023-10-24 15:16:14.511774
608  2023-10-24 15:16:14.543659
609  2023-10-24 15:16:14.575606
610  2023-10-24 15:16:14.607505
611  2023-10-24 15:16:14.639401
612  2023-10-24 15:16:14.687241
613  2023-10-24 15:16:14.719202
614  2023-10-24 15:16:14.752133
615  2023-10-24 15:16:14.784012
616  2023-10-24 15:16:14.815941
617  2023-10-24 15:16:14.847841
618  2023-10-24 15:16:14.879757
619  2023-10-24 15:16:14.911682
620  2023-10-24 15:16:14.943625
621  2023-10-24 15:16:14.975502
622  2023-10-24 15:16:15.007422
623  2023-10-24 15:16:15.039333
624  2023-10-24 15:16:15.087219
625  2023-10-24 15:16:15.120083
626  2023-10-24 15:16:15.152041
627  2023-10-24 15:16:15.183956
628  2023-10-24 15:16:15.215868
629  2023-10-24 15:16:15.247742
630  2023-10-24 15:16:15.279691
631  2023-10-24 15:16:15.311633
632  2023-10-24 15:16:15.343491
633  2023-10-24 15:16:15.375468
634  2023-10-24 15:16:15.407365
635  2023-10-24 15:16:15.439264
636  2023-10-24 15:16:15.488099
637  2023-10-24 15:16:15.520014
638  2023-10-24 15:16:15.551972
639  2023-10-24 15:16:15.583879
640  2023-10-24 15:16:15.615789
641  2023-10-24 15:16:15.647705
642  2023-10-24 15:16:15.679614
643  2023-10-24 15:16:15.711585
644  2023-10-24 15:16:15.743459
645  2023-10-24 15:16:15.775364
646  2023-10-24 15:16:15.807286
647  2023-10-24 15:16:15.856163
648  2023-10-24 15:16:15.888067
649  2023-10-24 15:16:15.919989
650  2023-10-24 15:16:15.951904
651  2023-10-24 15:16:15.983808
652  2023-10-24 15:16:16.015731
653  2023-10-24 15:16:16.047603
654  2023-10-24 15:16:16.079608
655  2023-10-24 15:16:16.111465
656  2023-10-24 15:16:16.143384
657  2023-10-24 15:16:16.175290
658  2023-10-24 15:16:16.207243
659  2023-10-24 15:16:16.256111
660  2023-10-24 15:16:16.287996
661  2023-10-24 15:16:16.319875
662  2023-10-24 15:16:16.351823
663  2023-10-24 15:16:16.383757
664  2023-10-24 15:16:16.415655
665  2023-10-24 15:16:16.447573
666  2023-10-24 15:16:16.479483
667  2023-10-24 15:16:16.511390
668  2023-10-24 15:16:16.543327
669  2023-10-24 15:16:16.575242
670  2023-10-24 15:16:16.608158
671  2023-10-24 15:16:16.655979
672  2023-10-24 15:16:16.687891
673  2023-10-24 15:16:16.719869
674  2023-10-24 15:16:16.751768
675  2023-10-24 15:16:16.783667
676  2023-10-24 15:16:16.815624
677  2023-10-24 15:16:16.847517
678  2023-10-24 15:16:16.879416
679  2023-10-24 15:16:16.911343
680  2023-10-24 15:16:16.943256
681  2023-10-24 15:16:16.975161
682  2023-10-24 15:16:17.008065
683  2023-10-24 15:16:17.055941
684  2023-10-24 15:16:17.087872
685  2023-10-24 15:16:17.119737
686  2023-10-24 15:16:17.151691
687  2023-10-24 15:16:17.183636
688  2023-10-24 15:16:17.215520
689  2023-10-24 15:16:17.247446
690  2023-10-24 15:16:17.279357
691  2023-10-24 15:16:17.311259
692  2023-10-24 15:16:17.343186
693  2023-10-24 15:16:17.376088
694  2023-10-24 15:16:17.408031
695  2023-10-24 15:16:17.455868
696  2023-10-24 15:16:17.487798
697  2023-10-24 15:16:17.519701
698  2023-10-24 15:16:17.551652
699  2023-10-24 15:16:17.583571
700  2023-10-24 15:16:17.615446
701  2023-10-24 15:16:17.647357
702  2023-10-24 15:16:17.679274
703  2023-10-24 15:16:17.711199
704  2023-10-24 15:16:17.744111
705  2023-10-24 15:16:17.776013
706  2023-10-24 15:16:17.807940
707  2023-10-24 15:16:17.855799
708  2023-10-24 15:16:17.887724
709  2023-10-24 15:16:17.919598
710  2023-10-24 15:16:17.951610
711  2023-10-24 15:16:17.983459
712  2023-10-24 15:16:18.015376
713  2023-10-24 15:16:18.047307
714  2023-10-24 15:16:18.079202
715  2023-10-24 15:16:18.112034
716  2023-10-24 15:16:18.143985
717  2023-10-24 15:16:18.175904
718  2023-10-24 15:16:18.207819
719  2023-10-24 15:16:18.255696
720  2023-10-24 15:16:18.287603
721  2023-10-24 15:16:18.319529
722  2023-10-24 15:16:18.351430
723  2023-10-24 15:16:18.383360
724  2023-10-24 15:16:18.415259
725  2023-10-24 15:16:18.447188
726  2023-10-24 15:16:18.480096
727  2023-10-24 15:16:18.511997
728  2023-10-24 15:16:18.543930
729  2023-10-24 15:16:18.575827
730  2023-10-24 15:16:18.607749
731  2023-10-24 15:16:18.655628
732  2023-10-24 15:16:18.688499
733  2023-10-24 15:16:18.719453
734  2023-10-24 15:16:18.751327
735  2023-10-24 15:16:18.784264
736  2023-10-24 15:16:18.816200
737  2023-10-24 15:16:18.848151
738  2023-10-24 15:16:18.880066
739  2023-10-24 15:16:18.911980
740  2023-10-24 15:16:18.943979
741  2023-10-24 15:16:18.975903
742  2023-10-24 15:16:19.007819
743  2023-10-24 15:16:19.055686
744  2023-10-24 15:16:19.087599
745  2023-10-24 15:16:19.119479
746  2023-10-24 15:16:19.151393
747  2023-10-24 15:16:19.184305
748  2023-10-24 15:16:19.215255
749  2023-10-24 15:16:19.248135
750  2023-10-24 15:16:19.280093
751  2023-10-24 15:16:19.312004
752  2023-10-24 15:16:19.343912
753  2023-10-24 15:16:19.375823
754  2023-10-24 15:16:19.407750
755  2023-10-24 15:16:19.455636
756  2023-10-24 15:16:19.487584
757  2023-10-24 15:16:19.519448
758  2023-10-24 15:16:19.551352
759  2023-10-24 15:16:19.583238
760  2023-10-24 15:16:19.616151
761  2023-10-24 15:16:19.648065
762  2023-10-24 15:16:19.680010
763  2023-10-24 15:16:19.711926
764  2023-10-24 15:16:19.743841
765  2023-10-24 15:16:19.775908
766  2023-10-24 15:16:19.823755
767  2023-10-24 15:16:19.855715
768  2023-10-24 15:16:19.887617
769  2023-10-24 15:16:19.919573
770  2023-10-24 15:16:19.951414
771  2023-10-24 15:16:19.983328
772  2023-10-24 15:16:20.015292
773  2023-10-24 15:16:20.047188
774  2023-10-24 15:16:20.080105
775  2023-10-24 15:16:20.112017
776  2023-10-24 15:16:20.143931
777  2023-10-24 15:16:20.175845
778  2023-10-24 15:16:20.223686
779  2023-10-24 15:16:20.255642
780  2023-10-24 15:16:20.287522
781  2023-10-24 15:16:20.319462
782  2023-10-24 15:16:20.351429
783  2023-10-24 15:16:20.383291
784  2023-10-24 15:16:20.415206
785  2023-10-24 15:16:20.448118
786  2023-10-24 15:16:20.480059
787  2023-10-24 15:16:20.511983
788  2023-10-24 15:16:20.543898
789  2023-10-24 15:16:20.575859
790  2023-10-24 15:16:20.623793
791  2023-10-24 15:16:20.655708
792  2023-10-24 15:16:20.687622
793  2023-10-24 15:16:20.719537
794  2023-10-24 15:16:20.751452
795  2023-10-24 15:16:20.783366
796  2023-10-24 15:16:20.815281
797  2023-10-24 15:16:20.847196
798  2023-10-24 15:16:20.879144
799  2023-10-24 15:16:20.912095
800  2023-10-24 15:16:20.943981
801  2023-10-24 15:16:20.975882
802  2023-10-24 15:16:21.023724
803  2023-10-24 15:16:21.055638
804  2023-10-24 15:16:21.087553
805  2023-10-24 15:16:21.119468
806  2023-10-24 15:16:21.151382
807  2023-10-24 15:16:21.183297
808  2023-10-24 15:16:21.216235
809  2023-10-24 15:16:21.248175
810  2023-10-24 15:16:21.280081
811  2023-10-24 15:16:21.311984
812  2023-10-24 15:16:21.343947
813  2023-10-24 15:16:21.375813
814  2023-10-24 15:16:21.423688
815  2023-10-24 15:16:21.455574
816  2023-10-24 15:16:21.487484
817  2023-10-24 15:16:21.519398
818  2023-10-24 15:16:21.551388
819  2023-10-24 15:16:21.583274
820  2023-10-24 15:16:21.616140
821  2023-10-24 15:16:21.648054
822  2023-10-24 15:16:21.680004
823  2023-10-24 15:16:21.711914
824  2023-10-24 15:16:21.743841
825  2023-10-24 15:16:21.775739
826  2023-10-24 15:16:21.823585
827  2023-10-24 15:16:21.855500
828  2023-10-24 15:16:21.887448
829  2023-10-24 15:16:21.919363
830  2023-10-24 15:16:21.951244
831  2023-10-24 15:16:21.984156
832  2023-10-24 15:16:22.016109
833  2023-10-24 15:16:22.048009
834  2023-10-24 15:16:22.079930
835  2023-10-24 15:16:22.111841
836  2023-10-24 15:16:22.143759
837  2023-10-24 15:16:22.175679
838  2023-10-24 15:16:22.223560
839  2023-10-24 15:16:22.255465
840  2023-10-24 15:16:22.287345
841  2023-10-24 15:16:22.319260
842  2023-10-24 15:16:22.351206
843  2023-10-24 15:16:22.384086
844  2023-10-24 15:16:22.416001
845  2023-10-24 15:16:22.447916
846  2023-10-24 15:16:22.479862
847  2023-10-24 15:16:22.511775
848  2023-10-24 15:16:22.543690
849  2023-10-24 15:16:22.575623
850  2023-10-24 15:16:22.623446
851  2023-10-24 15:16:22.655361
852  2023-10-24 15:16:22.687276
853  2023-10-24 15:16:22.719190
854  2023-10-24 15:16:22.752102
855  2023-10-24 15:16:22.784017
856  2023-10-24 15:16:22.815932
857  2023-10-24 15:16:22.847852
858  2023-10-24 15:16:22.879792
859  2023-10-24 15:16:22.911706
860  2023-10-24 15:16:22.943634
861  2023-10-24 15:16:22.975564
862  2023-10-24 15:16:23.023377
863  2023-10-24 15:16:23.055292
864  2023-10-24 15:16:23.088204
865  2023-10-24 15:16:23.120118
866  2023-10-24 15:16:23.152033
867  2023-10-24 15:16:23.183948
868  2023-10-24 15:16:23.215862
869  2023-10-24 15:16:23.247784
870  2023-10-24 15:16:23.279837
871  2023-10-24 15:16:23.311807
872  2023-10-24 15:16:23.343800
873  2023-10-24 15:16:23.391627
874  2023-10-24 15:16:23.423541
875  2023-10-24 15:16:23.455456
876  2023-10-24 15:16:23.487371
877  2023-10-24 15:16:23.519285
878  2023-10-24 15:16:23.552197
879  2023-10-24 15:16:23.584112
880  2023-10-24 15:16:23.616027
881  2023-10-24 15:16:23.647941
882  2023-10-24 15:16:23.679888
883  2023-10-24 15:16:23.711821
884  2023-10-24 15:16:23.743718
885  2023-10-24 15:16:23.791558
886  2023-10-24 15:16:23.823472
887  2023-10-24 15:16:23.855387
888  2023-10-24 15:16:23.887302
889  2023-10-24 15:16:23.920214
890  2023-10-24 15:16:23.952128
891  2023-10-24 15:16:23.984043
892  2023-10-24 15:16:24.015957
893  2023-10-24 15:16:24.047969
894  2023-10-24 15:16:24.079948
895  2023-10-24 15:16:24.111893
896  2023-10-24 15:16:24.143806
897  2023-10-24 15:16:24.191653
898  2023-10-24 15:16:24.223654
899  2023-10-24 15:16:24.255610
900  2023-10-24 15:16:24.287487
901  2023-10-24 15:16:24.319402
902  2023-10-24 15:16:24.351316
903  2023-10-24 15:16:24.383231
904  2023-10-24 15:16:24.416143
905  2023-10-24 15:16:24.448057
906  2023-10-24 15:16:24.479997
907  2023-10-24 15:16:24.511923
908  2023-10-24 15:16:24.543876
909  2023-10-24 15:16:24.591770
910  2023-10-24 15:16:24.623696
911  2023-10-24 15:16:24.655611
912  2023-10-24 15:16:24.687640
913  2023-10-24 15:16:24.719564
914  2023-10-24 15:16:24.751584
915  2023-10-24 15:16:24.783510
916  2023-10-24 15:16:24.815408
917  2023-10-24 15:16:24.847479
918  2023-10-24 15:16:24.879386
919  2023-10-24 15:16:24.912307
920  2023-10-24 15:16:24.943295
921  2023-10-24 15:16:24.991219
922  2023-10-24 15:16:25.024131
923  2023-10-24 15:16:25.055209
924  2023-10-24 15:16:25.088140
925  2023-10-24 15:16:25.119110
926  2023-10-24 15:16:25.152022
927  2023-10-24 15:16:25.184008
928  2023-10-24 15:16:25.215886
929  2023-10-24 15:16:25.247801
930  2023-10-24 15:16:25.279717
931  2023-10-24 15:16:25.311664
932  2023-10-24 15:16:25.343589
933  2023-10-24 15:16:25.391417
934  2023-10-24 15:16:25.424329
935  2023-10-24 15:16:25.456244
936  2023-10-24 15:16:25.487161
937  2023-10-24 15:16:25.520073
938  2023-10-24 15:16:25.551987
939  2023-10-24 15:16:25.583902
940  2023-10-24 15:16:25.615817
941  2023-10-24 15:16:25.647850
942  2023-10-24 15:16:25.679811
943  2023-10-24 15:16:25.711710
944  2023-10-24 15:16:25.743646
945  2023-10-24 15:16:25.791466
946  2023-10-24 15:16:25.823380
947  2023-10-24 15:16:25.856292
948  2023-10-24 15:16:25.887210
949  2023-10-24 15:16:25.920150
950  2023-10-24 15:16:25.952043
951  2023-10-24 15:16:25.983957
952  2023-10-24 15:16:26.015872
953  2023-10-24 15:16:26.047817
954  2023-10-24 15:16:26.079763
955  2023-10-24 15:16:26.111692
956  2023-10-24 15:16:26.143630
957  2023-10-24 15:16:26.191506
958  2023-10-24 15:16:26.223421
959  2023-10-24 15:16:26.255369
960  2023-10-24 15:16:26.287250
961  2023-10-24 15:16:26.320162
962  2023-10-24 15:16:26.352077
963  2023-10-24 15:16:26.384056
964  2023-10-24 15:16:26.415906
965  2023-10-24 15:16:26.447821
966  2023-10-24 15:16:26.479760
967  2023-10-24 15:16:26.511683
968  2023-10-24 15:16:26.543613
969  2023-10-24 15:16:26.591437
970  2023-10-24 15:16:26.623352
971  2023-10-24 15:16:26.655266
972  2023-10-24 15:16:26.688178
973  2023-10-24 15:16:26.719128
974  2023-10-24 15:16:26.752008
975  2023-10-24 15:16:26.783922
976  2023-10-24 15:16:26.815837
977  2023-10-24 15:16:26.847776
978  2023-10-24 15:16:26.879697
979  2023-10-24 15:16:26.911610
980  2023-10-24 15:16:26.943522
981  2023-10-24 15:16:26.991367
982  2023-10-24 15:16:27.023282
983  2023-10-24 15:16:27.055197
984  2023-10-24 15:16:27.087111
985  2023-10-24 15:16:27.120024
986  2023-10-24 15:16:27.151938
987  2023-10-24 15:16:27.183853
988  2023-10-24 15:16:27.215768
989  2023-10-24 15:16:27.247682
990  2023-10-24 15:16:27.279629
991  2023-10-24 15:16:27.311546
992  2023-10-24 15:16:27.359384
993  2023-10-24 15:16:27.391298
994  2023-10-24 15:16:27.423213
995  2023-10-24 15:16:27.456125
996  2023-10-24 15:16:27.488040
997  2023-10-24 15:16:27.520144
998  2023-10-24 15:16:27.551216
999  2023-10-24 15:16:27.584128
1000  2023-10-24 15:16:27.616043
1001  2023-10-24 15:16:27.648048
1002  2023-10-24 15:16:27.679913
1003  2023-10-24 15:16:27.711845
1004  2023-10-24 15:16:27.759659
1005  2023-10-24 15:16:27.791573
1006  2023-10-24 15:16:27.823490
1007  2023-10-24 15:16:27.856408
1008  2023-10-24 15:16:27.888315
1009  2023-10-24 15:16:27.920232
1010  2023-10-24 15:16:27.952145
1011  2023-10-24 15:16:27.984058
1012  2023-10-24 15:16:28.015973
1013  2023-10-24 15:16:28.047889
1014  2023-10-24 15:16:28.079853
1015  2023-10-24 15:16:28.111749
1016  2023-10-24 15:16:28.159589
1017  2023-10-24 15:16:28.191504
1018  2023-10-24 15:16:28.224417
1019  2023-10-24 15:16:28.256330
1020  2023-10-24 15:16:28.288276
1021  2023-10-24 15:16:28.320161
1022  2023-10-24 15:16:28.352075
1023  2023-10-24 15:16:28.384023
1024  2023-10-24 15:16:28.415904
1025  2023-10-24 15:16:28.447819
1026  2023-10-24 15:16:28.479733
1027  2023-10-24 15:16:28.511681
1028  2023-10-24 15:16:28.559584
1029  2023-10-24 15:16:28.591471
1030  2023-10-24 15:16:28.624381
1031  2023-10-24 15:16:28.656261
1032  2023-10-24 15:16:28.688181
1033  2023-10-24 15:16:28.720130
1034  2023-10-24 15:16:28.752037
1035  2023-10-24 15:16:28.783962
1036  2023-10-24 15:16:28.815868
1037  2023-10-24 15:16:28.847810
1038  2023-10-24 15:16:28.879695
1039  2023-10-24 15:16:28.911630
1040  2023-10-24 15:16:28.960449
1041  2023-10-24 15:16:28.991379
1042  2023-10-24 15:16:29.023281
1043  2023-10-24 15:16:29.056195
1044  2023-10-24 15:16:29.088109
1045  2023-10-24 15:16:29.120021
1046  2023-10-24 15:16:29.151936
1047  2023-10-24 15:16:29.183852
1048  2023-10-24 15:16:29.215765
1049  2023-10-24 15:16:29.248684
1050  2023-10-24 15:16:29.280597
1051  2023-10-24 15:16:29.312537
1052  2023-10-24 15:16:29.359413
1053  2023-10-24 15:16:29.392299
1054  2023-10-24 15:16:29.424208
1055  2023-10-24 15:16:29.456157
1056  2023-10-24 15:16:29.488108
1057  2023-10-24 15:16:29.520001
1058  2023-10-24 15:16:29.551956
1059  2023-10-24 15:16:29.583906
1060  2023-10-24 15:16:29.615786
1061  2023-10-24 15:16:29.647744
1062  2023-10-24 15:16:29.680673
1063  2023-10-24 15:16:29.712648
1064  2023-10-24 15:16:29.760583
1065  2023-10-24 15:16:29.791494
1066  2023-10-24 15:16:29.824422
1067  2023-10-24 15:16:29.855286
1068  2023-10-24 15:16:29.888247
1069  2023-10-24 15:16:29.920182
1070  2023-10-24 15:16:29.952105
1071  2023-10-24 15:16:29.983944
1072  2023-10-24 15:16:30.015898
1073  2023-10-24 15:16:30.047802
1074  2023-10-24 15:16:30.079741
1075  2023-10-24 15:16:30.111642
1076  2023-10-24 15:16:30.159520
1077  2023-10-24 15:16:30.191412
1078  2023-10-24 15:16:30.224347
1079  2023-10-24 15:16:30.255248
1080  2023-10-24 15:16:30.288129
1081  2023-10-24 15:16:30.320086
1082  2023-10-24 15:16:30.352005
1083  2023-10-24 15:16:30.383926
1084  2023-10-24 15:16:30.415787
1085  2023-10-24 15:16:30.447702
1086  2023-10-24 15:16:30.479661
1087  2023-10-24 15:16:30.511596
1088  2023-10-24 15:16:30.559444
1089  2023-10-24 15:16:30.591375
1090  2023-10-24 15:16:30.624272
1091  2023-10-24 15:16:30.656145
1092  2023-10-24 15:16:30.688094
1093  2023-10-24 15:16:30.719998
1094  2023-10-24 15:16:30.751930
1095  2023-10-24 15:16:30.783836
1096  2023-10-24 15:16:30.815751
1097  2023-10-24 15:16:30.847658
1098  2023-10-24 15:16:30.879614
1099  2023-10-24 15:16:30.927456
1100  2023-10-24 15:16:30.959367
1101  2023-10-24 15:16:30.991299
1102  2023-10-24 15:16:31.023196
1103  2023-10-24 15:16:31.056099
1104  2023-10-24 15:16:31.087990
1105  2023-10-24 15:16:31.119946
1106  2023-10-24 15:16:31.151861
1107  2023-10-24 15:16:31.183784
1108  2023-10-24 15:16:31.215649
1109  2023-10-24 15:16:31.247564
1110  2023-10-24 15:16:31.279513
1111  2023-10-24 15:16:31.327350
1112  2023-10-24 15:16:31.359298
1113  2023-10-24 15:16:31.391212
1114  2023-10-24 15:16:31.424149
1115  2023-10-24 15:16:31.456041
1116  2023-10-24 15:16:31.487921
1117  2023-10-24 15:16:31.519883
1118  2023-10-24 15:16:31.551782
1119  2023-10-24 15:16:31.583667
1120  2023-10-24 15:16:31.615628
1121  2023-10-24 15:16:31.647494
1122  2023-10-24 15:16:31.680407
1123  2023-10-24 15:16:31.727331
1124  2023-10-24 15:16:31.760196
1125  2023-10-24 15:16:31.792111
1126  2023-10-24 15:16:31.824067
1127  2023-10-24 15:16:31.855980
1128  2023-10-24 15:16:31.887906
1129  2023-10-24 15:16:31.919797
1130  2023-10-24 15:16:31.951725
1131  2023-10-24 15:16:31.983647
1132  2023-10-24 15:16:32.015585
1133  2023-10-24 15:16:32.047477
1134  2023-10-24 15:16:32.079393
1135  2023-10-24 15:16:32.128209
1136  2023-10-24 15:16:32.160124
1137  2023-10-24 15:16:32.192120
1138  2023-10-24 15:16:32.224003
1139  2023-10-24 15:16:32.255901
1140  2023-10-24 15:16:32.287782
1141  2023-10-24 15:16:32.319697
1142  2023-10-24 15:16:32.351655
1143  2023-10-24 15:16:32.383588
1144  2023-10-24 15:16:32.415475
1145  2023-10-24 15:16:32.447406
1146  2023-10-24 15:16:32.479320
1147  2023-10-24 15:16:32.528140
1148  2023-10-24 15:16:32.560069
1149  2023-10-24 15:16:32.592013
1150  2023-10-24 15:16:32.623925
1151  2023-10-24 15:16:32.655840
1152  2023-10-24 15:16:32.687746
1153  2023-10-24 15:16:32.719652
1154  2023-10-24 15:16:32.751598
1155  2023-10-24 15:16:32.783489
1156  2023-10-24 15:16:32.815403
1157  2023-10-24 15:16:32.847313
1158  2023-10-24 15:16:32.879250
1159  2023-10-24 15:16:32.928102
1160  2023-10-24 15:16:32.959985
1161  2023-10-24 15:16:32.991931
1162  2023-10-24 15:16:33.023845
1163  2023-10-24 15:16:33.055779
1164  2023-10-24 15:16:33.087681
1165  2023-10-24 15:16:33.119559
1166  2023-10-24 15:16:33.151509
1167  2023-10-24 15:16:33.183445
1168  2023-10-24 15:16:33.216301
1169  2023-10-24 15:16:33.248289
1170  2023-10-24 15:16:33.279189
1171  2023-10-24 15:16:33.328001
1172  2023-10-24 15:16:33.359916
1173  2023-10-24 15:16:33.391872
1174  2023-10-24 15:16:33.424764
1175  2023-10-24 15:16:33.455701
1176  2023-10-24 15:16:33.487575
1177  2023-10-24 15:16:33.519565
1178  2023-10-24 15:16:33.551407
1179  2023-10-24 15:16:33.583368
1180  2023-10-24 15:16:33.616280
1181  2023-10-24 15:16:33.648145
1182  2023-10-24 15:16:33.680119
1183  2023-10-24 15:16:33.727973
1184  2023-10-24 15:16:33.759873
1185  2023-10-24 15:16:33.791802
1186  2023-10-24 15:16:33.823722
1187  2023-10-24 15:16:33.855636
1188  2023-10-24 15:16:33.887547
1189  2023-10-24 15:16:33.919420
1190  2023-10-24 15:16:33.951334
1191  2023-10-24 15:16:33.983299
1192  2023-10-24 15:16:34.015210
1193  2023-10-24 15:16:34.048137
1194  2023-10-24 15:16:34.080052
1195  2023-10-24 15:16:34.127901
1196  2023-10-24 15:16:34.159818
1197  2023-10-24 15:16:34.191692
1198  2023-10-24 15:16:34.223652
1199  2023-10-24 15:16:34.255606
1200  2023-10-24 15:16:34.287470
1201  2023-10-24 15:16:34.319350
1202  2023-10-24 15:16:34.351300
1203  2023-10-24 15:16:34.383225
1204  2023-10-24 15:16:34.416154
1205  2023-10-24 15:16:34.448056
1206  2023-10-24 15:16:34.495912
1207  2023-10-24 15:16:34.527835
1208  2023-10-24 15:16:34.559740
1209  2023-10-24 15:16:34.591656
1210  2023-10-24 15:16:34.623600
1211  2023-10-24 15:16:34.655613
1212  2023-10-24 15:16:34.687466
1213  2023-10-24 15:16:34.719397
1214  2023-10-24 15:16:34.751268
1215  2023-10-24 15:16:34.783214
1216  2023-10-24 15:16:34.816122
1217  2023-10-24 15:16:34.848041
1218  2023-10-24 15:16:34.895915
1219  2023-10-24 15:16:34.927852
1220  2023-10-24 15:16:34.959712
1221  2023-10-24 15:16:34.991626
1222  2023-10-24 15:16:35.023609
1223  2023-10-24 15:16:35.055494
1224  2023-10-24 15:16:35.087419
1225  2023-10-24 15:16:35.119284
1226  2023-10-24 15:16:35.152197
1227  2023-10-24 15:16:35.183240
1228  2023-10-24 15:16:35.216122
1229  2023-10-24 15:16:35.247113
1230  2023-10-24 15:16:35.295984
1231  2023-10-24 15:16:35.327905
1232  2023-10-24 15:16:35.359779
1233  2023-10-24 15:16:35.391735
1234  2023-10-24 15:16:35.423650
1235  2023-10-24 15:16:35.455566
1236  2023-10-24 15:16:35.487480
1237  2023-10-24 15:16:35.519352
1238  2023-10-24 15:16:35.551301
1239  2023-10-24 15:16:35.583217
1240  2023-10-24 15:16:35.616132
1241  2023-10-24 15:16:35.648054
1242  2023-10-24 15:16:35.695922
1243  2023-10-24 15:16:35.727841
1244  2023-10-24 15:16:35.759743
1245  2023-10-24 15:16:35.791624
1246  2023-10-24 15:16:35.823539
1247  2023-10-24 15:16:35.855518
1248  2023-10-24 15:16:35.887399
1249  2023-10-24 15:16:35.919332
1250  2023-10-24 15:16:35.952195
1251  2023-10-24 15:16:35.984110
1252  2023-10-24 15:16:36.016069
1253  2023-10-24 15:16:36.047972
1254  2023-10-24 15:16:36.095844
1255  2023-10-24 15:16:36.127768
1256  2023-10-24 15:16:36.159698
1257  2023-10-24 15:16:36.191555
1258  2023-10-24 15:16:36.223470
1259  2023-10-24 15:16:36.255452
1260  2023-10-24 15:16:36.287350
1261  2023-10-24 15:16:36.319247
1262  2023-10-24 15:16:36.352126
1263  2023-10-24 15:16:36.384040
1264  2023-10-24 15:16:36.415955
1265  2023-10-24 15:16:36.447870
1266  2023-10-24 15:16:36.495742
1267  2023-10-24 15:16:36.527700
1268  2023-10-24 15:16:36.559615
1269  2023-10-24 15:16:36.591486
1270  2023-10-24 15:16:36.623400
1271  2023-10-24 15:16:36.655347
1272  2023-10-24 15:16:36.688241
1273  2023-10-24 15:16:36.720195
1274  2023-10-24 15:16:36.752057
1275  2023-10-24 15:16:36.784064
1276  2023-10-24 15:16:36.815961
1277  2023-10-24 15:16:36.847876
1278  2023-10-24 15:16:36.895748
1279  2023-10-24 15:16:36.927714
1280  2023-10-24 15:16:36.959632
1281  2023-10-24 15:16:36.991492
1282  2023-10-24 15:16:37.023406
1283  2023-10-24 15:16:37.055321
1284  2023-10-24 15:16:37.088236
1285  2023-10-24 15:16:37.120147
1286  2023-10-24 15:16:37.152063
1287  2023-10-24 15:16:37.183977
1288  2023-10-24 15:16:37.215892
1289  2023-10-24 15:16:37.247806
1290  2023-10-24 15:16:37.295704
1291  2023-10-24 15:16:37.327593
1292  2023-10-24 15:16:37.359508
1293  2023-10-24 15:16:37.391422
1294  2023-10-24 15:16:37.423388
1295  2023-10-24 15:16:37.455252
1296  2023-10-24 15:16:37.488164
1297  2023-10-24 15:16:37.520078
1298  2023-10-24 15:16:37.552025
1299  2023-10-24 15:16:37.583907
1300  2023-10-24 15:16:37.615822
1301  2023-10-24 15:16:37.647737
1302  2023-10-24 15:16:37.695609
1303  2023-10-24 15:16:37.727524
1304  2023-10-24 15:16:37.759476
1305  2023-10-24 15:16:37.791353
1306  2023-10-24 15:16:37.823267
1307  2023-10-24 15:16:37.855182
1308  2023-10-24 15:16:37.887129
1309  2023-10-24 15:16:37.920042
1310  2023-10-24 15:16:37.951923
1311  2023-10-24 15:16:37.983838
1312  2023-10-24 15:16:38.015783
1313  2023-10-24 15:16:38.047701
1314  2023-10-24 15:16:38.095592
1315  2023-10-24 15:16:38.127454
1316  2023-10-24 15:16:38.159369
1317  2023-10-24 15:16:38.191283
1318  2023-10-24 15:16:38.223248
1319  2023-10-24 15:16:38.256110
1320  2023-10-24 15:16:38.288025
1321  2023-10-24 15:16:38.319940
1322  2023-10-24 15:16:38.351882
1323  2023-10-24 15:16:38.383965
1324  2023-10-24 15:16:38.415877
1325  2023-10-24 15:16:38.463749
1326  2023-10-24 15:16:38.495663
1327  2023-10-24 15:16:38.527578
1328  2023-10-24 15:16:38.559508
1329  2023-10-24 15:16:38.591438
1330  2023-10-24 15:16:38.623322
1331  2023-10-24 15:16:38.655237
1332  2023-10-24 15:16:38.687165
1333  2023-10-24 15:16:38.720063
1334  2023-10-24 15:16:38.751978
1335  2023-10-24 15:16:38.783893
1336  2023-10-24 15:16:38.815807
1337  2023-10-24 15:16:38.863137
1338  2023-10-24 15:16:38.896049
1339  2023-10-24 15:16:38.927964
1340  2023-10-24 15:16:38.960004
1341  2023-10-24 15:16:38.991918
1342  2023-10-24 15:16:39.023833
1343  2023-10-24 15:16:39.055822
1344  2023-10-24 15:16:39.087758
1345  2023-10-24 15:16:39.119673
1346  2023-10-24 15:16:39.151588
1347  2023-10-24 15:16:39.183502
1348  2023-10-24 15:16:39.215417
1349  2023-10-24 15:16:39.264286
1350  2023-10-24 15:16:39.296204
1351  2023-10-24 15:16:39.327118
1352  2023-10-24 15:16:39.360030
1353  2023-10-24 15:16:39.391945
1354  2023-10-24 15:16:39.423860
1355  2023-10-24 15:16:39.455780
1356  2023-10-24 15:16:39.487689
1357  2023-10-24 15:16:39.519604
1358  2023-10-24 15:16:39.552544
1359  2023-10-24 15:16:39.584431
1360  2023-10-24 15:16:39.615348
1361  2023-10-24 15:16:39.664217
1362  2023-10-24 15:16:39.695134
1363  2023-10-24 15:16:39.728046
1364  2023-10-24 15:16:39.759961
1365  2023-10-24 15:16:39.791883
1366  2023-10-24 15:16:39.823790
1367  2023-10-24 15:16:39.855705
1368  2023-10-24 15:16:39.887620
1369  2023-10-24 15:16:39.920567
1370  2023-10-24 15:16:39.951449
1371  2023-10-24 15:16:39.983364
1372  2023-10-24 15:16:40.015280
1373  2023-10-24 15:16:40.064149
1374  2023-10-24 15:16:40.095190
1375  2023-10-24 15:16:40.128072
1376  2023-10-24 15:16:40.160045
1377  2023-10-24 15:16:40.192034
1378  2023-10-24 15:16:40.223054
1379  2023-10-24 15:16:40.255951
1380  2023-10-24 15:16:40.287835
1381  2023-10-24 15:16:40.319750
1382  2023-10-24 15:16:40.351665
1383  2023-10-24 15:16:40.383617
1384  2023-10-24 15:16:40.415567
1385  2023-10-24 15:16:40.463479
1386  2023-10-24 15:16:40.495354
1387  2023-10-24 15:16:40.527269
1388  2023-10-24 15:16:40.559183
1389  2023-10-24 15:16:40.591131
1390  2023-10-24 15:16:40.624010
1391  2023-10-24 15:16:40.655925
1392  2023-10-24 15:16:40.687839
1393  2023-10-24 15:16:40.719786
1394  2023-10-24 15:16:40.751669
1395  2023-10-24 15:16:40.783583
1396  2023-10-24 15:16:40.815498
1397  2023-10-24 15:16:40.863370
1398  2023-10-24 15:16:40.895285
1399  2023-10-24 15:16:40.927233
1400  2023-10-24 15:16:40.960111
1401  2023-10-24 15:16:40.992026
1402  2023-10-24 15:16:41.023941
1403  2023-10-24 15:16:41.055880
1404  2023-10-24 15:16:41.087813
1405  2023-10-24 15:16:41.119685
1406  2023-10-24 15:16:41.151599
1407  2023-10-24 15:16:41.183579
1408  2023-10-24 15:16:41.215463
1409  2023-10-24 15:16:41.263334
1410  2023-10-24 15:16:41.295215
1411  2023-10-24 15:16:41.327130
1412  2023-10-24 15:16:41.360042
1413  2023-10-24 15:16:41.391957
1414  2023-10-24 15:16:41.423871
1415  2023-10-24 15:16:41.455786
1416  2023-10-24 15:16:41.487701
1417  2023-10-24 15:16:41.519615
1418  2023-10-24 15:16:41.551530
1419  2023-10-24 15:16:41.583445
1420  2023-10-24 15:16:41.615359
1421  2023-10-24 15:16:41.663231
1422  2023-10-24 15:16:41.696143
1423  2023-10-24 15:16:41.728058
1424  2023-10-24 15:16:41.759973
1425  2023-10-24 15:16:41.791887
1426  2023-10-24 15:16:41.823802
1427  2023-10-24 15:16:41.855717
1428  2023-10-24 15:16:41.887635
1429  2023-10-24 15:16:41.919546
1430  2023-10-24 15:16:41.951461
1431  2023-10-24 15:16:41.983375
1432  2023-10-24 15:16:42.031272
1433  2023-10-24 15:16:42.064159
1434  2023-10-24 15:16:42.095077
1435  2023-10-24 15:16:42.127989
1436  2023-10-24 15:16:42.159904
1437  2023-10-24 15:16:42.191820
1438  2023-10-24 15:16:42.223733
1439  2023-10-24 15:16:42.255647
1440  2023-10-24 15:16:42.287562
1441  2023-10-24 15:16:42.319477
1442  2023-10-24 15:16:42.351391
1443  2023-10-24 15:16:42.384304
1444  2023-10-24 15:16:42.431212
1445  2023-10-24 15:16:42.464093
1446  2023-10-24 15:16:42.496005
1447  2023-10-24 15:16:42.527920
1448  2023-10-24 15:16:42.559834
1449  2023-10-24 15:16:42.591801
1450  2023-10-24 15:16:42.623713
1451  2023-10-24 15:16:42.655578
1452  2023-10-24 15:16:42.687493
1453  2023-10-24 15:16:42.719447
1454  2023-10-24 15:16:42.751362
1455  2023-10-24 15:16:42.783237
1456  2023-10-24 15:16:42.832145
1457  2023-10-24 15:16:42.864021
1458  2023-10-24 15:16:42.895936
1459  2023-10-24 15:16:42.927882
1460  2023-10-24 15:16:42.959766
1461  2023-10-24 15:16:42.991679
1462  2023-10-24 15:16:43.023594
1463  2023-10-24 15:16:43.055544
1464  2023-10-24 15:16:43.087457
1465  2023-10-24 15:16:43.119338
1466  2023-10-24 15:16:43.151253
1467  2023-10-24 15:16:43.184165
1468  2023-10-24 15:16:43.231083
1469  2023-10-24 15:16:43.263982
1470  2023-10-24 15:16:43.295896
1471  2023-10-24 15:16:43.327781
1472  2023-10-24 15:16:43.359696
1473  2023-10-24 15:16:43.391640
1474  2023-10-24 15:16:43.423606
1475  2023-10-24 15:16:43.455440
1476  2023-10-24 15:16:43.487354
1477  2023-10-24 15:16:43.519269
1478  2023-10-24 15:16:43.551214
1479  2023-10-24 15:16:43.584096
1480  2023-10-24 15:16:43.632000
1481  2023-10-24 15:16:43.663992
1482  2023-10-24 15:16:43.695907
1483  2023-10-24 15:16:43.727821
1484  2023-10-24 15:16:43.759736
1485  2023-10-24 15:16:43.791651
1486  2023-10-24 15:16:43.823565
1487  2023-10-24 15:16:43.855481
1488  2023-10-24 15:16:43.887395
1489  2023-10-24 15:16:43.919309
1490  2023-10-24 15:16:43.951224
1491  2023-10-24 15:16:43.984136
1492  2023-10-24 15:16:44.032033
1493  2023-10-24 15:16:44.063923
1494  2023-10-24 15:16:44.095837
1495  2023-10-24 15:16:44.127752
1496  2023-10-24 15:16:44.159667
1497  2023-10-24 15:16:44.191581
1498  2023-10-24 15:16:44.223496
1499  2023-10-24 15:16:44.255411
1500  2023-10-24 15:16:44.287325
1501  2023-10-24 15:16:44.320252
1502  2023-10-24 15:16:44.351155
1503  2023-10-24 15:16:44.384067
1504  2023-10-24 15:16:44.431986
1505  2023-10-24 15:16:44.464896
1506  2023-10-24 15:16:44.495913
1507  2023-10-24 15:16:44.527828
1508  2023-10-24 15:16:44.560772
1509  2023-10-24 15:16:44.592701
1510  2023-10-24 15:16:44.624610
1511  2023-10-24 15:16:44.656526
1512  2023-10-24 15:16:44.688411
1513  2023-10-24 15:16:44.720497
1514  2023-10-24 15:16:44.752343
1515  2023-10-24 15:16:44.784268
1516  2023-10-24 15:16:44.833127
1517  2023-10-24 15:16:44.864044
1518  2023-10-24 15:16:44.895960
1519  2023-10-24 15:16:44.927872
1520  2023-10-24 15:16:44.960827
1521  2023-10-24 15:16:44.991872
1522  2023-10-24 15:16:45.023776
1523  2023-10-24 15:16:45.055725
1524  2023-10-24 15:16:45.087662
1525  2023-10-24 15:16:45.119617
1526  2023-10-24 15:16:45.151532
1527  2023-10-24 15:16:45.183446
1528  2023-10-24 15:16:45.231372
1529  2023-10-24 15:16:45.264265
1530  2023-10-24 15:16:45.296186
1531  2023-10-24 15:16:45.328091
1532  2023-10-24 15:16:45.360005
1533  2023-10-24 15:16:45.391941
1534  2023-10-24 15:16:45.423835
1535  2023-10-24 15:16:45.455755
1536  2023-10-24 15:16:45.487675
1537  2023-10-24 15:16:45.519672
1538  2023-10-24 15:16:45.551596
1539  2023-10-24 15:16:45.599476
1540  2023-10-24 15:16:45.631392
1541  2023-10-24 15:16:45.663257
1542  2023-10-24 15:16:45.696169
1543  2023-10-24 15:16:45.728118
1544  2023-10-24 15:16:45.760028
1545  2023-10-24 15:16:45.791976
1546  2023-10-24 15:16:45.823828
1547  2023-10-24 15:16:45.855742
1548  2023-10-24 15:16:45.888688
1549  2023-10-24 15:16:45.920596
1550  2023-10-24 15:16:45.952514
1551  2023-10-24 15:16:46.000357
1552  2023-10-24 15:16:46.032332
1553  2023-10-24 15:16:46.063219
1554  2023-10-24 15:16:46.096139
1555  2023-10-24 15:16:46.128014
1556  2023-10-24 15:16:46.159930
1557  2023-10-24 15:16:46.191852
1558  2023-10-24 15:16:46.223820
1559  2023-10-24 15:16:46.255746
1560  2023-10-24 15:16:46.287587
1561  2023-10-24 15:16:46.319565
1562  2023-10-24 15:16:46.351417
1563  2023-10-24 15:16:46.400296
1564  2023-10-24 15:16:46.432293
1565  2023-10-24 15:16:46.465161
1566  2023-10-24 15:16:46.496144
1567  2023-10-24 15:16:46.527991
1568  2023-10-24 15:16:46.559939
1569  2023-10-24 15:16:46.591995
1570  2023-10-24 15:16:46.624883
1571  2023-10-24 15:16:46.655832
1572  2023-10-24 15:16:46.687746
1573  2023-10-24 15:16:46.720731
1574  2023-10-24 15:16:46.752590
1575  2023-10-24 15:16:46.800473
1576  2023-10-24 15:16:46.831365
1577  2023-10-24 15:16:46.863259
1578  2023-10-24 15:16:46.895158
1579  2023-10-24 15:16:46.928133
1580  2023-10-24 15:16:46.959986
1581  2023-10-24 15:16:46.991924
1582  2023-10-24 15:16:47.023816
1583  2023-10-24 15:16:47.055762
1584  2023-10-24 15:16:47.087675
1585  2023-10-24 15:16:47.119605
1586  2023-10-24 15:16:47.151520
1587  2023-10-24 15:16:47.199389
1588  2023-10-24 15:16:47.231291
1589  2023-10-24 15:16:47.263207
1590  2023-10-24 15:16:47.296086
1591  2023-10-24 15:16:47.328001
1592  2023-10-24 15:16:47.359916
1593  2023-10-24 15:16:47.391881
1594  2023-10-24 15:16:47.423792
1595  2023-10-24 15:16:47.455659
1596  2023-10-24 15:16:47.487574
1597  2023-10-24 15:16:47.519539
1598  2023-10-24 15:16:47.551476
1599  2023-10-24 15:16:47.600324
1600  2023-10-24 15:16:47.632264
1601  2023-10-24 15:16:47.664164
1602  2023-10-24 15:16:47.696077
1603  2023-10-24 15:16:47.727964
1604  2023-10-24 15:16:47.759881
1605  2023-10-24 15:16:47.791803
1606  2023-10-24 15:16:47.823701
1607  2023-10-24 15:16:47.855617
1608  2023-10-24 15:16:47.887565
1609  2023-10-24 15:16:47.919457
1610  2023-10-24 15:16:47.951388
1611  2023-10-24 15:16:47.999258
1612  2023-10-24 15:16:48.032161
1613  2023-10-24 15:16:48.064074
1614  2023-10-24 15:16:48.096001
1615  2023-10-24 15:16:48.127862
1616  2023-10-24 15:16:48.159820
1617  2023-10-24 15:16:48.191745
1618  2023-10-24 15:16:48.223642
1619  2023-10-24 15:16:48.255573
1620  2023-10-24 15:16:48.287530
1621  2023-10-24 15:16:48.319445
1622  2023-10-24 15:16:48.351409
1623  2023-10-24 15:16:48.400231
1624  2023-10-24 15:16:48.432153
1625  2023-10-24 15:16:48.464080
1626  2023-10-24 15:16:48.495983
1627  2023-10-24 15:16:48.527888
1628  2023-10-24 15:16:48.559855
1629  2023-10-24 15:16:48.591744
1630  2023-10-24 15:16:48.623685
1631  2023-10-24 15:16:48.655614
1632  2023-10-24 15:16:48.687461
1633  2023-10-24 15:16:48.720376
1634  2023-10-24 15:16:48.752292
1635  2023-10-24 15:16:48.800242
1636  2023-10-24 15:16:48.832148
1637  2023-10-24 15:16:48.864023
1638  2023-10-24 15:16:48.895946
1639  2023-10-24 15:16:48.927852
1640  2023-10-24 15:16:48.959763
1641  2023-10-24 15:16:48.991694
1642  2023-10-24 15:16:49.023638
1643  2023-10-24 15:16:49.055511
1644  2023-10-24 15:16:49.087480
1645  2023-10-24 15:16:49.119381
1646  2023-10-24 15:16:49.151378
1647  2023-10-24 15:16:49.199253
1648  2023-10-24 15:16:49.231162
1649  2023-10-24 15:16:49.264099
1650  2023-10-24 15:16:49.295992
1651  2023-10-24 15:16:49.327888
1652  2023-10-24 15:16:49.359771
1653  2023-10-24 15:16:49.391727
1654  2023-10-24 15:16:49.423664
1655  2023-10-24 15:16:49.455565
1656  2023-10-24 15:16:49.487430
1657  2023-10-24 15:16:49.519349
1658  2023-10-24 15:16:49.567262
1659  2023-10-24 15:16:49.599168
1660  2023-10-24 15:16:49.632114
1661  2023-10-24 15:16:49.663989
1662  2023-10-24 15:16:49.695905
1663  2023-10-24 15:16:49.727824
1664  2023-10-24 15:16:49.759734
1665  2023-10-24 15:16:49.791649
1666  2023-10-24 15:16:49.823562
1667  2023-10-24 15:16:49.855486
1668  2023-10-24 15:16:49.887394
1669  2023-10-24 15:16:49.919275
1670  2023-10-24 15:16:49.967199
1671  2023-10-24 15:16:50.000122
1672  2023-10-24 15:16:50.032026
1673  2023-10-24 15:16:50.063930
1674  2023-10-24 15:16:50.095846
1675  2023-10-24 15:16:50.127720
1676  2023-10-24 15:16:50.159633
1677  2023-10-24 15:16:50.191547
1678  2023-10-24 15:16:50.223524
1679  2023-10-24 15:16:50.256376
1680  2023-10-24 15:16:50.287322
1681  2023-10-24 15:16:50.319206
1682  2023-10-24 15:16:50.368159
1683  2023-10-24 15:16:50.400027
1684  2023-10-24 15:16:50.431945
1685  2023-10-24 15:16:50.463845
1686  2023-10-24 15:16:50.495767
1687  2023-10-24 15:16:50.527691
1688  2023-10-24 15:16:50.559630
1689  2023-10-24 15:16:50.591516
1690  2023-10-24 15:16:50.623609
1691  2023-10-24 15:16:50.655512
1692  2023-10-24 15:16:50.687420
1693  2023-10-24 15:16:50.719359
1694  2023-10-24 15:16:50.768205
1695  2023-10-24 15:16:50.800122
1696  2023-10-24 15:16:50.832061
1697  2023-10-24 15:16:50.863962
1698  2023-10-24 15:16:50.895863
1699  2023-10-24 15:16:50.927772
1700  2023-10-24 15:16:50.959696
1701  2023-10-24 15:16:50.991577
1702  2023-10-24 15:16:51.023557
1703  2023-10-24 15:16:51.055454
1704  2023-10-24 15:16:51.087388
1705  2023-10-24 15:16:51.119383
1706  2023-10-24 15:16:51.168302
1707  2023-10-24 15:16:51.199219
1708  2023-10-24 15:16:51.231127
1709  2023-10-24 15:16:51.264039
1710  2023-10-24 15:16:51.295964
1711  2023-10-24 15:16:51.327880
1712  2023-10-24 15:16:51.359794
1713  2023-10-24 15:16:51.391709
1714  2023-10-24 15:16:51.423624
1715  2023-10-24 15:16:51.455539
1716  2023-10-24 15:16:51.487453
1717  2023-10-24 15:16:51.519486
1718  2023-10-24 15:16:51.567340
1719  2023-10-24 15:16:51.599260
1720  2023-10-24 15:16:51.632132
1721  2023-10-24 15:16:51.664159
1722  2023-10-24 15:16:51.696099
1723  2023-10-24 15:16:51.728002
1724  2023-10-24 15:16:51.759881
1725  2023-10-24 15:16:51.791788
1726  2023-10-24 15:16:51.823737
1727  2023-10-24 15:16:51.855660
1728  2023-10-24 15:16:51.887551
1729  2023-10-24 15:16:51.920485
1730  2023-10-24 15:16:51.967315
1731  2023-10-24 15:16:51.999230
1732  2023-10-24 15:16:52.032169
1733  2023-10-24 15:16:52.064099
1734  2023-10-24 15:16:52.095971
1735  2023-10-24 15:16:52.127917
1736  2023-10-24 15:16:52.159800
1737  2023-10-24 15:16:52.191715
1738  2023-10-24 15:16:52.223664
1739  2023-10-24 15:16:52.255590
1740  2023-10-24 15:16:52.287493
1741  2023-10-24 15:16:52.320371
1742  2023-10-24 15:16:52.367279
1743  2023-10-24 15:16:52.399191
1744  2023-10-24 15:16:52.432120
1745  2023-10-24 15:16:52.464013
1746  2023-10-24 15:16:52.495952
1747  2023-10-24 15:16:52.527861
1748  2023-10-24 15:16:52.559774
1749  2023-10-24 15:16:52.591688
1750  2023-10-24 15:16:52.623560
1751  2023-10-24 15:16:52.655516
1752  2023-10-24 15:16:52.687457
1753  2023-10-24 15:16:52.720340
1754  2023-10-24 15:16:52.767232
1755  2023-10-24 15:16:52.799124
1756  2023-10-24 15:16:52.832033
1757  2023-10-24 15:16:52.863918
1758  2023-10-24 15:16:52.895877
1759  2023-10-24 15:16:52.927795
1760  2023-10-24 15:16:52.959713
1761  2023-10-24 15:16:52.991577
1762  2023-10-24 15:16:53.023491
1763  2023-10-24 15:16:53.055471
1764  2023-10-24 15:16:53.087369
1765  2023-10-24 15:16:53.135269
1766  2023-10-24 15:16:53.167142
1767  2023-10-24 15:16:53.200051
1768  2023-10-24 15:16:53.231967
1769  2023-10-24 15:16:53.263848
1770  2023-10-24 15:16:53.295817
1771  2023-10-24 15:16:53.327703
1772  2023-10-24 15:16:53.359626
1773  2023-10-24 15:16:53.391521
1774  2023-10-24 15:16:53.423422
1775  2023-10-24 15:16:53.456334
1776  2023-10-24 15:16:53.487283
1777  2023-10-24 15:16:53.536189
1778  2023-10-24 15:16:53.568082
1779  2023-10-24 15:16:53.599996
1780  2023-10-24 15:16:53.631905
1781  2023-10-24 15:16:53.663779
1782  2023-10-24 15:16:53.695694
1783  2023-10-24 15:16:53.727609
1784  2023-10-24 15:16:53.759523
1785  2023-10-24 15:16:53.791439
1786  2023-10-24 15:16:53.823352
1787  2023-10-24 15:16:53.855303
1788  2023-10-24 15:16:53.887217
1789  2023-10-24 15:16:53.936083
1790  2023-10-24 15:16:53.967997
1791  2023-10-24 15:16:53.999917
1792  2023-10-24 15:16:54.031826
1793  2023-10-24 15:16:54.063710
1794  2023-10-24 15:16:54.095667
1795  2023-10-24 15:16:54.127573
1796  2023-10-24 15:16:54.159454
1797  2023-10-24 15:16:54.191369
1798  2023-10-24 15:16:54.223283
1799  2023-10-24 15:16:54.256208
1800  2023-10-24 15:16:54.288110
1801  2023-10-24 15:16:54.336038
1802  2023-10-24 15:16:54.367929
1803  2023-10-24 15:16:54.399845
1804  2023-10-24 15:16:54.431755
1805  2023-10-24 15:16:54.463641
1806  2023-10-24 15:16:54.495556
1807  2023-10-24 15:16:54.527470
1808  2023-10-24 15:16:54.559385
1809  2023-10-24 15:16:54.591300
1810  2023-10-24 15:16:54.623215
1811  2023-10-24 15:16:54.656126
1812  2023-10-24 15:16:54.688042
1813  2023-10-24 15:16:54.735972
1814  2023-10-24 15:16:54.767868
1815  2023-10-24 15:16:54.799775
1816  2023-10-24 15:16:54.831694
1817  2023-10-24 15:16:54.863571
1818  2023-10-24 15:16:54.895486
1819  2023-10-24 15:16:54.927429
1820  2023-10-24 15:16:54.959315
1821  2023-10-24 15:16:54.991230
1822  2023-10-24 15:16:55.024142
1823  2023-10-24 15:16:55.056059
1824  2023-10-24 15:16:55.087997
1825  2023-10-24 15:16:55.135878
1826  2023-10-24 15:16:55.167792
1827  2023-10-24 15:16:55.199699
1828  2023-10-24 15:16:55.231630
1829  2023-10-24 15:16:55.263535
1830  2023-10-24 15:16:55.295417
1831  2023-10-24 15:16:55.327331
1832  2023-10-24 15:16:55.359246
1833  2023-10-24 15:16:55.392158
1834  2023-10-24 15:16:55.424073
1835  2023-10-24 15:16:55.455987
1836  2023-10-24 15:16:55.487902
1837  2023-10-24 15:16:55.535885
1838  2023-10-24 15:16:55.567780
1839  2023-10-24 15:16:55.599720
1840  2023-10-24 15:16:55.631612
1841  2023-10-24 15:16:55.663491
1842  2023-10-24 15:16:55.695406
1843  2023-10-24 15:16:55.727321
1844  2023-10-24 15:16:55.759235
1845  2023-10-24 15:16:55.792147
1846  2023-10-24 15:16:55.824062
1847  2023-10-24 15:16:55.855977
1848  2023-10-24 15:16:55.887891
1849  2023-10-24 15:16:55.935779
1850  2023-10-24 15:16:55.967713
1851  2023-10-24 15:16:55.999622
1852  2023-10-24 15:16:56.031536
1853  2023-10-24 15:16:56.063422
1854  2023-10-24 15:16:56.095337
1855  2023-10-24 15:16:56.128249
1856  2023-10-24 15:16:56.159166
1857  2023-10-24 15:16:56.192078
1858  2023-10-24 15:16:56.223993
1859  2023-10-24 15:16:56.255919
1860  2023-10-24 15:16:56.287825
1861  2023-10-24 15:16:56.335730
1862  2023-10-24 15:16:56.367678
1863  2023-10-24 15:16:56.399557
1864  2023-10-24 15:16:56.431467
1865  2023-10-24 15:16:56.463418
1866  2023-10-24 15:16:56.496330
1867  2023-10-24 15:16:56.528244
1868  2023-10-24 15:16:56.560159
1869  2023-10-24 15:16:56.592075
1870  2023-10-24 15:16:56.623989
1871  2023-10-24 15:16:56.655903
1872  2023-10-24 15:16:56.687817
1873  2023-10-24 15:16:56.735733
1874  2023-10-24 15:16:56.767631
1875  2023-10-24 15:16:56.799573
1876  2023-10-24 15:16:56.831435
1877  2023-10-24 15:16:56.863348
1878  2023-10-24 15:16:56.896260
1879  2023-10-24 15:16:56.928177
1880  2023-10-24 15:16:56.960091
1881  2023-10-24 15:16:56.992004
1882  2023-10-24 15:16:57.023919
1883  2023-10-24 15:16:57.055903
1884  2023-10-24 15:16:57.103740
1885  2023-10-24 15:16:57.135661
1886  2023-10-24 15:16:57.167569
1887  2023-10-24 15:16:57.199516
1888  2023-10-24 15:16:57.231579
1889  2023-10-24 15:16:57.263580
1890  2023-10-24 15:16:57.295498
1891  2023-10-24 15:16:57.327381
1892  2023-10-24 15:16:57.359295
1893  2023-10-24 15:16:57.392207
1894  2023-10-24 15:16:57.424169
1895  2023-10-24 15:16:57.456037
1896  2023-10-24 15:16:57.503910
1897  2023-10-24 15:16:57.535825
1898  2023-10-24 15:16:57.567775
1899  2023-10-24 15:16:57.599686
1900  2023-10-24 15:16:57.631568
1901  2023-10-24 15:16:57.663482
1902  2023-10-24 15:16:57.695397
1903  2023-10-24 15:16:57.727312
1904  2023-10-24 15:16:57.759260
1905  2023-10-24 15:16:57.792138
1906  2023-10-24 15:16:57.824053
1907  2023-10-24 15:16:57.855967
1908  2023-10-24 15:16:57.903869
1909  2023-10-24 15:16:57.935780
1910  2023-10-24 15:16:57.967702
1911  2023-10-24 15:16:57.999620
1912  2023-10-24 15:16:58.031539
1913  2023-10-24 15:16:58.063413
1914  2023-10-24 15:16:58.096380
1915  2023-10-24 15:16:58.128241
1916  2023-10-24 15:16:58.159157
1917  2023-10-24 15:16:58.192070
1918  2023-10-24 15:16:58.224014
1919  2023-10-24 15:16:58.255960
1920  2023-10-24 15:16:58.303944
1921  2023-10-24 15:16:58.335837
1922  2023-10-24 15:16:58.367747
1923  2023-10-24 15:16:58.399662
1924  2023-10-24 15:16:58.431584
1925  2023-10-24 15:16:58.463465
1926  2023-10-24 15:16:58.495379
1927  2023-10-24 15:16:58.527294
1928  2023-10-24 15:16:58.560206
1929  2023-10-24 15:16:58.592180
1930  2023-10-24 15:16:58.624035
1931  2023-10-24 15:16:58.655950
1932  2023-10-24 15:16:58.703865
1933  2023-10-24 15:16:58.735761
1934  2023-10-24 15:16:58.767676
1935  2023-10-24 15:16:58.799595
1936  2023-10-24 15:16:58.831530
1937  2023-10-24 15:16:58.863496
1938  2023-10-24 15:16:58.895497
1939  2023-10-24 15:16:58.927411
1940  2023-10-24 15:16:58.959326
1941  2023-10-24 15:16:58.992238
1942  2023-10-24 15:16:59.023301
1943  2023-10-24 15:16:59.055215
1944  2023-10-24 15:16:59.103134
1945  2023-10-24 15:16:59.136048
1946  2023-10-24 15:16:59.167946
1947  2023-10-24 15:16:59.199860
1948  2023-10-24 15:16:59.231775
1949  2023-10-24 15:16:59.263658
1950  2023-10-24 15:16:59.295573
1951  2023-10-24 15:16:59.327487
1952  2023-10-24 15:16:59.359402
1953  2023-10-24 15:16:59.391317
1954  2023-10-24 15:16:59.424230
1955  2023-10-24 15:16:59.456143
1956  2023-10-24 15:16:59.504049
1957  2023-10-24 15:16:59.535954
1958  2023-10-24 15:16:59.567875
1959  2023-10-24 15:16:59.599792
1960  2023-10-24 15:16:59.631723
1961  2023-10-24 15:16:59.663589
1962  2023-10-24 15:16:59.695503
1963  2023-10-24 15:16:59.727418
1964  2023-10-24 15:16:59.760330
1965  2023-10-24 15:16:59.792245
1966  2023-10-24 15:16:59.824159
1967  2023-10-24 15:16:59.856074
1968  2023-10-24 15:16:59.903978
1969  2023-10-24 15:16:59.935926
1970  2023-10-24 15:16:59.967818
1971  2023-10-24 15:16:59.999691
1972  2023-10-24 15:17:00.031663
1973  2023-10-24 15:17:00.063519
1974  2023-10-24 15:17:00.095435
1975  2023-10-24 15:17:00.127349
1976  2023-10-24 15:17:00.160261
1977  2023-10-24 15:17:00.191178
1978  2023-10-24 15:17:00.224090
1979  2023-10-24 15:17:00.256005
1980  2023-10-24 15:17:00.303907
1981  2023-10-24 15:17:00.335815
1982  2023-10-24 15:17:00.367739
1983  2023-10-24 15:17:00.399656
1984  2023-10-24 15:17:00.431570
1985  2023-10-24 15:17:00.463476
1986  2023-10-24 15:17:00.495365
1987  2023-10-24 15:17:00.527279
1988  2023-10-24 15:17:00.560192
1989  2023-10-24 15:17:00.592142
1990  2023-10-24 15:17:00.623024
1991  2023-10-24 15:17:00.671928
1992  2023-10-24 15:17:00.703842
1993  2023-10-24 15:17:00.735747
1994  2023-10-24 15:17:00.767662
1995  2023-10-24 15:17:00.799601
1996  2023-10-24 15:17:00.831512
1997  2023-10-24 15:17:00.864383
1998  2023-10-24 15:17:00.895295
1999  2023-10-24 15:17:00.927242
2000  2023-10-24 15:17:00.961159
2001  2023-10-24 15:17:00.992037
2002  2023-10-24 15:17:01.024982
2003  2023-10-24 15:17:01.071859
2004  2023-10-24 15:17:01.104761
2005  2023-10-24 15:17:01.136676
2006  2023-10-24 15:17:01.168597
2007  2023-10-24 15:17:01.200510
2008  2023-10-24 15:17:01.232426
2009  2023-10-24 15:17:01.264341
2010  2023-10-24 15:17:01.296225
2011  2023-10-24 15:17:01.328201
2012  2023-10-24 15:17:01.360053
2013  2023-10-24 15:17:01.391968
2014  2023-10-24 15:17:01.424880
2015  2023-10-24 15:17:01.472791
2016  2023-10-24 15:17:01.504710
2017  2023-10-24 15:17:01.536608
2018  2023-10-24 15:17:01.568527
2019  2023-10-24 15:17:01.600443
2020  2023-10-24 15:17:01.632359
2021  2023-10-24 15:17:01.664269
2022  2023-10-24 15:17:01.696184
2023  2023-10-24 15:17:01.728107
2024  2023-10-24 15:17:01.760011
2025  2023-10-24 15:17:01.791951
2026  2023-10-24 15:17:01.823844
2027  2023-10-24 15:17:01.871729
2028  2023-10-24 15:17:01.904621
2029  2023-10-24 15:17:01.935559
2030  2023-10-24 15:17:01.967471
2031  2023-10-24 15:17:02.000379
2032  2023-10-24 15:17:02.031260
2033  2023-10-24 15:17:02.064216
2034  2023-10-24 15:17:02.095234
2035  2023-10-24 15:17:02.128146
2036  2023-10-24 15:17:02.160072
2037  2023-10-24 15:17:02.192001
2038  2023-10-24 15:17:02.223916
2039  2023-10-24 15:17:02.271764
2040  2023-10-24 15:17:02.303873
2041  2023-10-24 15:17:02.335626
2042  2023-10-24 15:17:02.367542
2043  2023-10-24 15:17:02.399458
2044  2023-10-24 15:17:02.431378
2045  2023-10-24 15:17:02.464248
2046  2023-10-24 15:17:02.496162
2047  2023-10-24 15:17:02.528077
2048  2023-10-24 15:17:02.561048
2049  2023-10-24 15:17:02.591921
2050  2023-10-24 15:17:02.624820
2051  2023-10-24 15:17:02.671726
2052  2023-10-24 15:17:02.704655
2053  2023-10-24 15:17:02.736116
2054  2023-10-24 15:17:02.768087
2055  2023-10-24 15:17:02.800001
2056  2023-10-24 15:17:02.831986
2057  2023-10-24 15:17:02.864965
2058  2023-10-24 15:17:02.895816
2059  2023-10-24 15:17:02.927762
2060  2023-10-24 15:17:02.960645
2061  2023-10-24 15:17:02.992606
2062  2023-10-24 15:17:03.024525
2063  2023-10-24 15:17:03.072383
2064  2023-10-24 15:17:03.104402
2065  2023-10-24 15:17:03.136318
2066  2023-10-24 15:17:03.167241
2067  2023-10-24 15:17:03.200165
2068  2023-10-24 15:17:03.232077
2069  2023-10-24 15:17:03.263975
2070  2023-10-24 15:17:03.295899
2071  2023-10-24 15:17:03.327772
2072  2023-10-24 15:17:03.359730
2073  2023-10-24 15:17:03.392642
2074  2023-10-24 15:17:03.423583
2075  2023-10-24 15:17:03.472433
2076  2023-10-24 15:17:03.504349
2077  2023-10-24 15:17:03.536267
2078  2023-10-24 15:17:03.567182
2079  2023-10-24 15:17:03.600111
2080  2023-10-24 15:17:03.632002
2081  2023-10-24 15:17:03.663908
2082  2023-10-24 15:17:03.695788
2083  2023-10-24 15:17:03.727738
2084  2023-10-24 15:17:03.759664
2085  2023-10-24 15:17:03.791571
2086  2023-10-24 15:17:03.823474
2087  2023-10-24 15:17:03.871397
2088  2023-10-24 15:17:03.903319
2089  2023-10-24 15:17:03.935333
2090  2023-10-24 15:17:03.967246
2091  2023-10-24 15:17:04.000169
2092  2023-10-24 15:17:04.032042
2093  2023-10-24 15:17:04.064003
2094  2023-10-24 15:17:04.095900
2095  2023-10-24 15:17:04.127824
2096  2023-10-24 15:17:04.159710
2097  2023-10-24 15:17:04.191643
2098  2023-10-24 15:17:04.239541
2099  2023-10-24 15:17:04.271432
2100  2023-10-24 15:17:04.303347
2101  2023-10-24 15:17:04.335262
2102  2023-10-24 15:17:04.367176
2103  2023-10-24 15:17:04.400088
2104  2023-10-24 15:17:04.432001
2105  2023-10-24 15:17:04.463934
2106  2023-10-24 15:17:04.495800
2107  2023-10-24 15:17:04.527714
2108  2023-10-24 15:17:04.559665
2109  2023-10-24 15:17:04.591600
2110  2023-10-24 15:17:04.639458
2111  2023-10-24 15:17:04.671368
2112  2023-10-24 15:17:04.704292
2113  2023-10-24 15:17:04.735201
2114  2023-10-24 15:17:04.768131
2115  2023-10-24 15:17:04.800031
2116  2023-10-24 15:17:04.831951
2117  2023-10-24 15:17:04.863860
2118  2023-10-24 15:17:04.895765
2119  2023-10-24 15:17:04.927645
2120  2023-10-24 15:17:04.959560
2121  2023-10-24 15:17:04.991508
2122  2023-10-24 15:17:05.040394
2123  2023-10-24 15:17:05.071261
2124  2023-10-24 15:17:05.103206
2125  2023-10-24 15:17:05.136119
2126  2023-10-24 15:17:05.168153
2127  2023-10-24 15:17:05.200086
2128  2023-10-24 15:17:05.231998
2129  2023-10-24 15:17:05.263901
2130  2023-10-24 15:17:05.295817
2131  2023-10-24 15:17:05.327720
2132  2023-10-24 15:17:05.359647
2133  2023-10-24 15:17:05.391589
2134  2023-10-24 15:17:05.439456
2135  2023-10-24 15:17:05.472347
2136  2023-10-24 15:17:05.503222
2137  2023-10-24 15:17:05.535183
2138  2023-10-24 15:17:05.568073
2139  2023-10-24 15:17:05.600002
2140  2023-10-24 15:17:05.631941
2141  2023-10-24 15:17:05.663833
2142  2023-10-24 15:17:05.695747
2143  2023-10-24 15:17:05.727622
2144  2023-10-24 15:17:05.759575
2145  2023-10-24 15:17:05.791481
2146  2023-10-24 15:17:05.839441
2147  2023-10-24 15:17:05.871375
2148  2023-10-24 15:17:05.903276
2149  2023-10-24 15:17:05.935256
2150  2023-10-24 15:17:05.967253
2151  2023-10-24 15:17:06.000147
2152  2023-10-24 15:17:06.032033
2153  2023-10-24 15:17:06.063982
2154  2023-10-24 15:17:06.095884
2155  2023-10-24 15:17:06.127768
2156  2023-10-24 15:17:06.159718
2157  2023-10-24 15:17:06.191632
2158  2023-10-24 15:17:06.239514
2159  2023-10-24 15:17:06.271434
2160  2023-10-24 15:17:06.303354
2161  2023-10-24 15:17:06.335263
2162  2023-10-24 15:17:06.367159
2163  2023-10-24 15:17:06.400071
2164  2023-10-24 15:17:06.431987
2165  2023-10-24 15:17:06.463902
2166  2023-10-24 15:17:06.495834
2167  2023-10-24 15:17:06.527729
2168  2023-10-24 15:17:06.559719
2169  2023-10-24 15:17:06.591604
2170  2023-10-24 15:17:06.639576
2171  2023-10-24 15:17:06.671486
2172  2023-10-24 15:17:06.703414
2173  2023-10-24 15:17:06.735334
2174  2023-10-24 15:17:06.767232
2175  2023-10-24 15:17:06.799144
2176  2023-10-24 15:17:06.832057
2177  2023-10-24 15:17:06.863973
2178  2023-10-24 15:17:06.895897
2179  2023-10-24 15:17:06.927795
2180  2023-10-24 15:17:06.959684
2181  2023-10-24 15:17:06.991634
2182  2023-10-24 15:17:07.039507
2183  2023-10-24 15:17:07.071418
2184  2023-10-24 15:17:07.103334
2185  2023-10-24 15:17:07.135247
2186  2023-10-24 15:17:07.168206
2187  2023-10-24 15:17:07.200091
2188  2023-10-24 15:17:07.232010
2189  2023-10-24 15:17:07.263937
2190  2023-10-24 15:17:07.295854
2191  2023-10-24 15:17:07.327768
2192  2023-10-24 15:17:07.359714
2193  2023-10-24 15:17:07.391597
2194  2023-10-24 15:17:07.439576
2195  2023-10-24 15:17:07.471492
2196  2023-10-24 15:17:07.503408
2197  2023-10-24 15:17:07.535335
2198  2023-10-24 15:17:07.567247
2199  2023-10-24 15:17:07.599149
2200  2023-10-24 15:17:07.632031
2201  2023-10-24 15:17:07.664069
2202  2023-10-24 15:17:07.695989
2203  2023-10-24 15:17:07.727921
2204  2023-10-24 15:17:07.759824
2205  2023-10-24 15:17:07.791732
2206  2023-10-24 15:17:07.840609
2207  2023-10-24 15:17:07.872542
2208  2023-10-24 15:17:07.903641
2209  2023-10-24 15:17:07.935538
2210  2023-10-24 15:17:07.967460
2211  2023-10-24 15:17:08.000379
2212  2023-10-24 15:17:08.032265
2213  2023-10-24 15:17:08.063198
2214  2023-10-24 15:17:08.096068
2215  2023-10-24 15:17:08.127983
2216  2023-10-24 15:17:08.159936
2217  2023-10-24 15:17:08.207768
2218  2023-10-24 15:17:08.239713
2219  2023-10-24 15:17:08.271641
2220  2023-10-24 15:17:08.303555
2221  2023-10-24 15:17:08.335550
2222  2023-10-24 15:17:08.367489
2223  2023-10-24 15:17:08.399501
2224  2023-10-24 15:17:08.431417
2225  2023-10-24 15:17:08.463358
2226  2023-10-24 15:17:08.495244
2227  2023-10-24 15:17:08.528156
2228  2023-10-24 15:17:08.559248
2229  2023-10-24 15:17:08.608169
2230  2023-10-24 15:17:08.640072
2231  2023-10-24 15:17:08.672063
2232  2023-10-24 15:17:08.703985
2233  2023-10-24 15:17:08.735902
2234  2023-10-24 15:17:08.767825
2235  2023-10-24 15:17:08.799718
2236  2023-10-24 15:17:08.831600
2237  2023-10-24 15:17:08.863580
2238  2023-10-24 15:17:08.895462
2239  2023-10-24 15:17:08.927376
2240  2023-10-24 15:17:08.959290
2241  2023-10-24 15:17:09.007169
2242  2023-10-24 15:17:09.039091
2243  2023-10-24 15:17:09.072080
2244  2023-10-24 15:17:09.103996
2245  2023-10-24 15:17:09.135904
2246  2023-10-24 15:17:09.167818
2247  2023-10-24 15:17:09.199847
2248  2023-10-24 15:17:09.231825
2249  2023-10-24 15:17:09.263796
2250  2023-10-24 15:17:09.295712
2251  2023-10-24 15:17:09.327626
2252  2023-10-24 15:17:09.359541
2253  2023-10-24 15:17:09.407532
2254  2023-10-24 15:17:09.439448
2255  2023-10-24 15:17:09.471403
2256  2023-10-24 15:17:09.503367
2257  2023-10-24 15:17:09.535292
2258  2023-10-24 15:17:09.567209
2259  2023-10-24 15:17:09.600102
2260  2023-10-24 15:17:09.631984
2261  2023-10-24 15:17:09.663898
2262  2023-10-24 15:17:09.695854
2263  2023-10-24 15:17:09.727783
2264  2023-10-24 15:17:09.759687
2265  2023-10-24 15:17:09.807551
2266  2023-10-24 15:17:09.839461
2267  2023-10-24 15:17:09.871396
2268  2023-10-24 15:17:09.903311
2269  2023-10-24 15:17:09.935203
2270  2023-10-24 15:17:09.968118
2271  2023-10-24 15:17:10.000076
2272  2023-10-24 15:17:10.031914
2273  2023-10-24 15:17:10.063956
2274  2023-10-24 15:17:10.095894
2275  2023-10-24 15:17:10.127849
2276  2023-10-24 15:17:10.159734
2277  2023-10-24 15:17:10.207660
2278  2023-10-24 15:17:10.239545
2279  2023-10-24 15:17:10.271455
2280  2023-10-24 15:17:10.303442
2281  2023-10-24 15:17:10.335375
2282  2023-10-24 15:17:10.368334
2283  2023-10-24 15:17:10.399297
2284  2023-10-24 15:17:10.432162
2285  2023-10-24 15:17:10.464077
2286  2023-10-24 15:17:10.495991
2287  2023-10-24 15:17:10.527906
2288  2023-10-24 15:17:10.559821
2289  2023-10-24 15:17:10.607727
2290  2023-10-24 15:17:10.639644
2291  2023-10-24 15:17:10.671583
2292  2023-10-24 15:17:10.703472
2293  2023-10-24 15:17:10.736398
2294  2023-10-24 15:17:10.767311
2295  2023-10-24 15:17:10.800215
2296  2023-10-24 15:17:10.832093
2297  2023-10-24 15:17:10.864007
2298  2023-10-24 15:17:10.895922
2299  2023-10-24 15:17:10.927837
2300  2023-10-24 15:17:10.959751
2301  2023-10-24 15:17:11.007659
2302  2023-10-24 15:17:11.040572
2303  2023-10-24 15:17:11.071488
2304  2023-10-24 15:17:11.103407
2305  2023-10-24 15:17:11.136375
2306  2023-10-24 15:17:11.168315
2307  2023-10-24 15:17:11.199245
2308  2023-10-24 15:17:11.231119
2309  2023-10-24 15:17:11.264031
2310  2023-10-24 15:17:11.295980
2311  2023-10-24 15:17:11.327860
2312  2023-10-24 15:17:11.359775
2313  2023-10-24 15:17:11.407673
2314  2023-10-24 15:17:11.439594
2315  2023-10-24 15:17:11.471484
2316  2023-10-24 15:17:11.503393
2317  2023-10-24 15:17:11.535341
2318  2023-10-24 15:17:11.567270
2319  2023-10-24 15:17:11.599171
2320  2023-10-24 15:17:11.632081
2321  2023-10-24 15:17:11.663962
2322  2023-10-24 15:17:11.695876
2323  2023-10-24 15:17:11.727791
2324  2023-10-24 15:17:11.775690
2325  2023-10-24 15:17:11.807621
2326  2023-10-24 15:17:11.839529
2327  2023-10-24 15:17:11.871451
2328  2023-10-24 15:17:11.903355
2329  2023-10-24 15:17:11.935284
2330  2023-10-24 15:17:11.967184
2331  2023-10-24 15:17:12.000104
2332  2023-10-24 15:17:12.031978
2333  2023-10-24 15:17:12.063892
2334  2023-10-24 15:17:12.095835
2335  2023-10-24 15:17:12.127752
2336  2023-10-24 15:17:12.175636
2337  2023-10-24 15:17:12.207535
2338  2023-10-24 15:17:12.239451
2339  2023-10-24 15:17:12.271365
2340  2023-10-24 15:17:12.303285
2341  2023-10-24 15:17:12.336200
2342  2023-10-24 15:17:12.368114
2343  2023-10-24 15:17:12.400022
2344  2023-10-24 15:17:12.431935
2345  2023-10-24 15:17:12.463865
2346  2023-10-24 15:17:12.495738
2347  2023-10-24 15:17:12.527652
2348  2023-10-24 15:17:12.575574
2349  2023-10-24 15:17:12.607470
2350  2023-10-24 15:17:12.639387
2351  2023-10-24 15:17:12.671316
2352  2023-10-24 15:17:12.703232
2353  2023-10-24 15:17:12.736129
2354  2023-10-24 15:17:12.768085
2355  2023-10-24 15:17:12.799959
2356  2023-10-24 15:17:12.831839
2357  2023-10-24 15:17:12.863754
2358  2023-10-24 15:17:12.895668
2359  2023-10-24 15:17:12.927583
2360  2023-10-24 15:17:12.975496
2361  2023-10-24 15:17:13.007416
2362  2023-10-24 15:17:13.039315
2363  2023-10-24 15:17:13.072231
2364  2023-10-24 15:17:13.103159
2365  2023-10-24 15:17:13.136073
2366  2023-10-24 15:17:13.168027
2367  2023-10-24 15:17:13.200012
2368  2023-10-24 15:17:13.231900
2369  2023-10-24 15:17:13.263964
2370  2023-10-24 15:17:13.295879
2371  2023-10-24 15:17:13.327794
2372  2023-10-24 15:17:13.375701
2373  2023-10-24 15:17:13.407648
2374  2023-10-24 15:17:13.439590
2375  2023-10-24 15:17:13.471608
2376  2023-10-24 15:17:13.503512
2377  2023-10-24 15:17:13.535451
2378  2023-10-24 15:17:13.568300
2379  2023-10-24 15:17:13.599253
2380  2023-10-24 15:17:13.632207
2381  2023-10-24 15:17:13.664161
2382  2023-10-24 15:17:13.696090
2383  2023-10-24 15:17:13.727983
2384  2023-10-24 15:17:13.775985
2385  2023-10-24 15:17:13.807890
2386  2023-10-24 15:17:13.839824
2387  2023-10-24 15:17:13.871712
2388  2023-10-24 15:17:13.903627
2389  2023-10-24 15:17:13.935566
2390  2023-10-24 15:17:13.967432
2391  2023-10-24 15:17:13.999347
2392  2023-10-24 15:17:14.031260
2393  2023-10-24 15:17:14.063175
2394  2023-10-24 15:17:14.096138
2395  2023-10-24 15:17:14.128036
2396  2023-10-24 15:17:14.176103
2397  2023-10-24 15:17:14.208077
2398  2023-10-24 15:17:14.239971
2399  2023-10-24 15:17:14.271880
2400  2023-10-24 15:17:14.303792
2401  2023-10-24 15:17:14.335707
2402  2023-10-24 15:17:14.367633
2403  2023-10-24 15:17:14.399541
2404  2023-10-24 15:17:14.431460
2405  2023-10-24 15:17:14.463365
2406  2023-10-24 15:17:14.495399
2407  2023-10-24 15:17:14.527289
2408  2023-10-24 15:17:14.575223
2409  2023-10-24 15:17:14.607141
2410  2023-10-24 15:17:14.640060
2411  2023-10-24 15:17:14.671969
2412  2023-10-24 15:17:14.703874
2413  2023-10-24 15:17:14.735790
2414  2023-10-24 15:17:14.767708
2415  2023-10-24 15:17:14.799625
2416  2023-10-24 15:17:14.831506
2417  2023-10-24 15:17:14.863420
2418  2023-10-24 15:17:14.895335
2419  2023-10-24 15:17:14.927316
2420  2023-10-24 15:17:14.975145
2421  2023-10-24 15:17:15.008058
2422  2023-10-24 15:17:15.039971
2423  2023-10-24 15:17:15.071886
2424  2023-10-24 15:17:15.103801
2425  2023-10-24 15:17:15.135716
2426  2023-10-24 15:17:15.167639
2427  2023-10-24 15:17:15.199610
2428  2023-10-24 15:17:15.231552
2429  2023-10-24 15:17:15.263471
2430  2023-10-24 15:17:15.295396
2431  2023-10-24 15:17:15.344297
2432  2023-10-24 15:17:15.375226
2433  2023-10-24 15:17:15.408135
2434  2023-10-24 15:17:15.440043
2435  2023-10-24 15:17:15.471984
2436  2023-10-24 15:17:15.503872
2437  2023-10-24 15:17:15.535786
2438  2023-10-24 15:17:15.567694
2439  2023-10-24 15:17:15.599614
2440  2023-10-24 15:17:15.631498
2441  2023-10-24 15:17:15.663412
2442  2023-10-24 15:17:15.696324
2443  2023-10-24 15:17:15.743274
2444  2023-10-24 15:17:15.775187
2445  2023-10-24 15:17:15.808069
2446  2023-10-24 15:17:15.840094
2447  2023-10-24 15:17:15.872010
2448  2023-10-24 15:17:15.903925
2449  2023-10-24 15:17:15.935837
2450  2023-10-24 15:17:15.967772
2451  2023-10-24 15:17:15.999667
2452  2023-10-24 15:17:16.031551
2453  2023-10-24 15:17:16.063300
2454  2023-10-24 15:17:16.095214
2455  2023-10-24 15:17:16.144086
2456  2023-10-24 15:17:16.176000
2457  2023-10-24 15:17:16.207915
2458  2023-10-24 15:17:16.239858
2459  2023-10-24 15:17:16.271774
2460  2023-10-24 15:17:16.303664
2461  2023-10-24 15:17:16.335611
2462  2023-10-24 15:17:16.367556
2463  2023-10-24 15:17:16.399474
2464  2023-10-24 15:17:16.431459
2465  2023-10-24 15:17:16.463416
2466  2023-10-24 15:17:16.495299
2467  2023-10-24 15:17:16.543217
2468  2023-10-24 15:17:16.576130
2469  2023-10-24 15:17:16.608033
2470  2023-10-24 15:17:16.639948
2471  2023-10-24 15:17:16.671863
2472  2023-10-24 15:17:16.703792
2473  2023-10-24 15:17:16.735681
2474  2023-10-24 15:17:16.767614
2475  2023-10-24 15:17:16.799519
2476  2023-10-24 15:17:16.831401
2477  2023-10-24 15:17:16.863315
2478  2023-10-24 15:17:16.895263
2479  2023-10-24 15:17:16.944182
2480  2023-10-24 15:17:16.975202
2481  2023-10-24 15:17:17.007121
2482  2023-10-24 15:17:17.040043
2483  2023-10-24 15:17:17.071946
2484  2023-10-24 15:17:17.103862
2485  2023-10-24 15:17:17.135791
2486  2023-10-24 15:17:17.168685
2487  2023-10-24 15:17:17.200606
2488  2023-10-24 15:17:17.232527
2489  2023-10-24 15:17:17.264463
2490  2023-10-24 15:17:17.296314
2491  2023-10-24 15:17:17.345224
2492  2023-10-24 15:17:17.377128
2493  2023-10-24 15:17:17.409044
2494  2023-10-24 15:17:17.440960
2495  2023-10-24 15:17:17.472886
2496  2023-10-24 15:17:17.504986
2497  2023-10-24 15:17:17.536700
2498  2023-10-24 15:17:17.568611
2499  2023-10-24 15:17:17.600527
2500  2023-10-24 15:17:17.632417
2501  2023-10-24 15:17:17.664378
2502  2023-10-24 15:17:17.696245
2503  2023-10-24 15:17:17.744117
2504  2023-10-24 15:17:17.776072
2505  2023-10-24 15:17:17.808973
2506  2023-10-24 15:17:17.840926
2507  2023-10-24 15:17:17.872814
2508  2023-10-24 15:17:17.903724
2509  2023-10-24 15:17:17.935656
2510  2023-10-24 15:17:17.968559
2511  2023-10-24 15:17:18.000476
2512  2023-10-24 15:17:18.032377
2513  2023-10-24 15:17:18.064307
2514  2023-10-24 15:17:18.096206
2515  2023-10-24 15:17:18.144078
2516  2023-10-24 15:17:18.176028
2517  2023-10-24 15:17:18.207872
2518  2023-10-24 15:17:18.239852
2519  2023-10-24 15:17:18.271768
2520  2023-10-24 15:17:18.304680
2521  2023-10-24 15:17:18.335617
2522  2023-10-24 15:17:18.367528
2523  2023-10-24 15:17:18.399422
2524  2023-10-24 15:17:18.431343
2525  2023-10-24 15:17:18.463252
2526  2023-10-24 15:17:18.496134
2527  2023-10-24 15:17:18.544057
2528  2023-10-24 15:17:18.575920
2529  2023-10-24 15:17:18.607864
2530  2023-10-24 15:17:18.639801
2531  2023-10-24 15:17:18.671666
2532  2023-10-24 15:17:18.703634
2533  2023-10-24 15:17:18.735554
2534  2023-10-24 15:17:18.767437
2535  2023-10-24 15:17:18.799361
2536  2023-10-24 15:17:18.832261
2537  2023-10-24 15:17:18.864222
2538  2023-10-24 15:17:18.896117
2539  2023-10-24 15:17:18.944974
2540  2023-10-24 15:17:18.975851
2541  2023-10-24 15:17:19.007799
2542  2023-10-24 15:17:19.040716
2543  2023-10-24 15:17:19.072628
2544  2023-10-24 15:17:19.104576
2545  2023-10-24 15:17:19.135496
2546  2023-10-24 15:17:19.167496
2547  2023-10-24 15:17:19.200398
2548  2023-10-24 15:17:19.232276
2549  2023-10-24 15:17:19.264190
2550  2023-10-24 15:17:19.312090
2551  2023-10-24 15:17:19.343978
2552  2023-10-24 15:17:19.375934
2553  2023-10-24 15:17:19.407849
2554  2023-10-24 15:17:19.440724
2555  2023-10-24 15:17:19.472675
2556  2023-10-24 15:17:19.504597
2557  2023-10-24 15:17:19.535514
2558  2023-10-24 15:17:19.567418
2559  2023-10-24 15:17:19.600412
2560  2023-10-24 15:17:19.631366
2561  2023-10-24 15:17:19.663247
2562  2023-10-24 15:17:19.712115
2563  2023-10-24 15:17:19.744024
2564  2023-10-24 15:17:19.775942
2565  2023-10-24 15:17:19.807852
2566  2023-10-24 15:17:19.839762
2567  2023-10-24 15:17:19.871684
2568  2023-10-24 15:17:19.903603
2569  2023-10-24 15:17:19.935552
2570  2023-10-24 15:17:19.967424
2571  2023-10-24 15:17:19.999351
2572  2023-10-24 15:17:20.032256
2573  2023-10-24 15:17:20.063186
2574  2023-10-24 15:17:20.112075
2575  2023-10-24 15:17:20.144072
2576  2023-10-24 15:17:20.175999
2577  2023-10-24 15:17:20.207945
2578  2023-10-24 15:17:20.239856
2579  2023-10-24 15:17:20.271748
2580  2023-10-24 15:17:20.303690
2581  2023-10-24 15:17:20.335583
2582  2023-10-24 15:17:20.367464
2583  2023-10-24 15:17:20.399417
2584  2023-10-24 15:17:20.431354
2585  2023-10-24 15:17:20.464201
2586  2023-10-24 15:17:20.512076
2587  2023-10-24 15:17:20.544006
2588  2023-10-24 15:17:20.575903
2589  2023-10-24 15:17:20.607869
2590  2023-10-24 15:17:20.639776
2591  2023-10-24 15:17:20.672648
2592  2023-10-24 15:17:20.703605
2593  2023-10-24 15:17:20.735554
2594  2023-10-24 15:17:20.767422
2595  2023-10-24 15:17:20.799331
2596  2023-10-24 15:17:20.832243
2597  2023-10-24 15:17:20.863321
2598  2023-10-24 15:17:20.911270
2599  2023-10-24 15:17:20.944130
2600  2023-10-24 15:17:20.976043
2601  2023-10-24 15:17:21.007958
2602  2023-10-24 15:17:21.039873
2603  2023-10-24 15:17:21.071801
2604  2023-10-24 15:17:21.103723
2605  2023-10-24 15:17:21.135584
2606  2023-10-24 15:17:21.167534
2607  2023-10-24 15:17:21.199444
2608  2023-10-24 15:17:21.231330
2609  2023-10-24 15:17:21.263284
2610  2023-10-24 15:17:21.311148
2611  2023-10-24 15:17:21.344029
2612  2023-10-24 15:17:21.375943
2613  2023-10-24 15:17:21.407858
2614  2023-10-24 15:17:21.439819
2615  2023-10-24 15:17:21.471728
2616  2023-10-24 15:17:21.503626
2617  2023-10-24 15:17:21.535550
2618  2023-10-24 15:17:21.567463
2619  2023-10-24 15:17:21.599377
2620  2023-10-24 15:17:21.631296
2621  2023-10-24 15:17:21.663222
2622  2023-10-24 15:17:21.712081
2623  2023-10-24 15:17:21.744002
2624  2023-10-24 15:17:21.775914
2625  2023-10-24 15:17:21.807837
2626  2023-10-24 15:17:21.839734
2627  2023-10-24 15:17:21.871657
2628  2023-10-24 15:17:21.903613
2629  2023-10-24 15:17:21.935479
2630  2023-10-24 15:17:21.967393
2631  2023-10-24 15:17:21.999322
2632  2023-10-24 15:17:22.031236
2633  2023-10-24 15:17:22.064181
2634  2023-10-24 15:17:22.112006
2635  2023-10-24 15:17:22.143890
2636  2023-10-24 15:17:22.175805
2637  2023-10-24 15:17:22.208717
2638  2023-10-24 15:17:22.239635
2639  2023-10-24 15:17:22.271579
2640  2023-10-24 15:17:22.303509
2641  2023-10-24 15:17:22.335410
2642  2023-10-24 15:17:22.368288
2643  2023-10-24 15:17:22.399237
2644  2023-10-24 15:17:22.432117
2645  2023-10-24 15:17:22.464032
2646  2023-10-24 15:17:22.511935
2647  2023-10-24 15:17:22.543862
2648  2023-10-24 15:17:22.575880
2649  2023-10-24 15:17:22.607801
2650  2023-10-24 15:17:22.639685
2651  2023-10-24 15:17:22.671585
2652  2023-10-24 15:17:22.703560
2653  2023-10-24 15:17:22.735479
2654  2023-10-24 15:17:22.767362
2655  2023-10-24 15:17:22.800273
2656  2023-10-24 15:17:22.832219
2657  2023-10-24 15:17:22.880181
2658  2023-10-24 15:17:22.912108
2659  2023-10-24 15:17:22.943985
2660  2023-10-24 15:17:22.975896
2661  2023-10-24 15:17:23.007810
2662  2023-10-24 15:17:23.039725
2663  2023-10-24 15:17:23.071649
2664  2023-10-24 15:17:23.103561
2665  2023-10-24 15:17:23.135472
2666  2023-10-24 15:17:23.167397
2667  2023-10-24 15:17:23.199297
2668  2023-10-24 15:17:23.231219
2669  2023-10-24 15:17:23.280088
2670  2023-10-24 15:17:23.312065
2671  2023-10-24 15:17:23.344049
2672  2023-10-24 15:17:23.375941
2673  2023-10-24 15:17:23.407855
2674  2023-10-24 15:17:23.439764
2675  2023-10-24 15:17:23.471677
2676  2023-10-24 15:17:23.503590
2677  2023-10-24 15:17:23.535506
2678  2023-10-24 15:17:23.567425
2679  2023-10-24 15:17:23.599405
2680  2023-10-24 15:17:23.631327
2681  2023-10-24 15:17:23.679278
2682  2023-10-24 15:17:23.711157
2683  2023-10-24 15:17:23.744098
2684  2023-10-24 15:17:23.776123
2685  2023-10-24 15:17:23.808050
2686  2023-10-24 15:17:23.839946
2687  2023-10-24 15:17:23.871842
2688  2023-10-24 15:17:23.903766
2689  2023-10-24 15:17:23.935674
2690  2023-10-24 15:17:23.967638
2691  2023-10-24 15:17:23.999501
2692  2023-10-24 15:17:24.031518
2693  2023-10-24 15:17:24.080256
2694  2023-10-24 15:17:24.111204
2695  2023-10-24 15:17:24.144086
2696  2023-10-24 15:17:24.176067
2697  2023-10-24 15:17:24.207914
2698  2023-10-24 15:17:24.239858
2699  2023-10-24 15:17:24.271767
2700  2023-10-24 15:17:24.303734
2701  2023-10-24 15:17:24.335573
2702  2023-10-24 15:17:24.367545
2703  2023-10-24 15:17:24.399426
2704  2023-10-24 15:17:24.431351
2705  2023-10-24 15:17:24.479221
2706  2023-10-24 15:17:24.512134
2707  2023-10-24 15:17:24.544048
2708  2023-10-24 15:17:24.575929
2709  2023-10-24 15:17:24.607871
2710  2023-10-24 15:17:24.639790
2711  2023-10-24 15:17:24.671704
2712  2023-10-24 15:17:24.703643
2713  2023-10-24 15:17:24.735537
2714  2023-10-24 15:17:24.767460
2715  2023-10-24 15:17:24.799367
2716  2023-10-24 15:17:24.831278
2717  2023-10-24 15:17:24.879149
2718  2023-10-24 15:17:24.912080
2719  2023-10-24 15:17:24.943980
2720  2023-10-24 15:17:24.975894
2721  2023-10-24 15:17:25.007776
2722  2023-10-24 15:17:25.039722
2723  2023-10-24 15:17:25.071681
2724  2023-10-24 15:17:25.103570
2725  2023-10-24 15:17:25.135478
2726  2023-10-24 15:17:25.167379
2727  2023-10-24 15:17:25.199312
2728  2023-10-24 15:17:25.231178
2729  2023-10-24 15:17:25.279654
2730  2023-10-24 15:17:25.311709
2731  2023-10-24 15:17:25.343623
2732  2023-10-24 15:17:25.375551
2733  2023-10-24 15:17:25.407432
2734  2023-10-24 15:17:25.439384
2735  2023-10-24 15:17:25.471270
2736  2023-10-24 15:17:25.503249
2737  2023-10-24 15:17:25.536166
2738  2023-10-24 15:17:25.568081
2739  2023-10-24 15:17:25.599995
2740  2023-10-24 15:17:25.631874
2741  2023-10-24 15:17:25.679778
2742  2023-10-24 15:17:25.711882
2743  2023-10-24 15:17:25.743639
2744  2023-10-24 15:17:25.775525
2745  2023-10-24 15:17:25.807435
2746  2023-10-24 15:17:25.840354
2747  2023-10-24 15:17:25.872259
2748  2023-10-24 15:17:25.903150
2749  2023-10-24 15:17:25.936113
2750  2023-10-24 15:17:25.968014
2751  2023-10-24 15:17:25.999950
2752  2023-10-24 15:17:26.031805
2753  2023-10-24 15:17:26.079714
2754  2023-10-24 15:17:26.111618
2755  2023-10-24 15:17:26.143547
2756  2023-10-24 15:17:26.175459
2757  2023-10-24 15:17:26.207390
2758  2023-10-24 15:17:26.239280
2759  2023-10-24 15:17:26.271195
2760  2023-10-24 15:17:26.304113
2761  2023-10-24 15:17:26.336028
2762  2023-10-24 15:17:26.367941
2763  2023-10-24 15:17:26.399921
2764  2023-10-24 15:17:26.431890
2765  2023-10-24 15:17:26.479759
2766  2023-10-24 15:17:26.511662
2767  2023-10-24 15:17:26.543594
2768  2023-10-24 15:17:26.575499
2769  2023-10-24 15:17:26.607406
2770  2023-10-24 15:17:26.639344
2771  2023-10-24 15:17:26.671237
2772  2023-10-24 15:17:26.703157
2773  2023-10-24 15:17:26.736080
2774  2023-10-24 15:17:26.767979
2775  2023-10-24 15:17:26.799891
2776  2023-10-24 15:17:26.847761
2777  2023-10-24 15:17:26.879692
2778  2023-10-24 15:17:26.911589
2779  2023-10-24 15:17:26.943509
2780  2023-10-24 15:17:26.975457
2781  2023-10-24 15:17:27.007358
2782  2023-10-24 15:17:27.039270
2783  2023-10-24 15:17:27.071168
2784  2023-10-24 15:17:27.104092
2785  2023-10-24 15:17:27.135996
2786  2023-10-24 15:17:27.167912
2787  2023-10-24 15:17:27.199820
2788  2023-10-24 15:17:27.247696
2789  2023-10-24 15:17:27.279610
2790  2023-10-24 15:17:27.311535
2791  2023-10-24 15:17:27.343440
2792  2023-10-24 15:17:27.375349
2793  2023-10-24 15:17:27.407272
2794  2023-10-24 15:17:27.439185
2795  2023-10-24 15:17:27.472125
2796  2023-10-24 15:17:27.504007
2797  2023-10-24 15:17:27.535918
2798  2023-10-24 15:17:27.567836
2799  2023-10-24 15:17:27.599748
2800  2023-10-24 15:17:27.647632
2801  2023-10-24 15:17:27.679546
2802  2023-10-24 15:17:27.711470
2803  2023-10-24 15:17:27.743342
2804  2023-10-24 15:17:27.775287
2805  2023-10-24 15:17:27.807194
2806  2023-10-24 15:17:27.840124
2807  2023-10-24 15:17:27.871132
2808  2023-10-24 15:17:27.904038
2809  2023-10-24 15:17:27.935926
2810  2023-10-24 15:17:27.967843
2811  2023-10-24 15:17:27.999755
2812  2023-10-24 15:17:28.047629
2813  2023-10-24 15:17:28.079557
2814  2023-10-24 15:17:28.111456
2815  2023-10-24 15:17:28.143373
2816  2023-10-24 15:17:28.175287
2817  2023-10-24 15:17:28.207241
2818  2023-10-24 15:17:28.240114
2819  2023-10-24 15:17:28.272029
2820  2023-10-24 15:17:28.303943
2821  2023-10-24 15:17:28.335856
2822  2023-10-24 15:17:28.367806
2823  2023-10-24 15:17:28.399686
2824  2023-10-24 15:17:28.447668
2825  2023-10-24 15:17:28.479615
2826  2023-10-24 15:17:28.511492
2827  2023-10-24 15:17:28.543440
2828  2023-10-24 15:17:28.575319
2829  2023-10-24 15:17:28.607235
2830  2023-10-24 15:17:28.639164
2831  2023-10-24 15:17:28.672102
2832  2023-10-24 15:17:28.703978
2833  2023-10-24 15:17:28.735893
2834  2023-10-24 15:17:28.767807
2835  2023-10-24 15:17:28.799722
2836  2023-10-24 15:17:28.847605
2837  2023-10-24 15:17:28.879516
2838  2023-10-24 15:17:28.911413
2839  2023-10-24 15:17:28.943335
2840  2023-10-24 15:17:28.976247
2841  2023-10-24 15:17:29.007185
2842  2023-10-24 15:17:29.039134
2843  2023-10-24 15:17:29.071120
2844  2023-10-24 15:17:29.104034
2845  2023-10-24 15:17:29.135939
2846  2023-10-24 15:17:29.167859
2847  2023-10-24 15:17:29.199765
2848  2023-10-24 15:17:29.247647
2849  2023-10-24 15:17:29.279559
2850  2023-10-24 15:17:29.311479
2851  2023-10-24 15:17:29.343390
2852  2023-10-24 15:17:29.375295
2853  2023-10-24 15:17:29.407218
2854  2023-10-24 15:17:29.440131
2855  2023-10-24 15:17:29.472050
2856  2023-10-24 15:17:29.503957
2857  2023-10-24 15:17:29.535868
2858  2023-10-24 15:17:29.567782
2859  2023-10-24 15:17:29.599702
2860  2023-10-24 15:17:29.647628
2861  2023-10-24 15:17:29.679504
2862  2023-10-24 15:17:29.711523
2863  2023-10-24 15:17:29.743413
2864  2023-10-24 15:17:29.775446
2865  2023-10-24 15:17:29.807363
2866  2023-10-24 15:17:29.839361
2867  2023-10-24 15:17:29.871296
2868  2023-10-24 15:17:29.903193
2869  2023-10-24 15:17:29.936117
2870  2023-10-24 15:17:29.968026
2871  2023-10-24 15:17:29.999933
2872  2023-10-24 15:17:30.047803
2873  2023-10-24 15:17:30.079712
2874  2023-10-24 15:17:30.111647
2875  2023-10-24 15:17:30.143596
2876  2023-10-24 15:17:30.175563
2877  2023-10-24 15:17:30.208490
2878  2023-10-24 15:17:30.240404
2879  2023-10-24 15:17:30.271363
2880  2023-10-24 15:17:30.304269
2881  2023-10-24 15:17:30.336175
2882  2023-10-24 15:17:30.368128
2883  2023-10-24 15:17:30.415935
2884  2023-10-24 15:17:30.447874
2885  2023-10-24 15:17:30.479838
2886  2023-10-24 15:17:30.511757
2887  2023-10-24 15:17:30.543668
2888  2023-10-24 15:17:30.575675
2889  2023-10-24 15:17:30.607595
2890  2023-10-24 15:17:30.639494
2891  2023-10-24 15:17:30.671411
2892  2023-10-24 15:17:30.703316
2893  2023-10-24 15:17:30.735252
2894  2023-10-24 15:17:30.767166
2895  2023-10-24 15:17:30.815991
2896  2023-10-24 15:17:30.847941
2897  2023-10-24 15:17:30.879671
2898  2023-10-24 15:17:30.911664
2899  2023-10-24 15:17:30.943596
2900  2023-10-24 15:17:30.975531
2901  2023-10-24 15:17:31.007424
2902  2023-10-24 15:17:31.039422
2903  2023-10-24 15:17:31.071321
2904  2023-10-24 15:17:31.103266
2905  2023-10-24 15:17:31.135165
2906  2023-10-24 15:17:31.168065
2907  2023-10-24 15:17:31.215903
2908  2023-10-24 15:17:31.247849
2909  2023-10-24 15:17:31.279750
2910  2023-10-24 15:17:31.311772
2911  2023-10-24 15:17:31.343682
2912  2023-10-24 15:17:31.375620
2913  2023-10-24 15:17:31.407615
2914  2023-10-24 15:17:31.439446
2915  2023-10-24 15:17:31.471449
2916  2023-10-24 15:17:31.503412
2917  2023-10-24 15:17:31.535309
2918  2023-10-24 15:17:31.567193
2919  2023-10-24 15:17:31.616135
2920  2023-10-24 15:17:31.647176
2921  2023-10-24 15:17:31.680090
2922  2023-10-24 15:17:31.711995
2923  2023-10-24 15:17:31.743923
2924  2023-10-24 15:17:31.775832
2925  2023-10-24 15:17:31.807745
2926  2023-10-24 15:17:31.839828
2927  2023-10-24 15:17:31.871744
2928  2023-10-24 15:17:31.903657
2929  2023-10-24 15:17:31.935574
2930  2023-10-24 15:17:31.967486
2931  2023-10-24 15:17:32.016324
2932  2023-10-24 15:17:32.048273
2933  2023-10-24 15:17:32.080167
2934  2023-10-24 15:17:32.111273
2935  2023-10-24 15:17:32.144188
2936  2023-10-24 15:17:32.176156
2937  2023-10-24 15:17:32.208139
2938  2023-10-24 15:17:32.240086
2939  2023-10-24 15:17:32.271959
2940  2023-10-24 15:17:32.303958
2941  2023-10-24 15:17:32.335991
2942  2023-10-24 15:17:32.367852
2943  2023-10-24 15:17:32.415724
2944  2023-10-24 15:17:32.447669
2945  2023-10-24 15:17:32.479600
2946  2023-10-24 15:17:32.511469
2947  2023-10-24 15:17:32.543433
2948  2023-10-24 15:17:32.575339
2949  2023-10-24 15:17:32.607247
2950  2023-10-24 15:17:32.639173
2951  2023-10-24 15:17:32.672066
2952  2023-10-24 15:17:32.703999
2953  2023-10-24 15:17:32.735907
2954  2023-10-24 15:17:32.767922
2955  2023-10-24 15:17:32.815761
2956  2023-10-24 15:17:32.847715
2957  2023-10-24 15:17:32.879632
2958  2023-10-24 15:17:32.911553
2959  2023-10-24 15:17:32.943466
2960  2023-10-24 15:17:32.975380
2961  2023-10-24 15:17:33.007295
2962  2023-10-24 15:17:33.039275
2963  2023-10-24 15:17:33.071183
2964  2023-10-24 15:17:33.105102
2965  2023-10-24 15:17:33.137059
2966  2023-10-24 15:17:33.168979
2967  2023-10-24 15:17:33.216887
2968  2023-10-24 15:17:33.248798
2969  2023-10-24 15:17:33.280705
2970  2023-10-24 15:17:33.312644
2971  2023-10-24 15:17:33.345532
2972  2023-10-24 15:17:33.376458
2973  2023-10-24 15:17:33.408369
2974  2023-10-24 15:17:33.441306
2975  2023-10-24 15:17:33.472228
2976  2023-10-24 15:17:33.505105
2977  2023-10-24 15:17:33.536997
2978  2023-10-24 15:17:33.568962
2979  2023-10-24 15:17:33.616812
2980  2023-10-24 15:17:33.648726
2981  2023-10-24 15:17:33.680644
2982  2023-10-24 15:17:33.712564
2983  2023-10-24 15:17:33.744472
2984  2023-10-24 15:17:33.776399
2985  2023-10-24 15:17:33.808403
2986  2023-10-24 15:17:33.841226
2987  2023-10-24 15:17:33.873142
2988  2023-10-24 15:17:33.904059
2989  2023-10-24 15:17:33.936039
2990  2023-10-24 15:17:33.983922
2991  2023-10-24 15:17:34.015826
2992  2023-10-24 15:17:34.048743
2993  2023-10-24 15:17:34.079654
2994  2023-10-24 15:17:34.111578
2995  2023-10-24 15:17:34.144482
2996  2023-10-24 15:17:34.176414
2997  2023-10-24 15:17:34.208310
2998  2023-10-24 15:17:34.240224
2999  2023-10-24 15:17:34.272154
3000  2023-10-24 15:17:34.304061
3001  2023-10-24 15:17:34.335982
3002  2023-10-24 15:17:34.383845
3003  2023-10-24 15:17:34.415755
3004  2023-10-24 15:17:34.447674
3005  2023-10-24 15:17:34.479600
3006  2023-10-24 15:17:34.511494
3007  2023-10-24 15:17:34.543414
3008  2023-10-24 15:17:34.575592
3009  2023-10-24 15:17:34.607467
3010  2023-10-24 15:17:34.639444
3011  2023-10-24 15:17:34.671361
3012  2023-10-24 15:17:34.703274
3013  2023-10-24 15:17:34.736168
3014  2023-10-24 15:17:34.784027
3015  2023-10-24 15:17:34.815942
3016  2023-10-24 15:17:34.847883
3017  2023-10-24 15:17:34.879797
3018  2023-10-24 15:17:34.911718
3019  2023-10-24 15:17:34.943672
3020  2023-10-24 15:17:34.975562
3021  2023-10-24 15:17:35.007477
3022  2023-10-24 15:17:35.039372
3023  2023-10-24 15:17:35.072257
3024  2023-10-24 15:17:35.105195
3025  2023-10-24 15:17:35.136128
3026  2023-10-24 15:17:35.185012
3027  2023-10-24 15:17:35.215872
3028  2023-10-24 15:17:35.247788
3029  2023-10-24 15:17:35.279734
3030  2023-10-24 15:17:35.312659
3031  2023-10-24 15:17:35.344725
3032  2023-10-24 15:17:35.375491
3033  2023-10-24 15:17:35.407393
3034  2023-10-24 15:17:35.440297
3035  2023-10-24 15:17:35.473223
3036  2023-10-24 15:17:35.505125
3037  2023-10-24 15:17:35.536049
3038  2023-10-24 15:17:35.584932
3039  2023-10-24 15:17:35.615803
3040  2023-10-24 15:17:35.647760
3041  2023-10-24 15:17:35.680660
3042  2023-10-24 15:17:35.712594
3043  2023-10-24 15:17:35.744524
3044  2023-10-24 15:17:35.775417
3045  2023-10-24 15:17:35.807326
3046  2023-10-24 15:17:35.840204
3047  2023-10-24 15:17:35.873187
3048  2023-10-24 15:17:35.904064
3049  2023-10-24 15:17:35.935990
3050  2023-10-24 15:17:35.983872
3051  2023-10-24 15:17:36.015735
3052  2023-10-24 15:17:36.047649
3053  2023-10-24 15:17:36.080594
3054  2023-10-24 15:17:36.112523
3055  2023-10-24 15:17:36.144392
3056  2023-10-24 15:17:36.175337
3057  2023-10-24 15:17:36.207270
3058  2023-10-24 15:17:36.240176
3059  2023-10-24 15:17:36.272106
3060  2023-10-24 15:17:36.303997
3061  2023-10-24 15:17:36.335921
3062  2023-10-24 15:17:36.383784
3063  2023-10-24 15:17:36.415706
3064  2023-10-24 15:17:36.447614
3065  2023-10-24 15:17:36.480534
3066  2023-10-24 15:17:36.511442
3067  2023-10-24 15:17:36.543371
3068  2023-10-24 15:17:36.576303
3069  2023-10-24 15:17:36.607268
3070  2023-10-24 15:17:36.639267
3071  2023-10-24 15:17:36.672145
3072  2023-10-24 15:17:36.704111
3073  2023-10-24 15:17:36.736034
3074  2023-10-24 15:17:36.783889
3075  2023-10-24 15:17:36.815830
3076  2023-10-24 15:17:36.847718
3077  2023-10-24 15:17:36.879715
3078  2023-10-24 15:17:36.911631
3079  2023-10-24 15:17:36.943573
3080  2023-10-24 15:17:36.975460
3081  2023-10-24 15:17:37.007394
3082  2023-10-24 15:17:37.040266
3083  2023-10-24 15:17:37.072169
3084  2023-10-24 15:17:37.104131
3085  2023-10-24 15:17:37.136033
3086  2023-10-24 15:17:37.183870
3087  2023-10-24 15:17:37.215787
3088  2023-10-24 15:17:37.247727
3089  2023-10-24 15:17:37.279640
3090  2023-10-24 15:17:37.311566
3091  2023-10-24 15:17:37.343483
3092  2023-10-24 15:17:37.375393
3093  2023-10-24 15:17:37.408305
3094  2023-10-24 15:17:37.439240
3095  2023-10-24 15:17:37.472156
3096  2023-10-24 15:17:37.504030
3097  2023-10-24 15:17:37.535929
3098  2023-10-24 15:17:37.583849
3099  2023-10-24 15:17:37.615748
3100  2023-10-24 15:17:37.647708
3101  2023-10-24 15:17:37.679593
3102  2023-10-24 15:17:37.711518
3103  2023-10-24 15:17:37.743405
3104  2023-10-24 15:17:37.775361
3105  2023-10-24 15:17:37.807234
3106  2023-10-24 15:17:37.840150
3107  2023-10-24 15:17:37.872073
3108  2023-10-24 15:17:37.903976
3109  2023-10-24 15:17:37.951869
3110  2023-10-24 15:17:37.983784
3111  2023-10-24 15:17:38.015647
3112  2023-10-24 15:17:38.047597
3113  2023-10-24 15:17:38.079523
3114  2023-10-24 15:17:38.111424
3115  2023-10-24 15:17:38.143305
3116  2023-10-24 15:17:38.176218
3117  2023-10-24 15:17:38.208200
3118  2023-10-24 15:17:38.239080
3119  2023-10-24 15:17:38.272058
3120  2023-10-24 15:17:38.303919
3121  2023-10-24 15:17:38.351948
3122  2023-10-24 15:17:38.383858
3123  2023-10-24 15:17:38.415764
3124  2023-10-24 15:17:38.447689
3125  2023-10-24 15:17:38.479616
3126  2023-10-24 15:17:38.511514
3127  2023-10-24 15:17:38.543445
3128  2023-10-24 15:17:38.575348
3129  2023-10-24 15:17:38.607245
3130  2023-10-24 15:17:38.639162
3131  2023-10-24 15:17:38.672098
3132  2023-10-24 15:17:38.703999
3133  2023-10-24 15:17:38.751825
3134  2023-10-24 15:17:38.783781
3135  2023-10-24 15:17:38.815704
3136  2023-10-24 15:17:38.847656
3137  2023-10-24 15:17:38.879527
3138  2023-10-24 15:17:38.911432
3139  2023-10-24 15:17:38.944362
3140  2023-10-24 15:17:38.975228
3141  2023-10-24 15:17:39.008140
3142  2023-10-24 15:17:39.040054
3143  2023-10-24 15:17:39.071969
3144  2023-10-24 15:17:39.103918
3145  2023-10-24 15:17:39.151756
3146  2023-10-24 15:17:39.183670
3147  2023-10-24 15:17:39.215585
3148  2023-10-24 15:17:39.247500
3149  2023-10-24 15:17:39.279414
3150  2023-10-24 15:17:39.311360
3151  2023-10-24 15:17:39.344254
3152  2023-10-24 15:17:39.376218
3153  2023-10-24 15:17:39.408116
3154  2023-10-24 15:17:39.440018
3155  2023-10-24 15:17:39.471947
3156  2023-10-24 15:17:39.503816
3157  2023-10-24 15:17:39.551720
3158  2023-10-24 15:17:39.583634
3159  2023-10-24 15:17:39.615557
3160  2023-10-24 15:17:39.647464
3161  2023-10-24 15:17:39.679376
3162  2023-10-24 15:17:39.711260
3163  2023-10-24 15:17:39.744210
3164  2023-10-24 15:17:39.776132
3165  2023-10-24 15:17:39.808035
3166  2023-10-24 15:17:39.839950
3167  2023-10-24 15:17:39.871864
3168  2023-10-24 15:17:39.903793
3169  2023-10-24 15:17:39.951617
3170  2023-10-24 15:17:39.983582
3171  2023-10-24 15:17:40.015481
3172  2023-10-24 15:17:40.047403
3173  2023-10-24 15:17:40.079331
3174  2023-10-24 15:17:40.111240
3175  2023-10-24 15:17:40.143142
3176  2023-10-24 15:17:40.175253
3177  2023-10-24 15:17:40.207281
3178  2023-10-24 15:17:40.239267
3179  2023-10-24 15:17:40.271229
3180  2023-10-24 15:17:40.303128
3181  2023-10-24 15:17:40.352003
3182  2023-10-24 15:17:40.383902
3183  2023-10-24 15:17:40.415785
3184  2023-10-24 15:17:40.447767
3185  2023-10-24 15:17:40.479689
3186  2023-10-24 15:17:40.511604
3187  2023-10-24 15:17:40.543506
3188  2023-10-24 15:17:40.575430
3189  2023-10-24 15:17:40.607341
3190  2023-10-24 15:17:40.639278
3191  2023-10-24 15:17:40.672168
3192  2023-10-24 15:17:40.704091
3193  2023-10-24 15:17:40.751923
3194  2023-10-24 15:17:40.783838
3195  2023-10-24 15:17:40.815792
3196  2023-10-24 15:17:40.847668
3197  2023-10-24 15:17:40.879622
3198  2023-10-24 15:17:40.911523
3199  2023-10-24 15:17:40.943443
3200  2023-10-24 15:17:40.975374
3201  2023-10-24 15:17:41.007338
3202  2023-10-24 15:17:41.039246
3203  2023-10-24 15:17:41.071161
3204  2023-10-24 15:17:41.104097
3205  2023-10-24 15:17:41.151905
3206  2023-10-24 15:17:41.183845
3207  2023-10-24 15:17:41.215765
3208  2023-10-24 15:17:41.247693
3209  2023-10-24 15:17:41.279605
3210  2023-10-24 15:17:41.311503
3211  2023-10-24 15:17:41.343424
3212  2023-10-24 15:17:41.375341
3213  2023-10-24 15:17:41.407254
3214  2023-10-24 15:17:41.440162
3215  2023-10-24 15:17:41.472092
3216  2023-10-24 15:17:41.519955
3217  2023-10-24 15:17:41.551836
3218  2023-10-24 15:17:41.583750
3219  2023-10-24 15:17:41.615774
3220  2023-10-24 15:17:41.647659
3221  2023-10-24 15:17:41.679602
3222  2023-10-24 15:17:41.711562
3223  2023-10-24 15:17:41.743471
3224  2023-10-24 15:17:41.775359
3225  2023-10-24 15:17:41.807262
3226  2023-10-24 15:17:41.840163
3227  2023-10-24 15:17:41.872122
3228  2023-10-24 15:17:41.920927
3229  2023-10-24 15:17:41.951844
3230  2023-10-24 15:17:41.983758
3231  2023-10-24 15:17:42.015702
3232  2023-10-24 15:17:42.047589
3233  2023-10-24 15:17:42.079557
3234  2023-10-24 15:17:42.111469
3235  2023-10-24 15:17:42.143446
3236  2023-10-24 15:17:42.175378
3237  2023-10-24 15:17:42.207349
3238  2023-10-24 15:17:42.239263
3239  2023-10-24 15:17:42.271189
3240  2023-10-24 15:17:42.320056
3241  2023-10-24 15:17:42.351928
3242  2023-10-24 15:17:42.383876
3243  2023-10-24 15:17:42.415802
3244  2023-10-24 15:17:42.447707
3245  2023-10-24 15:17:42.479618
3246  2023-10-24 15:17:42.511538
3247  2023-10-24 15:17:42.543449
3248  2023-10-24 15:17:42.575364
3249  2023-10-24 15:17:42.607284
3250  2023-10-24 15:17:42.639192
3251  2023-10-24 15:17:42.672106
3252  2023-10-24 15:17:42.719978
3253  2023-10-24 15:17:42.751893
3254  2023-10-24 15:17:42.783773
3255  2023-10-24 15:17:42.815688
3256  2023-10-24 15:17:42.847657
3257  2023-10-24 15:17:42.879548
3258  2023-10-24 15:17:42.911467
3259  2023-10-24 15:17:42.943396
3260  2023-10-24 15:17:42.975292
3261  2023-10-24 15:17:43.007214
3262  2023-10-24 15:17:43.039128
3263  2023-10-24 15:17:43.072049
3264  2023-10-24 15:17:43.119902
3265  2023-10-24 15:17:43.151837
3266  2023-10-24 15:17:43.183766
3267  2023-10-24 15:17:43.215681
3268  2023-10-24 15:17:43.247640
3269  2023-10-24 15:17:43.279588
3270  2023-10-24 15:17:43.311466
3271  2023-10-24 15:17:43.343373
3272  2023-10-24 15:17:43.375300
3273  2023-10-24 15:17:43.407201
3274  2023-10-24 15:17:43.440116
3275  2023-10-24 15:17:43.472037
3276  2023-10-24 15:17:43.519868
3277  2023-10-24 15:17:43.551782
3278  2023-10-24 15:17:43.583697
3279  2023-10-24 15:17:43.615612
3280  2023-10-24 15:17:43.647571
3281  2023-10-24 15:17:43.679483
3282  2023-10-24 15:17:43.711397
3283  2023-10-24 15:17:43.743294
3284  2023-10-24 15:17:43.775216
3285  2023-10-24 15:17:43.808134
3286  2023-10-24 15:17:43.840072
3287  2023-10-24 15:17:43.871953
3288  2023-10-24 15:17:43.919872
3289  2023-10-24 15:17:43.951713
3290  2023-10-24 15:17:43.983628
3291  2023-10-24 15:17:44.015542
3292  2023-10-24 15:17:44.047483
3293  2023-10-24 15:17:44.079414
3294  2023-10-24 15:17:44.111319
3295  2023-10-24 15:17:44.143232
3296  2023-10-24 15:17:44.175151
3297  2023-10-24 15:17:44.208054
3298  2023-10-24 15:17:44.239975
3299  2023-10-24 15:17:44.271895
3300  2023-10-24 15:17:44.319729
3301  2023-10-24 15:17:44.351644
3302  2023-10-24 15:17:44.383624
3303  2023-10-24 15:17:44.415473
3304  2023-10-24 15:17:44.447412
3305  2023-10-24 15:17:44.479366
3306  2023-10-24 15:17:44.511249
3307  2023-10-24 15:17:44.543163
3308  2023-10-24 15:17:44.576090
3309  2023-10-24 15:17:44.607992
3310  2023-10-24 15:17:44.639875
3311  2023-10-24 15:17:44.671789
3312  2023-10-24 15:17:44.719660
3313  2023-10-24 15:17:44.751574
3314  2023-10-24 15:17:44.783489
3315  2023-10-24 15:17:44.815404
3316  2023-10-24 15:17:44.847365
3317  2023-10-24 15:17:44.879265
3318  2023-10-24 15:17:44.911194
3319  2023-10-24 15:17:44.944121
3320  2023-10-24 15:17:44.975981
3321  2023-10-24 15:17:45.007923
3322  2023-10-24 15:17:45.039855
3323  2023-10-24 15:17:45.087701
3324  2023-10-24 15:17:45.119591
3325  2023-10-24 15:17:45.151505
3326  2023-10-24 15:17:45.183459
3327  2023-10-24 15:17:45.215359
3328  2023-10-24 15:17:45.247280
3329  2023-10-24 15:17:45.280216
3330  2023-10-24 15:17:45.311127
3331  2023-10-24 15:17:45.344022
3332  2023-10-24 15:17:45.375937
3333  2023-10-24 15:17:45.407853
3334  2023-10-24 15:17:45.439768
3335  2023-10-24 15:17:45.487607
3336  2023-10-24 15:17:45.519564
3337  2023-10-24 15:17:45.551483
3338  2023-10-24 15:17:45.583351
3339  2023-10-24 15:17:45.615265
3340  2023-10-24 15:17:45.647211
3341  2023-10-24 15:17:45.680124
3342  2023-10-24 15:17:45.712043
3343  2023-10-24 15:17:45.743949
3344  2023-10-24 15:17:45.775861
3345  2023-10-24 15:17:45.807784
3346  2023-10-24 15:17:45.839706
3347  2023-10-24 15:17:45.887537
3348  2023-10-24 15:17:45.919452
3349  2023-10-24 15:17:45.951367
3350  2023-10-24 15:17:45.983281
3351  2023-10-24 15:17:46.016193
3352  2023-10-24 15:17:46.047156
3353  2023-10-24 15:17:46.080052
3354  2023-10-24 15:17:46.111971
3355  2023-10-24 15:17:46.143897
3356  2023-10-24 15:17:46.175769
3357  2023-10-24 15:17:46.207683
3358  2023-10-24 15:17:46.239641
3359  2023-10-24 15:17:46.287468
3360  2023-10-24 15:17:46.319383
3361  2023-10-24 15:17:46.351297
3362  2023-10-24 15:17:46.384210
3363  2023-10-24 15:17:46.416124
3364  2023-10-24 15:17:46.448095
3365  2023-10-24 15:17:46.479991
3366  2023-10-24 15:17:46.511869
3367  2023-10-24 15:17:46.543785
3368  2023-10-24 15:17:46.575732
3369  2023-10-24 15:17:46.607646
3370  2023-10-24 15:17:46.639562
3371  2023-10-24 15:17:46.687399
3372  2023-10-24 15:17:46.719340
3373  2023-10-24 15:17:46.751280
3374  2023-10-24 15:17:46.783143
3375  2023-10-24 15:17:46.816055
3376  2023-10-24 15:17:46.848004
3377  2023-10-24 15:17:46.879926
3378  2023-10-24 15:17:46.911833
3379  2023-10-24 15:17:46.943749
3380  2023-10-24 15:17:46.975661
3381  2023-10-24 15:17:47.007594
3382  2023-10-24 15:17:47.039489
3383  2023-10-24 15:17:47.087360
3384  2023-10-24 15:17:47.119244
3385  2023-10-24 15:17:47.152156
3386  2023-10-24 15:17:47.184128
3387  2023-10-24 15:17:47.216035
3388  2023-10-24 15:17:47.247936
3389  2023-10-24 15:17:47.279849
3390  2023-10-24 15:17:47.311755
3391  2023-10-24 15:17:47.343669
3392  2023-10-24 15:17:47.375598
3393  2023-10-24 15:17:47.407514
3394  2023-10-24 15:17:47.439451
3395  2023-10-24 15:17:47.487358
3396  2023-10-24 15:17:47.519224
3397  2023-10-24 15:17:47.552136
3398  2023-10-24 15:17:47.583177
3399  2023-10-24 15:17:47.616089
3400  2023-10-24 15:17:47.648040
3401  2023-10-24 15:17:47.679973
3402  2023-10-24 15:17:47.711865
3403  2023-10-24 15:17:47.743775
3404  2023-10-24 15:17:47.775695
3405  2023-10-24 15:17:47.807612
3406  2023-10-24 15:17:47.839523
3407  2023-10-24 15:17:47.887363
3408  2023-10-24 15:17:47.920275
3409  2023-10-24 15:17:47.952194
3410  2023-10-24 15:17:47.984105
3411  2023-10-24 15:17:48.015475
3412  2023-10-24 15:17:48.048431
3413  2023-10-24 15:17:48.080342
3414  2023-10-24 15:17:48.112115
3415  2023-10-24 15:17:48.144031
3416  2023-10-24 15:17:48.176051
3417  2023-10-24 15:17:48.207961
3418  2023-10-24 15:17:48.239841
3419  2023-10-24 15:17:48.287713
3420  2023-10-24 15:17:48.319627
3421  2023-10-24 15:17:48.351542
3422  2023-10-24 15:17:48.383494
3423  2023-10-24 15:17:48.415432
3424  2023-10-24 15:17:48.447329
3425  2023-10-24 15:17:48.479235
3426  2023-10-24 15:17:48.511154
3427  2023-10-24 15:17:48.544061
3428  2023-10-24 15:17:48.575975
3429  2023-10-24 15:17:48.607890
3430  2023-10-24 15:17:48.639797
3431  2023-10-24 15:17:48.687644
3432  2023-10-24 15:17:48.719609
3433  2023-10-24 15:17:48.751504
3434  2023-10-24 15:17:48.783388
3435  2023-10-24 15:17:48.815394
3436  2023-10-24 15:17:48.847430
3437  2023-10-24 15:17:48.879421
3438  2023-10-24 15:17:48.911335
3439  2023-10-24 15:17:48.944247
3440  2023-10-24 15:17:48.976160
3441  2023-10-24 15:17:49.008083
3442  2023-10-24 15:17:49.055942
3443  2023-10-24 15:17:49.087822
3444  2023-10-24 15:17:49.119736
3445  2023-10-24 15:17:49.151651
3446  2023-10-24 15:17:49.183566
3447  2023-10-24 15:17:49.215480
3448  2023-10-24 15:17:49.247433
3449  2023-10-24 15:17:49.279345
3450  2023-10-24 15:17:49.312224
3451  2023-10-24 15:17:49.344138
3452  2023-10-24 15:17:49.376061
3453  2023-10-24 15:17:49.408996
3454  2023-10-24 15:17:49.455847
3455  2023-10-24 15:17:49.487754
3456  2023-10-24 15:17:49.521696
3457  2023-10-24 15:17:49.551582
3458  2023-10-24 15:17:49.585682
3459  2023-10-24 15:17:49.616630
3460  2023-10-24 15:17:49.649599
3461  2023-10-24 15:17:49.681516
3462  2023-10-24 15:17:49.713433
3463  2023-10-24 15:17:49.745347
3464  2023-10-24 15:17:49.777259
3465  2023-10-24 15:17:49.809167
3466  2023-10-24 15:17:49.857047
3467  2023-10-24 15:17:49.888974
3468  2023-10-24 15:17:49.920874
3469  2023-10-24 15:17:49.952790
3470  2023-10-24 15:17:49.984753
3471  2023-10-24 15:17:50.016612
3472  2023-10-24 15:17:50.048534
3473  2023-10-24 15:17:50.080464
3474  2023-10-24 15:17:50.113396
3475  2023-10-24 15:17:50.144277
3476  2023-10-24 15:17:50.177191
3477  2023-10-24 15:17:50.209107
3478  2023-10-24 15:17:50.256987
3479  2023-10-24 15:17:50.288892
3480  2023-10-24 15:17:50.320825
3481  2023-10-24 15:17:50.352840
3482  2023-10-24 15:17:50.384750
3483  2023-10-24 15:17:50.416665
3484  2023-10-24 15:17:50.448572
3485  2023-10-24 15:17:50.480494
3486  2023-10-24 15:17:50.512405
3487  2023-10-24 15:17:50.544322
3488  2023-10-24 15:17:50.576237
3489  2023-10-24 15:17:50.608159
3490  2023-10-24 15:17:50.656043
3491  2023-10-24 15:17:50.687934
3492  2023-10-24 15:17:50.719854
3493  2023-10-24 15:17:50.751772
3494  2023-10-24 15:17:50.783823
3495  2023-10-24 15:17:50.815736
3496  2023-10-24 15:17:50.847620
3497  2023-10-24 15:17:50.879601
3498  2023-10-24 15:17:50.911523
3499  2023-10-24 15:17:50.943430
3500  2023-10-24 15:17:50.976347
3501  2023-10-24 15:17:51.008271
3502  2023-10-24 15:17:51.056105
3503  2023-10-24 15:17:51.088052
3504  2023-10-24 15:17:51.119971
3505  2023-10-24 15:17:51.151876
3506  2023-10-24 15:17:51.184761
3507  2023-10-24 15:17:51.216721
3508  2023-10-24 15:17:51.248636
3509  2023-10-24 15:17:51.279554
3510  2023-10-24 15:17:51.311468
3511  2023-10-24 15:17:51.343370
3512  2023-10-24 15:17:51.376285
3513  2023-10-24 15:17:51.407194
3514  2023-10-24 15:17:51.456127
3515  2023-10-24 15:17:51.487954
3516  2023-10-24 15:17:51.519863
3517  2023-10-24 15:17:51.551809
3518  2023-10-24 15:17:51.583719
3519  2023-10-24 15:17:51.615635
3520  2023-10-24 15:17:51.647570
3521  2023-10-24 15:17:51.679469
3522  2023-10-24 15:17:51.711375
3523  2023-10-24 15:17:51.743301
3524  2023-10-24 15:17:51.776219
3525  2023-10-24 15:17:51.808127
3526  2023-10-24 15:17:51.855965
3527  2023-10-24 15:17:51.887913
3528  2023-10-24 15:17:51.920831
3529  2023-10-24 15:17:51.952740
3530  2023-10-24 15:17:51.984651
3531  2023-10-24 15:17:52.015613
3532  2023-10-24 15:17:52.047483
3533  2023-10-24 15:17:52.080365
3534  2023-10-24 15:17:52.113309
3535  2023-10-24 15:17:52.145245
3536  2023-10-24 15:17:52.176280
3537  2023-10-24 15:17:52.208161
3538  2023-10-24 15:17:52.256089
3539  2023-10-24 15:17:52.287948
3540  2023-10-24 15:17:52.320894
3541  2023-10-24 15:17:52.352809
3542  2023-10-24 15:17:52.384735
3543  2023-10-24 15:17:52.415605
3544  2023-10-24 15:17:52.447599
3545  2023-10-24 15:17:52.480475
3546  2023-10-24 15:17:52.512377
3547  2023-10-24 15:17:52.544292
3548  2023-10-24 15:17:52.575212
3549  2023-10-24 15:17:52.624090
3550  2023-10-24 15:17:52.655962
3551  2023-10-24 15:17:52.687904
3552  2023-10-24 15:17:52.719823
3553  2023-10-24 15:17:52.751742
3554  2023-10-24 15:17:52.783648
3555  2023-10-24 15:17:52.816566
3556  2023-10-24 15:17:52.847474
3557  2023-10-24 15:17:52.879397
3558  2023-10-24 15:17:52.912310
3559  2023-10-24 15:17:52.944225
3560  2023-10-24 15:17:52.976151
3561  2023-10-24 15:17:53.024012
