
1  2023-12-01 13:16:12.432381
2  2023-12-01 13:16:12.462687
3  2023-12-01 13:16:12.508899
4  2023-12-01 13:16:12.554649
5  2023-12-01 13:16:12.601048
6  2023-12-01 13:16:12.632826
7  2023-12-01 13:16:12.679843
8  2023-12-01 13:16:12.725402
9  2023-12-01 13:16:12.756233
10  2023-12-01 13:16:12.803201
11  2023-12-01 13:16:12.849938
12  2023-12-01 13:16:12.880341
13  2023-12-01 13:16:12.926556
14  2023-12-01 13:16:12.972742
15  2023-12-01 13:16:13.004411
16  2023-12-01 13:16:13.051029
17  2023-12-01 13:16:13.097811
18  2023-12-01 13:16:13.144318
19  2023-12-01 13:16:13.174928
20  2023-12-01 13:16:13.221769
21  2023-12-01 13:16:13.268165
22  2023-12-01 13:16:13.300245
23  2023-12-01 13:16:13.347193
24  2023-12-01 13:16:13.393272
25  2023-12-01 13:16:13.424232
26  2023-12-01 13:16:13.470412
27  2023-12-01 13:16:13.516510
28  2023-12-01 13:16:13.548436
29  2023-12-01 13:16:13.595436
30  2023-12-01 13:16:13.641258
31  2023-12-01 13:16:13.672493
32  2023-12-01 13:16:13.719493
33  2023-12-01 13:16:13.766164
34  2023-12-01 13:16:13.797666
35  2023-12-01 13:16:13.843140
36  2023-12-01 13:16:13.889778
37  2023-12-01 13:16:13.936204
38  2023-12-01 13:16:13.968190
39  2023-12-01 13:16:14.014290
40  2023-12-01 13:16:14.060456
41  2023-12-01 13:16:14.091107
42  2023-12-01 13:16:14.138141
43  2023-12-01 13:16:14.184602
44  2023-12-01 13:16:14.216206
45  2023-12-01 13:16:14.262799
46  2023-12-01 13:16:14.309233
47  2023-12-01 13:16:14.340177
48  2023-12-01 13:16:14.387378
49  2023-12-01 13:16:14.434170
50  2023-12-01 13:16:14.464182
51  2023-12-01 13:16:14.509602
52  2023-12-01 13:16:14.555856
53  2023-12-01 13:16:14.602268
54  2023-12-01 13:16:14.633693
55  2023-12-01 13:16:14.679163
56  2023-12-01 13:16:14.726283
57  2023-12-01 13:16:14.757648
58  2023-12-01 13:16:14.804591
59  2023-12-01 13:16:14.851238
60  2023-12-01 13:16:14.882188
61  2023-12-01 13:16:14.928426
62  2023-12-01 13:16:14.975822
63  2023-12-01 13:16:15.005389
64  2023-12-01 13:16:15.051997
65  2023-12-01 13:16:15.098614
66  2023-12-01 13:16:15.130307
67  2023-12-01 13:16:15.176151
68  2023-12-01 13:16:15.222022
69  2023-12-01 13:16:15.271453
70  2023-12-01 13:16:15.301091
71  2023-12-01 13:16:15.348204
72  2023-12-01 13:16:15.379174
73  2023-12-01 13:16:15.424953
74  2023-12-01 13:16:15.470975
75  2023-12-01 13:16:15.517393
76  2023-12-01 13:16:15.548475
77  2023-12-01 13:16:15.595162
78  2023-12-01 13:16:15.641190
79  2023-12-01 13:16:15.672400
80  2023-12-01 13:16:15.718907
81  2023-12-01 13:16:15.765667
82  2023-12-01 13:16:15.796367
83  2023-12-01 13:16:15.842348
84  2023-12-01 13:16:15.888356
85  2023-12-01 13:16:15.935223
86  2023-12-01 13:16:15.968567
87  2023-12-01 13:16:16.013282
88  2023-12-01 13:16:16.059587
89  2023-12-01 13:16:16.091271
90  2023-12-01 13:16:16.137144
91  2023-12-01 13:16:16.185100
92  2023-12-01 13:16:16.215160
93  2023-12-01 13:16:16.263077
94  2023-12-01 13:16:16.309336
95  2023-12-01 13:16:16.341187
96  2023-12-01 13:16:16.386628
97  2023-12-01 13:16:16.433387
98  2023-12-01 13:16:16.464492
99  2023-12-01 13:16:16.511265
100  2023-12-01 13:16:16.558773
101  2023-12-01 13:16:16.590444
102  2023-12-01 13:16:16.635194
103  2023-12-01 13:16:16.682448
104  2023-12-01 13:16:16.713285
105  2023-12-01 13:16:16.758401
106  2023-12-01 13:16:16.805231
107  2023-12-01 13:16:16.851282
108  2023-12-01 13:16:16.882454
109  2023-12-01 13:16:16.929178
110  2023-12-01 13:16:16.974642
111  2023-12-01 13:16:17.005606
112  2023-12-01 13:16:17.052214
113  2023-12-01 13:16:17.098344
114  2023-12-01 13:16:17.129399
115  2023-12-01 13:16:17.176151
116  2023-12-01 13:16:17.222123
117  2023-12-01 13:16:17.269175
118  2023-12-01 13:16:17.299132
119  2023-12-01 13:16:17.345468
120  2023-12-01 13:16:17.393286
121  2023-12-01 13:16:17.423129
122  2023-12-01 13:16:17.468114
123  2023-12-01 13:16:17.515681
124  2023-12-01 13:16:17.547256
125  2023-12-01 13:16:17.594757
126  2023-12-01 13:16:17.640474
127  2023-12-01 13:16:17.671465
128  2023-12-01 13:16:17.718486
129  2023-12-01 13:16:17.765196
130  2023-12-01 13:16:17.796337
131  2023-12-01 13:16:17.842195
132  2023-12-01 13:16:17.888440
133  2023-12-01 13:16:17.934805
134  2023-12-01 13:16:17.965076
135  2023-12-01 13:16:18.011154
136  2023-12-01 13:16:18.057576
137  2023-12-01 13:16:18.088480
138  2023-12-01 13:16:18.135197
139  2023-12-01 13:16:18.182166
140  2023-12-01 13:16:18.213430
141  2023-12-01 13:16:18.260313
142  2023-12-01 13:16:18.307360
143  2023-12-01 13:16:18.337551
144  2023-12-01 13:16:18.384287
145  2023-12-01 13:16:18.432219
146  2023-12-01 13:16:18.463221
147  2023-12-01 13:16:18.509452
148  2023-12-01 13:16:18.555733
149  2023-12-01 13:16:18.602432
150  2023-12-01 13:16:18.633544
151  2023-12-01 13:16:18.679199
152  2023-12-01 13:16:18.726353
153  2023-12-01 13:16:18.758261
154  2023-12-01 13:16:18.805743
155  2023-12-01 13:16:18.852082
156  2023-12-01 13:16:18.882541
157  2023-12-01 13:16:18.929222
158  2023-12-01 13:16:18.976187
159  2023-12-01 13:16:19.007563
160  2023-12-01 13:16:19.052392
161  2023-12-01 13:16:19.099019
162  2023-12-01 13:16:19.130110
163  2023-12-01 13:16:19.176200
164  2023-12-01 13:16:19.223031
165  2023-12-01 13:16:19.255350
166  2023-12-01 13:16:19.302655
167  2023-12-01 13:16:19.350173
168  2023-12-01 13:16:19.382166
169  2023-12-01 13:16:19.426577
170  2023-12-01 13:16:19.473208
171  2023-12-01 13:16:19.504409
172  2023-12-01 13:16:19.549647
173  2023-12-01 13:16:19.595942
174  2023-12-01 13:16:19.642628
175  2023-12-01 13:16:19.674171
176  2023-12-01 13:16:19.720206
177  2023-12-01 13:16:19.765959
178  2023-12-01 13:16:19.796870
179  2023-12-01 13:16:19.843202
180  2023-12-01 13:16:19.889789
181  2023-12-01 13:16:19.920973
182  2023-12-01 13:16:19.967161
183  2023-12-01 13:16:20.014535
184  2023-12-01 13:16:20.061058
185  2023-12-01 13:16:20.091638
186  2023-12-01 13:16:20.138164
187  2023-12-01 13:16:20.183992
188  2023-12-01 13:16:20.215282
189  2023-12-01 13:16:20.261755
190  2023-12-01 13:16:20.309376
191  2023-12-01 13:16:20.341177
192  2023-12-01 13:16:20.385565
193  2023-12-01 13:16:20.433181
194  2023-12-01 13:16:20.462420
195  2023-12-01 13:16:20.509099
196  2023-12-01 13:16:20.555159
197  2023-12-01 13:16:20.601502
198  2023-12-01 13:16:20.631966
199  2023-12-01 13:16:20.678171
200  2023-12-01 13:16:20.724158
201  2023-12-01 13:16:20.756093
202  2023-12-01 13:16:20.802732
203  2023-12-01 13:16:20.849691
204  2023-12-01 13:16:20.880474
205  2023-12-01 13:16:20.926325
206  2023-12-01 13:16:20.971972
207  2023-12-01 13:16:21.017567
208  2023-12-01 13:16:21.048383
209  2023-12-01 13:16:21.095411
210  2023-12-01 13:16:21.142167
211  2023-12-01 13:16:21.173201
212  2023-12-01 13:16:21.221221
213  2023-12-01 13:16:21.267154
214  2023-12-01 13:16:21.298267
215  2023-12-01 13:16:21.344757
216  2023-12-01 13:16:21.391262
217  2023-12-01 13:16:21.421643
218  2023-12-01 13:16:21.467742
219  2023-12-01 13:16:21.513384
220  2023-12-01 13:16:21.560746
221  2023-12-01 13:16:21.591646
222  2023-12-01 13:16:21.638174
223  2023-12-01 13:16:21.685131
224  2023-12-01 13:16:21.715198
225  2023-12-01 13:16:21.761894
226  2023-12-01 13:16:21.809084
227  2023-12-01 13:16:21.839378
228  2023-12-01 13:16:21.885323
229  2023-12-01 13:16:21.931889
230  2023-12-01 13:16:21.977730
231  2023-12-01 13:16:22.008331
232  2023-12-01 13:16:22.054874
233  2023-12-01 13:16:22.102193
234  2023-12-01 13:16:22.134092
235  2023-12-01 13:16:22.182166
236  2023-12-01 13:16:22.227113
237  2023-12-01 13:16:22.258045
238  2023-12-01 13:16:22.304700
239  2023-12-01 13:16:22.350695
240  2023-12-01 13:16:22.382044
241  2023-12-01 13:16:22.429036
242  2023-12-01 13:16:22.475387
243  2023-12-01 13:16:22.506083
244  2023-12-01 13:16:22.552230
245  2023-12-01 13:16:22.598568
246  2023-12-01 13:16:22.629706
247  2023-12-01 13:16:22.677735
248  2023-12-01 13:16:22.723636
249  2023-12-01 13:16:22.754839
250  2023-12-01 13:16:22.801221
251  2023-12-01 13:16:22.847223
252  2023-12-01 13:16:22.894490
253  2023-12-01 13:16:22.924810
254  2023-12-01 13:16:22.972191
255  2023-12-01 13:16:23.018168
256  2023-12-01 13:16:23.049057
257  2023-12-01 13:16:23.095535
258  2023-12-01 13:16:23.141784
259  2023-12-01 13:16:23.173040
260  2023-12-01 13:16:23.219189
261  2023-12-01 13:16:23.266176
262  2023-12-01 13:16:23.297183
263  2023-12-01 13:16:23.342921
264  2023-12-01 13:16:23.388978
265  2023-12-01 13:16:23.434971
266  2023-12-01 13:16:23.466410
267  2023-12-01 13:16:23.512424
268  2023-12-01 13:16:23.559180
269  2023-12-01 13:16:23.590185
270  2023-12-01 13:16:23.635872
271  2023-12-01 13:16:23.681361
272  2023-12-01 13:16:23.726975
273  2023-12-01 13:16:23.758457
274  2023-12-01 13:16:23.804762
275  2023-12-01 13:16:23.850319
276  2023-12-01 13:16:23.881135
277  2023-12-01 13:16:23.928952
278  2023-12-01 13:16:23.974809
279  2023-12-01 13:16:24.006172
280  2023-12-01 13:16:24.052994
281  2023-12-01 13:16:24.099179
282  2023-12-01 13:16:24.129719
283  2023-12-01 13:16:24.177216
284  2023-12-01 13:16:24.223173
285  2023-12-01 13:16:24.255142
286  2023-12-01 13:16:24.302759
287  2023-12-01 13:16:24.349610
288  2023-12-01 13:16:24.380328
289  2023-12-01 13:16:24.427037
290  2023-12-01 13:16:24.473391
291  2023-12-01 13:16:24.519060
292  2023-12-01 13:16:24.550173
293  2023-12-01 13:16:24.596764
294  2023-12-01 13:16:24.643173
295  2023-12-01 13:16:24.674189
296  2023-12-01 13:16:24.720618
297  2023-12-01 13:16:24.767170
298  2023-12-01 13:16:24.799132
299  2023-12-01 13:16:24.844223
300  2023-12-01 13:16:24.889927
301  2023-12-01 13:16:24.935352
302  2023-12-01 13:16:24.966677
303  2023-12-01 13:16:25.013176
304  2023-12-01 13:16:25.059690
305  2023-12-01 13:16:25.090417
306  2023-12-01 13:16:25.137497
307  2023-12-01 13:16:25.185222
308  2023-12-01 13:16:25.216273
309  2023-12-01 13:16:25.264258
310  2023-12-01 13:16:25.310511
311  2023-12-01 13:16:25.341178
312  2023-12-01 13:16:25.387497
313  2023-12-01 13:16:25.433512
314  2023-12-01 13:16:25.464824
315  2023-12-01 13:16:25.510819
316  2023-12-01 13:16:25.557853
317  2023-12-01 13:16:25.588876
318  2023-12-01 13:16:25.635497
319  2023-12-01 13:16:25.682311
320  2023-12-01 13:16:25.713186
321  2023-12-01 13:16:25.759439
322  2023-12-01 13:16:25.806234
323  2023-12-01 13:16:25.852035
324  2023-12-01 13:16:25.882358
325  2023-12-01 13:16:25.928896
326  2023-12-01 13:16:25.976280
327  2023-12-01 13:16:26.007164
328  2023-12-01 13:16:26.052228
329  2023-12-01 13:16:26.100067
330  2023-12-01 13:16:26.131185
331  2023-12-01 13:16:26.178214
332  2023-12-01 13:16:26.225391
333  2023-12-01 13:16:26.255445
334  2023-12-01 13:16:26.302320
335  2023-12-01 13:16:26.349056
336  2023-12-01 13:16:26.379882
337  2023-12-01 13:16:26.426914
338  2023-12-01 13:16:26.472504
339  2023-12-01 13:16:26.519168
340  2023-12-01 13:16:26.549484
341  2023-12-01 13:16:26.597057
342  2023-12-01 13:16:26.642972
343  2023-12-01 13:16:26.676170
344  2023-12-01 13:16:26.721668
345  2023-12-01 13:16:26.769176
346  2023-12-01 13:16:26.799315
347  2023-12-01 13:16:26.845985
348  2023-12-01 13:16:26.892859
349  2023-12-01 13:16:26.923346
350  2023-12-01 13:16:26.969761
351  2023-12-01 13:16:27.016273
352  2023-12-01 13:16:27.047157
353  2023-12-01 13:16:27.093482
354  2023-12-01 13:16:27.140520
355  2023-12-01 13:16:27.171434
356  2023-12-01 13:16:27.218260
357  2023-12-01 13:16:27.266397
358  2023-12-01 13:16:27.296386
359  2023-12-01 13:16:27.342192
360  2023-12-01 13:16:27.389921
361  2023-12-01 13:16:27.435295
362  2023-12-01 13:16:27.466622
363  2023-12-01 13:16:27.512573
364  2023-12-01 13:16:27.558647
365  2023-12-01 13:16:27.590945
366  2023-12-01 13:16:27.637946
367  2023-12-01 13:16:27.684297
368  2023-12-01 13:16:27.715732
369  2023-12-01 13:16:27.763783
370  2023-12-01 13:16:27.809335
371  2023-12-01 13:16:27.841315
372  2023-12-01 13:16:27.888266
373  2023-12-01 13:16:27.935179
374  2023-12-01 13:16:27.966677
375  2023-12-01 13:16:28.012303
376  2023-12-01 13:16:28.059114
377  2023-12-01 13:16:28.089761
378  2023-12-01 13:16:28.136165
379  2023-12-01 13:16:28.183749
380  2023-12-01 13:16:28.215064
381  2023-12-01 13:16:28.261758
382  2023-12-01 13:16:28.307549
383  2023-12-01 13:16:28.338458
384  2023-12-01 13:16:28.385007
385  2023-12-01 13:16:28.431217
386  2023-12-01 13:16:28.478078
387  2023-12-01 13:16:28.508401
388  2023-12-01 13:16:28.554964
389  2023-12-01 13:16:28.601362
390  2023-12-01 13:16:28.633030
391  2023-12-01 13:16:28.679253
392  2023-12-01 13:16:28.725411
393  2023-12-01 13:16:28.756728
394  2023-12-01 13:16:28.802657
395  2023-12-01 13:16:28.848879
396  2023-12-01 13:16:28.880213
397  2023-12-01 13:16:28.926142
398  2023-12-01 13:16:28.972621
399  2023-12-01 13:16:29.018761
400  2023-12-01 13:16:29.049675
401  2023-12-01 13:16:29.095366
402  2023-12-01 13:16:29.141543
403  2023-12-01 13:16:29.172166
404  2023-12-01 13:16:29.218522
405  2023-12-01 13:16:29.265830
406  2023-12-01 13:16:29.296275
407  2023-12-01 13:16:29.343217
408  2023-12-01 13:16:29.390441
409  2023-12-01 13:16:29.421295
410  2023-12-01 13:16:29.468412
411  2023-12-01 13:16:29.514221
412  2023-12-01 13:16:29.546585
413  2023-12-01 13:16:29.592655
414  2023-12-01 13:16:29.639014
415  2023-12-01 13:16:29.685350
416  2023-12-01 13:16:29.716214
417  2023-12-01 13:16:29.762164
418  2023-12-01 13:16:29.809259
419  2023-12-01 13:16:29.840473
420  2023-12-01 13:16:29.888344
421  2023-12-01 13:16:29.935187
422  2023-12-01 13:16:29.966697
423  2023-12-01 13:16:30.012411
424  2023-12-01 13:16:30.058410
425  2023-12-01 13:16:30.090377
426  2023-12-01 13:16:30.136990
427  2023-12-01 13:16:30.184161
428  2023-12-01 13:16:30.214586
429  2023-12-01 13:16:30.262772
430  2023-12-01 13:16:30.308232
431  2023-12-01 13:16:30.340510
432  2023-12-01 13:16:30.386051
433  2023-12-01 13:16:30.432511
434  2023-12-01 13:16:30.462897
435  2023-12-01 13:16:30.508753
436  2023-12-01 13:16:30.555259
437  2023-12-01 13:16:30.601444
438  2023-12-01 13:16:30.631346
439  2023-12-01 13:16:30.678384
440  2023-12-01 13:16:30.724836
441  2023-12-01 13:16:30.755135
442  2023-12-01 13:16:30.801181
443  2023-12-01 13:16:30.847247
444  2023-12-01 13:16:30.893488
445  2023-12-01 13:16:30.924253
446  2023-12-01 13:16:30.970284
447  2023-12-01 13:16:31.017188
448  2023-12-01 13:16:31.048392
449  2023-12-01 13:16:31.094362
450  2023-12-01 13:16:31.140440
451  2023-12-01 13:16:31.172220
452  2023-12-01 13:16:31.216946
453  2023-12-01 13:16:31.265274
454  2023-12-01 13:16:31.295967
455  2023-12-01 13:16:31.342337
456  2023-12-01 13:16:31.388794
457  2023-12-01 13:16:31.434898
458  2023-12-01 13:16:31.465350
459  2023-12-01 13:16:31.512736
460  2023-12-01 13:16:31.558875
461  2023-12-01 13:16:31.589445
462  2023-12-01 13:16:31.636485
463  2023-12-01 13:16:31.683175
464  2023-12-01 13:16:31.714188
465  2023-12-01 13:16:31.759941
466  2023-12-01 13:16:31.805753
467  2023-12-01 13:16:31.852188
468  2023-12-01 13:16:31.883316
469  2023-12-01 13:16:31.929407
470  2023-12-01 13:16:31.975491
471  2023-12-01 13:16:32.006799
472  2023-12-01 13:16:32.052571
473  2023-12-01 13:16:32.099417
474  2023-12-01 13:16:32.130689
475  2023-12-01 13:16:32.177405
476  2023-12-01 13:16:32.225226
477  2023-12-01 13:16:32.256219
478  2023-12-01 13:16:32.303571
479  2023-12-01 13:16:32.348652
480  2023-12-01 13:16:32.380441
481  2023-12-01 13:16:32.426920
482  2023-12-01 13:16:32.474107
483  2023-12-01 13:16:32.504948
484  2023-12-01 13:16:32.550614
485  2023-12-01 13:16:32.596820
486  2023-12-01 13:16:32.643403
487  2023-12-01 13:16:32.674187
488  2023-12-01 13:16:32.721201
489  2023-12-01 13:16:32.767521
490  2023-12-01 13:16:32.797872
491  2023-12-01 13:16:32.844739
492  2023-12-01 13:16:32.891279
493  2023-12-01 13:16:32.922351
494  2023-12-01 13:16:32.969632
495  2023-12-01 13:16:33.015198
496  2023-12-01 13:16:33.046026
497  2023-12-01 13:16:33.093727
498  2023-12-01 13:16:33.138349
499  2023-12-01 13:16:33.184529
500  2023-12-01 13:16:33.216651
501  2023-12-01 13:16:33.263260
502  2023-12-01 13:16:33.308612
503  2023-12-01 13:16:33.340649
504  2023-12-01 13:16:33.386101
505  2023-12-01 13:16:33.432983
506  2023-12-01 13:16:33.463650
507  2023-12-01 13:16:33.509692
508  2023-12-01 13:16:33.555671
509  2023-12-01 13:16:33.602104
510  2023-12-01 13:16:33.633200
511  2023-12-01 13:16:33.681195
512  2023-12-01 13:16:33.712374
513  2023-12-01 13:16:33.758379
514  2023-12-01 13:16:33.804940
515  2023-12-01 13:16:33.850035
516  2023-12-01 13:16:33.881189
517  2023-12-01 13:16:33.927768
518  2023-12-01 13:16:33.975432
519  2023-12-01 13:16:34.007320
520  2023-12-01 13:16:34.054412
521  2023-12-01 13:16:34.099557
522  2023-12-01 13:16:34.130674
523  2023-12-01 13:16:34.177166
524  2023-12-01 13:16:34.223879
525  2023-12-01 13:16:34.255833
526  2023-12-01 13:16:34.302518
527  2023-12-01 13:16:34.348631
528  2023-12-01 13:16:34.379779
529  2023-12-01 13:16:34.426360
530  2023-12-01 13:16:34.472929
531  2023-12-01 13:16:34.504871
532  2023-12-01 13:16:34.551583
533  2023-12-01 13:16:34.597954
534  2023-12-01 13:16:34.644634
535  2023-12-01 13:16:34.675847
536  2023-12-01 13:16:34.721957
537  2023-12-01 13:16:34.767870
538  2023-12-01 13:16:34.799927
539  2023-12-01 13:16:34.847834
540  2023-12-01 13:16:34.879928
541  2023-12-01 13:16:34.926554
542  2023-12-01 13:16:34.973809
543  2023-12-01 13:16:35.004596
544  2023-12-01 13:16:35.050865
545  2023-12-01 13:16:35.097252
546  2023-12-01 13:16:35.143808
547  2023-12-01 13:16:35.175661
548  2023-12-01 13:16:35.222001
549  2023-12-01 13:16:35.268268
550  2023-12-01 13:16:35.298413
551  2023-12-01 13:16:35.345423
552  2023-12-01 13:16:35.392751
553  2023-12-01 13:16:35.423845
554  2023-12-01 13:16:35.470411
555  2023-12-01 13:16:35.515849
556  2023-12-01 13:16:35.546934
557  2023-12-01 13:16:35.592730
558  2023-12-01 13:16:35.639407
559  2023-12-01 13:16:35.686139
560  2023-12-01 13:16:35.716676
561  2023-12-01 13:16:35.764236
562  2023-12-01 13:16:35.810161
563  2023-12-01 13:16:35.841116
564  2023-12-01 13:16:35.888423
565  2023-12-01 13:16:35.936035
566  2023-12-01 13:16:35.968152
567  2023-12-01 13:16:36.014407
568  2023-12-01 13:16:36.060270
569  2023-12-01 13:16:36.090984
570  2023-12-01 13:16:36.138171
571  2023-12-01 13:16:36.184028
572  2023-12-01 13:16:36.214558
573  2023-12-01 13:16:36.262237
574  2023-12-01 13:16:36.308355
575  2023-12-01 13:16:36.339282
576  2023-12-01 13:16:36.387148
577  2023-12-01 13:16:36.433591
578  2023-12-01 13:16:36.464260
579  2023-12-01 13:16:36.511273
580  2023-12-01 13:16:36.557400
581  2023-12-01 13:16:36.588923
582  2023-12-01 13:16:36.635950
583  2023-12-01 13:16:36.682590
584  2023-12-01 13:16:36.713219
585  2023-12-01 13:16:36.761391
586  2023-12-01 13:16:36.807026
587  2023-12-01 13:16:36.838345
588  2023-12-01 13:16:36.885207
589  2023-12-01 13:16:36.931812
590  2023-12-01 13:16:36.962522
591  2023-12-01 13:16:37.008039
592  2023-12-01 13:16:37.055134
593  2023-12-01 13:16:37.102744
594  2023-12-01 13:16:37.134657
595  2023-12-01 13:16:37.179905
596  2023-12-01 13:16:37.226578
597  2023-12-01 13:16:37.257130
598  2023-12-01 13:16:37.302928
599  2023-12-01 13:16:37.350152
600  2023-12-01 13:16:37.380939
601  2023-12-01 13:16:37.426927
602  2023-12-01 13:16:37.473744
603  2023-12-01 13:16:37.504527
604  2023-12-01 13:16:37.550829
605  2023-12-01 13:16:37.598808
606  2023-12-01 13:16:37.644171
607  2023-12-01 13:16:37.675539
608  2023-12-01 13:16:37.721185
609  2023-12-01 13:16:37.769267
610  2023-12-01 13:16:37.800331
611  2023-12-01 13:16:37.846753
612  2023-12-01 13:16:37.893442
613  2023-12-01 13:16:37.923953
614  2023-12-01 13:16:37.970722
615  2023-12-01 13:16:38.016639
616  2023-12-01 13:16:38.047584
617  2023-12-01 13:16:38.094331
618  2023-12-01 13:16:38.140608
619  2023-12-01 13:16:38.171920
620  2023-12-01 13:16:38.218548
621  2023-12-01 13:16:38.266549
622  2023-12-01 13:16:38.297389
623  2023-12-01 13:16:38.343550
624  2023-12-01 13:16:38.389564
625  2023-12-01 13:16:38.421218
626  2023-12-01 13:16:38.468423
627  2023-12-01 13:16:38.514503
628  2023-12-01 13:16:38.546172
629  2023-12-01 13:16:38.592358
630  2023-12-01 13:16:38.638389
631  2023-12-01 13:16:38.684499
632  2023-12-01 13:16:38.715558
633  2023-12-01 13:16:38.762062
634  2023-12-01 13:16:38.807687
635  2023-12-01 13:16:38.838190
636  2023-12-01 13:16:38.885048
637  2023-12-01 13:16:38.931353
638  2023-12-01 13:16:38.962417
639  2023-12-01 13:16:39.009085
640  2023-12-01 13:16:39.056012
641  2023-12-01 13:16:39.101422
642  2023-12-01 13:16:39.132979
643  2023-12-01 13:16:39.179470
644  2023-12-01 13:16:39.225886
645  2023-12-01 13:16:39.257461
646  2023-12-01 13:16:39.303880
647  2023-12-01 13:16:39.351602
648  2023-12-01 13:16:39.381504
649  2023-12-01 13:16:39.428334
650  2023-12-01 13:16:39.474189
651  2023-12-01 13:16:39.506164
652  2023-12-01 13:16:39.551340
653  2023-12-01 13:16:39.597827
654  2023-12-01 13:16:39.630190
655  2023-12-01 13:16:39.678136
656  2023-12-01 13:16:39.722131
657  2023-12-01 13:16:39.768860
658  2023-12-01 13:16:39.800445
659  2023-12-01 13:16:39.846283
660  2023-12-01 13:16:39.892461
661  2023-12-01 13:16:39.923273
662  2023-12-01 13:16:39.969408
663  2023-12-01 13:16:40.016882
664  2023-12-01 13:16:40.047861
665  2023-12-01 13:16:40.094127
666  2023-12-01 13:16:40.141682
667  2023-12-01 13:16:40.172941
668  2023-12-01 13:16:40.219218
669  2023-12-01 13:16:40.265213
670  2023-12-01 13:16:40.296447
671  2023-12-01 13:16:40.341505
672  2023-12-01 13:16:40.388594
673  2023-12-01 13:16:40.434320
674  2023-12-01 13:16:40.465360
675  2023-12-01 13:16:40.511929
676  2023-12-01 13:16:40.558368
677  2023-12-01 13:16:40.589349
678  2023-12-01 13:16:40.636716
679  2023-12-01 13:16:40.681878
680  2023-12-01 13:16:40.712953
681  2023-12-01 13:16:40.759133
682  2023-12-01 13:16:40.805375
683  2023-12-01 13:16:40.852233
684  2023-12-01 13:16:40.882888
685  2023-12-01 13:16:40.929808
686  2023-12-01 13:16:40.975549
687  2023-12-01 13:16:41.007624
688  2023-12-01 13:16:41.054192
689  2023-12-01 13:16:41.101554
690  2023-12-01 13:16:41.133256
691  2023-12-01 13:16:41.180061
692  2023-12-01 13:16:41.226200
693  2023-12-01 13:16:41.257359
694  2023-12-01 13:16:41.303785
695  2023-12-01 13:16:41.350185
696  2023-12-01 13:16:41.381164
697  2023-12-01 13:16:41.427354
698  2023-12-01 13:16:41.474183
699  2023-12-01 13:16:41.504933
700  2023-12-01 13:16:41.551308
701  2023-12-01 13:16:41.599071
702  2023-12-01 13:16:41.630125
703  2023-12-01 13:16:41.678371
704  2023-12-01 13:16:41.725212
705  2023-12-01 13:16:41.755331
706  2023-12-01 13:16:41.801822
707  2023-12-01 13:16:41.848821
708  2023-12-01 13:16:41.880257
709  2023-12-01 13:16:41.926280
710  2023-12-01 13:16:41.973373
711  2023-12-01 13:16:42.003958
712  2023-12-01 13:16:42.051387
713  2023-12-01 13:16:42.098744
714  2023-12-01 13:16:42.129302
715  2023-12-01 13:16:42.178183
716  2023-12-01 13:16:42.222784
717  2023-12-01 13:16:42.269961
718  2023-12-01 13:16:42.300137
719  2023-12-01 13:16:42.346169
720  2023-12-01 13:16:42.393810
721  2023-12-01 13:16:42.424975
722  2023-12-01 13:16:42.470759
723  2023-12-01 13:16:42.517073
724  2023-12-01 13:16:42.547577
725  2023-12-01 13:16:42.594135
726  2023-12-01 13:16:42.641558
727  2023-12-01 13:16:42.685256
728  2023-12-01 13:16:42.716824
729  2023-12-01 13:16:42.764470
730  2023-12-01 13:16:42.797425
731  2023-12-01 13:16:42.842855
732  2023-12-01 13:16:42.888233
733  2023-12-01 13:16:42.935029
734  2023-12-01 13:16:42.966890
735  2023-12-01 13:16:43.012895
736  2023-12-01 13:16:43.057823
737  2023-12-01 13:16:43.088461
738  2023-12-01 13:16:43.134778
739  2023-12-01 13:16:43.181101
740  2023-12-01 13:16:43.212469
741  2023-12-01 13:16:43.258720
742  2023-12-01 13:16:43.304991
743  2023-12-01 13:16:43.351212
744  2023-12-01 13:16:43.382180
745  2023-12-01 13:16:43.428870
746  2023-12-01 13:16:43.474192
747  2023-12-01 13:16:43.504904
748  2023-12-01 13:16:43.552246
749  2023-12-01 13:16:43.598598
750  2023-12-01 13:16:43.644651
751  2023-12-01 13:16:43.677367
752  2023-12-01 13:16:43.723118
753  2023-12-01 13:16:43.769207
754  2023-12-01 13:16:43.799347
755  2023-12-01 13:16:43.846586
756  2023-12-01 13:16:43.892762
757  2023-12-01 13:16:43.923305
758  2023-12-01 13:16:43.969317
759  2023-12-01 13:16:44.015279
760  2023-12-01 13:16:44.046371
761  2023-12-01 13:16:44.092242
762  2023-12-01 13:16:44.139708
763  2023-12-01 13:16:44.171874
764  2023-12-01 13:16:44.218905
765  2023-12-01 13:16:44.264575
766  2023-12-01 13:16:44.310902
767  2023-12-01 13:16:44.341638
768  2023-12-01 13:16:44.389244
769  2023-12-01 13:16:44.436139
770  2023-12-01 13:16:44.466431
771  2023-12-01 13:16:44.513423
772  2023-12-01 13:16:44.560157
773  2023-12-01 13:16:44.591436
774  2023-12-01 13:16:44.638129
775  2023-12-01 13:16:44.684870
776  2023-12-01 13:16:44.716603
777  2023-12-01 13:16:44.763935
778  2023-12-01 13:16:44.810304
779  2023-12-01 13:16:44.841264
780  2023-12-01 13:16:44.887380
781  2023-12-01 13:16:44.933376
782  2023-12-01 13:16:44.965356
783  2023-12-01 13:16:45.012637
784  2023-12-01 13:16:45.058573
785  2023-12-01 13:16:45.090383
786  2023-12-01 13:16:45.136764
787  2023-12-01 13:16:45.182673
788  2023-12-01 13:16:45.213569
789  2023-12-01 13:16:45.260438
790  2023-12-01 13:16:45.306756
791  2023-12-01 13:16:45.338290
792  2023-12-01 13:16:45.385287
793  2023-12-01 13:16:45.432374
794  2023-12-01 13:16:45.462792
795  2023-12-01 13:16:45.509620
796  2023-12-01 13:16:45.557054
797  2023-12-01 13:16:45.588226
798  2023-12-01 13:16:45.635106
799  2023-12-01 13:16:45.680669
800  2023-12-01 13:16:45.727292
801  2023-12-01 13:16:45.758711
802  2023-12-01 13:16:45.804376
803  2023-12-01 13:16:45.851448
804  2023-12-01 13:16:45.882201
805  2023-12-01 13:16:45.929081
806  2023-12-01 13:16:45.975032
807  2023-12-01 13:16:46.006519
808  2023-12-01 13:16:46.054039
809  2023-12-01 13:16:46.101564
810  2023-12-01 13:16:46.131741
811  2023-12-01 13:16:46.178193
812  2023-12-01 13:16:46.225136
813  2023-12-01 13:16:46.256248
814  2023-12-01 13:16:46.301913
815  2023-12-01 13:16:46.348351
816  2023-12-01 13:16:46.380405
817  2023-12-01 13:16:46.426878
818  2023-12-01 13:16:46.472919
819  2023-12-01 13:16:46.504107
820  2023-12-01 13:16:46.550659
821  2023-12-01 13:16:46.596494
822  2023-12-01 13:16:46.644199
823  2023-12-01 13:16:46.674825
824  2023-12-01 13:16:46.721737
825  2023-12-01 13:16:46.769213
826  2023-12-01 13:16:46.799663
827  2023-12-01 13:16:46.845895
828  2023-12-01 13:16:46.892228
829  2023-12-01 13:16:46.923278
830  2023-12-01 13:16:46.969231
831  2023-12-01 13:16:47.015819
832  2023-12-01 13:16:47.047894
833  2023-12-01 13:16:47.094336
834  2023-12-01 13:16:47.141195
835  2023-12-01 13:16:47.173380
836  2023-12-01 13:16:47.219311
837  2023-12-01 13:16:47.265415
838  2023-12-01 13:16:47.296660
839  2023-12-01 13:16:47.342751
840  2023-12-01 13:16:47.389370
841  2023-12-01 13:16:47.436525
842  2023-12-01 13:16:47.467724
843  2023-12-01 13:16:47.514509
844  2023-12-01 13:16:47.559967
845  2023-12-01 13:16:47.591202
846  2023-12-01 13:16:47.638314
847  2023-12-01 13:16:47.685200
848  2023-12-01 13:16:47.716202
849  2023-12-01 13:16:47.762671
850  2023-12-01 13:16:47.809377
851  2023-12-01 13:16:47.840206
852  2023-12-01 13:16:47.886854
853  2023-12-01 13:16:47.933683
854  2023-12-01 13:16:47.965368
855  2023-12-01 13:16:48.010867
856  2023-12-01 13:16:48.058306
857  2023-12-01 13:16:48.090363
858  2023-12-01 13:16:48.138269
859  2023-12-01 13:16:48.186070
860  2023-12-01 13:16:48.216930
861  2023-12-01 13:16:48.262556
862  2023-12-01 13:16:48.309604
863  2023-12-01 13:16:48.340520
864  2023-12-01 13:16:48.387616
865  2023-12-01 13:16:48.433428
866  2023-12-01 13:16:48.464338
867  2023-12-01 13:16:48.510279
868  2023-12-01 13:16:48.557126
869  2023-12-01 13:16:48.587411
870  2023-12-01 13:16:48.635387
871  2023-12-01 13:16:48.683155
872  2023-12-01 13:16:48.714436
873  2023-12-01 13:16:48.762421
874  2023-12-01 13:16:48.810024
875  2023-12-01 13:16:48.841401
876  2023-12-01 13:16:48.888176
877  2023-12-01 13:16:48.935273
878  2023-12-01 13:16:48.966334
879  2023-12-01 13:16:49.013704
880  2023-12-01 13:16:49.060351
881  2023-12-01 13:16:49.091332
882  2023-12-01 13:16:49.137372
883  2023-12-01 13:16:49.183389
884  2023-12-01 13:16:49.215300
885  2023-12-01 13:16:49.261269
886  2023-12-01 13:16:49.307951
887  2023-12-01 13:16:49.339608
888  2023-12-01 13:16:49.387213
889  2023-12-01 13:16:49.434122
890  2023-12-01 13:16:49.466315
891  2023-12-01 13:16:49.511143
892  2023-12-01 13:16:49.557564
893  2023-12-01 13:16:49.588678
894  2023-12-01 13:16:49.635228
895  2023-12-01 13:16:49.681195
896  2023-12-01 13:16:49.727163
897  2023-12-01 13:16:49.758325
898  2023-12-01 13:16:49.804117
899  2023-12-01 13:16:49.849111
900  2023-12-01 13:16:49.880329
901  2023-12-01 13:16:49.926793
902  2023-12-01 13:16:49.973196
903  2023-12-01 13:16:50.004027
904  2023-12-01 13:16:50.051264
905  2023-12-01 13:16:50.097416
906  2023-12-01 13:16:50.129618
907  2023-12-01 13:16:50.176200
908  2023-12-01 13:16:50.221599
909  2023-12-01 13:16:50.267126
910  2023-12-01 13:16:50.299476
911  2023-12-01 13:16:50.346072
912  2023-12-01 13:16:50.392290
913  2023-12-01 13:16:50.423785
914  2023-12-01 13:16:50.469532
915  2023-12-01 13:16:50.516192
916  2023-12-01 13:16:50.547232
917  2023-12-01 13:16:50.593833
918  2023-12-01 13:16:50.639399
919  2023-12-01 13:16:50.670728
920  2023-12-01 13:16:50.716881
921  2023-12-01 13:16:50.763162
922  2023-12-01 13:16:50.810958
923  2023-12-01 13:16:50.842260
924  2023-12-01 13:16:50.888211
925  2023-12-01 13:16:50.935591
926  2023-12-01 13:16:50.967474
927  2023-12-01 13:16:51.013185
928  2023-12-01 13:16:51.059694
929  2023-12-01 13:16:51.090660
930  2023-12-01 13:16:51.136313
931  2023-12-01 13:16:51.183144
932  2023-12-01 13:16:51.213754
933  2023-12-01 13:16:51.260046
934  2023-12-01 13:16:51.307201
935  2023-12-01 13:16:51.338452
936  2023-12-01 13:16:51.385928
937  2023-12-01 13:16:51.432916
938  2023-12-01 13:16:51.462437
939  2023-12-01 13:16:51.508203
940  2023-12-01 13:16:51.554671
941  2023-12-01 13:16:51.601269
942  2023-12-01 13:16:51.631037
943  2023-12-01 13:16:51.677712
944  2023-12-01 13:16:51.723393
945  2023-12-01 13:16:51.754528
946  2023-12-01 13:16:51.800889
947  2023-12-01 13:16:51.848685
948  2023-12-01 13:16:51.880678
949  2023-12-01 13:16:51.928076
950  2023-12-01 13:16:51.973775
951  2023-12-01 13:16:52.006097
952  2023-12-01 13:16:52.052728
953  2023-12-01 13:16:52.100247
954  2023-12-01 13:16:52.129999
955  2023-12-01 13:16:52.176378
956  2023-12-01 13:16:52.223383
957  2023-12-01 13:16:52.254183
958  2023-12-01 13:16:52.301792
959  2023-12-01 13:16:52.349290
960  2023-12-01 13:16:52.380513
961  2023-12-01 13:16:52.426693
962  2023-12-01 13:16:52.473804
963  2023-12-01 13:16:52.507112
964  2023-12-01 13:16:52.552950
965  2023-12-01 13:16:52.600580
966  2023-12-01 13:16:52.632071
967  2023-12-01 13:16:52.677400
968  2023-12-01 13:16:52.724335
969  2023-12-01 13:16:52.756378
970  2023-12-01 13:16:52.802256
971  2023-12-01 13:16:52.849012
972  2023-12-01 13:16:52.879837
973  2023-12-01 13:16:52.926567
974  2023-12-01 13:16:52.972268
975  2023-12-01 13:16:53.018154
976  2023-12-01 13:16:53.049689
977  2023-12-01 13:16:53.095238
978  2023-12-01 13:16:53.142242
979  2023-12-01 13:16:53.173426
980  2023-12-01 13:16:53.220072
981  2023-12-01 13:16:53.266742
982  2023-12-01 13:16:53.296543
983  2023-12-01 13:16:53.342495
984  2023-12-01 13:16:53.389230
985  2023-12-01 13:16:53.421596
986  2023-12-01 13:16:53.467889
987  2023-12-01 13:16:53.514603
988  2023-12-01 13:16:53.560271
989  2023-12-01 13:16:53.591161
990  2023-12-01 13:16:53.637437
991  2023-12-01 13:16:53.683860
992  2023-12-01 13:16:53.714211
993  2023-12-01 13:16:53.760658
994  2023-12-01 13:16:53.806924
995  2023-12-01 13:16:53.837520
996  2023-12-01 13:16:53.883867
997  2023-12-01 13:16:53.930028
998  2023-12-01 13:16:53.978007
999  2023-12-01 13:16:54.007506
1000  2023-12-01 13:16:54.055228
1001  2023-12-01 13:16:54.101759
1002  2023-12-01 13:16:54.132382
1003  2023-12-01 13:16:54.180198
1004  2023-12-01 13:16:54.227367
1005  2023-12-01 13:16:54.259720
1006  2023-12-01 13:16:54.306819
1007  2023-12-01 13:16:54.337734
1008  2023-12-01 13:16:54.384444
1009  2023-12-01 13:16:54.431284
1010  2023-12-01 13:16:54.462469
1011  2023-12-01 13:16:54.509401
1012  2023-12-01 13:16:54.555409
1013  2023-12-01 13:16:54.601299
1014  2023-12-01 13:16:54.630994
1015  2023-12-01 13:16:54.677537
1016  2023-12-01 13:16:54.724209
1017  2023-12-01 13:16:54.755252
1018  2023-12-01 13:16:54.802223
1019  2023-12-01 13:16:54.847435
1020  2023-12-01 13:16:54.893812
1021  2023-12-01 13:16:54.924929
1022  2023-12-01 13:16:54.972127
1023  2023-12-01 13:16:55.018997
1024  2023-12-01 13:16:55.049245
1025  2023-12-01 13:16:55.095803
1026  2023-12-01 13:16:55.142477
1027  2023-12-01 13:16:55.172356
1028  2023-12-01 13:16:55.220506
1029  2023-12-01 13:16:55.266498
1030  2023-12-01 13:16:55.297467
1031  2023-12-01 13:16:55.344233
1032  2023-12-01 13:16:55.390492
1033  2023-12-01 13:16:55.421198
1034  2023-12-01 13:16:55.467555
1035  2023-12-01 13:16:55.514073
1036  2023-12-01 13:16:55.560788
1037  2023-12-01 13:16:55.592044
1038  2023-12-01 13:16:55.639373
1039  2023-12-01 13:16:55.684190
1040  2023-12-01 13:16:55.714884
1041  2023-12-01 13:16:55.761323
1042  2023-12-01 13:16:55.806479
1043  2023-12-01 13:16:55.838022
1044  2023-12-01 13:16:55.883539
1045  2023-12-01 13:16:55.929416
1046  2023-12-01 13:16:55.974837
1047  2023-12-01 13:16:56.006304
1048  2023-12-01 13:16:56.053860
1049  2023-12-01 13:16:56.099274
1050  2023-12-01 13:16:56.130399
1051  2023-12-01 13:16:56.177201
1052  2023-12-01 13:16:56.222357
1053  2023-12-01 13:16:56.268600
1054  2023-12-01 13:16:56.299270
1055  2023-12-01 13:16:56.345635
1056  2023-12-01 13:16:56.392366
1057  2023-12-01 13:16:56.423014
1058  2023-12-01 13:16:56.470487
1059  2023-12-01 13:16:56.517875
1060  2023-12-01 13:16:56.549131
1061  2023-12-01 13:16:56.595344
1062  2023-12-01 13:16:56.642537
1063  2023-12-01 13:16:56.673492
1064  2023-12-01 13:16:56.721213
1065  2023-12-01 13:16:56.766129
1066  2023-12-01 13:16:56.796798
1067  2023-12-01 13:16:56.843868
1068  2023-12-01 13:16:56.890275
1069  2023-12-01 13:16:56.921265
1070  2023-12-01 13:16:56.968803
1071  2023-12-01 13:16:57.014501
1072  2023-12-01 13:16:57.062150
1073  2023-12-01 13:16:57.092661
1074  2023-12-01 13:16:57.138687
1075  2023-12-01 13:16:57.184876
1076  2023-12-01 13:16:57.216281
1077  2023-12-01 13:16:57.265285
1078  2023-12-01 13:16:57.310860
1079  2023-12-01 13:16:57.342010
1080  2023-12-01 13:16:57.386600
1081  2023-12-01 13:16:57.433906
1082  2023-12-01 13:16:57.464398
1083  2023-12-01 13:16:57.510876
1084  2023-12-01 13:16:57.557451
1085  2023-12-01 13:16:57.588196
1086  2023-12-01 13:16:57.634282
1087  2023-12-01 13:16:57.680516
1088  2023-12-01 13:16:57.712390
1089  2023-12-01 13:16:57.760559
1090  2023-12-01 13:16:57.805637
1091  2023-12-01 13:16:57.852275
1092  2023-12-01 13:16:57.884034
1093  2023-12-01 13:16:57.931094
1094  2023-12-01 13:16:57.977093
1095  2023-12-01 13:16:58.008210
1096  2023-12-01 13:16:58.055488
1097  2023-12-01 13:16:58.102417
1098  2023-12-01 13:16:58.132709
1099  2023-12-01 13:16:58.178851
1100  2023-12-01 13:16:58.225834
1101  2023-12-01 13:16:58.256228
1102  2023-12-01 13:16:58.302795
1103  2023-12-01 13:16:58.349132
1104  2023-12-01 13:16:58.379432
1105  2023-12-01 13:16:58.426549
1106  2023-12-01 13:16:58.472495
1107  2023-12-01 13:16:58.504256
1108  2023-12-01 13:16:58.551316
1109  2023-12-01 13:16:58.597185
1110  2023-12-01 13:16:58.643223
1111  2023-12-01 13:16:58.674346
1112  2023-12-01 13:16:58.722218
1113  2023-12-01 13:16:58.768219
1114  2023-12-01 13:16:58.798790
1115  2023-12-01 13:16:58.844581
1116  2023-12-01 13:16:58.890391
1117  2023-12-01 13:16:58.921273
1118  2023-12-01 13:16:58.968026
1119  2023-12-01 13:16:59.015336
1120  2023-12-01 13:16:59.046641
1121  2023-12-01 13:16:59.093620
1122  2023-12-01 13:16:59.141218
1123  2023-12-01 13:16:59.174196
1124  2023-12-01 13:16:59.218402
1125  2023-12-01 13:16:59.265373
1126  2023-12-01 13:16:59.296788
1127  2023-12-01 13:16:59.341694
1128  2023-12-01 13:16:59.388559
1129  2023-12-01 13:16:59.433904
1130  2023-12-01 13:16:59.464869
1131  2023-12-01 13:16:59.511212
1132  2023-12-01 13:16:59.559133
1133  2023-12-01 13:16:59.590915
1134  2023-12-01 13:16:59.639409
1135  2023-12-01 13:16:59.685239
1136  2023-12-01 13:16:59.717234
1137  2023-12-01 13:16:59.763582
1138  2023-12-01 13:16:59.810236
1139  2023-12-01 13:16:59.841716
1140  2023-12-01 13:16:59.888080
1141  2023-12-01 13:16:59.933737
1142  2023-12-01 13:16:59.964357
1143  2023-12-01 13:17:00.011175
1144  2023-12-01 13:17:00.057342
1145  2023-12-01 13:17:00.088918
1146  2023-12-01 13:17:00.134787
1147  2023-12-01 13:17:00.181224
1148  2023-12-01 13:17:00.227208
1149  2023-12-01 13:17:00.258240
1150  2023-12-01 13:17:00.304239
1151  2023-12-01 13:17:00.350954
1152  2023-12-01 13:17:00.382171
1153  2023-12-01 13:17:00.429327
1154  2023-12-01 13:17:00.475385
1155  2023-12-01 13:17:00.505761
1156  2023-12-01 13:17:00.552394
1157  2023-12-01 13:17:00.599772
1158  2023-12-01 13:17:00.629707
1159  2023-12-01 13:17:00.677248
1160  2023-12-01 13:17:00.722269
1161  2023-12-01 13:17:00.768830
1162  2023-12-01 13:17:00.800427
1163  2023-12-01 13:17:00.846074
1164  2023-12-01 13:17:00.892320
1165  2023-12-01 13:17:00.922796
1166  2023-12-01 13:17:00.969112
1167  2023-12-01 13:17:01.015230
1168  2023-12-01 13:17:01.046189
1169  2023-12-01 13:17:01.092691
1170  2023-12-01 13:17:01.138632
1171  2023-12-01 13:17:01.185263
1172  2023-12-01 13:17:01.216509
1173  2023-12-01 13:17:01.262343
1174  2023-12-01 13:17:01.309675
1175  2023-12-01 13:17:01.340618
1176  2023-12-01 13:17:01.386236
1177  2023-12-01 13:17:01.433822
1178  2023-12-01 13:17:01.464646
1179  2023-12-01 13:17:01.511385
1180  2023-12-01 13:17:01.558002
1181  2023-12-01 13:17:01.590233
1182  2023-12-01 13:17:01.636408
1183  2023-12-01 13:17:01.684535
1184  2023-12-01 13:17:01.715239
1185  2023-12-01 13:17:01.761388
1186  2023-12-01 13:17:01.806985
1187  2023-12-01 13:17:01.837950
1188  2023-12-01 13:17:01.884320
1189  2023-12-01 13:17:01.930861
1190  2023-12-01 13:17:01.977383
1191  2023-12-01 13:17:02.008211
1192  2023-12-01 13:17:02.055212
1193  2023-12-01 13:17:02.101653
1194  2023-12-01 13:17:02.132704
1195  2023-12-01 13:17:02.178467
1196  2023-12-01 13:17:02.225287
1197  2023-12-01 13:17:02.256385
1198  2023-12-01 13:17:02.303445
1199  2023-12-01 13:17:02.349069
1200  2023-12-01 13:17:02.380996
1201  2023-12-01 13:17:02.426833
1202  2023-12-01 13:17:02.473552
1203  2023-12-01 13:17:02.505349
1204  2023-12-01 13:17:02.550873
1205  2023-12-01 13:17:02.598761
1206  2023-12-01 13:17:02.644206
1207  2023-12-01 13:17:02.676216
1208  2023-12-01 13:17:02.721284
1209  2023-12-01 13:17:02.768361
1210  2023-12-01 13:17:02.799502
1211  2023-12-01 13:17:02.846005
1212  2023-12-01 13:17:02.892545
1213  2023-12-01 13:17:02.924579
1214  2023-12-01 13:17:02.971794
1215  2023-12-01 13:17:03.018669
1216  2023-12-01 13:17:03.050579
1217  2023-12-01 13:17:03.098376
1218  2023-12-01 13:17:03.129296
1219  2023-12-01 13:17:03.177223
1220  2023-12-01 13:17:03.222952
1221  2023-12-01 13:17:03.254308
1222  2023-12-01 13:17:03.300136
1223  2023-12-01 13:17:03.347748
1224  2023-12-01 13:17:03.393145
1225  2023-12-01 13:17:03.424377
1226  2023-12-01 13:17:03.471120
1227  2023-12-01 13:17:03.517184
1228  2023-12-01 13:17:03.548046
1229  2023-12-01 13:17:03.594187
1230  2023-12-01 13:17:03.640126
1231  2023-12-01 13:17:03.671208
1232  2023-12-01 13:17:03.718275
1233  2023-12-01 13:17:03.765116
1234  2023-12-01 13:17:03.811538
1235  2023-12-01 13:17:03.841514
1236  2023-12-01 13:17:03.888735
1237  2023-12-01 13:17:03.934553
1238  2023-12-01 13:17:03.964685
1239  2023-12-01 13:17:04.011502
1240  2023-12-01 13:17:04.058188
1241  2023-12-01 13:17:04.088204
1242  2023-12-01 13:17:04.134194
1243  2023-12-01 13:17:04.181908
1244  2023-12-01 13:17:04.212695
1245  2023-12-01 13:17:04.259257
1246  2023-12-01 13:17:04.305811
1247  2023-12-01 13:17:04.352250
1248  2023-12-01 13:17:04.383610
1249  2023-12-01 13:17:04.430322
1250  2023-12-01 13:17:04.476115
1251  2023-12-01 13:17:04.507331
1252  2023-12-01 13:17:04.554049
1253  2023-12-01 13:17:04.600018
1254  2023-12-01 13:17:04.631930
1255  2023-12-01 13:17:04.678666
1256  2023-12-01 13:17:04.725390
1257  2023-12-01 13:17:04.755033
1258  2023-12-01 13:17:04.801331
1259  2023-12-01 13:17:04.848158
1260  2023-12-01 13:17:04.879274
1261  2023-12-01 13:17:04.925320
1262  2023-12-01 13:17:04.971812
1263  2023-12-01 13:17:05.018632
1264  2023-12-01 13:17:05.049839
1265  2023-12-01 13:17:05.096840
1266  2023-12-01 13:17:05.142907
1267  2023-12-01 13:17:05.174361
1268  2023-12-01 13:17:05.220755
1269  2023-12-01 13:17:05.268789
1270  2023-12-01 13:17:05.299958
1271  2023-12-01 13:17:05.348237
1272  2023-12-01 13:17:05.379415
1273  2023-12-01 13:17:05.427437
1274  2023-12-01 13:17:05.472252
1275  2023-12-01 13:17:05.518851
1276  2023-12-01 13:17:05.550422
1277  2023-12-01 13:17:05.597153
1278  2023-12-01 13:17:05.643502
1279  2023-12-01 13:17:05.675090
1280  2023-12-01 13:17:05.721388
1281  2023-12-01 13:17:05.768533
1282  2023-12-01 13:17:05.798904
1283  2023-12-01 13:17:05.845246
1284  2023-12-01 13:17:05.891956
1285  2023-12-01 13:17:05.922478
1286  2023-12-01 13:17:05.968382
1287  2023-12-01 13:17:06.014824
1288  2023-12-01 13:17:06.061202
1289  2023-12-01 13:17:06.091724
1290  2023-12-01 13:17:06.137880
1291  2023-12-01 13:17:06.184928
1292  2023-12-01 13:17:06.216019
1293  2023-12-01 13:17:06.263304
1294  2023-12-01 13:17:06.310001
1295  2023-12-01 13:17:06.339988
1296  2023-12-01 13:17:06.387461
1297  2023-12-01 13:17:06.433394
1298  2023-12-01 13:17:06.462940
1299  2023-12-01 13:17:06.509440
1300  2023-12-01 13:17:06.556009
1301  2023-12-01 13:17:06.602718
1302  2023-12-01 13:17:06.633275
1303  2023-12-01 13:17:06.680211
1304  2023-12-01 13:17:06.726826
1305  2023-12-01 13:17:06.757636
1306  2023-12-01 13:17:06.805086
1307  2023-12-01 13:17:06.851219
1308  2023-12-01 13:17:06.883791
1309  2023-12-01 13:17:06.930759
1310  2023-12-01 13:17:06.977651
1311  2023-12-01 13:17:07.007215
1312  2023-12-01 13:17:07.053933
1313  2023-12-01 13:17:07.099478
1314  2023-12-01 13:17:07.130582
1315  2023-12-01 13:17:07.176852
1316  2023-12-01 13:17:07.223350
1317  2023-12-01 13:17:07.255098
1318  2023-12-01 13:17:07.302408
1319  2023-12-01 13:17:07.350178
1320  2023-12-01 13:17:07.381614
1321  2023-12-01 13:17:07.426203
1322  2023-12-01 13:17:07.472515
1323  2023-12-01 13:17:07.518876
1324  2023-12-01 13:17:07.549956
1325  2023-12-01 13:17:07.596173
1326  2023-12-01 13:17:07.642898
1327  2023-12-01 13:17:07.674154
1328  2023-12-01 13:17:07.720446
1329  2023-12-01 13:17:07.767641
1330  2023-12-01 13:17:07.798323
1331  2023-12-01 13:17:07.845796
1332  2023-12-01 13:17:07.890899
1333  2023-12-01 13:17:07.922061
1334  2023-12-01 13:17:07.968235
1335  2023-12-01 13:17:08.014278
1336  2023-12-01 13:17:08.045803
1337  2023-12-01 13:17:08.091510
1338  2023-12-01 13:17:08.137239
1339  2023-12-01 13:17:08.184539
1340  2023-12-01 13:17:08.216354
1341  2023-12-01 13:17:08.263399
1342  2023-12-01 13:17:08.310550
1343  2023-12-01 13:17:08.340807
1344  2023-12-01 13:17:08.389257
1345  2023-12-01 13:17:08.437574
1346  2023-12-01 13:17:08.466188
1347  2023-12-01 13:17:08.512208
1348  2023-12-01 13:17:08.558276
1349  2023-12-01 13:17:08.588940
1350  2023-12-01 13:17:08.635358
1351  2023-12-01 13:17:08.681977
1352  2023-12-01 13:17:08.712675
1353  2023-12-01 13:17:08.759255
1354  2023-12-01 13:17:08.807050
1355  2023-12-01 13:17:08.838358
1356  2023-12-01 13:17:08.884617
1357  2023-12-01 13:17:08.931354
1358  2023-12-01 13:17:08.963256
1359  2023-12-01 13:17:09.009778
1360  2023-12-01 13:17:09.057247
1361  2023-12-01 13:17:09.087752
1362  2023-12-01 13:17:09.133512
1363  2023-12-01 13:17:09.180048
1364  2023-12-01 13:17:09.227328
1365  2023-12-01 13:17:09.258033
1366  2023-12-01 13:17:09.304614
1367  2023-12-01 13:17:09.350809
1368  2023-12-01 13:17:09.382149
1369  2023-12-01 13:17:09.428198
1370  2023-12-01 13:17:09.476054
1371  2023-12-01 13:17:09.507041
1372  2023-12-01 13:17:09.554517
1373  2023-12-01 13:17:09.599453
1374  2023-12-01 13:17:09.631440
1375  2023-12-01 13:17:09.677723
1376  2023-12-01 13:17:09.725313
1377  2023-12-01 13:17:09.756451
1378  2023-12-01 13:17:09.802462
1379  2023-12-01 13:17:09.849384
1380  2023-12-01 13:17:09.879723
1381  2023-12-01 13:17:09.926253
1382  2023-12-01 13:17:09.973166
1383  2023-12-01 13:17:10.004332
1384  2023-12-01 13:17:10.050260
1385  2023-12-01 13:17:10.097314
1386  2023-12-01 13:17:10.142414
1387  2023-12-01 13:17:10.173306
1388  2023-12-01 13:17:10.219778
1389  2023-12-01 13:17:10.266872
1390  2023-12-01 13:17:10.297573
1391  2023-12-01 13:17:10.344735
1392  2023-12-01 13:17:10.391207
1393  2023-12-01 13:17:10.422323
1394  2023-12-01 13:17:10.468973
1395  2023-12-01 13:17:10.516354
1396  2023-12-01 13:17:10.547079
1397  2023-12-01 13:17:10.593163
1398  2023-12-01 13:17:10.641524
1399  2023-12-01 13:17:10.673164
1400  2023-12-01 13:17:10.719171
1401  2023-12-01 13:17:10.765514
1402  2023-12-01 13:17:10.796508
1403  2023-12-01 13:17:10.842305
1404  2023-12-01 13:17:10.889446
1405  2023-12-01 13:17:10.934605
1406  2023-12-01 13:17:10.965453
1407  2023-12-01 13:17:11.013267
1408  2023-12-01 13:17:11.060552
1409  2023-12-01 13:17:11.092093
1410  2023-12-01 13:17:11.139340
1411  2023-12-01 13:17:11.172034
1412  2023-12-01 13:17:11.218475
1413  2023-12-01 13:17:11.264397
1414  2023-12-01 13:17:11.310230
1415  2023-12-01 13:17:11.340712
1416  2023-12-01 13:17:11.386943
1417  2023-12-01 13:17:11.433028
1418  2023-12-01 13:17:11.464908
1419  2023-12-01 13:17:11.511045
1420  2023-12-01 13:17:11.557506
1421  2023-12-01 13:17:11.588469
1422  2023-12-01 13:17:11.635230
1423  2023-12-01 13:17:11.681530
1424  2023-12-01 13:17:11.728251
1425  2023-12-01 13:17:11.758934
1426  2023-12-01 13:17:11.803811
1427  2023-12-01 13:17:11.850402
1428  2023-12-01 13:17:11.882022
1429  2023-12-01 13:17:11.928305
1430  2023-12-01 13:17:11.974737
1431  2023-12-01 13:17:12.006208
1432  2023-12-01 13:17:12.054199
1433  2023-12-01 13:17:12.098967
1434  2023-12-01 13:17:12.129481
1435  2023-12-01 13:17:12.176647
1436  2023-12-01 13:17:12.222099
1437  2023-12-01 13:17:12.268921
1438  2023-12-01 13:17:12.299782
1439  2023-12-01 13:17:12.347209
1440  2023-12-01 13:17:12.379101
1441  2023-12-01 13:17:12.424989
1442  2023-12-01 13:17:12.472040
1443  2023-12-01 13:17:12.518103
1444  2023-12-01 13:17:12.548385
1445  2023-12-01 13:17:12.595435
1446  2023-12-01 13:17:12.642395
1447  2023-12-01 13:17:12.674060
1448  2023-12-01 13:17:12.722466
1449  2023-12-01 13:17:12.769089
1450  2023-12-01 13:17:12.801412
1451  2023-12-01 13:17:12.850201
1452  2023-12-01 13:17:12.879124
1453  2023-12-01 13:17:12.924863
1454  2023-12-01 13:17:12.971277
1455  2023-12-01 13:17:13.017931
1456  2023-12-01 13:17:13.049206
1457  2023-12-01 13:17:13.095431
1458  2023-12-01 13:17:13.142305
1459  2023-12-01 13:17:13.173289
1460  2023-12-01 13:17:13.220409
1461  2023-12-01 13:17:13.267178
1462  2023-12-01 13:17:13.299053
1463  2023-12-01 13:17:13.346166
1464  2023-12-01 13:17:13.391490
1465  2023-12-01 13:17:13.423391
1466  2023-12-01 13:17:13.468996
1467  2023-12-01 13:17:13.515823
1468  2023-12-01 13:17:13.546740
1469  2023-12-01 13:17:13.592839
1470  2023-12-01 13:17:13.638187
1471  2023-12-01 13:17:13.685123
1472  2023-12-01 13:17:13.716218
1473  2023-12-01 13:17:13.763030
1474  2023-12-01 13:17:13.809724
1475  2023-12-01 13:17:13.840965
1476  2023-12-01 13:17:13.887979
1477  2023-12-01 13:17:13.934700
1478  2023-12-01 13:17:13.965764
1479  2023-12-01 13:17:14.011884
1480  2023-12-01 13:17:14.059080
1481  2023-12-01 13:17:14.090253
1482  2023-12-01 13:17:14.136721
1483  2023-12-01 13:17:14.182151
1484  2023-12-01 13:17:14.212983
1485  2023-12-01 13:17:14.260100
1486  2023-12-01 13:17:14.307093
1487  2023-12-01 13:17:14.337854
1488  2023-12-01 13:17:14.385707
1489  2023-12-01 13:17:14.432024
1490  2023-12-01 13:17:14.463417
1491  2023-12-01 13:17:14.508717
1492  2023-12-01 13:17:14.554706
1493  2023-12-01 13:17:14.601408
1494  2023-12-01 13:17:14.632095
1495  2023-12-01 13:17:14.678956
1496  2023-12-01 13:17:14.724582
1497  2023-12-01 13:17:14.756207
1498  2023-12-01 13:17:14.802004
1499  2023-12-01 13:17:14.848542
1500  2023-12-01 13:17:14.880506
1501  2023-12-01 13:17:14.928830
1502  2023-12-01 13:17:14.973245
1503  2023-12-01 13:17:15.018828
1504  2023-12-01 13:17:15.049638
1505  2023-12-01 13:17:15.096366
1506  2023-12-01 13:17:15.143664
1507  2023-12-01 13:17:15.174536
1508  2023-12-01 13:17:15.220578
1509  2023-12-01 13:17:15.266730
1510  2023-12-01 13:17:15.297691
1511  2023-12-01 13:17:15.344452
1512  2023-12-01 13:17:15.391238
1513  2023-12-01 13:17:15.422397
1514  2023-12-01 13:17:15.470619
1515  2023-12-01 13:17:15.516721
1516  2023-12-01 13:17:15.548310
1517  2023-12-01 13:17:15.594392
1518  2023-12-01 13:17:15.641939
1519  2023-12-01 13:17:15.672210
1520  2023-12-01 13:17:15.718188
1521  2023-12-01 13:17:15.765137
1522  2023-12-01 13:17:15.796936
1523  2023-12-01 13:17:15.844213
1524  2023-12-01 13:17:15.892337
1525  2023-12-01 13:17:15.924592
1526  2023-12-01 13:17:15.971213
1527  2023-12-01 13:17:16.018169
1528  2023-12-01 13:17:16.050031
1529  2023-12-01 13:17:16.094983
1530  2023-12-01 13:17:16.143042
1531  2023-12-01 13:17:16.172193
1532  2023-12-01 13:17:16.217716
1533  2023-12-01 13:17:16.263903
1534  2023-12-01 13:17:16.311214
1535  2023-12-01 13:17:16.341613
1536  2023-12-01 13:17:16.387735
1537  2023-12-01 13:17:16.435038
1538  2023-12-01 13:17:16.466362
1539  2023-12-01 13:17:16.512913
1540  2023-12-01 13:17:16.560799
1541  2023-12-01 13:17:16.591051
1542  2023-12-01 13:17:16.639038
1543  2023-12-01 13:17:16.684735
1544  2023-12-01 13:17:16.714897
1545  2023-12-01 13:17:16.761502
1546  2023-12-01 13:17:16.808423
1547  2023-12-01 13:17:16.838752
1548  2023-12-01 13:17:16.885924
1549  2023-12-01 13:17:16.931808
1550  2023-12-01 13:17:16.963222
1551  2023-12-01 13:17:17.009903
1552  2023-12-01 13:17:17.056416
1553  2023-12-01 13:17:17.088933
1554  2023-12-01 13:17:17.136848
1555  2023-12-01 13:17:17.182741
1556  2023-12-01 13:17:17.213419
1557  2023-12-01 13:17:17.260326
1558  2023-12-01 13:17:17.306906
1559  2023-12-01 13:17:17.352784
1560  2023-12-01 13:17:17.383687
1561  2023-12-01 13:17:17.431340
1562  2023-12-01 13:17:17.477750
1563  2023-12-01 13:17:17.509020
1564  2023-12-01 13:17:17.556470
1565  2023-12-01 13:17:17.587954
1566  2023-12-01 13:17:17.634655
1567  2023-12-01 13:17:17.682254
1568  2023-12-01 13:17:17.728226
1569  2023-12-01 13:17:17.759179
1570  2023-12-01 13:17:17.806744
1571  2023-12-01 13:17:17.851064
1572  2023-12-01 13:17:17.882145
1573  2023-12-01 13:17:17.929301
1574  2023-12-01 13:17:17.975878
1575  2023-12-01 13:17:18.006495
1576  2023-12-01 13:17:18.053085
1577  2023-12-01 13:17:18.100247
1578  2023-12-01 13:17:18.131248
1579  2023-12-01 13:17:18.178073
1580  2023-12-01 13:17:18.224256
1581  2023-12-01 13:17:18.256320
1582  2023-12-01 13:17:18.304228
1583  2023-12-01 13:17:18.350958
1584  2023-12-01 13:17:18.381475
1585  2023-12-01 13:17:18.429478
1586  2023-12-01 13:17:18.474379
1587  2023-12-01 13:17:18.505255
1588  2023-12-01 13:17:18.551752
1589  2023-12-01 13:17:18.597903
1590  2023-12-01 13:17:18.629148
1591  2023-12-01 13:17:18.675377
1592  2023-12-01 13:17:18.721771
1593  2023-12-01 13:17:18.768173
1594  2023-12-01 13:17:18.799845
1595  2023-12-01 13:17:18.847131
1596  2023-12-01 13:17:18.892871
1597  2023-12-01 13:17:18.924815
1598  2023-12-01 13:17:18.970276
1599  2023-12-01 13:17:19.016215
1600  2023-12-01 13:17:19.048031
1601  2023-12-01 13:17:19.094668
1602  2023-12-01 13:17:19.141231
1603  2023-12-01 13:17:19.172441
1604  2023-12-01 13:17:19.219609
1605  2023-12-01 13:17:19.266234
1606  2023-12-01 13:17:19.296726
1607  2023-12-01 13:17:19.343339
1608  2023-12-01 13:17:19.389898
1609  2023-12-01 13:17:19.435618
1610  2023-12-01 13:17:19.466155
1611  2023-12-01 13:17:19.513016
1612  2023-12-01 13:17:19.559469
1613  2023-12-01 13:17:19.590259
1614  2023-12-01 13:17:19.636456
1615  2023-12-01 13:17:19.682468
1616  2023-12-01 13:17:19.713192
1617  2023-12-01 13:17:19.758674
1618  2023-12-01 13:17:19.805814
1619  2023-12-01 13:17:19.852410
1620  2023-12-01 13:17:19.881511
1621  2023-12-01 13:17:19.927276
1622  2023-12-01 13:17:19.973862
1623  2023-12-01 13:17:20.005017
1624  2023-12-01 13:17:20.050669
1625  2023-12-01 13:17:20.097777
1626  2023-12-01 13:17:20.129489
1627  2023-12-01 13:17:20.175478
1628  2023-12-01 13:17:20.221779
1629  2023-12-01 13:17:20.269368
1630  2023-12-01 13:17:20.301540
1631  2023-12-01 13:17:20.349217
1632  2023-12-01 13:17:20.380488
1633  2023-12-01 13:17:20.426590
1634  2023-12-01 13:17:20.472778
1635  2023-12-01 13:17:20.519101
1636  2023-12-01 13:17:20.549863
1637  2023-12-01 13:17:20.597624
1638  2023-12-01 13:17:20.643260
1639  2023-12-01 13:17:20.674392
1640  2023-12-01 13:17:20.720225
1641  2023-12-01 13:17:20.767016
1642  2023-12-01 13:17:20.798353
1643  2023-12-01 13:17:20.846023
1644  2023-12-01 13:17:20.893171
1645  2023-12-01 13:17:20.927187
1646  2023-12-01 13:17:20.973340
1647  2023-12-01 13:17:21.004701
1648  2023-12-01 13:17:21.050722
1649  2023-12-01 13:17:21.098106
1650  2023-12-01 13:17:21.144362
1651  2023-12-01 13:17:21.174410
1652  2023-12-01 13:17:21.221386
1653  2023-12-01 13:17:21.266724
1654  2023-12-01 13:17:21.298715
1655  2023-12-01 13:17:21.345592
1656  2023-12-01 13:17:21.392096
1657  2023-12-01 13:17:21.423042
1658  2023-12-01 13:17:21.469999
1659  2023-12-01 13:17:21.516202
1660  2023-12-01 13:17:21.546077
1661  2023-12-01 13:17:21.592756
1662  2023-12-01 13:17:21.638007
1663  2023-12-01 13:17:21.684264
1664  2023-12-01 13:17:21.716396
1665  2023-12-01 13:17:21.762757
1666  2023-12-01 13:17:21.808974
1667  2023-12-01 13:17:21.840175
1668  2023-12-01 13:17:21.888693
1669  2023-12-01 13:17:21.935033
1670  2023-12-01 13:17:21.966005
1671  2023-12-01 13:17:22.011725
1672  2023-12-01 13:17:22.059484
1673  2023-12-01 13:17:22.088850
1674  2023-12-01 13:17:22.135824
1675  2023-12-01 13:17:22.182118
1676  2023-12-01 13:17:22.214676
1677  2023-12-01 13:17:22.260680
1678  2023-12-01 13:17:22.306210
1679  2023-12-01 13:17:22.352331
1680  2023-12-01 13:17:22.383233
1681  2023-12-01 13:17:22.431003
1682  2023-12-01 13:17:22.476749
1683  2023-12-01 13:17:22.507541
1684  2023-12-01 13:17:22.553442
1685  2023-12-01 13:17:22.599746
1686  2023-12-01 13:17:22.630268
1687  2023-12-01 13:17:22.676613
1688  2023-12-01 13:17:22.723995
1689  2023-12-01 13:17:22.755555
1690  2023-12-01 13:17:22.803254
1691  2023-12-01 13:17:22.850568
1692  2023-12-01 13:17:22.882131
1693  2023-12-01 13:17:22.928415
1694  2023-12-01 13:17:22.975719
1695  2023-12-01 13:17:23.006707
1696  2023-12-01 13:17:23.052381
1697  2023-12-01 13:17:23.099445
1698  2023-12-01 13:17:23.129718
1699  2023-12-01 13:17:23.176831
1700  2023-12-01 13:17:23.222930
1701  2023-12-01 13:17:23.269316
1702  2023-12-01 13:17:23.301111
1703  2023-12-01 13:17:23.348262
1704  2023-12-01 13:17:23.379132
1705  2023-12-01 13:17:23.425263
1706  2023-12-01 13:17:23.472198
1707  2023-12-01 13:17:23.504783
1708  2023-12-01 13:17:23.551446
1709  2023-12-01 13:17:23.598222
1710  2023-12-01 13:17:23.630252
1711  2023-12-01 13:17:23.677884
1712  2023-12-01 13:17:23.722760
1713  2023-12-01 13:17:23.755234
1714  2023-12-01 13:17:23.800083
1715  2023-12-01 13:17:23.847102
1716  2023-12-01 13:17:23.894000
1717  2023-12-01 13:17:23.924923
1718  2023-12-01 13:17:23.971765
1719  2023-12-01 13:17:24.017589
1720  2023-12-01 13:17:24.049392
1721  2023-12-01 13:17:24.094981
1722  2023-12-01 13:17:24.142764
1723  2023-12-01 13:17:24.173188
1724  2023-12-01 13:17:24.220960
1725  2023-12-01 13:17:24.269610
1726  2023-12-01 13:17:24.299910
1727  2023-12-01 13:17:24.347871
1728  2023-12-01 13:17:24.393036
1729  2023-12-01 13:17:24.424963
1730  2023-12-01 13:17:24.472576
1731  2023-12-01 13:17:24.518613
1732  2023-12-01 13:17:24.550009
1733  2023-12-01 13:17:24.596987
1734  2023-12-01 13:17:24.644299
1735  2023-12-01 13:17:24.674411
1736  2023-12-01 13:17:24.720407
1737  2023-12-01 13:17:24.766468
1738  2023-12-01 13:17:24.797826
1739  2023-12-01 13:17:24.843668
1740  2023-12-01 13:17:24.891385
1741  2023-12-01 13:17:24.923535
1742  2023-12-01 13:17:24.970966
1743  2023-12-01 13:17:25.016749
1744  2023-12-01 13:17:25.048065
1745  2023-12-01 13:17:25.095862
1746  2023-12-01 13:17:25.141396
1747  2023-12-01 13:17:25.172369
1748  2023-12-01 13:17:25.218409
1749  2023-12-01 13:17:25.265332
1750  2023-12-01 13:17:25.296430
1751  2023-12-01 13:17:25.343067
1752  2023-12-01 13:17:25.389258
1753  2023-12-01 13:17:25.436490
1754  2023-12-01 13:17:25.466439
1755  2023-12-01 13:17:25.513178
1756  2023-12-01 13:17:25.559294
1757  2023-12-01 13:17:25.590246
1758  2023-12-01 13:17:25.635666
1759  2023-12-01 13:17:25.681520
1760  2023-12-01 13:17:25.712462
1761  2023-12-01 13:17:25.760290
1762  2023-12-01 13:17:25.808028
1763  2023-12-01 13:17:25.839275
1764  2023-12-01 13:17:25.885202
1765  2023-12-01 13:17:25.930961
1766  2023-12-01 13:17:25.977766
1767  2023-12-01 13:17:26.007801
1768  2023-12-01 13:17:26.053907
1769  2023-12-01 13:17:26.101068
1770  2023-12-01 13:17:26.133317
1771  2023-12-01 13:17:26.181117
1772  2023-12-01 13:17:26.212451
1773  2023-12-01 13:17:26.259431
1774  2023-12-01 13:17:26.306023
1775  2023-12-01 13:17:26.337700
1776  2023-12-01 13:17:26.383531
1777  2023-12-01 13:17:26.430304
1778  2023-12-01 13:17:26.476709
1779  2023-12-01 13:17:26.508061
1780  2023-12-01 13:17:26.554347
1781  2023-12-01 13:17:26.602589
1782  2023-12-01 13:17:26.634818
1783  2023-12-01 13:17:26.680173
1784  2023-12-01 13:17:26.726910
1785  2023-12-01 13:17:26.758007
1786  2023-12-01 13:17:26.804506
1787  2023-12-01 13:17:26.850821
1788  2023-12-01 13:17:26.881477
1789  2023-12-01 13:17:26.928300
1790  2023-12-01 13:17:26.974272
1791  2023-12-01 13:17:27.005584
1792  2023-12-01 13:17:27.051727
1793  2023-12-01 13:17:27.098545
1794  2023-12-01 13:17:27.129773
1795  2023-12-01 13:17:27.175754
1796  2023-12-01 13:17:27.221757
1797  2023-12-01 13:17:27.269241
1798  2023-12-01 13:17:27.301474
1799  2023-12-01 13:17:27.348885
1800  2023-12-01 13:17:27.379223
1801  2023-12-01 13:17:27.425445
1802  2023-12-01 13:17:27.472044
1803  2023-12-01 13:17:27.517533
1804  2023-12-01 13:17:27.548062
1805  2023-12-01 13:17:27.597272
1806  2023-12-01 13:17:27.641268
1807  2023-12-01 13:17:27.673959
1808  2023-12-01 13:17:27.719009
1809  2023-12-01 13:17:27.765387
1810  2023-12-01 13:17:27.796288
1811  2023-12-01 13:17:27.843266
1812  2023-12-01 13:17:27.891269
1813  2023-12-01 13:17:27.921292
1814  2023-12-01 13:17:27.968270
1815  2023-12-01 13:17:28.014163
1816  2023-12-01 13:17:28.046267
1817  2023-12-01 13:17:28.092201
1818  2023-12-01 13:17:28.139241
1819  2023-12-01 13:17:28.187100
1820  2023-12-01 13:17:28.218188
1821  2023-12-01 13:17:28.266426
1822  2023-12-01 13:17:28.310341
1823  2023-12-01 13:17:28.340396
1824  2023-12-01 13:17:28.387236
1825  2023-12-01 13:17:28.434226
1826  2023-12-01 13:17:28.465310
1827  2023-12-01 13:17:28.510822
1828  2023-12-01 13:17:28.557397
1829  2023-12-01 13:17:28.588064
1830  2023-12-01 13:17:28.635128
1831  2023-12-01 13:17:28.681078
1832  2023-12-01 13:17:28.713688
1833  2023-12-01 13:17:28.759612
1834  2023-12-01 13:17:28.806233
1835  2023-12-01 13:17:28.838235
1836  2023-12-01 13:17:28.885322
1837  2023-12-01 13:17:28.931449
1838  2023-12-01 13:17:28.962261
1839  2023-12-01 13:17:29.007940
1840  2023-12-01 13:17:29.054135
1841  2023-12-01 13:17:29.100003
1842  2023-12-01 13:17:29.130369
1843  2023-12-01 13:17:29.177393
1844  2023-12-01 13:17:29.226332
1845  2023-12-01 13:17:29.257156
1846  2023-12-01 13:17:29.303500
1847  2023-12-01 13:17:29.349893
1848  2023-12-01 13:17:29.381187
1849  2023-12-01 13:17:29.427896
1850  2023-12-01 13:17:29.474498
1851  2023-12-01 13:17:29.505225
1852  2023-12-01 13:17:29.551356
1853  2023-12-01 13:17:29.597508
1854  2023-12-01 13:17:29.643712
1855  2023-12-01 13:17:29.674495
1856  2023-12-01 13:17:29.720967
1857  2023-12-01 13:17:29.769261
1858  2023-12-01 13:17:29.799366
1859  2023-12-01 13:17:29.845113
1860  2023-12-01 13:17:29.892158
1861  2023-12-01 13:17:29.924091
1862  2023-12-01 13:17:29.971258
1863  2023-12-01 13:17:30.018863
1864  2023-12-01 13:17:30.050084
1865  2023-12-01 13:17:30.095305
1866  2023-12-01 13:17:30.142339
1867  2023-12-01 13:17:30.173605
1868  2023-12-01 13:17:30.221103
1869  2023-12-01 13:17:30.267460
1870  2023-12-01 13:17:30.298600
1871  2023-12-01 13:17:30.345360
1872  2023-12-01 13:17:30.393550
1873  2023-12-01 13:17:30.422518
1874  2023-12-01 13:17:30.468304
1875  2023-12-01 13:17:30.514755
1876  2023-12-01 13:17:30.561132
1877  2023-12-01 13:17:30.592443
1878  2023-12-01 13:17:30.639470
1879  2023-12-01 13:17:30.670655
1880  2023-12-01 13:17:30.717387
1881  2023-12-01 13:17:30.764145
1882  2023-12-01 13:17:30.811045
1883  2023-12-01 13:17:30.842326
1884  2023-12-01 13:17:30.889252
1885  2023-12-01 13:17:30.934551
1886  2023-12-01 13:17:30.965369
1887  2023-12-01 13:17:31.011375
1888  2023-12-01 13:17:31.057231
1889  2023-12-01 13:17:31.089303
1890  2023-12-01 13:17:31.135739
1891  2023-12-01 13:17:31.181266
1892  2023-12-01 13:17:31.226976
1893  2023-12-01 13:17:31.258816
1894  2023-12-01 13:17:31.305815
1895  2023-12-01 13:17:31.352438
1896  2023-12-01 13:17:31.383194
1897  2023-12-01 13:17:31.429853
1898  2023-12-01 13:17:31.477573
1899  2023-12-01 13:17:31.507281
1900  2023-12-01 13:17:31.553164
1901  2023-12-01 13:17:31.601266
1902  2023-12-01 13:17:31.632482
1903  2023-12-01 13:17:31.679410
1904  2023-12-01 13:17:31.725969
1905  2023-12-01 13:17:31.757912
1906  2023-12-01 13:17:31.803810
1907  2023-12-01 13:17:31.851954
1908  2023-12-01 13:17:31.880679
1909  2023-12-01 13:17:31.927666
1910  2023-12-01 13:17:31.973778
1911  2023-12-01 13:17:32.005430
1912  2023-12-01 13:17:32.051247
1913  2023-12-01 13:17:32.097695
1914  2023-12-01 13:17:32.130246
1915  2023-12-01 13:17:32.176617
1916  2023-12-01 13:17:32.222915
1917  2023-12-01 13:17:32.254328
1918  2023-12-01 13:17:32.301077
1919  2023-12-01 13:17:32.347041
1920  2023-12-01 13:17:32.393987
1921  2023-12-01 13:17:32.426030
1922  2023-12-01 13:17:32.471747
1923  2023-12-01 13:17:32.520465
1924  2023-12-01 13:17:32.550438
1925  2023-12-01 13:17:32.596421
1926  2023-12-01 13:17:32.645220
1927  2023-12-01 13:17:32.675338
1928  2023-12-01 13:17:32.720530
1929  2023-12-01 13:17:32.766516
1930  2023-12-01 13:17:32.797421
1931  2023-12-01 13:17:32.845037
1932  2023-12-01 13:17:32.892886
1933  2023-12-01 13:17:32.923482
1934  2023-12-01 13:17:32.970785
1935  2023-12-01 13:17:33.018265
1936  2023-12-01 13:17:33.050100
1937  2023-12-01 13:17:33.095909
1938  2023-12-01 13:17:33.141266
1939  2023-12-01 13:17:33.172227
1940  2023-12-01 13:17:33.220272
1941  2023-12-01 13:17:33.266239
1942  2023-12-01 13:17:33.296305
1943  2023-12-01 13:17:33.342182
1944  2023-12-01 13:17:33.389265
1945  2023-12-01 13:17:33.435177
1946  2023-12-01 13:17:33.466079
1947  2023-12-01 13:17:33.513123
1948  2023-12-01 13:17:33.561156
1949  2023-12-01 13:17:33.593091
1950  2023-12-01 13:17:33.639019
1951  2023-12-01 13:17:33.686610
1952  2023-12-01 13:17:33.717039
1953  2023-12-01 13:17:33.764095
1954  2023-12-01 13:17:33.812023
1955  2023-12-01 13:17:33.841656
1956  2023-12-01 13:17:33.887689
1957  2023-12-01 13:17:33.933128
1958  2023-12-01 13:17:33.964452
1959  2023-12-01 13:17:34.010763
1960  2023-12-01 13:17:34.056258
1961  2023-12-01 13:17:34.103186
1962  2023-12-01 13:17:34.134808
1963  2023-12-01 13:17:34.180492
1964  2023-12-01 13:17:34.212494
1965  2023-12-01 13:17:34.259702
1966  2023-12-01 13:17:34.305267
1967  2023-12-01 13:17:34.351484
1968  2023-12-01 13:17:34.382347
1969  2023-12-01 13:17:34.428537
1970  2023-12-01 13:17:34.475226
1971  2023-12-01 13:17:34.506731
1972  2023-12-01 13:17:34.552468
1973  2023-12-01 13:17:34.598380
1974  2023-12-01 13:17:34.629328
1975  2023-12-01 13:17:34.674872
1976  2023-12-01 13:17:34.721004
1977  2023-12-01 13:17:34.768979
1978  2023-12-01 13:17:34.799043
1979  2023-12-01 13:17:34.846035
1980  2023-12-01 13:17:34.891769
1981  2023-12-01 13:17:34.922739
1982  2023-12-01 13:17:34.970624
1983  2023-12-01 13:17:35.018265
1984  2023-12-01 13:17:35.050040
1985  2023-12-01 13:17:35.095096
1986  2023-12-01 13:17:35.140429
1987  2023-12-01 13:17:35.171150
1988  2023-12-01 13:17:35.217452
1989  2023-12-01 13:17:35.264860
1990  2023-12-01 13:17:35.311124
1991  2023-12-01 13:17:35.340934
1992  2023-12-01 13:17:35.387503
1993  2023-12-01 13:17:35.433431
1994  2023-12-01 13:17:35.465315
1995  2023-12-01 13:17:35.512226
1996  2023-12-01 13:17:35.559952
1997  2023-12-01 13:17:35.591588
1998  2023-12-01 13:17:35.635422
1999  2023-12-01 13:17:35.682254
2000  2023-12-01 13:17:35.713038
2001  2023-12-01 13:17:35.761244
2002  2023-12-01 13:17:35.806201
2003  2023-12-01 13:17:35.837679
2004  2023-12-01 13:17:35.883455
2005  2023-12-01 13:17:35.930753
2006  2023-12-01 13:17:35.976907
2007  2023-12-01 13:17:36.008210
2008  2023-12-01 13:17:36.056438
2009  2023-12-01 13:17:36.100781
2010  2023-12-01 13:17:36.131917
2011  2023-12-01 13:17:36.179244
2012  2023-12-01 13:17:36.225819
2013  2023-12-01 13:17:36.256255
2014  2023-12-01 13:17:36.304072
2015  2023-12-01 13:17:36.350013
2016  2023-12-01 13:17:36.380802
2017  2023-12-01 13:17:36.426960
2018  2023-12-01 13:17:36.473981
2019  2023-12-01 13:17:36.505064
2020  2023-12-01 13:17:36.552569
2021  2023-12-01 13:17:36.599783
2022  2023-12-01 13:17:36.629513
2023  2023-12-01 13:17:36.676303
2024  2023-12-01 13:17:36.723432
2025  2023-12-01 13:17:36.755314
2026  2023-12-01 13:17:36.802221
2027  2023-12-01 13:17:36.847327
2028  2023-12-01 13:17:36.893423
2029  2023-12-01 13:17:36.923929
2030  2023-12-01 13:17:36.969876
2031  2023-12-01 13:17:37.017050
2032  2023-12-01 13:17:37.047385
2033  2023-12-01 13:17:37.094639
2034  2023-12-01 13:17:37.142341
2035  2023-12-01 13:17:37.174277
2036  2023-12-01 13:17:37.220255
2037  2023-12-01 13:17:37.267013
2038  2023-12-01 13:17:37.297768
2039  2023-12-01 13:17:37.345827
2040  2023-12-01 13:17:37.391439
2041  2023-12-01 13:17:37.421972
2042  2023-12-01 13:17:37.469384
2043  2023-12-01 13:17:37.514873
2044  2023-12-01 13:17:37.545974
2045  2023-12-01 13:17:37.593577
2046  2023-12-01 13:17:37.643235
2047  2023-12-01 13:17:37.671394
2048  2023-12-01 13:17:37.717481
2049  2023-12-01 13:17:37.763469
2050  2023-12-01 13:17:37.811269
2051  2023-12-01 13:17:37.842038
2052  2023-12-01 13:17:37.887301
2053  2023-12-01 13:17:37.933604
2054  2023-12-01 13:17:37.964847
2055  2023-12-01 13:17:38.011242
2056  2023-12-01 13:17:38.057659
2057  2023-12-01 13:17:38.088662
2058  2023-12-01 13:17:38.134874
2059  2023-12-01 13:17:38.182575
2060  2023-12-01 13:17:38.214483
2061  2023-12-01 13:17:38.259298
2062  2023-12-01 13:17:38.305528
2063  2023-12-01 13:17:38.352479
2064  2023-12-01 13:17:38.383530
2065  2023-12-01 13:17:38.430060
2066  2023-12-01 13:17:38.476116
2067  2023-12-01 13:17:38.507097
2068  2023-12-01 13:17:38.553531
2069  2023-12-01 13:17:38.600764
2070  2023-12-01 13:17:38.632851
2071  2023-12-01 13:17:38.680705
2072  2023-12-01 13:17:38.727725
2073  2023-12-01 13:17:38.757923
2074  2023-12-01 13:17:38.806228
2075  2023-12-01 13:17:38.850319
2076  2023-12-01 13:17:38.881460
2077  2023-12-01 13:17:38.927324
2078  2023-12-01 13:17:38.973377
2079  2023-12-01 13:17:39.003894
2080  2023-12-01 13:17:39.051960
2081  2023-12-01 13:17:39.097570
2082  2023-12-01 13:17:39.144201
2083  2023-12-01 13:17:39.175432
2084  2023-12-01 13:17:39.221776
2085  2023-12-01 13:17:39.269229
2086  2023-12-01 13:17:39.300992
2087  2023-12-01 13:17:39.346521
2088  2023-12-01 13:17:39.392391
2089  2023-12-01 13:17:39.422463
2090  2023-12-01 13:17:39.468426
2091  2023-12-01 13:17:39.515025
2092  2023-12-01 13:17:39.546837
2093  2023-12-01 13:17:39.593421
2094  2023-12-01 13:17:39.640305
2095  2023-12-01 13:17:39.685770
2096  2023-12-01 13:17:39.718791
2097  2023-12-01 13:17:39.764892
2098  2023-12-01 13:17:39.810855
2099  2023-12-01 13:17:39.841298
2100  2023-12-01 13:17:39.888233
2101  2023-12-01 13:17:39.934698
2102  2023-12-01 13:17:39.965403
2103  2023-12-01 13:17:40.011383
2104  2023-12-01 13:17:40.057259
2105  2023-12-01 13:17:40.089134
2106  2023-12-01 13:17:40.135083
2107  2023-12-01 13:17:40.181652
2108  2023-12-01 13:17:40.212295
2109  2023-12-01 13:17:40.261503
2110  2023-12-01 13:17:40.307292
2111  2023-12-01 13:17:40.337830
2112  2023-12-01 13:17:40.384655
2113  2023-12-01 13:17:40.429621
2114  2023-12-01 13:17:40.475699
2115  2023-12-01 13:17:40.506975
2116  2023-12-01 13:17:40.553060
2117  2023-12-01 13:17:40.599251
2118  2023-12-01 13:17:40.631255
2119  2023-12-01 13:17:40.680842
2120  2023-12-01 13:17:40.725275
2121  2023-12-01 13:17:40.756209
2122  2023-12-01 13:17:40.802369
2123  2023-12-01 13:17:40.849558
2124  2023-12-01 13:17:40.881348
2125  2023-12-01 13:17:40.927288
2126  2023-12-01 13:17:40.973553
2127  2023-12-01 13:17:41.005275
2128  2023-12-01 13:17:41.052394
2129  2023-12-01 13:17:41.099317
2130  2023-12-01 13:17:41.128918
2131  2023-12-01 13:17:41.175896
2132  2023-12-01 13:17:41.221139
2133  2023-12-01 13:17:41.269441
2134  2023-12-01 13:17:41.300432
2135  2023-12-01 13:17:41.345826
2136  2023-12-01 13:17:41.392423
2137  2023-12-01 13:17:41.422955
2138  2023-12-01 13:17:41.469986
2139  2023-12-01 13:17:41.516128
2140  2023-12-01 13:17:41.547268
2141  2023-12-01 13:17:41.594029
2142  2023-12-01 13:17:41.640366
2143  2023-12-01 13:17:41.671769
2144  2023-12-01 13:17:41.719442
2145  2023-12-01 13:17:41.766810
2146  2023-12-01 13:17:41.797624
2147  2023-12-01 13:17:41.844539
2148  2023-12-01 13:17:41.892258
2149  2023-12-01 13:17:41.922606
2150  2023-12-01 13:17:41.969097
2151  2023-12-01 13:17:42.016354
2152  2023-12-01 13:17:42.048263
2153  2023-12-01 13:17:42.094274
2154  2023-12-01 13:17:42.139649
2155  2023-12-01 13:17:42.171485
2156  2023-12-01 13:17:42.217419
2157  2023-12-01 13:17:42.265253
2158  2023-12-01 13:17:42.296523
2159  2023-12-01 13:17:42.343219
2160  2023-12-01 13:17:42.390434
2161  2023-12-01 13:17:42.421307
2162  2023-12-01 13:17:42.469133
2163  2023-12-01 13:17:42.517294
2164  2023-12-01 13:17:42.549361
2165  2023-12-01 13:17:42.593008
2166  2023-12-01 13:17:42.639073
2167  2023-12-01 13:17:42.684816
2168  2023-12-01 13:17:42.715420
2169  2023-12-01 13:17:42.762117
2170  2023-12-01 13:17:42.808052
2171  2023-12-01 13:17:42.839261
2172  2023-12-01 13:17:42.886146
2173  2023-12-01 13:17:42.933028
2174  2023-12-01 13:17:42.965782
2175  2023-12-01 13:17:43.012258
2176  2023-12-01 13:17:43.059800
2177  2023-12-01 13:17:43.089114
2178  2023-12-01 13:17:43.134967
2179  2023-12-01 13:17:43.181938
2180  2023-12-01 13:17:43.213472
2181  2023-12-01 13:17:43.260266
2182  2023-12-01 13:17:43.306818
2183  2023-12-01 13:17:43.337878
2184  2023-12-01 13:17:43.384558
2185  2023-12-01 13:17:43.430524
2186  2023-12-01 13:17:43.462234
2187  2023-12-01 13:17:43.510237
2188  2023-12-01 13:17:43.556276
2189  2023-12-01 13:17:43.603417
2190  2023-12-01 13:17:43.633494
2191  2023-12-01 13:17:43.680846
2192  2023-12-01 13:17:43.712462
2193  2023-12-01 13:17:43.758057
2194  2023-12-01 13:17:43.804388
2195  2023-12-01 13:17:43.850625
2196  2023-12-01 13:17:43.881033
2197  2023-12-01 13:17:43.928628
2198  2023-12-01 13:17:43.974922
2199  2023-12-01 13:17:44.007242
2200  2023-12-01 13:17:44.054217
2201  2023-12-01 13:17:44.099835
2202  2023-12-01 13:17:44.131928
2203  2023-12-01 13:17:44.177024
2204  2023-12-01 13:17:44.223839
2205  2023-12-01 13:17:44.254400
2206  2023-12-01 13:17:44.300243
2207  2023-12-01 13:17:44.346504
2208  2023-12-01 13:17:44.393049
2209  2023-12-01 13:17:44.424464
2210  2023-12-01 13:17:44.471487
2211  2023-12-01 13:17:44.517531
2212  2023-12-01 13:17:44.549709
2213  2023-12-01 13:17:44.595291
2214  2023-12-01 13:17:44.644300
2215  2023-12-01 13:17:44.675264
2216  2023-12-01 13:17:44.723994
2217  2023-12-01 13:17:44.754999
2218  2023-12-01 13:17:44.799562
2219  2023-12-01 13:17:44.845601
2220  2023-12-01 13:17:44.892281
2221  2023-12-01 13:17:44.923278
2222  2023-12-01 13:17:44.969628
2223  2023-12-01 13:17:45.016781
2224  2023-12-01 13:17:45.049002
2225  2023-12-01 13:17:45.094397
2226  2023-12-01 13:17:45.141272
2227  2023-12-01 13:17:45.172205
2228  2023-12-01 13:17:45.220037
2229  2023-12-01 13:17:45.264422
2230  2023-12-01 13:17:45.297455
2231  2023-12-01 13:17:45.342415
2232  2023-12-01 13:17:45.388987
2233  2023-12-01 13:17:45.435008
2234  2023-12-01 13:17:45.466170
2235  2023-12-01 13:17:45.511415
2236  2023-12-01 13:17:45.558003
2237  2023-12-01 13:17:45.589008
2238  2023-12-01 13:17:45.636284
2239  2023-12-01 13:17:45.682951
2240  2023-12-01 13:17:45.715589
2241  2023-12-01 13:17:45.760427
2242  2023-12-01 13:17:45.807689
2243  2023-12-01 13:17:45.837770
2244  2023-12-01 13:17:45.883890
2245  2023-12-01 13:17:45.931001
2246  2023-12-01 13:17:45.977306
2247  2023-12-01 13:17:46.009224
2248  2023-12-01 13:17:46.054698
2249  2023-12-01 13:17:46.100975
2250  2023-12-01 13:17:46.131545
2251  2023-12-01 13:17:46.179984
2252  2023-12-01 13:17:46.227511
2253  2023-12-01 13:17:46.259364
2254  2023-12-01 13:17:46.307431
2255  2023-12-01 13:17:46.351454
2256  2023-12-01 13:17:46.382359
2257  2023-12-01 13:17:46.428483
2258  2023-12-01 13:17:46.475217
2259  2023-12-01 13:17:46.506541
2260  2023-12-01 13:17:46.554171
2261  2023-12-01 13:17:46.600607
2262  2023-12-01 13:17:46.631446
2263  2023-12-01 13:17:46.678075
2264  2023-12-01 13:17:46.724882
2265  2023-12-01 13:17:46.756781
2266  2023-12-01 13:17:46.804258
2267  2023-12-01 13:17:46.851299
2268  2023-12-01 13:17:46.881317
2269  2023-12-01 13:17:46.928296
2270  2023-12-01 13:17:46.974806
2271  2023-12-01 13:17:47.005369
2272  2023-12-01 13:17:47.051994
2273  2023-12-01 13:17:47.097315
2274  2023-12-01 13:17:47.143260
2275  2023-12-01 13:17:47.174168
2276  2023-12-01 13:17:47.221508
2277  2023-12-01 13:17:47.267553
2278  2023-12-01 13:17:47.299176
2279  2023-12-01 13:17:47.347060
2280  2023-12-01 13:17:47.391616
2281  2023-12-01 13:17:47.422785
2282  2023-12-01 13:17:47.469464
2283  2023-12-01 13:17:47.517037
2284  2023-12-01 13:17:47.548027
2285  2023-12-01 13:17:47.594877
2286  2023-12-01 13:17:47.641688
2287  2023-12-01 13:17:47.673250
2288  2023-12-01 13:17:47.720243
2289  2023-12-01 13:17:47.766762
2290  2023-12-01 13:17:47.798135
2291  2023-12-01 13:17:47.845387
2292  2023-12-01 13:17:47.890249
2293  2023-12-01 13:17:47.922150
2294  2023-12-01 13:17:47.970395
2295  2023-12-01 13:17:48.015412
2296  2023-12-01 13:17:48.047140
2297  2023-12-01 13:17:48.093538
2298  2023-12-01 13:17:48.139548
2299  2023-12-01 13:17:48.172107
2300  2023-12-01 13:17:48.218439
2301  2023-12-01 13:17:48.265225
2302  2023-12-01 13:17:48.296477
2303  2023-12-01 13:17:48.343567
2304  2023-12-01 13:17:48.389441
2305  2023-12-01 13:17:48.420729
2306  2023-12-01 13:17:48.470464
2307  2023-12-01 13:17:48.516087
2308  2023-12-01 13:17:48.548649
2309  2023-12-01 13:17:48.596967
2310  2023-12-01 13:17:48.642319
2311  2023-12-01 13:17:48.673834
2312  2023-12-01 13:17:48.721388
2313  2023-12-01 13:17:48.767265
2314  2023-12-01 13:17:48.798129
2315  2023-12-01 13:17:48.844373
2316  2023-12-01 13:17:48.890913
2317  2023-12-01 13:17:48.921655
2318  2023-12-01 13:17:48.967226
2319  2023-12-01 13:17:49.014574
2320  2023-12-01 13:17:49.060730
2321  2023-12-01 13:17:49.092181
2322  2023-12-01 13:17:49.139702
2323  2023-12-01 13:17:49.171396
2324  2023-12-01 13:17:49.217440
2325  2023-12-01 13:17:49.266241
2326  2023-12-01 13:17:49.298441
2327  2023-12-01 13:17:49.342875
2328  2023-12-01 13:17:49.390379
2329  2023-12-01 13:17:49.421201
2330  2023-12-01 13:17:49.467971
2331  2023-12-01 13:17:49.513220
2332  2023-12-01 13:17:49.559277
2333  2023-12-01 13:17:49.589592
2334  2023-12-01 13:17:49.637484
2335  2023-12-01 13:17:49.682530
2336  2023-12-01 13:17:49.713264
2337  2023-12-01 13:17:49.758872
2338  2023-12-01 13:17:49.805486
2339  2023-12-01 13:17:49.837245
2340  2023-12-01 13:17:49.883819
2341  2023-12-01 13:17:49.930592
2342  2023-12-01 13:17:49.977035
2343  2023-12-01 13:17:50.008228
2344  2023-12-01 13:17:50.055382
2345  2023-12-01 13:17:50.087385
2346  2023-12-01 13:17:50.133124
2347  2023-12-01 13:17:50.181307
2348  2023-12-01 13:17:50.226098
2349  2023-12-01 13:17:50.257226
2350  2023-12-01 13:17:50.306256
2351  2023-12-01 13:17:50.352482
2352  2023-12-01 13:17:50.384798
2353  2023-12-01 13:17:50.429132
2354  2023-12-01 13:17:50.474886
2355  2023-12-01 13:17:50.505908
2356  2023-12-01 13:17:50.552453
2357  2023-12-01 13:17:50.600533
2358  2023-12-01 13:17:50.630360
2359  2023-12-01 13:17:50.677339
2360  2023-12-01 13:17:50.723692
2361  2023-12-01 13:17:50.755372
2362  2023-12-01 13:17:50.802500
2363  2023-12-01 13:17:50.849073
2364  2023-12-01 13:17:50.880702
2365  2023-12-01 13:17:50.925461
2366  2023-12-01 13:17:50.971585
2367  2023-12-01 13:17:51.017425
2368  2023-12-01 13:17:51.048525
2369  2023-12-01 13:17:51.094762
2370  2023-12-01 13:17:51.142225
2371  2023-12-01 13:17:51.173268
2372  2023-12-01 13:17:51.219429
2373  2023-12-01 13:17:51.266222
2374  2023-12-01 13:17:51.299442
2375  2023-12-01 13:17:51.345438
2376  2023-12-01 13:17:51.390122
2377  2023-12-01 13:17:51.421331
2378  2023-12-01 13:17:51.469409
2379  2023-12-01 13:17:51.516497
2380  2023-12-01 13:17:51.547246
2381  2023-12-01 13:17:51.594448
2382  2023-12-01 13:17:51.640971
2383  2023-12-01 13:17:51.672231
2384  2023-12-01 13:17:51.718717
2385  2023-12-01 13:17:51.766490
2386  2023-12-01 13:17:51.798372
2387  2023-12-01 13:17:51.845236
2388  2023-12-01 13:17:51.892136
2389  2023-12-01 13:17:51.923370
2390  2023-12-01 13:17:51.974307
2391  2023-12-01 13:17:52.019250
2392  2023-12-01 13:17:52.049529
2393  2023-12-01 13:17:52.096332
2394  2023-12-01 13:17:52.141574
2395  2023-12-01 13:17:52.172679
2396  2023-12-01 13:17:52.219130
2397  2023-12-01 13:17:52.265918
2398  2023-12-01 13:17:52.297062
2399  2023-12-01 13:17:52.344160
2400  2023-12-01 13:17:52.391249
2401  2023-12-01 13:17:52.421742
2402  2023-12-01 13:17:52.468085
2403  2023-12-01 13:17:52.514054
2404  2023-12-01 13:17:52.547026
2405  2023-12-01 13:17:52.593030
2406  2023-12-01 13:17:52.641203
2407  2023-12-01 13:17:52.672897
2408  2023-12-01 13:17:52.720223
2409  2023-12-01 13:17:52.764033
2410  2023-12-01 13:17:52.809782
2411  2023-12-01 13:17:52.841364
2412  2023-12-01 13:17:52.887740
2413  2023-12-01 13:17:52.934126
2414  2023-12-01 13:17:52.965269
2415  2023-12-01 13:17:53.011916
2416  2023-12-01 13:17:53.059474
2417  2023-12-01 13:17:53.089060
2418  2023-12-01 13:17:53.138854
2419  2023-12-01 13:17:53.183785
2420  2023-12-01 13:17:53.215810
2421  2023-12-01 13:17:53.263836
2422  2023-12-01 13:17:53.308856
2423  2023-12-01 13:17:53.339615
2424  2023-12-01 13:17:53.386005
2425  2023-12-01 13:17:53.432355
2426  2023-12-01 13:17:53.464533
2427  2023-12-01 13:17:53.510942
2428  2023-12-01 13:17:53.557392
2429  2023-12-01 13:17:53.588979
2430  2023-12-01 13:17:53.635964
2431  2023-12-01 13:17:53.682233
2432  2023-12-01 13:17:53.713988
2433  2023-12-01 13:17:53.760541
2434  2023-12-01 13:17:53.808448
2435  2023-12-01 13:17:53.839895
2436  2023-12-01 13:17:53.883899
2437  2023-12-01 13:17:53.930634
2438  2023-12-01 13:17:53.962697
2439  2023-12-01 13:17:54.007903
2440  2023-12-01 13:17:54.054703
2441  2023-12-01 13:17:54.100377
2442  2023-12-01 13:17:54.131421
2443  2023-12-01 13:17:54.181633
2444  2023-12-01 13:17:54.226098
2445  2023-12-01 13:17:54.257516
2446  2023-12-01 13:17:54.304796
2447  2023-12-01 13:17:54.350849
2448  2023-12-01 13:17:54.384260
2449  2023-12-01 13:17:54.428398
2450  2023-12-01 13:17:54.475412
2451  2023-12-01 13:17:54.505781
2452  2023-12-01 13:17:54.552056
2453  2023-12-01 13:17:54.598618
2454  2023-12-01 13:17:54.629631
2455  2023-12-01 13:17:54.676962
2456  2023-12-01 13:17:54.723028
2457  2023-12-01 13:17:54.768639
2458  2023-12-01 13:17:54.800691
2459  2023-12-01 13:17:54.848524
2460  2023-12-01 13:17:54.879936
2461  2023-12-01 13:17:54.924850
2462  2023-12-01 13:17:54.971440
2463  2023-12-01 13:17:55.018127
2464  2023-12-01 13:17:55.049838
2465  2023-12-01 13:17:55.095834
2466  2023-12-01 13:17:55.142985
2467  2023-12-01 13:17:55.174405
2468  2023-12-01 13:17:55.220826
2469  2023-12-01 13:17:55.267196
2470  2023-12-01 13:17:55.298365
2471  2023-12-01 13:17:55.344916
2472  2023-12-01 13:17:55.391230
2473  2023-12-01 13:17:55.423231
2474  2023-12-01 13:17:55.470780
2475  2023-12-01 13:17:55.518625
2476  2023-12-01 13:17:55.547123
2477  2023-12-01 13:17:55.593929
2478  2023-12-01 13:17:55.640055
2479  2023-12-01 13:17:55.671405
2480  2023-12-01 13:17:55.717749
2481  2023-12-01 13:17:55.764420
2482  2023-12-01 13:17:55.812736
2483  2023-12-01 13:17:55.843790
2484  2023-12-01 13:17:55.890289
2485  2023-12-01 13:17:55.936034
2486  2023-12-01 13:17:55.967731
2487  2023-12-01 13:17:56.014280
2488  2023-12-01 13:17:56.059604
2489  2023-12-01 13:17:56.089942
2490  2023-12-01 13:17:56.136481
2491  2023-12-01 13:17:56.182547
2492  2023-12-01 13:17:56.213834
2493  2023-12-01 13:17:56.260698
2494  2023-12-01 13:17:56.306672
2495  2023-12-01 13:17:56.339010
2496  2023-12-01 13:17:56.383706
2497  2023-12-01 13:17:56.430535
2498  2023-12-01 13:17:56.476190
2499  2023-12-01 13:17:56.508095
2500  2023-12-01 13:17:56.554753
2501  2023-12-01 13:17:56.601492
2502  2023-12-01 13:17:56.631984
2503  2023-12-01 13:17:56.678059
2504  2023-12-01 13:17:56.724957
2505  2023-12-01 13:17:56.756135
2506  2023-12-01 13:17:56.802772
2507  2023-12-01 13:17:56.849963
2508  2023-12-01 13:17:56.880758
2509  2023-12-01 13:17:56.929356
2510  2023-12-01 13:17:56.976242
2511  2023-12-01 13:17:57.008648
2512  2023-12-01 13:17:57.053707
2513  2023-12-01 13:17:57.099575
2514  2023-12-01 13:17:57.130734
2515  2023-12-01 13:17:57.177643
2516  2023-12-01 13:17:57.223906
2517  2023-12-01 13:17:57.254524
2518  2023-12-01 13:17:57.300620
2519  2023-12-01 13:17:57.347206
2520  2023-12-01 13:17:57.394481
2521  2023-12-01 13:17:57.425727
2522  2023-12-01 13:17:57.472450
2523  2023-12-01 13:17:57.518393
2524  2023-12-01 13:17:57.550079
2525  2023-12-01 13:17:57.597492
2526  2023-12-01 13:17:57.643252
2527  2023-12-01 13:17:57.674368
2528  2023-12-01 13:17:57.719984
2529  2023-12-01 13:17:57.766524
2530  2023-12-01 13:17:57.797498
2531  2023-12-01 13:17:57.842914
2532  2023-12-01 13:17:57.890214
2533  2023-12-01 13:17:57.921898
2534  2023-12-01 13:17:57.969892
2535  2023-12-01 13:17:58.014198
2536  2023-12-01 13:17:58.061680
2537  2023-12-01 13:17:58.091830
2538  2023-12-01 13:17:58.138019
2539  2023-12-01 13:17:58.185066
2540  2023-12-01 13:17:58.215604
2541  2023-12-01 13:17:58.262486
2542  2023-12-01 13:17:58.308954
2543  2023-12-01 13:17:58.340055
2544  2023-12-01 13:17:58.387680
2545  2023-12-01 13:17:58.433512
2546  2023-12-01 13:17:58.463965
2547  2023-12-01 13:17:58.512090
2548  2023-12-01 13:17:58.557753
2549  2023-12-01 13:17:58.589978
2550  2023-12-01 13:17:58.635341
2551  2023-12-01 13:17:58.682270
2552  2023-12-01 13:17:58.713381
2553  2023-12-01 13:17:58.759511
2554  2023-12-01 13:17:58.805842
2555  2023-12-01 13:17:58.852372
2556  2023-12-01 13:17:58.883300
2557  2023-12-01 13:17:58.929433
2558  2023-12-01 13:17:58.976762
2559  2023-12-01 13:17:59.009547
2560  2023-12-01 13:17:59.056729
2561  2023-12-01 13:17:59.102842
2562  2023-12-01 13:17:59.134569
2563  2023-12-01 13:17:59.178355
2564  2023-12-01 13:17:59.224096
2565  2023-12-01 13:17:59.254632
2566  2023-12-01 13:17:59.301523
2567  2023-12-01 13:17:59.348259
2568  2023-12-01 13:17:59.379984
2569  2023-12-01 13:17:59.426052
2570  2023-12-01 13:17:59.473897
2571  2023-12-01 13:17:59.505528
2572  2023-12-01 13:17:59.551673
2573  2023-12-01 13:17:59.600966
2574  2023-12-01 13:17:59.630344
2575  2023-12-01 13:17:59.677630
2576  2023-12-01 13:17:59.724965
2577  2023-12-01 13:17:59.756578
2578  2023-12-01 13:17:59.805394
2579  2023-12-01 13:17:59.849949
2580  2023-12-01 13:17:59.880914
2581  2023-12-01 13:17:59.927637
2582  2023-12-01 13:17:59.973815
2583  2023-12-01 13:18:00.004803
2584  2023-12-01 13:18:00.051212
2585  2023-12-01 13:18:00.096746
2586  2023-12-01 13:18:00.143176
2587  2023-12-01 13:18:00.173564
2588  2023-12-01 13:18:00.220161
2589  2023-12-01 13:18:00.266604
2590  2023-12-01 13:18:00.298170
2591  2023-12-01 13:18:00.344884
2592  2023-12-01 13:18:00.391948
2593  2023-12-01 13:18:00.422525
2594  2023-12-01 13:18:00.468805
2595  2023-12-01 13:18:00.515410
2596  2023-12-01 13:18:00.547287
2597  2023-12-01 13:18:00.594144
2598  2023-12-01 13:18:00.641096
2599  2023-12-01 13:18:00.672730
2600  2023-12-01 13:18:00.719716
2601  2023-12-01 13:18:00.767031
2602  2023-12-01 13:18:00.796580
2603  2023-12-01 13:18:00.844677
2604  2023-12-01 13:18:00.892887
2605  2023-12-01 13:18:00.924848
2606  2023-12-01 13:18:00.973391
2607  2023-12-01 13:18:01.018547
2608  2023-12-01 13:18:01.048967
2609  2023-12-01 13:18:01.096844
2610  2023-12-01 13:18:01.142368
2611  2023-12-01 13:18:01.173066
2612  2023-12-01 13:18:01.219856
2613  2023-12-01 13:18:01.265119
2614  2023-12-01 13:18:01.296338
2615  2023-12-01 13:18:01.343396
2616  2023-12-01 13:18:01.390320
2617  2023-12-01 13:18:01.421650
2618  2023-12-01 13:18:01.470415
2619  2023-12-01 13:18:01.516320
2620  2023-12-01 13:18:01.545999
2621  2023-12-01 13:18:01.591906
2622  2023-12-01 13:18:01.638083
2623  2023-12-01 13:18:01.685304
2624  2023-12-01 13:18:01.716854
2625  2023-12-01 13:18:01.762554
2626  2023-12-01 13:18:01.809688
2627  2023-12-01 13:18:01.840972
2628  2023-12-01 13:18:01.887115
2629  2023-12-01 13:18:01.934443
2630  2023-12-01 13:18:01.967524
2631  2023-12-01 13:18:02.012340
2632  2023-12-01 13:18:02.060098
2633  2023-12-01 13:18:02.091690
2634  2023-12-01 13:18:02.137258
2635  2023-12-01 13:18:02.183434
2636  2023-12-01 13:18:02.215668
2637  2023-12-01 13:18:02.262715
2638  2023-12-01 13:18:02.309693
2639  2023-12-01 13:18:02.339802
2640  2023-12-01 13:18:02.387910
2641  2023-12-01 13:18:02.433531
2642  2023-12-01 13:18:02.465348
2643  2023-12-01 13:18:02.511928
2644  2023-12-01 13:18:02.557821
2645  2023-12-01 13:18:02.588335
2646  2023-12-01 13:18:02.636725
2647  2023-12-01 13:18:02.680578
2648  2023-12-01 13:18:02.727561
2649  2023-12-01 13:18:02.756753
2650  2023-12-01 13:18:02.802811
2651  2023-12-01 13:18:02.849514
2652  2023-12-01 13:18:02.880341
2653  2023-12-01 13:18:02.926964
2654  2023-12-01 13:18:02.973771
2655  2023-12-01 13:18:03.004819
2656  2023-12-01 13:18:03.052133
2657  2023-12-01 13:18:03.099802
2658  2023-12-01 13:18:03.131465
2659  2023-12-01 13:18:03.176859
2660  2023-12-01 13:18:03.223997
2661  2023-12-01 13:18:03.254557
2662  2023-12-01 13:18:03.301562
2663  2023-12-01 13:18:03.347281
2664  2023-12-01 13:18:03.393289
2665  2023-12-01 13:18:03.423985
2666  2023-12-01 13:18:03.472339
2667  2023-12-01 13:18:03.517987
2668  2023-12-01 13:18:03.549912
2669  2023-12-01 13:18:03.596566
2670  2023-12-01 13:18:03.641999
2671  2023-12-01 13:18:03.672471
2672  2023-12-01 13:18:03.718501
2673  2023-12-01 13:18:03.765565
2674  2023-12-01 13:18:03.796570
2675  2023-12-01 13:18:03.842856
2676  2023-12-01 13:18:03.889303
2677  2023-12-01 13:18:03.935299
2678  2023-12-01 13:18:03.967466
2679  2023-12-01 13:18:04.014130
2680  2023-12-01 13:18:04.060704
2681  2023-12-01 13:18:04.091526
2682  2023-12-01 13:18:04.140146
2683  2023-12-01 13:18:04.184295
2684  2023-12-01 13:18:04.215016
2685  2023-12-01 13:18:04.260377
2686  2023-12-01 13:18:04.306253
2687  2023-12-01 13:18:04.352410
2688  2023-12-01 13:18:04.384473
2689  2023-12-01 13:18:04.430256
2690  2023-12-01 13:18:04.476464
2691  2023-12-01 13:18:04.508732
2692  2023-12-01 13:18:04.555241
2693  2023-12-01 13:18:04.604344
2694  2023-12-01 13:18:04.632083
2695  2023-12-01 13:18:04.677524
2696  2023-12-01 13:18:04.724410
2697  2023-12-01 13:18:04.754641
2698  2023-12-01 13:18:04.800870
2699  2023-12-01 13:18:04.848422
2700  2023-12-01 13:18:04.893796
2701  2023-12-01 13:18:04.924463
2702  2023-12-01 13:18:04.971023
2703  2023-12-01 13:18:05.018250
2704  2023-12-01 13:18:05.050460
2705  2023-12-01 13:18:05.096158
2706  2023-12-01 13:18:05.142225
2707  2023-12-01 13:18:05.173059
2708  2023-12-01 13:18:05.219475
2709  2023-12-01 13:18:05.267585
2710  2023-12-01 13:18:05.299813
2711  2023-12-01 13:18:05.345954
2712  2023-12-01 13:18:05.393153
2713  2023-12-01 13:18:05.424243
2714  2023-12-01 13:18:05.471981
2715  2023-12-01 13:18:05.518913
2716  2023-12-01 13:18:05.549394
2717  2023-12-01 13:18:05.596052
2718  2023-12-01 13:18:05.642787
2719  2023-12-01 13:18:05.676774
2720  2023-12-01 13:18:05.723098
2721  2023-12-01 13:18:05.768498
2722  2023-12-01 13:18:05.800395
2723  2023-12-01 13:18:05.846922
2724  2023-12-01 13:18:05.892797
2725  2023-12-01 13:18:05.924548
2726  2023-12-01 13:18:05.972007
2727  2023-12-01 13:18:06.017541
2728  2023-12-01 13:18:06.048737
2729  2023-12-01 13:18:06.094988
2730  2023-12-01 13:18:06.143661
2731  2023-12-01 13:18:06.171974
2732  2023-12-01 13:18:06.220410
2733  2023-12-01 13:18:06.267610
2734  2023-12-01 13:18:06.299797
2735  2023-12-01 13:18:06.342628
2736  2023-12-01 13:18:06.388606
2737  2023-12-01 13:18:06.434141
2738  2023-12-01 13:18:06.465275
2739  2023-12-01 13:18:06.510780
2740  2023-12-01 13:18:06.556569
2741  2023-12-01 13:18:06.587721
2742  2023-12-01 13:18:06.635675
2743  2023-12-01 13:18:06.682059
2744  2023-12-01 13:18:06.714128
2745  2023-12-01 13:18:06.759958
2746  2023-12-01 13:18:06.806689
2747  2023-12-01 13:18:06.838292
2748  2023-12-01 13:18:06.885458
2749  2023-12-01 13:18:06.931460
2750  2023-12-01 13:18:06.962494
2751  2023-12-01 13:18:07.009238
2752  2023-12-01 13:18:07.056066
2753  2023-12-01 13:18:07.102317
2754  2023-12-01 13:18:07.133405
2755  2023-12-01 13:18:07.179444
2756  2023-12-01 13:18:07.226118
2757  2023-12-01 13:18:07.258191
2758  2023-12-01 13:18:07.302360
2759  2023-12-01 13:18:07.348644
2760  2023-12-01 13:18:07.381250
2761  2023-12-01 13:18:07.426476
2762  2023-12-01 13:18:07.472214
2763  2023-12-01 13:18:07.519535
2764  2023-12-01 13:18:07.549529
2765  2023-12-01 13:18:07.597365
2766  2023-12-01 13:18:07.628991
2767  2023-12-01 13:18:07.676109
2768  2023-12-01 13:18:07.722730
2769  2023-12-01 13:18:07.756141
2770  2023-12-01 13:18:07.800341
2771  2023-12-01 13:18:07.846821
2772  2023-12-01 13:18:07.894518
2773  2023-12-01 13:18:07.925670
2774  2023-12-01 13:18:07.972557
2775  2023-12-01 13:18:08.018651
2776  2023-12-01 13:18:08.048919
2777  2023-12-01 13:18:08.094562
2778  2023-12-01 13:18:08.141893
2779  2023-12-01 13:18:08.172101
2780  2023-12-01 13:18:08.219172
2781  2023-12-01 13:18:08.266658
2782  2023-12-01 13:18:08.297299
2783  2023-12-01 13:18:08.342344
2784  2023-12-01 13:18:08.389339
2785  2023-12-01 13:18:08.435408
2786  2023-12-01 13:18:08.466434
2787  2023-12-01 13:18:08.514293
2788  2023-12-01 13:18:08.560551
2789  2023-12-01 13:18:08.592265
2790  2023-12-01 13:18:08.640343
2791  2023-12-01 13:18:08.685416
2792  2023-12-01 13:18:08.715529
2793  2023-12-01 13:18:08.762209
2794  2023-12-01 13:18:08.809529
2795  2023-12-01 13:18:08.843376
2796  2023-12-01 13:18:08.885793
2797  2023-12-01 13:18:08.933510
2798  2023-12-01 13:18:08.965552
2799  2023-12-01 13:18:09.011244
2800  2023-12-01 13:18:09.057465
2801  2023-12-01 13:18:09.089297
2802  2023-12-01 13:18:09.135304
2803  2023-12-01 13:18:09.181194
2804  2023-12-01 13:18:09.212427
2805  2023-12-01 13:18:09.259290
2806  2023-12-01 13:18:09.306345
2807  2023-12-01 13:18:09.352664
2808  2023-12-01 13:18:09.382525
2809  2023-12-01 13:18:09.428935
2810  2023-12-01 13:18:09.475726
2811  2023-12-01 13:18:09.508134
2812  2023-12-01 13:18:09.553324
2813  2023-12-01 13:18:09.599257
2814  2023-12-01 13:18:09.630534
2815  2023-12-01 13:18:09.677238
2816  2023-12-01 13:18:09.723456
2817  2023-12-01 13:18:09.755074
2818  2023-12-01 13:18:09.801560
2819  2023-12-01 13:18:09.849028
2820  2023-12-01 13:18:09.880618
2821  2023-12-01 13:18:09.925728
2822  2023-12-01 13:18:09.971730
2823  2023-12-01 13:18:10.018346
2824  2023-12-01 13:18:10.049287
2825  2023-12-01 13:18:10.095647
2826  2023-12-01 13:18:10.142322
2827  2023-12-01 13:18:10.173274
2828  2023-12-01 13:18:10.220165
2829  2023-12-01 13:18:10.268090
2830  2023-12-01 13:18:10.298871
2831  2023-12-01 13:18:10.344816
2832  2023-12-01 13:18:10.390779
2833  2023-12-01 13:18:10.421748
2834  2023-12-01 13:18:10.468549
2835  2023-12-01 13:18:10.515041
2836  2023-12-01 13:18:10.560319
2837  2023-12-01 13:18:10.591321
2838  2023-12-01 13:18:10.636087
2839  2023-12-01 13:18:10.683131
2840  2023-12-01 13:18:10.715085
2841  2023-12-01 13:18:10.761764
2842  2023-12-01 13:18:10.808526
2843  2023-12-01 13:18:10.841294
2844  2023-12-01 13:18:10.886259
2845  2023-12-01 13:18:10.932557
2846  2023-12-01 13:18:10.964518
2847  2023-12-01 13:18:11.011252
2848  2023-12-01 13:18:11.059777
2849  2023-12-01 13:18:11.090551
2850  2023-12-01 13:18:11.136586
2851  2023-12-01 13:18:11.182364
2852  2023-12-01 13:18:11.212884
2853  2023-12-01 13:18:11.259993
2854  2023-12-01 13:18:11.306001
2855  2023-12-01 13:18:11.337784
2856  2023-12-01 13:18:11.386533
2857  2023-12-01 13:18:11.432409
2858  2023-12-01 13:18:11.477467
2859  2023-12-01 13:18:11.508828
2860  2023-12-01 13:18:11.555440
2861  2023-12-01 13:18:11.601486
2862  2023-12-01 13:18:11.632064
2863  2023-12-01 13:18:11.679007
2864  2023-12-01 13:18:11.725519
2865  2023-12-01 13:18:11.756205
2866  2023-12-01 13:18:11.803891
2867  2023-12-01 13:18:11.849603
2868  2023-12-01 13:18:11.880472
2869  2023-12-01 13:18:11.929539
2870  2023-12-01 13:18:11.972124
2871  2023-12-01 13:18:12.018287
2872  2023-12-01 13:18:12.049296
2873  2023-12-01 13:18:12.096469
2874  2023-12-01 13:18:12.142725
2875  2023-12-01 13:18:12.174246
2876  2023-12-01 13:18:12.220338
2877  2023-12-01 13:18:12.267229
2878  2023-12-01 13:18:12.299543
2879  2023-12-01 13:18:12.346378
2880  2023-12-01 13:18:12.392308
2881  2023-12-01 13:18:12.424642
2882  2023-12-01 13:18:12.469621
2883  2023-12-01 13:18:12.516234
2884  2023-12-01 13:18:12.546350
2885  2023-12-01 13:18:12.592458
2886  2023-12-01 13:18:12.639255
2887  2023-12-01 13:18:12.685268
2888  2023-12-01 13:18:12.716175
2889  2023-12-01 13:18:12.762411
2890  2023-12-01 13:18:12.808392
2891  2023-12-01 13:18:12.840531
2892  2023-12-01 13:18:12.887384
2893  2023-12-01 13:18:12.933555
2894  2023-12-01 13:18:12.964290
2895  2023-12-01 13:18:13.010238
2896  2023-12-01 13:18:13.056479
2897  2023-12-01 13:18:13.088546
2898  2023-12-01 13:18:13.136352
2899  2023-12-01 13:18:13.183430
2900  2023-12-01 13:18:13.214434
2901  2023-12-01 13:18:13.260571
2902  2023-12-01 13:18:13.307038
2903  2023-12-01 13:18:13.338742
2904  2023-12-01 13:18:13.386229
2905  2023-12-01 13:18:13.431890
2906  2023-12-01 13:18:13.464347
2907  2023-12-01 13:18:13.508648
2908  2023-12-01 13:18:13.555134
2909  2023-12-01 13:18:13.601418
2910  2023-12-01 13:18:13.632350
2911  2023-12-01 13:18:13.678619
2912  2023-12-01 13:18:13.725652
2913  2023-12-01 13:18:13.756266
2914  2023-12-01 13:18:13.802982
2915  2023-12-01 13:18:13.849799
2916  2023-12-01 13:18:13.880454
2917  2023-12-01 13:18:13.927506
2918  2023-12-01 13:18:13.972372
2919  2023-12-01 13:18:14.003958
2920  2023-12-01 13:18:14.050248
2921  2023-12-01 13:18:14.095256
2922  2023-12-01 13:18:14.141661
2923  2023-12-01 13:18:14.172476
2924  2023-12-01 13:18:14.218927
2925  2023-12-01 13:18:14.267431
2926  2023-12-01 13:18:14.296417
2927  2023-12-01 13:18:14.345320
2928  2023-12-01 13:18:14.389408
2929  2023-12-01 13:18:14.420795
2930  2023-12-01 13:18:14.467292
2931  2023-12-01 13:18:14.513265
2932  2023-12-01 13:18:14.560311
2933  2023-12-01 13:18:14.591232
2934  2023-12-01 13:18:14.637734
2935  2023-12-01 13:18:14.685613
2936  2023-12-01 13:18:14.717061
2937  2023-12-01 13:18:14.764041
2938  2023-12-01 13:18:14.811272
2939  2023-12-01 13:18:14.840313
2940  2023-12-01 13:18:14.886893
2941  2023-12-01 13:18:14.933344
2942  2023-12-01 13:18:14.964353
2943  2023-12-01 13:18:15.011999
2944  2023-12-01 13:18:15.058162
2945  2023-12-01 13:18:15.088791
2946  2023-12-01 13:18:15.134907
2947  2023-12-01 13:18:15.181788
2948  2023-12-01 13:18:15.213226
2949  2023-12-01 13:18:15.259776
2950  2023-12-01 13:18:15.306388
2951  2023-12-01 13:18:15.339309
2952  2023-12-01 13:18:15.384743
2953  2023-12-01 13:18:15.430717
2954  2023-12-01 13:18:15.475882
2955  2023-12-01 13:18:15.508474
2956  2023-12-01 13:18:15.554344
2957  2023-12-01 13:18:15.601541
2958  2023-12-01 13:18:15.633526
2959  2023-12-01 13:18:15.679319
2960  2023-12-01 13:18:15.725290
2961  2023-12-01 13:18:15.756431
2962  2023-12-01 13:18:15.803268
2963  2023-12-01 13:18:15.850311
2964  2023-12-01 13:18:15.882420
2965  2023-12-01 13:18:15.928640
2966  2023-12-01 13:18:15.975430
2967  2023-12-01 13:18:16.008648
2968  2023-12-01 13:18:16.052269
2969  2023-12-01 13:18:16.100335
2970  2023-12-01 13:18:16.131437
2971  2023-12-01 13:18:16.177603
2972  2023-12-01 13:18:16.224299
2973  2023-12-01 13:18:16.256257
2974  2023-12-01 13:18:16.303599
2975  2023-12-01 13:18:16.351134
2976  2023-12-01 13:18:16.382211
2977  2023-12-01 13:18:16.428245
2978  2023-12-01 13:18:16.474734
2979  2023-12-01 13:18:16.506285
2980  2023-12-01 13:18:16.552814
2981  2023-12-01 13:18:16.600398
2982  2023-12-01 13:18:16.630372
2983  2023-12-01 13:18:16.679576
2984  2023-12-01 13:18:16.723466
2985  2023-12-01 13:18:16.754323
2986  2023-12-01 13:18:16.801487
2987  2023-12-01 13:18:16.847018
2988  2023-12-01 13:18:16.893563
2989  2023-12-01 13:18:16.924816
2990  2023-12-01 13:18:16.970739
2991  2023-12-01 13:18:17.018360
2992  2023-12-01 13:18:17.049783
2993  2023-12-01 13:18:17.097446
2994  2023-12-01 13:18:17.143422
2995  2023-12-01 13:18:17.176419
2996  2023-12-01 13:18:17.222230
2997  2023-12-01 13:18:17.271016
2998  2023-12-01 13:18:17.299565
2999  2023-12-01 13:18:17.347218
3000  2023-12-01 13:18:17.393327
3001  2023-12-01 13:18:17.424434
3002  2023-12-01 13:18:17.470659
3003  2023-12-01 13:18:17.517876
3004  2023-12-01 13:18:17.548961
3005  2023-12-01 13:18:17.594964
3006  2023-12-01 13:18:17.642085
3007  2023-12-01 13:18:17.671455
3008  2023-12-01 13:18:17.719287
3009  2023-12-01 13:18:17.767324
3010  2023-12-01 13:18:17.810287
3011  2023-12-01 13:18:17.841428
3012  2023-12-01 13:18:17.888538
3013  2023-12-01 13:18:17.934351
3014  2023-12-01 13:18:17.965133
3015  2023-12-01 13:18:18.011311
3016  2023-12-01 13:18:18.057546
3017  2023-12-01 13:18:18.089259
3018  2023-12-01 13:18:18.137184
3019  2023-12-01 13:18:18.182285
3020  2023-12-01 13:18:18.214218
3021  2023-12-01 13:18:18.262336
3022  2023-12-01 13:18:18.311486
3023  2023-12-01 13:18:18.343379
3024  2023-12-01 13:18:18.386330
3025  2023-12-01 13:18:18.434281
3026  2023-12-01 13:18:18.464369
3027  2023-12-01 13:18:18.510227
3028  2023-12-01 13:18:18.556112
3029  2023-12-01 13:18:18.587631
3030  2023-12-01 13:18:18.633621
3031  2023-12-01 13:18:18.680505
3032  2023-12-01 13:18:18.728843
3033  2023-12-01 13:18:18.759782
3034  2023-12-01 13:18:18.807560
3035  2023-12-01 13:18:18.855230
3036  2023-12-01 13:18:18.882767
3037  2023-12-01 13:18:18.929787
3038  2023-12-01 13:18:18.977363
3039  2023-12-01 13:18:19.006854
3040  2023-12-01 13:18:19.054819
3041  2023-12-01 13:18:19.100351
3042  2023-12-01 13:18:19.131596
3043  2023-12-01 13:18:19.179542
3044  2023-12-01 13:18:19.224313
3045  2023-12-01 13:18:19.256221
3046  2023-12-01 13:18:19.302274
3047  2023-12-01 13:18:19.351153
3048  2023-12-01 13:18:19.382413
3049  2023-12-01 13:18:19.426964
3050  2023-12-01 13:18:19.473553
3051  2023-12-01 13:18:19.504789
3052  2023-12-01 13:18:19.550902
3053  2023-12-01 13:18:19.597636
3054  2023-12-01 13:18:19.629121
3055  2023-12-01 13:18:19.676083
3056  2023-12-01 13:18:19.722372
3057  2023-12-01 13:18:19.768222
3058  2023-12-01 13:18:19.800222
3059  2023-12-01 13:18:19.846607
3060  2023-12-01 13:18:19.894247
3061  2023-12-01 13:18:19.925426
3062  2023-12-01 13:18:19.970455
3063  2023-12-01 13:18:20.017274
3064  2023-12-01 13:18:20.049268
3065  2023-12-01 13:18:20.095156
3066  2023-12-01 13:18:20.140269
3067  2023-12-01 13:18:20.170917
3068  2023-12-01 13:18:20.217369
3069  2023-12-01 13:18:20.264391
3070  2023-12-01 13:18:20.310460
3071  2023-12-01 13:18:20.342425
3072  2023-12-01 13:18:20.391296
3073  2023-12-01 13:18:20.438290
3074  2023-12-01 13:18:20.465518
3075  2023-12-01 13:18:20.512561
3076  2023-12-01 13:18:20.559371
3077  2023-12-01 13:18:20.591136
3078  2023-12-01 13:18:20.638006
3079  2023-12-01 13:18:20.685911
3080  2023-12-01 13:18:20.716827
3081  2023-12-01 13:18:20.763703
3082  2023-12-01 13:18:20.795617
3083  2023-12-01 13:18:20.842885
3084  2023-12-01 13:18:20.890755
3085  2023-12-01 13:18:20.922667
3086  2023-12-01 13:18:20.968027
3087  2023-12-01 13:18:21.015484
3088  2023-12-01 13:18:21.045512
3089  2023-12-01 13:18:21.092604
3090  2023-12-01 13:18:21.141505
3091  2023-12-01 13:18:21.173506
3092  2023-12-01 13:18:21.217575
3093  2023-12-01 13:18:21.264373
3094  2023-12-01 13:18:21.310312
3095  2023-12-01 13:18:21.341392
3096  2023-12-01 13:18:21.387960
3097  2023-12-01 13:18:21.435005
3098  2023-12-01 13:18:21.465418
3099  2023-12-01 13:18:21.513291
3100  2023-12-01 13:18:21.559284
3101  2023-12-01 13:18:21.591274
3102  2023-12-01 13:18:21.637564
3103  2023-12-01 13:18:21.682331
3104  2023-12-01 13:18:21.713332
3105  2023-12-01 13:18:21.761095
3106  2023-12-01 13:18:21.807470
3107  2023-12-01 13:18:21.839498
3108  2023-12-01 13:18:21.886969
3109  2023-12-01 13:18:21.934198
3110  2023-12-01 13:18:21.965009
3111  2023-12-01 13:18:22.012053
3112  2023-12-01 13:18:22.058776
3113  2023-12-01 13:18:22.089356
3114  2023-12-01 13:18:22.136640
3115  2023-12-01 13:18:22.182573
3116  2023-12-01 13:18:22.214134
3117  2023-12-01 13:18:22.260013
3118  2023-12-01 13:18:22.310176
3119  2023-12-01 13:18:22.353299
3120  2023-12-01 13:18:22.383086
3121  2023-12-01 13:18:22.429446
3122  2023-12-01 13:18:22.476559
3123  2023-12-01 13:18:22.507825
3124  2023-12-01 13:18:22.554271
3125  2023-12-01 13:18:22.600910
3126  2023-12-01 13:18:22.631215
3127  2023-12-01 13:18:22.677471
3128  2023-12-01 13:18:22.726036
3129  2023-12-01 13:18:22.756382
3130  2023-12-01 13:18:22.803814
3131  2023-12-01 13:18:22.848299
3132  2023-12-01 13:18:22.879040
3133  2023-12-01 13:18:22.925261
3134  2023-12-01 13:18:22.971212
3135  2023-12-01 13:18:23.017963
3136  2023-12-01 13:18:23.049430
3137  2023-12-01 13:18:23.095457
3138  2023-12-01 13:18:23.141540
3139  2023-12-01 13:18:23.173138
3140  2023-12-01 13:18:23.219674
3141  2023-12-01 13:18:23.266299
3142  2023-12-01 13:18:23.296364
3143  2023-12-01 13:18:23.342686
3144  2023-12-01 13:18:23.389414
3145  2023-12-01 13:18:23.435608
3146  2023-12-01 13:18:23.466775
3147  2023-12-01 13:18:23.512708
3148  2023-12-01 13:18:23.559907
3149  2023-12-01 13:18:23.591894
3150  2023-12-01 13:18:23.638867
3151  2023-12-01 13:18:23.685958
3152  2023-12-01 13:18:23.717964
3153  2023-12-01 13:18:23.766749
3154  2023-12-01 13:18:23.812255
3155  2023-12-01 13:18:23.840678
3156  2023-12-01 13:18:23.887472
3157  2023-12-01 13:18:23.933991
3158  2023-12-01 13:18:23.964890
3159  2023-12-01 13:18:24.011725
3160  2023-12-01 13:18:24.057277
3161  2023-12-01 13:18:24.088684
3162  2023-12-01 13:18:24.135268
3163  2023-12-01 13:18:24.181953
3164  2023-12-01 13:18:24.227409
3165  2023-12-01 13:18:24.259295
3166  2023-12-01 13:18:24.304312
3167  2023-12-01 13:18:24.350678
3168  2023-12-01 13:18:24.381361
3169  2023-12-01 13:18:24.427292
3170  2023-12-01 13:18:24.473151
3171  2023-12-01 13:18:24.504161
3172  2023-12-01 13:18:24.550451
3173  2023-12-01 13:18:24.598541
3174  2023-12-01 13:18:24.630533
3175  2023-12-01 13:18:24.676261
3176  2023-12-01 13:18:24.723284
3177  2023-12-01 13:18:24.769371
3178  2023-12-01 13:18:24.800328
3179  2023-12-01 13:18:24.847272
3180  2023-12-01 13:18:24.892902
3181  2023-12-01 13:18:24.924222
3182  2023-12-01 13:18:24.970149
3183  2023-12-01 13:18:25.017246
3184  2023-12-01 13:18:25.048579
3185  2023-12-01 13:18:25.096289
3186  2023-12-01 13:18:25.142922
3187  2023-12-01 13:18:25.174581
3188  2023-12-01 13:18:25.221542
3189  2023-12-01 13:18:25.269256
3190  2023-12-01 13:18:25.299881
3191  2023-12-01 13:18:25.349297
3192  2023-12-01 13:18:25.380008
3193  2023-12-01 13:18:25.426922
3194  2023-12-01 13:18:25.472017
3195  2023-12-01 13:18:25.518539
3196  2023-12-01 13:18:25.549560
3197  2023-12-01 13:18:25.595288
3198  2023-12-01 13:18:25.641372
3199  2023-12-01 13:18:25.672000
3200  2023-12-01 13:18:25.720171
3201  2023-12-01 13:18:25.764532
3202  2023-12-01 13:18:25.797790
3203  2023-12-01 13:18:25.845572
3204  2023-12-01 13:18:25.891371
3205  2023-12-01 13:18:25.935361
3206  2023-12-01 13:18:25.966250
3207  2023-12-01 13:18:26.012994
3208  2023-12-01 13:18:26.059135
3209  2023-12-01 13:18:26.091125
3210  2023-12-01 13:18:26.138237
3211  2023-12-01 13:18:26.185001
3212  2023-12-01 13:18:26.215670
3213  2023-12-01 13:18:26.262587
3214  2023-12-01 13:18:26.309218
3215  2023-12-01 13:18:26.341936
3216  2023-12-01 13:18:26.389022
3217  2023-12-01 13:18:26.435437
3218  2023-12-01 13:18:26.464567
3219  2023-12-01 13:18:26.510382
3220  2023-12-01 13:18:26.557798
3221  2023-12-01 13:18:26.589026
3222  2023-12-01 13:18:26.635585
3223  2023-12-01 13:18:26.682834
3224  2023-12-01 13:18:26.714180
3225  2023-12-01 13:18:26.761217
3226  2023-12-01 13:18:26.807929
3227  2023-12-01 13:18:26.839535
3228  2023-12-01 13:18:26.887172
3229  2023-12-01 13:18:26.932481
3230  2023-12-01 13:18:26.963487
3231  2023-12-01 13:18:27.010242
3232  2023-12-01 13:18:27.058782
3233  2023-12-01 13:18:27.088473
3234  2023-12-01 13:18:27.134594
3235  2023-12-01 13:18:27.181212
3236  2023-12-01 13:18:27.227703
3237  2023-12-01 13:18:27.258237
3238  2023-12-01 13:18:27.304548
3239  2023-12-01 13:18:27.352048
3240  2023-12-01 13:18:27.382969
3241  2023-12-01 13:18:27.429310
3242  2023-12-01 13:18:27.476234
3243  2023-12-01 13:18:27.506292
3244  2023-12-01 13:18:27.555529
3245  2023-12-01 13:18:27.598628
3246  2023-12-01 13:18:27.629016
3247  2023-12-01 13:18:27.674682
3248  2023-12-01 13:18:27.721125
3249  2023-12-01 13:18:27.767567
3250  2023-12-01 13:18:27.799280
3251  2023-12-01 13:18:27.846812
3252  2023-12-01 13:18:27.893402
3253  2023-12-01 13:18:27.924154
3254  2023-12-01 13:18:27.971226
3255  2023-12-01 13:18:28.018622
3256  2023-12-01 13:18:28.046918
3257  2023-12-01 13:18:28.093350
3258  2023-12-01 13:18:28.139661
3259  2023-12-01 13:18:28.171145
3260  2023-12-01 13:18:28.217644
3261  2023-12-01 13:18:28.265419
3262  2023-12-01 13:18:28.296857
3263  2023-12-01 13:18:28.342969
3264  2023-12-01 13:18:28.389295
3265  2023-12-01 13:18:28.421457
3266  2023-12-01 13:18:28.466974
3267  2023-12-01 13:18:28.514357
3268  2023-12-01 13:18:28.562345
3269  2023-12-01 13:18:28.593399
3270  2023-12-01 13:18:28.640402
3271  2023-12-01 13:18:28.686019
3272  2023-12-01 13:18:28.717339
3273  2023-12-01 13:18:28.764519
3274  2023-12-01 13:18:28.810390
3275  2023-12-01 13:18:28.842089
3276  2023-12-01 13:18:28.887953
3277  2023-12-01 13:18:28.934432
3278  2023-12-01 13:18:28.965623
3279  2023-12-01 13:18:29.013260
3280  2023-12-01 13:18:29.058313
3281  2023-12-01 13:18:29.090111
3282  2023-12-01 13:18:29.140468
3283  2023-12-01 13:18:29.183346
3284  2023-12-01 13:18:29.214341
3285  2023-12-01 13:18:29.260624
3286  2023-12-01 13:18:29.306823
3287  2023-12-01 13:18:29.338035
3288  2023-12-01 13:18:29.385288
3289  2023-12-01 13:18:29.431664
3290  2023-12-01 13:18:29.463330
3291  2023-12-01 13:18:29.510192
3292  2023-12-01 13:18:29.557137
3293  2023-12-01 13:18:29.588336
3294  2023-12-01 13:18:29.635702
3295  2023-12-01 13:18:29.681858
3296  2023-12-01 13:18:29.715456
3297  2023-12-01 13:18:29.762145
3298  2023-12-01 13:18:29.811307
3299  2023-12-01 13:18:29.841190
3300  2023-12-01 13:18:29.885530
3301  2023-12-01 13:18:29.932145
3302  2023-12-01 13:18:29.962999
3303  2023-12-01 13:18:30.009384
3304  2023-12-01 13:18:30.056281
3305  2023-12-01 13:18:30.102006
3306  2023-12-01 13:18:30.133343
3307  2023-12-01 13:18:30.180530
3308  2023-12-01 13:18:30.227335
3309  2023-12-01 13:18:30.259133
3310  2023-12-01 13:18:30.306303
3311  2023-12-01 13:18:30.350706
3312  2023-12-01 13:18:30.381979
3313  2023-12-01 13:18:30.427469
3314  2023-12-01 13:18:30.474303
3315  2023-12-01 13:18:30.505317
3316  2023-12-01 13:18:30.552547
3317  2023-12-01 13:18:30.598396
3318  2023-12-01 13:18:30.629225
3319  2023-12-01 13:18:30.675498
3320  2023-12-01 13:18:30.722444
3321  2023-12-01 13:18:30.770748
3322  2023-12-01 13:18:30.801643
3323  2023-12-01 13:18:30.850005
3324  2023-12-01 13:18:30.893143
3325  2023-12-01 13:18:30.923654
3326  2023-12-01 13:18:30.970368
3327  2023-12-01 13:18:31.016559
3328  2023-12-01 13:18:31.047868
3329  2023-12-01 13:18:31.094467
3330  2023-12-01 13:18:31.140838
3331  2023-12-01 13:18:31.172945
3332  2023-12-01 13:18:31.217487
3333  2023-12-01 13:18:31.264613
3334  2023-12-01 13:18:31.310118
3335  2023-12-01 13:18:31.341165
3336  2023-12-01 13:18:31.387783
3337  2023-12-01 13:18:31.434313
3338  2023-12-01 13:18:31.465770
3339  2023-12-01 13:18:31.512566
3340  2023-12-01 13:18:31.559817
3341  2023-12-01 13:18:31.590376
3342  2023-12-01 13:18:31.636742
3343  2023-12-01 13:18:31.684458
3344  2023-12-01 13:18:31.716237
3345  2023-12-01 13:18:31.761887
3346  2023-12-01 13:18:31.812535
3347  2023-12-01 13:18:31.839786
3348  2023-12-01 13:18:31.885362
3349  2023-12-01 13:18:31.933689
3350  2023-12-01 13:18:31.964860
3351  2023-12-01 13:18:32.011379
3352  2023-12-01 13:18:32.057221
3353  2023-12-01 13:18:32.088804
3354  2023-12-01 13:18:32.134983
3355  2023-12-01 13:18:32.181246
3356  2023-12-01 13:18:32.213130
3357  2023-12-01 13:18:32.259259
3358  2023-12-01 13:18:32.306224
3359  2023-12-01 13:18:32.353183
3360  2023-12-01 13:18:32.385238
3361  2023-12-01 13:18:32.432151
3362  2023-12-01 13:18:32.464238
3363  2023-12-01 13:18:32.513014
3364  2023-12-01 13:18:32.557781
3365  2023-12-01 13:18:32.589125
3366  2023-12-01 13:18:32.634898
3367  2023-12-01 13:18:32.681307
3368  2023-12-01 13:18:32.712905
3369  2023-12-01 13:18:32.760071
3370  2023-12-01 13:18:32.805638
3371  2023-12-01 13:18:32.852235
3372  2023-12-01 13:18:32.882253
3373  2023-12-01 13:18:32.931753
3374  2023-12-01 13:18:32.977890
3375  2023-12-01 13:18:33.009119
3376  2023-12-01 13:18:33.053449
3377  2023-12-01 13:18:33.099975
3378  2023-12-01 13:18:33.130442
3379  2023-12-01 13:18:33.176505
3380  2023-12-01 13:18:33.223035
3381  2023-12-01 13:18:33.254071
3382  2023-12-01 13:18:33.301673
3383  2023-12-01 13:18:33.348085
3384  2023-12-01 13:18:33.380586
3385  2023-12-01 13:18:33.425819
3386  2023-12-01 13:18:33.471985
3387  2023-12-01 13:18:33.519603
3388  2023-12-01 13:18:33.549516
3389  2023-12-01 13:18:33.595728
3390  2023-12-01 13:18:33.642578
3391  2023-12-01 13:18:33.673239
3392  2023-12-01 13:18:33.719654
3393  2023-12-01 13:18:33.766797
3394  2023-12-01 13:18:33.797560
3395  2023-12-01 13:18:33.844275
3396  2023-12-01 13:18:33.891899
3397  2023-12-01 13:18:33.922681
3398  2023-12-01 13:18:33.968803
3399  2023-12-01 13:18:34.017538
3400  2023-12-01 13:18:34.047644
3401  2023-12-01 13:18:34.095991
3402  2023-12-01 13:18:34.141532
3403  2023-12-01 13:18:34.172150
3404  2023-12-01 13:18:34.218266
3405  2023-12-01 13:18:34.263882
3406  2023-12-01 13:18:34.295626
3407  2023-12-01 13:18:34.342540
3408  2023-12-01 13:18:34.388789
3409  2023-12-01 13:18:34.420523
3410  2023-12-01 13:18:34.467426
3411  2023-12-01 13:18:34.513606
3412  2023-12-01 13:18:34.545507
3413  2023-12-01 13:18:34.593328
3414  2023-12-01 13:18:34.640556
3415  2023-12-01 13:18:34.685034
3416  2023-12-01 13:18:34.716329
3417  2023-12-01 13:18:34.762202
3418  2023-12-01 13:18:34.808815
3419  2023-12-01 13:18:34.840083
3420  2023-12-01 13:18:34.885362
3421  2023-12-01 13:18:34.932900
3422  2023-12-01 13:18:34.963230
3423  2023-12-01 13:18:35.012393
3424  2023-12-01 13:18:35.057232
3425  2023-12-01 13:18:35.089892
3426  2023-12-01 13:18:35.135605
3427  2023-12-01 13:18:35.181203
3428  2023-12-01 13:18:35.227838
3429  2023-12-01 13:18:35.258015
3430  2023-12-01 13:18:35.304309
3431  2023-12-01 13:18:35.351461
3432  2023-12-01 13:18:35.382151
3433  2023-12-01 13:18:35.428101
3434  2023-12-01 13:18:35.474294
3435  2023-12-01 13:18:35.506248
3436  2023-12-01 13:18:35.553691
3437  2023-12-01 13:18:35.601952
3438  2023-12-01 13:18:35.631756
3439  2023-12-01 13:18:35.680701
3440  2023-12-01 13:18:35.726917
3441  2023-12-01 13:18:35.756711
3442  2023-12-01 13:18:35.802891
3443  2023-12-01 13:18:35.849135
3444  2023-12-01 13:18:35.879541
3445  2023-12-01 13:18:35.924857
3446  2023-12-01 13:18:35.971840
3447  2023-12-01 13:18:36.018911
3448  2023-12-01 13:18:36.051853
3449  2023-12-01 13:18:36.096543
3450  2023-12-01 13:18:36.142838
3451  2023-12-01 13:18:36.174427
3452  2023-12-01 13:18:36.219882
3453  2023-12-01 13:18:36.265249
3454  2023-12-01 13:18:36.296365
3455  2023-12-01 13:18:36.343462
3456  2023-12-01 13:18:36.390012
3457  2023-12-01 13:18:36.421458
3458  2023-12-01 13:18:36.467459
3459  2023-12-01 13:18:36.513687
3460  2023-12-01 13:18:36.545591
3461  2023-12-01 13:18:36.592684
3462  2023-12-01 13:18:36.639635
3463  2023-12-01 13:18:36.686228
3464  2023-12-01 13:18:36.719361
3465  2023-12-01 13:18:36.763195
3466  2023-12-01 13:18:36.810438
3467  2023-12-01 13:18:36.841278
3468  2023-12-01 13:18:36.889408
3469  2023-12-01 13:18:36.934781
3470  2023-12-01 13:18:36.964419
3471  2023-12-01 13:18:37.012426
3472  2023-12-01 13:18:37.058428
3473  2023-12-01 13:18:37.090496
3474  2023-12-01 13:18:37.137389
3475  2023-12-01 13:18:37.182788
3476  2023-12-01 13:18:37.214054
3477  2023-12-01 13:18:37.262365
3478  2023-12-01 13:18:37.310684
3479  2023-12-01 13:18:37.339900
3480  2023-12-01 13:18:37.386755
3481  2023-12-01 13:18:37.433103
3482  2023-12-01 13:18:37.463391
3483  2023-12-01 13:18:37.510828
3484  2023-12-01 13:18:37.558714
3485  2023-12-01 13:18:37.588900
3486  2023-12-01 13:18:37.634425
3487  2023-12-01 13:18:37.682204
3488  2023-12-01 13:18:37.727966
3489  2023-12-01 13:18:37.757808
3490  2023-12-01 13:18:37.803309
3491  2023-12-01 13:18:37.849581
3492  2023-12-01 13:18:37.880892
3493  2023-12-01 13:18:37.927339
3494  2023-12-01 13:18:37.973854
3495  2023-12-01 13:18:38.005644
3496  2023-12-01 13:18:38.052709
3497  2023-12-01 13:18:38.099540
3498  2023-12-01 13:18:38.130805
3499  2023-12-01 13:18:38.178388
3500  2023-12-01 13:18:38.222899
3501  2023-12-01 13:18:38.256863
3502  2023-12-01 13:18:38.301809
3503  2023-12-01 13:18:38.347036
3504  2023-12-01 13:18:38.393104
3505  2023-12-01 13:18:38.424248
3506  2023-12-01 13:18:38.469999
3507  2023-12-01 13:18:38.515714
3508  2023-12-01 13:18:38.547092
3509  2023-12-01 13:18:38.594218
3510  2023-12-01 13:18:38.641549
3511  2023-12-01 13:18:38.671428
3512  2023-12-01 13:18:38.717749
3513  2023-12-01 13:18:38.766764
3514  2023-12-01 13:18:38.796974
3515  2023-12-01 13:18:38.841495
3516  2023-12-01 13:18:38.887968
3517  2023-12-01 13:18:38.934363
3518  2023-12-01 13:18:38.965579
3519  2023-12-01 13:18:39.012397
3520  2023-12-01 13:18:39.058231
3521  2023-12-01 13:18:39.088519
3522  2023-12-01 13:18:39.134694
3523  2023-12-01 13:18:39.181628
3524  2023-12-01 13:18:39.213610
3525  2023-12-01 13:18:39.261158
3526  2023-12-01 13:18:39.309154
3527  2023-12-01 13:18:39.338613
3528  2023-12-01 13:18:39.386042
3529  2023-12-01 13:18:39.432253
3530  2023-12-01 13:18:39.463831
3531  2023-12-01 13:18:39.511693
3532  2023-12-01 13:18:39.557518
3533  2023-12-01 13:18:39.588630
3534  2023-12-01 13:18:39.635692
3535  2023-12-01 13:18:39.683254
3536  2023-12-01 13:18:39.714274
3537  2023-12-01 13:18:39.759598
3538  2023-12-01 13:18:39.808274
3539  2023-12-01 13:18:39.839242
3540  2023-12-01 13:18:39.885014
3541  2023-12-01 13:18:39.930936
3542  2023-12-01 13:18:39.962687
3543  2023-12-01 13:18:40.009329
3544  2023-12-01 13:18:40.054948
3545  2023-12-01 13:18:40.101843
3546  2023-12-01 13:18:40.132703
3547  2023-12-01 13:18:40.178238
3548  2023-12-01 13:18:40.225098
3549  2023-12-01 13:18:40.256350
3550  2023-12-01 13:18:40.303542
3551  2023-12-01 13:18:40.351564
3552  2023-12-01 13:18:40.382454
3553  2023-12-01 13:18:40.429691
3554  2023-12-01 13:18:40.477382
3555  2023-12-01 13:18:40.506631
3556  2023-12-01 13:18:40.553261
3557  2023-12-01 13:18:40.599838
3558  2023-12-01 13:18:40.631185
3559  2023-12-01 13:18:40.677453
3560  2023-12-01 13:18:40.725322
3561  2023-12-01 13:18:40.756805
