
1  2023-10-26 14:18:41.992307
2  2023-10-26 14:18:42.041034
3  2023-10-26 14:18:42.072948
4  2023-10-26 14:18:42.104834
5  2023-10-26 14:18:42.136747
6  2023-10-26 14:18:42.168661
7  2023-10-26 14:18:42.200581
8  2023-10-26 14:18:42.232594
9  2023-10-26 14:18:42.264449
10  2023-10-26 14:18:42.296364
11  2023-10-26 14:18:42.328408
12  2023-10-26 14:18:42.360323
13  2023-10-26 14:18:42.392238
14  2023-10-26 14:18:42.441118
15  2023-10-26 14:18:42.473079
16  2023-10-26 14:18:42.505035
17  2023-10-26 14:18:42.536901
18  2023-10-26 14:18:42.568856
19  2023-10-26 14:18:42.600763
20  2023-10-26 14:18:42.632646
21  2023-10-26 14:18:42.664592
22  2023-10-26 14:18:42.696508
23  2023-10-26 14:18:42.729504
24  2023-10-26 14:18:42.760431
25  2023-10-26 14:18:42.792323
26  2023-10-26 14:18:42.840160
27  2023-10-26 14:18:42.873080
28  2023-10-26 14:18:42.904987
29  2023-10-26 14:18:42.936932
30  2023-10-26 14:18:42.968855
31  2023-10-26 14:18:43.000729
32  2023-10-26 14:18:43.032645
34  2023-10-26 14:18:43.096478
35  2023-10-26 14:18:43.128429
36  2023-10-26 14:18:43.160304
37  2023-10-26 14:18:43.192218
38  2023-10-26 14:18:43.241100
39  2023-10-26 14:18:43.273039
40  2023-10-26 14:18:43.304948
41  2023-10-26 14:18:43.336862
42  2023-10-26 14:18:43.368747
43  2023-10-26 14:18:43.400661
44  2023-10-26 14:18:43.432576
45  2023-10-26 14:18:43.464524
46  2023-10-26 14:18:43.496439
47  2023-10-26 14:18:43.528351
48  2023-10-26 14:18:43.560269
49  2023-10-26 14:18:43.593147
50  2023-10-26 14:18:43.641019
51  2023-10-26 14:18:43.672963
52  2023-10-26 14:18:43.704889
53  2023-10-26 14:18:43.736812
54  2023-10-26 14:18:43.768677
55  2023-10-26 14:18:43.800591
56  2023-10-26 14:18:43.832510
57  2023-10-26 14:18:43.864453
58  2023-10-26 14:18:43.896368
59  2023-10-26 14:18:43.929248
60  2023-10-26 14:18:43.960197
61  2023-10-26 14:18:43.993077
62  2023-10-26 14:18:44.040981
63  2023-10-26 14:18:44.072895
64  2023-10-26 14:18:44.104779
65  2023-10-26 14:18:44.136693
66  2023-10-26 14:18:44.168203
67  2023-10-26 14:18:44.201079
68  2023-10-26 14:18:44.232995
69  2023-10-26 14:18:44.264995
70  2023-10-26 14:18:44.296969
71  2023-10-26 14:18:44.328886
72  2023-10-26 14:18:44.360771
73  2023-10-26 14:18:44.392686
74  2023-10-26 14:18:44.440559
75  2023-10-26 14:18:44.472473
76  2023-10-26 14:18:44.504387
77  2023-10-26 14:18:44.537310
78  2023-10-26 14:18:44.568181
79  2023-10-26 14:18:44.601066
80  2023-10-26 14:18:44.633007
81  2023-10-26 14:18:44.664923
82  2023-10-26 14:18:44.696860
83  2023-10-26 14:18:44.728720
84  2023-10-26 14:18:44.760634
85  2023-10-26 14:18:44.792550
86  2023-10-26 14:18:44.840420
87  2023-10-26 14:18:44.872341
88  2023-10-26 14:18:44.904284
89  2023-10-26 14:18:44.936201
90  2023-10-26 14:18:44.969079
91  2023-10-26 14:18:45.001045
92  2023-10-26 14:18:45.032939
93  2023-10-26 14:18:45.064826
94  2023-10-26 14:18:45.096854
95  2023-10-26 14:18:45.128651
96  2023-10-26 14:18:45.160566
97  2023-10-26 14:18:45.208296
98  2023-10-26 14:18:45.241178
99  2023-10-26 14:18:45.273091
100  2023-10-26 14:18:45.304690
101  2023-10-26 14:18:45.336604
102  2023-10-26 14:18:45.368578
103  2023-10-26 14:18:45.400493
104  2023-10-26 14:18:45.432408
105  2023-10-26 14:18:45.464322
106  2023-10-26 14:18:45.496237
107  2023-10-26 14:18:45.529149
108  2023-10-26 14:18:45.561064
109  2023-10-26 14:18:45.608936
110  2023-10-26 14:18:45.640851
111  2023-10-26 14:18:45.672438
112  2023-10-26 14:18:45.704402
113  2023-10-26 14:18:45.736375
114  2023-10-26 14:18:45.769284
115  2023-10-26 14:18:45.800171
116  2023-10-26 14:18:45.833146
117  2023-10-26 14:18:45.865001
118  2023-10-26 14:18:45.896952
119  2023-10-26 14:18:45.928864
120  2023-10-26 14:18:45.960773
121  2023-10-26 14:18:46.008644
122  2023-10-26 14:18:46.040532
123  2023-10-26 14:18:46.072443
124  2023-10-26 14:18:46.104398
125  2023-10-26 14:18:46.136301
126  2023-10-26 14:18:46.168217
127  2023-10-26 14:18:46.200133
128  2023-10-26 14:18:46.233104
129  2023-10-26 14:18:46.265018
130  2023-10-26 14:18:46.296933
131  2023-10-26 14:18:46.328848
132  2023-10-26 14:18:46.360762
133  2023-10-26 14:18:46.408634
134  2023-10-26 14:18:46.440549
135  2023-10-26 14:18:46.472464
136  2023-10-26 14:18:46.504378
137  2023-10-26 14:18:46.537291
138  2023-10-26 14:18:46.568812
139  2023-10-26 14:18:46.600710
140  2023-10-26 14:18:46.632646
141  2023-10-26 14:18:46.664533
142  2023-10-26 14:18:46.696445
143  2023-10-26 14:18:46.728361
144  2023-10-26 14:18:46.760276
145  2023-10-26 14:18:46.809112
146  2023-10-26 14:18:46.841028
147  2023-10-26 14:18:46.872980
148  2023-10-26 14:18:46.904856
149  2023-10-26 14:18:46.936772
150  2023-10-26 14:18:46.968687
151  2023-10-26 14:18:47.000639
152  2023-10-26 14:18:47.032520
153  2023-10-26 14:18:47.064432
154  2023-10-26 14:18:47.096386
155  2023-10-26 14:18:47.128291
156  2023-10-26 14:18:47.161171
157  2023-10-26 14:18:47.209044
158  2023-10-26 14:18:47.241020
159  2023-10-26 14:18:47.272874
160  2023-10-26 14:18:47.304788
161  2023-10-26 14:18:47.336801
162  2023-10-26 14:18:47.368747
163  2023-10-26 14:18:47.400661
164  2023-10-26 14:18:47.432545
165  2023-10-26 14:18:47.464463
166  2023-10-26 14:18:47.496422
167  2023-10-26 14:18:47.528448
168  2023-10-26 14:18:47.560363
169  2023-10-26 14:18:47.609233
170  2023-10-26 14:18:47.641148
171  2023-10-26 14:18:47.673063
172  2023-10-26 14:18:47.704978
173  2023-10-26 14:18:47.736892
174  2023-10-26 14:18:47.768884
175  2023-10-26 14:18:47.800804
176  2023-10-26 14:18:47.832681
177  2023-10-26 14:18:47.864610
178  2023-10-26 14:18:47.896514
179  2023-10-26 14:18:47.928468
180  2023-10-26 14:18:47.960376
181  2023-10-26 14:18:48.008244
182  2023-10-26 14:18:48.041150
183  2023-10-26 14:18:48.073072
184  2023-10-26 14:18:48.105024
185  2023-10-26 14:18:48.136966
186  2023-10-26 14:18:48.168880
187  2023-10-26 14:18:48.200795
188  2023-10-26 14:18:48.232295
189  2023-10-26 14:18:48.264245
190  2023-10-26 14:18:48.297167
191  2023-10-26 14:18:48.328298
192  2023-10-26 14:18:48.360212
193  2023-10-26 14:18:48.409140
194  2023-10-26 14:18:48.441022
195  2023-10-26 14:18:48.472907
196  2023-10-26 14:18:48.504851
197  2023-10-26 14:18:48.536784
198  2023-10-26 14:18:48.568650
199  2023-10-26 14:18:48.600644
200  2023-10-26 14:18:48.632567
201  2023-10-26 14:18:48.664554
202  2023-10-26 14:18:48.696502
203  2023-10-26 14:18:48.728383
204  2023-10-26 14:18:48.760298
205  2023-10-26 14:18:48.808243
206  2023-10-26 14:18:48.841154
207  2023-10-26 14:18:48.873103
208  2023-10-26 14:18:48.904988
209  2023-10-26 14:18:48.936690
210  2023-10-26 14:18:48.968611
211  2023-10-26 14:18:49.000567
212  2023-10-26 14:18:49.032433
213  2023-10-26 14:18:49.064348
214  2023-10-26 14:18:49.096263
215  2023-10-26 14:18:49.129175
216  2023-10-26 14:18:49.177047
217  2023-10-26 14:18:49.208962
218  2023-10-26 14:18:49.240876
219  2023-10-26 14:18:49.272791
220  2023-10-26 14:18:49.304706
221  2023-10-26 14:18:49.336620
222  2023-10-26 14:18:49.368535
223  2023-10-26 14:18:49.400457
224  2023-10-26 14:18:49.432365
225  2023-10-26 14:18:49.464279
226  2023-10-26 14:18:49.497196
227  2023-10-26 14:18:49.530104
228  2023-10-26 14:18:49.579970
229  2023-10-26 14:18:49.608895
230  2023-10-26 14:18:49.678706
231  2023-10-26 14:18:49.695662
232  2023-10-26 14:18:49.704639
233  2023-10-26 14:18:49.736553
234  2023-10-26 14:18:49.768468
235  2023-10-26 14:18:49.800382
236  2023-10-26 14:18:49.832297
237  2023-10-26 14:18:49.864211
238  2023-10-26 14:18:49.897132
239  2023-10-26 14:18:49.929036
240  2023-10-26 14:18:49.976908
241  2023-10-26 14:18:50.008823
242  2023-10-26 14:18:50.040738
243  2023-10-26 14:18:50.072707
244  2023-10-26 14:18:50.104567
245  2023-10-26 14:18:50.136482
246  2023-10-26 14:18:50.168396
247  2023-10-26 14:18:50.200313
248  2023-10-26 14:18:50.233223
249  2023-10-26 14:18:50.265138
250  2023-10-26 14:18:50.297053
251  2023-10-26 14:18:50.328968
252  2023-10-26 14:18:50.376839
253  2023-10-26 14:18:50.408755
254  2023-10-26 14:18:50.440668
255  2023-10-26 14:18:50.472583
256  2023-10-26 14:18:50.504498
257  2023-10-26 14:18:50.536483
258  2023-10-26 14:18:50.568399
259  2023-10-26 14:18:50.600322
260  2023-10-26 14:18:50.633204
261  2023-10-26 14:18:50.665110
262  2023-10-26 14:18:50.697064
263  2023-10-26 14:18:50.728939
264  2023-10-26 14:18:50.776866
265  2023-10-26 14:18:50.808781
266  2023-10-26 14:18:50.840696
267  2023-10-26 14:18:50.872610
268  2023-10-26 14:18:50.905538
269  2023-10-26 14:18:50.937443
270  2023-10-26 14:18:50.969053
271  2023-10-26 14:18:51.000969
272  2023-10-26 14:18:51.032917
273  2023-10-26 14:18:51.064799
274  2023-10-26 14:18:51.096713
275  2023-10-26 14:18:51.128628
276  2023-10-26 14:18:51.176532
277  2023-10-26 14:18:51.208444
278  2023-10-26 14:18:51.241327
279  2023-10-26 14:18:51.273240
280  2023-10-26 14:18:51.305156
281  2023-10-26 14:18:51.337128
282  2023-10-26 14:18:51.368988
283  2023-10-26 14:18:51.400986
284  2023-10-26 14:18:51.432904
285  2023-10-26 14:18:51.464813
286  2023-10-26 14:18:51.496728
287  2023-10-26 14:18:51.528677
288  2023-10-26 14:18:51.576547
289  2023-10-26 14:18:51.608476
290  2023-10-26 14:18:51.640344
291  2023-10-26 14:18:51.672258
292  2023-10-26 14:18:51.704206
293  2023-10-26 14:18:51.737092
294  2023-10-26 14:18:51.769000
295  2023-10-26 14:18:51.800915
296  2023-10-26 14:18:51.832840
297  2023-10-26 14:18:51.864774
298  2023-10-26 14:18:51.896658
299  2023-10-26 14:18:51.928573
300  2023-10-26 14:18:51.976445
301  2023-10-26 14:18:52.008360
302  2023-10-26 14:18:52.040274
303  2023-10-26 14:18:52.073187
304  2023-10-26 14:18:52.105101
305  2023-10-26 14:18:52.137016
306  2023-10-26 14:18:52.168931
307  2023-10-26 14:18:52.200845
308  2023-10-26 14:18:52.232760
309  2023-10-26 14:18:52.264675
310  2023-10-26 14:18:52.296589
311  2023-10-26 14:18:52.328504
312  2023-10-26 14:18:52.376376
313  2023-10-26 14:18:52.408290
314  2023-10-26 14:18:52.440327
315  2023-10-26 14:18:52.472242
316  2023-10-26 14:18:52.504223
317  2023-10-26 14:18:52.537135
318  2023-10-26 14:18:52.569050
319  2023-10-26 14:18:52.600964
320  2023-10-26 14:18:52.632879
321  2023-10-26 14:18:52.664794
322  2023-10-26 14:18:52.696715
323  2023-10-26 14:18:52.744580
324  2023-10-26 14:18:52.776495
325  2023-10-26 14:18:52.808410
326  2023-10-26 14:18:52.840324
327  2023-10-26 14:18:52.873236
328  2023-10-26 14:18:52.904166
329  2023-10-26 14:18:52.937065
330  2023-10-26 14:18:52.968982
331  2023-10-26 14:18:53.000895
332  2023-10-26 14:18:53.032809
333  2023-10-26 14:18:53.064724
334  2023-10-26 14:18:53.096639
335  2023-10-26 14:18:53.144511
336  2023-10-26 14:18:53.176425
337  2023-10-26 14:18:53.208448
338  2023-10-26 14:18:53.240394
339  2023-10-26 14:18:53.272309
340  2023-10-26 14:18:53.304224
341  2023-10-26 14:18:53.337136
342  2023-10-26 14:18:53.369051
343  2023-10-26 14:18:53.400976
344  2023-10-26 14:18:53.432886
345  2023-10-26 14:18:53.464794
346  2023-10-26 14:18:53.496709
347  2023-10-26 14:18:53.544590
348  2023-10-26 14:18:53.576496
349  2023-10-26 14:18:53.608410
350  2023-10-26 14:18:53.641324
351  2023-10-26 14:18:53.673238
352  2023-10-26 14:18:53.705161
353  2023-10-26 14:18:53.737066
354  2023-10-26 14:18:53.769009
355  2023-10-26 14:18:53.800896
356  2023-10-26 14:18:53.832810
357  2023-10-26 14:18:53.864725
358  2023-10-26 14:18:53.896640
359  2023-10-26 14:18:53.944513
360  2023-10-26 14:18:53.976426
361  2023-10-26 14:18:54.009340
362  2023-10-26 14:18:54.041254
363  2023-10-26 14:18:54.073179
364  2023-10-26 14:18:54.105083
365  2023-10-26 14:18:54.136997
366  2023-10-26 14:18:54.168913
367  2023-10-26 14:18:54.200871
368  2023-10-26 14:18:54.232786
369  2023-10-26 14:18:54.264699
370  2023-10-26 14:18:54.296613
371  2023-10-26 14:18:54.344487
372  2023-10-26 14:18:54.376400
373  2023-10-26 14:18:54.409313
374  2023-10-26 14:18:54.441170
375  2023-10-26 14:18:54.473083
376  2023-10-26 14:18:54.505041
377  2023-10-26 14:18:54.536983
378  2023-10-26 14:18:54.568871
379  2023-10-26 14:18:54.600800
380  2023-10-26 14:18:54.632705
381  2023-10-26 14:18:54.665051
382  2023-10-26 14:18:54.696956
383  2023-10-26 14:18:54.744828
384  2023-10-26 14:18:54.776787
385  2023-10-26 14:18:54.808786
386  2023-10-26 14:18:54.840697
387  2023-10-26 14:18:54.872654
388  2023-10-26 14:18:54.904557
389  2023-10-26 14:18:54.936438
390  2023-10-26 14:18:54.968352
391  2023-10-26 14:18:55.000268
392  2023-10-26 14:18:55.033185
393  2023-10-26 14:18:55.065099
394  2023-10-26 14:18:55.097050
395  2023-10-26 14:18:55.144881
396  2023-10-26 14:18:55.176846
397  2023-10-26 14:18:55.208711
398  2023-10-26 14:18:55.240676
399  2023-10-26 14:18:55.272590
400  2023-10-26 14:18:55.304607
401  2023-10-26 14:18:55.336558
402  2023-10-26 14:18:55.368436
403  2023-10-26 14:18:55.400387
404  2023-10-26 14:18:55.432264
405  2023-10-26 14:18:55.464220
406  2023-10-26 14:18:55.496094
407  2023-10-26 14:18:55.544964
408  2023-10-26 14:18:55.576909
409  2023-10-26 14:18:55.608793
410  2023-10-26 14:18:55.640775
411  2023-10-26 14:18:55.672621
412  2023-10-26 14:18:55.704536
413  2023-10-26 14:18:55.736453
414  2023-10-26 14:18:55.768403
415  2023-10-26 14:18:55.800281
416  2023-10-26 14:18:55.832195
417  2023-10-26 14:18:55.865162
418  2023-10-26 14:18:55.897071
419  2023-10-26 14:18:55.944931
420  2023-10-26 14:18:55.976841
421  2023-10-26 14:18:56.008725
422  2023-10-26 14:18:56.040688
423  2023-10-26 14:18:56.072625
424  2023-10-26 14:18:56.104513
425  2023-10-26 14:18:56.136419
426  2023-10-26 14:18:56.168298
427  2023-10-26 14:18:56.200271
428  2023-10-26 14:18:56.233123
429  2023-10-26 14:18:56.265090
430  2023-10-26 14:18:56.312909
431  2023-10-26 14:18:56.344860
432  2023-10-26 14:18:56.376793
433  2023-10-26 14:18:56.408702
434  2023-10-26 14:18:56.440763
435  2023-10-26 14:18:56.472682
436  2023-10-26 14:18:56.504662
437  2023-10-26 14:18:56.536562
438  2023-10-26 14:18:56.568483
439  2023-10-26 14:18:56.600362
440  2023-10-26 14:18:56.632308
441  2023-10-26 14:18:56.664217
442  2023-10-26 14:18:56.713063
443  2023-10-26 14:18:56.745026
444  2023-10-26 14:18:56.776933
445  2023-10-26 14:18:56.808836
446  2023-10-26 14:18:56.840745
447  2023-10-26 14:18:56.872668
448  2023-10-26 14:18:56.904619
449  2023-10-26 14:18:56.936471
450  2023-10-26 14:18:56.968412
451  2023-10-26 14:18:57.000335
452  2023-10-26 14:18:57.032207
453  2023-10-26 14:18:57.064158
454  2023-10-26 14:18:57.113025
455  2023-10-26 14:18:57.144939
456  2023-10-26 14:18:57.176852
457  2023-10-26 14:18:57.208790
458  2023-10-26 14:18:57.240686
459  2023-10-26 14:18:57.272565
460  2023-10-26 14:18:57.304480
461  2023-10-26 14:18:57.336444
462  2023-10-26 14:18:57.369361
463  2023-10-26 14:18:57.401265
464  2023-10-26 14:18:57.433137
465  2023-10-26 14:18:57.465050
466  2023-10-26 14:18:57.512978
467  2023-10-26 14:18:57.544871
468  2023-10-26 14:18:57.576779
469  2023-10-26 14:18:57.608716
470  2023-10-26 14:18:57.640730
471  2023-10-26 14:18:57.672614
472  2023-10-26 14:18:57.704567
473  2023-10-26 14:18:57.736490
474  2023-10-26 14:18:57.768393
475  2023-10-26 14:18:57.800315
476  2023-10-26 14:18:57.832234
477  2023-10-26 14:18:57.864147
478  2023-10-26 14:18:57.913007
479  2023-10-26 14:18:57.944921
480  2023-10-26 14:18:57.976832
481  2023-10-26 14:18:58.008749
482  2023-10-26 14:18:58.040662
483  2023-10-26 14:18:58.072579
484  2023-10-26 14:18:58.104491
485  2023-10-26 14:18:58.136421
486  2023-10-26 14:18:58.168320
487  2023-10-26 14:18:58.200239
488  2023-10-26 14:18:58.233115
489  2023-10-26 14:18:58.265030
490  2023-10-26 14:18:58.312933
491  2023-10-26 14:18:58.344931
492  2023-10-26 14:18:58.376892
493  2023-10-26 14:18:58.408810
494  2023-10-26 14:18:58.440675
495  2023-10-26 14:18:58.472596
496  2023-10-26 14:18:58.504538
497  2023-10-26 14:18:58.536452
498  2023-10-26 14:18:58.568369
499  2023-10-26 14:18:58.600292
500  2023-10-26 14:18:58.632208
501  2023-10-26 14:18:58.665075
502  2023-10-26 14:18:58.712976
503  2023-10-26 14:18:58.744895
504  2023-10-26 14:18:58.776810
505  2023-10-26 14:18:58.808754
506  2023-10-26 14:18:58.840641
507  2023-10-26 14:18:58.872555
508  2023-10-26 14:18:58.904469
509  2023-10-26 14:18:58.936389
510  2023-10-26 14:18:58.968357
511  2023-10-26 14:18:59.000333
512  2023-10-26 14:18:59.033249
513  2023-10-26 14:18:59.064168
514  2023-10-26 14:18:59.113060
515  2023-10-26 14:18:59.144940
516  2023-10-26 14:18:59.176855
517  2023-10-26 14:18:59.208795
518  2023-10-26 14:18:59.240701
519  2023-10-26 14:18:59.272565
520  2023-10-26 14:18:59.304480
521  2023-10-26 14:18:59.336425
522  2023-10-26 14:18:59.368355
523  2023-10-26 14:18:59.400224
524  2023-10-26 14:18:59.433214
525  2023-10-26 14:18:59.465122
526  2023-10-26 14:18:59.512972
527  2023-10-26 14:18:59.544863
528  2023-10-26 14:18:59.576754
529  2023-10-26 14:18:59.608696
530  2023-10-26 14:18:59.640624
531  2023-10-26 14:18:59.672546
532  2023-10-26 14:18:59.704444
533  2023-10-26 14:18:59.736360
534  2023-10-26 14:18:59.768271
535  2023-10-26 14:18:59.800198
536  2023-10-26 14:18:59.833115
537  2023-10-26 14:18:59.864977
538  2023-10-26 14:18:59.912849
539  2023-10-26 14:18:59.944871
540  2023-10-26 14:18:59.976887
541  2023-10-26 14:19:00.008801
542  2023-10-26 14:19:00.040716
543  2023-10-26 14:19:00.072667
544  2023-10-26 14:19:00.104514
545  2023-10-26 14:19:00.136429
546  2023-10-26 14:19:00.168384
547  2023-10-26 14:19:00.200324
548  2023-10-26 14:19:00.232204
549  2023-10-26 14:19:00.281091
550  2023-10-26 14:19:00.313028
551  2023-10-26 14:19:00.344901
552  2023-10-26 14:19:00.376813
553  2023-10-26 14:19:00.408759
554  2023-10-26 14:19:00.440667
555  2023-10-26 14:19:00.472563
556  2023-10-26 14:19:00.504445
557  2023-10-26 14:19:00.536360
558  2023-10-26 14:19:00.569275
559  2023-10-26 14:19:00.600236
560  2023-10-26 14:19:00.633130
561  2023-10-26 14:19:00.681002
562  2023-10-26 14:19:00.712925
563  2023-10-26 14:19:00.744849
564  2023-10-26 14:19:00.776891
565  2023-10-26 14:19:00.808757
566  2023-10-26 14:19:00.840774
567  2023-10-26 14:19:00.872728
568  2023-10-26 14:19:00.904610
569  2023-10-26 14:19:00.936517
570  2023-10-26 14:19:00.968432
571  2023-10-26 14:19:01.000357
572  2023-10-26 14:19:01.032275
573  2023-10-26 14:19:01.081160
574  2023-10-26 14:19:01.113046
575  2023-10-26 14:19:01.144973
576  2023-10-26 14:19:01.176901
577  2023-10-26 14:19:01.208879
578  2023-10-26 14:19:01.240802
579  2023-10-26 14:19:01.272716
580  2023-10-26 14:19:01.304638
581  2023-10-26 14:19:01.336544
582  2023-10-26 14:19:01.368457
583  2023-10-26 14:19:01.400386
584  2023-10-26 14:19:01.432302
585  2023-10-26 14:19:01.480172
586  2023-10-26 14:19:01.513075
587  2023-10-26 14:19:01.544978
588  2023-10-26 14:19:01.576901
589  2023-10-26 14:19:01.608822
590  2023-10-26 14:19:01.640754
591  2023-10-26 14:19:01.672613
592  2023-10-26 14:19:01.704575
593  2023-10-26 14:19:01.737485
594  2023-10-26 14:19:01.769354
595  2023-10-26 14:19:01.800284
596  2023-10-26 14:19:01.833143
597  2023-10-26 14:19:01.881064
598  2023-10-26 14:19:01.913018
599  2023-10-26 14:19:01.944952
600  2023-10-26 14:19:01.976895
601  2023-10-26 14:19:02.008818
602  2023-10-26 14:19:02.040744
603  2023-10-26 14:19:02.072656
604  2023-10-26 14:19:02.104561
605  2023-10-26 14:19:02.136439
606  2023-10-26 14:19:02.168353
607  2023-10-26 14:19:02.200305
608  2023-10-26 14:19:02.232217
609  2023-10-26 14:19:02.281095
610  2023-10-26 14:19:02.313144
611  2023-10-26 14:19:02.345013
612  2023-10-26 14:19:02.376963
613  2023-10-26 14:19:02.408920
614  2023-10-26 14:19:02.440825
615  2023-10-26 14:19:02.472773
616  2023-10-26 14:19:02.504636
617  2023-10-26 14:19:02.536654
618  2023-10-26 14:19:02.568566
619  2023-10-26 14:19:02.600498
620  2023-10-26 14:19:02.632396
621  2023-10-26 14:19:02.680269
622  2023-10-26 14:19:02.713149
623  2023-10-26 14:19:02.744114
624  2023-10-26 14:19:02.776978
625  2023-10-26 14:19:02.808893
626  2023-10-26 14:19:02.840843
627  2023-10-26 14:19:02.872764
628  2023-10-26 14:19:02.904685
629  2023-10-26 14:19:02.936551
630  2023-10-26 14:19:02.968466
631  2023-10-26 14:19:03.000427
632  2023-10-26 14:19:03.032344
633  2023-10-26 14:19:03.081165
634  2023-10-26 14:19:03.113079
635  2023-10-26 14:19:03.144994
636  2023-10-26 14:19:03.177038
637  2023-10-26 14:19:03.208952
638  2023-10-26 14:19:03.240964
639  2023-10-26 14:19:03.272822
640  2023-10-26 14:19:03.304737
641  2023-10-26 14:19:03.336739
642  2023-10-26 14:19:03.368669
643  2023-10-26 14:19:03.401582
644  2023-10-26 14:19:03.432503
645  2023-10-26 14:19:03.480371
646  2023-10-26 14:19:03.512331
647  2023-10-26 14:19:03.545197
648  2023-10-26 14:19:03.577146
649  2023-10-26 14:19:03.609079
650  2023-10-26 14:19:03.640941
651  2023-10-26 14:19:03.672856
652  2023-10-26 14:19:03.704820
653  2023-10-26 14:19:03.736721
654  2023-10-26 14:19:03.768614
655  2023-10-26 14:19:03.800515
656  2023-10-26 14:19:03.848387
657  2023-10-26 14:19:03.880338
658  2023-10-26 14:19:03.912247
659  2023-10-26 14:19:03.944183
660  2023-10-26 14:19:03.977043
661  2023-10-26 14:19:04.008957
662  2023-10-26 14:19:04.040967
663  2023-10-26 14:19:04.072925
664  2023-10-26 14:19:04.104839
665  2023-10-26 14:19:04.136754
666  2023-10-26 14:19:04.168669
667  2023-10-26 14:19:04.200584
668  2023-10-26 14:19:04.248456
669  2023-10-26 14:19:04.280370
670  2023-10-26 14:19:04.313406
671  2023-10-26 14:19:04.344358
672  2023-10-26 14:19:04.376301
673  2023-10-26 14:19:04.409180
674  2023-10-26 14:19:04.441224
675  2023-10-26 14:19:04.473133
676  2023-10-26 14:19:04.505065
677  2023-10-26 14:19:04.537009
678  2023-10-26 14:19:04.568897
679  2023-10-26 14:19:04.600809
680  2023-10-26 14:19:04.648723
681  2023-10-26 14:19:04.680600
682  2023-10-26 14:19:04.712511
683  2023-10-26 14:19:04.744488
684  2023-10-26 14:19:04.776416
685  2023-10-26 14:19:04.808343
686  2023-10-26 14:19:04.840258
687  2023-10-26 14:19:04.872307
688  2023-10-26 14:19:04.904271
689  2023-10-26 14:19:04.937134
690  2023-10-26 14:19:04.969049
691  2023-10-26 14:19:05.000963
692  2023-10-26 14:19:05.048936
693  2023-10-26 14:19:05.080902
694  2023-10-26 14:19:05.112876
695  2023-10-26 14:19:05.144817
696  2023-10-26 14:19:05.176796
697  2023-10-26 14:19:05.208711
698  2023-10-26 14:19:05.240657
699  2023-10-26 14:19:05.272540
700  2023-10-26 14:19:05.304455
701  2023-10-26 14:19:05.336370
702  2023-10-26 14:19:05.368316
703  2023-10-26 14:19:05.400199
704  2023-10-26 14:19:05.449135
705  2023-10-26 14:19:05.481049
706  2023-10-26 14:19:05.512963
707  2023-10-26 14:19:05.544912
708  2023-10-26 14:19:05.576825
709  2023-10-26 14:19:05.608707
710  2023-10-26 14:19:05.640622
711  2023-10-26 14:19:05.672551
712  2023-10-26 14:19:05.704483
713  2023-10-26 14:19:05.736366
714  2023-10-26 14:19:05.768281
715  2023-10-26 14:19:05.801193
716  2023-10-26 14:19:05.848167
717  2023-10-26 14:19:05.881048
718  2023-10-26 14:19:05.913005
719  2023-10-26 14:19:05.944948
720  2023-10-26 14:19:05.976903
721  2023-10-26 14:19:06.008818
722  2023-10-26 14:19:06.040733
723  2023-10-26 14:19:06.072647
724  2023-10-26 14:19:06.104562
725  2023-10-26 14:19:06.136477
726  2023-10-26 14:19:06.168391
727  2023-10-26 14:19:06.200306
728  2023-10-26 14:19:06.248691
729  2023-10-26 14:19:06.280606
730  2023-10-26 14:19:06.312521
731  2023-10-26 14:19:06.344435
732  2023-10-26 14:19:06.376350
733  2023-10-26 14:19:06.408265
734  2023-10-26 14:19:06.440179
735  2023-10-26 14:19:06.473091
736  2023-10-26 14:19:06.505006
737  2023-10-26 14:19:06.536921
738  2023-10-26 14:19:06.568835
739  2023-10-26 14:19:06.600750
740  2023-10-26 14:19:06.648627
741  2023-10-26 14:19:06.680541
742  2023-10-26 14:19:06.712451
743  2023-10-26 14:19:06.744366
744  2023-10-26 14:19:06.776281
745  2023-10-26 14:19:06.808195
746  2023-10-26 14:19:06.841107
747  2023-10-26 14:19:06.873117
748  2023-10-26 14:19:06.905215
749  2023-10-26 14:19:06.937075
750  2023-10-26 14:19:06.968989
751  2023-10-26 14:19:07.000904
752  2023-10-26 14:19:07.048776
753  2023-10-26 14:19:07.080745
754  2023-10-26 14:19:07.112638
755  2023-10-26 14:19:07.144520
756  2023-10-26 14:19:07.176555
757  2023-10-26 14:19:07.208525
758  2023-10-26 14:19:07.240482
759  2023-10-26 14:19:07.272355
760  2023-10-26 14:19:07.304269
761  2023-10-26 14:19:07.336184
762  2023-10-26 14:19:07.369130
763  2023-10-26 14:19:07.401039
764  2023-10-26 14:19:07.448912
765  2023-10-26 14:19:07.480797
766  2023-10-26 14:19:07.512712
767  2023-10-26 14:19:07.544627
768  2023-10-26 14:19:07.576573
769  2023-10-26 14:19:07.608456
770  2023-10-26 14:19:07.640371
771  2023-10-26 14:19:07.672285
772  2023-10-26 14:19:07.704200
773  2023-10-26 14:19:07.737112
774  2023-10-26 14:19:07.769027
775  2023-10-26 14:19:07.816964
776  2023-10-26 14:19:07.848878
777  2023-10-26 14:19:07.880793
778  2023-10-26 14:19:07.912708
779  2023-10-26 14:19:07.944622
780  2023-10-26 14:19:07.976537
781  2023-10-26 14:19:08.008452
782  2023-10-26 14:19:08.040381
783  2023-10-26 14:19:08.072281
784  2023-10-26 14:19:08.105193
785  2023-10-26 14:19:08.137111
786  2023-10-26 14:19:08.169023
787  2023-10-26 14:19:08.216894
788  2023-10-26 14:19:08.248809
789  2023-10-26 14:19:08.280724
790  2023-10-26 14:19:08.312639
791  2023-10-26 14:19:08.344553
792  2023-10-26 14:19:08.376468
793  2023-10-26 14:19:08.408422
794  2023-10-26 14:19:08.440345
795  2023-10-26 14:19:08.473209
796  2023-10-26 14:19:08.505124
797  2023-10-26 14:19:08.537072
798  2023-10-26 14:19:08.569009
799  2023-10-26 14:19:08.616859
800  2023-10-26 14:19:08.648740
801  2023-10-26 14:19:08.680655
802  2023-10-26 14:19:08.712569
803  2023-10-26 14:19:08.744531
804  2023-10-26 14:19:08.776430
805  2023-10-26 14:19:08.808313
806  2023-10-26 14:19:08.840228
807  2023-10-26 14:19:08.872235
808  2023-10-26 14:19:08.904275
809  2023-10-26 14:19:08.937138
810  2023-10-26 14:19:08.969152
811  2023-10-26 14:19:09.017023
812  2023-10-26 14:19:09.048938
813  2023-10-26 14:19:09.080892
814  2023-10-26 14:19:09.112809
815  2023-10-26 14:19:09.144682
816  2023-10-26 14:19:09.176684
817  2023-10-26 14:19:09.208632
818  2023-10-26 14:19:09.240546
819  2023-10-26 14:19:09.272461
820  2023-10-26 14:19:09.304376
821  2023-10-26 14:19:09.336322
822  2023-10-26 14:19:09.368250
823  2023-10-26 14:19:09.417153
824  2023-10-26 14:19:09.449094
825  2023-10-26 14:19:09.480955
826  2023-10-26 14:19:09.512870
827  2023-10-26 14:19:09.544886
828  2023-10-26 14:19:09.576824
829  2023-10-26 14:19:09.608739
830  2023-10-26 14:19:09.640693
831  2023-10-26 14:19:09.672658
832  2023-10-26 14:19:09.704572
833  2023-10-26 14:19:09.736486
834  2023-10-26 14:19:09.768401
835  2023-10-26 14:19:09.816273
836  2023-10-26 14:19:09.848188
837  2023-10-26 14:19:09.881100
838  2023-10-26 14:19:09.913014
839  2023-10-26 14:19:09.944929
840  2023-10-26 14:19:09.976844
841  2023-10-26 14:19:10.008758
842  2023-10-26 14:19:10.040673
843  2023-10-26 14:19:10.072588
844  2023-10-26 14:19:10.104668
845  2023-10-26 14:19:10.136582
846  2023-10-26 14:19:10.168497
847  2023-10-26 14:19:10.216369
848  2023-10-26 14:19:10.248284
849  2023-10-26 14:19:10.280198
850  2023-10-26 14:19:10.313111
851  2023-10-26 14:19:10.345026
852  2023-10-26 14:19:10.376940
853  2023-10-26 14:19:10.408854
854  2023-10-26 14:19:10.440769
855  2023-10-26 14:19:10.472684
856  2023-10-26 14:19:10.504603
857  2023-10-26 14:19:10.536513
858  2023-10-26 14:19:10.569426
859  2023-10-26 14:19:10.617312
860  2023-10-26 14:19:10.649212
861  2023-10-26 14:19:10.681129
862  2023-10-26 14:19:10.713041
863  2023-10-26 14:19:10.745006
864  2023-10-26 14:19:10.776905
865  2023-10-26 14:19:10.808785
866  2023-10-26 14:19:10.840700
867  2023-10-26 14:19:10.872615
868  2023-10-26 14:19:10.904588
869  2023-10-26 14:19:10.936444
870  2023-10-26 14:19:10.968358
871  2023-10-26 14:19:11.016314
872  2023-10-26 14:19:11.048309
873  2023-10-26 14:19:11.080181
874  2023-10-26 14:19:11.112207
875  2023-10-26 14:19:11.144211
876  2023-10-26 14:19:11.177123
877  2023-10-26 14:19:11.209038
878  2023-10-26 14:19:11.240952
879  2023-10-26 14:19:11.272867
880  2023-10-26 14:19:11.304782
881  2023-10-26 14:19:11.336696
882  2023-10-26 14:19:11.384671
883  2023-10-26 14:19:11.416585
884  2023-10-26 14:19:11.448500
885  2023-10-26 14:19:11.480415
886  2023-10-26 14:19:11.512329
887  2023-10-26 14:19:11.544245
888  2023-10-26 14:19:11.576159
889  2023-10-26 14:19:11.609071
890  2023-10-26 14:19:11.641014
891  2023-10-26 14:19:11.672900
892  2023-10-26 14:19:11.704815
893  2023-10-26 14:19:11.736729
894  2023-10-26 14:19:11.784601
895  2023-10-26 14:19:11.816529
896  2023-10-26 14:19:11.848431
897  2023-10-26 14:19:11.880345
898  2023-10-26 14:19:11.912260
899  2023-10-26 14:19:11.945308
900  2023-10-26 14:19:11.976225
901  2023-10-26 14:19:12.009137
902  2023-10-26 14:19:12.041052
903  2023-10-26 14:19:12.072996
904  2023-10-26 14:19:12.104882
905  2023-10-26 14:19:12.136796
906  2023-10-26 14:19:12.184669
907  2023-10-26 14:19:12.216694
908  2023-10-26 14:19:12.248609
909  2023-10-26 14:19:12.280525
910  2023-10-26 14:19:12.312479
911  2023-10-26 14:19:12.344471
912  2023-10-26 14:19:12.376419
913  2023-10-26 14:19:12.408334
914  2023-10-26 14:19:12.440249
915  2023-10-26 14:19:12.473203
916  2023-10-26 14:19:12.505118
917  2023-10-26 14:19:12.537032
918  2023-10-26 14:19:12.584904
919  2023-10-26 14:19:12.616849
920  2023-10-26 14:19:12.648734
921  2023-10-26 14:19:12.680648
922  2023-10-26 14:19:12.712633
923  2023-10-26 14:19:12.744594
924  2023-10-26 14:19:12.776462
925  2023-10-26 14:19:12.808478
926  2023-10-26 14:19:12.840392
927  2023-10-26 14:19:12.872466
928  2023-10-26 14:19:12.904369
929  2023-10-26 14:19:12.936283
930  2023-10-26 14:19:12.984278
931  2023-10-26 14:19:13.016193
932  2023-10-26 14:19:13.049112
933  2023-10-26 14:19:13.081082
934  2023-10-26 14:19:13.113050
935  2023-10-26 14:19:13.145088
936  2023-10-26 14:19:13.177055
937  2023-10-26 14:19:13.208970
938  2023-10-26 14:19:13.240884
939  2023-10-26 14:19:13.272857
940  2023-10-26 14:19:13.304771
941  2023-10-26 14:19:13.336686
942  2023-10-26 14:19:13.384561
943  2023-10-26 14:19:13.417504
944  2023-10-26 14:19:13.449386
945  2023-10-26 14:19:13.481344
946  2023-10-26 14:19:13.513182
947  2023-10-26 14:19:13.545143
948  2023-10-26 14:19:13.577110
949  2023-10-26 14:19:13.609033
950  2023-10-26 14:19:13.640887
951  2023-10-26 14:19:13.672801
952  2023-10-26 14:19:13.704718
953  2023-10-26 14:19:13.736688
954  2023-10-26 14:19:13.785572
955  2023-10-26 14:19:13.817422
956  2023-10-26 14:19:13.849363
957  2023-10-26 14:19:13.880387
958  2023-10-26 14:19:13.913324
959  2023-10-26 14:19:13.945261
960  2023-10-26 14:19:13.977150
961  2023-10-26 14:19:14.009075
962  2023-10-26 14:19:14.041096
963  2023-10-26 14:19:14.073031
964  2023-10-26 14:19:14.104927
965  2023-10-26 14:19:14.136801
966  2023-10-26 14:19:14.184672
967  2023-10-26 14:19:14.216592
968  2023-10-26 14:19:14.248501
969  2023-10-26 14:19:14.280448
970  2023-10-26 14:19:14.312331
971  2023-10-26 14:19:14.345255
972  2023-10-26 14:19:14.377158
973  2023-10-26 14:19:14.409129
974  2023-10-26 14:19:14.440987
975  2023-10-26 14:19:14.472902
976  2023-10-26 14:19:14.504860
977  2023-10-26 14:19:14.536761
978  2023-10-26 14:19:14.584604
979  2023-10-26 14:19:14.616536
980  2023-10-26 14:19:14.648432
981  2023-10-26 14:19:14.680396
982  2023-10-26 14:19:14.713259
983  2023-10-26 14:19:14.745174
984  2023-10-26 14:19:14.777119
985  2023-10-26 14:19:14.809006
986  2023-10-26 14:19:14.840959
987  2023-10-26 14:19:14.872980
988  2023-10-26 14:19:14.904930
989  2023-10-26 14:19:14.952804
990  2023-10-26 14:19:14.984719
991  2023-10-26 14:19:15.016709
992  2023-10-26 14:19:15.048632
993  2023-10-26 14:19:15.080598
994  2023-10-26 14:19:15.112505
995  2023-10-26 14:19:15.144399
996  2023-10-26 14:19:15.176312
997  2023-10-26 14:19:15.209275
998  2023-10-26 14:19:15.241142
999  2023-10-26 14:19:15.273023
1000  2023-10-26 14:19:15.304939
1001  2023-10-26 14:19:15.352921
1002  2023-10-26 14:19:15.384837
1003  2023-10-26 14:19:15.416800
1004  2023-10-26 14:19:15.448717
1005  2023-10-26 14:19:15.480580
1006  2023-10-26 14:19:15.512527
1007  2023-10-26 14:19:15.544447
1008  2023-10-26 14:19:15.576493
1009  2023-10-26 14:19:15.608388
1010  2023-10-26 14:19:15.640450
1011  2023-10-26 14:19:15.672316
1012  2023-10-26 14:19:15.705237
1013  2023-10-26 14:19:15.753151
1014  2023-10-26 14:19:15.785057
1015  2023-10-26 14:19:15.816931
1016  2023-10-26 14:19:15.848881
1017  2023-10-26 14:19:15.880759
1018  2023-10-26 14:19:15.912674
1019  2023-10-26 14:19:15.945602
1020  2023-10-26 14:19:15.976537
1021  2023-10-26 14:19:16.008535
1022  2023-10-26 14:19:16.040468
1023  2023-10-26 14:19:16.072440
1024  2023-10-26 14:19:16.104339
1025  2023-10-26 14:19:16.152224
1026  2023-10-26 14:19:16.185136
1027  2023-10-26 14:19:16.216204
1028  2023-10-26 14:19:16.249105
1029  2023-10-26 14:19:16.281033
1030  2023-10-26 14:19:16.313045
1031  2023-10-26 14:19:16.344915
1032  2023-10-26 14:19:16.376168
1033  2023-10-26 14:19:16.409066
1034  2023-10-26 14:19:16.440947
1035  2023-10-26 14:19:16.472862
1036  2023-10-26 14:19:16.504828
1037  2023-10-26 14:19:16.552649
1038  2023-10-26 14:19:16.584607
1039  2023-10-26 14:19:16.616510
1040  2023-10-26 14:19:16.648434
1041  2023-10-26 14:19:16.680347
1042  2023-10-26 14:19:16.712222
1043  2023-10-26 14:19:16.745149
1044  2023-10-26 14:19:16.776139
1045  2023-10-26 14:19:16.809097
1046  2023-10-26 14:19:16.840998
1047  2023-10-26 14:19:16.872881
1048  2023-10-26 14:19:16.904794
1049  2023-10-26 14:19:16.952772
1050  2023-10-26 14:19:16.984689
1051  2023-10-26 14:19:17.016601
1052  2023-10-26 14:19:17.048505
1053  2023-10-26 14:19:17.080429
1054  2023-10-26 14:19:17.112331
1055  2023-10-26 14:19:17.144213
1056  2023-10-26 14:19:17.176164
1057  2023-10-26 14:19:17.209112
1058  2023-10-26 14:19:17.240955
1059  2023-10-26 14:19:17.272919
1060  2023-10-26 14:19:17.304784
1061  2023-10-26 14:19:17.352712
1062  2023-10-26 14:19:17.384694
1063  2023-10-26 14:19:17.416672
1064  2023-10-26 14:19:17.448555
1065  2023-10-26 14:19:17.481436
1066  2023-10-26 14:19:17.512462
1067  2023-10-26 14:19:17.544425
1068  2023-10-26 14:19:17.576340
1069  2023-10-26 14:19:17.609204
1070  2023-10-26 14:19:17.641119
1071  2023-10-26 14:19:17.673109
1072  2023-10-26 14:19:17.704948
1073  2023-10-26 14:19:17.752853
1074  2023-10-26 14:19:17.784747
1075  2023-10-26 14:19:17.816687
1076  2023-10-26 14:19:17.848603
1077  2023-10-26 14:19:17.880548
1078  2023-10-26 14:19:17.913018
1079  2023-10-26 14:19:17.944982
1080  2023-10-26 14:19:17.976924
1081  2023-10-26 14:19:18.008943
1082  2023-10-26 14:19:18.040854
1083  2023-10-26 14:19:18.072826
1084  2023-10-26 14:19:18.104710
1085  2023-10-26 14:19:18.152616
1086  2023-10-26 14:19:18.184530
1087  2023-10-26 14:19:18.216448
1088  2023-10-26 14:19:18.248359
1089  2023-10-26 14:19:18.280290
1090  2023-10-26 14:19:18.312189
1091  2023-10-26 14:19:18.345112
1092  2023-10-26 14:19:18.377016
1093  2023-10-26 14:19:18.408945
1094  2023-10-26 14:19:18.440811
1095  2023-10-26 14:19:18.472726
1096  2023-10-26 14:19:18.504672
1097  2023-10-26 14:19:18.552628
1098  2023-10-26 14:19:18.584546
1099  2023-10-26 14:19:18.616458
1100  2023-10-26 14:19:18.648372
1101  2023-10-26 14:19:18.680303
1102  2023-10-26 14:19:18.712204
1103  2023-10-26 14:19:18.745133
1104  2023-10-26 14:19:18.776200
1105  2023-10-26 14:19:18.809086
1106  2023-10-26 14:19:18.841089
1107  2023-10-26 14:19:18.873150
1108  2023-10-26 14:19:18.920162
1109  2023-10-26 14:19:18.953079
1110  2023-10-26 14:19:18.984992
1111  2023-10-26 14:19:19.016903
1112  2023-10-26 14:19:19.048832
1113  2023-10-26 14:19:19.080730
1114  2023-10-26 14:19:19.112647
1115  2023-10-26 14:19:19.144562
1116  2023-10-26 14:19:19.176474
1117  2023-10-26 14:19:19.208375
1118  2023-10-26 14:19:19.240290
1119  2023-10-26 14:19:19.273236
1120  2023-10-26 14:19:19.320158
1121  2023-10-26 14:19:19.353079
1122  2023-10-26 14:19:19.384937
1123  2023-10-26 14:19:19.416885
1124  2023-10-26 14:19:19.448799
1125  2023-10-26 14:19:19.480712
1126  2023-10-26 14:19:19.512627
1127  2023-10-26 14:19:19.544556
1128  2023-10-26 14:19:19.576456
1129  2023-10-26 14:19:19.608372
1130  2023-10-26 14:19:19.640303
1131  2023-10-26 14:19:19.672219
1132  2023-10-26 14:19:19.720078
1133  2023-10-26 14:19:19.752998
1134  2023-10-26 14:19:19.784901
1135  2023-10-26 14:19:19.816830
1136  2023-10-26 14:19:19.848682
1137  2023-10-26 14:19:19.880595
1138  2023-10-26 14:19:19.912588
1139  2023-10-26 14:19:19.944490
1140  2023-10-26 14:19:19.977371
1141  2023-10-26 14:19:20.008319
1142  2023-10-26 14:19:20.040250
1143  2023-10-26 14:19:20.073180
1144  2023-10-26 14:19:20.121031
1145  2023-10-26 14:19:20.152938
1146  2023-10-26 14:19:20.184881
1147  2023-10-26 14:19:20.216767
1148  2023-10-26 14:19:20.248694
1149  2023-10-26 14:19:20.280632
1150  2023-10-26 14:19:20.312476
1151  2023-10-26 14:19:20.344345
1152  2023-10-26 14:19:20.376362
1153  2023-10-26 14:19:20.409253
1154  2023-10-26 14:19:20.440768
1155  2023-10-26 14:19:20.472639
1156  2023-10-26 14:19:20.520519
1157  2023-10-26 14:19:20.552428
1158  2023-10-26 14:19:20.584346
1159  2023-10-26 14:19:20.617220
1160  2023-10-26 14:19:20.648311
1161  2023-10-26 14:19:20.680230
1162  2023-10-26 14:19:20.713190
1163  2023-10-26 14:19:20.745058
1164  2023-10-26 14:19:20.776971
1165  2023-10-26 14:19:20.808886
1166  2023-10-26 14:19:20.840773
1167  2023-10-26 14:19:20.872729
1168  2023-10-26 14:19:20.920602
1169  2023-10-26 14:19:20.952501
1170  2023-10-26 14:19:20.984419
1171  2023-10-26 14:19:21.016331
1172  2023-10-26 14:19:21.048247
1173  2023-10-26 14:19:21.080243
1174  2023-10-26 14:19:21.112236
1175  2023-10-26 14:19:21.145173
1176  2023-10-26 14:19:21.177066
1177  2023-10-26 14:19:21.208985
1178  2023-10-26 14:19:21.240896
1179  2023-10-26 14:19:21.272821
1180  2023-10-26 14:19:21.320694
1181  2023-10-26 14:19:21.352565
1182  2023-10-26 14:19:21.384506
1183  2023-10-26 14:19:21.416420
1184  2023-10-26 14:19:21.448340
1185  2023-10-26 14:19:21.480250
1186  2023-10-26 14:19:21.512165
1187  2023-10-26 14:19:21.545107
1188  2023-10-26 14:19:21.576991
1189  2023-10-26 14:19:21.608904
1190  2023-10-26 14:19:21.640822
1191  2023-10-26 14:19:21.672735
1192  2023-10-26 14:19:21.720636
1193  2023-10-26 14:19:21.752523
1194  2023-10-26 14:19:21.784437
1195  2023-10-26 14:19:21.816346
1196  2023-10-26 14:19:21.848267
1197  2023-10-26 14:19:21.881217
1198  2023-10-26 14:19:21.913114
1199  2023-10-26 14:19:21.945013
1200  2023-10-26 14:19:21.976928
1201  2023-10-26 14:19:22.008832
1202  2023-10-26 14:19:22.040761
1203  2023-10-26 14:19:22.072671
1204  2023-10-26 14:19:22.120547
1205  2023-10-26 14:19:22.153483
1206  2023-10-26 14:19:22.184373
1207  2023-10-26 14:19:22.216288
1208  2023-10-26 14:19:22.248253
1209  2023-10-26 14:19:22.281203
1210  2023-10-26 14:19:22.313162
1211  2023-10-26 14:19:22.345067
1212  2023-10-26 14:19:22.376944
1213  2023-10-26 14:19:22.408894
1214  2023-10-26 14:19:22.440806
1215  2023-10-26 14:19:22.488678
1216  2023-10-26 14:19:22.520593
1217  2023-10-26 14:19:22.552513
1218  2023-10-26 14:19:22.584416
1219  2023-10-26 14:19:22.616337
1220  2023-10-26 14:19:22.648258
1221  2023-10-26 14:19:22.680165
1222  2023-10-26 14:19:22.713083
1223  2023-10-26 14:19:22.745093
1224  2023-10-26 14:19:22.777011
1225  2023-10-26 14:19:22.808992
1226  2023-10-26 14:19:22.840941
1227  2023-10-26 14:19:22.888780
1228  2023-10-26 14:19:22.920723
1229  2023-10-26 14:19:22.952640
1230  2023-10-26 14:19:22.984576
1231  2023-10-26 14:19:23.016439
1232  2023-10-26 14:19:23.048353
1233  2023-10-26 14:19:23.080299
1234  2023-10-26 14:19:23.112214
1235  2023-10-26 14:19:23.145159
1236  2023-10-26 14:19:23.177010
1237  2023-10-26 14:19:23.208924
1238  2023-10-26 14:19:23.240872
1239  2023-10-26 14:19:23.288711
1240  2023-10-26 14:19:23.320672
1241  2023-10-26 14:19:23.352571
1242  2023-10-26 14:19:23.384479
1243  2023-10-26 14:19:23.416369
1244  2023-10-26 14:19:23.448284
1245  2023-10-26 14:19:23.480222
1246  2023-10-26 14:19:23.512143
1247  2023-10-26 14:19:23.545026
1248  2023-10-26 14:19:23.576940
1249  2023-10-26 14:19:23.608855
1250  2023-10-26 14:19:23.640770
1251  2023-10-26 14:19:23.688642
1252  2023-10-26 14:19:23.720587
1253  2023-10-26 14:19:23.752495
1254  2023-10-26 14:19:23.784409
1255  2023-10-26 14:19:23.816300
1256  2023-10-26 14:19:23.848215
1257  2023-10-26 14:19:23.881127
1258  2023-10-26 14:19:23.913041
1259  2023-10-26 14:19:23.945083
1260  2023-10-26 14:19:23.977030
1261  2023-10-26 14:19:24.009057
1262  2023-10-26 14:19:24.040987
1263  2023-10-26 14:19:24.088859
1264  2023-10-26 14:19:24.120838
1265  2023-10-26 14:19:24.152757
1266  2023-10-26 14:19:24.184737
1267  2023-10-26 14:19:24.216651
1268  2023-10-26 14:19:24.248566
1269  2023-10-26 14:19:24.280519
1270  2023-10-26 14:19:24.312433
1271  2023-10-26 14:19:24.344310
1272  2023-10-26 14:19:24.376225
1273  2023-10-26 14:19:24.408173
1274  2023-10-26 14:19:24.441052
1275  2023-10-26 14:19:24.488957
1276  2023-10-26 14:19:24.520838
1277  2023-10-26 14:19:24.552878
1278  2023-10-26 14:19:24.584793
1279  2023-10-26 14:19:24.616750
1280  2023-10-26 14:19:24.648622
1281  2023-10-26 14:19:24.680537
1282  2023-10-26 14:19:24.712451
1283  2023-10-26 14:19:24.744412
1284  2023-10-26 14:19:24.776281
1285  2023-10-26 14:19:24.808195
1286  2023-10-26 14:19:24.841107
1287  2023-10-26 14:19:24.888979
1288  2023-10-26 14:19:24.920894
1289  2023-10-26 14:19:24.952809
1290  2023-10-26 14:19:24.984723
1291  2023-10-26 14:19:25.016638
1292  2023-10-26 14:19:25.048553
1293  2023-10-26 14:19:25.080467
1294  2023-10-26 14:19:25.112382
1295  2023-10-26 14:19:25.144297
1296  2023-10-26 14:19:25.176211
1297  2023-10-26 14:19:25.209123
1298  2023-10-26 14:19:25.241038
1299  2023-10-26 14:19:25.289003
1300  2023-10-26 14:19:25.320960
1301  2023-10-26 14:19:25.352874
1302  2023-10-26 14:19:25.384789
1303  2023-10-26 14:19:25.416812
1304  2023-10-26 14:19:25.448747
1305  2023-10-26 14:19:25.480659
1306  2023-10-26 14:19:25.512575
1307  2023-10-26 14:19:25.544554
1308  2023-10-26 14:19:25.576469
1309  2023-10-26 14:19:25.609382
1310  2023-10-26 14:19:25.640298
1311  2023-10-26 14:19:25.689231
1312  2023-10-26 14:19:25.721082
1313  2023-10-26 14:19:25.752997
1314  2023-10-26 14:19:25.784945
1315  2023-10-26 14:19:25.816859
1316  2023-10-26 14:19:25.848741
1317  2023-10-26 14:19:25.880655
1318  2023-10-26 14:19:25.912609
1319  2023-10-26 14:19:25.944516
1320  2023-10-26 14:19:25.976399
1321  2023-10-26 14:19:26.008314
1322  2023-10-26 14:19:26.040229
1323  2023-10-26 14:19:26.089098
1324  2023-10-26 14:19:26.121037
1325  2023-10-26 14:19:26.152955
1326  2023-10-26 14:19:26.184842
1327  2023-10-26 14:19:26.216757
1328  2023-10-26 14:19:26.248707
1329  2023-10-26 14:19:26.280586
1330  2023-10-26 14:19:26.312501
1331  2023-10-26 14:19:26.344416
1332  2023-10-26 14:19:26.376330
1333  2023-10-26 14:19:26.408299
1334  2023-10-26 14:19:26.456117
1335  2023-10-26 14:19:26.489029
1336  2023-10-26 14:19:26.520944
1337  2023-10-26 14:19:26.552858
1338  2023-10-26 14:19:26.584773
1339  2023-10-26 14:19:26.616688
1340  2023-10-26 14:19:26.648607
1341  2023-10-26 14:19:26.680517
1342  2023-10-26 14:19:26.712432
1343  2023-10-26 14:19:26.744346
1344  2023-10-26 14:19:26.776261
1345  2023-10-26 14:19:26.808311
1346  2023-10-26 14:19:26.857149
1347  2023-10-26 14:19:26.889064
1348  2023-10-26 14:19:26.921048
1349  2023-10-26 14:19:26.952962
1350  2023-10-26 14:19:26.984929
1351  2023-10-26 14:19:27.016792
1352  2023-10-26 14:19:27.048706
1353  2023-10-26 14:19:27.080621
1354  2023-10-26 14:19:27.112577
1355  2023-10-26 14:19:27.144450
1356  2023-10-26 14:19:27.176365
1357  2023-10-26 14:19:27.208280
1358  2023-10-26 14:19:27.257149
1359  2023-10-26 14:19:27.289064
1360  2023-10-26 14:19:27.321023
1361  2023-10-26 14:19:27.352893
1362  2023-10-26 14:19:27.384808
1363  2023-10-26 14:19:27.416723
1364  2023-10-26 14:19:27.448672
1365  2023-10-26 14:19:27.480552
1366  2023-10-26 14:19:27.512467
1367  2023-10-26 14:19:27.544381
1368  2023-10-26 14:19:27.576331
1369  2023-10-26 14:19:27.608269
1370  2023-10-26 14:19:27.656119
1371  2023-10-26 14:19:27.688995
1372  2023-10-26 14:19:27.721097
1373  2023-10-26 14:19:27.753170
1374  2023-10-26 14:19:27.785121
1375  2023-10-26 14:19:27.817089
1376  2023-10-26 14:19:27.849042
1377  2023-10-26 14:19:27.880956
1378  2023-10-26 14:19:27.912920
1379  2023-10-26 14:19:27.944812
1380  2023-10-26 14:19:27.976701
1381  2023-10-26 14:19:28.008615
1382  2023-10-26 14:19:28.056487
1383  2023-10-26 14:19:28.088402
1384  2023-10-26 14:19:28.120352
1385  2023-10-26 14:19:28.152268
1386  2023-10-26 14:19:28.185147
1387  2023-10-26 14:19:28.217133
1388  2023-10-26 14:19:28.249108
1389  2023-10-26 14:19:28.280962
1390  2023-10-26 14:19:28.312876
1391  2023-10-26 14:19:28.344791
1392  2023-10-26 14:19:28.376706
1393  2023-10-26 14:19:28.408621
1394  2023-10-26 14:19:28.456553
1395  2023-10-26 14:19:28.488477
1396  2023-10-26 14:19:28.520383
1397  2023-10-26 14:19:28.553295
1398  2023-10-26 14:19:28.584212
1399  2023-10-26 14:19:28.616234
1400  2023-10-26 14:19:28.649143
1401  2023-10-26 14:19:28.681116
1402  2023-10-26 14:19:28.713030
1403  2023-10-26 14:19:28.744945
1404  2023-10-26 14:19:28.776859
1405  2023-10-26 14:19:28.808774
1406  2023-10-26 14:19:28.856646
1407  2023-10-26 14:19:28.888561
1408  2023-10-26 14:19:28.920566
1409  2023-10-26 14:19:28.952390
1410  2023-10-26 14:19:28.985302
1411  2023-10-26 14:19:29.017217
1412  2023-10-26 14:19:29.049131
1413  2023-10-26 14:19:29.081046
1414  2023-10-26 14:19:29.112961
1415  2023-10-26 14:19:29.144876
1416  2023-10-26 14:19:29.176790
1417  2023-10-26 14:19:29.208705
1418  2023-10-26 14:19:29.256577
1419  2023-10-26 14:19:29.288492
1420  2023-10-26 14:19:29.320414
1421  2023-10-26 14:19:29.352321
1422  2023-10-26 14:19:29.384318
1423  2023-10-26 14:19:29.416418
1424  2023-10-26 14:19:29.448359
1425  2023-10-26 14:19:29.480321
1426  2023-10-26 14:19:29.512398
1427  2023-10-26 14:19:29.544314
1428  2023-10-26 14:19:29.577196
1429  2023-10-26 14:19:29.608245
1430  2023-10-26 14:19:29.657127
1431  2023-10-26 14:19:29.688983
1432  2023-10-26 14:19:29.720898
1433  2023-10-26 14:19:29.752813
1434  2023-10-26 14:19:29.784680
1435  2023-10-26 14:19:29.816651
1436  2023-10-26 14:19:29.848566
1437  2023-10-26 14:19:29.880480
1438  2023-10-26 14:19:29.912484
1439  2023-10-26 14:19:29.944445
1440  2023-10-26 14:19:29.976366
1441  2023-10-26 14:19:30.024290
1442  2023-10-26 14:19:30.056205
1443  2023-10-26 14:19:30.088261
1444  2023-10-26 14:19:30.120333
1445  2023-10-26 14:19:30.152248
1446  2023-10-26 14:19:30.185160
1447  2023-10-26 14:19:30.217074
1448  2023-10-26 14:19:30.248989
1449  2023-10-26 14:19:30.281022
1450  2023-10-26 14:19:30.312937
1451  2023-10-26 14:19:30.344851
1452  2023-10-26 14:19:30.376766
1453  2023-10-26 14:19:30.424638
1454  2023-10-26 14:19:30.456553
1455  2023-10-26 14:19:30.488477
1456  2023-10-26 14:19:30.520382
1457  2023-10-26 14:19:30.552297
1458  2023-10-26 14:19:30.584211
1459  2023-10-26 14:19:30.617127
1460  2023-10-26 14:19:30.649038
1461  2023-10-26 14:19:30.680953
1462  2023-10-26 14:19:30.712867
1463  2023-10-26 14:19:30.744782
1464  2023-10-26 14:19:30.776697
1465  2023-10-26 14:19:30.824569
1466  2023-10-26 14:19:30.856523
1467  2023-10-26 14:19:30.888398
1468  2023-10-26 14:19:30.920313
1469  2023-10-26 14:19:30.952228
1470  2023-10-26 14:19:30.985202
1471  2023-10-26 14:19:31.017217
1472  2023-10-26 14:19:31.049135
1473  2023-10-26 14:19:31.081111
1474  2023-10-26 14:19:31.113020
1475  2023-10-26 14:19:31.144440
1476  2023-10-26 14:19:31.176367
1477  2023-10-26 14:19:31.224286
1478  2023-10-26 14:19:31.256201
1479  2023-10-26 14:19:31.288252
1480  2023-10-26 14:19:31.320341
1481  2023-10-26 14:19:31.352351
1482  2023-10-26 14:19:31.384265
1483  2023-10-26 14:19:31.416233
1484  2023-10-26 14:19:31.449094
1485  2023-10-26 14:19:31.481007
1486  2023-10-26 14:19:31.512922
1487  2023-10-26 14:19:31.544836
1488  2023-10-26 14:19:31.576751
1489  2023-10-26 14:19:31.624623
1490  2023-10-26 14:19:31.656537
1491  2023-10-26 14:19:31.688567
1492  2023-10-26 14:19:31.720482
1493  2023-10-26 14:19:31.752396
1494  2023-10-26 14:19:31.784311
1495  2023-10-26 14:19:31.816226
1496  2023-10-26 14:19:31.849138
1497  2023-10-26 14:19:31.881052
1498  2023-10-26 14:19:31.912967
1499  2023-10-26 14:19:31.944882
1500  2023-10-26 14:19:31.976799
1501  2023-10-26 14:19:32.024765
1502  2023-10-26 14:19:32.056679
1503  2023-10-26 14:19:32.088594
1504  2023-10-26 14:19:32.120509
1505  2023-10-26 14:19:32.152423
1506  2023-10-26 14:19:32.184353
1507  2023-10-26 14:19:32.216253
1508  2023-10-26 14:19:32.249165
1509  2023-10-26 14:19:32.281081
1510  2023-10-26 14:19:32.312994
1511  2023-10-26 14:19:32.345005
1512  2023-10-26 14:19:32.376920
1513  2023-10-26 14:19:32.424792
1514  2023-10-26 14:19:32.456706
1515  2023-10-26 14:19:32.488621
1516  2023-10-26 14:19:32.520536
1517  2023-10-26 14:19:32.552450
1518  2023-10-26 14:19:32.584365
1519  2023-10-26 14:19:32.616342
1520  2023-10-26 14:19:32.648381
1521  2023-10-26 14:19:32.681330
1522  2023-10-26 14:19:32.712247
1523  2023-10-26 14:19:32.745227
1524  2023-10-26 14:19:32.777110
1525  2023-10-26 14:19:32.825083
1526  2023-10-26 14:19:32.856996
1527  2023-10-26 14:19:32.888944
1528  2023-10-26 14:19:32.920865
1529  2023-10-26 14:19:32.952793
1530  2023-10-26 14:19:32.984655
1531  2023-10-26 14:19:33.017566
1532  2023-10-26 14:19:33.048554
1533  2023-10-26 14:19:33.081468
1534  2023-10-26 14:19:33.112429
1535  2023-10-26 14:19:33.144298
1536  2023-10-26 14:19:33.177359
1537  2023-10-26 14:19:33.225344
1538  2023-10-26 14:19:33.257211
1539  2023-10-26 14:19:33.289150
1540  2023-10-26 14:19:33.321086
1541  2023-10-26 14:19:33.352955
1542  2023-10-26 14:19:33.384904
1543  2023-10-26 14:19:33.417866
1544  2023-10-26 14:19:33.449797
1545  2023-10-26 14:19:33.481734
1546  2023-10-26 14:19:33.512651
1547  2023-10-26 14:19:33.545563
1548  2023-10-26 14:19:33.593465
1549  2023-10-26 14:19:33.625483
1550  2023-10-26 14:19:33.657548
1551  2023-10-26 14:19:33.689447
1552  2023-10-26 14:19:33.721367
1553  2023-10-26 14:19:33.753264
1554  2023-10-26 14:19:33.785202
1555  2023-10-26 14:19:33.817089
1556  2023-10-26 14:19:33.848974
1557  2023-10-26 14:19:33.880936
1558  2023-10-26 14:19:33.912803
1559  2023-10-26 14:19:33.944718
1560  2023-10-26 14:19:33.992590
1561  2023-10-26 14:19:34.024541
1562  2023-10-26 14:19:34.056420
1563  2023-10-26 14:19:34.089342
1564  2023-10-26 14:19:34.120313
1565  2023-10-26 14:19:34.152489
1566  2023-10-26 14:19:34.184404
1567  2023-10-26 14:19:34.216319
1568  2023-10-26 14:19:34.248233
1569  2023-10-26 14:19:34.281212
1570  2023-10-26 14:19:34.313104
1571  2023-10-26 14:19:34.345026
1572  2023-10-26 14:19:34.392876
1573  2023-10-26 14:19:34.424792
1574  2023-10-26 14:19:34.456707
1575  2023-10-26 14:19:34.488550
1576  2023-10-26 14:19:34.520498
1577  2023-10-26 14:19:34.552535
1578  2023-10-26 14:19:34.584380
1579  2023-10-26 14:19:34.617341
1580  2023-10-26 14:19:34.648213
1581  2023-10-26 14:19:34.681172
1582  2023-10-26 14:19:34.713038
1583  2023-10-26 14:19:34.744971
1584  2023-10-26 14:19:34.792903
1585  2023-10-26 14:19:34.824908
1586  2023-10-26 14:19:34.857813
1587  2023-10-26 14:19:34.889741
1588  2023-10-26 14:19:34.920672
1589  2023-10-26 14:19:34.952566
1590  2023-10-26 14:19:34.985474
1591  2023-10-26 14:19:35.017353
1592  2023-10-26 14:19:35.049340
1593  2023-10-26 14:19:35.080219
1594  2023-10-26 14:19:35.113145
1595  2023-10-26 14:19:35.145101
1596  2023-10-26 14:19:35.192972
1597  2023-10-26 14:19:35.224936
1598  2023-10-26 14:19:35.256849
1599  2023-10-26 14:19:35.288767
1600  2023-10-26 14:19:35.320630
1601  2023-10-26 14:19:35.352545
1602  2023-10-26 14:19:35.385501
1603  2023-10-26 14:19:35.417419
1604  2023-10-26 14:19:35.449347
1605  2023-10-26 14:19:35.480204
1606  2023-10-26 14:19:35.513168
1607  2023-10-26 14:19:35.545064
1608  2023-10-26 14:19:35.592936
1609  2023-10-26 14:19:35.624818
1610  2023-10-26 14:19:35.657730
1611  2023-10-26 14:19:35.689714
1612  2023-10-26 14:19:35.720594
1613  2023-10-26 14:19:35.752476
1614  2023-10-26 14:19:35.785433
1615  2023-10-26 14:19:35.817335
1616  2023-10-26 14:19:35.848220
1617  2023-10-26 14:19:35.881132
1618  2023-10-26 14:19:35.913101
1619  2023-10-26 14:19:35.945017
1620  2023-10-26 14:19:35.992880
1621  2023-10-26 14:19:36.024781
1622  2023-10-26 14:19:36.056668
1623  2023-10-26 14:19:36.088579
1624  2023-10-26 14:19:36.120532
1625  2023-10-26 14:19:36.152441
1626  2023-10-26 14:19:36.184322
1627  2023-10-26 14:19:36.216268
1628  2023-10-26 14:19:36.249193
1629  2023-10-26 14:19:36.281122
1630  2023-10-26 14:19:36.312527
1631  2023-10-26 14:19:36.344567
1632  2023-10-26 14:19:36.392423
1633  2023-10-26 14:19:36.424345
1634  2023-10-26 14:19:36.456263
1635  2023-10-26 14:19:36.489217
1636  2023-10-26 14:19:36.521150
1637  2023-10-26 14:19:36.553131
1638  2023-10-26 14:19:36.585097
1639  2023-10-26 14:19:36.617009
1640  2023-10-26 14:19:36.648926
1641  2023-10-26 14:19:36.680791
1642  2023-10-26 14:19:36.712736
1643  2023-10-26 14:19:36.744660
1644  2023-10-26 14:19:36.792606
1645  2023-10-26 14:19:36.824552
1646  2023-10-26 14:19:36.856489
1647  2023-10-26 14:19:36.888401
1648  2023-10-26 14:19:36.921298
1649  2023-10-26 14:19:36.952228
1650  2023-10-26 14:19:36.985091
1651  2023-10-26 14:19:37.017045
1652  2023-10-26 14:19:37.049115
1653  2023-10-26 14:19:37.081051
1654  2023-10-26 14:19:37.113022
1655  2023-10-26 14:19:37.144934
1656  2023-10-26 14:19:37.192844
1657  2023-10-26 14:19:37.224721
1658  2023-10-26 14:19:37.256679
1659  2023-10-26 14:19:37.288573
1660  2023-10-26 14:19:37.320466
1661  2023-10-26 14:19:37.352411
1662  2023-10-26 14:19:37.384329
1663  2023-10-26 14:19:37.416246
1664  2023-10-26 14:19:37.448160
1665  2023-10-26 14:19:37.480173
1666  2023-10-26 14:19:37.513098
1667  2023-10-26 14:19:37.561002
1668  2023-10-26 14:19:37.592929
1669  2023-10-26 14:19:37.624887
1670  2023-10-26 14:19:37.656791
1671  2023-10-26 14:19:37.688740
1672  2023-10-26 14:19:37.720660
1673  2023-10-26 14:19:37.752533
1674  2023-10-26 14:19:37.784469
1675  2023-10-26 14:19:37.816369
1676  2023-10-26 14:19:37.848280
1677  2023-10-26 14:19:37.881189
1678  2023-10-26 14:19:37.913156
1679  2023-10-26 14:19:37.960979
1680  2023-10-26 14:19:37.992894
1681  2023-10-26 14:19:38.024775
1682  2023-10-26 14:19:38.056723
1683  2023-10-26 14:19:38.088637
1684  2023-10-26 14:19:38.120577
1685  2023-10-26 14:19:38.152434
1686  2023-10-26 14:19:38.184382
1687  2023-10-26 14:19:38.216297
1688  2023-10-26 14:19:38.249201
1689  2023-10-26 14:19:38.280126
1690  2023-10-26 14:19:38.313082
1691  2023-10-26 14:19:38.360921
1692  2023-10-26 14:19:38.392791
1693  2023-10-26 14:19:38.424706
1694  2023-10-26 14:19:38.456668
1695  2023-10-26 14:19:38.488583
1696  2023-10-26 14:19:38.520513
1697  2023-10-26 14:19:38.552401
1698  2023-10-26 14:19:38.585278
1699  2023-10-26 14:19:38.617278
1700  2023-10-26 14:19:38.649148
1701  2023-10-26 14:19:38.680822
1702  2023-10-26 14:19:38.712703
1703  2023-10-26 14:19:38.760705
1704  2023-10-26 14:19:38.792604
1705  2023-10-26 14:19:38.824529
1706  2023-10-26 14:19:38.856451
1707  2023-10-26 14:19:38.888349
1708  2023-10-26 14:19:38.920263
1709  2023-10-26 14:19:38.952147
1710  2023-10-26 14:19:38.985093
1711  2023-10-26 14:19:39.016207
1712  2023-10-26 14:19:39.048178
1713  2023-10-26 14:19:39.081106
1714  2023-10-26 14:19:39.113001
1715  2023-10-26 14:19:39.160933
1716  2023-10-26 14:19:39.192787
1717  2023-10-26 14:19:39.224750
1718  2023-10-26 14:19:39.256720
1719  2023-10-26 14:19:39.288613
1720  2023-10-26 14:19:39.320530
1721  2023-10-26 14:19:39.352441
1722  2023-10-26 14:19:39.384356
1723  2023-10-26 14:19:39.416272
1724  2023-10-26 14:19:39.449191
1725  2023-10-26 14:19:39.480100
1726  2023-10-26 14:19:39.513015
1727  2023-10-26 14:19:39.560884
1728  2023-10-26 14:19:39.592815
1729  2023-10-26 14:19:39.624712
1730  2023-10-26 14:19:39.656629
1731  2023-10-26 14:19:39.688541
1732  2023-10-26 14:19:39.720463
1733  2023-10-26 14:19:39.752371
1734  2023-10-26 14:19:39.784278
1735  2023-10-26 14:19:39.816208
1736  2023-10-26 14:19:39.849121
1737  2023-10-26 14:19:39.881040
1738  2023-10-26 14:19:39.912970
1739  2023-10-26 14:19:39.960814
1740  2023-10-26 14:19:39.992729
1741  2023-10-26 14:19:40.024611
1742  2023-10-26 14:19:40.056560
1743  2023-10-26 14:19:40.088488
1744  2023-10-26 14:19:40.120399
1745  2023-10-26 14:19:40.152317
1746  2023-10-26 14:19:40.184231
1747  2023-10-26 14:19:40.217143
1748  2023-10-26 14:19:40.249159
1749  2023-10-26 14:19:40.281028
1750  2023-10-26 14:19:40.313032
1751  2023-10-26 14:19:40.360943
1752  2023-10-26 14:19:40.392857
1753  2023-10-26 14:19:40.424740
1754  2023-10-26 14:19:40.456694
1755  2023-10-26 14:19:40.488604
1756  2023-10-26 14:19:40.520524
1757  2023-10-26 14:19:40.552430
1758  2023-10-26 14:19:40.584345
1759  2023-10-26 14:19:40.616234
1760  2023-10-26 14:19:40.648175
1761  2023-10-26 14:19:40.681094
1762  2023-10-26 14:19:40.713004
1763  2023-10-26 14:19:40.760874
1764  2023-10-26 14:19:40.792787
1765  2023-10-26 14:19:40.824702
1766  2023-10-26 14:19:40.856617
1767  2023-10-26 14:19:40.888532
1768  2023-10-26 14:19:40.920446
1769  2023-10-26 14:19:40.952362
1770  2023-10-26 14:19:40.984277
1771  2023-10-26 14:19:41.017192
1772  2023-10-26 14:19:41.049106
1773  2023-10-26 14:19:41.081021
1774  2023-10-26 14:19:41.128892
1775  2023-10-26 14:19:41.160809
1776  2023-10-26 14:19:41.192735
1777  2023-10-26 14:19:41.224602
1778  2023-10-26 14:19:41.256541
1779  2023-10-26 14:19:41.288431
1780  2023-10-26 14:19:41.320378
1781  2023-10-26 14:19:41.353259
1782  2023-10-26 14:19:41.385174
1783  2023-10-26 14:19:41.417087
1784  2023-10-26 14:19:41.449045
1785  2023-10-26 14:19:41.480918
1786  2023-10-26 14:19:41.528796
1787  2023-10-26 14:19:41.560737
1788  2023-10-26 14:19:41.592649
1789  2023-10-26 14:19:41.624559
1790  2023-10-26 14:19:41.657511
1791  2023-10-26 14:19:41.689424
1792  2023-10-26 14:19:41.720340
1793  2023-10-26 14:19:41.752319
1794  2023-10-26 14:19:41.785252
1795  2023-10-26 14:19:41.817149
1796  2023-10-26 14:19:41.849080
1797  2023-10-26 14:19:41.880970
1798  2023-10-26 14:19:41.928814
1799  2023-10-26 14:19:41.960757
1800  2023-10-26 14:19:41.992692
1801  2023-10-26 14:19:42.024647
1802  2023-10-26 14:19:42.056506
1803  2023-10-26 14:19:42.088412
1804  2023-10-26 14:19:42.120335
1805  2023-10-26 14:19:42.152253
1806  2023-10-26 14:19:42.185178
1807  2023-10-26 14:19:42.217079
1808  2023-10-26 14:19:42.249031
1809  2023-10-26 14:19:42.280926
1810  2023-10-26 14:19:42.328780
1811  2023-10-26 14:19:42.360691
1812  2023-10-26 14:19:42.392615
1813  2023-10-26 14:19:42.424529
1814  2023-10-26 14:19:42.456434
1815  2023-10-26 14:19:42.488395
1816  2023-10-26 14:19:42.520336
1817  2023-10-26 14:19:42.552250
1818  2023-10-26 14:19:42.584201
1819  2023-10-26 14:19:42.617053
1820  2023-10-26 14:19:42.648967
1821  2023-10-26 14:19:42.680919
1822  2023-10-26 14:19:42.728754
1823  2023-10-26 14:19:42.760721
1824  2023-10-26 14:19:42.792615
1825  2023-10-26 14:19:42.824529
1826  2023-10-26 14:19:42.856413
1827  2023-10-26 14:19:42.888327
1828  2023-10-26 14:19:42.920274
1829  2023-10-26 14:19:42.953188
1830  2023-10-26 14:19:42.985125
1831  2023-10-26 14:19:43.016983
1832  2023-10-26 14:19:43.048898
1833  2023-10-26 14:19:43.080840
1834  2023-10-26 14:19:43.128685
1835  2023-10-26 14:19:43.160636
1836  2023-10-26 14:19:43.192541
1837  2023-10-26 14:19:43.224488
1838  2023-10-26 14:19:43.257341
1839  2023-10-26 14:19:43.288258
1840  2023-10-26 14:19:43.321230
1841  2023-10-26 14:19:43.353111
1842  2023-10-26 14:19:43.385033
1843  2023-10-26 14:19:43.416914
1844  2023-10-26 14:19:43.448861
1845  2023-10-26 14:19:43.480775
1846  2023-10-26 14:19:43.528655
1847  2023-10-26 14:19:43.560568
1848  2023-10-26 14:19:43.592489
1849  2023-10-26 14:19:43.624406
1850  2023-10-26 14:19:43.656318
1851  2023-10-26 14:19:43.689186
1852  2023-10-26 14:19:43.721101
1853  2023-10-26 14:19:43.753015
1854  2023-10-26 14:19:43.784963
1855  2023-10-26 14:19:43.816895
1856  2023-10-26 14:19:43.848759
1857  2023-10-26 14:19:43.880582
1858  2023-10-26 14:19:43.928453
1859  2023-10-26 14:19:43.960368
1860  2023-10-26 14:19:43.992358
1861  2023-10-26 14:19:44.024240
1862  2023-10-26 14:19:44.057109
1863  2023-10-26 14:19:44.089024
1864  2023-10-26 14:19:44.121040
1865  2023-10-26 14:19:44.152955
1866  2023-10-26 14:19:44.184869
1867  2023-10-26 14:19:44.216784
1868  2023-10-26 14:19:44.248699
1869  2023-10-26 14:19:44.280652
1870  2023-10-26 14:19:44.328524
1871  2023-10-26 14:19:44.360439
1872  2023-10-26 14:19:44.393351
1873  2023-10-26 14:19:44.424312
1874  2023-10-26 14:19:44.456219
1875  2023-10-26 14:19:44.489095
1876  2023-10-26 14:19:44.521010
1877  2023-10-26 14:19:44.552924
1878  2023-10-26 14:19:44.584839
1879  2023-10-26 14:19:44.616754
1880  2023-10-26 14:19:44.648668
1881  2023-10-26 14:19:44.680583
1882  2023-10-26 14:19:44.728455
1883  2023-10-26 14:19:44.760371
1884  2023-10-26 14:19:44.792404
1885  2023-10-26 14:19:44.825317
1886  2023-10-26 14:19:44.857284
1887  2023-10-26 14:19:44.889192
1888  2023-10-26 14:19:44.921108
1889  2023-10-26 14:19:44.953023
1890  2023-10-26 14:19:44.984971
1891  2023-10-26 14:19:45.016935
1892  2023-10-26 14:19:45.048849
1893  2023-10-26 14:19:45.096721
1894  2023-10-26 14:19:45.128636
1895  2023-10-26 14:19:45.160582
1896  2023-10-26 14:19:45.192514
1897  2023-10-26 14:19:45.224380
1898  2023-10-26 14:19:45.256295
1899  2023-10-26 14:19:45.289024
1900  2023-10-26 14:19:45.321034
1901  2023-10-26 14:19:45.352884
1902  2023-10-26 14:19:45.384798
1903  2023-10-26 14:19:45.416713
1904  2023-10-26 14:19:45.448664
1905  2023-10-26 14:19:45.496533
1906  2023-10-26 14:19:45.528477
1907  2023-10-26 14:19:45.560329
1908  2023-10-26 14:19:45.592244
1909  2023-10-26 14:19:45.624158
1910  2023-10-26 14:19:45.657124
1911  2023-10-26 14:19:45.688986
1912  2023-10-26 14:19:45.720900
1913  2023-10-26 14:19:45.752927
1914  2023-10-26 14:19:45.784886
1915  2023-10-26 14:19:45.816972
1916  2023-10-26 14:19:45.848835
1917  2023-10-26 14:19:45.896707
1918  2023-10-26 14:19:45.928539
1919  2023-10-26 14:19:45.960550
1920  2023-10-26 14:19:45.992499
1921  2023-10-26 14:19:46.024380
1922  2023-10-26 14:19:46.056428
1923  2023-10-26 14:19:46.088344
1924  2023-10-26 14:19:46.120307
1925  2023-10-26 14:19:46.152372
1926  2023-10-26 14:19:46.184337
1927  2023-10-26 14:19:46.216251
1928  2023-10-26 14:19:46.248215
1929  2023-10-26 14:19:46.297035
1930  2023-10-26 14:19:46.328950
1931  2023-10-26 14:19:46.360865
1932  2023-10-26 14:19:46.392780
1933  2023-10-26 14:19:46.424694
1934  2023-10-26 14:19:46.456640
1935  2023-10-26 14:19:46.488523
1936  2023-10-26 14:19:46.520438
1937  2023-10-26 14:19:46.553350
1938  2023-10-26 14:19:46.584268
1939  2023-10-26 14:19:46.617180
1940  2023-10-26 14:19:46.649094
1941  2023-10-26 14:19:46.696966
1942  2023-10-26 14:19:46.728881
1943  2023-10-26 14:19:46.760795
1944  2023-10-26 14:19:46.792710
1945  2023-10-26 14:19:46.825623
1946  2023-10-26 14:19:46.856579
1947  2023-10-26 14:19:46.888454
1948  2023-10-26 14:19:46.920369
1949  2023-10-26 14:19:46.952294
1950  2023-10-26 14:19:46.985261
1951  2023-10-26 14:19:47.017114
1952  2023-10-26 14:19:47.049025
1953  2023-10-26 14:19:47.096472
1954  2023-10-26 14:19:47.128436
1955  2023-10-26 14:19:47.160351
1956  2023-10-26 14:19:47.192277
1957  2023-10-26 14:19:47.225128
1958  2023-10-26 14:19:47.256455
1959  2023-10-26 14:19:47.288404
1960  2023-10-26 14:19:47.320318
1961  2023-10-26 14:19:47.352264
1962  2023-10-26 14:19:47.384214
1963  2023-10-26 14:19:47.417123
1964  2023-10-26 14:19:47.449030
1965  2023-10-26 14:19:47.497074
1966  2023-10-26 14:19:47.529163
1967  2023-10-26 14:19:47.560992
1968  2023-10-26 14:19:47.592907
1969  2023-10-26 14:19:47.624822
1970  2023-10-26 14:19:47.656736
1971  2023-10-26 14:19:47.688651
1972  2023-10-26 14:19:47.720565
1973  2023-10-26 14:19:47.752481
1974  2023-10-26 14:19:47.784395
1975  2023-10-26 14:19:47.816309
1976  2023-10-26 14:19:47.848224
1977  2023-10-26 14:19:47.897094
1978  2023-10-26 14:19:47.929008
1979  2023-10-26 14:19:47.960923
1980  2023-10-26 14:19:47.992837
1981  2023-10-26 14:19:48.024752
1982  2023-10-26 14:19:48.056667
1983  2023-10-26 14:19:48.089055
1984  2023-10-26 14:19:48.121089
1985  2023-10-26 14:19:48.153004
1986  2023-10-26 14:19:48.184918
1987  2023-10-26 14:19:48.216833
1988  2023-10-26 14:19:48.248748
1989  2023-10-26 14:19:48.296620
1990  2023-10-26 14:19:48.328541
1991  2023-10-26 14:19:48.361495
1992  2023-10-26 14:19:48.392364
1993  2023-10-26 14:19:48.424279
1994  2023-10-26 14:19:48.457191
1995  2023-10-26 14:19:48.489125
1996  2023-10-26 14:19:48.521080
1997  2023-10-26 14:19:48.552935
1998  2023-10-26 14:19:48.584849
1999  2023-10-26 14:19:48.616803
2000  2023-10-26 14:19:48.664660
2001  2023-10-26 14:19:48.696558
2002  2023-10-26 14:19:48.728479
2003  2023-10-26 14:19:48.760427
2004  2023-10-26 14:19:48.792341
2005  2023-10-26 14:19:48.824311
2006  2023-10-26 14:19:48.857168
2007  2023-10-26 14:19:48.889083
2008  2023-10-26 14:19:48.921103
2009  2023-10-26 14:19:48.952960
2010  2023-10-26 14:19:48.984875
2011  2023-10-26 14:19:49.016869
2012  2023-10-26 14:19:49.064752
2013  2023-10-26 14:19:49.096655
2014  2023-10-26 14:19:49.128570
2015  2023-10-26 14:19:49.160534
2016  2023-10-26 14:19:49.192477
2017  2023-10-26 14:19:49.224377
2018  2023-10-26 14:19:49.256292
2019  2023-10-26 14:19:49.288248
2020  2023-10-26 14:19:49.320166
2021  2023-10-26 14:19:49.353033
2022  2023-10-26 14:19:49.384948
2023  2023-10-26 14:19:49.416862
2024  2023-10-26 14:19:49.464879
2025  2023-10-26 14:19:49.496794
2026  2023-10-26 14:19:49.528709
2027  2023-10-26 14:19:49.560739
2028  2023-10-26 14:19:49.592654
2029  2023-10-26 14:19:49.624569
2030  2023-10-26 14:19:49.656484
2031  2023-10-26 14:19:49.688398
2032  2023-10-26 14:19:49.720313
2033  2023-10-26 14:19:49.752358
2034  2023-10-26 14:19:49.784270
2035  2023-10-26 14:19:49.816185
2036  2023-10-26 14:19:49.865055
2037  2023-10-26 14:19:49.896969
2038  2023-10-26 14:19:49.928884
2039  2023-10-26 14:19:49.960798
2040  2023-10-26 14:19:49.992713
2041  2023-10-26 14:19:50.024628
2042  2023-10-26 14:19:50.056545
2043  2023-10-26 14:19:50.088460
2044  2023-10-26 14:19:50.120372
2045  2023-10-26 14:19:50.153284
2046  2023-10-26 14:19:50.184201
2047  2023-10-26 14:19:50.217113
2048  2023-10-26 14:19:50.264985
2049  2023-10-26 14:19:50.296900
2050  2023-10-26 14:19:50.328815
2051  2023-10-26 14:19:50.360779
2052  2023-10-26 14:19:50.392645
2053  2023-10-26 14:19:50.424597
2054  2023-10-26 14:19:50.456551
2055  2023-10-26 14:19:50.488520
2056  2023-10-26 14:19:50.520380
2057  2023-10-26 14:19:50.552295
2058  2023-10-26 14:19:50.585207
2059  2023-10-26 14:19:50.617150
2060  2023-10-26 14:19:50.665006
2061  2023-10-26 14:19:50.696944
2062  2023-10-26 14:19:50.728823
2063  2023-10-26 14:19:50.760738
2064  2023-10-26 14:19:50.792775
2065  2023-10-26 14:19:50.824699
2066  2023-10-26 14:19:50.856683
2067  2023-10-26 14:19:50.888598
2068  2023-10-26 14:19:50.920512
2069  2023-10-26 14:19:50.952471
2070  2023-10-26 14:19:50.984391
2071  2023-10-26 14:19:51.016256
2072  2023-10-26 14:19:51.065126
2073  2023-10-26 14:19:51.097041
2074  2023-10-26 14:19:51.128955
2075  2023-10-26 14:19:51.160900
2076  2023-10-26 14:19:51.192818
2077  2023-10-26 14:19:51.224699
2078  2023-10-26 14:19:51.256614
2079  2023-10-26 14:19:51.288597
2080  2023-10-26 14:19:51.320482
2081  2023-10-26 14:19:51.352358
2082  2023-10-26 14:19:51.384272
2083  2023-10-26 14:19:51.417250
2084  2023-10-26 14:19:51.465056
2085  2023-10-26 14:19:51.497002
2086  2023-10-26 14:19:51.528985
2087  2023-10-26 14:19:51.560899
2088  2023-10-26 14:19:51.592940
2089  2023-10-26 14:19:51.624854
2090  2023-10-26 14:19:51.656769
2091  2023-10-26 14:19:51.688684
2092  2023-10-26 14:19:51.720495
2093  2023-10-26 14:19:51.752463
2094  2023-10-26 14:19:51.784364
2095  2023-10-26 14:19:51.816279
2096  2023-10-26 14:19:51.865149
2097  2023-10-26 14:19:51.897064
2098  2023-10-26 14:19:51.928978
2099  2023-10-26 14:19:51.960976
2100  2023-10-26 14:19:51.992898
2101  2023-10-26 14:19:52.024802
2102  2023-10-26 14:19:52.057098
2103  2023-10-26 14:19:52.089013
2104  2023-10-26 14:19:52.120927
2105  2023-10-26 14:19:52.152847
2106  2023-10-26 14:19:52.184757
2107  2023-10-26 14:19:52.232629
2108  2023-10-26 14:19:52.264546
2109  2023-10-26 14:19:52.296511
2110  2023-10-26 14:19:52.328509
2111  2023-10-26 14:19:52.360387
2112  2023-10-26 14:19:52.392342
2113  2023-10-26 14:19:52.424295
2114  2023-10-26 14:19:52.457208
2115  2023-10-26 14:19:52.489182
2116  2023-10-26 14:19:52.521037
2117  2023-10-26 14:19:52.553220
2118  2023-10-26 14:19:52.585136
2119  2023-10-26 14:19:52.633091
2120  2023-10-26 14:19:52.665058
2121  2023-10-26 14:19:52.696971
2122  2023-10-26 14:19:52.728835
2123  2023-10-26 14:19:52.762431
2124  2023-10-26 14:19:52.792389
2125  2023-10-26 14:19:52.825397
2126  2023-10-26 14:19:52.857278
2127  2023-10-26 14:19:52.889242
2128  2023-10-26 14:19:52.921107
2129  2023-10-26 14:19:52.954052
2130  2023-10-26 14:19:52.984971
2131  2023-10-26 14:19:53.033837
2132  2023-10-26 14:19:53.065767
2133  2023-10-26 14:19:53.097683
2134  2023-10-26 14:19:53.129619
2135  2023-10-26 14:19:53.161511
2136  2023-10-26 14:19:53.193409
2137  2023-10-26 14:19:53.225380
2138  2023-10-26 14:19:53.257250
2139  2023-10-26 14:19:53.289207
2140  2023-10-26 14:19:53.321037
2141  2023-10-26 14:19:53.353047
2142  2023-10-26 14:19:53.384962
2143  2023-10-26 14:19:53.432833
2144  2023-10-26 14:19:53.465745
2145  2023-10-26 14:19:53.497702
2146  2023-10-26 14:19:53.529610
2147  2023-10-26 14:19:53.561548
2148  2023-10-26 14:19:53.593440
2149  2023-10-26 14:19:53.625450
2150  2023-10-26 14:19:53.657365
2151  2023-10-26 14:19:53.689288
2152  2023-10-26 14:19:53.721194
2153  2023-10-26 14:19:53.753115
2154  2023-10-26 14:19:53.784976
2155  2023-10-26 14:19:53.832851
2156  2023-10-26 14:19:53.865768
2157  2023-10-26 14:19:53.897675
2158  2023-10-26 14:19:53.929591
2159  2023-10-26 14:19:53.960508
2160  2023-10-26 14:19:53.993426
2161  2023-10-26 14:19:54.025335
2162  2023-10-26 14:19:54.057250
2163  2023-10-26 14:19:54.088288
2164  2023-10-26 14:19:54.120239
2165  2023-10-26 14:19:54.153141
2166  2023-10-26 14:19:54.185081
2167  2023-10-26 14:19:54.232934
2168  2023-10-26 14:19:54.264877
2169  2023-10-26 14:19:54.296770
2170  2023-10-26 14:19:54.328677
2171  2023-10-26 14:19:54.360604
2172  2023-10-26 14:19:54.392511
2173  2023-10-26 14:19:54.424437
2174  2023-10-26 14:19:54.456336
2175  2023-10-26 14:19:54.489246
2176  2023-10-26 14:19:54.521219
2177  2023-10-26 14:19:54.553134
2178  2023-10-26 14:19:54.585159
2179  2023-10-26 14:19:54.633031
2180  2023-10-26 14:19:54.664990
2181  2023-10-26 14:19:54.697904
2182  2023-10-26 14:19:54.729821
2183  2023-10-26 14:19:54.760695
2184  2023-10-26 14:19:54.792667
2185  2023-10-26 14:19:54.825551
2186  2023-10-26 14:19:54.857432
2187  2023-10-26 14:19:54.889382
2188  2023-10-26 14:19:54.921301
2189  2023-10-26 14:19:54.953228
2190  2023-10-26 14:19:54.986246
2191  2023-10-26 14:19:55.033122
2192  2023-10-26 14:19:55.065006
2193  2023-10-26 14:19:55.097956
2194  2023-10-26 14:19:55.129883
2195  2023-10-26 14:19:55.160781
2196  2023-10-26 14:19:55.192664
2197  2023-10-26 14:19:55.225627
2198  2023-10-26 14:19:55.257525
2199  2023-10-26 14:19:55.289456
2200  2023-10-26 14:19:55.320323
2201  2023-10-26 14:19:55.352283
2202  2023-10-26 14:19:55.385178
2203  2023-10-26 14:19:55.433021
2204  2023-10-26 14:19:55.464962
2205  2023-10-26 14:19:55.496882
2206  2023-10-26 14:19:55.528766
2207  2023-10-26 14:19:55.560680
2208  2023-10-26 14:19:55.592642
2209  2023-10-26 14:19:55.624739
2210  2023-10-26 14:19:55.657734
2211  2023-10-26 14:19:55.689663
2212  2023-10-26 14:19:55.720527
2213  2023-10-26 14:19:55.752544
2214  2023-10-26 14:19:55.785541
2215  2023-10-26 14:19:55.832596
2216  2023-10-26 14:19:55.865538
2217  2023-10-26 14:19:55.896454
2218  2023-10-26 14:19:55.929364
2219  2023-10-26 14:19:55.960299
2220  2023-10-26 14:19:55.992169
2221  2023-10-26 14:19:56.025139
2222  2023-10-26 14:19:56.057056
2223  2023-10-26 14:19:56.088941
2224  2023-10-26 14:19:56.120890
2225  2023-10-26 14:19:56.153231
2226  2023-10-26 14:19:56.200233
2227  2023-10-26 14:19:56.232332
2228  2023-10-26 14:19:56.264200
2229  2023-10-26 14:19:56.297112
2230  2023-10-26 14:19:56.329080
2231  2023-10-26 14:19:56.360985
2232  2023-10-26 14:19:56.392855
2233  2023-10-26 14:19:56.424770
2234  2023-10-26 14:19:56.456722
2235  2023-10-26 14:19:56.488658
2236  2023-10-26 14:19:56.520549
2237  2023-10-26 14:19:56.552459
2238  2023-10-26 14:19:56.600336
2239  2023-10-26 14:19:56.632251
2240  2023-10-26 14:19:56.664161
2241  2023-10-26 14:19:56.697077
2242  2023-10-26 14:19:56.728958
2243  2023-10-26 14:19:56.760879
2244  2023-10-26 14:19:56.792818
2245  2023-10-26 14:19:56.824752
2246  2023-10-26 14:19:56.856651
2247  2023-10-26 14:19:56.888610
2248  2023-10-26 14:19:56.920485
2249  2023-10-26 14:19:56.952391
2250  2023-10-26 14:19:57.000299
2251  2023-10-26 14:19:57.032178
2252  2023-10-26 14:19:57.065067
2253  2023-10-26 14:19:57.097003
2254  2023-10-26 14:19:57.128918
2255  2023-10-26 14:19:57.160835
2256  2023-10-26 14:19:57.192717
2257  2023-10-26 14:19:57.224632
2258  2023-10-26 14:19:57.256578
2259  2023-10-26 14:19:57.288505
2260  2023-10-26 14:19:57.320377
2261  2023-10-26 14:19:57.352321
2262  2023-10-26 14:19:57.400170
2263  2023-10-26 14:19:57.433082
2264  2023-10-26 14:19:57.464989
2265  2023-10-26 14:19:57.496940
2266  2023-10-26 14:19:57.528859
2267  2023-10-26 14:19:57.560768
2268  2023-10-26 14:19:57.592648
2269  2023-10-26 14:19:57.624725
2270  2023-10-26 14:19:57.656640
2271  2023-10-26 14:19:57.688537
2272  2023-10-26 14:19:57.720451
2273  2023-10-26 14:19:57.752367
2274  2023-10-26 14:19:57.800285
2275  2023-10-26 14:19:57.832121
2276  2023-10-26 14:19:57.865033
2277  2023-10-26 14:19:57.896983
2278  2023-10-26 14:19:57.928896
2279  2023-10-26 14:19:57.960828
2280  2023-10-26 14:19:57.992741
2281  2023-10-26 14:19:58.024626
2282  2023-10-26 14:19:58.056556
2283  2023-10-26 14:19:58.088471
2284  2023-10-26 14:19:58.120424
2285  2023-10-26 14:19:58.152378
2286  2023-10-26 14:19:58.201269
2287  2023-10-26 14:19:58.233164
2288  2023-10-26 14:19:58.264080
2289  2023-10-26 14:19:58.297006
2290  2023-10-26 14:19:58.328911
2291  2023-10-26 14:19:58.360838
2292  2023-10-26 14:19:58.392750
2293  2023-10-26 14:19:58.424623
2294  2023-10-26 14:19:58.456562
2295  2023-10-26 14:19:58.488448
2296  2023-10-26 14:19:58.520398
2297  2023-10-26 14:19:58.552321
2298  2023-10-26 14:19:58.600263
2299  2023-10-26 14:19:58.632178
2300  2023-10-26 14:19:58.665111
2301  2023-10-26 14:19:58.696994
2302  2023-10-26 14:19:58.728913
2303  2023-10-26 14:19:58.760844
2304  2023-10-26 14:19:58.792743
2305  2023-10-26 14:19:58.824666
2306  2023-10-26 14:19:58.856576
2307  2023-10-26 14:19:58.888497
2308  2023-10-26 14:19:58.920413
2309  2023-10-26 14:19:58.952331
2310  2023-10-26 14:19:59.000201
2311  2023-10-26 14:19:59.033110
2312  2023-10-26 14:19:59.064996
2313  2023-10-26 14:19:59.096910
2314  2023-10-26 14:19:59.128863
2315  2023-10-26 14:19:59.160775
2316  2023-10-26 14:19:59.192689
2317  2023-10-26 14:19:59.224569
2318  2023-10-26 14:19:59.256519
2319  2023-10-26 14:19:59.288421
2320  2023-10-26 14:19:59.320398
2321  2023-10-26 14:19:59.352314
2322  2023-10-26 14:19:59.400185
2323  2023-10-26 14:19:59.433112
2324  2023-10-26 14:19:59.465012
2325  2023-10-26 14:19:59.496895
2326  2023-10-26 14:19:59.528857
2327  2023-10-26 14:19:59.560851
2328  2023-10-26 14:19:59.592813
2329  2023-10-26 14:19:59.624711
2330  2023-10-26 14:19:59.656625
2331  2023-10-26 14:19:59.688501
2332  2023-10-26 14:19:59.720446
2333  2023-10-26 14:19:59.768318
2334  2023-10-26 14:19:59.800248
2335  2023-10-26 14:19:59.832147
2336  2023-10-26 14:19:59.865064
2337  2023-10-26 14:19:59.896943
2338  2023-10-26 14:19:59.928895
2339  2023-10-26 14:19:59.960805
2340  2023-10-26 14:19:59.992722
2341  2023-10-26 14:20:00.024602
2342  2023-10-26 14:20:00.056518
2343  2023-10-26 14:20:00.088466
2344  2023-10-26 14:20:00.120376
2345  2023-10-26 14:20:00.168252
2346  2023-10-26 14:20:00.200178
2347  2023-10-26 14:20:00.233123
2348  2023-10-26 14:20:00.264959
2349  2023-10-26 14:20:00.296910
2350  2023-10-26 14:20:00.328822
2351  2023-10-26 14:20:00.360734
2352  2023-10-26 14:20:00.392690
2353  2023-10-26 14:20:00.424532
2354  2023-10-26 14:20:00.456493
2355  2023-10-26 14:20:00.488393
2356  2023-10-26 14:20:00.520307
2357  2023-10-26 14:20:00.568233
2358  2023-10-26 14:20:00.601115
2359  2023-10-26 14:20:00.633029
2360  2023-10-26 14:20:00.665069
2361  2023-10-26 14:20:00.696981
2362  2023-10-26 14:20:00.728899
2363  2023-10-26 14:20:00.760814
2364  2023-10-26 14:20:00.792692
2365  2023-10-26 14:20:00.824616
2366  2023-10-26 14:20:00.856582
2367  2023-10-26 14:20:00.888478
2368  2023-10-26 14:20:00.920396
2369  2023-10-26 14:20:00.968312
2370  2023-10-26 14:20:01.001214
2371  2023-10-26 14:20:01.033189
2372  2023-10-26 14:20:01.065080
2373  2023-10-26 14:20:01.097023
2374  2023-10-26 14:20:01.128908
2375  2023-10-26 14:20:01.160828
2376  2023-10-26 14:20:01.192736
2377  2023-10-26 14:20:01.224684
2378  2023-10-26 14:20:01.256623
2379  2023-10-26 14:20:01.288510
2380  2023-10-26 14:20:01.320395
2381  2023-10-26 14:20:01.368322
2382  2023-10-26 14:20:01.401202
2383  2023-10-26 14:20:01.433135
2384  2023-10-26 14:20:01.465037
2385  2023-10-26 14:20:01.496959
2386  2023-10-26 14:20:01.528868
2387  2023-10-26 14:20:01.560783
2388  2023-10-26 14:20:01.592713
2389  2023-10-26 14:20:01.624623
2390  2023-10-26 14:20:01.656546
2391  2023-10-26 14:20:01.688441
2392  2023-10-26 14:20:01.720355
2393  2023-10-26 14:20:01.768195
2394  2023-10-26 14:20:01.801151
2395  2023-10-26 14:20:01.833055
2396  2023-10-26 14:20:01.865064
2397  2023-10-26 14:20:01.896931
2398  2023-10-26 14:20:01.928888
2399  2023-10-26 14:20:01.960793
2400  2023-10-26 14:20:01.992727
2401  2023-10-26 14:20:02.024660
2402  2023-10-26 14:20:02.056538
2403  2023-10-26 14:20:02.088450
2404  2023-10-26 14:20:02.120364
2405  2023-10-26 14:20:02.168237
2406  2023-10-26 14:20:02.201163
2407  2023-10-26 14:20:02.233068
2408  2023-10-26 14:20:02.264996
2409  2023-10-26 14:20:02.296862
2410  2023-10-26 14:20:02.328810
2411  2023-10-26 14:20:02.360742
2412  2023-10-26 14:20:02.392689
2413  2023-10-26 14:20:02.424562
2414  2023-10-26 14:20:02.456482
2415  2023-10-26 14:20:02.488381
2416  2023-10-26 14:20:02.520296
2417  2023-10-26 14:20:02.569134
2418  2023-10-26 14:20:02.601112
2419  2023-10-26 14:20:02.633088
2420  2023-10-26 14:20:02.665001
2421  2023-10-26 14:20:02.696948
2422  2023-10-26 14:20:02.728864
2423  2023-10-26 14:20:02.761001
2424  2023-10-26 14:20:02.793044
2425  2023-10-26 14:20:02.824944
2426  2023-10-26 14:20:02.856823
2427  2023-10-26 14:20:02.888738
2428  2023-10-26 14:20:02.920683
2429  2023-10-26 14:20:02.968525
2430  2023-10-26 14:20:03.000472
2431  2023-10-26 14:20:03.032386
2432  2023-10-26 14:20:03.064301
2433  2023-10-26 14:20:03.096183
2434  2023-10-26 14:20:03.129095
2435  2023-10-26 14:20:03.161042
2436  2023-10-26 14:20:03.192927
2437  2023-10-26 14:20:03.224873
2438  2023-10-26 14:20:03.256754
2439  2023-10-26 14:20:03.288669
2440  2023-10-26 14:20:03.320624
2441  2023-10-26 14:20:03.368465
2442  2023-10-26 14:20:03.400410
2443  2023-10-26 14:20:03.432335
2444  2023-10-26 14:20:03.464248
2445  2023-10-26 14:20:03.497148
2446  2023-10-26 14:20:03.529062
2447  2023-10-26 14:20:03.560941
2448  2023-10-26 14:20:03.592907
2449  2023-10-26 14:20:03.624821
2450  2023-10-26 14:20:03.656738
2451  2023-10-26 14:20:03.688599
2452  2023-10-26 14:20:03.736534
2453  2023-10-26 14:20:03.768386
2454  2023-10-26 14:20:03.800301
2455  2023-10-26 14:20:03.832263
2456  2023-10-26 14:20:03.864178
2457  2023-10-26 14:20:03.897122
2458  2023-10-26 14:20:03.928957
2459  2023-10-26 14:20:03.960871
2460  2023-10-26 14:20:03.992822
2461  2023-10-26 14:20:04.024736
2462  2023-10-26 14:20:04.056656
2463  2023-10-26 14:20:04.088530
2464  2023-10-26 14:20:04.136435
2465  2023-10-26 14:20:04.168317
2466  2023-10-26 14:20:04.200268
2467  2023-10-26 14:20:04.233144
2468  2023-10-26 14:20:04.265058
2469  2023-10-26 14:20:04.297005
2470  2023-10-26 14:20:04.328928
2471  2023-10-26 14:20:04.360802
2472  2023-10-26 14:20:04.392769
2473  2023-10-26 14:20:04.424724
2474  2023-10-26 14:20:04.456593
2475  2023-10-26 14:20:04.488461
2476  2023-10-26 14:20:04.536366
2477  2023-10-26 14:20:04.568253
2478  2023-10-26 14:20:04.600162
2479  2023-10-26 14:20:04.633074
2480  2023-10-26 14:20:04.664989
2481  2023-10-26 14:20:04.696904
2482  2023-10-26 14:20:04.728818
2483  2023-10-26 14:20:04.760733
2484  2023-10-26 14:20:04.792665
2485  2023-10-26 14:20:04.824562
2486  2023-10-26 14:20:04.856522
2487  2023-10-26 14:20:04.888392
2488  2023-10-26 14:20:04.937261
2489  2023-10-26 14:20:04.969220
2490  2023-10-26 14:20:05.001136
2491  2023-10-26 14:20:05.033051
2492  2023-10-26 14:20:05.065014
2493  2023-10-26 14:20:05.096996
2494  2023-10-26 14:20:05.128911
2495  2023-10-26 14:20:05.160869
2496  2023-10-26 14:20:05.192770
2497  2023-10-26 14:20:05.224655
2498  2023-10-26 14:20:05.256310
2499  2023-10-26 14:20:05.289220
2500  2023-10-26 14:20:05.336156
2501  2023-10-26 14:20:05.369110
2502  2023-10-26 14:20:05.401013
2503  2023-10-26 14:20:05.432897
2504  2023-10-26 14:20:05.464811
2505  2023-10-26 14:20:05.496758
2506  2023-10-26 14:20:05.528635
2507  2023-10-26 14:20:05.560705
2508  2023-10-26 14:20:05.592656
2509  2023-10-26 14:20:05.624624
2510  2023-10-26 14:20:05.656537
2511  2023-10-26 14:20:05.688400
2512  2023-10-26 14:20:05.736338
2513  2023-10-26 14:20:05.768334
2514  2023-10-26 14:20:05.801246
2515  2023-10-26 14:20:05.832200
2516  2023-10-26 14:20:05.865131
2517  2023-10-26 14:20:05.896990
2518  2023-10-26 14:20:05.928905
2519  2023-10-26 14:20:05.960819
2520  2023-10-26 14:20:05.992769
2521  2023-10-26 14:20:06.024649
2522  2023-10-26 14:20:06.056563
2523  2023-10-26 14:20:06.088478
2524  2023-10-26 14:20:06.136350
2525  2023-10-26 14:20:06.169262
2526  2023-10-26 14:20:06.201177
2527  2023-10-26 14:20:06.233092
2528  2023-10-26 14:20:06.265006
2529  2023-10-26 14:20:06.296926
2530  2023-10-26 14:20:06.328836
2531  2023-10-26 14:20:06.360750
2532  2023-10-26 14:20:06.392665
2533  2023-10-26 14:20:06.424580
2534  2023-10-26 14:20:06.456494
2535  2023-10-26 14:20:06.489407
2536  2023-10-26 14:20:06.536281
2537  2023-10-26 14:20:06.569195
2538  2023-10-26 14:20:06.601111
2539  2023-10-26 14:20:06.633022
2540  2023-10-26 14:20:06.664937
2541  2023-10-26 14:20:06.696852
2542  2023-10-26 14:20:06.728766
2543  2023-10-26 14:20:06.760681
2544  2023-10-26 14:20:06.792609
2545  2023-10-26 14:20:06.824542
2546  2023-10-26 14:20:06.856453
2547  2023-10-26 14:20:06.888340
2548  2023-10-26 14:20:06.936212
2549  2023-10-26 14:20:06.969124
2550  2023-10-26 14:20:07.001039
2551  2023-10-26 14:20:07.032993
2552  2023-10-26 14:20:07.064868
2553  2023-10-26 14:20:07.096782
2554  2023-10-26 14:20:07.128697
2555  2023-10-26 14:20:07.160649
2556  2023-10-26 14:20:07.192526
2557  2023-10-26 14:20:07.224441
2558  2023-10-26 14:20:07.256356
2559  2023-10-26 14:20:07.304228
2560  2023-10-26 14:20:07.337140
2561  2023-10-26 14:20:07.369102
2562  2023-10-26 14:20:07.401002
2563  2023-10-26 14:20:07.432884
2564  2023-10-26 14:20:07.464798
2565  2023-10-26 14:20:07.496713
2566  2023-10-26 14:20:07.528728
2567  2023-10-26 14:20:07.560640
2568  2023-10-26 14:20:07.592552
2569  2023-10-26 14:20:07.624466
2570  2023-10-26 14:20:07.656381
2571  2023-10-26 14:20:07.704255
2572  2023-10-26 14:20:07.737167
2573  2023-10-26 14:20:07.769082
2574  2023-10-26 14:20:07.800996
2575  2023-10-26 14:20:07.832960
2576  2023-10-26 14:20:07.864918
2577  2023-10-26 14:20:07.896884
2578  2023-10-26 14:20:07.928750
2579  2023-10-26 14:20:07.960710
2580  2023-10-26 14:20:07.992613
2581  2023-10-26 14:20:08.024564
2582  2023-10-26 14:20:08.056523
2583  2023-10-26 14:20:08.104410
2584  2023-10-26 14:20:08.136354
2585  2023-10-26 14:20:08.168270
2586  2023-10-26 14:20:08.201258
2587  2023-10-26 14:20:08.233148
2588  2023-10-26 14:20:08.264485
2589  2023-10-26 14:20:08.296505
2590  2023-10-26 14:20:08.328498
2591  2023-10-26 14:20:08.360419
2592  2023-10-26 14:20:08.393293
2593  2023-10-26 14:20:08.425208
2594  2023-10-26 14:20:08.457122
2595  2023-10-26 14:20:08.504995
2596  2023-10-26 14:20:08.536943
2597  2023-10-26 14:20:08.568857
2598  2023-10-26 14:20:08.600738
2599  2023-10-26 14:20:08.632653
2600  2023-10-26 14:20:08.664608
2601  2023-10-26 14:20:08.696484
2602  2023-10-26 14:20:08.729397
2603  2023-10-26 14:20:08.760313
2604  2023-10-26 14:20:08.792228
2605  2023-10-26 14:20:08.825140
2606  2023-10-26 14:20:08.857053
2607  2023-10-26 14:20:08.904925
2608  2023-10-26 14:20:08.936839
2609  2023-10-26 14:20:08.968754
2610  2023-10-26 14:20:09.000669
2611  2023-10-26 14:20:09.032584
2612  2023-10-26 14:20:09.064498
2613  2023-10-26 14:20:09.096413
2614  2023-10-26 14:20:09.128507
2615  2023-10-26 14:20:09.160406
2616  2023-10-26 14:20:09.192707
2617  2023-10-26 14:20:09.224622
2618  2023-10-26 14:20:09.256582
2619  2023-10-26 14:20:09.304449
2620  2023-10-26 14:20:09.336363
2621  2023-10-26 14:20:09.368278
2622  2023-10-26 14:20:09.401217
2623  2023-10-26 14:20:09.433105
2624  2023-10-26 14:20:09.465020
2625  2023-10-26 14:20:09.496934
2626  2023-10-26 14:20:09.528851
2627  2023-10-26 14:20:09.560763
2628  2023-10-26 14:20:09.592678
2629  2023-10-26 14:20:09.624593
2630  2023-10-26 14:20:09.656538
2631  2023-10-26 14:20:09.704379
2632  2023-10-26 14:20:09.736344
2633  2023-10-26 14:20:09.768331
2634  2023-10-26 14:20:09.800337
2635  2023-10-26 14:20:09.832261
2636  2023-10-26 14:20:09.865203
2637  2023-10-26 14:20:09.897088
2638  2023-10-26 14:20:09.929003
2639  2023-10-26 14:20:09.960917
2640  2023-10-26 14:20:09.992870
2641  2023-10-26 14:20:10.024747
2642  2023-10-26 14:20:10.056661
2643  2023-10-26 14:20:10.104534
2644  2023-10-26 14:20:10.136448
2645  2023-10-26 14:20:10.168363
2646  2023-10-26 14:20:10.200278
2647  2023-10-26 14:20:10.232192
2648  2023-10-26 14:20:10.265104
2649  2023-10-26 14:20:10.297019
2650  2023-10-26 14:20:10.328934
2651  2023-10-26 14:20:10.360966
2652  2023-10-26 14:20:10.392880
2653  2023-10-26 14:20:10.424795
2654  2023-10-26 14:20:10.456710
2655  2023-10-26 14:20:10.504582
2656  2023-10-26 14:20:10.536506
2657  2023-10-26 14:20:10.568411
2658  2023-10-26 14:20:10.600326
2659  2023-10-26 14:20:10.633238
2660  2023-10-26 14:20:10.665153
2661  2023-10-26 14:20:10.697137
2662  2023-10-26 14:20:10.729128
2663  2023-10-26 14:20:10.761153
2664  2023-10-26 14:20:10.793071
2665  2023-10-26 14:20:10.824934
2666  2023-10-26 14:20:10.872937
2667  2023-10-26 14:20:10.904858
2668  2023-10-26 14:20:10.936730
2669  2023-10-26 14:20:10.968645
2670  2023-10-26 14:20:11.000559
2671  2023-10-26 14:20:11.032510
2672  2023-10-26 14:20:11.064425
2673  2023-10-26 14:20:11.096303
2674  2023-10-26 14:20:11.129215
2675  2023-10-26 14:20:11.161138
2676  2023-10-26 14:20:11.193045
2677  2023-10-26 14:20:11.224960
2678  2023-10-26 14:20:11.272832
2679  2023-10-26 14:20:11.304746
2680  2023-10-26 14:20:11.336661
2681  2023-10-26 14:20:11.368719
2682  2023-10-26 14:20:11.400635
2683  2023-10-26 14:20:11.432547
2684  2023-10-26 14:20:11.464462
2685  2023-10-26 14:20:11.496407
2686  2023-10-26 14:20:11.529289
2687  2023-10-26 14:20:11.560206
2688  2023-10-26 14:20:11.593131
2689  2023-10-26 14:20:11.625033
2690  2023-10-26 14:20:11.672905
2691  2023-10-26 14:20:11.704819
2692  2023-10-26 14:20:11.736734
2693  2023-10-26 14:20:11.768649
2694  2023-10-26 14:20:11.800564
2695  2023-10-26 14:20:11.832478
2696  2023-10-26 14:20:11.864393
2697  2023-10-26 14:20:11.896307
2698  2023-10-26 14:20:11.928222
2699  2023-10-26 14:20:11.961144
2700  2023-10-26 14:20:11.993049
2701  2023-10-26 14:20:12.025096
2702  2023-10-26 14:20:12.072967
2703  2023-10-26 14:20:12.104882
2704  2023-10-26 14:20:12.136797
2705  2023-10-26 14:20:12.168711
2706  2023-10-26 14:20:12.200626
2707  2023-10-26 14:20:12.232612
2708  2023-10-26 14:20:12.264459
2709  2023-10-26 14:20:12.296370
2710  2023-10-26 14:20:12.328327
2711  2023-10-26 14:20:12.361229
2712  2023-10-26 14:20:12.394172
2713  2023-10-26 14:20:12.426058
2714  2023-10-26 14:20:12.472898
2715  2023-10-26 14:20:12.504813
2716  2023-10-26 14:20:12.538723
2717  2023-10-26 14:20:12.568690
2718  2023-10-26 14:20:12.601768
2719  2023-10-26 14:20:12.633667
2720  2023-10-26 14:20:12.666547
2721  2023-10-26 14:20:12.697504
2722  2023-10-26 14:20:12.730419
2723  2023-10-26 14:20:12.762290
2724  2023-10-26 14:20:12.794134
2725  2023-10-26 14:20:12.826040
2726  2023-10-26 14:20:12.873897
2727  2023-10-26 14:20:12.905812
2728  2023-10-26 14:20:12.937728
2729  2023-10-26 14:20:12.969675
2730  2023-10-26 14:20:13.001576
2731  2023-10-26 14:20:13.033467
2732  2023-10-26 14:20:13.066353
2733  2023-10-26 14:20:13.097332
2734  2023-10-26 14:20:13.129246
2735  2023-10-26 14:20:13.161133
2736  2023-10-26 14:20:13.194042
2737  2023-10-26 14:20:13.225960
2738  2023-10-26 14:20:13.273831
2739  2023-10-26 14:20:13.305752
2740  2023-10-26 14:20:13.337674
2741  2023-10-26 14:20:13.369578
2742  2023-10-26 14:20:13.401507
2743  2023-10-26 14:20:13.433371
2744  2023-10-26 14:20:13.465287
2745  2023-10-26 14:20:13.497201
2746  2023-10-26 14:20:13.529171
2747  2023-10-26 14:20:13.561062
2748  2023-10-26 14:20:13.592984
2749  2023-10-26 14:20:13.625862
2750  2023-10-26 14:20:13.672874
2751  2023-10-26 14:20:13.704778
2752  2023-10-26 14:20:13.736687
2753  2023-10-26 14:20:13.768600
2754  2023-10-26 14:20:13.800501
2755  2023-10-26 14:20:13.832384
2756  2023-10-26 14:20:13.865341
2757  2023-10-26 14:20:13.897257
2758  2023-10-26 14:20:13.929178
2759  2023-10-26 14:20:13.961077
2760  2023-10-26 14:20:13.993001
2761  2023-10-26 14:20:14.024906
2762  2023-10-26 14:20:14.072621
2763  2023-10-26 14:20:14.104542
2764  2023-10-26 14:20:14.136502
2765  2023-10-26 14:20:14.168419
2766  2023-10-26 14:20:14.201277
2767  2023-10-26 14:20:14.233198
2768  2023-10-26 14:20:14.265109
2769  2023-10-26 14:20:14.297074
2770  2023-10-26 14:20:14.328936
2771  2023-10-26 14:20:14.360894
2772  2023-10-26 14:20:14.392767
2773  2023-10-26 14:20:14.424681
2774  2023-10-26 14:20:14.472585
2775  2023-10-26 14:20:14.506494
2776  2023-10-26 14:20:14.536455
2777  2023-10-26 14:20:14.570448
2778  2023-10-26 14:20:14.600363
2779  2023-10-26 14:20:14.632294
2780  2023-10-26 14:20:14.666180
2781  2023-10-26 14:20:14.698127
2782  2023-10-26 14:20:14.730008
2783  2023-10-26 14:20:14.761028
2784  2023-10-26 14:20:14.792975
2785  2023-10-26 14:20:14.840959
2786  2023-10-26 14:20:14.872907
2787  2023-10-26 14:20:14.905894
2788  2023-10-26 14:20:14.937813
2789  2023-10-26 14:20:14.969727
2790  2023-10-26 14:20:15.000693
2791  2023-10-26 14:20:15.033633
2792  2023-10-26 14:20:15.064554
2793  2023-10-26 14:20:15.098479
2794  2023-10-26 14:20:15.130347
2795  2023-10-26 14:20:15.160294
2796  2023-10-26 14:20:15.193181
2797  2023-10-26 14:20:15.241051
2798  2023-10-26 14:20:15.272994
2799  2023-10-26 14:20:15.305943
2800  2023-10-26 14:20:15.337840
2801  2023-10-26 14:20:15.369739
2802  2023-10-26 14:20:15.400675
2803  2023-10-26 14:20:15.432539
2804  2023-10-26 14:20:15.464453
2805  2023-10-26 14:20:15.497395
2806  2023-10-26 14:20:15.529314
2807  2023-10-26 14:20:15.561262
2808  2023-10-26 14:20:15.593109
2809  2023-10-26 14:20:15.641029
2810  2023-10-26 14:20:15.672896
2811  2023-10-26 14:20:15.704864
2812  2023-10-26 14:20:15.736775
2813  2023-10-26 14:20:15.768691
2814  2023-10-26 14:20:15.800605
2815  2023-10-26 14:20:15.832656
2816  2023-10-26 14:20:15.864560
2817  2023-10-26 14:20:15.896468
2818  2023-10-26 14:20:15.928382
2819  2023-10-26 14:20:15.961294
2820  2023-10-26 14:20:15.992215
2821  2023-10-26 14:20:16.040991
2822  2023-10-26 14:20:16.072957
2823  2023-10-26 14:20:16.104874
2824  2023-10-26 14:20:16.136803
2825  2023-10-26 14:20:16.168699
2826  2023-10-26 14:20:16.200617
2827  2023-10-26 14:20:16.232535
2828  2023-10-26 14:20:16.264413
2829  2023-10-26 14:20:16.296361
2830  2023-10-26 14:20:16.328273
2831  2023-10-26 14:20:16.361200
2832  2023-10-26 14:20:16.393069
2833  2023-10-26 14:20:16.441054
2834  2023-10-26 14:20:16.472937
2835  2023-10-26 14:20:16.504852
2836  2023-10-26 14:20:16.536768
2837  2023-10-26 14:20:16.568740
2838  2023-10-26 14:20:16.600603
2839  2023-10-26 14:20:16.632548
2840  2023-10-26 14:20:16.664426
2841  2023-10-26 14:20:16.697339
2842  2023-10-26 14:20:16.729253
2843  2023-10-26 14:20:16.761170
2844  2023-10-26 14:20:16.793081
2845  2023-10-26 14:20:16.840961
2846  2023-10-26 14:20:16.872922
2847  2023-10-26 14:20:16.904831
2848  2023-10-26 14:20:16.936726
2849  2023-10-26 14:20:16.968653
2850  2023-10-26 14:20:17.001591
2851  2023-10-26 14:20:17.032479
2852  2023-10-26 14:20:17.064356
2853  2023-10-26 14:20:17.096305
2854  2023-10-26 14:20:17.128223
2855  2023-10-26 14:20:17.161127
2856  2023-10-26 14:20:17.193092
2857  2023-10-26 14:20:17.240937
2858  2023-10-26 14:20:17.272799
2859  2023-10-26 14:20:17.304754
2860  2023-10-26 14:20:17.336664
2861  2023-10-26 14:20:17.368574
2862  2023-10-26 14:20:17.400494
2863  2023-10-26 14:20:17.432372
2864  2023-10-26 14:20:17.464287
2865  2023-10-26 14:20:17.496235
2866  2023-10-26 14:20:17.529170
2867  2023-10-26 14:20:17.561060
2868  2023-10-26 14:20:17.592943
2869  2023-10-26 14:20:17.640865
2870  2023-10-26 14:20:17.672760
2871  2023-10-26 14:20:17.704706
2872  2023-10-26 14:20:17.736601
2873  2023-10-26 14:20:17.768528
2874  2023-10-26 14:20:17.800419
2875  2023-10-26 14:20:17.832355
2876  2023-10-26 14:20:17.864258
2877  2023-10-26 14:20:17.896177
2878  2023-10-26 14:20:17.929110
2879  2023-10-26 14:20:17.960992
2880  2023-10-26 14:20:17.992911
2881  2023-10-26 14:20:18.040811
2882  2023-10-26 14:20:18.072778
2883  2023-10-26 14:20:18.105665
2884  2023-10-26 14:20:18.136575
2885  2023-10-26 14:20:18.168546
2886  2023-10-26 14:20:18.200451
2887  2023-10-26 14:20:18.233352
2888  2023-10-26 14:20:18.265237
2889  2023-10-26 14:20:18.297245
2890  2023-10-26 14:20:18.329091
2891  2023-10-26 14:20:18.360977
2892  2023-10-26 14:20:18.408906
2893  2023-10-26 14:20:18.440813
2894  2023-10-26 14:20:18.472711
2895  2023-10-26 14:20:18.504662
2896  2023-10-26 14:20:18.536538
2897  2023-10-26 14:20:18.568468
2898  2023-10-26 14:20:18.600385
2899  2023-10-26 14:20:18.632296
2900  2023-10-26 14:20:18.664211
2901  2023-10-26 14:20:18.697133
2902  2023-10-26 14:20:18.729028
2903  2023-10-26 14:20:18.760938
2904  2023-10-26 14:20:18.808829
2905  2023-10-26 14:20:18.840746
2906  2023-10-26 14:20:18.872688
2907  2023-10-26 14:20:18.904523
2908  2023-10-26 14:20:18.936437
2909  2023-10-26 14:20:18.968393
2910  2023-10-26 14:20:19.000313
2911  2023-10-26 14:20:19.032214
2912  2023-10-26 14:20:19.065149
2913  2023-10-26 14:20:19.097008
2914  2023-10-26 14:20:19.128972
2915  2023-10-26 14:20:19.160897
2916  2023-10-26 14:20:19.208866
2917  2023-10-26 14:20:19.240768
2918  2023-10-26 14:20:19.272678
2919  2023-10-26 14:20:19.304599
2920  2023-10-26 14:20:19.336517
2921  2023-10-26 14:20:19.368426
2922  2023-10-26 14:20:19.400354
2923  2023-10-26 14:20:19.432268
2924  2023-10-26 14:20:19.464171
2925  2023-10-26 14:20:19.497137
2926  2023-10-26 14:20:19.528930
2927  2023-10-26 14:20:19.560944
2928  2023-10-26 14:20:19.608791
2929  2023-10-26 14:20:19.640703
2930  2023-10-26 14:20:19.672619
2931  2023-10-26 14:20:19.704532
2932  2023-10-26 14:20:19.737428
2933  2023-10-26 14:20:19.769329
2934  2023-10-26 14:20:19.800290
2935  2023-10-26 14:20:19.833209
2936  2023-10-26 14:20:19.865071
2937  2023-10-26 14:20:19.897019
2938  2023-10-26 14:20:19.928934
2939  2023-10-26 14:20:19.960857
2940  2023-10-26 14:20:20.008718
2941  2023-10-26 14:20:20.040638
2942  2023-10-26 14:20:20.072518
2943  2023-10-26 14:20:20.104479
2944  2023-10-26 14:20:20.136346
2945  2023-10-26 14:20:20.168639
2946  2023-10-26 14:20:20.200606
2947  2023-10-26 14:20:20.232720
2948  2023-10-26 14:20:20.264610
2949  2023-10-26 14:20:20.296487
2950  2023-10-26 14:20:20.328448
2951  2023-10-26 14:20:20.360360
2952  2023-10-26 14:20:20.409209
2953  2023-10-26 14:20:20.441149
2954  2023-10-26 14:20:20.473043
2955  2023-10-26 14:20:20.504981
2956  2023-10-26 14:20:20.536882
2957  2023-10-26 14:20:20.568789
2958  2023-10-26 14:20:20.600721
2959  2023-10-26 14:20:20.632623
2960  2023-10-26 14:20:20.664538
2961  2023-10-26 14:20:20.696415
2962  2023-10-26 14:20:20.728330
2963  2023-10-26 14:20:20.761287
2964  2023-10-26 14:20:20.809132
2965  2023-10-26 14:20:20.841068
2966  2023-10-26 14:20:20.872974
2967  2023-10-26 14:20:20.904910
2968  2023-10-26 14:20:20.936772
2969  2023-10-26 14:20:20.968687
2970  2023-10-26 14:20:21.000675
2971  2023-10-26 14:20:21.033558
2972  2023-10-26 14:20:21.065429
2973  2023-10-26 14:20:21.096346
2974  2023-10-26 14:20:21.128293
2975  2023-10-26 14:20:21.161198
2976  2023-10-26 14:20:21.209082
2977  2023-10-26 14:20:21.241033
2978  2023-10-26 14:20:21.272949
2979  2023-10-26 14:20:21.304892
2980  2023-10-26 14:20:21.336808
2981  2023-10-26 14:20:21.368691
2982  2023-10-26 14:20:21.400606
2983  2023-10-26 14:20:21.432555
2984  2023-10-26 14:20:21.464483
2985  2023-10-26 14:20:21.496364
2986  2023-10-26 14:20:21.529277
2987  2023-10-26 14:20:21.560288
2988  2023-10-26 14:20:21.609125
2989  2023-10-26 14:20:21.641175
2990  2023-10-26 14:20:21.673087
2991  2023-10-26 14:20:21.705003
2992  2023-10-26 14:20:21.736916
2993  2023-10-26 14:20:21.768783
2994  2023-10-26 14:20:21.800732
2995  2023-10-26 14:20:21.832650
2996  2023-10-26 14:20:21.864566
2997  2023-10-26 14:20:21.896441
2998  2023-10-26 14:20:21.928356
2999  2023-10-26 14:20:21.960310
3000  2023-10-26 14:20:22.009140
3001  2023-10-26 14:20:22.041087
3002  2023-10-26 14:20:22.073000
3003  2023-10-26 14:20:22.104916
3004  2023-10-26 14:20:22.136829
3005  2023-10-26 14:20:22.168823
3006  2023-10-26 14:20:22.200738
3007  2023-10-26 14:20:22.232652
3008  2023-10-26 14:20:22.264567
3009  2023-10-26 14:20:22.296537
3010  2023-10-26 14:20:22.328502
3011  2023-10-26 14:20:22.376356
3012  2023-10-26 14:20:22.409235
3013  2023-10-26 14:20:22.440183
3014  2023-10-26 14:20:22.473137
3015  2023-10-26 14:20:22.505011
3016  2023-10-26 14:20:22.536946
3017  2023-10-26 14:20:22.568808
3018  2023-10-26 14:20:22.600724
3019  2023-10-26 14:20:22.632671
3020  2023-10-26 14:20:22.665576
3021  2023-10-26 14:20:22.696516
3022  2023-10-26 14:20:22.728382
3023  2023-10-26 14:20:22.777284
3024  2023-10-26 14:20:22.808169
3025  2023-10-26 14:20:22.841081
3026  2023-10-26 14:20:22.873030
3027  2023-10-26 14:20:22.904955
3028  2023-10-26 14:20:22.936847
3029  2023-10-26 14:20:22.968739
3030  2023-10-26 14:20:23.000704
3031  2023-10-26 14:20:23.032620
3032  2023-10-26 14:20:23.064499
3033  2023-10-26 14:20:23.096431
3034  2023-10-26 14:20:23.128345
3035  2023-10-26 14:20:23.176209
3036  2023-10-26 14:20:23.209097
3037  2023-10-26 14:20:23.241045
3038  2023-10-26 14:20:23.272974
3039  2023-10-26 14:20:23.304878
3040  2023-10-26 14:20:23.336786
3041  2023-10-26 14:20:23.368719
3042  2023-10-26 14:20:23.400645
3043  2023-10-26 14:20:23.432565
3044  2023-10-26 14:20:23.464342
3045  2023-10-26 14:20:23.496258
3046  2023-10-26 14:20:23.529199
3047  2023-10-26 14:20:23.577038
3048  2023-10-26 14:20:23.608947
3049  2023-10-26 14:20:23.640871
3050  2023-10-26 14:20:23.672853
3051  2023-10-26 14:20:23.704745
3052  2023-10-26 14:20:23.736650
3053  2023-10-26 14:20:23.768530
3054  2023-10-26 14:20:23.800513
3055  2023-10-26 14:20:23.832474
3056  2023-10-26 14:20:23.864987
3057  2023-10-26 14:20:23.896972
3058  2023-10-26 14:20:23.928818
3059  2023-10-26 14:20:23.976690
3060  2023-10-26 14:20:24.008603
3061  2023-10-26 14:20:24.040518
3062  2023-10-26 14:20:24.072433
3063  2023-10-26 14:20:24.104379
3064  2023-10-26 14:20:24.136326
3065  2023-10-26 14:20:24.169215
3066  2023-10-26 14:20:24.201121
3067  2023-10-26 14:20:24.233086
3068  2023-10-26 14:20:24.264951
3069  2023-10-26 14:20:24.296865
3070  2023-10-26 14:20:24.328780
3071  2023-10-26 14:20:24.376686
3072  2023-10-26 14:20:24.408567
3073  2023-10-26 14:20:24.440481
3074  2023-10-26 14:20:24.472463
3075  2023-10-26 14:20:24.504412
3076  2023-10-26 14:20:24.536371
3077  2023-10-26 14:20:24.568254
3078  2023-10-26 14:20:24.600787
3079  2023-10-26 14:20:24.632687
3080  2023-10-26 14:20:24.664390
3081  2023-10-26 14:20:24.696321
3082  2023-10-26 14:20:24.729218
3083  2023-10-26 14:20:24.777143
3084  2023-10-26 14:20:24.809005
3085  2023-10-26 14:20:24.840919
3086  2023-10-26 14:20:24.872834
3087  2023-10-26 14:20:24.904798
3088  2023-10-26 14:20:24.936663
3089  2023-10-26 14:20:24.968578
3090  2023-10-26 14:20:25.000493
3091  2023-10-26 14:20:25.032439
3092  2023-10-26 14:20:25.064322
3093  2023-10-26 14:20:25.097234
3094  2023-10-26 14:20:25.129149
3095  2023-10-26 14:20:25.177021
3096  2023-10-26 14:20:25.208988
3097  2023-10-26 14:20:25.240888
3098  2023-10-26 14:20:25.272765
3099  2023-10-26 14:20:25.304679
3100  2023-10-26 14:20:25.336594
3101  2023-10-26 14:20:25.368540
3102  2023-10-26 14:20:25.400423
3103  2023-10-26 14:20:25.432338
3104  2023-10-26 14:20:25.464253
3105  2023-10-26 14:20:25.497165
3106  2023-10-26 14:20:25.529079
3107  2023-10-26 14:20:25.577111
3108  2023-10-26 14:20:25.608992
3109  2023-10-26 14:20:25.640907
3110  2023-10-26 14:20:25.672822
3111  2023-10-26 14:20:25.704737
3112  2023-10-26 14:20:25.736651
3113  2023-10-26 14:20:25.768620
3114  2023-10-26 14:20:25.800519
3115  2023-10-26 14:20:25.832435
3116  2023-10-26 14:20:25.864337
3117  2023-10-26 14:20:25.896313
3118  2023-10-26 14:20:25.944186
3119  2023-10-26 14:20:25.977098
3120  2023-10-26 14:20:26.009012
3121  2023-10-26 14:20:26.040960
3122  2023-10-26 14:20:26.072842
3123  2023-10-26 14:20:26.104756
3124  2023-10-26 14:20:26.136671
3125  2023-10-26 14:20:26.168586
3126  2023-10-26 14:20:26.200500
3127  2023-10-26 14:20:26.233414
3128  2023-10-26 14:20:26.264329
3129  2023-10-26 14:20:26.297245
3130  2023-10-26 14:20:26.345114
3131  2023-10-26 14:20:26.377136
3132  2023-10-26 14:20:26.409050
3133  2023-10-26 14:20:26.441079
3134  2023-10-26 14:20:26.472957
3135  2023-10-26 14:20:26.504872
3136  2023-10-26 14:20:26.536818
3137  2023-10-26 14:20:26.568753
3138  2023-10-26 14:20:26.600616
3139  2023-10-26 14:20:26.632531
3140  2023-10-26 14:20:26.664483
3141  2023-10-26 14:20:26.696413
3142  2023-10-26 14:20:26.744267
3143  2023-10-26 14:20:26.776178
3144  2023-10-26 14:20:26.809059
3145  2023-10-26 14:20:26.840974
3146  2023-10-26 14:20:26.872920
3147  2023-10-26 14:20:26.904853
3148  2023-10-26 14:20:26.936717
3149  2023-10-26 14:20:26.968632
3150  2023-10-26 14:20:27.000547
3151  2023-10-26 14:20:27.032461
3152  2023-10-26 14:20:27.064376
3153  2023-10-26 14:20:27.096321
3154  2023-10-26 14:20:27.145160
3155  2023-10-26 14:20:27.177075
3156  2023-10-26 14:20:27.209029
3157  2023-10-26 14:20:27.240904
3158  2023-10-26 14:20:27.272819
3159  2023-10-26 14:20:27.304733
3160  2023-10-26 14:20:27.336685
3161  2023-10-26 14:20:27.368563
3162  2023-10-26 14:20:27.400492
3163  2023-10-26 14:20:27.432392
3164  2023-10-26 14:20:27.464307
3165  2023-10-26 14:20:27.497219
3166  2023-10-26 14:20:27.545083
3167  2023-10-26 14:20:27.576999
3168  2023-10-26 14:20:27.608914
3169  2023-10-26 14:20:27.640827
3170  2023-10-26 14:20:27.672741
3171  2023-10-26 14:20:27.704656
3172  2023-10-26 14:20:27.736573
3173  2023-10-26 14:20:27.768500
3174  2023-10-26 14:20:27.801398
3175  2023-10-26 14:20:27.832315
3176  2023-10-26 14:20:27.864276
3177  2023-10-26 14:20:27.897141
3178  2023-10-26 14:20:27.945047
3179  2023-10-26 14:20:27.977086
3180  2023-10-26 14:20:28.009001
3181  2023-10-26 14:20:28.040916
3182  2023-10-26 14:20:28.072830
3183  2023-10-26 14:20:28.104745
3184  2023-10-26 14:20:28.136803
3185  2023-10-26 14:20:28.168718
3186  2023-10-26 14:20:28.200668
3187  2023-10-26 14:20:28.232547
3188  2023-10-26 14:20:28.264462
3189  2023-10-26 14:20:28.296377
3190  2023-10-26 14:20:28.344249
3191  2023-10-26 14:20:28.376665
3192  2023-10-26 14:20:28.408606
3193  2023-10-26 14:20:28.440522
3194  2023-10-26 14:20:28.472437
3195  2023-10-26 14:20:28.504537
3196  2023-10-26 14:20:28.536451
3197  2023-10-26 14:20:28.568366
3198  2023-10-26 14:20:28.600281
3199  2023-10-26 14:20:28.632195
3200  2023-10-26 14:20:28.665107
3201  2023-10-26 14:20:28.697022
3202  2023-10-26 14:20:28.744894
3203  2023-10-26 14:20:28.776817
3204  2023-10-26 14:20:28.808723
3205  2023-10-26 14:20:28.840638
3206  2023-10-26 14:20:28.872553
3207  2023-10-26 14:20:28.904516
3208  2023-10-26 14:20:28.937379
3209  2023-10-26 14:20:28.968297
3210  2023-10-26 14:20:29.001209
3211  2023-10-26 14:20:29.033280
3212  2023-10-26 14:20:29.064209
3213  2023-10-26 14:20:29.097073
3214  2023-10-26 14:20:29.144945
3215  2023-10-26 14:20:29.176860
3216  2023-10-26 14:20:29.208775
3217  2023-10-26 14:20:29.240743
3218  2023-10-26 14:20:29.272618
3219  2023-10-26 14:20:29.304868
3220  2023-10-26 14:20:29.336802
3221  2023-10-26 14:20:29.368748
3222  2023-10-26 14:20:29.400673
3223  2023-10-26 14:20:29.432546
3224  2023-10-26 14:20:29.465458
3225  2023-10-26 14:20:29.512445
3226  2023-10-26 14:20:29.544360
3227  2023-10-26 14:20:29.576306
3228  2023-10-26 14:20:29.608228
3229  2023-10-26 14:20:29.641101
3230  2023-10-26 14:20:29.673016
3231  2023-10-26 14:20:29.704962
3232  2023-10-26 14:20:29.736874
3233  2023-10-26 14:20:29.768760
3234  2023-10-26 14:20:29.800674
3235  2023-10-26 14:20:29.832622
3236  2023-10-26 14:20:29.864504
3237  2023-10-26 14:20:29.912408
3238  2023-10-26 14:20:29.944290
3239  2023-10-26 14:20:29.977203
3240  2023-10-26 14:20:30.009117
3241  2023-10-26 14:20:30.041032
3242  2023-10-26 14:20:30.072946
3243  2023-10-26 14:20:30.104861
3244  2023-10-26 14:20:30.136776
3245  2023-10-26 14:20:30.168690
3246  2023-10-26 14:20:30.200605
3247  2023-10-26 14:20:30.232520
3248  2023-10-26 14:20:30.264450
3249  2023-10-26 14:20:30.313305
3250  2023-10-26 14:20:30.344221
3251  2023-10-26 14:20:30.377133
3252  2023-10-26 14:20:30.409096
3253  2023-10-26 14:20:30.440965
3254  2023-10-26 14:20:30.472877
3255  2023-10-26 14:20:30.504792
3256  2023-10-26 14:20:30.536707
3257  2023-10-26 14:20:30.568654
3258  2023-10-26 14:20:30.600732
3259  2023-10-26 14:20:30.632647
3260  2023-10-26 14:20:30.664568
3261  2023-10-26 14:20:30.712433
3262  2023-10-26 14:20:30.744348
3263  2023-10-26 14:20:30.777260
3264  2023-10-26 14:20:30.809176
3265  2023-10-26 14:20:30.840446
3266  2023-10-26 14:20:30.872391
3267  2023-10-26 14:20:30.905339
3268  2023-10-26 14:20:30.937226
3269  2023-10-26 14:20:30.969134
3270  2023-10-26 14:20:31.001049
3271  2023-10-26 14:20:31.032992
3272  2023-10-26 14:20:31.064878
3273  2023-10-26 14:20:31.112781
3274  2023-10-26 14:20:31.144665
3275  2023-10-26 14:20:31.176579
3276  2023-10-26 14:20:31.208494
3277  2023-10-26 14:20:31.240441
3278  2023-10-26 14:20:31.272323
3279  2023-10-26 14:20:31.304238
3280  2023-10-26 14:20:31.338188
3281  2023-10-26 14:20:31.369103
3282  2023-10-26 14:20:31.402032
3283  2023-10-26 14:20:31.433939
3284  2023-10-26 14:20:31.465941
3285  2023-10-26 14:20:31.513875
3286  2023-10-26 14:20:31.545750
3287  2023-10-26 14:20:31.578652
3288  2023-10-26 14:20:31.610561
3289  2023-10-26 14:20:31.641621
3290  2023-10-26 14:20:31.673605
3291  2023-10-26 14:20:31.705637
3292  2023-10-26 14:20:31.737540
3293  2023-10-26 14:20:31.770447
3294  2023-10-26 14:20:31.802362
3295  2023-10-26 14:20:31.835265
3296  2023-10-26 14:20:31.866205
3297  2023-10-26 14:20:31.914070
3298  2023-10-26 14:20:31.945993
3299  2023-10-26 14:20:31.977914
3300  2023-10-26 14:20:32.009937
3301  2023-10-26 14:20:32.041865
3302  2023-10-26 14:20:32.073791
3303  2023-10-26 14:20:32.105694
3304  2023-10-26 14:20:32.137604
3305  2023-10-26 14:20:32.169516
3306  2023-10-26 14:20:32.201396
3307  2023-10-26 14:20:32.234308
3308  2023-10-26 14:20:32.265252
3309  2023-10-26 14:20:32.313151
3310  2023-10-26 14:20:32.346078
3311  2023-10-26 14:20:32.376957
3312  2023-10-26 14:20:32.409873
3313  2023-10-26 14:20:32.441806
3314  2023-10-26 14:20:32.473720
3315  2023-10-26 14:20:32.505636
3316  2023-10-26 14:20:32.537529
3317  2023-10-26 14:20:32.569442
3318  2023-10-26 14:20:32.601378
3319  2023-10-26 14:20:32.633273
3320  2023-10-26 14:20:32.665186
3321  2023-10-26 14:20:32.713073
3322  2023-10-26 14:20:32.744990
3323  2023-10-26 14:20:32.777854
3324  2023-10-26 14:20:32.808801
3325  2023-10-26 14:20:32.840720
3326  2023-10-26 14:20:32.872685
3327  2023-10-26 14:20:32.905538
3328  2023-10-26 14:20:32.936493
3329  2023-10-26 14:20:32.969390
3330  2023-10-26 14:20:33.001315
3331  2023-10-26 14:20:33.033203
3332  2023-10-26 14:20:33.065118
3333  2023-10-26 14:20:33.113006
3334  2023-10-26 14:20:33.144915
3335  2023-10-26 14:20:33.176834
3336  2023-10-26 14:20:33.208746
3337  2023-10-26 14:20:33.240667
3338  2023-10-26 14:20:33.272569
3339  2023-10-26 14:20:33.304482
3340  2023-10-26 14:20:33.336393
3341  2023-10-26 14:20:33.369217
3342  2023-10-26 14:20:33.401168
3343  2023-10-26 14:20:33.433103
3344  2023-10-26 14:20:33.480953
3345  2023-10-26 14:20:33.512902
3346  2023-10-26 14:20:33.544817
3347  2023-10-26 14:20:33.576732
3348  2023-10-26 14:20:33.608648
3349  2023-10-26 14:20:33.640598
3350  2023-10-26 14:20:33.672509
3351  2023-10-26 14:20:33.704393
3352  2023-10-26 14:20:33.738334
3353  2023-10-26 14:20:33.769185
3354  2023-10-26 14:20:33.801099
3355  2023-10-26 14:20:33.833013
3356  2023-10-26 14:20:33.880910
3357  2023-10-26 14:20:33.912830
3358  2023-10-26 14:20:33.944715
3359  2023-10-26 14:20:33.978673
3360  2023-10-26 14:20:34.009576
3361  2023-10-26 14:20:34.040516
3362  2023-10-26 14:20:34.073423
3363  2023-10-26 14:20:34.104321
3364  2023-10-26 14:20:34.138238
3365  2023-10-26 14:20:34.170171
3366  2023-10-26 14:20:34.201029
3367  2023-10-26 14:20:34.232943
3368  2023-10-26 14:20:34.280816
3369  2023-10-26 14:20:34.312772
3370  2023-10-26 14:20:34.344659
3371  2023-10-26 14:20:34.377600
3372  2023-10-26 14:20:34.409509
3373  2023-10-26 14:20:34.441422
3374  2023-10-26 14:20:34.472335
3375  2023-10-26 14:20:34.504221
3376  2023-10-26 14:20:34.538182
3377  2023-10-26 14:20:34.570102
3378  2023-10-26 14:20:34.602023
3379  2023-10-26 14:20:34.632991
3380  2023-10-26 14:20:34.681898
3381  2023-10-26 14:20:34.712809
3382  2023-10-26 14:20:34.744727
3383  2023-10-26 14:20:34.777641
3384  2023-10-26 14:20:34.809714
3385  2023-10-26 14:20:34.841621
3386  2023-10-26 14:20:34.872574
3387  2023-10-26 14:20:34.904426
3388  2023-10-26 14:20:34.938376
3389  2023-10-26 14:20:34.969277
3390  2023-10-26 14:20:35.002331
3391  2023-10-26 14:20:35.033215
3392  2023-10-26 14:20:35.081085
3393  2023-10-26 14:20:35.113000
3394  2023-10-26 14:20:35.144914
3395  2023-10-26 14:20:35.177827
3396  2023-10-26 14:20:35.208744
3397  2023-10-26 14:20:35.241657
3398  2023-10-26 14:20:35.272573
3399  2023-10-26 14:20:35.304488
3400  2023-10-26 14:20:35.337400
3401  2023-10-26 14:20:35.368318
3402  2023-10-26 14:20:35.401269
3403  2023-10-26 14:20:35.433144
3404  2023-10-26 14:20:35.481057
3405  2023-10-26 14:20:35.512963
3406  2023-10-26 14:20:35.544879
3407  2023-10-26 14:20:35.577794
3408  2023-10-26 14:20:35.608727
3409  2023-10-26 14:20:35.640629
3410  2023-10-26 14:20:35.672538
3411  2023-10-26 14:20:35.704452
3412  2023-10-26 14:20:35.736367
3413  2023-10-26 14:20:35.768291
3414  2023-10-26 14:20:35.801162
3415  2023-10-26 14:20:35.833108
3416  2023-10-26 14:20:35.880979
3417  2023-10-26 14:20:35.912892
3418  2023-10-26 14:20:35.944829
3419  2023-10-26 14:20:35.976720
3420  2023-10-26 14:20:36.008610
3421  2023-10-26 14:20:36.040561
3422  2023-10-26 14:20:36.072472
3423  2023-10-26 14:20:36.104349
3424  2023-10-26 14:20:36.136313
3425  2023-10-26 14:20:36.168210
3426  2023-10-26 14:20:36.201123
3427  2023-10-26 14:20:36.233038
3428  2023-10-26 14:20:36.281041
3429  2023-10-26 14:20:36.312940
3430  2023-10-26 14:20:36.344850
3431  2023-10-26 14:20:36.376734
3432  2023-10-26 14:20:36.408703
3433  2023-10-26 14:20:36.440612
3434  2023-10-26 14:20:36.472478
3435  2023-10-26 14:20:36.504433
3436  2023-10-26 14:20:36.536348
3437  2023-10-26 14:20:36.569250
3438  2023-10-26 14:20:36.601190
3439  2023-10-26 14:20:36.633107
3440  2023-10-26 14:20:36.680952
3441  2023-10-26 14:20:36.712837
3442  2023-10-26 14:20:36.744821
3443  2023-10-26 14:20:36.776738
3444  2023-10-26 14:20:36.808331
3445  2023-10-26 14:20:36.840245
3446  2023-10-26 14:20:36.873163
3447  2023-10-26 14:20:36.905062
3448  2023-10-26 14:20:36.936929
3449  2023-10-26 14:20:36.968876
3450  2023-10-26 14:20:37.000792
3451  2023-10-26 14:20:37.048632
3452  2023-10-26 14:20:37.080548
3453  2023-10-26 14:20:37.112462
3454  2023-10-26 14:20:37.144409
3455  2023-10-26 14:20:37.177039
3456  2023-10-26 14:20:37.208982
3457  2023-10-26 14:20:37.240946
3458  2023-10-26 14:20:37.272855
3459  2023-10-26 14:20:37.304791
3460  2023-10-26 14:20:37.336686
3461  2023-10-26 14:20:37.368601
3462  2023-10-26 14:20:37.400516
3463  2023-10-26 14:20:37.448393
3464  2023-10-26 14:20:37.480296
3465  2023-10-26 14:20:37.512216
3466  2023-10-26 14:20:37.544143
3467  2023-10-26 14:20:37.577048
3468  2023-10-26 14:20:37.608967
3469  2023-10-26 14:20:37.640870
3470  2023-10-26 14:20:37.672787
3471  2023-10-26 14:20:37.704687
3472  2023-10-26 14:20:37.736581
3473  2023-10-26 14:20:37.768528
3474  2023-10-26 14:20:37.801410
3475  2023-10-26 14:20:37.848286
3476  2023-10-26 14:20:37.880199
3477  2023-10-26 14:20:37.913168
3478  2023-10-26 14:20:37.945026
3479  2023-10-26 14:20:37.976972
3480  2023-10-26 14:20:38.008886
3481  2023-10-26 14:20:38.040770
3482  2023-10-26 14:20:38.073682
3483  2023-10-26 14:20:38.104606
3484  2023-10-26 14:20:38.136514
3485  2023-10-26 14:20:38.168556
3486  2023-10-26 14:20:38.200478
3487  2023-10-26 14:20:38.248350
3488  2023-10-26 14:20:38.281191
3489  2023-10-26 14:20:38.313150
3490  2023-10-26 14:20:38.345052
3491  2023-10-26 14:20:38.377035
3492  2023-10-26 14:20:38.408919
3493  2023-10-26 14:20:38.440861
3494  2023-10-26 14:20:38.472779
3495  2023-10-26 14:20:38.504694
3496  2023-10-26 14:20:38.536644
3497  2023-10-26 14:20:38.568524
3498  2023-10-26 14:20:38.600450
3499  2023-10-26 14:20:38.648319
3500  2023-10-26 14:20:38.680224
3501  2023-10-26 14:20:38.713149
3502  2023-10-26 14:20:38.745055
3503  2023-10-26 14:20:38.776996
3504  2023-10-26 14:20:38.808880
3505  2023-10-26 14:20:38.840818
3506  2023-10-26 14:20:38.872729
3507  2023-10-26 14:20:38.904619
3508  2023-10-26 14:20:38.936507
3509  2023-10-26 14:20:38.968473
3510  2023-10-26 14:20:39.000369
3511  2023-10-26 14:20:39.048249
3512  2023-10-26 14:20:39.081163
3513  2023-10-26 14:20:39.113095
3514  2023-10-26 14:20:39.144985
3515  2023-10-26 14:20:39.176889
3516  2023-10-26 14:20:39.208804
3517  2023-10-26 14:20:39.240733
3518  2023-10-26 14:20:39.273646
3519  2023-10-26 14:20:39.304557
3520  2023-10-26 14:20:39.337494
3521  2023-10-26 14:20:39.368386
3522  2023-10-26 14:20:39.401265
3523  2023-10-26 14:20:39.448186
3524  2023-10-26 14:20:39.481053
3525  2023-10-26 14:20:39.513017
3526  2023-10-26 14:20:39.544912
3527  2023-10-26 14:20:39.576828
3528  2023-10-26 14:20:39.608735
3529  2023-10-26 14:20:39.640653
3530  2023-10-26 14:20:39.672581
3531  2023-10-26 14:20:39.704456
3532  2023-10-26 14:20:39.736416
3533  2023-10-26 14:20:39.768283
3534  2023-10-26 14:20:39.800231
3535  2023-10-26 14:20:39.848116
3536  2023-10-26 14:20:39.881022
3537  2023-10-26 14:20:39.912947
3538  2023-10-26 14:20:39.944862
3539  2023-10-26 14:20:39.976751
3540  2023-10-26 14:20:40.008690
3541  2023-10-26 14:20:40.040616
3542  2023-10-26 14:20:40.072519
3543  2023-10-26 14:20:40.104419
3544  2023-10-26 14:20:40.136299
3545  2023-10-26 14:20:40.168245
3546  2023-10-26 14:20:40.201178
3547  2023-10-26 14:20:40.249040
3548  2023-10-26 14:20:40.280945
3549  2023-10-26 14:20:40.312829
3550  2023-10-26 14:20:40.344794
3551  2023-10-26 14:20:40.376713
3552  2023-10-26 14:20:40.409570
3553  2023-10-26 14:20:40.441483
3554  2023-10-26 14:20:40.472425
3555  2023-10-26 14:20:40.504316
3556  2023-10-26 14:20:40.536272
3557  2023-10-26 14:20:40.569180
3558  2023-10-26 14:20:40.601104
3559  2023-10-26 14:20:40.648965
3560  2023-10-26 14:20:40.680878
3561  2023-10-26 14:20:40.712789
3562  2023-10-26 14:20:40.744705
