
1  2023-11-10 10:26:22.139965
2  2023-11-10 10:26:22.172878
3  2023-11-10 10:26:22.204844
4  2023-11-10 10:26:22.236759
5  2023-11-10 10:26:22.268675
6  2023-11-10 10:26:22.300078
7  2023-11-10 10:26:22.332033
8  2023-11-10 10:26:22.364906
9  2023-11-10 10:26:22.396821
10  2023-11-10 10:26:22.428734
11  2023-11-10 10:26:22.476607
12  2023-11-10 10:26:22.508521
13  2023-11-10 10:26:22.540436
14  2023-11-10 10:26:22.572351
15  2023-11-10 10:26:22.604302
16  2023-11-10 10:26:22.636221
17  2023-11-10 10:26:22.668125
18  2023-11-10 10:26:22.700798
19  2023-11-10 10:26:22.732701
20  2023-11-10 10:26:22.764620
21  2023-11-10 10:26:22.796534
22  2023-11-10 10:26:22.828445
23  2023-11-10 10:26:22.876283
24  2023-11-10 10:26:22.908247
25  2023-11-10 10:26:22.940157
26  2023-11-10 10:26:22.972068
27  2023-11-10 10:26:23.003974
28  2023-11-10 10:26:23.036856
29  2023-11-10 10:26:23.068815
30  2023-11-10 10:26:23.100716
31  2023-11-10 10:26:23.132623
32  2023-11-10 10:26:23.164517
33  2023-11-10 10:26:23.196459
34  2023-11-10 10:26:23.228376
35  2023-11-10 10:26:23.276215
36  2023-11-10 10:26:23.308223
37  2023-11-10 10:26:23.340120
38  2023-11-10 10:26:23.373048
39  2023-11-10 10:26:23.404053
40  2023-11-10 10:26:23.435965
41  2023-11-10 10:26:23.468836
42  2023-11-10 10:26:23.500749
43  2023-11-10 10:26:23.532663
44  2023-11-10 10:26:23.564610
45  2023-11-10 10:26:23.596527
46  2023-11-10 10:26:23.628435
47  2023-11-10 10:26:23.676315
48  2023-11-10 10:26:23.708228
49  2023-11-10 10:26:23.740086
50  2023-11-10 10:26:23.771966
51  2023-11-10 10:26:23.803965
52  2023-11-10 10:26:23.835871
53  2023-11-10 10:26:23.868792
54  2023-11-10 10:26:23.900758
55  2023-11-10 10:26:23.932673
56  2023-11-10 10:26:23.964587
57  2023-11-10 10:26:23.996503
58  2023-11-10 10:26:24.028417
59  2023-11-10 10:26:24.076289
60  2023-11-10 10:26:24.108216
61  2023-11-10 10:26:24.140157
62  2023-11-10 10:26:24.173030
63  2023-11-10 10:26:24.204976
64  2023-11-10 10:26:24.236859
65  2023-11-10 10:26:24.268540
66  2023-11-10 10:26:24.300644
67  2023-11-10 10:26:24.332414
68  2023-11-10 10:26:24.364355
69  2023-11-10 10:26:24.396268
70  2023-11-10 10:26:24.444140
71  2023-11-10 10:26:24.476105
72  2023-11-10 10:26:24.509018
73  2023-11-10 10:26:24.540048
74  2023-11-10 10:26:24.572005
75  2023-11-10 10:26:24.604907
76  2023-11-10 10:26:24.636822
77  2023-11-10 10:26:24.668704
78  2023-11-10 10:26:24.700619
79  2023-11-10 10:26:24.732551
80  2023-11-10 10:26:24.764448
81  2023-11-10 10:26:24.796409
82  2023-11-10 10:26:24.844319
83  2023-11-10 10:26:24.876548
84  2023-11-10 10:26:24.908453
85  2023-11-10 10:26:24.940374
86  2023-11-10 10:26:24.972366
87  2023-11-10 10:26:25.005242
88  2023-11-10 10:26:25.037157
89  2023-11-10 10:26:25.070069
90  2023-11-10 10:26:25.122928
91  2023-11-10 10:26:25.136891
92  2023-11-10 10:26:25.164815
93  2023-11-10 10:26:25.196730
94  2023-11-10 10:26:25.244602
95  2023-11-10 10:26:25.276516
96  2023-11-10 10:26:25.308430
97  2023-11-10 10:26:25.340346
98  2023-11-10 10:26:25.372262
99  2023-11-10 10:26:25.404176
100  2023-11-10 10:26:25.436090
101  2023-11-10 10:26:25.468038
102  2023-11-10 10:26:25.499956
103  2023-11-10 10:26:25.532833
104  2023-11-10 10:26:25.564753
105  2023-11-10 10:26:25.596693
106  2023-11-10 10:26:25.644566
107  2023-11-10 10:26:25.676471
108  2023-11-10 10:26:25.708368
109  2023-11-10 10:26:25.740328
110  2023-11-10 10:26:25.772192
111  2023-11-10 10:26:25.804150
112  2023-11-10 10:26:25.837019
113  2023-11-10 10:26:25.868963
114  2023-11-10 10:26:25.900891
115  2023-11-10 10:26:25.932762
116  2023-11-10 10:26:25.964677
117  2023-11-10 10:26:25.996592
118  2023-11-10 10:26:26.044498
119  2023-11-10 10:26:26.076409
120  2023-11-10 10:26:26.108307
121  2023-11-10 10:26:26.141205
122  2023-11-10 10:26:26.172216
123  2023-11-10 10:26:26.204174
124  2023-11-10 10:26:26.236095
125  2023-11-10 10:26:26.268977
126  2023-11-10 10:26:26.300905
127  2023-11-10 10:26:26.332805
128  2023-11-10 10:26:26.364856
129  2023-11-10 10:26:26.396646
130  2023-11-10 10:26:26.444507
131  2023-11-10 10:26:26.476472
132  2023-11-10 10:26:26.508478
133  2023-11-10 10:26:26.540492
134  2023-11-10 10:26:26.572394
135  2023-11-10 10:26:26.604309
136  2023-11-10 10:26:26.636264
137  2023-11-10 10:26:26.668180
138  2023-11-10 10:26:26.700197
139  2023-11-10 10:26:26.733055
140  2023-11-10 10:26:26.764970
141  2023-11-10 10:26:26.796884
142  2023-11-10 10:26:26.844791
143  2023-11-10 10:26:26.876671
144  2023-11-10 10:26:26.908585
145  2023-11-10 10:26:26.940564
146  2023-11-10 10:26:26.972479
147  2023-11-10 10:26:27.004471
148  2023-11-10 10:26:27.036344
149  2023-11-10 10:26:27.069302
150  2023-11-10 10:26:27.100205
151  2023-11-10 10:26:27.132088
152  2023-11-10 10:26:27.165001
153  2023-11-10 10:26:27.196928
154  2023-11-10 10:26:27.244788
155  2023-11-10 10:26:27.276703
156  2023-11-10 10:26:27.308667
157  2023-11-10 10:26:27.340531
158  2023-11-10 10:26:27.373443
159  2023-11-10 10:26:27.404407
160  2023-11-10 10:26:27.436316
161  2023-11-10 10:26:27.469188
162  2023-11-10 10:26:27.500119
163  2023-11-10 10:26:27.532019
164  2023-11-10 10:26:27.564931
165  2023-11-10 10:26:27.596847
166  2023-11-10 10:26:27.644719
167  2023-11-10 10:26:27.676664
168  2023-11-10 10:26:27.708588
169  2023-11-10 10:26:27.740462
170  2023-11-10 10:26:27.772430
171  2023-11-10 10:26:27.804426
172  2023-11-10 10:26:27.836340
173  2023-11-10 10:26:27.868257
174  2023-11-10 10:26:27.900148
175  2023-11-10 10:26:27.933076
176  2023-11-10 10:26:27.963947
177  2023-11-10 10:26:27.995897
178  2023-11-10 10:26:28.044799
179  2023-11-10 10:26:28.076032
180  2023-11-10 10:26:28.108021
181  2023-11-10 10:26:28.139930
182  2023-11-10 10:26:28.172854
183  2023-11-10 10:26:28.204762
184  2023-11-10 10:26:28.236764
185  2023-11-10 10:26:28.268693
186  2023-11-10 10:26:28.300255
187  2023-11-10 10:26:28.332177
188  2023-11-10 10:26:28.364050
189  2023-11-10 10:26:28.411966
190  2023-11-10 10:26:28.443955
191  2023-11-10 10:26:28.476024
192  2023-11-10 10:26:28.507941
193  2023-11-10 10:26:28.540877
194  2023-11-10 10:26:28.572739
195  2023-11-10 10:26:28.604679
196  2023-11-10 10:26:28.636597
197  2023-11-10 10:26:28.668519
198  2023-11-10 10:26:28.700426
199  2023-11-10 10:26:28.732310
200  2023-11-10 10:26:28.764225
201  2023-11-10 10:26:28.812259
202  2023-11-10 10:26:28.845173
203  2023-11-10 10:26:28.876168
204  2023-11-10 10:26:28.908127
205  2023-11-10 10:26:28.941029
206  2023-11-10 10:26:28.972938
207  2023-11-10 10:26:29.004859
208  2023-11-10 10:26:29.036773
209  2023-11-10 10:26:29.068685
210  2023-11-10 10:26:29.100595
211  2023-11-10 10:26:29.132512
212  2023-11-10 10:26:29.164394
213  2023-11-10 10:26:29.212433
214  2023-11-10 10:26:29.244318
215  2023-11-10 10:26:29.276272
216  2023-11-10 10:26:29.308189
217  2023-11-10 10:26:29.340103
218  2023-11-10 10:26:29.372974
219  2023-11-10 10:26:29.404012
220  2023-11-10 10:26:29.436938
221  2023-11-10 10:26:29.468924
222  2023-11-10 10:26:29.500856
223  2023-11-10 10:26:29.532760
224  2023-11-10 10:26:29.564671
225  2023-11-10 10:26:29.612508
226  2023-11-10 10:26:29.644454
227  2023-11-10 10:26:29.676382
228  2023-11-10 10:26:29.708283
229  2023-11-10 10:26:29.740208
230  2023-11-10 10:26:29.772122
231  2023-11-10 10:26:29.804028
232  2023-11-10 10:26:29.836940
233  2023-11-10 10:26:29.868823
234  2023-11-10 10:26:29.900770
235  2023-11-10 10:26:29.932654
236  2023-11-10 10:26:29.964567
237  2023-11-10 10:26:30.012486
238  2023-11-10 10:26:30.044481
239  2023-11-10 10:26:30.076363
240  2023-11-10 10:26:30.108277
241  2023-11-10 10:26:30.140220
242  2023-11-10 10:26:30.173148
243  2023-11-10 10:26:30.204050
244  2023-11-10 10:26:30.236960
245  2023-11-10 10:26:30.268886
246  2023-11-10 10:26:30.300851
247  2023-11-10 10:26:30.332807
248  2023-11-10 10:26:30.364881
249  2023-11-10 10:26:30.412809
250  2023-11-10 10:26:30.444703
251  2023-11-10 10:26:30.476616
252  2023-11-10 10:26:30.508498
253  2023-11-10 10:26:30.540413
254  2023-11-10 10:26:30.572379
255  2023-11-10 10:26:30.604426
256  2023-11-10 10:26:30.636458
257  2023-11-10 10:26:30.668390
258  2023-11-10 10:26:30.700176
259  2023-11-10 10:26:30.732111
260  2023-11-10 10:26:30.764069
261  2023-11-10 10:26:30.811948
262  2023-11-10 10:26:30.844874
263  2023-11-10 10:26:30.876786
264  2023-11-10 10:26:30.908690
265  2023-11-10 10:26:30.940616
266  2023-11-10 10:26:30.972527
267  2023-11-10 10:26:31.004452
268  2023-11-10 10:26:31.036359
269  2023-11-10 10:26:31.068271
270  2023-11-10 10:26:31.100202
271  2023-11-10 10:26:31.132106
272  2023-11-10 10:26:31.164980
273  2023-11-10 10:26:31.211898
274  2023-11-10 10:26:31.244800
275  2023-11-10 10:26:31.276714
276  2023-11-10 10:26:31.308631
277  2023-11-10 10:26:31.340545
278  2023-11-10 10:26:31.372460
279  2023-11-10 10:26:31.404381
280  2023-11-10 10:26:31.436286
281  2023-11-10 10:26:31.468204
282  2023-11-10 10:26:31.501122
283  2023-11-10 10:26:31.532045
284  2023-11-10 10:26:31.564951
285  2023-11-10 10:26:31.612820
286  2023-11-10 10:26:31.644697
287  2023-11-10 10:26:31.676647
288  2023-11-10 10:26:31.708527
289  2023-11-10 10:26:31.740478
290  2023-11-10 10:26:31.772391
291  2023-11-10 10:26:31.804304
292  2023-11-10 10:26:31.836222
293  2023-11-10 10:26:31.868955
294  2023-11-10 10:26:31.900872
295  2023-11-10 10:26:31.932776
296  2023-11-10 10:26:31.980652
297  2023-11-10 10:26:32.012567
298  2023-11-10 10:26:32.044478
299  2023-11-10 10:26:32.076401
300  2023-11-10 10:26:32.108322
301  2023-11-10 10:26:32.140217
302  2023-11-10 10:26:32.172140
303  2023-11-10 10:26:32.205051
304  2023-11-10 10:26:32.235970
305  2023-11-10 10:26:32.268877
306  2023-11-10 10:26:32.300792
307  2023-11-10 10:26:32.332706
308  2023-11-10 10:26:32.380571
309  2023-11-10 10:26:32.412500
310  2023-11-10 10:26:32.444412
311  2023-11-10 10:26:32.477291
312  2023-11-10 10:26:32.509203
313  2023-11-10 10:26:32.541149
314  2023-11-10 10:26:32.573067
315  2023-11-10 10:26:32.604979
316  2023-11-10 10:26:32.636909
317  2023-11-10 10:26:32.668998
318  2023-11-10 10:26:32.700937
319  2023-11-10 10:26:32.732827
320  2023-11-10 10:26:32.780729
321  2023-11-10 10:26:32.812537
322  2023-11-10 10:26:32.844510
323  2023-11-10 10:26:32.876460
324  2023-11-10 10:26:32.925334
325  2023-11-10 10:26:32.940290
326  2023-11-10 10:26:32.972209
327  2023-11-10 10:26:33.004113
328  2023-11-10 10:26:33.036041
329  2023-11-10 10:26:33.067950
330  2023-11-10 10:26:33.100855
331  2023-11-10 10:26:33.132772
332  2023-11-10 10:26:33.180645
333  2023-11-10 10:26:33.212556
334  2023-11-10 10:26:33.244471
335  2023-11-10 10:26:33.276388
336  2023-11-10 10:26:33.308313
337  2023-11-10 10:26:33.341182
338  2023-11-10 10:26:33.373096
339  2023-11-10 10:26:33.405011
340  2023-11-10 10:26:33.436926
341  2023-11-10 10:26:33.468840
342  2023-11-10 10:26:33.500755
343  2023-11-10 10:26:33.532670
344  2023-11-10 10:26:33.580542
345  2023-11-10 10:26:33.612457
346  2023-11-10 10:26:33.644381
347  2023-11-10 10:26:33.676285
348  2023-11-10 10:26:33.708232
349  2023-11-10 10:26:33.740149
350  2023-11-10 10:26:33.772063
351  2023-11-10 10:26:33.803976
352  2023-11-10 10:26:33.836891
353  2023-11-10 10:26:33.868806
354  2023-11-10 10:26:33.900731
355  2023-11-10 10:26:33.932602
356  2023-11-10 10:26:33.980511
357  2023-11-10 10:26:34.012428
358  2023-11-10 10:26:34.044334
359  2023-11-10 10:26:34.076269
360  2023-11-10 10:26:34.108161
361  2023-11-10 10:26:34.140072
362  2023-11-10 10:26:34.172957
363  2023-11-10 10:26:34.204871
364  2023-11-10 10:26:34.236822
365  2023-11-10 10:26:34.268725
366  2023-11-10 10:26:34.300807
367  2023-11-10 10:26:34.332824
368  2023-11-10 10:26:34.380694
369  2023-11-10 10:26:34.412607
370  2023-11-10 10:26:34.444525
371  2023-11-10 10:26:34.476439
372  2023-11-10 10:26:34.508362
373  2023-11-10 10:26:34.540275
374  2023-11-10 10:26:34.572194
375  2023-11-10 10:26:34.605087
376  2023-11-10 10:26:34.636026
377  2023-11-10 10:26:34.667942
378  2023-11-10 10:26:34.700855
379  2023-11-10 10:26:34.732754
380  2023-11-10 10:26:34.780619
381  2023-11-10 10:26:34.812544
382  2023-11-10 10:26:34.844462
383  2023-11-10 10:26:34.876386
384  2023-11-10 10:26:34.908278
385  2023-11-10 10:26:34.940213
386  2023-11-10 10:26:34.972129
387  2023-11-10 10:26:35.004995
388  2023-11-10 10:26:35.036939
389  2023-11-10 10:26:35.067862
390  2023-11-10 10:26:35.100768
391  2023-11-10 10:26:35.132688
392  2023-11-10 10:26:35.180560
393  2023-11-10 10:26:35.212473
394  2023-11-10 10:26:35.244405
395  2023-11-10 10:26:35.276307
396  2023-11-10 10:26:35.308211
397  2023-11-10 10:26:35.340149
398  2023-11-10 10:26:35.372042
399  2023-11-10 10:26:35.404952
400  2023-11-10 10:26:35.436874
401  2023-11-10 10:26:35.468789
402  2023-11-10 10:26:35.500703
403  2023-11-10 10:26:35.532618
404  2023-11-10 10:26:35.580491
405  2023-11-10 10:26:35.612408
406  2023-11-10 10:26:35.644328
407  2023-11-10 10:26:35.676263
408  2023-11-10 10:26:35.708163
409  2023-11-10 10:26:35.740072
410  2023-11-10 10:26:35.771985
411  2023-11-10 10:26:35.804892
412  2023-11-10 10:26:35.836794
413  2023-11-10 10:26:35.868722
414  2023-11-10 10:26:35.900636
415  2023-11-10 10:26:35.948507
416  2023-11-10 10:26:35.980421
417  2023-11-10 10:26:36.012338
418  2023-11-10 10:26:36.044259
419  2023-11-10 10:26:36.076179
420  2023-11-10 10:26:36.108078
421  2023-11-10 10:26:36.140002
422  2023-11-10 10:26:36.171922
423  2023-11-10 10:26:36.204787
424  2023-11-10 10:26:36.236731
425  2023-11-10 10:26:36.268653
426  2023-11-10 10:26:36.300576
427  2023-11-10 10:26:36.348436
428  2023-11-10 10:26:36.380353
429  2023-11-10 10:26:36.412274
430  2023-11-10 10:26:36.444196
431  2023-11-10 10:26:36.476095
432  2023-11-10 10:26:36.509007
433  2023-11-10 10:26:36.540928
434  2023-11-10 10:26:36.572828
435  2023-11-10 10:26:36.604756
436  2023-11-10 10:26:36.636670
437  2023-11-10 10:26:36.668548
438  2023-11-10 10:26:36.700519
439  2023-11-10 10:26:36.748381
440  2023-11-10 10:26:36.780285
441  2023-11-10 10:26:36.812198
442  2023-11-10 10:26:36.845107
443  2023-11-10 10:26:36.877020
444  2023-11-10 10:26:36.907936
445  2023-11-10 10:26:36.940873
446  2023-11-10 10:26:36.972789
447  2023-11-10 10:26:37.004682
448  2023-11-10 10:26:37.036597
449  2023-11-10 10:26:37.068509
450  2023-11-10 10:26:37.100429
451  2023-11-10 10:26:37.148291
452  2023-11-10 10:26:37.180209
453  2023-11-10 10:26:37.212094
454  2023-11-10 10:26:37.244053
455  2023-11-10 10:26:37.276944
456  2023-11-10 10:26:37.307885
457  2023-11-10 10:26:37.340783
458  2023-11-10 10:26:37.372705
459  2023-11-10 10:26:37.404613
460  2023-11-10 10:26:37.436534
461  2023-11-10 10:26:37.468435
462  2023-11-10 10:26:37.500324
463  2023-11-10 10:26:37.548259
464  2023-11-10 10:26:37.580148
465  2023-11-10 10:26:37.612071
466  2023-11-10 10:26:37.644973
467  2023-11-10 10:26:37.676895
468  2023-11-10 10:26:37.708798
469  2023-11-10 10:26:37.740681
470  2023-11-10 10:26:37.772629
471  2023-11-10 10:26:37.804544
472  2023-11-10 10:26:37.836460
473  2023-11-10 10:26:37.868384
474  2023-11-10 10:26:37.900254
475  2023-11-10 10:26:37.948200
476  2023-11-10 10:26:37.980232
477  2023-11-10 10:26:38.012175
478  2023-11-10 10:26:38.044163
479  2023-11-10 10:26:38.076075
480  2023-11-10 10:26:38.107943
481  2023-11-10 10:26:38.140895
482  2023-11-10 10:26:38.172804
483  2023-11-10 10:26:38.204721
484  2023-11-10 10:26:38.236636
485  2023-11-10 10:26:38.268545
486  2023-11-10 10:26:38.300462
487  2023-11-10 10:26:38.348337
488  2023-11-10 10:26:38.380268
489  2023-11-10 10:26:38.412164
490  2023-11-10 10:26:38.445073
491  2023-11-10 10:26:38.476006
492  2023-11-10 10:26:38.508871
493  2023-11-10 10:26:38.540825
494  2023-11-10 10:26:38.572788
495  2023-11-10 10:26:38.604693
496  2023-11-10 10:26:38.636606
497  2023-11-10 10:26:38.668524
498  2023-11-10 10:26:38.700439
499  2023-11-10 10:26:38.748544
500  2023-11-10 10:26:38.781297
501  2023-11-10 10:26:38.812213
502  2023-11-10 10:26:38.844128
503  2023-11-10 10:26:38.876199
504  2023-11-10 10:26:38.908103
505  2023-11-10 10:26:38.940026
506  2023-11-10 10:26:38.972978
507  2023-11-10 10:26:39.004848
508  2023-11-10 10:26:39.036766
509  2023-11-10 10:26:39.068679
510  2023-11-10 10:26:39.100610
511  2023-11-10 10:26:39.148467
512  2023-11-10 10:26:39.180393
513  2023-11-10 10:26:39.212290
514  2023-11-10 10:26:39.244219
515  2023-11-10 10:26:39.276124
516  2023-11-10 10:26:39.308037
517  2023-11-10 10:26:39.339953
518  2023-11-10 10:26:39.372891
519  2023-11-10 10:26:39.404781
520  2023-11-10 10:26:39.436719
521  2023-11-10 10:26:39.468625
522  2023-11-10 10:26:39.516471
523  2023-11-10 10:26:39.548424
524  2023-11-10 10:26:39.580335
525  2023-11-10 10:26:39.612261
526  2023-11-10 10:26:39.644179
527  2023-11-10 10:26:39.676086
528  2023-11-10 10:26:39.708004
529  2023-11-10 10:26:39.740871
530  2023-11-10 10:26:39.772834
531  2023-11-10 10:26:39.804727
532  2023-11-10 10:26:39.836647
533  2023-11-10 10:26:39.868564
534  2023-11-10 10:26:39.916402
535  2023-11-10 10:26:39.948355
536  2023-11-10 10:26:39.980364
537  2023-11-10 10:26:40.012181
538  2023-11-10 10:26:40.045095
539  2023-11-10 10:26:40.076015
540  2023-11-10 10:26:40.107920
541  2023-11-10 10:26:40.140858
542  2023-11-10 10:26:40.172747
543  2023-11-10 10:26:40.204656
544  2023-11-10 10:26:40.236571
545  2023-11-10 10:26:40.268499
546  2023-11-10 10:26:40.316332
547  2023-11-10 10:26:40.348285
548  2023-11-10 10:26:40.380209
549  2023-11-10 10:26:40.412112
550  2023-11-10 10:26:40.443991
551  2023-11-10 10:26:40.476004
552  2023-11-10 10:26:40.507921
553  2023-11-10 10:26:40.540830
554  2023-11-10 10:26:40.572737
555  2023-11-10 10:26:40.604651
556  2023-11-10 10:26:40.636574
557  2023-11-10 10:26:40.668490
558  2023-11-10 10:26:40.716371
559  2023-11-10 10:26:40.748279
560  2023-11-10 10:26:40.780189
561  2023-11-10 10:26:40.812070
562  2023-11-10 10:26:40.844026
563  2023-11-10 10:26:40.875946
564  2023-11-10 10:26:40.908853
565  2023-11-10 10:26:40.940757
566  2023-11-10 10:26:40.972672
567  2023-11-10 10:26:41.004585
568  2023-11-10 10:26:41.036504
569  2023-11-10 10:26:41.068054
570  2023-11-10 10:26:41.115893
571  2023-11-10 10:26:41.148858
572  2023-11-10 10:26:41.180752
573  2023-11-10 10:26:41.212661
574  2023-11-10 10:26:41.244569
575  2023-11-10 10:26:41.276491
576  2023-11-10 10:26:41.308403
577  2023-11-10 10:26:41.340332
578  2023-11-10 10:26:41.372203
579  2023-11-10 10:26:41.405141
580  2023-11-10 10:26:41.436066
581  2023-11-10 10:26:41.467987
582  2023-11-10 10:26:41.516817
583  2023-11-10 10:26:41.548770
584  2023-11-10 10:26:41.580671
585  2023-11-10 10:26:41.612591
586  2023-11-10 10:26:41.644502
587  2023-11-10 10:26:41.676424
588  2023-11-10 10:26:41.708341
589  2023-11-10 10:26:41.740259
590  2023-11-10 10:26:41.772167
591  2023-11-10 10:26:41.804079
592  2023-11-10 10:26:41.837006
593  2023-11-10 10:26:41.868911
594  2023-11-10 10:26:41.916780
595  2023-11-10 10:26:41.948686
596  2023-11-10 10:26:41.980602
597  2023-11-10 10:26:42.012517
598  2023-11-10 10:26:42.044432
599  2023-11-10 10:26:42.076356
600  2023-11-10 10:26:42.108268
601  2023-11-10 10:26:42.140188
602  2023-11-10 10:26:42.172107
603  2023-11-10 10:26:42.204977
604  2023-11-10 10:26:42.236926
605  2023-11-10 10:26:42.268834
606  2023-11-10 10:26:42.316607
607  2023-11-10 10:26:42.348541
608  2023-11-10 10:26:42.380423
609  2023-11-10 10:26:42.412339
610  2023-11-10 10:26:42.444286
611  2023-11-10 10:26:42.476251
612  2023-11-10 10:26:42.508167
613  2023-11-10 10:26:42.540077
614  2023-11-10 10:26:42.571991
615  2023-11-10 10:26:42.604901
616  2023-11-10 10:26:42.636814
617  2023-11-10 10:26:42.668639
618  2023-11-10 10:26:42.716587
619  2023-11-10 10:26:42.748496
620  2023-11-10 10:26:42.780409
621  2023-11-10 10:26:42.812330
622  2023-11-10 10:26:42.844245
623  2023-11-10 10:26:42.876159
624  2023-11-10 10:26:42.908072
625  2023-11-10 10:26:42.939986
626  2023-11-10 10:26:42.972909
627  2023-11-10 10:26:43.004815
628  2023-11-10 10:26:43.036729
629  2023-11-10 10:26:43.068642
630  2023-11-10 10:26:43.116484
631  2023-11-10 10:26:43.148434
632  2023-11-10 10:26:43.180372
633  2023-11-10 10:26:43.212261
634  2023-11-10 10:26:43.244186
635  2023-11-10 10:26:43.276098
636  2023-11-10 10:26:43.308015
637  2023-11-10 10:26:43.339927
638  2023-11-10 10:26:43.372844
639  2023-11-10 10:26:43.404714
640  2023-11-10 10:26:43.436654
641  2023-11-10 10:26:43.484500
642  2023-11-10 10:26:43.516415
643  2023-11-10 10:26:43.548330
644  2023-11-10 10:26:43.580342
645  2023-11-10 10:26:43.612387
646  2023-11-10 10:26:43.644392
647  2023-11-10 10:26:43.676313
648  2023-11-10 10:26:43.708213
649  2023-11-10 10:26:43.740258
650  2023-11-10 10:26:43.772181
651  2023-11-10 10:26:43.804099
652  2023-11-10 10:26:43.836032
653  2023-11-10 10:26:43.884836
654  2023-11-10 10:26:43.916751
655  2023-11-10 10:26:43.948690
656  2023-11-10 10:26:43.980606
657  2023-11-10 10:26:44.012520
658  2023-11-10 10:26:44.044463
659  2023-11-10 10:26:44.076458
660  2023-11-10 10:26:44.108386
661  2023-11-10 10:26:44.140383
662  2023-11-10 10:26:44.172287
663  2023-11-10 10:26:44.205167
664  2023-11-10 10:26:44.236109
665  2023-11-10 10:26:44.284952
666  2023-11-10 10:26:44.316872
667  2023-11-10 10:26:44.348807
668  2023-11-10 10:26:44.380727
669  2023-11-10 10:26:44.412643
670  2023-11-10 10:26:44.444525
671  2023-11-10 10:26:44.476496
672  2023-11-10 10:26:44.508447
673  2023-11-10 10:26:44.540412
674  2023-11-10 10:26:44.572320
675  2023-11-10 10:26:44.604225
676  2023-11-10 10:26:44.636107
677  2023-11-10 10:26:44.684975
678  2023-11-10 10:26:44.716904
679  2023-11-10 10:26:44.748847
680  2023-11-10 10:26:44.780758
681  2023-11-10 10:26:44.812668
682  2023-11-10 10:26:44.844583
683  2023-11-10 10:26:44.876498
684  2023-11-10 10:26:44.908418
685  2023-11-10 10:26:44.940340
686  2023-11-10 10:26:44.972264
687  2023-11-10 10:26:45.004156
688  2023-11-10 10:26:45.036071
689  2023-11-10 10:26:45.084906
690  2023-11-10 10:26:45.116821
691  2023-11-10 10:26:45.148761
692  2023-11-10 10:26:45.180676
693  2023-11-10 10:26:45.212599
694  2023-11-10 10:26:45.244513
695  2023-11-10 10:26:45.276426
696  2023-11-10 10:26:45.308345
697  2023-11-10 10:26:45.340260
698  2023-11-10 10:26:45.372178
699  2023-11-10 10:26:45.404084
700  2023-11-10 10:26:45.436018
701  2023-11-10 10:26:45.484941
702  2023-11-10 10:26:45.516969
703  2023-11-10 10:26:45.547916
704  2023-11-10 10:26:45.580854
705  2023-11-10 10:26:45.612737
706  2023-11-10 10:26:45.644651
707  2023-11-10 10:26:45.676571
708  2023-11-10 10:26:45.708491
709  2023-11-10 10:26:45.740398
710  2023-11-10 10:26:45.772319
711  2023-11-10 10:26:45.804259
712  2023-11-10 10:26:45.837114
713  2023-11-10 10:26:45.885017
714  2023-11-10 10:26:45.916901
715  2023-11-10 10:26:45.948855
716  2023-11-10 10:26:45.980757
717  2023-11-10 10:26:46.012674
718  2023-11-10 10:26:46.044590
719  2023-11-10 10:26:46.076506
720  2023-11-10 10:26:46.108419
721  2023-11-10 10:26:46.140334
722  2023-11-10 10:26:46.172260
723  2023-11-10 10:26:46.205163
724  2023-11-10 10:26:46.236078
725  2023-11-10 10:26:46.283919
726  2023-11-10 10:26:46.316831
727  2023-11-10 10:26:46.348770
728  2023-11-10 10:26:46.380661
729  2023-11-10 10:26:46.412576
730  2023-11-10 10:26:46.444520
731  2023-11-10 10:26:46.476464
732  2023-11-10 10:26:46.508438
733  2023-11-10 10:26:46.540417
734  2023-11-10 10:26:46.572332
735  2023-11-10 10:26:46.604275
736  2023-11-10 10:26:46.636164
737  2023-11-10 10:26:46.684033
738  2023-11-10 10:26:46.716976
739  2023-11-10 10:26:46.748862
740  2023-11-10 10:26:46.780809
741  2023-11-10 10:26:46.812689
742  2023-11-10 10:26:46.844634
743  2023-11-10 10:26:46.876548
744  2023-11-10 10:26:46.908460
745  2023-11-10 10:26:46.940392
746  2023-11-10 10:26:46.972322
747  2023-11-10 10:26:47.004183
748  2023-11-10 10:26:47.052049
749  2023-11-10 10:26:47.084041
750  2023-11-10 10:26:47.116966
751  2023-11-10 10:26:47.148905
752  2023-11-10 10:26:47.180843
753  2023-11-10 10:26:47.212736
754  2023-11-10 10:26:47.244659
755  2023-11-10 10:26:47.276571
756  2023-11-10 10:26:47.308486
757  2023-11-10 10:26:47.340403
758  2023-11-10 10:26:47.372307
759  2023-11-10 10:26:47.404235
760  2023-11-10 10:26:47.452067
761  2023-11-10 10:26:47.483981
762  2023-11-10 10:26:47.516896
763  2023-11-10 10:26:47.548845
764  2023-11-10 10:26:47.580723
765  2023-11-10 10:26:47.612674
766  2023-11-10 10:26:47.644552
767  2023-11-10 10:26:47.676501
768  2023-11-10 10:26:47.708430
769  2023-11-10 10:26:47.740455
770  2023-11-10 10:26:47.772376
771  2023-11-10 10:26:47.805281
772  2023-11-10 10:26:47.853301
773  2023-11-10 10:26:47.884177
774  2023-11-10 10:26:47.917089
775  2023-11-10 10:26:47.949042
776  2023-11-10 10:26:47.980920
777  2023-11-10 10:26:48.012873
778  2023-11-10 10:26:48.044789
779  2023-11-10 10:26:48.076702
780  2023-11-10 10:26:48.108701
781  2023-11-10 10:26:48.140618
782  2023-11-10 10:26:48.172557
783  2023-11-10 10:26:48.205573
784  2023-11-10 10:26:48.252477
785  2023-11-10 10:26:48.284495
786  2023-11-10 10:26:48.316478
787  2023-11-10 10:26:48.348389
788  2023-11-10 10:26:48.381372
789  2023-11-10 10:26:48.412243
790  2023-11-10 10:26:48.444170
791  2023-11-10 10:26:48.476077
792  2023-11-10 10:26:48.508962
793  2023-11-10 10:26:48.540908
794  2023-11-10 10:26:48.572832
795  2023-11-10 10:26:48.604739
796  2023-11-10 10:26:48.652601
797  2023-11-10 10:26:48.684490
798  2023-11-10 10:26:48.717429
799  2023-11-10 10:26:48.748462
800  2023-11-10 10:26:48.780376
801  2023-11-10 10:26:48.812296
802  2023-11-10 10:26:48.844220
803  2023-11-10 10:26:48.876127
804  2023-11-10 10:26:48.909042
805  2023-11-10 10:26:48.940960
806  2023-11-10 10:26:48.971947
807  2023-11-10 10:26:49.004856
808  2023-11-10 10:26:49.052747
809  2023-11-10 10:26:49.084725
810  2023-11-10 10:26:49.116601
811  2023-11-10 10:26:49.148516
812  2023-11-10 10:26:49.180431
813  2023-11-10 10:26:49.212376
814  2023-11-10 10:26:49.245292
815  2023-11-10 10:26:49.276327
816  2023-11-10 10:26:49.309235
817  2023-11-10 10:26:49.340153
818  2023-11-10 10:26:49.372073
819  2023-11-10 10:26:49.404981
820  2023-11-10 10:26:49.451823
821  2023-11-10 10:26:49.484759
822  2023-11-10 10:26:49.516709
823  2023-11-10 10:26:49.548600
824  2023-11-10 10:26:49.580512
825  2023-11-10 10:26:49.612394
826  2023-11-10 10:26:49.644339
827  2023-11-10 10:26:49.677221
828  2023-11-10 10:26:49.709141
829  2023-11-10 10:26:49.741103
830  2023-11-10 10:26:49.772964
831  2023-11-10 10:26:49.804896
832  2023-11-10 10:26:49.852786
833  2023-11-10 10:26:49.884666
834  2023-11-10 10:26:49.916611
835  2023-11-10 10:26:49.948530
836  2023-11-10 10:26:49.980445
837  2023-11-10 10:26:50.012359
838  2023-11-10 10:26:50.044283
839  2023-11-10 10:26:50.076190
840  2023-11-10 10:26:50.108106
841  2023-11-10 10:26:50.140015
842  2023-11-10 10:26:50.172932
843  2023-11-10 10:26:50.204860
844  2023-11-10 10:26:50.252682
845  2023-11-10 10:26:50.284596
846  2023-11-10 10:26:50.316550
847  2023-11-10 10:26:50.348426
848  2023-11-10 10:26:50.380424
849  2023-11-10 10:26:50.412432
850  2023-11-10 10:26:50.444356
851  2023-11-10 10:26:50.476252
852  2023-11-10 10:26:50.508181
853  2023-11-10 10:26:50.540088
854  2023-11-10 10:26:50.572022
855  2023-11-10 10:26:50.603917
856  2023-11-10 10:26:50.652793
857  2023-11-10 10:26:50.684706
858  2023-11-10 10:26:50.716622
859  2023-11-10 10:26:50.748549
860  2023-11-10 10:26:50.780448
861  2023-11-10 10:26:50.812365
862  2023-11-10 10:26:50.844350
863  2023-11-10 10:26:50.876265
864  2023-11-10 10:26:50.908194
865  2023-11-10 10:26:50.940100
866  2023-11-10 10:26:50.972009
867  2023-11-10 10:26:51.020881
868  2023-11-10 10:26:51.052799
869  2023-11-10 10:26:51.084677
870  2023-11-10 10:26:51.116622
871  2023-11-10 10:26:51.148582
872  2023-11-10 10:26:51.180652
873  2023-11-10 10:26:51.212637
874  2023-11-10 10:26:51.244556
875  2023-11-10 10:26:51.276436
876  2023-11-10 10:26:51.308392
877  2023-11-10 10:26:51.340214
878  2023-11-10 10:26:51.372097
879  2023-11-10 10:26:51.420082
880  2023-11-10 10:26:51.451951
881  2023-11-10 10:26:51.484863
882  2023-11-10 10:26:51.516808
883  2023-11-10 10:26:51.548727
884  2023-11-10 10:26:51.580644
885  2023-11-10 10:26:51.612555
886  2023-11-10 10:26:51.644465
887  2023-11-10 10:26:51.676424
888  2023-11-10 10:26:51.708418
889  2023-11-10 10:26:51.740324
890  2023-11-10 10:26:51.772239
891  2023-11-10 10:26:51.820079
892  2023-11-10 10:26:51.851992
893  2023-11-10 10:26:51.883907
894  2023-11-10 10:26:51.916853
895  2023-11-10 10:26:51.948766
896  2023-11-10 10:26:51.980686
897  2023-11-10 10:26:52.012598
898  2023-11-10 10:26:52.044479
899  2023-11-10 10:26:52.076419
900  2023-11-10 10:26:52.108350
901  2023-11-10 10:26:52.140254
902  2023-11-10 10:26:52.173166
903  2023-11-10 10:26:52.220054
904  2023-11-10 10:26:52.251954
905  2023-11-10 10:26:52.284835
906  2023-11-10 10:26:52.316780
907  2023-11-10 10:26:52.348706
908  2023-11-10 10:26:52.380616
909  2023-11-10 10:26:52.412527
910  2023-11-10 10:26:52.444454
911  2023-11-10 10:26:52.476374
912  2023-11-10 10:26:52.508284
913  2023-11-10 10:26:52.540292
914  2023-11-10 10:26:52.572235
915  2023-11-10 10:26:52.620093
916  2023-11-10 10:26:52.652958
917  2023-11-10 10:26:52.684873
918  2023-11-10 10:26:52.716819
919  2023-11-10 10:26:52.748735
920  2023-11-10 10:26:52.780653
921  2023-11-10 10:26:52.812573
922  2023-11-10 10:26:52.844484
923  2023-11-10 10:26:52.876409
924  2023-11-10 10:26:52.908277
925  2023-11-10 10:26:52.940255
926  2023-11-10 10:26:52.972147
927  2023-11-10 10:26:53.020017
928  2023-11-10 10:26:53.052922
929  2023-11-10 10:26:53.084804
930  2023-11-10 10:26:53.116756
931  2023-11-10 10:26:53.148667
932  2023-11-10 10:26:53.180585
933  2023-11-10 10:26:53.212497
934  2023-11-10 10:26:53.244418
935  2023-11-10 10:26:53.276337
936  2023-11-10 10:26:53.308243
937  2023-11-10 10:26:53.341151
938  2023-11-10 10:26:53.373066
939  2023-11-10 10:26:53.420908
940  2023-11-10 10:26:53.452872
941  2023-11-10 10:26:53.484765
942  2023-11-10 10:26:53.516649
943  2023-11-10 10:26:53.548601
944  2023-11-10 10:26:53.580511
945  2023-11-10 10:26:53.612425
946  2023-11-10 10:26:53.644350
947  2023-11-10 10:26:53.676266
948  2023-11-10 10:26:53.708364
949  2023-11-10 10:26:53.740242
950  2023-11-10 10:26:53.773145
951  2023-11-10 10:26:53.820126
952  2023-11-10 10:26:53.852041
953  2023-11-10 10:26:53.884982
954  2023-11-10 10:26:53.915994
955  2023-11-10 10:26:53.947964
956  2023-11-10 10:26:53.980858
957  2023-11-10 10:26:54.012772
958  2023-11-10 10:26:54.044688
959  2023-11-10 10:26:54.076653
960  2023-11-10 10:26:54.108576
961  2023-11-10 10:26:54.140578
962  2023-11-10 10:26:54.172460
963  2023-11-10 10:26:54.220378
964  2023-11-10 10:26:54.252288
965  2023-11-10 10:26:54.284161
966  2023-11-10 10:26:54.316076
967  2023-11-10 10:26:54.348025
968  2023-11-10 10:26:54.380929
969  2023-11-10 10:26:54.412857
970  2023-11-10 10:26:54.444767
971  2023-11-10 10:26:54.476682
972  2023-11-10 10:26:54.508563
973  2023-11-10 10:26:54.540479
974  2023-11-10 10:26:54.589348
975  2023-11-10 10:26:54.620304
976  2023-11-10 10:26:54.652219
977  2023-11-10 10:26:54.684244
978  2023-11-10 10:26:54.716200
979  2023-11-10 10:26:54.748145
980  2023-11-10 10:26:54.781058
981  2023-11-10 10:26:54.811982
982  2023-11-10 10:26:54.844894
983  2023-11-10 10:26:54.876774
984  2023-11-10 10:26:54.908720
985  2023-11-10 10:26:54.940632
986  2023-11-10 10:26:54.988511
987  2023-11-10 10:26:55.020429
988  2023-11-10 10:26:55.052305
989  2023-11-10 10:26:55.084218
990  2023-11-10 10:26:55.116171
991  2023-11-10 10:26:55.148081
992  2023-11-10 10:26:55.180998
993  2023-11-10 10:26:55.212909
994  2023-11-10 10:26:55.244822
995  2023-11-10 10:26:55.276731
996  2023-11-10 10:26:55.308647
997  2023-11-10 10:26:55.340570
998  2023-11-10 10:26:55.388441
999  2023-11-10 10:26:55.420353
1000  2023-11-10 10:26:55.452266
1001  2023-11-10 10:26:55.484188
1002  2023-11-10 10:26:55.516061
1003  2023-11-10 10:26:55.548022
1004  2023-11-10 10:26:55.580890
1005  2023-11-10 10:26:55.612837
1006  2023-11-10 10:26:55.644748
1007  2023-11-10 10:26:55.676670
1008  2023-11-10 10:26:55.708581
1009  2023-11-10 10:26:55.740500
1010  2023-11-10 10:26:55.788334
1011  2023-11-10 10:26:55.820288
1012  2023-11-10 10:26:55.852203
1013  2023-11-10 10:26:55.884119
1014  2023-11-10 10:26:55.916990
1015  2023-11-10 10:26:55.948541
1016  2023-11-10 10:26:55.980527
1017  2023-11-10 10:26:56.012438
1018  2023-11-10 10:26:56.044350
1019  2023-11-10 10:26:56.076271
1020  2023-11-10 10:26:56.108968
1021  2023-11-10 10:26:56.139885
1022  2023-11-10 10:26:56.188830
1023  2023-11-10 10:26:56.220728
1024  2023-11-10 10:26:56.252640
1025  2023-11-10 10:26:56.284556
1026  2023-11-10 10:26:56.316466
1027  2023-11-10 10:26:56.348399
1028  2023-11-10 10:26:56.381119
1029  2023-11-10 10:26:56.413046
1030  2023-11-10 10:26:56.443996
1031  2023-11-10 10:26:56.476895
1032  2023-11-10 10:26:56.508778
1033  2023-11-10 10:26:56.540722
1034  2023-11-10 10:26:56.588594
1035  2023-11-10 10:26:56.620479
1036  2023-11-10 10:26:56.652426
1037  2023-11-10 10:26:56.684343
1038  2023-11-10 10:26:56.716265
1039  2023-11-10 10:26:56.748194
1040  2023-11-10 10:26:56.780084
1041  2023-11-10 10:26:56.812989
1042  2023-11-10 10:26:56.844907
1043  2023-11-10 10:26:56.876846
1044  2023-11-10 10:26:56.908743
1045  2023-11-10 10:26:56.940659
1046  2023-11-10 10:26:56.988495
1047  2023-11-10 10:26:57.020442
1048  2023-11-10 10:26:57.052368
1049  2023-11-10 10:26:57.084276
1050  2023-11-10 10:26:57.116196
1051  2023-11-10 10:26:57.148105
1052  2023-11-10 10:26:57.180017
1053  2023-11-10 10:26:57.212897
1054  2023-11-10 10:26:57.244851
1055  2023-11-10 10:26:57.276758
1056  2023-11-10 10:26:57.308681
1057  2023-11-10 10:26:57.340589
1058  2023-11-10 10:26:57.388458
1059  2023-11-10 10:26:57.420399
1060  2023-11-10 10:26:57.452292
1061  2023-11-10 10:26:57.484206
1062  2023-11-10 10:26:57.516122
1063  2023-11-10 10:26:57.548039
1064  2023-11-10 10:26:57.580944
1065  2023-11-10 10:26:57.612867
1066  2023-11-10 10:26:57.644778
1067  2023-11-10 10:26:57.676691
1068  2023-11-10 10:26:57.708570
1069  2023-11-10 10:26:57.740516
1070  2023-11-10 10:26:57.788358
1071  2023-11-10 10:26:57.820305
1072  2023-11-10 10:26:57.852217
1073  2023-11-10 10:26:57.884132
1074  2023-11-10 10:26:57.917046
1075  2023-11-10 10:26:57.947962
1076  2023-11-10 10:26:57.980887
1077  2023-11-10 10:26:58.012781
1078  2023-11-10 10:26:58.044712
1079  2023-11-10 10:26:58.076619
1080  2023-11-10 10:26:58.108655
1081  2023-11-10 10:26:58.140565
1082  2023-11-10 10:26:58.188409
1083  2023-11-10 10:26:58.220361
1084  2023-11-10 10:26:58.252265
1085  2023-11-10 10:26:58.284173
1086  2023-11-10 10:26:58.316105
1087  2023-11-10 10:26:58.348012
1088  2023-11-10 10:26:58.379926
1089  2023-11-10 10:26:58.412837
1090  2023-11-10 10:26:58.444753
1091  2023-11-10 10:26:58.476670
1092  2023-11-10 10:26:58.508586
1093  2023-11-10 10:26:58.556420
1094  2023-11-10 10:26:58.588381
1095  2023-11-10 10:26:58.620251
1096  2023-11-10 10:26:58.652205
1097  2023-11-10 10:26:58.684111
1098  2023-11-10 10:26:58.716040
1099  2023-11-10 10:26:58.747943
1100  2023-11-10 10:26:58.780874
1101  2023-11-10 10:26:58.812734
1102  2023-11-10 10:26:58.844680
1103  2023-11-10 10:26:58.876603
1104  2023-11-10 10:26:58.908518
1105  2023-11-10 10:26:58.956399
1106  2023-11-10 10:26:58.988265
1107  2023-11-10 10:26:59.020180
1108  2023-11-10 10:26:59.052126
1109  2023-11-10 10:26:59.084048
1110  2023-11-10 10:26:59.115961
1111  2023-11-10 10:26:59.148871
1112  2023-11-10 10:26:59.180785
1113  2023-11-10 10:26:59.212699
1114  2023-11-10 10:26:59.244615
1115  2023-11-10 10:26:59.276570
1116  2023-11-10 10:26:59.308555
1117  2023-11-10 10:26:59.356394
1118  2023-11-10 10:26:59.388309
1119  2023-11-10 10:26:59.420223
1120  2023-11-10 10:26:59.452259
1121  2023-11-10 10:26:59.484161
1122  2023-11-10 10:26:59.516121
1123  2023-11-10 10:26:59.548089
1124  2023-11-10 10:26:59.580998
1125  2023-11-10 10:26:59.612883
1126  2023-11-10 10:26:59.644797
1127  2023-11-10 10:26:59.676825
1128  2023-11-10 10:26:59.708784
1129  2023-11-10 10:26:59.756673
1130  2023-11-10 10:26:59.788587
1131  2023-11-10 10:26:59.820502
1132  2023-11-10 10:26:59.852514
1133  2023-11-10 10:26:59.884429
1134  2023-11-10 10:26:59.916370
1135  2023-11-10 10:26:59.948257
1136  2023-11-10 10:26:59.980208
1137  2023-11-10 10:27:00.012163
1138  2023-11-10 10:27:00.044087
1139  2023-11-10 10:27:00.075997
1140  2023-11-10 10:27:00.108899
1141  2023-11-10 10:27:00.156739
1142  2023-11-10 10:27:00.188654
1143  2023-11-10 10:27:00.220606
1144  2023-11-10 10:27:00.252510
1145  2023-11-10 10:27:00.284398
1146  2023-11-10 10:27:00.316313
1147  2023-11-10 10:27:00.348267
1148  2023-11-10 10:27:00.380178
1149  2023-11-10 10:27:00.412087
1150  2023-11-10 10:27:00.444002
1151  2023-11-10 10:27:00.476912
1152  2023-11-10 10:27:00.508840
1153  2023-11-10 10:27:00.556670
1154  2023-11-10 10:27:00.588616
1155  2023-11-10 10:27:00.620499
1156  2023-11-10 10:27:00.652414
1157  2023-11-10 10:27:00.684329
1158  2023-11-10 10:27:00.716276
1159  2023-11-10 10:27:00.748193
1160  2023-11-10 10:27:00.780112
1161  2023-11-10 10:27:00.813021
1162  2023-11-10 10:27:00.843927
1163  2023-11-10 10:27:00.876840
1164  2023-11-10 10:27:00.908763
1165  2023-11-10 10:27:00.956601
1166  2023-11-10 10:27:00.988548
1167  2023-11-10 10:27:01.020430
1168  2023-11-10 10:27:01.052389
1169  2023-11-10 10:27:01.084336
1170  2023-11-10 10:27:01.116286
1171  2023-11-10 10:27:01.148232
1172  2023-11-10 10:27:01.180170
1173  2023-11-10 10:27:01.212078
1174  2023-11-10 10:27:01.243987
1175  2023-11-10 10:27:01.276889
1176  2023-11-10 10:27:01.308809
1177  2023-11-10 10:27:01.356777
1178  2023-11-10 10:27:01.388776
1179  2023-11-10 10:27:01.420814
1180  2023-11-10 10:27:01.452728
1181  2023-11-10 10:27:01.484643
1182  2023-11-10 10:27:01.516558
1183  2023-11-10 10:27:01.548510
1184  2023-11-10 10:27:01.580437
1185  2023-11-10 10:27:01.612439
1186  2023-11-10 10:27:01.644356
1187  2023-11-10 10:27:01.676259
1188  2023-11-10 10:27:01.708190
1189  2023-11-10 10:27:01.756020
1190  2023-11-10 10:27:01.789069
1191  2023-11-10 10:27:01.820847
1192  2023-11-10 10:27:01.852761
1193  2023-11-10 10:27:01.884676
1194  2023-11-10 10:27:01.916591
1195  2023-11-10 10:27:01.948531
1196  2023-11-10 10:27:01.980456
1197  2023-11-10 10:27:02.012387
1198  2023-11-10 10:27:02.044286
1199  2023-11-10 10:27:02.077196
1200  2023-11-10 10:27:02.125035
1201  2023-11-10 10:27:02.155951
1202  2023-11-10 10:27:02.188863
1203  2023-11-10 10:27:02.220778
1204  2023-11-10 10:27:02.252726
1205  2023-11-10 10:27:02.284607
1206  2023-11-10 10:27:02.316522
1207  2023-11-10 10:27:02.348461
1208  2023-11-10 10:27:02.380383
1209  2023-11-10 10:27:02.412318
1210  2023-11-10 10:27:02.444212
1211  2023-11-10 10:27:02.476135
1212  2023-11-10 10:27:02.523967
1213  2023-11-10 10:27:02.556879
1214  2023-11-10 10:27:02.588823
1215  2023-11-10 10:27:02.620708
1216  2023-11-10 10:27:02.652623
1217  2023-11-10 10:27:02.684544
1218  2023-11-10 10:27:02.716484
1219  2023-11-10 10:27:02.748397
1220  2023-11-10 10:27:02.780334
1221  2023-11-10 10:27:02.812196
1222  2023-11-10 10:27:02.844149
1223  2023-11-10 10:27:02.876061
1224  2023-11-10 10:27:02.924895
1225  2023-11-10 10:27:02.956810
1226  2023-11-10 10:27:02.988725
1227  2023-11-10 10:27:03.020640
1228  2023-11-10 10:27:03.052554
1229  2023-11-10 10:27:03.084468
1230  2023-11-10 10:27:03.116383
1231  2023-11-10 10:27:03.148333
1232  2023-11-10 10:27:03.180247
1233  2023-11-10 10:27:03.212162
1234  2023-11-10 10:27:03.244102
1235  2023-11-10 10:27:03.276987
1236  2023-11-10 10:27:03.324826
1237  2023-11-10 10:27:03.356741
1238  2023-11-10 10:27:03.388801
1239  2023-11-10 10:27:03.420716
1240  2023-11-10 10:27:03.452630
1241  2023-11-10 10:27:03.484545
1242  2023-11-10 10:27:03.516460
1243  2023-11-10 10:27:03.549418
1244  2023-11-10 10:27:03.580334
1245  2023-11-10 10:27:03.612268
1246  2023-11-10 10:27:03.644152
1247  2023-11-10 10:27:03.677032
1248  2023-11-10 10:27:03.724903
1249  2023-11-10 10:27:03.756820
1250  2023-11-10 10:27:03.788734
1251  2023-11-10 10:27:03.820646
1252  2023-11-10 10:27:03.852561
1253  2023-11-10 10:27:03.884477
1254  2023-11-10 10:27:03.916394
1255  2023-11-10 10:27:03.948348
1256  2023-11-10 10:27:03.980258
1257  2023-11-10 10:27:04.012182
1258  2023-11-10 10:27:04.045078
1259  2023-11-10 10:27:04.076986
1260  2023-11-10 10:27:04.124870
1261  2023-11-10 10:27:04.156748
1262  2023-11-10 10:27:04.188663
1263  2023-11-10 10:27:04.220610
1264  2023-11-10 10:27:04.252492
1265  2023-11-10 10:27:04.284407
1266  2023-11-10 10:27:04.316321
1267  2023-11-10 10:27:04.348262
1268  2023-11-10 10:27:04.380188
1269  2023-11-10 10:27:04.412114
1270  2023-11-10 10:27:04.445010
1271  2023-11-10 10:27:04.476930
1272  2023-11-10 10:27:04.524764
1273  2023-11-10 10:27:04.556712
1274  2023-11-10 10:27:04.588618
1275  2023-11-10 10:27:04.620508
1276  2023-11-10 10:27:04.652423
1277  2023-11-10 10:27:04.684337
1278  2023-11-10 10:27:04.716280
1279  2023-11-10 10:27:04.748209
1280  2023-11-10 10:27:04.781132
1281  2023-11-10 10:27:04.813002
1282  2023-11-10 10:27:04.844948
1283  2023-11-10 10:27:04.876879
1284  2023-11-10 10:27:04.924695
1285  2023-11-10 10:27:04.956609
1286  2023-11-10 10:27:04.988524
1287  2023-11-10 10:27:05.020439
1288  2023-11-10 10:27:05.052353
1289  2023-11-10 10:27:05.084268
1290  2023-11-10 10:27:05.116183
1291  2023-11-10 10:27:05.148188
1292  2023-11-10 10:27:05.180196
1293  2023-11-10 10:27:05.212109
1294  2023-11-10 10:27:05.244018
1295  2023-11-10 10:27:05.275940
1296  2023-11-10 10:27:05.324768
1297  2023-11-10 10:27:05.356682
1298  2023-11-10 10:27:05.388680
1299  2023-11-10 10:27:05.420594
1300  2023-11-10 10:27:05.452604
1301  2023-11-10 10:27:05.484518
1302  2023-11-10 10:27:05.516433
1303  2023-11-10 10:27:05.548385
1304  2023-11-10 10:27:05.580288
1305  2023-11-10 10:27:05.612220
1306  2023-11-10 10:27:05.644119
1307  2023-11-10 10:27:05.676037
1308  2023-11-10 10:27:05.724876
1309  2023-11-10 10:27:05.756790
1310  2023-11-10 10:27:05.788705
1311  2023-11-10 10:27:05.820739
1312  2023-11-10 10:27:05.852654
1313  2023-11-10 10:27:05.884572
1314  2023-11-10 10:27:05.916613
1315  2023-11-10 10:27:05.948555
1316  2023-11-10 10:27:05.980480
1317  2023-11-10 10:27:06.012406
1318  2023-11-10 10:27:06.044312
1319  2023-11-10 10:27:06.092173
1320  2023-11-10 10:27:06.124110
1321  2023-11-10 10:27:06.155971
1322  2023-11-10 10:27:06.188883
1323  2023-11-10 10:27:06.220969
1324  2023-11-10 10:27:06.252898
1325  2023-11-10 10:27:06.284846
1326  2023-11-10 10:27:06.316761
1327  2023-11-10 10:27:06.348713
1328  2023-11-10 10:27:06.380627
1329  2023-11-10 10:27:06.412542
1330  2023-11-10 10:27:06.444453
1331  2023-11-10 10:27:06.492292
1332  2023-11-10 10:27:06.524206
1333  2023-11-10 10:27:06.556121
1334  2023-11-10 10:27:06.588036
1335  2023-11-10 10:27:06.620951
1336  2023-11-10 10:27:06.652864
1337  2023-11-10 10:27:06.684778
1338  2023-11-10 10:27:06.716693
1339  2023-11-10 10:27:06.748641
1340  2023-11-10 10:27:06.780549
1341  2023-11-10 10:27:06.812470
1342  2023-11-10 10:27:06.844391
1343  2023-11-10 10:27:06.892224
1344  2023-11-10 10:27:06.924138
1345  2023-11-10 10:27:06.956053
1346  2023-11-10 10:27:06.988965
1347  2023-11-10 10:27:07.020881
1348  2023-11-10 10:27:07.052795
1349  2023-11-10 10:27:07.084723
1350  2023-11-10 10:27:07.116602
1351  2023-11-10 10:27:07.148552
1352  2023-11-10 10:27:07.180465
1353  2023-11-10 10:27:07.212384
1354  2023-11-10 10:27:07.244299
1355  2023-11-10 10:27:07.293131
1356  2023-11-10 10:27:07.324047
1357  2023-11-10 10:27:07.356959
1358  2023-11-10 10:27:07.388874
1359  2023-11-10 10:27:07.420821
1360  2023-11-10 10:27:07.452703
1361  2023-11-10 10:27:07.484618
1362  2023-11-10 10:27:07.516533
1363  2023-11-10 10:27:07.548475
1364  2023-11-10 10:27:07.580419
1365  2023-11-10 10:27:07.612329
1366  2023-11-10 10:27:07.644223
1367  2023-11-10 10:27:07.692063
1368  2023-11-10 10:27:07.724975
1369  2023-11-10 10:27:07.756932
1370  2023-11-10 10:27:07.788805
1371  2023-11-10 10:27:07.820719
1372  2023-11-10 10:27:07.852634
1373  2023-11-10 10:27:07.884581
1374  2023-11-10 10:27:07.916463
1375  2023-11-10 10:27:07.948407
1376  2023-11-10 10:27:07.980326
1377  2023-11-10 10:27:08.012257
1378  2023-11-10 10:27:08.044156
1379  2023-11-10 10:27:08.092031
1380  2023-11-10 10:27:08.123909
1381  2023-11-10 10:27:08.156821
1382  2023-11-10 10:27:08.188735
1383  2023-11-10 10:27:08.220650
1384  2023-11-10 10:27:08.252565
1385  2023-11-10 10:27:08.284479
1386  2023-11-10 10:27:08.316394
1387  2023-11-10 10:27:08.348335
1388  2023-11-10 10:27:08.380267
1389  2023-11-10 10:27:08.412171
1390  2023-11-10 10:27:08.445098
1391  2023-11-10 10:27:08.491925
1392  2023-11-10 10:27:08.524837
1393  2023-11-10 10:27:08.556751
1394  2023-11-10 10:27:08.588666
1395  2023-11-10 10:27:08.620581
1396  2023-11-10 10:27:08.652495
1397  2023-11-10 10:27:08.684410
1398  2023-11-10 10:27:08.716325
1399  2023-11-10 10:27:08.748262
1400  2023-11-10 10:27:08.780264
1401  2023-11-10 10:27:08.812164
1402  2023-11-10 10:27:08.845074
1403  2023-11-10 10:27:08.892984
1404  2023-11-10 10:27:08.924899
1405  2023-11-10 10:27:08.956814
1406  2023-11-10 10:27:08.988728
1407  2023-11-10 10:27:09.020643
1408  2023-11-10 10:27:09.052558
1409  2023-11-10 10:27:09.084472
1410  2023-11-10 10:27:09.116390
1411  2023-11-10 10:27:09.148337
1412  2023-11-10 10:27:09.180262
1413  2023-11-10 10:27:09.212163
1414  2023-11-10 10:27:09.245077
1415  2023-11-10 10:27:09.292915
1416  2023-11-10 10:27:09.324830
1417  2023-11-10 10:27:09.356744
1418  2023-11-10 10:27:09.388659
1419  2023-11-10 10:27:09.420574
1420  2023-11-10 10:27:09.452488
1421  2023-11-10 10:27:09.484403
1422  2023-11-10 10:27:09.516318
1423  2023-11-10 10:27:09.548260
1424  2023-11-10 10:27:09.580178
1425  2023-11-10 10:27:09.612092
1426  2023-11-10 10:27:09.644001
1427  2023-11-10 10:27:09.692846
1428  2023-11-10 10:27:09.724763
1429  2023-11-10 10:27:09.756675
1430  2023-11-10 10:27:09.788590
1431  2023-11-10 10:27:09.820600
1432  2023-11-10 10:27:09.852592
1433  2023-11-10 10:27:09.884606
1434  2023-11-10 10:27:09.916521
1435  2023-11-10 10:27:09.948462
1436  2023-11-10 10:27:09.980393
1437  2023-11-10 10:27:10.012321
1438  2023-11-10 10:27:10.060306
1439  2023-11-10 10:27:10.092263
1440  2023-11-10 10:27:10.124163
1441  2023-11-10 10:27:10.157048
1442  2023-11-10 10:27:10.188964
1443  2023-11-10 10:27:10.220923
1444  2023-11-10 10:27:10.252795
1445  2023-11-10 10:27:10.284706
1446  2023-11-10 10:27:10.316621
1447  2023-11-10 10:27:10.348575
1448  2023-11-10 10:27:10.381527
1449  2023-11-10 10:27:10.412442
1450  2023-11-10 10:27:10.461439
1451  2023-11-10 10:27:10.493351
1452  2023-11-10 10:27:10.525277
1453  2023-11-10 10:27:10.557179
1454  2023-11-10 10:27:10.589095
1455  2023-11-10 10:27:10.621013
1456  2023-11-10 10:27:10.652926
1457  2023-11-10 10:27:10.684807
1458  2023-11-10 10:27:10.716756
1459  2023-11-10 10:27:10.748672
1460  2023-11-10 10:27:10.780585
1461  2023-11-10 10:27:10.812511
1462  2023-11-10 10:27:10.860423
1463  2023-11-10 10:27:10.892367
1464  2023-11-10 10:27:10.924248
1465  2023-11-10 10:27:10.956163
1466  2023-11-10 10:27:10.988078
1467  2023-11-10 10:27:11.021018
1468  2023-11-10 10:27:11.052936
1469  2023-11-10 10:27:11.084820
1470  2023-11-10 10:27:11.116767
1471  2023-11-10 10:27:11.148681
1472  2023-11-10 10:27:11.180596
1473  2023-11-10 10:27:11.212504
1474  2023-11-10 10:27:11.260351
1475  2023-11-10 10:27:11.292266
1476  2023-11-10 10:27:11.324180
1477  2023-11-10 10:27:11.357144
1478  2023-11-10 10:27:11.388009
1479  2023-11-10 10:27:11.420960
1480  2023-11-10 10:27:11.452836
1481  2023-11-10 10:27:11.484751
1482  2023-11-10 10:27:11.516665
1483  2023-11-10 10:27:11.548625
1484  2023-11-10 10:27:11.580534
1485  2023-11-10 10:27:11.612445
1486  2023-11-10 10:27:11.660282
1487  2023-11-10 10:27:11.692230
1488  2023-11-10 10:27:11.724142
1489  2023-11-10 10:27:11.757030
1490  2023-11-10 10:27:11.789971
1491  2023-11-10 10:27:11.820908
1492  2023-11-10 10:27:11.852767
1493  2023-11-10 10:27:11.884685
1494  2023-11-10 10:27:11.916596
1495  2023-11-10 10:27:11.948556
1496  2023-11-10 10:27:11.980458
1497  2023-11-10 10:27:12.012364
1498  2023-11-10 10:27:12.060337
1499  2023-11-10 10:27:12.093214
1500  2023-11-10 10:27:12.125160
1501  2023-11-10 10:27:12.157072
1502  2023-11-10 10:27:12.188957
1503  2023-11-10 10:27:12.220911
1504  2023-11-10 10:27:12.252817
1505  2023-11-10 10:27:12.284735
1506  2023-11-10 10:27:12.316649
1507  2023-11-10 10:27:12.348530
1508  2023-11-10 10:27:12.380475
1509  2023-11-10 10:27:12.412363
1510  2023-11-10 10:27:12.460264
1511  2023-11-10 10:27:12.492178
1512  2023-11-10 10:27:12.524061
1513  2023-11-10 10:27:12.557017
1514  2023-11-10 10:27:12.587892
1515  2023-11-10 10:27:12.620802
1516  2023-11-10 10:27:12.652717
1517  2023-11-10 10:27:12.684665
1518  2023-11-10 10:27:12.716586
1519  2023-11-10 10:27:12.748494
1520  2023-11-10 10:27:12.780413
1521  2023-11-10 10:27:12.812328
1522  2023-11-10 10:27:12.860163
1523  2023-11-10 10:27:12.892078
1524  2023-11-10 10:27:12.924033
1525  2023-11-10 10:27:12.955907
1526  2023-11-10 10:27:12.988820
1527  2023-11-10 10:27:13.020768
1528  2023-11-10 10:27:13.052648
1529  2023-11-10 10:27:13.084594
1530  2023-11-10 10:27:13.116509
1531  2023-11-10 10:27:13.148429
1532  2023-11-10 10:27:13.180346
1533  2023-11-10 10:27:13.212265
1534  2023-11-10 10:27:13.260126
1535  2023-11-10 10:27:13.293007
1536  2023-11-10 10:27:13.324920
1537  2023-11-10 10:27:13.356836
1538  2023-11-10 10:27:13.388762
1539  2023-11-10 10:27:13.420700
1540  2023-11-10 10:27:13.452632
1541  2023-11-10 10:27:13.484493
1542  2023-11-10 10:27:13.516440
1543  2023-11-10 10:27:13.548324
1544  2023-11-10 10:27:13.580275
1545  2023-11-10 10:27:13.628154
1546  2023-11-10 10:27:13.661022
1547  2023-11-10 10:27:13.691939
1548  2023-11-10 10:27:13.724901
1549  2023-11-10 10:27:13.756853
1550  2023-11-10 10:27:13.788830
1551  2023-11-10 10:27:13.820762
1552  2023-11-10 10:27:13.852624
1553  2023-11-10 10:27:13.884569
1554  2023-11-10 10:27:13.916486
1555  2023-11-10 10:27:13.948416
1556  2023-11-10 10:27:13.980285
1557  2023-11-10 10:27:14.028156
1558  2023-11-10 10:27:14.060100
1559  2023-11-10 10:27:14.092015
1560  2023-11-10 10:27:14.123899
1561  2023-11-10 10:27:14.156855
1562  2023-11-10 10:27:14.188624
1563  2023-11-10 10:27:14.220646
1564  2023-11-10 10:27:14.252518
1565  2023-11-10 10:27:14.284433
1566  2023-11-10 10:27:14.316380
1567  2023-11-10 10:27:14.348300
1568  2023-11-10 10:27:14.380208
1569  2023-11-10 10:27:14.428085
1570  2023-11-10 10:27:14.460004
1571  2023-11-10 10:27:14.491878
1572  2023-11-10 10:27:14.524792
1573  2023-11-10 10:27:14.556736
1574  2023-11-10 10:27:14.588654
1575  2023-11-10 10:27:14.620569
1576  2023-11-10 10:27:14.652449
1577  2023-11-10 10:27:14.684501
1578  2023-11-10 10:27:14.716340
1579  2023-11-10 10:27:14.748231
1580  2023-11-10 10:27:14.780148
1581  2023-11-10 10:27:14.829014
1582  2023-11-10 10:27:14.859895
1583  2023-11-10 10:27:14.892852
1584  2023-11-10 10:27:14.924724
1585  2023-11-10 10:27:14.956671
1586  2023-11-10 10:27:14.988703
1587  2023-11-10 10:27:15.020774
1588  2023-11-10 10:27:15.052657
1589  2023-11-10 10:27:15.084607
1590  2023-11-10 10:27:15.116518
1591  2023-11-10 10:27:15.148447
1592  2023-11-10 10:27:15.180360
1593  2023-11-10 10:27:15.228225
1594  2023-11-10 10:27:15.260134
1595  2023-11-10 10:27:15.293049
1596  2023-11-10 10:27:15.323929
1597  2023-11-10 10:27:15.356875
1598  2023-11-10 10:27:15.388788
1599  2023-11-10 10:27:15.420708
1600  2023-11-10 10:27:15.452585
1601  2023-11-10 10:27:15.484500
1602  2023-11-10 10:27:15.516415
1603  2023-11-10 10:27:15.548380
1604  2023-11-10 10:27:15.580277
1605  2023-11-10 10:27:15.629115
1606  2023-11-10 10:27:15.660082
1607  2023-11-10 10:27:15.691926
1608  2023-11-10 10:27:15.724873
1609  2023-11-10 10:27:15.756823
1610  2023-11-10 10:27:15.788734
1611  2023-11-10 10:27:15.820652
1612  2023-11-10 10:27:15.852566
1613  2023-11-10 10:27:15.884484
1614  2023-11-10 10:27:15.916395
1615  2023-11-10 10:27:15.948382
1616  2023-11-10 10:27:15.980299
1617  2023-11-10 10:27:16.028180
1618  2023-11-10 10:27:16.060093
1619  2023-11-10 10:27:16.092998
1620  2023-11-10 10:27:16.124919
1621  2023-11-10 10:27:16.156870
1622  2023-11-10 10:27:16.188855
1623  2023-11-10 10:27:16.220751
1624  2023-11-10 10:27:16.252721
1625  2023-11-10 10:27:16.284701
1626  2023-11-10 10:27:16.316616
1627  2023-11-10 10:27:16.348526
1628  2023-11-10 10:27:16.380446
1629  2023-11-10 10:27:16.428328
1630  2023-11-10 10:27:16.460267
1631  2023-11-10 10:27:16.492166
1632  2023-11-10 10:27:16.525027
1633  2023-11-10 10:27:16.556106
1634  2023-11-10 10:27:16.588030
1635  2023-11-10 10:27:16.620938
1636  2023-11-10 10:27:16.652860
1637  2023-11-10 10:27:16.684732
1638  2023-11-10 10:27:16.716685
1639  2023-11-10 10:27:16.748597
1640  2023-11-10 10:27:16.780515
1641  2023-11-10 10:27:16.828403
1642  2023-11-10 10:27:16.860297
1643  2023-11-10 10:27:16.892213
1644  2023-11-10 10:27:16.924123
1645  2023-11-10 10:27:16.957010
1646  2023-11-10 10:27:16.988953
1647  2023-11-10 10:27:17.020865
1648  2023-11-10 10:27:17.052782
1649  2023-11-10 10:27:17.084662
1650  2023-11-10 10:27:17.116576
1651  2023-11-10 10:27:17.148525
1652  2023-11-10 10:27:17.180440
1653  2023-11-10 10:27:17.228279
1654  2023-11-10 10:27:17.260229
1655  2023-11-10 10:27:17.293107
1656  2023-11-10 10:27:17.325050
1657  2023-11-10 10:27:17.355937
1658  2023-11-10 10:27:17.388885
1659  2023-11-10 10:27:17.420810
1660  2023-11-10 10:27:17.452706
1661  2023-11-10 10:27:17.484594
1662  2023-11-10 10:27:17.516652
1663  2023-11-10 10:27:17.548616
1664  2023-11-10 10:27:17.596439
1665  2023-11-10 10:27:17.628404
1666  2023-11-10 10:27:17.660306
1667  2023-11-10 10:27:17.692213
1668  2023-11-10 10:27:17.724132
1669  2023-11-10 10:27:17.756043
1670  2023-11-10 10:27:17.787969
1671  2023-11-10 10:27:17.820870
1672  2023-11-10 10:27:17.852789
1673  2023-11-10 10:27:17.884704
1674  2023-11-10 10:27:17.916624
1675  2023-11-10 10:27:17.948534
1676  2023-11-10 10:27:17.996373
1677  2023-11-10 10:27:18.028328
1678  2023-11-10 10:27:18.060240
1679  2023-11-10 10:27:18.092160
1680  2023-11-10 10:27:18.125026
1681  2023-11-10 10:27:18.155943
1682  2023-11-10 10:27:18.188907
1683  2023-11-10 10:27:18.220811
1684  2023-11-10 10:27:18.252734
1685  2023-11-10 10:27:18.284636
1686  2023-11-10 10:27:18.316543
1687  2023-11-10 10:27:18.348469
1688  2023-11-10 10:27:18.396304
1689  2023-11-10 10:27:18.428264
1690  2023-11-10 10:27:18.460288
1691  2023-11-10 10:27:18.492213
1692  2023-11-10 10:27:18.525106
1693  2023-11-10 10:27:18.557033
1694  2023-11-10 10:27:18.587956
1695  2023-11-10 10:27:18.620864
1696  2023-11-10 10:27:18.652765
1697  2023-11-10 10:27:18.684682
1698  2023-11-10 10:27:18.716613
1699  2023-11-10 10:27:18.748510
1700  2023-11-10 10:27:18.796387
1701  2023-11-10 10:27:18.828306
1702  2023-11-10 10:27:18.860180
1703  2023-11-10 10:27:18.892136
1704  2023-11-10 10:27:18.925041
1705  2023-11-10 10:27:18.956931
1706  2023-11-10 10:27:18.988836
1707  2023-11-10 10:27:19.020782
1708  2023-11-10 10:27:19.052697
1709  2023-11-10 10:27:19.084618
1710  2023-11-10 10:27:19.116494
1711  2023-11-10 10:27:19.148437
1712  2023-11-10 10:27:19.196281
1713  2023-11-10 10:27:19.228229
1714  2023-11-10 10:27:19.261151
1715  2023-11-10 10:27:19.293056
1716  2023-11-10 10:27:19.324972
1717  2023-11-10 10:27:19.356906
1718  2023-11-10 10:27:19.388766
1719  2023-11-10 10:27:19.420682
1720  2023-11-10 10:27:19.452631
1721  2023-11-10 10:27:19.484542
1722  2023-11-10 10:27:19.516425
1723  2023-11-10 10:27:19.548373
1724  2023-11-10 10:27:19.596212
1725  2023-11-10 10:27:19.628172
1726  2023-11-10 10:27:19.660090
1727  2023-11-10 10:27:19.691989
1728  2023-11-10 10:27:19.724911
1729  2023-11-10 10:27:19.756817
1730  2023-11-10 10:27:19.788729
1731  2023-11-10 10:27:19.820646
1732  2023-11-10 10:27:19.852561
1733  2023-11-10 10:27:19.884478
1734  2023-11-10 10:27:19.916356
1735  2023-11-10 10:27:19.948312
1736  2023-11-10 10:27:19.996188
1737  2023-11-10 10:27:20.029055
1738  2023-11-10 10:27:20.060009
1739  2023-11-10 10:27:20.091980
1740  2023-11-10 10:27:20.124891
1741  2023-11-10 10:27:20.156918
1742  2023-11-10 10:27:20.188811
1743  2023-11-10 10:27:20.220822
1744  2023-11-10 10:27:20.252770
1745  2023-11-10 10:27:20.284685
1746  2023-11-10 10:27:20.316567
1747  2023-11-10 10:27:20.348519
1748  2023-11-10 10:27:20.396244
1749  2023-11-10 10:27:20.428214
1750  2023-11-10 10:27:20.461165
1751  2023-11-10 10:27:20.492108
1752  2023-11-10 10:27:20.524031
1753  2023-11-10 10:27:20.556908
1754  2023-11-10 10:27:20.588823
1755  2023-11-10 10:27:20.620738
1756  2023-11-10 10:27:20.652683
1757  2023-11-10 10:27:20.684670
1758  2023-11-10 10:27:20.716592
1759  2023-11-10 10:27:20.748542
1760  2023-11-10 10:27:20.796409
1761  2023-11-10 10:27:20.828295
1762  2023-11-10 10:27:20.860208
1763  2023-11-10 10:27:20.892155
1764  2023-11-10 10:27:20.924084
1765  2023-11-10 10:27:20.955989
1766  2023-11-10 10:27:20.988864
1767  2023-11-10 10:27:21.020779
1768  2023-11-10 10:27:21.052731
1769  2023-11-10 10:27:21.084648
1770  2023-11-10 10:27:21.116557
1771  2023-11-10 10:27:21.164434
1772  2023-11-10 10:27:21.196349
1773  2023-11-10 10:27:21.228224
1774  2023-11-10 10:27:21.260174
1775  2023-11-10 10:27:21.292088
1776  2023-11-10 10:27:21.324010
1777  2023-11-10 10:27:21.356919
1778  2023-11-10 10:27:21.388855
1779  2023-11-10 10:27:21.420752
1780  2023-11-10 10:27:21.452651
1781  2023-11-10 10:27:21.484571
1782  2023-11-10 10:27:21.516488
1783  2023-11-10 10:27:21.564326
1784  2023-11-10 10:27:21.596274
1785  2023-11-10 10:27:21.628187
1786  2023-11-10 10:27:21.660069
1787  2023-11-10 10:27:21.692015
1788  2023-11-10 10:27:21.723942
1789  2023-11-10 10:27:21.756873
1790  2023-11-10 10:27:21.788725
1791  2023-11-10 10:27:21.820640
1792  2023-11-10 10:27:21.852663
1793  2023-11-10 10:27:21.884611
1794  2023-11-10 10:27:21.916492
1795  2023-11-10 10:27:21.964411
1796  2023-11-10 10:27:21.996326
1797  2023-11-10 10:27:22.028194
1798  2023-11-10 10:27:22.060108
1799  2023-11-10 10:27:22.093020
1800  2023-11-10 10:27:22.124935
1801  2023-11-10 10:27:22.156850
1802  2023-11-10 10:27:22.188764
1803  2023-11-10 10:27:22.220679
1804  2023-11-10 10:27:22.252594
1805  2023-11-10 10:27:22.284509
1806  2023-11-10 10:27:22.316423
1807  2023-11-10 10:27:22.364328
1808  2023-11-10 10:27:22.396262
1809  2023-11-10 10:27:22.428124
1810  2023-11-10 10:27:22.460039
1811  2023-11-10 10:27:22.491987
1812  2023-11-10 10:27:22.524866
1813  2023-11-10 10:27:22.556781
1814  2023-11-10 10:27:22.588695
1815  2023-11-10 10:27:22.620610
1816  2023-11-10 10:27:22.652525
1817  2023-11-10 10:27:22.684440
1818  2023-11-10 10:27:22.716354
1819  2023-11-10 10:27:22.764226
1820  2023-11-10 10:27:22.797171
1821  2023-11-10 10:27:22.829054
1822  2023-11-10 10:27:22.859970
1823  2023-11-10 10:27:22.892882
1824  2023-11-10 10:27:22.924843
1825  2023-11-10 10:27:22.956748
1826  2023-11-10 10:27:22.988707
1827  2023-11-10 10:27:23.020662
1828  2023-11-10 10:27:23.052610
1829  2023-11-10 10:27:23.084736
1830  2023-11-10 10:27:23.116708
1831  2023-11-10 10:27:23.164641
1832  2023-11-10 10:27:23.196495
1833  2023-11-10 10:27:23.228409
1834  2023-11-10 10:27:23.260376
1835  2023-11-10 10:27:23.292273
1836  2023-11-10 10:27:23.324154
1837  2023-11-10 10:27:23.356068
1838  2023-11-10 10:27:23.389021
1839  2023-11-10 10:27:23.420921
1840  2023-11-10 10:27:23.452810
1841  2023-11-10 10:27:23.484724
1842  2023-11-10 10:27:23.516671
1843  2023-11-10 10:27:23.564511
1844  2023-11-10 10:27:23.596466
1845  2023-11-10 10:27:23.628381
1846  2023-11-10 10:27:23.660255
1847  2023-11-10 10:27:23.692170
1848  2023-11-10 10:27:23.724126
1849  2023-11-10 10:27:23.756035
1850  2023-11-10 10:27:23.788911
1851  2023-11-10 10:27:23.820826
1852  2023-11-10 10:27:23.852740
1853  2023-11-10 10:27:23.884655
1854  2023-11-10 10:27:23.916570
1855  2023-11-10 10:27:23.964442
1856  2023-11-10 10:27:23.996356
1857  2023-11-10 10:27:24.028271
1858  2023-11-10 10:27:24.060186
1859  2023-11-10 10:27:24.092100
1860  2023-11-10 10:27:24.124015
1861  2023-11-10 10:27:24.155930
1862  2023-11-10 10:27:24.188842
1863  2023-11-10 10:27:24.220757
1864  2023-11-10 10:27:24.252671
1865  2023-11-10 10:27:24.284586
1866  2023-11-10 10:27:24.316501
1867  2023-11-10 10:27:24.364373
1868  2023-11-10 10:27:24.396287
1869  2023-11-10 10:27:24.428202
1870  2023-11-10 10:27:24.460150
1871  2023-11-10 10:27:24.492031
1872  2023-11-10 10:27:24.524943
1873  2023-11-10 10:27:24.556858
1874  2023-11-10 10:27:24.588823
1875  2023-11-10 10:27:24.620689
1876  2023-11-10 10:27:24.652612
1877  2023-11-10 10:27:24.684517
1878  2023-11-10 10:27:24.716459
1879  2023-11-10 10:27:24.764303
1880  2023-11-10 10:27:24.796251
1881  2023-11-10 10:27:24.828133
1882  2023-11-10 10:27:24.860047
1883  2023-11-10 10:27:24.891962
1884  2023-11-10 10:27:24.924905
1885  2023-11-10 10:27:24.956789
1886  2023-11-10 10:27:24.988703
1887  2023-11-10 10:27:25.020618
1888  2023-11-10 10:27:25.052577
1889  2023-11-10 10:27:25.084479
1890  2023-11-10 10:27:25.132357
1891  2023-11-10 10:27:25.164234
1892  2023-11-10 10:27:25.196149
1893  2023-11-10 10:27:25.228063
1894  2023-11-10 10:27:25.259978
1895  2023-11-10 10:27:25.292904
1896  2023-11-10 10:27:25.324805
1897  2023-11-10 10:27:25.356720
1898  2023-11-10 10:27:25.388279
1899  2023-11-10 10:27:25.420193
1900  2023-11-10 10:27:25.452107
1901  2023-11-10 10:27:25.484022
1902  2023-11-10 10:27:25.532891
1903  2023-11-10 10:27:25.564806
1904  2023-11-10 10:27:25.596721
1905  2023-11-10 10:27:25.628638
1906  2023-11-10 10:27:25.660550
1907  2023-11-10 10:27:25.692465
1908  2023-11-10 10:27:25.724379
1909  2023-11-10 10:27:25.756366
1910  2023-11-10 10:27:25.788209
1911  2023-11-10 10:27:25.820123
1912  2023-11-10 10:27:25.852038
1913  2023-11-10 10:27:25.883983
1914  2023-11-10 10:27:25.932822
1915  2023-11-10 10:27:25.964762
1916  2023-11-10 10:27:25.996651
1917  2023-11-10 10:27:26.028566
1918  2023-11-10 10:27:26.060481
1919  2023-11-10 10:27:26.092428
1920  2023-11-10 10:27:26.124310
1921  2023-11-10 10:27:26.156225
1922  2023-11-10 10:27:26.188139
1923  2023-11-10 10:27:26.220054
1924  2023-11-10 10:27:26.252966
1925  2023-11-10 10:27:26.284881
1926  2023-11-10 10:27:26.332753
1927  2023-11-10 10:27:26.364817
1928  2023-11-10 10:27:26.396708
1929  2023-11-10 10:27:26.428626
1930  2023-11-10 10:27:26.460600
1931  2023-11-10 10:27:26.492514
1932  2023-11-10 10:27:26.524429
1933  2023-11-10 10:27:26.556344
1934  2023-11-10 10:27:26.588297
1935  2023-11-10 10:27:26.620206
1936  2023-11-10 10:27:26.652088
1937  2023-11-10 10:27:26.684002
1938  2023-11-10 10:27:26.732872
1939  2023-11-10 10:27:26.764786
1940  2023-11-10 10:27:26.796703
1941  2023-11-10 10:27:26.828616
1942  2023-11-10 10:27:26.860531
1943  2023-11-10 10:27:26.892445
1944  2023-11-10 10:27:26.924404
1945  2023-11-10 10:27:26.956311
1946  2023-11-10 10:27:26.988189
1947  2023-11-10 10:27:27.020104
1948  2023-11-10 10:27:27.052051
1949  2023-11-10 10:27:27.083964
1950  2023-11-10 10:27:27.132821
1951  2023-11-10 10:27:27.164717
1952  2023-11-10 10:27:27.196632
1953  2023-11-10 10:27:27.228547
1954  2023-11-10 10:27:27.260499
1955  2023-11-10 10:27:27.292425
1956  2023-11-10 10:27:27.324291
1957  2023-11-10 10:27:27.356205
1958  2023-11-10 10:27:27.388156
1959  2023-11-10 10:27:27.420065
1960  2023-11-10 10:27:27.452952
1961  2023-11-10 10:27:27.484862
1962  2023-11-10 10:27:27.532733
1963  2023-11-10 10:27:27.564648
1964  2023-11-10 10:27:27.596563
1965  2023-11-10 10:27:27.628478
1966  2023-11-10 10:27:27.660392
1967  2023-11-10 10:27:27.692307
1968  2023-11-10 10:27:27.724222
1969  2023-11-10 10:27:27.756136
1970  2023-11-10 10:27:27.788051
1971  2023-11-10 10:27:27.819965
1972  2023-11-10 10:27:27.852878
1973  2023-11-10 10:27:27.884792
1974  2023-11-10 10:27:27.932664
1975  2023-11-10 10:27:27.964579
1976  2023-11-10 10:27:27.996493
1977  2023-11-10 10:27:28.028408
1978  2023-11-10 10:27:28.060323
1979  2023-11-10 10:27:28.092237
1980  2023-11-10 10:27:28.124152
1981  2023-11-10 10:27:28.156067
1982  2023-11-10 10:27:28.187982
1983  2023-11-10 10:27:28.220894
1984  2023-11-10 10:27:28.252808
1985  2023-11-10 10:27:28.284723
1986  2023-11-10 10:27:28.332595
1987  2023-11-10 10:27:28.364601
1988  2023-11-10 10:27:28.396515
1989  2023-11-10 10:27:28.428536
1990  2023-11-10 10:27:28.460450
1991  2023-11-10 10:27:28.492365
1992  2023-11-10 10:27:28.524281
1993  2023-11-10 10:27:28.556196
1994  2023-11-10 10:27:28.588109
1995  2023-11-10 10:27:28.620025
1996  2023-11-10 10:27:28.652218
1997  2023-11-10 10:27:28.700137
1998  2023-11-10 10:27:28.732005
1999  2023-11-10 10:27:28.764917
2000  2023-11-10 10:27:28.796833
2001  2023-11-10 10:27:28.828746
2002  2023-11-10 10:27:28.860661
2003  2023-11-10 10:27:28.892585
2004  2023-11-10 10:27:28.924603
2005  2023-11-10 10:27:28.956561
2006  2023-11-10 10:27:28.988519
2007  2023-11-10 10:27:29.020434
2008  2023-11-10 10:27:29.052381
2009  2023-11-10 10:27:29.100248
2010  2023-11-10 10:27:29.132137
2011  2023-11-10 10:27:29.164050
2012  2023-11-10 10:27:29.195965
2013  2023-11-10 10:27:29.227879
2014  2023-11-10 10:27:29.260817
2015  2023-11-10 10:27:29.292716
2016  2023-11-10 10:27:29.324611
2017  2023-11-10 10:27:29.356525
2018  2023-11-10 10:27:29.388473
2019  2023-11-10 10:27:29.420401
2020  2023-11-10 10:27:29.452269
2021  2023-11-10 10:27:29.500181
2022  2023-11-10 10:27:29.532056
2023  2023-11-10 10:27:29.563971
2024  2023-11-10 10:27:29.595916
2025  2023-11-10 10:27:29.628798
2026  2023-11-10 10:27:29.660714
2027  2023-11-10 10:27:29.692627
2028  2023-11-10 10:27:29.724542
2029  2023-11-10 10:27:29.756457
2030  2023-11-10 10:27:29.788371
2031  2023-11-10 10:27:29.820286
2032  2023-11-10 10:27:29.852200
2033  2023-11-10 10:27:29.900103
2034  2023-11-10 10:27:29.931987
2035  2023-11-10 10:27:29.963902
2036  2023-11-10 10:27:29.996814
2037  2023-11-10 10:27:30.028728
2038  2023-11-10 10:27:30.060643
2039  2023-11-10 10:27:30.092558
2040  2023-11-10 10:27:30.124472
2041  2023-11-10 10:27:30.156387
2042  2023-11-10 10:27:30.188317
2043  2023-11-10 10:27:30.220216
2044  2023-11-10 10:27:30.252131
2045  2023-11-10 10:27:30.300043
2046  2023-11-10 10:27:30.331918
2047  2023-11-10 10:27:30.364830
2048  2023-11-10 10:27:30.396850
2049  2023-11-10 10:27:30.428766
2050  2023-11-10 10:27:30.460714
2051  2023-11-10 10:27:30.492682
2052  2023-11-10 10:27:30.524655
2053  2023-11-10 10:27:30.556569
2054  2023-11-10 10:27:30.588484
2055  2023-11-10 10:27:30.620400
2056  2023-11-10 10:27:30.652313
2057  2023-11-10 10:27:30.700215
2058  2023-11-10 10:27:30.732102
2059  2023-11-10 10:27:30.764015
2060  2023-11-10 10:27:30.796929
2061  2023-11-10 10:27:30.828842
2062  2023-11-10 10:27:30.860756
2063  2023-11-10 10:27:30.892671
2064  2023-11-10 10:27:30.924618
2065  2023-11-10 10:27:30.956500
2066  2023-11-10 10:27:30.988415
2067  2023-11-10 10:27:31.020330
2068  2023-11-10 10:27:31.052272
2069  2023-11-10 10:27:31.100147
2070  2023-11-10 10:27:31.133029
2071  2023-11-10 10:27:31.163945
2072  2023-11-10 10:27:31.196858
2073  2023-11-10 10:27:31.228772
2074  2023-11-10 10:27:31.260725
2075  2023-11-10 10:27:31.292603
2076  2023-11-10 10:27:31.324516
2077  2023-11-10 10:27:31.356431
2078  2023-11-10 10:27:31.388381
2079  2023-11-10 10:27:31.420293
2080  2023-11-10 10:27:31.452175
2081  2023-11-10 10:27:31.500080
2082  2023-11-10 10:27:31.531962
2083  2023-11-10 10:27:31.564876
2084  2023-11-10 10:27:31.596789
2085  2023-11-10 10:27:31.628703
2086  2023-11-10 10:27:31.660618
2087  2023-11-10 10:27:31.692532
2088  2023-11-10 10:27:31.724447
2089  2023-11-10 10:27:31.756362
2090  2023-11-10 10:27:31.788276
2091  2023-11-10 10:27:31.820192
2092  2023-11-10 10:27:31.852106
2093  2023-11-10 10:27:31.900009
2094  2023-11-10 10:27:31.931892
2095  2023-11-10 10:27:31.964804
2096  2023-11-10 10:27:31.997743
2097  2023-11-10 10:27:32.028634
2098  2023-11-10 10:27:32.060549
2099  2023-11-10 10:27:32.092463
2100  2023-11-10 10:27:32.125410
2101  2023-11-10 10:27:32.157324
2102  2023-11-10 10:27:32.189237
2103  2023-11-10 10:27:32.221152
2104  2023-11-10 10:27:32.253070
2105  2023-11-10 10:27:32.300941
2106  2023-11-10 10:27:32.333821
2107  2023-11-10 10:27:32.365734
2108  2023-11-10 10:27:32.397679
2109  2023-11-10 10:27:32.429601
2110  2023-11-10 10:27:32.461507
2111  2023-11-10 10:27:32.492546
2112  2023-11-10 10:27:32.525489
2113  2023-11-10 10:27:32.557405
2114  2023-11-10 10:27:32.589327
2115  2023-11-10 10:27:32.621233
2116  2023-11-10 10:27:32.669105
2117  2023-11-10 10:27:32.701019
2118  2023-11-10 10:27:32.732939
2119  2023-11-10 10:27:32.764857
2120  2023-11-10 10:27:32.796766
2121  2023-11-10 10:27:32.828649
2122  2023-11-10 10:27:32.860563
2123  2023-11-10 10:27:32.892478
2124  2023-11-10 10:27:32.924427
2125  2023-11-10 10:27:32.956308
2126  2023-11-10 10:27:32.989253
2127  2023-11-10 10:27:33.021177
2128  2023-11-10 10:27:33.069006
2129  2023-11-10 10:27:33.100950
2130  2023-11-10 10:27:33.132867
2131  2023-11-10 10:27:33.164793
2132  2023-11-10 10:27:33.196695
2133  2023-11-10 10:27:33.228610
2134  2023-11-10 10:27:33.260525
2135  2023-11-10 10:27:33.292449
2136  2023-11-10 10:27:33.324355
2137  2023-11-10 10:27:33.356269
2138  2023-11-10 10:27:33.389182
2139  2023-11-10 10:27:33.420079
2140  2023-11-10 10:27:33.468977
2141  2023-11-10 10:27:33.500891
2142  2023-11-10 10:27:33.532798
2143  2023-11-10 10:27:33.564700
2144  2023-11-10 10:27:33.596630
2145  2023-11-10 10:27:33.628541
2146  2023-11-10 10:27:33.660460
2147  2023-11-10 10:27:33.692378
2148  2023-11-10 10:27:33.724294
2149  2023-11-10 10:27:33.756198
2150  2023-11-10 10:27:33.788117
2151  2023-11-10 10:27:33.820027
2152  2023-11-10 10:27:33.868903
2153  2023-11-10 10:27:33.900814
2154  2023-11-10 10:27:33.932811
2155  2023-11-10 10:27:33.964726
2156  2023-11-10 10:27:33.996642
2157  2023-11-10 10:27:34.028582
2158  2023-11-10 10:27:34.060505
2159  2023-11-10 10:27:34.092421
2160  2023-11-10 10:27:34.125379
2161  2023-11-10 10:27:34.157325
2162  2023-11-10 10:27:34.188372
2163  2023-11-10 10:27:34.220369
2164  2023-11-10 10:27:34.268233
2165  2023-11-10 10:27:34.301148
2166  2023-11-10 10:27:34.333053
2167  2023-11-10 10:27:34.364974
2168  2023-11-10 10:27:34.397028
2169  2023-11-10 10:27:34.428906
2170  2023-11-10 10:27:34.460854
2171  2023-11-10 10:27:34.492860
2172  2023-11-10 10:27:34.524806
2173  2023-11-10 10:27:34.556691
2174  2023-11-10 10:27:34.589642
2175  2023-11-10 10:27:34.620519
2176  2023-11-10 10:27:34.669389
2177  2023-11-10 10:27:34.700339
2178  2023-11-10 10:27:34.732220
2179  2023-11-10 10:27:34.765164
2180  2023-11-10 10:27:34.798091
2181  2023-11-10 10:27:34.830000
2182  2023-11-10 10:27:34.860918
2183  2023-11-10 10:27:34.892791
2184  2023-11-10 10:27:34.924708
2185  2023-11-10 10:27:34.956662
2186  2023-11-10 10:27:34.988561
2187  2023-11-10 10:27:35.020482
2188  2023-11-10 10:27:35.069370
2189  2023-11-10 10:27:35.100271
2190  2023-11-10 10:27:35.132185
2191  2023-11-10 10:27:35.164066
2192  2023-11-10 10:27:35.197009
2193  2023-11-10 10:27:35.228922
2194  2023-11-10 10:27:35.260849
2195  2023-11-10 10:27:35.292757
2196  2023-11-10 10:27:35.324636
2197  2023-11-10 10:27:35.356586
2198  2023-11-10 10:27:35.388497
2199  2023-11-10 10:27:35.420425
2200  2023-11-10 10:27:35.468308
2201  2023-11-10 10:27:35.500204
2202  2023-11-10 10:27:35.532082
2203  2023-11-10 10:27:35.563997
2204  2023-11-10 10:27:35.595942
2205  2023-11-10 10:27:35.628834
2206  2023-11-10 10:27:35.660780
2207  2023-11-10 10:27:35.692685
2208  2023-11-10 10:27:35.724636
2209  2023-11-10 10:27:35.756513
2210  2023-11-10 10:27:35.788529
2211  2023-11-10 10:27:35.820443
2212  2023-11-10 10:27:35.868317
2213  2023-11-10 10:27:35.900232
2214  2023-11-10 10:27:35.932112
2215  2023-11-10 10:27:35.964027
2216  2023-11-10 10:27:35.995976
2217  2023-11-10 10:27:36.028897
2218  2023-11-10 10:27:36.060774
2219  2023-11-10 10:27:36.092719
2220  2023-11-10 10:27:36.124650
2221  2023-11-10 10:27:36.156550
2222  2023-11-10 10:27:36.188505
2223  2023-11-10 10:27:36.236299
2224  2023-11-10 10:27:36.268253
2225  2023-11-10 10:27:36.300163
2226  2023-11-10 10:27:36.332084
2227  2023-11-10 10:27:36.363998
2228  2023-11-10 10:27:36.396931
2229  2023-11-10 10:27:36.428815
2230  2023-11-10 10:27:36.460700
2231  2023-11-10 10:27:36.492648
2232  2023-11-10 10:27:36.524528
2233  2023-11-10 10:27:36.556478
2234  2023-11-10 10:27:36.588399
2235  2023-11-10 10:27:36.636266
2236  2023-11-10 10:27:36.668174
2237  2023-11-10 10:27:36.700106
2238  2023-11-10 10:27:36.731973
2239  2023-11-10 10:27:36.764922
2240  2023-11-10 10:27:36.796838
2241  2023-11-10 10:27:36.828814
2242  2023-11-10 10:27:36.860728
2243  2023-11-10 10:27:36.892643
2244  2023-11-10 10:27:36.924557
2245  2023-11-10 10:27:36.956472
2246  2023-11-10 10:27:36.988393
2247  2023-11-10 10:27:37.036293
2248  2023-11-10 10:27:37.068264
2249  2023-11-10 10:27:37.100177
2250  2023-11-10 10:27:37.132093
2251  2023-11-10 10:27:37.163971
2252  2023-11-10 10:27:37.195919
2253  2023-11-10 10:27:37.228833
2254  2023-11-10 10:27:37.260755
2255  2023-11-10 10:27:37.292626
2256  2023-11-10 10:27:37.324541
2257  2023-11-10 10:27:37.356489
2258  2023-11-10 10:27:37.388403
2259  2023-11-10 10:27:37.436397
2260  2023-11-10 10:27:37.468362
2261  2023-11-10 10:27:37.500314
2262  2023-11-10 10:27:37.532310
2263  2023-11-10 10:27:37.564224
2264  2023-11-10 10:27:37.596139
2265  2023-11-10 10:27:37.629087
2266  2023-11-10 10:27:37.660003
2267  2023-11-10 10:27:37.691920
2268  2023-11-10 10:27:37.724795
2269  2023-11-10 10:27:37.756744
2270  2023-11-10 10:27:37.788658
2271  2023-11-10 10:27:37.836535
2272  2023-11-10 10:27:37.868449
2273  2023-11-10 10:27:37.900357
2274  2023-11-10 10:27:37.932275
2275  2023-11-10 10:27:37.964196
2276  2023-11-10 10:27:37.996070
2277  2023-11-10 10:27:38.029017
2278  2023-11-10 10:27:38.059931
2279  2023-11-10 10:27:38.091871
2280  2023-11-10 10:27:38.124878
2281  2023-11-10 10:27:38.156791
2282  2023-11-10 10:27:38.188705
2283  2023-11-10 10:27:38.236616
2284  2023-11-10 10:27:38.268531
2285  2023-11-10 10:27:38.300526
2286  2023-11-10 10:27:38.332406
2287  2023-11-10 10:27:38.364319
2288  2023-11-10 10:27:38.396288
2289  2023-11-10 10:27:38.428179
2290  2023-11-10 10:27:38.460094
2291  2023-11-10 10:27:38.492133
2292  2023-11-10 10:27:38.524008
2293  2023-11-10 10:27:38.555958
2294  2023-11-10 10:27:38.588876
2295  2023-11-10 10:27:38.636747
2296  2023-11-10 10:27:38.668656
2297  2023-11-10 10:27:38.700576
2298  2023-11-10 10:27:38.732485
2299  2023-11-10 10:27:38.764416
2300  2023-11-10 10:27:38.796280
2301  2023-11-10 10:27:38.828227
2302  2023-11-10 10:27:38.860152
2303  2023-11-10 10:27:38.892058
2304  2023-11-10 10:27:38.924941
2305  2023-11-10 10:27:38.956906
2306  2023-11-10 10:27:38.988797
2307  2023-11-10 10:27:39.036668
2308  2023-11-10 10:27:39.068592
2309  2023-11-10 10:27:39.100603
2310  2023-11-10 10:27:39.132520
2311  2023-11-10 10:27:39.164391
2312  2023-11-10 10:27:39.196304
2313  2023-11-10 10:27:39.228269
2314  2023-11-10 10:27:39.260134
2315  2023-11-10 10:27:39.293074
2316  2023-11-10 10:27:39.323997
2317  2023-11-10 10:27:39.356910
2318  2023-11-10 10:27:39.388838
2319  2023-11-10 10:27:39.436703
2320  2023-11-10 10:27:39.468578
2321  2023-11-10 10:27:39.500530
2322  2023-11-10 10:27:39.532439
2323  2023-11-10 10:27:39.564320
2324  2023-11-10 10:27:39.596272
2325  2023-11-10 10:27:39.628190
2326  2023-11-10 10:27:39.660102
2327  2023-11-10 10:27:39.692012
2328  2023-11-10 10:27:39.723893
2329  2023-11-10 10:27:39.756843
2330  2023-11-10 10:27:39.788759
2331  2023-11-10 10:27:39.836630
2332  2023-11-10 10:27:39.868539
2333  2023-11-10 10:27:39.900454
2334  2023-11-10 10:27:39.932387
2335  2023-11-10 10:27:39.964293
2336  2023-11-10 10:27:39.996346
2337  2023-11-10 10:27:40.028263
2338  2023-11-10 10:27:40.060167
2339  2023-11-10 10:27:40.092082
2340  2023-11-10 10:27:40.123994
2341  2023-11-10 10:27:40.156909
2342  2023-11-10 10:27:40.204778
2343  2023-11-10 10:27:40.236694
2344  2023-11-10 10:27:40.268605
2345  2023-11-10 10:27:40.300521
2346  2023-11-10 10:27:40.332432
2347  2023-11-10 10:27:40.364369
2348  2023-11-10 10:27:40.396263
2349  2023-11-10 10:27:40.428177
2350  2023-11-10 10:27:40.460097
2351  2023-11-10 10:27:40.492005
2352  2023-11-10 10:27:40.524915
2353  2023-11-10 10:27:40.556840
2354  2023-11-10 10:27:40.604702
2355  2023-11-10 10:27:40.636618
2356  2023-11-10 10:27:40.668535
2357  2023-11-10 10:27:40.700448
2358  2023-11-10 10:27:40.732379
2359  2023-11-10 10:27:40.764279
2360  2023-11-10 10:27:40.796193
2361  2023-11-10 10:27:40.828074
2362  2023-11-10 10:27:40.860023
2363  2023-11-10 10:27:40.891933
2364  2023-11-10 10:27:40.924817
2365  2023-11-10 10:27:40.956765
2366  2023-11-10 10:27:41.004603
2367  2023-11-10 10:27:41.036554
2368  2023-11-10 10:27:41.068468
2369  2023-11-10 10:27:41.100375
2370  2023-11-10 10:27:41.132296
2371  2023-11-10 10:27:41.165250
2372  2023-11-10 10:27:41.196093
2373  2023-11-10 10:27:41.228150
2374  2023-11-10 10:27:41.261026
2375  2023-11-10 10:27:41.292936
2376  2023-11-10 10:27:41.324882
2377  2023-11-10 10:27:41.356795
2378  2023-11-10 10:27:41.404669
2379  2023-11-10 10:27:41.436583
2380  2023-11-10 10:27:41.468442
2381  2023-11-10 10:27:41.500357
2382  2023-11-10 10:27:41.532322
2383  2023-11-10 10:27:41.564225
2384  2023-11-10 10:27:41.596141
2385  2023-11-10 10:27:41.629059
2386  2023-11-10 10:27:41.659962
2387  2023-11-10 10:27:41.692888
2388  2023-11-10 10:27:41.724789
2389  2023-11-10 10:27:41.756706
2390  2023-11-10 10:27:41.804587
2391  2023-11-10 10:27:41.836500
2392  2023-11-10 10:27:41.868417
2393  2023-11-10 10:27:41.900342
2394  2023-11-10 10:27:41.932236
2395  2023-11-10 10:27:41.964153
2396  2023-11-10 10:27:41.996031
2397  2023-11-10 10:27:42.027986
2398  2023-11-10 10:27:42.060891
2399  2023-11-10 10:27:42.092774
2400  2023-11-10 10:27:42.124688
2401  2023-11-10 10:27:42.156601
2402  2023-11-10 10:27:42.204507
2403  2023-11-10 10:27:42.236366
2404  2023-11-10 10:27:42.268281
2405  2023-11-10 10:27:42.300196
2406  2023-11-10 10:27:42.332249
2407  2023-11-10 10:27:42.364142
2408  2023-11-10 10:27:42.396067
2409  2023-11-10 10:27:42.427974
2410  2023-11-10 10:27:42.460901
2411  2023-11-10 10:27:42.492796
2412  2023-11-10 10:27:42.524711
2413  2023-11-10 10:27:42.556639
2414  2023-11-10 10:27:42.604503
2415  2023-11-10 10:27:42.636421
2416  2023-11-10 10:27:42.668342
2417  2023-11-10 10:27:42.700247
2418  2023-11-10 10:27:42.732161
2419  2023-11-10 10:27:42.764075
2420  2023-11-10 10:27:42.796952
2421  2023-11-10 10:27:42.828866
2422  2023-11-10 10:27:42.860822
2423  2023-11-10 10:27:42.892733
2424  2023-11-10 10:27:42.924642
2425  2023-11-10 10:27:42.956536
2426  2023-11-10 10:27:43.004431
2427  2023-11-10 10:27:43.036351
2428  2023-11-10 10:27:43.068264
2429  2023-11-10 10:27:43.100176
2430  2023-11-10 10:27:43.133088
2431  2023-11-10 10:27:43.165002
2432  2023-11-10 10:27:43.195919
2433  2023-11-10 10:27:43.228797
2434  2023-11-10 10:27:43.260712
2435  2023-11-10 10:27:43.292627
2436  2023-11-10 10:27:43.324576
2437  2023-11-10 10:27:43.356490
2438  2023-11-10 10:27:43.404367
2439  2023-11-10 10:27:43.436278
2440  2023-11-10 10:27:43.469162
2441  2023-11-10 10:27:43.500104
2442  2023-11-10 10:27:43.532018
2443  2023-11-10 10:27:43.563951
2444  2023-11-10 10:27:43.596863
2445  2023-11-10 10:27:43.628760
2446  2023-11-10 10:27:43.660643
2447  2023-11-10 10:27:43.692594
2448  2023-11-10 10:27:43.724510
2449  2023-11-10 10:27:43.772381
2450  2023-11-10 10:27:43.804301
2451  2023-11-10 10:27:43.836206
2452  2023-11-10 10:27:43.868127
2453  2023-11-10 10:27:43.900040
2454  2023-11-10 10:27:43.931956
2455  2023-11-10 10:27:43.964917
2456  2023-11-10 10:27:43.996919
2457  2023-11-10 10:27:44.028798
2458  2023-11-10 10:27:44.060712
2459  2023-11-10 10:27:44.092662
2460  2023-11-10 10:27:44.124574
2461  2023-11-10 10:27:44.172451
2462  2023-11-10 10:27:44.204374
2463  2023-11-10 10:27:44.236260
2464  2023-11-10 10:27:44.268201
2465  2023-11-10 10:27:44.300122
2466  2023-11-10 10:27:44.332030
2467  2023-11-10 10:27:44.363940
2468  2023-11-10 10:27:44.396814
2469  2023-11-10 10:27:44.428729
2470  2023-11-10 10:27:44.460688
2471  2023-11-10 10:27:44.492593
2472  2023-11-10 10:27:44.524508
2473  2023-11-10 10:27:44.572367
2474  2023-11-10 10:27:44.604260
2475  2023-11-10 10:27:44.636176
2476  2023-11-10 10:27:44.668090
2477  2023-11-10 10:27:44.700005
2478  2023-11-10 10:27:44.732948
2479  2023-11-10 10:27:44.764874
2480  2023-11-10 10:27:44.796784
2481  2023-11-10 10:27:44.828659
2482  2023-11-10 10:27:44.860574
2483  2023-11-10 10:27:44.892525
2484  2023-11-10 10:27:44.924439
2485  2023-11-10 10:27:44.972310
2486  2023-11-10 10:27:45.004233
2487  2023-11-10 10:27:45.036145
2488  2023-11-10 10:27:45.068054
2489  2023-11-10 10:27:45.100964
2490  2023-11-10 10:27:45.132888
2491  2023-11-10 10:27:45.164761
2492  2023-11-10 10:27:45.196676
2493  2023-11-10 10:27:45.228590
2494  2023-11-10 10:27:45.260505
2495  2023-11-10 10:27:45.292420
2496  2023-11-10 10:27:45.324335
2497  2023-11-10 10:27:45.372257
2498  2023-11-10 10:27:45.404153
2499  2023-11-10 10:27:45.436076
2500  2023-11-10 10:27:45.467990
2501  2023-11-10 10:27:45.499907
2502  2023-11-10 10:27:45.532818
2503  2023-11-10 10:27:45.564774
2504  2023-11-10 10:27:45.596689
2505  2023-11-10 10:27:45.628616
2506  2023-11-10 10:27:45.660657
2507  2023-11-10 10:27:45.692446
2508  2023-11-10 10:27:45.724360
2509  2023-11-10 10:27:45.772288
2510  2023-11-10 10:27:45.804171
2511  2023-11-10 10:27:45.837103
2512  2023-11-10 10:27:45.868009
2513  2023-11-10 10:27:45.899931
2514  2023-11-10 10:27:45.932813
2515  2023-11-10 10:27:45.964752
2516  2023-11-10 10:27:45.996664
2517  2023-11-10 10:27:46.028547
2518  2023-11-10 10:27:46.060462
2519  2023-11-10 10:27:46.092378
2520  2023-11-10 10:27:46.124329
2521  2023-11-10 10:27:46.172190
2522  2023-11-10 10:27:46.204113
2523  2023-11-10 10:27:46.236023
2524  2023-11-10 10:27:46.268940
2525  2023-11-10 10:27:46.300857
2526  2023-11-10 10:27:46.332768
2527  2023-11-10 10:27:46.364649
2528  2023-11-10 10:27:46.396563
2529  2023-11-10 10:27:46.428651
2530  2023-11-10 10:27:46.460533
2531  2023-11-10 10:27:46.492480
2532  2023-11-10 10:27:46.524428
2533  2023-11-10 10:27:46.572341
2534  2023-11-10 10:27:46.604260
2535  2023-11-10 10:27:46.636162
2536  2023-11-10 10:27:46.668085
2537  2023-11-10 10:27:46.700988
2538  2023-11-10 10:27:46.732881
2539  2023-11-10 10:27:46.764785
2540  2023-11-10 10:27:46.796700
2541  2023-11-10 10:27:46.828614
2542  2023-11-10 10:27:46.860529
2543  2023-11-10 10:27:46.892444
2544  2023-11-10 10:27:46.924410
2545  2023-11-10 10:27:46.972265
2546  2023-11-10 10:27:47.004186
2547  2023-11-10 10:27:47.036093
2548  2023-11-10 10:27:47.068011
2549  2023-11-10 10:27:47.099928
2550  2023-11-10 10:27:47.132813
2551  2023-11-10 10:27:47.164716
2552  2023-11-10 10:27:47.196630
2553  2023-11-10 10:27:47.228545
2554  2023-11-10 10:27:47.260460
2555  2023-11-10 10:27:47.292374
2556  2023-11-10 10:27:47.324289
2557  2023-11-10 10:27:47.373160
2558  2023-11-10 10:27:47.404113
2559  2023-11-10 10:27:47.436992
2560  2023-11-10 10:27:47.467939
2561  2023-11-10 10:27:47.500855
2562  2023-11-10 10:27:47.532732
2563  2023-11-10 10:27:47.564646
2564  2023-11-10 10:27:47.596561
2565  2023-11-10 10:27:47.628512
2566  2023-11-10 10:27:47.660391
2567  2023-11-10 10:27:47.692305
2568  2023-11-10 10:27:47.740213
2569  2023-11-10 10:27:47.773121
2570  2023-11-10 10:27:47.805039
2571  2023-11-10 10:27:47.835958
2572  2023-11-10 10:27:47.868888
2573  2023-11-10 10:27:47.900780
2574  2023-11-10 10:27:47.932663
2575  2023-11-10 10:27:47.964609
2576  2023-11-10 10:27:47.996492
2577  2023-11-10 10:27:48.028407
2578  2023-11-10 10:27:48.060324
2579  2023-11-10 10:27:48.092290
2580  2023-11-10 10:27:48.140138
2581  2023-11-10 10:27:48.173056
2582  2023-11-10 10:27:48.204967
2583  2023-11-10 10:27:48.236884
2584  2023-11-10 10:27:48.268797
2585  2023-11-10 10:27:48.300712
2586  2023-11-10 10:27:48.332593
2587  2023-11-10 10:27:48.364508
2588  2023-11-10 10:27:48.396423
2589  2023-11-10 10:27:48.428380
2590  2023-11-10 10:27:48.460252
2591  2023-11-10 10:27:48.492167
2592  2023-11-10 10:27:48.540073
2593  2023-11-10 10:27:48.572986
2594  2023-11-10 10:27:48.604900
2595  2023-11-10 10:27:48.636823
2596  2023-11-10 10:27:48.668726
2597  2023-11-10 10:27:48.700661
2598  2023-11-10 10:27:48.732524
2599  2023-11-10 10:27:48.764439
2600  2023-11-10 10:27:48.796354
2601  2023-11-10 10:27:48.828268
2602  2023-11-10 10:27:48.861180
2603  2023-11-10 10:27:48.892097
2604  2023-11-10 10:27:48.940998
2605  2023-11-10 10:27:48.972913
2606  2023-11-10 10:27:49.004835
2607  2023-11-10 10:27:49.036746
2608  2023-11-10 10:27:49.068664
2609  2023-11-10 10:27:49.100575
2610  2023-11-10 10:27:49.132456
2611  2023-11-10 10:27:49.164370
2612  2023-11-10 10:27:49.196284
2613  2023-11-10 10:27:49.228199
2614  2023-11-10 10:27:49.261112
2615  2023-11-10 10:27:49.293028
2616  2023-11-10 10:27:49.340900
2617  2023-11-10 10:27:49.372852
2618  2023-11-10 10:27:49.404769
2619  2023-11-10 10:27:49.436704
2620  2023-11-10 10:27:49.468621
2621  2023-11-10 10:27:49.500534
2622  2023-11-10 10:27:49.532449
2623  2023-11-10 10:27:49.564371
2624  2023-11-10 10:27:49.596326
2625  2023-11-10 10:27:49.629191
2626  2023-11-10 10:27:49.660158
2627  2023-11-10 10:27:49.692073
2628  2023-11-10 10:27:49.739984
2629  2023-11-10 10:27:49.772675
2630  2023-11-10 10:27:49.804697
2631  2023-11-10 10:27:49.836622
2632  2023-11-10 10:27:49.868522
2633  2023-11-10 10:27:49.900766
2634  2023-11-10 10:27:49.932713
2635  2023-11-10 10:27:49.964659
2636  2023-11-10 10:27:49.996542
2637  2023-11-10 10:27:50.028457
2638  2023-11-10 10:27:50.060372
2639  2023-11-10 10:27:50.092287
2640  2023-11-10 10:27:50.140159
2641  2023-11-10 10:27:50.172104
2642  2023-11-10 10:27:50.204025
2643  2023-11-10 10:27:50.236932
2644  2023-11-10 10:27:50.268846
2645  2023-11-10 10:27:50.300760
2646  2023-11-10 10:27:50.332644
2647  2023-11-10 10:27:50.364559
2648  2023-11-10 10:27:50.396473
2649  2023-11-10 10:27:50.428388
2650  2023-11-10 10:27:50.461301
2651  2023-11-10 10:27:50.492218
2652  2023-11-10 10:27:50.541122
2653  2023-11-10 10:27:50.572042
2654  2023-11-10 10:27:50.603951
2655  2023-11-10 10:27:50.636855
2656  2023-11-10 10:27:50.668842
2657  2023-11-10 10:27:50.700752
2658  2023-11-10 10:27:50.732636
2659  2023-11-10 10:27:50.764550
2660  2023-11-10 10:27:50.796498
2661  2023-11-10 10:27:50.828382
2662  2023-11-10 10:27:50.860295
2663  2023-11-10 10:27:50.892209
2664  2023-11-10 10:27:50.940112
2665  2023-11-10 10:27:50.972043
2666  2023-11-10 10:27:51.003944
2667  2023-11-10 10:27:51.036867
2668  2023-11-10 10:27:51.068779
2669  2023-11-10 10:27:51.100683
2670  2023-11-10 10:27:51.132567
2671  2023-11-10 10:27:51.164481
2672  2023-11-10 10:27:51.196396
2673  2023-11-10 10:27:51.228317
2674  2023-11-10 10:27:51.260227
2675  2023-11-10 10:27:51.308178
2676  2023-11-10 10:27:51.340164
2677  2023-11-10 10:27:51.372074
2678  2023-11-10 10:27:51.403998
2679  2023-11-10 10:27:51.436919
2680  2023-11-10 10:27:51.468817
2681  2023-11-10 10:27:51.500700
2682  2023-11-10 10:27:51.532615
2683  2023-11-10 10:27:51.564529
2684  2023-11-10 10:27:51.596444
2685  2023-11-10 10:27:51.629405
2686  2023-11-10 10:27:51.661274
2687  2023-11-10 10:27:51.708163
2688  2023-11-10 10:27:51.740096
2689  2023-11-10 10:27:51.771976
2690  2023-11-10 10:27:51.804918
2691  2023-11-10 10:27:51.836847
2692  2023-11-10 10:27:51.868747
2693  2023-11-10 10:27:51.900664
2694  2023-11-10 10:27:51.932545
2695  2023-11-10 10:27:51.964461
2696  2023-11-10 10:27:51.996375
2697  2023-11-10 10:27:52.028289
2698  2023-11-10 10:27:52.060204
2699  2023-11-10 10:27:52.108113
2700  2023-11-10 10:27:52.140021
2701  2023-11-10 10:27:52.171943
2702  2023-11-10 10:27:52.204867
2703  2023-11-10 10:27:52.236765
2704  2023-11-10 10:27:52.268679
2705  2023-11-10 10:27:52.300602
2706  2023-11-10 10:27:52.332477
2707  2023-11-10 10:27:52.364391
2708  2023-11-10 10:27:52.396306
2709  2023-11-10 10:27:52.428254
2710  2023-11-10 10:27:52.460168
2711  2023-11-10 10:27:52.508042
2712  2023-11-10 10:27:52.539959
2713  2023-11-10 10:27:52.572866
2714  2023-11-10 10:27:52.604787
2715  2023-11-10 10:27:52.636697
2716  2023-11-10 10:27:52.668579
2717  2023-11-10 10:27:52.700494
2718  2023-11-10 10:27:52.732409
2719  2023-11-10 10:27:52.764333
2720  2023-11-10 10:27:52.796238
2721  2023-11-10 10:27:52.828188
2722  2023-11-10 10:27:52.860067
2723  2023-11-10 10:27:52.907971
2724  2023-11-10 10:27:52.940881
2725  2023-11-10 10:27:52.972929
2726  2023-11-10 10:27:53.004838
2727  2023-11-10 10:27:53.036811
2728  2023-11-10 10:27:53.068785
2729  2023-11-10 10:27:53.100670
2730  2023-11-10 10:27:53.132584
2731  2023-11-10 10:27:53.165496
2732  2023-11-10 10:27:53.196413
2733  2023-11-10 10:27:53.228327
2734  2023-11-10 10:27:53.260243
2735  2023-11-10 10:27:53.308147
2736  2023-11-10 10:27:53.340029
2737  2023-11-10 10:27:53.371975
2738  2023-11-10 10:27:53.404888
2739  2023-11-10 10:27:53.436809
2740  2023-11-10 10:27:53.468715
2741  2023-11-10 10:27:53.500195
2742  2023-11-10 10:27:53.532108
2743  2023-11-10 10:27:53.564023
2744  2023-11-10 10:27:53.595968
2745  2023-11-10 10:27:53.628896
2746  2023-11-10 10:27:53.660899
2747  2023-11-10 10:27:53.708846
2748  2023-11-10 10:27:53.740759
2749  2023-11-10 10:27:53.772674
2750  2023-11-10 10:27:53.804595
2751  2023-11-10 10:27:53.836508
2752  2023-11-10 10:27:53.868429
2753  2023-11-10 10:27:53.900353
2754  2023-11-10 10:27:53.932249
2755  2023-11-10 10:27:53.964132
2756  2023-11-10 10:27:53.996046
2757  2023-11-10 10:27:54.028957
2758  2023-11-10 10:27:54.060943
2759  2023-11-10 10:27:54.107925
2760  2023-11-10 10:27:54.140753
2761  2023-11-10 10:27:54.172758
2762  2023-11-10 10:27:54.204656
2763  2023-11-10 10:27:54.236572
2764  2023-11-10 10:27:54.268488
2765  2023-11-10 10:27:54.301396
2766  2023-11-10 10:27:54.334293
2767  2023-11-10 10:27:54.365232
2768  2023-11-10 10:27:54.396113
2769  2023-11-10 10:27:54.428028
2770  2023-11-10 10:27:54.461967
2771  2023-11-10 10:27:54.508248
2772  2023-11-10 10:27:54.541705
2773  2023-11-10 10:27:54.573623
2774  2023-11-10 10:27:54.605597
2775  2023-11-10 10:27:54.637640
2776  2023-11-10 10:27:54.669543
2777  2023-11-10 10:27:54.701458
2778  2023-11-10 10:27:54.733376
2779  2023-11-10 10:27:54.765346
2780  2023-11-10 10:27:54.798315
2781  2023-11-10 10:27:54.829227
2782  2023-11-10 10:27:54.861146
2783  2023-11-10 10:27:54.908982
2784  2023-11-10 10:27:54.940933
2785  2023-11-10 10:27:54.973841
2786  2023-11-10 10:27:55.005758
2787  2023-11-10 10:27:55.037671
2788  2023-11-10 10:27:55.069592
2789  2023-11-10 10:27:55.101500
2790  2023-11-10 10:27:55.133415
2791  2023-11-10 10:27:55.165329
2792  2023-11-10 10:27:55.197244
2793  2023-11-10 10:27:55.229159
2794  2023-11-10 10:27:55.277031
2795  2023-11-10 10:27:55.308942
2796  2023-11-10 10:27:55.341012
2797  2023-11-10 10:27:55.373018
2798  2023-11-10 10:27:55.404958
2799  2023-11-10 10:27:55.436875
2800  2023-11-10 10:27:55.468880
2801  2023-11-10 10:27:55.500794
2802  2023-11-10 10:27:55.532711
2803  2023-11-10 10:27:55.564595
2804  2023-11-10 10:27:55.596546
2805  2023-11-10 10:27:55.628456
2806  2023-11-10 10:27:55.677352
2807  2023-11-10 10:27:55.708242
2808  2023-11-10 10:27:55.741145
2809  2023-11-10 10:27:55.773067
2810  2023-11-10 10:27:55.804982
2811  2023-11-10 10:27:55.836902
2812  2023-11-10 10:27:55.868814
2813  2023-11-10 10:27:55.900728
2814  2023-11-10 10:27:55.932642
2815  2023-11-10 10:27:55.964557
2816  2023-11-10 10:27:55.996471
2817  2023-11-10 10:27:56.028394
2818  2023-11-10 10:27:56.077256
2819  2023-11-10 10:27:56.108175
2820  2023-11-10 10:27:56.140089
2821  2023-11-10 10:27:56.172968
2822  2023-11-10 10:27:56.204920
2823  2023-11-10 10:27:56.236843
2824  2023-11-10 10:27:56.268884
2825  2023-11-10 10:27:56.300761
2826  2023-11-10 10:27:56.332710
2827  2023-11-10 10:27:56.364621
2828  2023-11-10 10:27:56.396539
2829  2023-11-10 10:27:56.428450
2830  2023-11-10 10:27:56.476329
2831  2023-11-10 10:27:56.508246
2832  2023-11-10 10:27:56.540151
2833  2023-11-10 10:27:56.572068
2834  2023-11-10 10:27:56.603986
2835  2023-11-10 10:27:56.636908
2836  2023-11-10 10:27:56.668831
2837  2023-11-10 10:27:56.700730
2838  2023-11-10 10:27:56.732607
2839  2023-11-10 10:27:56.764564
2840  2023-11-10 10:27:56.796488
2841  2023-11-10 10:27:56.829385
2842  2023-11-10 10:27:56.878249
2843  2023-11-10 10:27:56.910180
2844  2023-11-10 10:27:56.940083
2845  2023-11-10 10:27:56.972964
2846  2023-11-10 10:27:57.005127
2847  2023-11-10 10:27:57.038081
2848  2023-11-10 10:27:57.069979
2849  2023-11-10 10:27:57.100898
2850  2023-11-10 10:27:57.132781
2851  2023-11-10 10:27:57.164697
2852  2023-11-10 10:27:57.197609
2853  2023-11-10 10:27:57.229554
2854  2023-11-10 10:27:57.277169
2855  2023-11-10 10:27:57.309324
2856  2023-11-10 10:27:57.340281
2857  2023-11-10 10:27:57.372319
2858  2023-11-10 10:27:57.404228
2859  2023-11-10 10:27:57.437144
2860  2023-11-10 10:27:57.469076
2861  2023-11-10 10:27:57.501119
2862  2023-11-10 10:27:57.532892
2863  2023-11-10 10:27:57.564815
2864  2023-11-10 10:27:57.597766
2865  2023-11-10 10:27:57.629670
2866  2023-11-10 10:27:57.677539
2867  2023-11-10 10:27:57.709478
2868  2023-11-10 10:27:57.741378
2869  2023-11-10 10:27:57.772284
2870  2023-11-10 10:27:57.804201
2871  2023-11-10 10:27:57.837123
2872  2023-11-10 10:27:57.869032
2873  2023-11-10 10:27:57.900942
2874  2023-11-10 10:27:57.932872
2875  2023-11-10 10:27:57.964770
2876  2023-11-10 10:27:57.996685
2877  2023-11-10 10:27:58.028600
2878  2023-11-10 10:27:58.076439
2879  2023-11-10 10:27:58.108387
2880  2023-11-10 10:27:58.140314
2881  2023-11-10 10:27:58.172217
2882  2023-11-10 10:27:58.204136
2883  2023-11-10 10:27:58.236045
2884  2023-11-10 10:27:58.268962
2885  2023-11-10 10:27:58.300872
2886  2023-11-10 10:27:58.332784
2887  2023-11-10 10:27:58.364668
2888  2023-11-10 10:27:58.396621
2889  2023-11-10 10:27:58.428534
2890  2023-11-10 10:27:58.476409
2891  2023-11-10 10:27:58.509307
2892  2023-11-10 10:27:58.541228
2893  2023-11-10 10:27:58.572154
2894  2023-11-10 10:27:58.604063
2895  2023-11-10 10:27:58.636942
2896  2023-11-10 10:27:58.668890
2897  2023-11-10 10:27:58.700827
2898  2023-11-10 10:27:58.732684
2899  2023-11-10 10:27:58.764599
2900  2023-11-10 10:27:58.796553
2901  2023-11-10 10:27:58.844386
2902  2023-11-10 10:27:58.876301
2903  2023-11-10 10:27:58.908265
2904  2023-11-10 10:27:58.940171
2905  2023-11-10 10:27:58.972167
2906  2023-11-10 10:27:59.004067
2907  2023-11-10 10:27:59.035999
2908  2023-11-10 10:27:59.067947
2909  2023-11-10 10:27:59.100874
2910  2023-11-10 10:27:59.132777
2911  2023-11-10 10:27:59.164648
2912  2023-11-10 10:27:59.196632
2913  2023-11-10 10:27:59.244471
2914  2023-11-10 10:27:59.276401
2915  2023-11-10 10:27:59.308303
2916  2023-11-10 10:27:59.340273
2917  2023-11-10 10:27:59.372194
2918  2023-11-10 10:27:59.404180
2919  2023-11-10 10:27:59.436093
2920  2023-11-10 10:27:59.468057
2921  2023-11-10 10:27:59.499996
2922  2023-11-10 10:27:59.532909
2923  2023-11-10 10:27:59.564787
2924  2023-11-10 10:27:59.596899
2925  2023-11-10 10:27:59.644860
2926  2023-11-10 10:27:59.676773
2927  2023-11-10 10:27:59.708736
2928  2023-11-10 10:27:59.740653
2929  2023-11-10 10:27:59.772574
2930  2023-11-10 10:27:59.804481
2931  2023-11-10 10:27:59.836493
2932  2023-11-10 10:27:59.868446
2933  2023-11-10 10:27:59.900342
2934  2023-11-10 10:27:59.932221
2935  2023-11-10 10:27:59.964137
2936  2023-11-10 10:27:59.996050
2937  2023-11-10 10:28:00.044920
2938  2023-11-10 10:28:00.076834
2939  2023-11-10 10:28:00.108750
2940  2023-11-10 10:28:00.140699
2941  2023-11-10 10:28:00.172609
2942  2023-11-10 10:28:00.204527
2943  2023-11-10 10:28:00.236440
2944  2023-11-10 10:28:00.268503
2945  2023-11-10 10:28:00.300424
2946  2023-11-10 10:28:00.332331
2947  2023-11-10 10:28:00.364214
2948  2023-11-10 10:28:00.396161
2949  2023-11-10 10:28:00.444094
2950  2023-11-10 10:28:00.476010
2951  2023-11-10 10:28:00.507883
2952  2023-11-10 10:28:00.540225
2953  2023-11-10 10:28:00.572248
2954  2023-11-10 10:28:00.604163
2955  2023-11-10 10:28:00.636075
2956  2023-11-10 10:28:00.668984
2957  2023-11-10 10:28:00.700917
2958  2023-11-10 10:28:00.732819
2959  2023-11-10 10:28:00.764729
2960  2023-11-10 10:28:00.796614
2961  2023-11-10 10:28:00.844522
2962  2023-11-10 10:28:00.876440
2963  2023-11-10 10:28:00.908352
2964  2023-11-10 10:28:00.940269
2965  2023-11-10 10:28:00.972176
2966  2023-11-10 10:28:01.005056
2967  2023-11-10 10:28:01.036004
2968  2023-11-10 10:28:01.068920
2969  2023-11-10 10:28:01.100829
2970  2023-11-10 10:28:01.132749
2971  2023-11-10 10:28:01.164782
2972  2023-11-10 10:28:01.196696
2973  2023-11-10 10:28:01.244605
2974  2023-11-10 10:28:01.276402
2975  2023-11-10 10:28:01.308380
2976  2023-11-10 10:28:01.340259
2977  2023-11-10 10:28:01.372340
2978  2023-11-10 10:28:01.404243
2979  2023-11-10 10:28:01.436240
2980  2023-11-10 10:28:01.468152
2981  2023-11-10 10:28:01.500069
2982  2023-11-10 10:28:01.532981
2983  2023-11-10 10:28:01.564862
2984  2023-11-10 10:28:01.596814
2985  2023-11-10 10:28:01.644683
2986  2023-11-10 10:28:01.676605
2987  2023-11-10 10:28:01.708517
2988  2023-11-10 10:28:01.740431
2989  2023-11-10 10:28:01.772326
2990  2023-11-10 10:28:01.804258
2991  2023-11-10 10:28:01.836177
2992  2023-11-10 10:28:01.868095
2993  2023-11-10 10:28:01.900000
2994  2023-11-10 10:28:01.932921
2995  2023-11-10 10:28:01.964793
2996  2023-11-10 10:28:01.996748
2997  2023-11-10 10:28:02.044619
2998  2023-11-10 10:28:02.076527
2999  2023-11-10 10:28:02.108442
3000  2023-11-10 10:28:02.140357
3001  2023-11-10 10:28:02.173237
3002  2023-11-10 10:28:02.205153
3003  2023-11-10 10:28:02.236102
3004  2023-11-10 10:28:02.268017
3005  2023-11-10 10:28:02.300903
3006  2023-11-10 10:28:02.332811
3007  2023-11-10 10:28:02.364754
3008  2023-11-10 10:28:02.396672
3009  2023-11-10 10:28:02.444707
3010  2023-11-10 10:28:02.476621
3011  2023-11-10 10:28:02.508544
3012  2023-11-10 10:28:02.540458
3013  2023-11-10 10:28:02.572369
3014  2023-11-10 10:28:02.604284
3015  2023-11-10 10:28:02.636200
3016  2023-11-10 10:28:02.668103
3017  2023-11-10 10:28:02.700031
3018  2023-11-10 10:28:02.732938
3019  2023-11-10 10:28:02.764856
3020  2023-11-10 10:28:02.812729
3021  2023-11-10 10:28:02.844644
3022  2023-11-10 10:28:02.876558
3023  2023-11-10 10:28:02.908471
3024  2023-11-10 10:28:02.940401
3025  2023-11-10 10:28:02.972310
3026  2023-11-10 10:28:03.005223
3027  2023-11-10 10:28:03.037131
3028  2023-11-10 10:28:03.068054
3029  2023-11-10 10:28:03.099961
3030  2023-11-10 10:28:03.132875
3031  2023-11-10 10:28:03.164809
3032  2023-11-10 10:28:03.212670
3033  2023-11-10 10:28:03.244578
3034  2023-11-10 10:28:03.276495
3035  2023-11-10 10:28:03.308515
3036  2023-11-10 10:28:03.340529
3037  2023-11-10 10:28:03.372417
3038  2023-11-10 10:28:03.404231
3039  2023-11-10 10:28:03.436218
3040  2023-11-10 10:28:03.468132
3041  2023-11-10 10:28:03.501043
3042  2023-11-10 10:28:03.532927
3043  2023-11-10 10:28:03.564873
3044  2023-11-10 10:28:03.612746
3045  2023-11-10 10:28:03.644663
3046  2023-11-10 10:28:03.676581
3047  2023-11-10 10:28:03.708488
3048  2023-11-10 10:28:03.740423
3049  2023-11-10 10:28:03.772318
3050  2023-11-10 10:28:03.804234
3051  2023-11-10 10:28:03.836152
3052  2023-11-10 10:28:03.868069
3053  2023-11-10 10:28:03.899984
3054  2023-11-10 10:28:03.932890
3055  2023-11-10 10:28:03.964808
3056  2023-11-10 10:28:04.012675
3057  2023-11-10 10:28:04.044595
3058  2023-11-10 10:28:04.076488
3059  2023-11-10 10:28:04.108479
3060  2023-11-10 10:28:04.140416
3061  2023-11-10 10:28:04.172325
3062  2023-11-10 10:28:04.204235
3063  2023-11-10 10:28:04.236139
3064  2023-11-10 10:28:04.268090
3065  2023-11-10 10:28:04.300090
3066  2023-11-10 10:28:04.332004
3067  2023-11-10 10:28:04.363917
3068  2023-11-10 10:28:04.412779
3069  2023-11-10 10:28:04.444700
3070  2023-11-10 10:28:04.476616
3071  2023-11-10 10:28:04.508526
3072  2023-11-10 10:28:04.540440
3073  2023-11-10 10:28:04.572363
3074  2023-11-10 10:28:04.604287
3075  2023-11-10 10:28:04.636185
3076  2023-11-10 10:28:04.668097
3077  2023-11-10 10:28:04.700018
3078  2023-11-10 10:28:04.731929
3079  2023-11-10 10:28:04.764852
3080  2023-11-10 10:28:04.812695
3081  2023-11-10 10:28:04.844625
3082  2023-11-10 10:28:04.876544
3083  2023-11-10 10:28:04.908455
3084  2023-11-10 10:28:04.940372
3085  2023-11-10 10:28:04.972326
3086  2023-11-10 10:28:05.005166
3087  2023-11-10 10:28:05.037113
3088  2023-11-10 10:28:05.068028
3089  2023-11-10 10:28:05.100943
3090  2023-11-10 10:28:05.132856
3091  2023-11-10 10:28:05.164745
3092  2023-11-10 10:28:05.212679
3093  2023-11-10 10:28:05.244573
3094  2023-11-10 10:28:05.276487
3095  2023-11-10 10:28:05.308504
3096  2023-11-10 10:28:05.340435
3097  2023-11-10 10:28:05.372339
3098  2023-11-10 10:28:05.404260
3099  2023-11-10 10:28:05.436156
3100  2023-11-10 10:28:05.469070
3101  2023-11-10 10:28:05.499983
3102  2023-11-10 10:28:05.532899
3103  2023-11-10 10:28:05.564818
3104  2023-11-10 10:28:05.612690
3105  2023-11-10 10:28:05.644602
3106  2023-11-10 10:28:05.676521
3107  2023-11-10 10:28:05.708434
3108  2023-11-10 10:28:05.740361
3109  2023-11-10 10:28:05.772262
3110  2023-11-10 10:28:05.804185
3111  2023-11-10 10:28:05.836056
3112  2023-11-10 10:28:05.868002
3113  2023-11-10 10:28:05.900923
3114  2023-11-10 10:28:05.932838
3115  2023-11-10 10:28:05.964742
3116  2023-11-10 10:28:06.012614
3117  2023-11-10 10:28:06.044537
3118  2023-11-10 10:28:06.076451
3119  2023-11-10 10:28:06.108366
3120  2023-11-10 10:28:06.140280
3121  2023-11-10 10:28:06.172195
3122  2023-11-10 10:28:06.204109
3123  2023-11-10 10:28:06.236103
3124  2023-11-10 10:28:06.268009
3125  2023-11-10 10:28:06.299932
3126  2023-11-10 10:28:06.332837
3127  2023-11-10 10:28:06.364752
3128  2023-11-10 10:28:06.412625
3129  2023-11-10 10:28:06.444508
3130  2023-11-10 10:28:06.476456
3131  2023-11-10 10:28:06.508372
3132  2023-11-10 10:28:06.540293
3133  2023-11-10 10:28:06.572208
3134  2023-11-10 10:28:06.604116
3135  2023-11-10 10:28:06.636092
3136  2023-11-10 10:28:06.668970
3137  2023-11-10 10:28:06.700926
3138  2023-11-10 10:28:06.732840
3139  2023-11-10 10:28:06.780702
3140  2023-11-10 10:28:06.812617
3141  2023-11-10 10:28:06.844502
3142  2023-11-10 10:28:06.876415
3143  2023-11-10 10:28:06.908364
3144  2023-11-10 10:28:06.940283
3145  2023-11-10 10:28:06.972201
3146  2023-11-10 10:28:07.004125
3147  2023-11-10 10:28:07.036018
3148  2023-11-10 10:28:07.068911
3149  2023-11-10 10:28:07.100850
3150  2023-11-10 10:28:07.132760
3151  2023-11-10 10:28:07.180638
3152  2023-11-10 10:28:07.212547
3153  2023-11-10 10:28:07.244464
3154  2023-11-10 10:28:07.276409
3155  2023-11-10 10:28:07.308298
3156  2023-11-10 10:28:07.341208
3157  2023-11-10 10:28:07.373087
3158  2023-11-10 10:28:07.404036
3159  2023-11-10 10:28:07.436949
3160  2023-11-10 10:28:07.468831
3161  2023-11-10 10:28:07.500761
3162  2023-11-10 10:28:07.532659
3163  2023-11-10 10:28:07.580567
3164  2023-11-10 10:28:07.612479
3165  2023-11-10 10:28:07.644402
3166  2023-11-10 10:28:07.676316
3167  2023-11-10 10:28:07.708191
3168  2023-11-10 10:28:07.740147
3169  2023-11-10 10:28:07.772055
3170  2023-11-10 10:28:07.803974
3171  2023-11-10 10:28:07.836899
3172  2023-11-10 10:28:07.868790
3173  2023-11-10 10:28:07.900708
3174  2023-11-10 10:28:07.932590
3175  2023-11-10 10:28:07.980498
3176  2023-11-10 10:28:08.012378
3177  2023-11-10 10:28:08.044355
3178  2023-11-10 10:28:08.076247
3179  2023-11-10 10:28:08.108151
3180  2023-11-10 10:28:08.140068
3181  2023-11-10 10:28:08.171989
3182  2023-11-10 10:28:08.204907
3183  2023-11-10 10:28:08.236815
3184  2023-11-10 10:28:08.268691
3185  2023-11-10 10:28:08.300639
3186  2023-11-10 10:28:08.332625
3187  2023-11-10 10:28:08.380660
3188  2023-11-10 10:28:08.412574
3189  2023-11-10 10:28:08.444489
3190  2023-11-10 10:28:08.476408
3191  2023-11-10 10:28:08.508337
3192  2023-11-10 10:28:08.540199
3193  2023-11-10 10:28:08.572146
3194  2023-11-10 10:28:08.604063
3195  2023-11-10 10:28:08.636907
3196  2023-11-10 10:28:08.668822
3197  2023-11-10 10:28:08.700836
3198  2023-11-10 10:28:08.732719
3199  2023-11-10 10:28:08.780631
3200  2023-11-10 10:28:08.812511
3201  2023-11-10 10:28:08.844452
3202  2023-11-10 10:28:08.876364
3203  2023-11-10 10:28:08.908293
3204  2023-11-10 10:28:08.940198
3205  2023-11-10 10:28:08.972111
3206  2023-11-10 10:28:09.004041
3207  2023-11-10 10:28:09.036940
3208  2023-11-10 10:28:09.068823
3209  2023-11-10 10:28:09.100779
3210  2023-11-10 10:28:09.132753
3211  2023-11-10 10:28:09.180624
3212  2023-11-10 10:28:09.212538
3213  2023-11-10 10:28:09.244454
3214  2023-11-10 10:28:09.276376
3215  2023-11-10 10:28:09.308282
3216  2023-11-10 10:28:09.340202
3217  2023-11-10 10:28:09.372113
3218  2023-11-10 10:28:09.404026
3219  2023-11-10 10:28:09.436937
3220  2023-11-10 10:28:09.468876
3221  2023-11-10 10:28:09.500766
3222  2023-11-10 10:28:09.532650
3223  2023-11-10 10:28:09.580556
3224  2023-11-10 10:28:09.612437
3225  2023-11-10 10:28:09.644415
3226  2023-11-10 10:28:09.676304
3227  2023-11-10 10:28:09.708217
3228  2023-11-10 10:28:09.740141
3229  2023-11-10 10:28:09.772060
3230  2023-11-10 10:28:09.804976
3231  2023-11-10 10:28:09.836913
3232  2023-11-10 10:28:09.868797
3233  2023-11-10 10:28:09.900742
3234  2023-11-10 10:28:09.932661
3235  2023-11-10 10:28:09.980561
3236  2023-11-10 10:28:10.012511
3237  2023-11-10 10:28:10.044505
3238  2023-11-10 10:28:10.076419
3239  2023-11-10 10:28:10.108325
3240  2023-11-10 10:28:10.140205
3241  2023-11-10 10:28:10.172161
3242  2023-11-10 10:28:10.204065
3243  2023-11-10 10:28:10.235981
3244  2023-11-10 10:28:10.268895
3245  2023-11-10 10:28:10.300830
3246  2023-11-10 10:28:10.348687
3247  2023-11-10 10:28:10.380617
3248  2023-11-10 10:28:10.412621
3249  2023-11-10 10:28:10.444604
3250  2023-11-10 10:28:10.476527
3251  2023-11-10 10:28:10.508440
3252  2023-11-10 10:28:10.540365
3253  2023-11-10 10:28:10.572281
3254  2023-11-10 10:28:10.604434
3255  2023-11-10 10:28:10.636395
3256  2023-11-10 10:28:10.668381
3257  2023-11-10 10:28:10.700295
3258  2023-11-10 10:28:10.748273
3259  2023-11-10 10:28:10.780187
3260  2023-11-10 10:28:10.812099
3261  2023-11-10 10:28:10.844020
3262  2023-11-10 10:28:10.876926
3263  2023-11-10 10:28:10.908848
3264  2023-11-10 10:28:10.940754
3265  2023-11-10 10:28:10.972670
3266  2023-11-10 10:28:11.004594
3267  2023-11-10 10:28:11.036499
3268  2023-11-10 10:28:11.068459
3269  2023-11-10 10:28:11.100374
3270  2023-11-10 10:28:11.148278
3271  2023-11-10 10:28:11.180218
3272  2023-11-10 10:28:11.212165
3273  2023-11-10 10:28:11.244077
3274  2023-11-10 10:28:11.276031
3275  2023-11-10 10:28:11.308938
3276  2023-11-10 10:28:11.340854
3277  2023-11-10 10:28:11.372777
3278  2023-11-10 10:28:11.404692
3279  2023-11-10 10:28:11.436598
3280  2023-11-10 10:28:11.468518
3281  2023-11-10 10:28:11.500437
3282  2023-11-10 10:28:11.548304
3283  2023-11-10 10:28:11.580218
3284  2023-11-10 10:28:11.612123
3285  2023-11-10 10:28:11.644141
3286  2023-11-10 10:28:11.676054
3287  2023-11-10 10:28:11.707972
3288  2023-11-10 10:28:11.739890
3289  2023-11-10 10:28:11.772765
3290  2023-11-10 10:28:11.804713
3291  2023-11-10 10:28:11.836631
3292  2023-11-10 10:28:11.868540
3293  2023-11-10 10:28:11.900459
3294  2023-11-10 10:28:11.948332
3295  2023-11-10 10:28:11.980246
3296  2023-11-10 10:28:12.012169
3297  2023-11-10 10:28:12.044071
3298  2023-11-10 10:28:12.075988
3299  2023-11-10 10:28:12.108899
3300  2023-11-10 10:28:12.140814
3301  2023-11-10 10:28:12.172728
3302  2023-11-10 10:28:12.204661
3303  2023-11-10 10:28:12.236566
3304  2023-11-10 10:28:12.268474
3305  2023-11-10 10:28:12.300354
3306  2023-11-10 10:28:12.348385
3307  2023-11-10 10:28:12.381140
3308  2023-11-10 10:28:12.412246
3309  2023-11-10 10:28:12.444166
3310  2023-11-10 10:28:12.476076
3311  2023-11-10 10:28:12.508959
3312  2023-11-10 10:28:12.540873
3313  2023-11-10 10:28:12.572823
3314  2023-11-10 10:28:12.604737
3315  2023-11-10 10:28:12.636658
3316  2023-11-10 10:28:12.668533
3317  2023-11-10 10:28:12.700481
3318  2023-11-10 10:28:12.748354
3319  2023-11-10 10:28:12.780284
3320  2023-11-10 10:28:12.812178
3321  2023-11-10 10:28:12.844093
3322  2023-11-10 10:28:12.876012
3323  2023-11-10 10:28:12.908920
3324  2023-11-10 10:28:12.940842
3325  2023-11-10 10:28:12.972750
3326  2023-11-10 10:28:13.004665
3327  2023-11-10 10:28:13.036581
3328  2023-11-10 10:28:13.068496
3329  2023-11-10 10:28:13.100428
3330  2023-11-10 10:28:13.148285
3331  2023-11-10 10:28:13.180199
3332  2023-11-10 10:28:13.212088
3333  2023-11-10 10:28:13.244032
3334  2023-11-10 10:28:13.275945
3335  2023-11-10 10:28:13.308851
3336  2023-11-10 10:28:13.340765
3337  2023-11-10 10:28:13.372683
3338  2023-11-10 10:28:13.404599
3339  2023-11-10 10:28:13.436512
3340  2023-11-10 10:28:13.468448
3341  2023-11-10 10:28:13.500358
3342  2023-11-10 10:28:13.548214
3343  2023-11-10 10:28:13.580096
3344  2023-11-10 10:28:13.612011
3345  2023-11-10 10:28:13.644959
3346  2023-11-10 10:28:13.676868
3347  2023-11-10 10:28:13.708783
3348  2023-11-10 10:28:13.740700
3349  2023-11-10 10:28:13.772611
3350  2023-11-10 10:28:13.804527
3351  2023-11-10 10:28:13.836441
3352  2023-11-10 10:28:13.869358
3353  2023-11-10 10:28:13.900273
3354  2023-11-10 10:28:13.948110
3355  2023-11-10 10:28:13.980059
3356  2023-11-10 10:28:14.012969
3357  2023-11-10 10:28:14.044887
3358  2023-11-10 10:28:14.076798
3359  2023-11-10 10:28:14.108712
3360  2023-11-10 10:28:14.140629
3361  2023-11-10 10:28:14.172512
3362  2023-11-10 10:28:14.204435
3363  2023-11-10 10:28:14.236379
3364  2023-11-10 10:28:14.268077
3365  2023-11-10 10:28:14.316017
3366  2023-11-10 10:28:14.347964
3367  2023-11-10 10:28:14.379879
3368  2023-11-10 10:28:14.412793
3369  2023-11-10 10:28:14.444716
3370  2023-11-10 10:28:14.476621
3371  2023-11-10 10:28:14.508503
3372  2023-11-10 10:28:14.540452
3373  2023-11-10 10:28:14.572368
3374  2023-11-10 10:28:14.604289
3375  2023-11-10 10:28:14.636195
3376  2023-11-10 10:28:14.668128
3377  2023-11-10 10:28:14.715979
3378  2023-11-10 10:28:14.748900
3379  2023-11-10 10:28:14.780809
3380  2023-11-10 10:28:14.812727
3381  2023-11-10 10:28:14.844637
3382  2023-11-10 10:28:14.876549
3383  2023-11-10 10:28:14.908468
3384  2023-11-10 10:28:14.940380
3385  2023-11-10 10:28:14.972316
3386  2023-11-10 10:28:15.004218
3387  2023-11-10 10:28:15.036125
3388  2023-11-10 10:28:15.068011
3389  2023-11-10 10:28:15.116877
3390  2023-11-10 10:28:15.148826
3391  2023-11-10 10:28:15.180737
3392  2023-11-10 10:28:15.212660
3393  2023-11-10 10:28:15.244562
3394  2023-11-10 10:28:15.276483
3395  2023-11-10 10:28:15.308398
3396  2023-11-10 10:28:15.340313
3397  2023-11-10 10:28:15.372225
3398  2023-11-10 10:28:15.404149
3399  2023-11-10 10:28:15.436058
3400  2023-11-10 10:28:15.468992
3401  2023-11-10 10:28:15.516808
3402  2023-11-10 10:28:15.548721
3403  2023-11-10 10:28:15.581683
3404  2023-11-10 10:28:15.612585
3405  2023-11-10 10:28:15.644093
3406  2023-11-10 10:28:15.676974
3407  2023-11-10 10:28:15.708891
3408  2023-11-10 10:28:15.740805
3409  2023-11-10 10:28:15.772719
3410  2023-11-10 10:28:15.804870
3411  2023-11-10 10:28:15.836914
3412  2023-11-10 10:28:15.868800
3413  2023-11-10 10:28:15.916695
3414  2023-11-10 10:28:15.948589
3415  2023-11-10 10:28:15.980554
3416  2023-11-10 10:28:16.012556
3417  2023-11-10 10:28:16.044475
3418  2023-11-10 10:28:16.076520
3419  2023-11-10 10:28:16.110428
3420  2023-11-10 10:28:16.140317
3421  2023-11-10 10:28:16.174254
3422  2023-11-10 10:28:16.206166
3423  2023-11-10 10:28:16.238081
3424  2023-11-10 10:28:16.269996
3425  2023-11-10 10:28:16.317868
3426  2023-11-10 10:28:16.348791
3427  2023-11-10 10:28:16.381700
3428  2023-11-10 10:28:16.413617
3429  2023-11-10 10:28:16.446548
3430  2023-11-10 10:28:16.477446
3431  2023-11-10 10:28:16.509358
3432  2023-11-10 10:28:16.541281
3433  2023-11-10 10:28:16.573187
3434  2023-11-10 10:28:16.606099
3435  2023-11-10 10:28:16.638013
3436  2023-11-10 10:28:16.669951
3437  2023-11-10 10:28:16.717800
3438  2023-11-10 10:28:16.749722
3439  2023-11-10 10:28:16.781628
3440  2023-11-10 10:28:16.813553
3441  2023-11-10 10:28:16.845460
3442  2023-11-10 10:28:16.878372
3443  2023-11-10 10:28:16.909289
3444  2023-11-10 10:28:16.941205
3445  2023-11-10 10:28:16.973117
3446  2023-11-10 10:28:17.006031
3447  2023-11-10 10:28:17.036947
3448  2023-11-10 10:28:17.068894
3449  2023-11-10 10:28:17.116736
3450  2023-11-10 10:28:17.148653
3451  2023-11-10 10:28:17.181574
3452  2023-11-10 10:28:17.213482
3453  2023-11-10 10:28:17.245399
3454  2023-11-10 10:28:17.277306
3455  2023-11-10 10:28:17.309226
3456  2023-11-10 10:28:17.341133
3457  2023-11-10 10:28:17.373049
3458  2023-11-10 10:28:17.404932
3459  2023-11-10 10:28:17.436846
3460  2023-11-10 10:28:17.468801
3461  2023-11-10 10:28:17.516663
3462  2023-11-10 10:28:17.548582
3463  2023-11-10 10:28:17.581508
3464  2023-11-10 10:28:17.613406
3465  2023-11-10 10:28:17.645319
3466  2023-11-10 10:28:17.677243
3467  2023-11-10 10:28:17.708154
3468  2023-11-10 10:28:17.741085
3469  2023-11-10 10:28:17.773133
3470  2023-11-10 10:28:17.804911
3471  2023-11-10 10:28:17.836819
3472  2023-11-10 10:28:17.884819
3473  2023-11-10 10:28:17.916734
3474  2023-11-10 10:28:17.948649
3475  2023-11-10 10:28:17.980579
3476  2023-11-10 10:28:18.012601
3477  2023-11-10 10:28:18.046509
3478  2023-11-10 10:28:18.076432
3479  2023-11-10 10:28:18.108351
3480  2023-11-10 10:28:18.141280
3481  2023-11-10 10:28:18.173214
3482  2023-11-10 10:28:18.205195
3483  2023-11-10 10:28:18.236120
3484  2023-11-10 10:28:18.283955
3485  2023-11-10 10:28:18.316867
3486  2023-11-10 10:28:18.348814
3487  2023-11-10 10:28:18.380742
3488  2023-11-10 10:28:18.412644
3489  2023-11-10 10:28:18.444558
3490  2023-11-10 10:28:18.476484
3491  2023-11-10 10:28:18.508401
3492  2023-11-10 10:28:18.540306
3493  2023-11-10 10:28:18.572223
3494  2023-11-10 10:28:18.604131
3495  2023-11-10 10:28:18.636044
3496  2023-11-10 10:28:18.685913
3497  2023-11-10 10:28:18.717826
3498  2023-11-10 10:28:18.749743
3499  2023-11-10 10:28:18.780674
3500  2023-11-10 10:28:18.812646
3501  2023-11-10 10:28:18.844561
3502  2023-11-10 10:28:18.876476
3503  2023-11-10 10:28:18.909388
3504  2023-11-10 10:28:18.941303
3505  2023-11-10 10:28:18.972220
3506  2023-11-10 10:28:19.006129
3507  2023-11-10 10:28:19.037128
3508  2023-11-10 10:28:19.083966
3509  2023-11-10 10:28:19.117918
3510  2023-11-10 10:28:19.149820
3511  2023-11-10 10:28:19.181739
3512  2023-11-10 10:28:19.212686
3513  2023-11-10 10:28:19.244542
3514  2023-11-10 10:28:19.277483
3515  2023-11-10 10:28:19.309403
3516  2023-11-10 10:28:19.342333
3517  2023-11-10 10:28:19.373245
3518  2023-11-10 10:28:19.404142
3519  2023-11-10 10:28:19.436974
3520  2023-11-10 10:28:19.484817
3521  2023-11-10 10:28:19.517760
3522  2023-11-10 10:28:19.549682
3523  2023-11-10 10:28:19.581588
3524  2023-11-10 10:28:19.612499
3525  2023-11-10 10:28:19.644723
3526  2023-11-10 10:28:19.677681
3527  2023-11-10 10:28:19.708602
3528  2023-11-10 10:28:19.741511
3529  2023-11-10 10:28:19.772438
3530  2023-11-10 10:28:19.804347
3531  2023-11-10 10:28:19.837257
3532  2023-11-10 10:28:19.884133
3533  2023-11-10 10:28:19.917042
3534  2023-11-10 10:28:19.948956
3535  2023-11-10 10:28:19.980873
3536  2023-11-10 10:28:20.012786
3537  2023-11-10 10:28:20.044706
3538  2023-11-10 10:28:20.076628
3539  2023-11-10 10:28:20.109528
3540  2023-11-10 10:28:20.141457
3541  2023-11-10 10:28:20.172384
3542  2023-11-10 10:28:20.204288
3543  2023-11-10 10:28:20.237187
3544  2023-11-10 10:28:20.284030
3545  2023-11-10 10:28:20.316972
3546  2023-11-10 10:28:20.348890
3547  2023-11-10 10:28:20.380811
3548  2023-11-10 10:28:20.412687
3549  2023-11-10 10:28:20.444632
3550  2023-11-10 10:28:20.477556
3551  2023-11-10 10:28:20.508467
3552  2023-11-10 10:28:20.541376
3553  2023-11-10 10:28:20.572296
3554  2023-11-10 10:28:20.604208
3555  2023-11-10 10:28:20.637126
3556  2023-11-10 10:28:20.683961
3557  2023-11-10 10:28:20.716905
3558  2023-11-10 10:28:20.748839
3559  2023-11-10 10:28:20.780740
3560  2023-11-10 10:28:20.812653
3561  2023-11-10 10:28:20.844565
