
1  2023-11-01 10:01:40.117642
2  2023-11-01 10:01:40.149602
3  2023-11-01 10:01:40.197475
4  2023-11-01 10:01:40.229389
5  2023-11-01 10:01:40.275267
6  2023-11-01 10:01:40.323151
7  2023-11-01 10:01:40.355090
8  2023-11-01 10:01:40.402995
9  2023-11-01 10:01:40.450939
10  2023-11-01 10:01:40.482969
11  2023-11-01 10:01:40.530780
12  2023-11-01 10:01:40.562695
13  2023-11-01 10:01:40.610621
14  2023-11-01 10:01:40.658437
15  2023-11-01 10:01:40.689355
16  2023-11-01 10:01:40.736209
17  2023-11-01 10:01:40.784073
18  2023-11-01 10:01:40.815996
19  2023-11-01 10:01:40.861907
20  2023-11-01 10:01:40.909779
21  2023-11-01 10:01:40.941725
22  2023-11-01 10:01:40.989734
23  2023-11-01 10:01:41.021649
24  2023-11-01 10:01:41.069563
25  2023-11-01 10:01:41.115399
26  2023-11-01 10:01:41.146316
27  2023-11-01 10:01:41.193190
28  2023-11-01 10:01:41.240065
29  2023-11-01 10:01:41.271020
30  2023-11-01 10:01:41.318883
31  2023-11-01 10:01:41.366727
32  2023-11-01 10:01:41.398641
33  2023-11-01 10:01:41.446513
34  2023-11-01 10:01:41.493805
35  2023-11-01 10:01:41.525721
36  2023-11-01 10:01:41.573535
37  2023-11-01 10:01:41.605550
38  2023-11-01 10:01:41.652408
39  2023-11-01 10:01:41.700249
40  2023-11-01 10:01:41.732195
41  2023-11-01 10:01:41.780163
42  2023-11-01 10:01:41.827633
43  2023-11-01 10:01:41.859548
44  2023-11-01 10:01:41.907467
45  2023-11-01 10:01:41.939365
46  2023-11-01 10:01:41.987207
47  2023-11-01 10:01:42.035115
48  2023-11-01 10:01:42.066994
49  2023-11-01 10:01:42.114898
50  2023-11-01 10:01:42.145828
51  2023-11-01 10:01:42.192658
52  2023-11-01 10:01:42.240579
53  2023-11-01 10:01:42.272490
54  2023-11-01 10:01:42.320502
55  2023-11-01 10:01:42.368520
56  2023-11-01 10:01:42.400415
57  2023-11-01 10:01:42.448298
58  2023-11-01 10:01:42.480287
59  2023-11-01 10:01:42.528126
60  2023-11-01 10:01:42.576058
61  2023-11-01 10:01:42.607948
62  2023-11-01 10:01:42.655803
63  2023-11-01 10:01:42.687718
64  2023-11-01 10:01:42.735636
65  2023-11-01 10:01:42.783596
66  2023-11-01 10:01:42.815833
67  2023-11-01 10:01:42.863477
68  2023-11-01 10:01:42.911433
69  2023-11-01 10:01:42.943346
70  2023-11-01 10:01:42.990383
71  2023-11-01 10:01:43.022298
72  2023-11-01 10:01:43.070207
73  2023-11-01 10:01:43.118042
74  2023-11-01 10:01:43.149957
75  2023-11-01 10:01:43.197829
76  2023-11-01 10:01:43.243708
77  2023-11-01 10:01:43.275621
78  2023-11-01 10:01:43.323493
79  2023-11-01 10:01:43.355408
80  2023-11-01 10:01:43.403321
81  2023-11-01 10:01:43.451152
82  2023-11-01 10:01:43.483140
83  2023-11-01 10:01:43.531014
84  2023-11-01 10:01:43.577857
85  2023-11-01 10:01:43.609815
86  2023-11-01 10:01:43.657682
87  2023-11-01 10:01:43.689590
88  2023-11-01 10:01:43.737431
89  2023-11-01 10:01:43.785366
90  2023-11-01 10:01:43.817273
91  2023-11-01 10:01:43.865146
92  2023-11-01 10:01:43.897060
93  2023-11-01 10:01:43.942937
94  2023-11-01 10:01:43.990855
95  2023-11-01 10:01:44.022758
96  2023-11-01 10:01:44.070596
97  2023-11-01 10:01:44.118264
98  2023-11-01 10:01:44.149146
99  2023-11-01 10:01:44.196076
100  2023-11-01 10:01:44.243164
101  2023-11-01 10:01:44.274066
102  2023-11-01 10:01:44.321902
103  2023-11-01 10:01:44.367780
104  2023-11-01 10:01:44.399699
105  2023-11-01 10:01:44.445738
106  2023-11-01 10:01:44.491674
107  2023-11-01 10:01:44.523589
108  2023-11-01 10:01:44.569466
109  2023-11-01 10:01:44.617338
110  2023-11-01 10:01:44.649253
111  2023-11-01 10:01:44.696128
112  2023-11-01 10:01:44.743002
113  2023-11-01 10:01:44.773975
114  2023-11-01 10:01:44.820829
115  2023-11-01 10:01:44.868752
116  2023-11-01 10:01:44.900628
117  2023-11-01 10:01:44.947490
118  2023-11-01 10:01:44.979371
119  2023-11-01 10:01:45.027243
120  2023-11-01 10:01:45.073907
121  2023-11-01 10:01:45.105764
122  2023-11-01 10:01:45.153675
123  2023-11-01 10:01:45.201531
124  2023-11-01 10:01:45.233442
125  2023-11-01 10:01:45.279344
126  2023-11-01 10:01:45.327216
127  2023-11-01 10:01:45.359131
128  2023-11-01 10:01:45.407118
129  2023-11-01 10:01:45.438994
130  2023-11-01 10:01:45.486899
131  2023-11-01 10:01:45.532764
132  2023-11-01 10:01:45.564678
133  2023-11-01 10:01:45.612553
134  2023-11-01 10:01:45.660422
135  2023-11-01 10:01:45.692337
136  2023-11-01 10:01:45.740209
137  2023-11-01 10:01:45.773122
138  2023-11-01 10:01:45.819996
139  2023-11-01 10:01:45.866871
140  2023-11-01 10:01:45.898955
141  2023-11-01 10:01:45.946658
142  2023-11-01 10:01:45.992535
143  2023-11-01 10:01:46.024450
144  2023-11-01 10:01:46.072322
145  2023-11-01 10:01:46.104236
146  2023-11-01 10:01:46.152250
147  2023-11-01 10:01:46.198261
148  2023-11-01 10:01:46.230174
149  2023-11-01 10:01:46.277038
150  2023-11-01 10:01:46.324026
151  2023-11-01 10:01:46.355945
152  2023-11-01 10:01:46.403823
153  2023-11-01 10:01:46.450689
154  2023-11-01 10:01:46.482604
155  2023-11-01 10:01:46.530475
156  2023-11-01 10:01:46.577350
157  2023-11-01 10:01:46.608272
158  2023-11-01 10:01:46.656143
159  2023-11-01 10:01:46.688064
160  2023-11-01 10:01:46.735922
161  2023-11-01 10:01:46.783753
162  2023-11-01 10:01:46.815733
163  2023-11-01 10:01:46.863539
164  2023-11-01 10:01:46.910440
165  2023-11-01 10:01:46.941333
166  2023-11-01 10:01:46.989203
167  2023-11-01 10:01:47.021187
168  2023-11-01 10:01:47.069085
169  2023-11-01 10:01:47.116990
170  2023-11-01 10:01:47.148918
171  2023-11-01 10:01:47.196774
172  2023-11-01 10:01:47.244616
173  2023-11-01 10:01:47.276567
174  2023-11-01 10:01:47.324403
175  2023-11-01 10:01:47.355321
176  2023-11-01 10:01:47.401199
177  2023-11-01 10:01:47.447076
178  2023-11-01 10:01:47.493951
179  2023-11-01 10:01:47.526007
180  2023-11-01 10:01:47.573863
181  2023-11-01 10:01:47.605778
182  2023-11-01 10:01:47.653754
183  2023-11-01 10:01:47.701626
184  2023-11-01 10:01:47.733538
185  2023-11-01 10:01:47.781601
186  2023-11-01 10:01:47.813554
187  2023-11-01 10:01:47.861435
188  2023-11-01 10:01:47.909349
189  2023-11-01 10:01:47.941292
190  2023-11-01 10:01:47.988177
191  2023-11-01 10:01:48.035014
192  2023-11-01 10:01:48.066975
193  2023-11-01 10:01:48.114930
194  2023-11-01 10:01:48.146833
195  2023-11-01 10:01:48.194706
196  2023-11-01 10:01:48.240596
197  2023-11-01 10:01:48.272474
198  2023-11-01 10:01:48.320388
199  2023-11-01 10:01:48.368240
200  2023-11-01 10:01:48.400123
201  2023-11-01 10:01:48.448036
202  2023-11-01 10:01:48.479951
203  2023-11-01 10:01:48.527780
204  2023-11-01 10:01:48.575653
205  2023-11-01 10:01:48.606778
206  2023-11-01 10:01:48.652638
207  2023-11-01 10:01:48.700510
208  2023-11-01 10:01:48.732425
209  2023-11-01 10:01:48.779402
210  2023-11-01 10:01:48.826244
211  2023-11-01 10:01:48.858159
212  2023-11-01 10:01:48.906031
213  2023-11-01 10:01:48.937946
214  2023-11-01 10:01:48.984937
215  2023-11-01 10:01:49.031695
216  2023-11-01 10:01:49.063610
217  2023-11-01 10:01:49.109488
218  2023-11-01 10:01:49.157308
219  2023-11-01 10:01:49.189220
220  2023-11-01 10:01:49.236189
221  2023-11-01 10:01:49.283051
222  2023-11-01 10:01:49.314969
223  2023-11-01 10:01:49.362811
224  2023-11-01 10:01:49.410749
225  2023-11-01 10:01:49.440650
226  2023-11-01 10:01:49.488487
227  2023-11-01 10:01:49.536411
228  2023-11-01 10:01:49.568306
229  2023-11-01 10:01:49.616192
230  2023-11-01 10:01:49.648061
231  2023-11-01 10:01:49.695979
232  2023-11-01 10:01:49.743845
233  2023-11-01 10:01:49.775763
234  2023-11-01 10:01:49.823592
235  2023-11-01 10:01:49.855507
236  2023-11-01 10:01:49.902382
237  2023-11-01 10:01:49.949256
238  2023-11-01 10:01:49.981171
239  2023-11-01 10:01:50.029043
240  2023-11-01 10:01:50.077048
241  2023-11-01 10:01:50.109074
242  2023-11-01 10:01:50.154985
243  2023-11-01 10:01:50.202880
244  2023-11-01 10:01:50.234794
245  2023-11-01 10:01:50.281669
246  2023-11-01 10:01:50.312587
247  2023-11-01 10:01:50.360474
248  2023-11-01 10:01:50.408331
249  2023-11-01 10:01:50.440246
250  2023-11-01 10:01:50.486123
251  2023-11-01 10:01:50.534078
252  2023-11-01 10:01:50.565977
253  2023-11-01 10:01:50.613847
254  2023-11-01 10:01:50.645783
255  2023-11-01 10:01:50.693732
256  2023-11-01 10:01:50.741678
257  2023-11-01 10:01:50.773568
258  2023-11-01 10:01:50.821460
259  2023-11-01 10:01:50.869341
260  2023-11-01 10:01:50.901246
261  2023-11-01 10:01:50.949090
262  2023-11-01 10:01:50.981124
263  2023-11-01 10:01:51.027980
264  2023-11-01 10:01:51.075852
265  2023-11-01 10:01:51.107766
266  2023-11-01 10:01:51.155769
267  2023-11-01 10:01:51.201616
268  2023-11-01 10:01:51.232612
269  2023-11-01 10:01:51.279465
270  2023-11-01 10:01:51.325334
271  2023-11-01 10:01:51.357247
272  2023-11-01 10:01:51.405164
273  2023-11-01 10:01:51.452990
274  2023-11-01 10:01:51.484905
275  2023-11-01 10:01:51.533776
276  2023-11-01 10:01:51.564693
277  2023-11-01 10:01:51.613722
278  2023-11-01 10:01:51.660734
279  2023-11-01 10:01:51.692648
280  2023-11-01 10:01:51.740521
281  2023-11-01 10:01:51.771442
282  2023-11-01 10:01:51.818343
283  2023-11-01 10:01:51.866184
284  2023-11-01 10:01:51.898169
285  2023-11-01 10:01:51.947054
286  2023-11-01 10:01:51.994015
287  2023-11-01 10:01:52.025949
288  2023-11-01 10:01:52.073975
289  2023-11-01 10:01:52.105769
290  2023-11-01 10:01:52.152611
291  2023-11-01 10:01:52.199485
292  2023-11-01 10:01:52.231400
293  2023-11-01 10:01:52.277297
294  2023-11-01 10:01:52.325219
295  2023-11-01 10:01:52.357134
296  2023-11-01 10:01:52.403058
297  2023-11-01 10:01:52.450935
298  2023-11-01 10:01:52.482839
299  2023-11-01 10:01:52.528745
300  2023-11-01 10:01:52.574665
301  2023-11-01 10:01:52.605541
302  2023-11-01 10:01:52.651472
303  2023-11-01 10:01:52.699290
304  2023-11-01 10:01:52.729210
305  2023-11-01 10:01:52.775087
306  2023-11-01 10:01:52.822959
307  2023-11-01 10:01:52.868836
308  2023-11-01 10:01:52.900751
309  2023-11-01 10:01:52.948668
310  2023-11-01 10:01:52.980571
311  2023-11-01 10:01:53.028410
312  2023-11-01 10:01:53.076388
313  2023-11-01 10:01:53.108351
314  2023-11-01 10:01:53.154240
315  2023-11-01 10:01:53.202101
316  2023-11-01 10:01:53.233985
317  2023-11-01 10:01:53.281916
318  2023-11-01 10:01:53.313831
319  2023-11-01 10:01:53.361755
320  2023-11-01 10:01:53.409675
321  2023-11-01 10:01:53.441588
322  2023-11-01 10:01:53.489459
323  2023-11-01 10:01:53.521374
324  2023-11-01 10:01:53.569231
325  2023-11-01 10:01:53.617118
326  2023-11-01 10:01:53.649021
327  2023-11-01 10:01:53.696906
328  2023-11-01 10:01:53.743775
329  2023-11-01 10:01:53.775680
330  2023-11-01 10:01:53.823571
331  2023-11-01 10:01:53.854483
332  2023-11-01 10:01:53.901350
333  2023-11-01 10:01:53.949217
334  2023-11-01 10:01:53.981104
335  2023-11-01 10:01:54.029019
336  2023-11-01 10:01:54.076885
337  2023-11-01 10:01:54.107762
338  2023-11-01 10:01:54.155633
339  2023-11-01 10:01:54.187711
340  2023-11-01 10:01:54.234586
341  2023-11-01 10:01:54.281461
342  2023-11-01 10:01:54.313375
343  2023-11-01 10:01:54.359253
344  2023-11-01 10:01:54.406265
345  2023-11-01 10:01:54.452189
346  2023-11-01 10:01:54.482106
347  2023-11-01 10:01:54.529079
348  2023-11-01 10:01:54.577016
349  2023-11-01 10:01:54.609099
350  2023-11-01 10:01:54.657115
351  2023-11-01 10:01:54.689253
352  2023-11-01 10:01:54.737127
353  2023-11-01 10:01:54.785000
354  2023-11-01 10:01:54.816907
355  2023-11-01 10:01:54.864791
356  2023-11-01 10:01:54.896704
357  2023-11-01 10:01:54.944573
358  2023-11-01 10:01:54.992399
359  2023-11-01 10:01:55.023362
360  2023-11-01 10:01:55.069399
361  2023-11-01 10:01:55.115271
362  2023-11-01 10:01:55.147381
363  2023-11-01 10:01:55.194203
364  2023-11-01 10:01:55.241080
365  2023-11-01 10:01:55.272598
366  2023-11-01 10:01:55.320470
367  2023-11-01 10:01:55.366348
368  2023-11-01 10:01:55.398262
369  2023-11-01 10:01:55.446134
370  2023-11-01 10:01:55.492012
371  2023-11-01 10:01:55.523926
372  2023-11-01 10:01:55.571847
373  2023-11-01 10:01:55.618722
374  2023-11-01 10:01:55.648646
375  2023-11-01 10:01:55.695514
376  2023-11-01 10:01:55.742375
377  2023-11-01 10:01:55.773398
378  2023-11-01 10:01:55.821280
379  2023-11-01 10:01:55.869099
380  2023-11-01 10:01:55.901059
381  2023-11-01 10:01:55.948918
382  2023-11-01 10:01:55.980983
383  2023-11-01 10:01:56.028969
384  2023-11-01 10:01:56.075870
385  2023-11-01 10:01:56.106772
386  2023-11-01 10:01:56.152638
387  2023-11-01 10:01:56.199519
388  2023-11-01 10:01:56.230430
389  2023-11-01 10:01:56.278302
390  2023-11-01 10:01:56.326174
391  2023-11-01 10:01:56.358089
392  2023-11-01 10:01:56.405961
393  2023-11-01 10:01:56.437876
394  2023-11-01 10:01:56.485801
395  2023-11-01 10:01:56.533620
396  2023-11-01 10:01:56.565535
397  2023-11-01 10:01:56.613407
398  2023-11-01 10:01:56.659455
399  2023-11-01 10:01:56.691370
400  2023-11-01 10:01:56.739275
401  2023-11-01 10:01:56.771203
402  2023-11-01 10:01:56.819029
403  2023-11-01 10:01:56.867023
404  2023-11-01 10:01:56.898815
405  2023-11-01 10:01:56.945724
406  2023-11-01 10:01:56.992614
407  2023-11-01 10:01:57.024511
408  2023-11-01 10:01:57.072399
409  2023-11-01 10:01:57.104313
410  2023-11-01 10:01:57.152170
411  2023-11-01 10:01:57.199056
412  2023-11-01 10:01:57.230076
413  2023-11-01 10:01:57.276839
414  2023-11-01 10:01:57.323729
415  2023-11-01 10:01:57.354627
416  2023-11-01 10:01:57.401472
417  2023-11-01 10:01:57.449378
418  2023-11-01 10:01:57.481264
419  2023-11-01 10:01:57.529133
420  2023-11-01 10:01:57.578004
421  2023-11-01 10:01:57.608918
422  2023-11-01 10:01:57.655794
423  2023-11-01 10:01:57.702668
424  2023-11-01 10:01:57.734583
425  2023-11-01 10:01:57.781845
426  2023-11-01 10:01:57.813760
427  2023-11-01 10:01:57.861729
428  2023-11-01 10:01:57.909504
429  2023-11-01 10:01:57.941386
430  2023-11-01 10:01:57.989307
431  2023-11-01 10:01:58.021221
432  2023-11-01 10:01:58.069093
433  2023-11-01 10:01:58.117002
434  2023-11-01 10:01:58.148927
435  2023-11-01 10:01:58.196900
436  2023-11-01 10:01:58.243824
437  2023-11-01 10:01:58.275737
438  2023-11-01 10:01:58.323561
439  2023-11-01 10:01:58.354479
440  2023-11-01 10:01:58.401408
441  2023-11-01 10:01:58.448268
442  2023-11-01 10:01:58.480180
443  2023-11-01 10:01:58.527161
444  2023-11-01 10:01:58.574081
445  2023-11-01 10:01:58.606007
446  2023-11-01 10:01:58.653952
447  2023-11-01 10:01:58.699915
448  2023-11-01 10:01:58.730850
449  2023-11-01 10:01:58.777685
450  2023-11-01 10:01:58.825550
451  2023-11-01 10:01:58.857465
452  2023-11-01 10:01:58.905393
453  2023-11-01 10:01:58.952211
454  2023-11-01 10:01:58.983128
455  2023-11-01 10:01:59.031000
456  2023-11-01 10:01:59.062915
457  2023-11-01 10:01:59.110787
458  2023-11-01 10:01:59.158659
459  2023-11-01 10:01:59.190663
460  2023-11-01 10:01:59.238555
461  2023-11-01 10:01:59.285830
462  2023-11-01 10:01:59.316753
463  2023-11-01 10:01:59.364574
464  2023-11-01 10:01:59.396489
465  2023-11-01 10:01:59.444407
466  2023-11-01 10:01:59.492233
467  2023-11-01 10:01:59.524148
468  2023-11-01 10:01:59.570078
469  2023-11-01 10:01:59.616943
470  2023-11-01 10:01:59.648864
471  2023-11-01 10:01:59.696687
472  2023-11-01 10:01:59.744594
473  2023-11-01 10:01:59.776509
474  2023-11-01 10:01:59.824392
475  2023-11-01 10:01:59.856292
476  2023-11-01 10:01:59.904179
477  2023-11-01 10:01:59.952192
478  2023-11-01 10:01:59.983955
479  2023-11-01 10:02:00.029844
480  2023-11-01 10:02:00.075674
481  2023-11-01 10:02:00.107649
482  2023-11-01 10:02:00.153526
483  2023-11-01 10:02:00.201338
484  2023-11-01 10:02:00.233286
485  2023-11-01 10:02:00.281161
486  2023-11-01 10:02:00.313207
487  2023-11-01 10:02:00.360912
488  2023-11-01 10:02:00.408785
489  2023-11-01 10:02:00.440700
490  2023-11-01 10:02:00.488570
491  2023-11-01 10:02:00.535445
492  2023-11-01 10:02:00.565530
493  2023-11-01 10:02:00.611409
494  2023-11-01 10:02:00.658283
495  2023-11-01 10:02:00.690197
496  2023-11-01 10:02:00.738117
497  2023-11-01 10:02:00.785941
498  2023-11-01 10:02:00.817856
499  2023-11-01 10:02:00.865728
500  2023-11-01 10:02:00.897643
501  2023-11-01 10:02:00.944550
502  2023-11-01 10:02:00.991438
503  2023-11-01 10:02:01.023338
504  2023-11-01 10:02:01.071180
505  2023-11-01 10:02:01.119099
506  2023-11-01 10:02:01.150997
507  2023-11-01 10:02:01.198873
508  2023-11-01 10:02:01.230804
509  2023-11-01 10:02:01.278653
510  2023-11-01 10:02:01.326544
511  2023-11-01 10:02:01.358453
512  2023-11-01 10:02:01.406318
513  2023-11-01 10:02:01.438232
514  2023-11-01 10:02:01.486119
515  2023-11-01 10:02:01.533974
516  2023-11-01 10:02:01.565889
517  2023-11-01 10:02:01.613775
518  2023-11-01 10:02:01.660604
519  2023-11-01 10:02:01.691556
520  2023-11-01 10:02:01.739393
521  2023-11-01 10:02:01.771339
522  2023-11-01 10:02:01.819215
523  2023-11-01 10:02:01.867098
524  2023-11-01 10:02:01.898967
525  2023-11-01 10:02:01.946873
526  2023-11-01 10:02:01.993748
527  2023-11-01 10:02:02.025676
528  2023-11-01 10:02:02.073502
529  2023-11-01 10:02:02.105431
530  2023-11-01 10:02:02.152291
531  2023-11-01 10:02:02.200162
532  2023-11-01 10:02:02.232081
533  2023-11-01 10:02:02.279950
534  2023-11-01 10:02:02.327821
535  2023-11-01 10:02:02.358738
536  2023-11-01 10:02:02.405613
537  2023-11-01 10:02:02.437528
538  2023-11-01 10:02:02.485431
539  2023-11-01 10:02:02.533272
540  2023-11-01 10:02:02.565187
541  2023-11-01 10:02:02.613091
542  2023-11-01 10:02:02.660931
543  2023-11-01 10:02:02.692846
544  2023-11-01 10:02:02.740765
545  2023-11-01 10:02:02.772681
546  2023-11-01 10:02:02.818510
547  2023-11-01 10:02:02.864417
548  2023-11-01 10:02:02.896402
549  2023-11-01 10:02:02.943285
550  2023-11-01 10:02:02.990235
551  2023-11-01 10:02:03.021759
552  2023-11-01 10:02:03.069698
553  2023-11-01 10:02:03.115543
554  2023-11-01 10:02:03.147458
555  2023-11-01 10:02:03.195374
556  2023-11-01 10:02:03.243202
557  2023-11-01 10:02:03.275119
558  2023-11-01 10:02:03.322989
559  2023-11-01 10:02:03.354904
560  2023-11-01 10:02:03.402912
561  2023-11-01 10:02:03.450652
562  2023-11-01 10:02:03.481598
563  2023-11-01 10:02:03.528438
564  2023-11-01 10:02:03.576357
565  2023-11-01 10:02:03.608290
566  2023-11-01 10:02:03.656129
567  2023-11-01 10:02:03.688361
568  2023-11-01 10:02:03.734109
569  2023-11-01 10:02:03.782120
570  2023-11-01 10:02:03.827997
571  2023-11-01 10:02:03.860033
572  2023-11-01 10:02:03.907905
573  2023-11-01 10:02:03.939866
574  2023-11-01 10:02:03.987692
575  2023-11-01 10:02:04.034567
576  2023-11-01 10:02:04.065484
577  2023-11-01 10:02:04.112359
578  2023-11-01 10:02:04.160262
579  2023-11-01 10:02:04.192188
580  2023-11-01 10:02:04.240020
581  2023-11-01 10:02:04.272001
582  2023-11-01 10:02:04.319839
583  2023-11-01 10:02:04.366689
584  2023-11-01 10:02:04.397642
585  2023-11-01 10:02:04.445470
586  2023-11-01 10:02:04.493341
587  2023-11-01 10:02:04.525268
588  2023-11-01 10:02:04.571415
589  2023-11-01 10:02:04.617201
590  2023-11-01 10:02:04.648268
591  2023-11-01 10:02:04.694053
592  2023-11-01 10:02:04.740928
593  2023-11-01 10:02:04.771880
594  2023-11-01 10:02:04.819718
595  2023-11-01 10:02:04.867590
596  2023-11-01 10:02:04.899504
597  2023-11-01 10:02:04.946418
598  2023-11-01 10:02:04.994251
599  2023-11-01 10:02:05.026166
600  2023-11-01 10:02:05.074080
601  2023-11-01 10:02:05.105985
602  2023-11-01 10:02:05.153825
603  2023-11-01 10:02:05.201809
604  2023-11-01 10:02:05.233819
605  2023-11-01 10:02:05.280736
606  2023-11-01 10:02:05.312644
607  2023-11-01 10:02:05.358519
608  2023-11-01 10:02:05.406410
609  2023-11-01 10:02:05.438305
610  2023-11-01 10:02:05.486305
611  2023-11-01 10:02:05.534051
612  2023-11-01 10:02:05.564934
613  2023-11-01 10:02:05.612850
614  2023-11-01 10:02:05.660712
615  2023-11-01 10:02:05.692593
616  2023-11-01 10:02:05.740502
617  2023-11-01 10:02:05.772379
618  2023-11-01 10:02:05.818290
619  2023-11-01 10:02:05.866224
620  2023-11-01 10:02:05.898174
621  2023-11-01 10:02:05.946045
622  2023-11-01 10:02:05.993919
623  2023-11-01 10:02:06.025849
624  2023-11-01 10:02:06.073720
625  2023-11-01 10:02:06.104640
626  2023-11-01 10:02:06.150532
627  2023-11-01 10:02:06.198340
628  2023-11-01 10:02:06.230258
629  2023-11-01 10:02:06.276163
630  2023-11-01 10:02:06.323007
631  2023-11-01 10:02:06.368913
632  2023-11-01 10:02:06.399837
633  2023-11-01 10:02:06.447691
634  2023-11-01 10:02:06.479807
635  2023-11-01 10:02:06.527561
636  2023-11-01 10:02:06.573699
637  2023-11-01 10:02:06.605614
638  2023-11-01 10:02:06.652540
639  2023-11-01 10:02:06.699411
640  2023-11-01 10:02:06.731278
641  2023-11-01 10:02:06.779153
642  2023-11-01 10:02:06.827054
643  2023-11-01 10:02:06.857015
644  2023-11-01 10:02:06.904863
645  2023-11-01 10:02:06.951738
646  2023-11-01 10:02:06.983652
647  2023-11-01 10:02:07.030532
648  2023-11-01 10:02:07.062436
649  2023-11-01 10:02:07.110317
650  2023-11-01 10:02:07.158137
651  2023-11-01 10:02:07.190052
652  2023-11-01 10:02:07.237924
653  2023-11-01 10:02:07.285841
654  2023-11-01 10:02:07.317743
655  2023-11-01 10:02:07.363588
656  2023-11-01 10:02:07.410495
657  2023-11-01 10:02:07.442410
658  2023-11-01 10:02:07.490250
659  2023-11-01 10:02:07.521344
660  2023-11-01 10:02:07.568073
661  2023-11-01 10:02:07.613946
662  2023-11-01 10:02:07.645869
663  2023-11-01 10:02:07.693708
664  2023-11-01 10:02:07.741578
665  2023-11-01 10:02:07.773584
666  2023-11-01 10:02:07.821460
667  2023-11-01 10:02:07.870294
668  2023-11-01 10:02:07.901212
669  2023-11-01 10:02:07.949116
670  2023-11-01 10:02:07.981030
671  2023-11-01 10:02:08.028870
672  2023-11-01 10:02:08.076744
673  2023-11-01 10:02:08.108659
674  2023-11-01 10:02:08.156562
675  2023-11-01 10:02:08.188475
676  2023-11-01 10:02:08.236318
677  2023-11-01 10:02:08.284221
678  2023-11-01 10:02:08.316152
679  2023-11-01 10:02:08.363976
680  2023-11-01 10:02:08.395891
681  2023-11-01 10:02:08.443764
682  2023-11-01 10:02:08.491674
683  2023-11-01 10:02:08.523571
684  2023-11-01 10:02:08.571560
685  2023-11-01 10:02:08.617353
686  2023-11-01 10:02:08.649272
687  2023-11-01 10:02:08.697118
688  2023-11-01 10:02:08.744010
689  2023-11-01 10:02:08.775907
690  2023-11-01 10:02:08.823777
691  2023-11-01 10:02:08.855722
692  2023-11-01 10:02:08.903569
693  2023-11-01 10:02:08.950455
694  2023-11-01 10:02:08.981359
695  2023-11-01 10:02:09.029199
696  2023-11-01 10:02:09.077101
697  2023-11-01 10:02:09.109016
698  2023-11-01 10:02:09.156887
699  2023-11-01 10:02:09.188804
700  2023-11-01 10:02:09.236700
701  2023-11-01 10:02:09.285513
702  2023-11-01 10:02:09.316432
703  2023-11-01 10:02:09.363306
704  2023-11-01 10:02:09.409214
705  2023-11-01 10:02:09.440151
706  2023-11-01 10:02:09.487005
707  2023-11-01 10:02:09.534847
708  2023-11-01 10:02:09.567804
709  2023-11-01 10:02:09.614681
710  2023-11-01 10:02:09.646581
711  2023-11-01 10:02:09.692471
712  2023-11-01 10:02:09.740298
713  2023-11-01 10:02:09.772213
714  2023-11-01 10:02:09.820128
715  2023-11-01 10:02:09.867957
716  2023-11-01 10:02:09.899872
717  2023-11-01 10:02:09.947743
718  2023-11-01 10:02:09.994619
719  2023-11-01 10:02:10.025569
720  2023-11-01 10:02:10.072411
721  2023-11-01 10:02:10.118321
722  2023-11-01 10:02:10.150232
723  2023-11-01 10:02:10.198118
724  2023-11-01 10:02:10.230023
725  2023-11-01 10:02:10.275955
726  2023-11-01 10:02:10.322742
727  2023-11-01 10:02:10.369648
728  2023-11-01 10:02:10.400568
729  2023-11-01 10:02:10.448445
730  2023-11-01 10:02:10.480351
731  2023-11-01 10:02:10.528225
732  2023-11-01 10:02:10.576065
733  2023-11-01 10:02:10.608011
734  2023-11-01 10:02:10.655885
735  2023-11-01 10:02:10.703757
736  2023-11-01 10:02:10.733848
737  2023-11-01 10:02:10.780721
738  2023-11-01 10:02:10.812635
739  2023-11-01 10:02:10.860522
740  2023-11-01 10:02:10.908347
741  2023-11-01 10:02:10.940262
742  2023-11-01 10:02:10.988167
743  2023-11-01 10:02:11.036006
744  2023-11-01 10:02:11.067921
745  2023-11-01 10:02:11.115833
746  2023-11-01 10:02:11.147709
747  2023-11-01 10:02:11.195579
748  2023-11-01 10:02:11.243451
749  2023-11-01 10:02:11.274369
750  2023-11-01 10:02:11.321301
751  2023-11-01 10:02:11.369161
752  2023-11-01 10:02:11.401030
753  2023-11-01 10:02:11.448937
754  2023-11-01 10:02:11.479860
755  2023-11-01 10:02:11.526728
756  2023-11-01 10:02:11.574616
757  2023-11-01 10:02:11.606513
758  2023-11-01 10:02:11.653554
759  2023-11-01 10:02:11.700231
760  2023-11-01 10:02:11.732189
761  2023-11-01 10:02:11.779021
762  2023-11-01 10:02:11.825895
763  2023-11-01 10:02:11.857906
764  2023-11-01 10:02:11.905717
765  2023-11-01 10:02:11.937634
766  2023-11-01 10:02:11.985502
767  2023-11-01 10:02:12.032343
768  2023-11-01 10:02:12.064290
769  2023-11-01 10:02:12.112167
770  2023-11-01 10:02:12.160035
771  2023-11-01 10:02:12.191952
772  2023-11-01 10:02:12.239872
773  2023-11-01 10:02:12.271740
774  2023-11-01 10:02:12.319608
775  2023-11-01 10:02:12.367448
776  2023-11-01 10:02:12.399413
777  2023-11-01 10:02:12.447266
778  2023-11-01 10:02:12.480150
779  2023-11-01 10:02:12.527054
780  2023-11-01 10:02:12.574894
781  2023-11-01 10:02:12.606813
782  2023-11-01 10:02:12.654712
783  2023-11-01 10:02:12.702603
784  2023-11-01 10:02:12.734502
785  2023-11-01 10:02:12.781376
786  2023-11-01 10:02:12.813286
787  2023-11-01 10:02:12.861161
788  2023-11-01 10:02:12.909002
789  2023-11-01 10:02:12.940916
790  2023-11-01 10:02:12.988823
791  2023-11-01 10:02:13.020735
792  2023-11-01 10:02:13.068574
793  2023-11-01 10:02:13.115449
794  2023-11-01 10:02:13.147395
795  2023-11-01 10:02:13.195236
796  2023-11-01 10:02:13.243108
797  2023-11-01 10:02:13.275022
798  2023-11-01 10:02:13.322947
799  2023-11-01 10:02:13.354924
800  2023-11-01 10:02:13.402768
801  2023-11-01 10:02:13.450674
802  2023-11-01 10:02:13.482556
803  2023-11-01 10:02:13.530427
804  2023-11-01 10:02:13.577329
805  2023-11-01 10:02:13.608292
806  2023-11-01 10:02:13.656158
807  2023-11-01 10:02:13.688038
808  2023-11-01 10:02:13.735912
809  2023-11-01 10:02:13.780793
810  2023-11-01 10:02:13.827666
811  2023-11-01 10:02:13.859583
812  2023-11-01 10:02:13.906469
813  2023-11-01 10:02:13.938381
814  2023-11-01 10:02:13.986250
815  2023-11-01 10:02:14.034114
816  2023-11-01 10:02:14.065997
817  2023-11-01 10:02:14.112897
818  2023-11-01 10:02:14.159778
819  2023-11-01 10:02:14.191701
820  2023-11-01 10:02:14.239567
821  2023-11-01 10:02:14.271564
822  2023-11-01 10:02:14.319351
823  2023-11-01 10:02:14.367193
824  2023-11-01 10:02:14.397141
825  2023-11-01 10:02:14.444983
826  2023-11-01 10:02:14.492901
827  2023-11-01 10:02:14.524802
828  2023-11-01 10:02:14.572642
829  2023-11-01 10:02:14.605555
830  2023-11-01 10:02:14.651464
831  2023-11-01 10:02:14.699304
832  2023-11-01 10:02:14.731218
833  2023-11-01 10:02:14.778119
834  2023-11-01 10:02:14.823970
835  2023-11-01 10:02:14.854955
836  2023-11-01 10:02:14.902794
837  2023-11-01 10:02:14.948687
838  2023-11-01 10:02:14.980584
839  2023-11-01 10:02:15.028457
840  2023-11-01 10:02:15.076330
841  2023-11-01 10:02:15.108256
842  2023-11-01 10:02:15.156114
843  2023-11-01 10:02:15.188031
844  2023-11-01 10:02:15.235917
845  2023-11-01 10:02:15.283789
846  2023-11-01 10:02:15.315694
847  2023-11-01 10:02:15.362562
848  2023-11-01 10:02:15.410435
849  2023-11-01 10:02:15.442349
850  2023-11-01 10:02:15.490238
851  2023-11-01 10:02:15.522136
852  2023-11-01 10:02:15.570012
853  2023-11-01 10:02:15.617902
854  2023-11-01 10:02:15.649834
855  2023-11-01 10:02:15.697663
856  2023-11-01 10:02:15.729628
857  2023-11-01 10:02:15.777465
858  2023-11-01 10:02:15.825325
859  2023-11-01 10:02:15.857261
860  2023-11-01 10:02:15.905111
861  2023-11-01 10:02:15.951990
862  2023-11-01 10:02:15.982907
863  2023-11-01 10:02:16.030779
864  2023-11-01 10:02:16.062693
865  2023-11-01 10:02:16.110566
866  2023-11-01 10:02:16.158436
867  2023-11-01 10:02:16.190350
868  2023-11-01 10:02:16.238191
869  2023-11-01 10:02:16.286174
870  2023-11-01 10:02:16.318153
871  2023-11-01 10:02:16.366028
872  2023-11-01 10:02:16.397941
873  2023-11-01 10:02:16.445813
874  2023-11-01 10:02:16.493700
875  2023-11-01 10:02:16.525613
876  2023-11-01 10:02:16.573440
877  2023-11-01 10:02:16.606355
878  2023-11-01 10:02:16.652264
879  2023-11-01 10:02:16.700101
880  2023-11-01 10:02:16.732016
881  2023-11-01 10:02:16.779922
882  2023-11-01 10:02:16.827793
883  2023-11-01 10:02:16.859675
884  2023-11-01 10:02:16.907703
885  2023-11-01 10:02:16.939622
886  2023-11-01 10:02:16.987522
887  2023-11-01 10:02:17.035369
888  2023-11-01 10:02:17.067277
889  2023-11-01 10:02:17.115181
890  2023-11-01 10:02:17.147104
891  2023-11-01 10:02:17.194936
892  2023-11-01 10:02:17.242808
893  2023-11-01 10:02:17.274722
894  2023-11-01 10:02:17.320759
895  2023-11-01 10:02:17.366552
896  2023-11-01 10:02:17.398449
897  2023-11-01 10:02:17.446322
898  2023-11-01 10:02:17.494174
899  2023-11-01 10:02:17.526245
900  2023-11-01 10:02:17.571978
901  2023-11-01 10:02:17.618848
902  2023-11-01 10:02:17.650753
903  2023-11-01 10:02:17.698623
904  2023-11-01 10:02:17.730539
905  2023-11-01 10:02:17.778423
906  2023-11-01 10:02:17.826294
907  2023-11-01 10:02:17.858387
908  2023-11-01 10:02:17.906273
909  2023-11-01 10:02:17.938195
910  2023-11-01 10:02:17.986061
911  2023-11-01 10:02:18.033935
912  2023-11-01 10:02:18.065833
913  2023-11-01 10:02:18.113732
914  2023-11-01 10:02:18.160610
915  2023-11-01 10:02:18.191496
916  2023-11-01 10:02:18.240404
917  2023-11-01 10:02:18.272320
918  2023-11-01 10:02:18.318233
919  2023-11-01 10:02:18.365167
920  2023-11-01 10:02:18.397116
921  2023-11-01 10:02:18.444954
922  2023-11-01 10:02:18.492861
923  2023-11-01 10:02:18.524776
924  2023-11-01 10:02:18.572612
925  2023-11-01 10:02:18.604526
926  2023-11-01 10:02:18.650441
927  2023-11-01 10:02:18.698277
928  2023-11-01 10:02:18.744155
929  2023-11-01 10:02:18.776069
930  2023-11-01 10:02:18.823942
931  2023-11-01 10:02:18.855860
932  2023-11-01 10:02:18.901779
933  2023-11-01 10:02:18.949649
934  2023-11-01 10:02:18.981563
935  2023-11-01 10:02:19.029422
936  2023-11-01 10:02:19.077295
937  2023-11-01 10:02:19.109252
938  2023-11-01 10:02:19.157082
939  2023-11-01 10:02:19.189010
940  2023-11-01 10:02:19.236885
941  2023-11-01 10:02:19.283760
942  2023-11-01 10:02:19.314676
943  2023-11-01 10:02:19.362532
944  2023-11-01 10:02:19.410408
945  2023-11-01 10:02:19.442317
946  2023-11-01 10:02:19.490191
947  2023-11-01 10:02:19.522105
948  2023-11-01 10:02:19.569978
949  2023-11-01 10:02:19.617868
950  2023-11-01 10:02:19.649764
951  2023-11-01 10:02:19.695669
952  2023-11-01 10:02:19.743486
953  2023-11-01 10:02:19.774402
954  2023-11-01 10:02:19.820324
955  2023-11-01 10:02:19.867154
956  2023-11-01 10:02:19.899171
957  2023-11-01 10:02:19.945106
958  2023-11-01 10:02:19.990982
959  2023-11-01 10:02:20.022897
960  2023-11-01 10:02:20.069666
961  2023-11-01 10:02:20.116625
962  2023-11-01 10:02:20.148519
963  2023-11-01 10:02:20.196390
964  2023-11-01 10:02:20.242288
965  2023-11-01 10:02:20.274200
966  2023-11-01 10:02:20.322059
967  2023-11-01 10:02:20.368948
968  2023-11-01 10:02:20.399873
969  2023-11-01 10:02:20.445724
970  2023-11-01 10:02:20.493596
971  2023-11-01 10:02:20.525480
972  2023-11-01 10:02:20.573352
973  2023-11-01 10:02:20.605267
974  2023-11-01 10:02:20.653170
975  2023-11-01 10:02:20.700014
976  2023-11-01 10:02:20.731928
977  2023-11-01 10:02:20.779967
978  2023-11-01 10:02:20.827890
979  2023-11-01 10:02:20.859755
980  2023-11-01 10:02:20.907625
981  2023-11-01 10:02:20.939540
982  2023-11-01 10:02:20.987426
983  2023-11-01 10:02:21.035284
984  2023-11-01 10:02:21.067199
985  2023-11-01 10:02:21.115112
986  2023-11-01 10:02:21.147020
987  2023-11-01 10:02:21.193861
988  2023-11-01 10:02:21.240735
989  2023-11-01 10:02:21.272650
990  2023-11-01 10:02:21.320555
991  2023-11-01 10:02:21.368394
992  2023-11-01 10:02:21.400469
993  2023-11-01 10:02:21.448187
994  2023-11-01 10:02:21.479098
995  2023-11-01 10:02:21.526970
996  2023-11-01 10:02:21.574855
997  2023-11-01 10:02:21.606757
998  2023-11-01 10:02:21.652684
999  2023-11-01 10:02:21.698546
1000  2023-11-01 10:02:21.730460
1001  2023-11-01 10:02:21.778330
1002  2023-11-01 10:02:21.824223
1003  2023-11-01 10:02:21.856137
1004  2023-11-01 10:02:21.903970
1005  2023-11-01 10:02:21.951969
1006  2023-11-01 10:02:21.983796
1007  2023-11-01 10:02:22.031675
1008  2023-11-01 10:02:22.063590
1009  2023-11-01 10:02:22.112434
1010  2023-11-01 10:02:22.159327
1011  2023-11-01 10:02:22.191278
1012  2023-11-01 10:02:22.239077
1013  2023-11-01 10:02:22.284997
1014  2023-11-01 10:02:22.315899
1015  2023-11-01 10:02:22.363774
1016  2023-11-01 10:02:22.410609
1017  2023-11-01 10:02:22.441526
1018  2023-11-01 10:02:22.488401
1019  2023-11-01 10:02:22.536273
1020  2023-11-01 10:02:22.567190
1021  2023-11-01 10:02:22.614111
1022  2023-11-01 10:02:22.645980
1023  2023-11-01 10:02:22.693852
1024  2023-11-01 10:02:22.739761
1025  2023-11-01 10:02:22.771756
1026  2023-11-01 10:02:22.819551
1027  2023-11-01 10:02:22.867428
1028  2023-11-01 10:02:22.899338
1029  2023-11-01 10:02:22.947222
1030  2023-11-01 10:02:22.993103
1031  2023-11-01 10:02:23.025007
1032  2023-11-01 10:02:23.072883
1033  2023-11-01 10:02:23.104808
1034  2023-11-01 10:02:23.152677
1035  2023-11-01 10:02:23.200543
1036  2023-11-01 10:02:23.232458
1037  2023-11-01 10:02:23.280286
1038  2023-11-01 10:02:23.327208
1039  2023-11-01 10:02:23.358123
1040  2023-11-01 10:02:23.405982
1041  2023-11-01 10:02:23.437925
1042  2023-11-01 10:02:23.485738
1043  2023-11-01 10:02:23.533656
1044  2023-11-01 10:02:23.565553
1045  2023-11-01 10:02:23.613427
1046  2023-11-01 10:02:23.661297
1047  2023-11-01 10:02:23.693241
1048  2023-11-01 10:02:23.741054
1049  2023-11-01 10:02:23.774032
1050  2023-11-01 10:02:23.819878
1051  2023-11-01 10:02:23.867715
1052  2023-11-01 10:02:23.899630
1053  2023-11-01 10:02:23.945507
1054  2023-11-01 10:02:23.993439
1055  2023-11-01 10:02:24.025382
1056  2023-11-01 10:02:24.073273
1057  2023-11-01 10:02:24.104191
1058  2023-11-01 10:02:24.151112
1059  2023-11-01 10:02:24.198984
1060  2023-11-01 10:02:24.230899
1061  2023-11-01 10:02:24.278771
1062  2023-11-01 10:02:24.326643
1063  2023-11-01 10:02:24.356563
1064  2023-11-01 10:02:24.404483
1065  2023-11-01 10:02:24.452338
1066  2023-11-01 10:02:24.484274
1067  2023-11-01 10:02:24.530146
1068  2023-11-01 10:02:24.577009
1069  2023-11-01 10:02:24.608896
1070  2023-11-01 10:02:24.655877
1071  2023-11-01 10:02:24.687881
1072  2023-11-01 10:02:24.735748
1073  2023-11-01 10:02:24.783631
1074  2023-11-01 10:02:24.815547
1075  2023-11-01 10:02:24.862421
1076  2023-11-01 10:02:24.909315
1077  2023-11-01 10:02:24.942199
1078  2023-11-01 10:02:24.989063
1079  2023-11-01 10:02:25.020952
1080  2023-11-01 10:02:25.066938
1081  2023-11-01 10:02:25.114810
1082  2023-11-01 10:02:25.146725
1083  2023-11-01 10:02:25.194632
1084  2023-11-01 10:02:25.242469
1085  2023-11-01 10:02:25.272389
1086  2023-11-01 10:02:25.318266
1087  2023-11-01 10:02:25.366138
1088  2023-11-01 10:02:25.398053
1089  2023-11-01 10:02:25.445957
1090  2023-11-01 10:02:25.494092
1091  2023-11-01 10:02:25.524944
1092  2023-11-01 10:02:25.571869
1093  2023-11-01 10:02:25.618729
1094  2023-11-01 10:02:25.649790
1095  2023-11-01 10:02:25.697652
1096  2023-11-01 10:02:25.729577
1097  2023-11-01 10:02:25.777611
1098  2023-11-01 10:02:25.825478
1099  2023-11-01 10:02:25.856379
1100  2023-11-01 10:02:25.904222
1101  2023-11-01 10:02:25.952142
1102  2023-11-01 10:02:25.984052
1103  2023-11-01 10:02:26.031929
1104  2023-11-01 10:02:26.063835
1105  2023-11-01 10:02:26.111667
1106  2023-11-01 10:02:26.159588
1107  2023-11-01 10:02:26.191489
1108  2023-11-01 10:02:26.239326
1109  2023-11-01 10:02:26.271240
1110  2023-11-01 10:02:26.319148
1111  2023-11-01 10:02:26.367018
1112  2023-11-01 10:02:26.398899
1113  2023-11-01 10:02:26.447767
1114  2023-11-01 10:02:26.494687
1115  2023-11-01 10:02:26.526612
1116  2023-11-01 10:02:26.574472
1117  2023-11-01 10:02:26.606394
1118  2023-11-01 10:02:26.653219
1119  2023-11-01 10:02:26.701123
1120  2023-11-01 10:02:26.730043
1121  2023-11-01 10:02:26.777884
1122  2023-11-01 10:02:26.824759
1123  2023-11-01 10:02:26.855676
1124  2023-11-01 10:02:26.903548
1125  2023-11-01 10:02:26.951420
1126  2023-11-01 10:02:26.981372
1127  2023-11-01 10:02:27.029212
1128  2023-11-01 10:02:27.076125
1129  2023-11-01 10:02:27.108068
1130  2023-11-01 10:02:27.155953
1131  2023-11-01 10:02:27.187884
1132  2023-11-01 10:02:27.235756
1133  2023-11-01 10:02:27.281679
1134  2023-11-01 10:02:27.313591
1135  2023-11-01 10:02:27.361452
1136  2023-11-01 10:02:27.409323
1137  2023-11-01 10:02:27.441242
1138  2023-11-01 10:02:27.489123
1139  2023-11-01 10:02:27.521027
1140  2023-11-01 10:02:27.568868
1141  2023-11-01 10:02:27.616785
1142  2023-11-01 10:02:27.648700
1143  2023-11-01 10:02:27.696576
1144  2023-11-01 10:02:27.744429
1145  2023-11-01 10:02:27.776481
1146  2023-11-01 10:02:27.824351
1147  2023-11-01 10:02:27.856269
1148  2023-11-01 10:02:27.904100
1149  2023-11-01 10:02:27.951964
1150  2023-11-01 10:02:27.983879
1151  2023-11-01 10:02:28.031785
1152  2023-11-01 10:02:28.063714
1153  2023-11-01 10:02:28.111579
1154  2023-11-01 10:02:28.159450
1155  2023-11-01 10:02:28.191375
1156  2023-11-01 10:02:28.239327
1157  2023-11-01 10:02:28.271114
1158  2023-11-01 10:02:28.319029
1159  2023-11-01 10:02:28.366897
1160  2023-11-01 10:02:28.398805
1161  2023-11-01 10:02:28.446675
1162  2023-11-01 10:02:28.494560
1163  2023-11-01 10:02:28.526470
1164  2023-11-01 10:02:28.574334
1165  2023-11-01 10:02:28.606250
1166  2023-11-01 10:02:28.654121
1167  2023-11-01 10:02:28.701993
1168  2023-11-01 10:02:28.733907
1169  2023-11-01 10:02:28.781746
1170  2023-11-01 10:02:28.813707
1171  2023-11-01 10:02:28.861581
1172  2023-11-01 10:02:28.909461
1173  2023-11-01 10:02:28.941362
1174  2023-11-01 10:02:28.989225
1175  2023-11-01 10:02:29.021148
1176  2023-11-01 10:02:29.068044
1177  2023-11-01 10:02:29.115902
1178  2023-11-01 10:02:29.147920
1179  2023-11-01 10:02:29.195837
1180  2023-11-01 10:02:29.243704
1181  2023-11-01 10:02:29.275616
1182  2023-11-01 10:02:29.322486
1183  2023-11-01 10:02:29.355432
1184  2023-11-01 10:02:29.400380
1185  2023-11-01 10:02:29.446337
1186  2023-11-01 10:02:29.492236
1187  2023-11-01 10:02:29.524150
1188  2023-11-01 10:02:29.572078
1189  2023-11-01 10:02:29.618897
1190  2023-11-01 10:02:29.649891
1191  2023-11-01 10:02:29.697816
1192  2023-11-01 10:02:29.729731
1193  2023-11-01 10:02:29.777603
1194  2023-11-01 10:02:29.825488
1195  2023-11-01 10:02:29.856394
1196  2023-11-01 10:02:29.903234
1197  2023-11-01 10:02:29.951151
1198  2023-11-01 10:02:29.983069
1199  2023-11-01 10:02:30.030926
1200  2023-11-01 10:02:30.062840
1201  2023-11-01 10:02:30.110701
1202  2023-11-01 10:02:30.157584
1203  2023-11-01 10:02:30.189627
1204  2023-11-01 10:02:30.237342
1205  2023-11-01 10:02:30.285259
1206  2023-11-01 10:02:30.317158
1207  2023-11-01 10:02:30.365034
1208  2023-11-01 10:02:30.396968
1209  2023-11-01 10:02:30.444820
1210  2023-11-01 10:02:30.492703
1211  2023-11-01 10:02:30.524607
1212  2023-11-01 10:02:30.572479
1213  2023-11-01 10:02:30.604411
1214  2023-11-01 10:02:30.652239
1215  2023-11-01 10:02:30.700140
1216  2023-11-01 10:02:30.732073
1217  2023-11-01 10:02:30.778930
1218  2023-11-01 10:02:30.826801
1219  2023-11-01 10:02:30.858717
1220  2023-11-01 10:02:30.905586
1221  2023-11-01 10:02:30.953428
1222  2023-11-01 10:02:30.984344
1223  2023-11-01 10:02:31.032305
1224  2023-11-01 10:02:31.064220
1225  2023-11-01 10:02:31.112092
1226  2023-11-01 10:02:31.159964
1227  2023-11-01 10:02:31.191878
1228  2023-11-01 10:02:31.239751
1229  2023-11-01 10:02:31.271665
1230  2023-11-01 10:02:31.319537
1231  2023-11-01 10:02:31.367483
1232  2023-11-01 10:02:31.399398
1233  2023-11-01 10:02:31.447270
1234  2023-11-01 10:02:31.494145
1235  2023-11-01 10:02:31.525062
1236  2023-11-01 10:02:31.572981
1237  2023-11-01 10:02:31.604901
1238  2023-11-01 10:02:31.652770
1239  2023-11-01 10:02:31.698598
1240  2023-11-01 10:02:31.730513
1241  2023-11-01 10:02:31.778433
1242  2023-11-01 10:02:31.826257
1243  2023-11-01 10:02:31.858172
1244  2023-11-01 10:02:31.906097
1245  2023-11-01 10:02:31.938007
1246  2023-11-01 10:02:31.985831
1247  2023-11-01 10:02:32.033947
1248  2023-11-01 10:02:32.065846
1249  2023-11-01 10:02:32.113731
1250  2023-11-01 10:02:32.145719
1251  2023-11-01 10:02:32.192585
1252  2023-11-01 10:02:32.239541
1253  2023-11-01 10:02:32.271456
1254  2023-11-01 10:02:32.319372
1255  2023-11-01 10:02:32.367232
1256  2023-11-01 10:02:32.398129
1257  2023-11-01 10:02:32.445030
1258  2023-11-01 10:02:32.492928
1259  2023-11-01 10:02:32.524778
1260  2023-11-01 10:02:32.570746
1261  2023-11-01 10:02:32.618601
1262  2023-11-01 10:02:32.650482
1263  2023-11-01 10:02:32.698386
1264  2023-11-01 10:02:32.744231
1265  2023-11-01 10:02:32.775149
1266  2023-11-01 10:02:32.822023
1267  2023-11-01 10:02:32.868898
1268  2023-11-01 10:02:32.899816
1269  2023-11-01 10:02:32.947723
1270  2023-11-01 10:02:32.979640
1271  2023-11-01 10:02:33.027474
1272  2023-11-01 10:02:33.075378
1273  2023-11-01 10:02:33.107296
1274  2023-11-01 10:02:33.155133
1275  2023-11-01 10:02:33.202059
1276  2023-11-01 10:02:33.232970
1277  2023-11-01 10:02:33.279812
1278  2023-11-01 10:02:33.326718
1279  2023-11-01 10:02:33.358638
1280  2023-11-01 10:02:33.406496
1281  2023-11-01 10:02:33.439375
1282  2023-11-01 10:02:33.486297
1283  2023-11-01 10:02:33.534154
1284  2023-11-01 10:02:33.566066
1285  2023-11-01 10:02:33.613939
1286  2023-11-01 10:02:33.660830
1287  2023-11-01 10:02:33.692698
1288  2023-11-01 10:02:33.741568
1289  2023-11-01 10:02:33.772518
1290  2023-11-01 10:02:33.820389
1291  2023-11-01 10:02:33.869227
1292  2023-11-01 10:02:33.901140
1293  2023-11-01 10:02:33.947048
1294  2023-11-01 10:02:33.993926
1295  2023-11-01 10:02:34.024886
1296  2023-11-01 10:02:34.072755
1297  2023-11-01 10:02:34.104596
1298  2023-11-01 10:02:34.153528
1299  2023-11-01 10:02:34.200340
1300  2023-11-01 10:02:34.233283
1301  2023-11-01 10:02:34.281167
1302  2023-11-01 10:02:34.328044
1303  2023-11-01 10:02:34.359948
1304  2023-11-01 10:02:34.407818
1305  2023-11-01 10:02:34.439911
1306  2023-11-01 10:02:34.487772
1307  2023-11-01 10:02:34.534588
1308  2023-11-01 10:02:34.564508
1309  2023-11-01 10:02:34.612416
1310  2023-11-01 10:02:34.660252
1311  2023-11-01 10:02:34.692167
1312  2023-11-01 10:02:34.740085
1313  2023-11-01 10:02:34.772002
1314  2023-11-01 10:02:34.817831
1315  2023-11-01 10:02:34.864739
1316  2023-11-01 10:02:34.895730
1317  2023-11-01 10:02:34.942623
1318  2023-11-01 10:02:34.990500
1319  2023-11-01 10:02:35.022402
1320  2023-11-01 10:02:35.070263
1321  2023-11-01 10:02:35.118135
1322  2023-11-01 10:02:35.150051
1323  2023-11-01 10:02:35.197923
1324  2023-11-01 10:02:35.229840
1325  2023-11-01 10:02:35.277717
1326  2023-11-01 10:02:35.325581
1327  2023-11-01 10:02:35.357669
1328  2023-11-01 10:02:35.404339
1329  2023-11-01 10:02:35.452267
1330  2023-11-01 10:02:35.484162
1331  2023-11-01 10:02:35.532022
1332  2023-11-01 10:02:35.563939
1333  2023-11-01 10:02:35.610820
1334  2023-11-01 10:02:35.657739
1335  2023-11-01 10:02:35.689584
1336  2023-11-01 10:02:35.737481
1337  2023-11-01 10:02:35.785375
1338  2023-11-01 10:02:35.817276
1339  2023-11-01 10:02:35.865108
1340  2023-11-01 10:02:35.896058
1341  2023-11-01 10:02:35.943934
1342  2023-11-01 10:02:35.990804
1343  2023-11-01 10:02:36.022688
1344  2023-11-01 10:02:36.070560
1345  2023-11-01 10:02:36.118432
1346  2023-11-01 10:02:36.150347
1347  2023-11-01 10:02:36.197220
1348  2023-11-01 10:02:36.229135
1349  2023-11-01 10:02:36.276048
1350  2023-11-01 10:02:36.323882
1351  2023-11-01 10:02:36.355843
1352  2023-11-01 10:02:36.403907
1353  2023-11-01 10:02:36.451621
1354  2023-11-01 10:02:36.483534
1355  2023-11-01 10:02:36.531374
1356  2023-11-01 10:02:36.563289
1357  2023-11-01 10:02:36.611191
1358  2023-11-01 10:02:36.659033
1359  2023-11-01 10:02:36.689950
1360  2023-11-01 10:02:36.737872
1361  2023-11-01 10:02:36.785694
1362  2023-11-01 10:02:36.817609
1363  2023-11-01 10:02:36.865513
1364  2023-11-01 10:02:36.897426
1365  2023-11-01 10:02:36.944317
1366  2023-11-01 10:02:36.991176
1367  2023-11-01 10:02:37.023060
1368  2023-11-01 10:02:37.071931
1369  2023-11-01 10:02:37.116841
1370  2023-11-01 10:02:37.148759
1371  2023-11-01 10:02:37.196655
1372  2023-11-01 10:02:37.244469
1373  2023-11-01 10:02:37.276436
1374  2023-11-01 10:02:37.324292
1375  2023-11-01 10:02:37.356171
1376  2023-11-01 10:02:37.402047
1377  2023-11-01 10:02:37.449951
1378  2023-11-01 10:02:37.481867
1379  2023-11-01 10:02:37.529760
1380  2023-11-01 10:02:37.577626
1381  2023-11-01 10:02:37.609525
1382  2023-11-01 10:02:37.656421
1383  2023-11-01 10:02:37.702278
1384  2023-11-01 10:02:37.734201
1385  2023-11-01 10:02:37.780083
1386  2023-11-01 10:02:37.827076
1387  2023-11-01 10:02:37.857966
1388  2023-11-01 10:02:37.905821
1389  2023-11-01 10:02:37.937741
1390  2023-11-01 10:02:37.984570
1391  2023-11-01 10:02:38.032497
1392  2023-11-01 10:02:38.064387
1393  2023-11-01 10:02:38.112254
1394  2023-11-01 10:02:38.160149
1395  2023-11-01 10:02:38.192047
1396  2023-11-01 10:02:38.239961
1397  2023-11-01 10:02:38.271836
1398  2023-11-01 10:02:38.319674
1399  2023-11-01 10:02:38.367578
1400  2023-11-01 10:02:38.399462
1401  2023-11-01 10:02:38.447481
1402  2023-11-01 10:02:38.480275
1403  2023-11-01 10:02:38.527152
1404  2023-11-01 10:02:38.575002
1405  2023-11-01 10:02:38.606907
1406  2023-11-01 10:02:38.654779
1407  2023-11-01 10:02:38.701696
1408  2023-11-01 10:02:38.732597
1409  2023-11-01 10:02:38.778479
1410  2023-11-01 10:02:38.825386
1411  2023-11-01 10:02:38.857271
1412  2023-11-01 10:02:38.905155
1413  2023-11-01 10:02:38.951032
1414  2023-11-01 10:02:38.982936
1415  2023-11-01 10:02:39.030807
1416  2023-11-01 10:02:39.062741
1417  2023-11-01 10:02:39.109597
1418  2023-11-01 10:02:39.157469
1419  2023-11-01 10:02:39.189393
1420  2023-11-01 10:02:39.236225
1421  2023-11-01 10:02:39.284130
1422  2023-11-01 10:02:39.316044
1423  2023-11-01 10:02:39.363884
1424  2023-11-01 10:02:39.395798
1425  2023-11-01 10:02:39.443703
1426  2023-11-01 10:02:39.491543
1427  2023-11-01 10:02:39.522460
1428  2023-11-01 10:02:39.569365
1429  2023-11-01 10:02:39.617207
1430  2023-11-01 10:02:39.649175
1431  2023-11-01 10:02:39.697037
1432  2023-11-01 10:02:39.743869
1433  2023-11-01 10:02:39.774820
1434  2023-11-01 10:02:39.822658
1435  2023-11-01 10:02:39.854573
1436  2023-11-01 10:02:39.902501
1437  2023-11-01 10:02:39.950317
1438  2023-11-01 10:02:39.982231
1439  2023-11-01 10:02:40.030216
1440  2023-11-01 10:02:40.077133
1441  2023-11-01 10:02:40.108090
1442  2023-11-01 10:02:40.154937
1443  2023-11-01 10:02:40.203795
1444  2023-11-01 10:02:40.234711
1445  2023-11-01 10:02:40.282617
1446  2023-11-01 10:02:40.313549
1447  2023-11-01 10:02:40.360523
1448  2023-11-01 10:02:40.408426
1449  2023-11-01 10:02:40.440463
1450  2023-11-01 10:02:40.488353
1451  2023-11-01 10:02:40.536207
1452  2023-11-01 10:02:40.568122
1453  2023-11-01 10:02:40.616007
1454  2023-11-01 10:02:40.647908
1455  2023-11-01 10:02:40.695780
1456  2023-11-01 10:02:40.742653
1457  2023-11-01 10:02:40.774571
1458  2023-11-01 10:02:40.822457
1459  2023-11-01 10:02:40.854372
1460  2023-11-01 10:02:40.902230
1461  2023-11-01 10:02:40.949102
1462  2023-11-01 10:02:40.981017
1463  2023-11-01 10:02:41.028858
1464  2023-11-01 10:02:41.076793
1465  2023-11-01 10:02:41.108696
1466  2023-11-01 10:02:41.156517
1467  2023-11-01 10:02:41.188432
1468  2023-11-01 10:02:41.236338
1469  2023-11-01 10:02:41.284248
1470  2023-11-01 10:02:41.315136
1471  2023-11-01 10:02:41.362965
1472  2023-11-01 10:02:41.408876
1473  2023-11-01 10:02:41.439761
1474  2023-11-01 10:02:41.487632
1475  2023-11-01 10:02:41.533629
1476  2023-11-01 10:02:41.564457
1477  2023-11-01 10:02:41.611369
1478  2023-11-01 10:02:41.658214
1479  2023-11-01 10:02:41.689194
1480  2023-11-01 10:02:41.737027
1481  2023-11-01 10:02:41.784871
1482  2023-11-01 10:02:41.816786
1483  2023-11-01 10:02:41.864834
1484  2023-11-01 10:02:41.897590
1485  2023-11-01 10:02:41.944443
1486  2023-11-01 10:02:41.992283
1487  2023-11-01 10:02:42.024248
1488  2023-11-01 10:02:42.072104
1489  2023-11-01 10:02:42.104025
1490  2023-11-01 10:02:42.150894
1491  2023-11-01 10:02:42.198766
1492  2023-11-01 10:02:42.230646
1493  2023-11-01 10:02:42.278551
1494  2023-11-01 10:02:42.326438
1495  2023-11-01 10:02:42.357308
1496  2023-11-01 10:02:42.405225
1497  2023-11-01 10:02:42.453054
1498  2023-11-01 10:02:42.484969
1499  2023-11-01 10:02:42.531877
1500  2023-11-01 10:02:42.563782
1501  2023-11-01 10:02:42.611660
1502  2023-11-01 10:02:42.659530
1503  2023-11-01 10:02:42.691459
1504  2023-11-01 10:02:42.739327
1505  2023-11-01 10:02:42.771228
1506  2023-11-01 10:02:42.817302
1507  2023-11-01 10:02:42.865209
1508  2023-11-01 10:02:42.897121
1509  2023-11-01 10:02:42.944021
1510  2023-11-01 10:02:42.990838
1511  2023-11-01 10:02:43.022753
1512  2023-11-01 10:02:43.070671
1513  2023-11-01 10:02:43.118497
1514  2023-11-01 10:02:43.150412
1515  2023-11-01 10:02:43.198326
1516  2023-11-01 10:02:43.230232
1517  2023-11-01 10:02:43.278103
1518  2023-11-01 10:02:43.325978
1519  2023-11-01 10:02:43.357914
1520  2023-11-01 10:02:43.405765
1521  2023-11-01 10:02:43.437707
1522  2023-11-01 10:02:43.485516
1523  2023-11-01 10:02:43.533420
1524  2023-11-01 10:02:43.565336
1525  2023-11-01 10:02:43.612268
1526  2023-11-01 10:02:43.660102
1527  2023-11-01 10:02:43.692016
1528  2023-11-01 10:02:43.739837
1529  2023-11-01 10:02:43.771753
1530  2023-11-01 10:02:43.819624
1531  2023-11-01 10:02:43.867498
1532  2023-11-01 10:02:43.899417
1533  2023-11-01 10:02:43.947283
1534  2023-11-01 10:02:43.979197
1535  2023-11-01 10:02:44.027107
1536  2023-11-01 10:02:44.074941
1537  2023-11-01 10:02:44.106889
1538  2023-11-01 10:02:44.154728
1539  2023-11-01 10:02:44.202637
1540  2023-11-01 10:02:44.234552
1541  2023-11-01 10:02:44.282477
1542  2023-11-01 10:02:44.314421
1543  2023-11-01 10:02:44.362330
1544  2023-11-01 10:02:44.410196
1545  2023-11-01 10:02:44.442112
1546  2023-11-01 10:02:44.489986
1547  2023-11-01 10:02:44.521899
1548  2023-11-01 10:02:44.569771
1549  2023-11-01 10:02:44.617644
1550  2023-11-01 10:02:44.649570
1551  2023-11-01 10:02:44.697575
1552  2023-11-01 10:02:44.729351
1553  2023-11-01 10:02:44.777217
1554  2023-11-01 10:02:44.824091
1555  2023-11-01 10:02:44.855011
1556  2023-11-01 10:02:44.902884
1557  2023-11-01 10:02:44.950756
1558  2023-11-01 10:02:44.982671
1559  2023-11-01 10:02:45.028549
1560  2023-11-01 10:02:45.076430
1561  2023-11-01 10:02:45.106336
1562  2023-11-01 10:02:45.154216
1563  2023-11-01 10:02:45.199082
1564  2023-11-01 10:02:45.231018
1565  2023-11-01 10:02:45.276849
1566  2023-11-01 10:02:45.324755
1567  2023-11-01 10:02:45.356636
1568  2023-11-01 10:02:45.404541
1569  2023-11-01 10:02:45.452380
1570  2023-11-01 10:02:45.484295
1571  2023-11-01 10:02:45.532193
1572  2023-11-01 10:02:45.564082
1573  2023-11-01 10:02:45.611954
1574  2023-11-01 10:02:45.659866
1575  2023-11-01 10:02:45.691777
1576  2023-11-01 10:02:45.737650
1577  2023-11-01 10:02:45.785490
1578  2023-11-01 10:02:45.817436
1579  2023-11-01 10:02:45.865330
1580  2023-11-01 10:02:45.896261
1581  2023-11-01 10:02:45.943231
1582  2023-11-01 10:02:45.991007
1583  2023-11-01 10:02:46.022926
1584  2023-11-01 10:02:46.070829
1585  2023-11-01 10:02:46.118715
1586  2023-11-01 10:02:46.150655
1587  2023-11-01 10:02:46.198501
1588  2023-11-01 10:02:46.230423
1589  2023-11-01 10:02:46.278295
1590  2023-11-01 10:02:46.326157
1591  2023-11-01 10:02:46.358078
1592  2023-11-01 10:02:46.404951
1593  2023-11-01 10:02:46.450812
1594  2023-11-01 10:02:46.482735
1595  2023-11-01 10:02:46.529609
1596  2023-11-01 10:02:46.577474
1597  2023-11-01 10:02:46.607391
1598  2023-11-01 10:02:46.655232
1599  2023-11-01 10:02:46.702259
1600  2023-11-01 10:02:46.733078
1601  2023-11-01 10:02:46.780896
1602  2023-11-01 10:02:46.812811
1603  2023-11-01 10:02:46.859686
1604  2023-11-01 10:02:46.907558
1605  2023-11-01 10:02:46.939473
1606  2023-11-01 10:02:46.987345
1607  2023-11-01 10:02:47.035272
1608  2023-11-01 10:02:47.067166
1609  2023-11-01 10:02:47.114006
1610  2023-11-01 10:02:47.145921
1611  2023-11-01 10:02:47.193825
1612  2023-11-01 10:02:47.241665
1613  2023-11-01 10:02:47.273580
1614  2023-11-01 10:02:47.321452
1615  2023-11-01 10:02:47.369589
1616  2023-11-01 10:02:47.401240
1617  2023-11-01 10:02:47.449178
1618  2023-11-01 10:02:47.481097
1619  2023-11-01 10:02:47.529123
1620  2023-11-01 10:02:47.577065
1621  2023-11-01 10:02:47.608980
1622  2023-11-01 10:02:47.656853
1623  2023-11-01 10:02:47.687819
1624  2023-11-01 10:02:47.734790
1625  2023-11-01 10:02:47.782551
1626  2023-11-01 10:02:47.814463
1627  2023-11-01 10:02:47.862303
1628  2023-11-01 10:02:47.910229
1629  2023-11-01 10:02:47.942122
1630  2023-11-01 10:02:47.989016
1631  2023-11-01 10:02:48.035873
1632  2023-11-01 10:02:48.067801
1633  2023-11-01 10:02:48.115679
1634  2023-11-01 10:02:48.147587
1635  2023-11-01 10:02:48.195460
1636  2023-11-01 10:02:48.243319
1637  2023-11-01 10:02:48.275246
1638  2023-11-01 10:02:48.323103
1639  2023-11-01 10:02:48.355025
1640  2023-11-01 10:02:48.402907
1641  2023-11-01 10:02:48.450800
1642  2023-11-01 10:02:48.482673
1643  2023-11-01 10:02:48.530517
1644  2023-11-01 10:02:48.562483
1645  2023-11-01 10:02:48.610572
1646  2023-11-01 10:02:48.658492
1647  2023-11-01 10:02:48.690439
1648  2023-11-01 10:02:48.737327
1649  2023-11-01 10:02:48.784197
1650  2023-11-01 10:02:48.816107
1651  2023-11-01 10:02:48.863977
1652  2023-11-01 10:02:48.895912
1653  2023-11-01 10:02:48.944761
1654  2023-11-01 10:02:48.990604
1655  2023-11-01 10:02:49.022519
1656  2023-11-01 10:02:49.070424
1657  2023-11-01 10:02:49.118263
1658  2023-11-01 10:02:49.150178
1659  2023-11-01 10:02:49.198084
1660  2023-11-01 10:02:49.230016
1661  2023-11-01 10:02:49.277837
1662  2023-11-01 10:02:49.325709
1663  2023-11-01 10:02:49.357623
1664  2023-11-01 10:02:49.405575
1665  2023-11-01 10:02:49.437574
1666  2023-11-01 10:02:49.485414
1667  2023-11-01 10:02:49.534319
1668  2023-11-01 10:02:49.564242
1669  2023-11-01 10:02:49.610081
1670  2023-11-01 10:02:49.656956
1671  2023-11-01 10:02:49.689870
1672  2023-11-01 10:02:49.737742
1673  2023-11-01 10:02:49.784615
1674  2023-11-01 10:02:49.816530
1675  2023-11-01 10:02:49.864402
1676  2023-11-01 10:02:49.910373
1677  2023-11-01 10:02:49.942374
1678  2023-11-01 10:02:49.990197
1679  2023-11-01 10:02:50.022211
1680  2023-11-01 10:02:50.068137
1681  2023-11-01 10:02:50.116010
1682  2023-11-01 10:02:50.146921
1683  2023-11-01 10:02:50.193806
1684  2023-11-01 10:02:50.241658
1685  2023-11-01 10:02:50.273572
1686  2023-11-01 10:02:50.321472
1687  2023-11-01 10:02:50.369311
1688  2023-11-01 10:02:50.401258
1689  2023-11-01 10:02:50.449108
1690  2023-11-01 10:02:50.481057
1691  2023-11-01 10:02:50.527907
1692  2023-11-01 10:02:50.575777
1693  2023-11-01 10:02:50.607681
1694  2023-11-01 10:02:50.654521
1695  2023-11-01 10:02:50.702445
1696  2023-11-01 10:02:50.735406
1697  2023-11-01 10:02:50.782334
1698  2023-11-01 10:02:50.814249
1699  2023-11-01 10:02:50.862184
1700  2023-11-01 10:02:50.910030
1701  2023-11-01 10:02:50.941941
1702  2023-11-01 10:02:50.989780
1703  2023-11-01 10:02:51.020697
1704  2023-11-01 10:02:51.066614
1705  2023-11-01 10:02:51.114446
1706  2023-11-01 10:02:51.160324
1707  2023-11-01 10:02:51.192244
1708  2023-11-01 10:02:51.240111
1709  2023-11-01 10:02:51.272025
1710  2023-11-01 10:02:51.319898
1711  2023-11-01 10:02:51.367770
1712  2023-11-01 10:02:51.398723
1713  2023-11-01 10:02:51.445609
1714  2023-11-01 10:02:51.493483
1715  2023-11-01 10:02:51.525459
1716  2023-11-01 10:02:51.573513
1717  2023-11-01 10:02:51.605415
1718  2023-11-01 10:02:51.652296
1719  2023-11-01 10:02:51.699175
1720  2023-11-01 10:02:51.731043
1721  2023-11-01 10:02:51.776968
1722  2023-11-01 10:02:51.824846
1723  2023-11-01 10:02:51.856740
1724  2023-11-01 10:02:51.903583
1725  2023-11-01 10:02:51.951459
1726  2023-11-01 10:02:51.982483
1727  2023-11-01 10:02:52.030395
1728  2023-11-01 10:02:52.077230
1729  2023-11-01 10:02:52.109179
1730  2023-11-01 10:02:52.156020
1731  2023-11-01 10:02:52.203932
1732  2023-11-01 10:02:52.235809
1733  2023-11-01 10:02:52.281684
1734  2023-11-01 10:02:52.313599
1735  2023-11-01 10:02:52.361472
1736  2023-11-01 10:02:52.409343
1737  2023-11-01 10:02:52.441257
1738  2023-11-01 10:02:52.489129
1739  2023-11-01 10:02:52.521044
1740  2023-11-01 10:02:52.569018
1741  2023-11-01 10:02:52.616890
1742  2023-11-01 10:02:52.648805
1743  2023-11-01 10:02:52.696677
1744  2023-11-01 10:02:52.743602
1745  2023-11-01 10:02:52.774469
1746  2023-11-01 10:02:52.822379
1747  2023-11-01 10:02:52.854256
1748  2023-11-01 10:02:52.902177
1749  2023-11-01 10:02:52.950048
1750  2023-11-01 10:02:52.981968
1751  2023-11-01 10:02:53.029835
1752  2023-11-01 10:02:53.077706
1753  2023-11-01 10:02:53.109622
1754  2023-11-01 10:02:53.157491
1755  2023-11-01 10:02:53.188411
1756  2023-11-01 10:02:53.234288
1757  2023-11-01 10:02:53.282151
1758  2023-11-01 10:02:53.314059
1759  2023-11-01 10:02:53.361947
1760  2023-11-01 10:02:53.409804
1761  2023-11-01 10:02:53.440735
1762  2023-11-01 10:02:53.487563
1763  2023-11-01 10:02:53.534487
1764  2023-11-01 10:02:53.566386
1765  2023-11-01 10:02:53.614264
1766  2023-11-01 10:02:53.660156
1767  2023-11-01 10:02:53.692017
1768  2023-11-01 10:02:53.739891
1769  2023-11-01 10:02:53.771835
1770  2023-11-01 10:02:53.819676
1771  2023-11-01 10:02:53.867583
1772  2023-11-01 10:02:53.899464
1773  2023-11-01 10:02:53.947335
1774  2023-11-01 10:02:53.979250
1775  2023-11-01 10:02:54.027122
1776  2023-11-01 10:02:54.074994
1777  2023-11-01 10:02:54.105912
1778  2023-11-01 10:02:54.151789
1779  2023-11-01 10:02:54.199661
1780  2023-11-01 10:02:54.231575
1781  2023-11-01 10:02:54.278503
1782  2023-11-01 10:02:54.325325
1783  2023-11-01 10:02:54.357406
1784  2023-11-01 10:02:54.405158
1785  2023-11-01 10:02:54.452017
1786  2023-11-01 10:02:54.482957
1787  2023-11-01 10:02:54.530824
1788  2023-11-01 10:02:54.562740
1789  2023-11-01 10:02:54.610604
1790  2023-11-01 10:02:54.658468
1791  2023-11-01 10:02:54.690383
1792  2023-11-01 10:02:54.736262
1793  2023-11-01 10:02:54.784131
1794  2023-11-01 10:02:54.816048
1795  2023-11-01 10:02:54.862924
1796  2023-11-01 10:02:54.909803
1797  2023-11-01 10:02:54.941715
1798  2023-11-01 10:02:54.989581
1799  2023-11-01 10:02:55.035429
1800  2023-11-01 10:02:55.066345
1801  2023-11-01 10:02:55.114217
1802  2023-11-01 10:02:55.146131
1803  2023-11-01 10:02:55.194004
1804  2023-11-01 10:02:55.241875
1805  2023-11-01 10:02:55.273790
1806  2023-11-01 10:02:55.321662
1807  2023-11-01 10:02:55.369535
1808  2023-11-01 10:02:55.401494
1809  2023-11-01 10:02:55.449321
1810  2023-11-01 10:02:55.481372
1811  2023-11-01 10:02:55.529109
1812  2023-11-01 10:02:55.576980
1813  2023-11-01 10:02:55.608895
1814  2023-11-01 10:02:55.656767
1815  2023-11-01 10:02:55.688825
1816  2023-11-01 10:02:55.737774
1817  2023-11-01 10:02:55.784619
1818  2023-11-01 10:02:55.816484
1819  2023-11-01 10:02:55.864356
1820  2023-11-01 10:02:55.896271
1821  2023-11-01 10:02:55.942199
1822  2023-11-01 10:02:55.990021
1823  2023-11-01 10:02:56.021935
1824  2023-11-01 10:02:56.069807
1825  2023-11-01 10:02:56.118190
1826  2023-11-01 10:02:56.149151
1827  2023-11-01 10:02:56.197292
1828  2023-11-01 10:02:56.229206
1829  2023-11-01 10:02:56.277125
1830  2023-11-01 10:02:56.324950
1831  2023-11-01 10:02:56.357073
1832  2023-11-01 10:02:56.404982
1833  2023-11-01 10:02:56.452870
1834  2023-11-01 10:02:56.484769
1835  2023-11-01 10:02:56.530657
1836  2023-11-01 10:02:56.562562
1837  2023-11-01 10:02:56.610542
1838  2023-11-01 10:02:56.658550
1839  2023-11-01 10:02:56.690450
1840  2023-11-01 10:02:56.738323
1841  2023-11-01 10:02:56.786210
1842  2023-11-01 10:02:56.818128
1843  2023-11-01 10:02:56.866160
1844  2023-11-01 10:02:56.898060
1845  2023-11-01 10:02:56.945928
1846  2023-11-01 10:02:56.993772
1847  2023-11-01 10:02:57.025734
1848  2023-11-01 10:02:57.073605
1849  2023-11-01 10:02:57.105538
1850  2023-11-01 10:02:57.153345
1851  2023-11-01 10:02:57.201282
1852  2023-11-01 10:02:57.233233
1853  2023-11-01 10:02:57.281235
1854  2023-11-01 10:02:57.313338
1855  2023-11-01 10:02:57.361245
1856  2023-11-01 10:02:57.409154
1857  2023-11-01 10:02:57.441072
1858  2023-11-01 10:02:57.489056
1859  2023-11-01 10:02:57.520938
1860  2023-11-01 10:02:57.568845
1861  2023-11-01 10:02:57.616729
1862  2023-11-01 10:02:57.648644
1863  2023-11-01 10:02:57.696516
1864  2023-11-01 10:02:57.744467
1865  2023-11-01 10:02:57.777435
1866  2023-11-01 10:02:57.822345
1867  2023-11-01 10:02:57.854261
1868  2023-11-01 10:02:57.902169
1869  2023-11-01 10:02:57.949972
1870  2023-11-01 10:02:57.981946
1871  2023-11-01 10:02:58.029792
1872  2023-11-01 10:02:58.077632
1873  2023-11-01 10:02:58.110545
1874  2023-11-01 10:02:58.157450
1875  2023-11-01 10:02:58.189363
1876  2023-11-01 10:02:58.237206
1877  2023-11-01 10:02:58.286104
1878  2023-11-01 10:02:58.316029
1879  2023-11-01 10:02:58.365911
1880  2023-11-01 10:02:58.396823
1881  2023-11-01 10:02:58.441702
1882  2023-11-01 10:02:58.489530
1883  2023-11-01 10:02:58.521445
1884  2023-11-01 10:02:58.569348
1885  2023-11-01 10:02:58.617189
1886  2023-11-01 10:02:58.649104
1887  2023-11-01 10:02:58.697973
1888  2023-11-01 10:02:58.743890
1889  2023-11-01 10:02:58.774817
1890  2023-11-01 10:02:58.822640
1891  2023-11-01 10:02:58.868610
1892  2023-11-01 10:02:58.900525
1893  2023-11-01 10:02:58.948431
1894  2023-11-01 10:02:58.980359
1895  2023-11-01 10:02:59.028327
1896  2023-11-01 10:02:59.076224
1897  2023-11-01 10:02:59.108145
1898  2023-11-01 10:02:59.154988
1899  2023-11-01 10:02:59.201890
1900  2023-11-01 10:02:59.233778
1901  2023-11-01 10:02:59.280654
1902  2023-11-01 10:02:59.327562
1903  2023-11-01 10:02:59.357523
1904  2023-11-01 10:02:59.405354
1905  2023-11-01 10:02:59.453224
1906  2023-11-01 10:02:59.483182
1907  2023-11-01 10:02:59.532114
1908  2023-11-01 10:02:59.564057
1909  2023-11-01 10:02:59.611943
1910  2023-11-01 10:02:59.657776
1911  2023-11-01 10:02:59.689690
1912  2023-11-01 10:02:59.737563
1913  2023-11-01 10:02:59.785434
1914  2023-11-01 10:02:59.816352
1915  2023-11-01 10:02:59.864224
1916  2023-11-01 10:02:59.896139
1917  2023-11-01 10:02:59.944011
1918  2023-11-01 10:02:59.991883
1919  2023-11-01 10:03:00.023797
1920  2023-11-01 10:03:00.070672
1921  2023-11-01 10:03:00.117585
1922  2023-11-01 10:03:00.149492
1923  2023-11-01 10:03:00.196340
1924  2023-11-01 10:03:00.244259
1925  2023-11-01 10:03:00.276239
1926  2023-11-01 10:03:00.324123
1927  2023-11-01 10:03:00.355040
1928  2023-11-01 10:03:00.401948
1929  2023-11-01 10:03:00.449821
1930  2023-11-01 10:03:00.481748
1931  2023-11-01 10:03:00.529620
1932  2023-11-01 10:03:00.577447
1933  2023-11-01 10:03:00.608413
1934  2023-11-01 10:03:00.655301
1935  2023-11-01 10:03:00.702157
1936  2023-11-01 10:03:00.734073
1937  2023-11-01 10:03:00.780936
1938  2023-11-01 10:03:00.812819
1939  2023-11-01 10:03:00.860729
1940  2023-11-01 10:03:00.908563
1941  2023-11-01 10:03:00.939480
1942  2023-11-01 10:03:00.986383
1943  2023-11-01 10:03:01.033229
1944  2023-11-01 10:03:01.064145
1945  2023-11-01 10:03:01.110023
1946  2023-11-01 10:03:01.157895
1947  2023-11-01 10:03:01.189809
1948  2023-11-01 10:03:01.237681
1949  2023-11-01 10:03:01.285779
1950  2023-11-01 10:03:01.317501
1951  2023-11-01 10:03:01.365404
1952  2023-11-01 10:03:01.397334
1953  2023-11-01 10:03:01.445226
1954  2023-11-01 10:03:01.493067
1955  2023-11-01 10:03:01.524982
1956  2023-11-01 10:03:01.572902
1957  2023-11-01 10:03:01.604816
1958  2023-11-01 10:03:01.652687
1959  2023-11-01 10:03:01.700513
1960  2023-11-01 10:03:01.732427
1961  2023-11-01 10:03:01.777341
1962  2023-11-01 10:03:01.824230
1963  2023-11-01 10:03:01.855143
1964  2023-11-01 10:03:01.903975
1965  2023-11-01 10:03:01.950866
1966  2023-11-01 10:03:01.982781
1967  2023-11-01 10:03:02.030653
1968  2023-11-01 10:03:02.078525
1969  2023-11-01 10:03:02.110442
1970  2023-11-01 10:03:02.155388
1971  2023-11-01 10:03:02.203225
1972  2023-11-01 10:03:02.234184
1973  2023-11-01 10:03:02.282043
1974  2023-11-01 10:03:02.314231
1975  2023-11-01 10:03:02.360039
1976  2023-11-01 10:03:02.407921
1977  2023-11-01 10:03:02.440824
1978  2023-11-01 10:03:02.487734
1979  2023-11-01 10:03:02.535573
1980  2023-11-01 10:03:02.567536
1981  2023-11-01 10:03:02.615467
1982  2023-11-01 10:03:02.647414
1983  2023-11-01 10:03:02.695254
1984  2023-11-01 10:03:02.742288
1985  2023-11-01 10:03:02.773048
1986  2023-11-01 10:03:02.820918
1987  2023-11-01 10:03:02.868790
1988  2023-11-01 10:03:02.900705
1989  2023-11-01 10:03:02.947625
1990  2023-11-01 10:03:02.979538
1991  2023-11-01 10:03:03.026369
1992  2023-11-01 10:03:03.073212
1993  2023-11-01 10:03:03.104131
1994  2023-11-01 10:03:03.151130
1995  2023-11-01 10:03:03.198973
1996  2023-11-01 10:03:03.230920
1997  2023-11-01 10:03:03.278789
1998  2023-11-01 10:03:03.326664
1999  2023-11-01 10:03:03.358580
2000  2023-11-01 10:03:03.406418
2001  2023-11-01 10:03:03.437335
2002  2023-11-01 10:03:03.484246
2003  2023-11-01 10:03:03.532203
2004  2023-11-01 10:03:03.564114
2005  2023-11-01 10:03:03.612095
2006  2023-11-01 10:03:03.659995
2007  2023-11-01 10:03:03.692064
2008  2023-11-01 10:03:03.739821
2009  2023-11-01 10:03:03.771703
2010  2023-11-01 10:03:03.819583
2011  2023-11-01 10:03:03.867478
2012  2023-11-01 10:03:03.899361
2013  2023-11-01 10:03:03.947244
2014  2023-11-01 10:03:03.980210
2015  2023-11-01 10:03:04.027027
2016  2023-11-01 10:03:04.075947
2017  2023-11-01 10:03:04.107918
2018  2023-11-01 10:03:04.154777
2019  2023-11-01 10:03:04.203739
2020  2023-11-01 10:03:04.234828
2021  2023-11-01 10:03:04.282575
2022  2023-11-01 10:03:04.314497
2023  2023-11-01 10:03:04.362371
2024  2023-11-01 10:03:04.409189
2025  2023-11-01 10:03:04.442103
2026  2023-11-01 10:03:04.489010
2027  2023-11-01 10:03:04.521079
2028  2023-11-01 10:03:04.568796
2029  2023-11-01 10:03:04.616668
2030  2023-11-01 10:03:04.648596
2031  2023-11-01 10:03:04.694510
2032  2023-11-01 10:03:04.742382
2033  2023-11-01 10:03:04.774340
2034  2023-11-01 10:03:04.822239
2035  2023-11-01 10:03:04.854237
2036  2023-11-01 10:03:04.902077
2037  2023-11-01 10:03:04.949977
2038  2023-11-01 10:03:04.981896
2039  2023-11-01 10:03:05.028739
2040  2023-11-01 10:03:05.074646
2041  2023-11-01 10:03:05.105566
2042  2023-11-01 10:03:05.151441
2043  2023-11-01 10:03:05.199284
2044  2023-11-01 10:03:05.229276
2045  2023-11-01 10:03:05.277077
2046  2023-11-01 10:03:05.323982
2047  2023-11-01 10:03:05.368831
2048  2023-11-01 10:03:05.401785
2049  2023-11-01 10:03:05.448653
2050  2023-11-01 10:03:05.480563
2051  2023-11-01 10:03:05.528413
2052  2023-11-01 10:03:05.576307
2053  2023-11-01 10:03:05.608275
2054  2023-11-01 10:03:05.656103
2055  2023-11-01 10:03:05.701940
2056  2023-11-01 10:03:05.733854
2057  2023-11-01 10:03:05.781758
2058  2023-11-01 10:03:05.827604
2059  2023-11-01 10:03:05.859518
2060  2023-11-01 10:03:05.907423
2061  2023-11-01 10:03:05.939337
2062  2023-11-01 10:03:05.987177
2063  2023-11-01 10:03:06.032105
2064  2023-11-01 10:03:06.063972
2065  2023-11-01 10:03:06.111844
2066  2023-11-01 10:03:06.157759
2067  2023-11-01 10:03:06.189638
2068  2023-11-01 10:03:06.236515
2069  2023-11-01 10:03:06.284383
2070  2023-11-01 10:03:06.316329
2071  2023-11-01 10:03:06.364244
2072  2023-11-01 10:03:06.396119
2073  2023-11-01 10:03:06.443985
2074  2023-11-01 10:03:06.491871
2075  2023-11-01 10:03:06.523774
2076  2023-11-01 10:03:06.571646
2077  2023-11-01 10:03:06.619520
2078  2023-11-01 10:03:06.651433
2079  2023-11-01 10:03:06.699406
2080  2023-11-01 10:03:06.731190
2081  2023-11-01 10:03:06.779102
2082  2023-11-01 10:03:06.826983
2083  2023-11-01 10:03:06.857883
2084  2023-11-01 10:03:06.905753
2085  2023-11-01 10:03:06.937683
2086  2023-11-01 10:03:06.985554
2087  2023-11-01 10:03:07.033411
2088  2023-11-01 10:03:07.065329
2089  2023-11-01 10:03:07.114211
2090  2023-11-01 10:03:07.159134
2091  2023-11-01 10:03:07.190047
2092  2023-11-01 10:03:07.237885
2093  2023-11-01 10:03:07.285862
2094  2023-11-01 10:03:07.317776
2095  2023-11-01 10:03:07.365612
2096  2023-11-01 10:03:07.397527
2097  2023-11-01 10:03:07.445437
2098  2023-11-01 10:03:07.492274
2099  2023-11-01 10:03:07.523274
2100  2023-11-01 10:03:07.570098
2101  2023-11-01 10:03:07.617938
2102  2023-11-01 10:03:07.649854
2103  2023-11-01 10:03:07.697725
2104  2023-11-01 10:03:07.729639
2105  2023-11-01 10:03:07.777675
2106  2023-11-01 10:03:07.823517
2107  2023-11-01 10:03:07.855432
2108  2023-11-01 10:03:07.903306
2109  2023-11-01 10:03:07.951208
2110  2023-11-01 10:03:07.983203
2111  2023-11-01 10:03:08.031120
2112  2023-11-01 10:03:08.063035
2113  2023-11-01 10:03:08.110907
2114  2023-11-01 10:03:08.158781
2115  2023-11-01 10:03:08.190664
2116  2023-11-01 10:03:08.238572
2117  2023-11-01 10:03:08.284443
2118  2023-11-01 10:03:08.316357
2119  2023-11-01 10:03:08.362204
2120  2023-11-01 10:03:08.409148
2121  2023-11-01 10:03:08.440999
2122  2023-11-01 10:03:08.487901
2123  2023-11-01 10:03:08.536766
2124  2023-11-01 10:03:08.567683
2125  2023-11-01 10:03:08.616702
2126  2023-11-01 10:03:08.647602
2127  2023-11-01 10:03:08.696463
2128  2023-11-01 10:03:08.744345
2129  2023-11-01 10:03:08.776269
2130  2023-11-01 10:03:08.824133
2131  2023-11-01 10:03:08.856000
2132  2023-11-01 10:03:08.902934
2133  2023-11-01 10:03:08.948784
2134  2023-11-01 10:03:08.980694
2135  2023-11-01 10:03:09.028537
2136  2023-11-01 10:03:09.076441
2137  2023-11-01 10:03:09.108459
2138  2023-11-01 10:03:09.156291
2139  2023-11-01 10:03:09.202207
2140  2023-11-01 10:03:09.234083
2141  2023-11-01 10:03:09.282001
2142  2023-11-01 10:03:09.313918
2143  2023-11-01 10:03:09.361742
2144  2023-11-01 10:03:09.409848
2145  2023-11-01 10:03:09.441575
2146  2023-11-01 10:03:09.489401
2147  2023-11-01 10:03:09.521316
2148  2023-11-01 10:03:09.569223
2149  2023-11-01 10:03:09.617109
2150  2023-11-01 10:03:09.649023
2151  2023-11-01 10:03:09.696847
2152  2023-11-01 10:03:09.743846
2153  2023-11-01 10:03:09.774673
2154  2023-11-01 10:03:09.821558
2155  2023-11-01 10:03:09.868390
2156  2023-11-01 10:03:09.900304
2157  2023-11-01 10:03:09.947235
2158  2023-11-01 10:03:09.994098
2159  2023-11-01 10:03:10.026006
2160  2023-11-01 10:03:10.073841
2161  2023-11-01 10:03:10.106787
2162  2023-11-01 10:03:10.153663
2163  2023-11-01 10:03:10.201560
2164  2023-11-01 10:03:10.233445
2165  2023-11-01 10:03:10.281319
2166  2023-11-01 10:03:10.313233
2167  2023-11-01 10:03:10.361104
2168  2023-11-01 10:03:10.409942
2169  2023-11-01 10:03:10.441857
2170  2023-11-01 10:03:10.487794
2171  2023-11-01 10:03:10.535648
2172  2023-11-01 10:03:10.565559
2173  2023-11-01 10:03:10.613432
2174  2023-11-01 10:03:10.660272
2175  2023-11-01 10:03:10.692187
2176  2023-11-01 10:03:10.738096
2177  2023-11-01 10:03:10.785974
2178  2023-11-01 10:03:10.817851
2179  2023-11-01 10:03:10.865723
2180  2023-11-01 10:03:10.897638
2181  2023-11-01 10:03:10.945560
2182  2023-11-01 10:03:10.993382
2183  2023-11-01 10:03:11.024299
2184  2023-11-01 10:03:11.071204
2185  2023-11-01 10:03:11.119046
2186  2023-11-01 10:03:11.149006
2187  2023-11-01 10:03:11.194886
2188  2023-11-01 10:03:11.242748
2189  2023-11-01 10:03:11.274662
2190  2023-11-01 10:03:11.322543
2191  2023-11-01 10:03:11.369411
2192  2023-11-01 10:03:11.401324
2193  2023-11-01 10:03:11.447220
2194  2023-11-01 10:03:11.479128
2195  2023-11-01 10:03:11.527008
2196  2023-11-01 10:03:11.574854
2197  2023-11-01 10:03:11.606771
2198  2023-11-01 10:03:11.654647
2199  2023-11-01 10:03:11.701522
2200  2023-11-01 10:03:11.733438
2201  2023-11-01 10:03:11.781327
2202  2023-11-01 10:03:11.826156
2203  2023-11-01 10:03:11.858071
2204  2023-11-01 10:03:11.903950
2205  2023-11-01 10:03:11.949858
2206  2023-11-01 10:03:11.981788
2207  2023-11-01 10:03:12.029620
2208  2023-11-01 10:03:12.076533
2209  2023-11-01 10:03:12.107407
2210  2023-11-01 10:03:12.155323
2211  2023-11-01 10:03:12.202152
2212  2023-11-01 10:03:12.233071
2213  2023-11-01 10:03:12.280974
2214  2023-11-01 10:03:12.312893
2215  2023-11-01 10:03:12.360763
2216  2023-11-01 10:03:12.409624
2217  2023-11-01 10:03:12.440515
2218  2023-11-01 10:03:12.487627
2219  2023-11-01 10:03:12.535294
2220  2023-11-01 10:03:12.566207
2221  2023-11-01 10:03:12.613088
2222  2023-11-01 10:03:12.660950
2223  2023-11-01 10:03:12.692872
2224  2023-11-01 10:03:12.740888
2225  2023-11-01 10:03:12.772666
2226  2023-11-01 10:03:12.821529
2227  2023-11-01 10:03:12.868444
2228  2023-11-01 10:03:12.900322
2229  2023-11-01 10:03:12.948264
2230  2023-11-01 10:03:12.980222
2231  2023-11-01 10:03:13.028211
2232  2023-11-01 10:03:13.074073
2233  2023-11-01 10:03:13.105987
2234  2023-11-01 10:03:13.153825
2235  2023-11-01 10:03:13.201812
2236  2023-11-01 10:03:13.232615
2237  2023-11-01 10:03:13.280519
2238  2023-11-01 10:03:13.312402
2239  2023-11-01 10:03:13.358279
2240  2023-11-01 10:03:13.406186
2241  2023-11-01 10:03:13.438106
2242  2023-11-01 10:03:13.485938
2243  2023-11-01 10:03:13.533811
2244  2023-11-01 10:03:13.565798
2245  2023-11-01 10:03:13.613641
2246  2023-11-01 10:03:13.660471
2247  2023-11-01 10:03:13.691430
2248  2023-11-01 10:03:13.739263
2249  2023-11-01 10:03:13.771176
2250  2023-11-01 10:03:13.819094
2251  2023-11-01 10:03:13.867952
2252  2023-11-01 10:03:13.898880
2253  2023-11-01 10:03:13.947753
2254  2023-11-01 10:03:13.993614
2255  2023-11-01 10:03:14.025586
2256  2023-11-01 10:03:14.073551
2257  2023-11-01 10:03:14.105438
2258  2023-11-01 10:03:14.153462
2259  2023-11-01 10:03:14.200188
2260  2023-11-01 10:03:14.232068
2261  2023-11-01 10:03:14.278992
2262  2023-11-01 10:03:14.326848
2263  2023-11-01 10:03:14.358771
2264  2023-11-01 10:03:14.406637
2265  2023-11-01 10:03:14.438517
2266  2023-11-01 10:03:14.486389
2267  2023-11-01 10:03:14.532266
2268  2023-11-01 10:03:14.564211
2269  2023-11-01 10:03:14.612088
2270  2023-11-01 10:03:14.657930
2271  2023-11-01 10:03:14.689845
2272  2023-11-01 10:03:14.737769
2273  2023-11-01 10:03:14.784741
2274  2023-11-01 10:03:14.815710
2275  2023-11-01 10:03:14.863549
2276  2023-11-01 10:03:14.910458
2277  2023-11-01 10:03:14.942372
2278  2023-11-01 10:03:14.990212
2279  2023-11-01 10:03:15.022126
2280  2023-11-01 10:03:15.070034
2281  2023-11-01 10:03:15.117914
2282  2023-11-01 10:03:15.149819
2283  2023-11-01 10:03:15.197661
2284  2023-11-01 10:03:15.229572
2285  2023-11-01 10:03:15.277475
2286  2023-11-01 10:03:15.325316
2287  2023-11-01 10:03:15.357231
2288  2023-11-01 10:03:15.405102
2289  2023-11-01 10:03:15.451976
2290  2023-11-01 10:03:15.482921
2291  2023-11-01 10:03:15.529770
2292  2023-11-01 10:03:15.577642
2293  2023-11-01 10:03:15.609557
2294  2023-11-01 10:03:15.657429
2295  2023-11-01 10:03:15.689344
2296  2023-11-01 10:03:15.737240
2297  2023-11-01 10:03:15.785118
2298  2023-11-01 10:03:15.817048
2299  2023-11-01 10:03:15.864912
2300  2023-11-01 10:03:15.895859
2301  2023-11-01 10:03:15.942698
2302  2023-11-01 10:03:15.990568
2303  2023-11-01 10:03:16.022485
2304  2023-11-01 10:03:16.070325
2305  2023-11-01 10:03:16.117232
2306  2023-11-01 10:03:16.148147
2307  2023-11-01 10:03:16.197049
2308  2023-11-01 10:03:16.244891
2309  2023-11-01 10:03:16.276825
2310  2023-11-01 10:03:16.324678
2311  2023-11-01 10:03:16.356559
2312  2023-11-01 10:03:16.403436
2313  2023-11-01 10:03:16.451361
2314  2023-11-01 10:03:16.483254
2315  2023-11-01 10:03:16.529099
2316  2023-11-01 10:03:16.576008
2317  2023-11-01 10:03:16.607929
2318  2023-11-01 10:03:16.655761
2319  2023-11-01 10:03:16.702665
2320  2023-11-01 10:03:16.733586
2321  2023-11-01 10:03:16.781458
2322  2023-11-01 10:03:16.813374
2323  2023-11-01 10:03:16.861212
2324  2023-11-01 10:03:16.910121
2325  2023-11-01 10:03:16.941041
2326  2023-11-01 10:03:16.988870
2327  2023-11-01 10:03:17.020786
2328  2023-11-01 10:03:17.068671
2329  2023-11-01 10:03:17.116588
2330  2023-11-01 10:03:17.147506
2331  2023-11-01 10:03:17.194335
2332  2023-11-01 10:03:17.242238
2333  2023-11-01 10:03:17.274155
2334  2023-11-01 10:03:17.321043
2335  2023-11-01 10:03:17.367906
2336  2023-11-01 10:03:17.399838
2337  2023-11-01 10:03:17.447687
2338  2023-11-01 10:03:17.493580
2339  2023-11-01 10:03:17.525486
2340  2023-11-01 10:03:17.573395
2341  2023-11-01 10:03:17.605326
2342  2023-11-01 10:03:17.653156
2343  2023-11-01 10:03:17.700981
2344  2023-11-01 10:03:17.732996
2345  2023-11-01 10:03:17.780816
2346  2023-11-01 10:03:17.812721
2347  2023-11-01 10:03:17.859563
2348  2023-11-01 10:03:17.906498
2349  2023-11-01 10:03:17.938375
2350  2023-11-01 10:03:17.986251
2351  2023-11-01 10:03:18.034127
2352  2023-11-01 10:03:18.066059
2353  2023-11-01 10:03:18.113928
2354  2023-11-01 10:03:18.161860
2355  2023-11-01 10:03:18.193827
2356  2023-11-01 10:03:18.238795
2357  2023-11-01 10:03:18.270722
2358  2023-11-01 10:03:18.318626
2359  2023-11-01 10:03:18.364471
2360  2023-11-01 10:03:18.396386
2361  2023-11-01 10:03:18.444260
2362  2023-11-01 10:03:18.491133
2363  2023-11-01 10:03:18.523107
2364  2023-11-01 10:03:18.568980
2365  2023-11-01 10:03:18.616854
2366  2023-11-01 10:03:18.648769
2367  2023-11-01 10:03:18.696640
2368  2023-11-01 10:03:18.743795
2369  2023-11-01 10:03:18.774564
2370  2023-11-01 10:03:18.821424
2371  2023-11-01 10:03:18.867313
2372  2023-11-01 10:03:18.898251
2373  2023-11-01 10:03:18.947091
2374  2023-11-01 10:03:18.994977
2375  2023-11-01 10:03:19.026895
2376  2023-11-01 10:03:19.073751
2377  2023-11-01 10:03:19.105684
2378  2023-11-01 10:03:19.151564
2379  2023-11-01 10:03:19.199517
2380  2023-11-01 10:03:19.231400
2381  2023-11-01 10:03:19.279304
2382  2023-11-01 10:03:19.327144
2383  2023-11-01 10:03:19.359058
2384  2023-11-01 10:03:19.406978
2385  2023-11-01 10:03:19.438912
2386  2023-11-01 10:03:19.486763
2387  2023-11-01 10:03:19.534622
2388  2023-11-01 10:03:19.566537
2389  2023-11-01 10:03:19.614409
2390  2023-11-01 10:03:19.646333
2391  2023-11-01 10:03:19.694163
2392  2023-11-01 10:03:19.742036
2393  2023-11-01 10:03:19.773991
2394  2023-11-01 10:03:19.821822
2395  2023-11-01 10:03:19.868697
2396  2023-11-01 10:03:19.899614
2397  2023-11-01 10:03:19.947488
2398  2023-11-01 10:03:19.994361
2399  2023-11-01 10:03:20.024281
2400  2023-11-01 10:03:20.071203
2401  2023-11-01 10:03:20.119078
2402  2023-11-01 10:03:20.151001
2403  2023-11-01 10:03:20.199022
2404  2023-11-01 10:03:20.230777
2405  2023-11-01 10:03:20.278649
2406  2023-11-01 10:03:20.326622
2407  2023-11-01 10:03:20.358556
2408  2023-11-01 10:03:20.406432
2409  2023-11-01 10:03:20.438367
2410  2023-11-01 10:03:20.485229
2411  2023-11-01 10:03:20.532061
2412  2023-11-01 10:03:20.564026
2413  2023-11-01 10:03:20.611896
2414  2023-11-01 10:03:20.659720
2415  2023-11-01 10:03:20.691683
2416  2023-11-01 10:03:20.739538
2417  2023-11-01 10:03:20.771453
2418  2023-11-01 10:03:20.819329
2419  2023-11-01 10:03:20.867364
2420  2023-11-01 10:03:20.899314
2421  2023-11-01 10:03:20.947220
2422  2023-11-01 10:03:20.992120
2423  2023-11-01 10:03:21.024978
2424  2023-11-01 10:03:21.070855
2425  2023-11-01 10:03:21.118769
2426  2023-11-01 10:03:21.150675
2427  2023-11-01 10:03:21.197523
2428  2023-11-01 10:03:21.229431
2429  2023-11-01 10:03:21.277359
2430  2023-11-01 10:03:21.325176
2431  2023-11-01 10:03:21.357090
2432  2023-11-01 10:03:21.405991
2433  2023-11-01 10:03:21.451937
2434  2023-11-01 10:03:21.483846
2435  2023-11-01 10:03:21.530790
2436  2023-11-01 10:03:21.562705
2437  2023-11-01 10:03:21.609581
2438  2023-11-01 10:03:21.657452
2439  2023-11-01 10:03:21.689367
2440  2023-11-01 10:03:21.737241
2441  2023-11-01 10:03:21.784114
2442  2023-11-01 10:03:21.816028
2443  2023-11-01 10:03:21.863931
2444  2023-11-01 10:03:21.895815
2445  2023-11-01 10:03:21.943747
2446  2023-11-01 10:03:21.991587
2447  2023-11-01 10:03:22.023511
2448  2023-11-01 10:03:22.071376
2449  2023-11-01 10:03:22.118257
2450  2023-11-01 10:03:22.149181
2451  2023-11-01 10:03:22.197057
2452  2023-11-01 10:03:22.228971
2453  2023-11-01 10:03:22.275845
2454  2023-11-01 10:03:22.322704
2455  2023-11-01 10:03:22.369580
2456  2023-11-01 10:03:22.401550
2457  2023-11-01 10:03:22.447423
2458  2023-11-01 10:03:22.479315
2459  2023-11-01 10:03:22.527217
2460  2023-11-01 10:03:22.576123
2461  2023-11-01 10:03:22.608012
2462  2023-11-01 10:03:22.652897
2463  2023-11-01 10:03:22.699723
2464  2023-11-01 10:03:22.731638
2465  2023-11-01 10:03:22.779655
2466  2023-11-01 10:03:22.827382
2467  2023-11-01 10:03:22.859297
2468  2023-11-01 10:03:22.906172
2469  2023-11-01 10:03:22.952081
2470  2023-11-01 10:03:22.982996
2471  2023-11-01 10:03:23.030867
2472  2023-11-01 10:03:23.076752
2473  2023-11-01 10:03:23.107634
2474  2023-11-01 10:03:23.154541
2475  2023-11-01 10:03:23.202412
2476  2023-11-01 10:03:23.233329
2477  2023-11-01 10:03:23.280256
2478  2023-11-01 10:03:23.327224
2479  2023-11-01 10:03:23.357096
2480  2023-11-01 10:03:23.403981
2481  2023-11-01 10:03:23.450880
2482  2023-11-01 10:03:23.481795
2483  2023-11-01 10:03:23.529675
2484  2023-11-01 10:03:23.577514
2485  2023-11-01 10:03:23.609423
2486  2023-11-01 10:03:23.655384
2487  2023-11-01 10:03:23.687299
2488  2023-11-01 10:03:23.735166
2489  2023-11-01 10:03:23.783038
2490  2023-11-01 10:03:23.814958
2491  2023-11-01 10:03:23.862653
2492  2023-11-01 10:03:23.910507
2493  2023-11-01 10:03:23.942395
2494  2023-11-01 10:03:23.988351
2495  2023-11-01 10:03:24.036217
2496  2023-11-01 10:03:24.068148
2497  2023-11-01 10:03:24.116009
2498  2023-11-01 10:03:24.146921
2499  2023-11-01 10:03:24.193796
2500  2023-11-01 10:03:24.241684
2501  2023-11-01 10:03:24.271606
2502  2023-11-01 10:03:24.318565
2503  2023-11-01 10:03:24.367454
2504  2023-11-01 10:03:24.397414
2505  2023-11-01 10:03:24.444289
2506  2023-11-01 10:03:24.492160
2507  2023-11-01 10:03:24.524074
2508  2023-11-01 10:03:24.569952
2509  2023-11-01 10:03:24.617861
2510  2023-11-01 10:03:24.649792
2511  2023-11-01 10:03:24.697667
2512  2023-11-01 10:03:24.729582
2513  2023-11-01 10:03:24.777493
2514  2023-11-01 10:03:24.825326
2515  2023-11-01 10:03:24.857241
2516  2023-11-01 10:03:24.903118
2517  2023-11-01 10:03:24.951159
2518  2023-11-01 10:03:24.982939
2519  2023-11-01 10:03:25.030810
2520  2023-11-01 10:03:25.062725
2521  2023-11-01 10:03:25.110609
2522  2023-11-01 10:03:25.158466
2523  2023-11-01 10:03:25.190381
2524  2023-11-01 10:03:25.238238
2525  2023-11-01 10:03:25.286145
2526  2023-11-01 10:03:25.318085
2527  2023-11-01 10:03:25.366019
2528  2023-11-01 10:03:25.397970
2529  2023-11-01 10:03:25.445856
2530  2023-11-01 10:03:25.492811
2531  2023-11-01 10:03:25.523758
2532  2023-11-01 10:03:25.571664
2533  2023-11-01 10:03:25.618588
2534  2023-11-01 10:03:25.649757
2535  2023-11-01 10:03:25.697675
2536  2023-11-01 10:03:25.729542
2537  2023-11-01 10:03:25.777414
2538  2023-11-01 10:03:25.825417
2539  2023-11-01 10:03:25.856324
2540  2023-11-01 10:03:25.904211
2541  2023-11-01 10:03:25.948403
2542  2023-11-01 10:03:25.982381
2543  2023-11-01 10:03:26.030224
2544  2023-11-01 10:03:26.076207
2545  2023-11-01 10:03:26.108123
2546  2023-11-01 10:03:26.155967
2547  2023-11-01 10:03:26.187873
2548  2023-11-01 10:03:26.235833
2549  2023-11-01 10:03:26.283707
2550  2023-11-01 10:03:26.315621
2551  2023-11-01 10:03:26.361581
2552  2023-11-01 10:03:26.409532
2553  2023-11-01 10:03:26.441443
2554  2023-11-01 10:03:26.489285
2555  2023-11-01 10:03:26.521200
2556  2023-11-01 10:03:26.569072
2557  2023-11-01 10:03:26.616944
2558  2023-11-01 10:03:26.649906
2559  2023-11-01 10:03:26.695733
2560  2023-11-01 10:03:26.742642
2561  2023-11-01 10:03:26.774553
2562  2023-11-01 10:03:26.820448
2563  2023-11-01 10:03:26.868303
2564  2023-11-01 10:03:26.900293
2565  2023-11-01 10:03:26.948322
2566  2023-11-01 10:03:26.980225
2567  2023-11-01 10:03:27.028113
2568  2023-11-01 10:03:27.075986
2569  2023-11-01 10:03:27.105859
2570  2023-11-01 10:03:27.153945
2571  2023-11-01 10:03:27.202002
2572  2023-11-01 10:03:27.233867
2573  2023-11-01 10:03:27.281772
2574  2023-11-01 10:03:27.313664
2575  2023-11-01 10:03:27.361556
2576  2023-11-01 10:03:27.407434
2577  2023-11-01 10:03:27.439349
2578  2023-11-01 10:03:27.487241
2579  2023-11-01 10:03:27.535106
2580  2023-11-01 10:03:27.567084
2581  2023-11-01 10:03:27.616100
2582  2023-11-01 10:03:27.660985
2583  2023-11-01 10:03:27.692889
2584  2023-11-01 10:03:27.740729
2585  2023-11-01 10:03:27.770798
2586  2023-11-01 10:03:27.815687
2587  2023-11-01 10:03:27.862525
2588  2023-11-01 10:03:27.908540
2589  2023-11-01 10:03:27.940469
2590  2023-11-01 10:03:27.988341
2591  2023-11-01 10:03:28.035253
2592  2023-11-01 10:03:28.067206
2593  2023-11-01 10:03:28.115071
2594  2023-11-01 10:03:28.146993
2595  2023-11-01 10:03:28.194999
2596  2023-11-01 10:03:28.242751
2597  2023-11-01 10:03:28.274647
2598  2023-11-01 10:03:28.319526
2599  2023-11-01 10:03:28.367407
2600  2023-11-01 10:03:28.399281
2601  2023-11-01 10:03:28.447185
2602  2023-11-01 10:03:28.495076
2603  2023-11-01 10:03:28.526979
2604  2023-11-01 10:03:28.574858
2605  2023-11-01 10:03:28.607728
2606  2023-11-01 10:03:28.655718
2607  2023-11-01 10:03:28.702597
2608  2023-11-01 10:03:28.734525
2609  2023-11-01 10:03:28.781401
2610  2023-11-01 10:03:28.813299
2611  2023-11-01 10:03:28.860170
2612  2023-11-01 10:03:28.909089
2613  2023-11-01 10:03:28.938928
2614  2023-11-01 10:03:28.986833
2615  2023-11-01 10:03:29.034672
2616  2023-11-01 10:03:29.068630
2617  2023-11-01 10:03:29.113558
2618  2023-11-01 10:03:29.160449
2619  2023-11-01 10:03:29.191366
2620  2023-11-01 10:03:29.239314
2621  2023-11-01 10:03:29.271405
2622  2023-11-01 10:03:29.319119
2623  2023-11-01 10:03:29.365994
2624  2023-11-01 10:03:29.396911
2625  2023-11-01 10:03:29.444929
2626  2023-11-01 10:03:29.490804
2627  2023-11-01 10:03:29.522826
2628  2023-11-01 10:03:29.570869
2629  2023-11-01 10:03:29.618579
2630  2023-11-01 10:03:29.650484
2631  2023-11-01 10:03:29.698356
2632  2023-11-01 10:03:29.730270
2633  2023-11-01 10:03:29.778112
2634  2023-11-01 10:03:29.824014
2635  2023-11-01 10:03:29.855931
2636  2023-11-01 10:03:29.902813
2637  2023-11-01 10:03:29.949832
2638  2023-11-01 10:03:29.981717
2639  2023-11-01 10:03:30.029554
2640  2023-11-01 10:03:30.079475
2641  2023-11-01 10:03:30.110366
2642  2023-11-01 10:03:30.158260
2643  2023-11-01 10:03:30.188182
2644  2023-11-01 10:03:30.236036
2645  2023-11-01 10:03:30.283930
2646  2023-11-01 10:03:30.315840
2647  2023-11-01 10:03:30.363698
2648  2023-11-01 10:03:30.411581
2649  2023-11-01 10:03:30.443598
2650  2023-11-01 10:03:30.491453
2651  2023-11-01 10:03:30.521341
2652  2023-11-01 10:03:30.568216
2653  2023-11-01 10:03:30.616144
2654  2023-11-01 10:03:30.648057
2655  2023-11-01 10:03:30.694016
2656  2023-11-01 10:03:30.742090
2657  2023-11-01 10:03:30.774043
2658  2023-11-01 10:03:30.822007
2659  2023-11-01 10:03:30.853952
2660  2023-11-01 10:03:30.899808
2661  2023-11-01 10:03:30.946706
2662  2023-11-01 10:03:30.993611
2663  2023-11-01 10:03:31.024596
2664  2023-11-01 10:03:31.071493
2665  2023-11-01 10:03:31.119356
2666  2023-11-01 10:03:31.151254
2667  2023-11-01 10:03:31.198133
2668  2023-11-01 10:03:31.229016
2669  2023-11-01 10:03:31.277918
2670  2023-11-01 10:03:31.324803
2671  2023-11-01 10:03:31.355678
2672  2023-11-01 10:03:31.405645
2673  2023-11-01 10:03:31.451455
2674  2023-11-01 10:03:31.483379
2675  2023-11-01 10:03:31.531235
2676  2023-11-01 10:03:31.577087
2677  2023-11-01 10:03:31.610000
2678  2023-11-01 10:03:31.656873
2679  2023-11-01 10:03:31.688788
2680  2023-11-01 10:03:31.735743
2681  2023-11-01 10:03:31.782664
2682  2023-11-01 10:03:31.814565
2683  2023-11-01 10:03:31.862404
2684  2023-11-01 10:03:31.910276
2685  2023-11-01 10:03:31.942222
2686  2023-11-01 10:03:31.990063
2687  2023-11-01 10:03:32.034943
2688  2023-11-01 10:03:32.066940
2689  2023-11-01 10:03:32.114763
2690  2023-11-01 10:03:32.160730
2691  2023-11-01 10:03:32.192695
2692  2023-11-01 10:03:32.240569
2693  2023-11-01 10:03:32.272452
2694  2023-11-01 10:03:32.320368
2695  2023-11-01 10:03:32.368197
2696  2023-11-01 10:03:32.400110
2697  2023-11-01 10:03:32.448127
2698  2023-11-01 10:03:32.480040
2699  2023-11-01 10:03:32.526906
2700  2023-11-01 10:03:32.575746
2701  2023-11-01 10:03:32.606662
2702  2023-11-01 10:03:32.654587
2703  2023-11-01 10:03:32.701451
2704  2023-11-01 10:03:32.732355
2705  2023-11-01 10:03:32.779354
2706  2023-11-01 10:03:32.826337
2707  2023-11-01 10:03:32.858271
2708  2023-11-01 10:03:32.907103
2709  2023-11-01 10:03:32.951970
2710  2023-11-01 10:03:32.982887
2711  2023-11-01 10:03:33.030759
2712  2023-11-01 10:03:33.062674
2713  2023-11-01 10:03:33.110630
2714  2023-11-01 10:03:33.158512
2715  2023-11-01 10:03:33.190427
2716  2023-11-01 10:03:33.238299
2717  2023-11-01 10:03:33.285220
2718  2023-11-01 10:03:33.316128
2719  2023-11-01 10:03:33.364011
2720  2023-11-01 10:03:33.395926
2721  2023-11-01 10:03:33.443783
2722  2023-11-01 10:03:33.489671
2723  2023-11-01 10:03:33.521570
2724  2023-11-01 10:03:33.569446
2725  2023-11-01 10:03:33.617317
2726  2023-11-01 10:03:33.650247
2727  2023-11-01 10:03:33.695125
2728  2023-11-01 10:03:33.741954
2729  2023-11-01 10:03:33.772872
2730  2023-11-01 10:03:33.819776
2731  2023-11-01 10:03:33.865699
2732  2023-11-01 10:03:33.897568
2733  2023-11-01 10:03:33.944412
2734  2023-11-01 10:03:33.994310
2735  2023-11-01 10:03:34.022204
2736  2023-11-01 10:03:34.070076
2737  2023-11-01 10:03:34.116982
2738  2023-11-01 10:03:34.147901
2739  2023-11-01 10:03:34.195781
2740  2023-11-01 10:03:34.243714
2741  2023-11-01 10:03:34.275744
2742  2023-11-01 10:03:34.322468
2743  2023-11-01 10:03:34.369424
2744  2023-11-01 10:03:34.401329
2745  2023-11-01 10:03:34.447220
2746  2023-11-01 10:03:34.479091
2747  2023-11-01 10:03:34.526997
2748  2023-11-01 10:03:34.574900
2749  2023-11-01 10:03:34.606785
2750  2023-11-01 10:03:34.654654
2751  2023-11-01 10:03:34.702550
2752  2023-11-01 10:03:34.733443
2753  2023-11-01 10:03:34.781338
2754  2023-11-01 10:03:34.813199
2755  2023-11-01 10:03:34.859107
2756  2023-11-01 10:03:34.907973
2757  2023-11-01 10:03:34.938860
2758  2023-11-01 10:03:34.987730
2759  2023-11-01 10:03:35.035638
2760  2023-11-01 10:03:35.067558
2761  2023-11-01 10:03:35.116387
2762  2023-11-01 10:03:35.147337
2763  2023-11-01 10:03:35.195204
2764  2023-11-01 10:03:35.243078
2765  2023-11-01 10:03:35.275018
2766  2023-11-01 10:03:35.320873
2767  2023-11-01 10:03:35.369740
2768  2023-11-01 10:03:35.401692
2769  2023-11-01 10:03:35.449548
2770  2023-11-01 10:03:35.481564
2771  2023-11-01 10:03:35.527411
2772  2023-11-01 10:03:35.574286
2773  2023-11-01 10:03:35.605266
2774  2023-11-01 10:03:35.652078
2775  2023-11-01 10:03:35.699950
2776  2023-11-01 10:03:35.731912
2777  2023-11-01 10:03:35.776871
2778  2023-11-01 10:03:35.823852
2779  2023-11-01 10:03:35.855781
2780  2023-11-01 10:03:35.901675
2781  2023-11-01 10:03:35.949516
2782  2023-11-01 10:03:35.981397
2783  2023-11-01 10:03:36.029311
2784  2023-11-01 10:03:36.078139
2785  2023-11-01 10:03:36.110085
2786  2023-11-01 10:03:36.156999
2787  2023-11-01 10:03:36.189910
2788  2023-11-01 10:03:36.234895
2789  2023-11-01 10:03:36.283786
2790  2023-11-01 10:03:36.314678
2791  2023-11-01 10:03:36.362550
2792  2023-11-01 10:03:36.410608
2793  2023-11-01 10:03:36.442496
2794  2023-11-01 10:03:36.490368
2795  2023-11-01 10:03:36.523237
2796  2023-11-01 10:03:36.570142
2797  2023-11-01 10:03:36.618016
2798  2023-11-01 10:03:36.649966
2799  2023-11-01 10:03:36.697802
2800  2023-11-01 10:03:36.729727
2801  2023-11-01 10:03:36.777626
2802  2023-11-01 10:03:36.824465
2803  2023-11-01 10:03:36.856380
2804  2023-11-01 10:03:36.902223
2805  2023-11-01 10:03:36.949133
2806  2023-11-01 10:03:36.981047
2807  2023-11-01 10:03:37.027915
2808  2023-11-01 10:03:37.073803
2809  2023-11-01 10:03:37.105715
2810  2023-11-01 10:03:37.152595
2811  2023-11-01 10:03:37.199622
2812  2023-11-01 10:03:37.230538
2813  2023-11-01 10:03:37.276411
2814  2023-11-01 10:03:37.322289
2815  2023-11-01 10:03:37.369164
2816  2023-11-01 10:03:37.401079
2817  2023-11-01 10:03:37.447973
2818  2023-11-01 10:03:37.492921
2819  2023-11-01 10:03:37.523752
2820  2023-11-01 10:03:37.570627
2821  2023-11-01 10:03:37.618464
2822  2023-11-01 10:03:37.650410
2823  2023-11-01 10:03:37.698251
2824  2023-11-01 10:03:37.730166
2825  2023-11-01 10:03:37.777074
2826  2023-11-01 10:03:37.824136
2827  2023-11-01 10:03:37.856052
2828  2023-11-01 10:03:37.903925
2829  2023-11-01 10:03:37.951802
2830  2023-11-01 10:03:37.983724
2831  2023-11-01 10:03:38.029600
2832  2023-11-01 10:03:38.078458
2833  2023-11-01 10:03:38.108395
2834  2023-11-01 10:03:38.155268
2835  2023-11-01 10:03:38.201096
2836  2023-11-01 10:03:38.233044
2837  2023-11-01 10:03:38.280936
2838  2023-11-01 10:03:38.313848
2839  2023-11-01 10:03:38.360702
2840  2023-11-01 10:03:38.408573
2841  2023-11-01 10:03:38.440456
2842  2023-11-01 10:03:38.488375
2843  2023-11-01 10:03:38.535237
2844  2023-11-01 10:03:38.567290
2845  2023-11-01 10:03:38.615243
2846  2023-11-01 10:03:38.647163
2847  2023-11-01 10:03:38.695034
2848  2023-11-01 10:03:38.743961
2849  2023-11-01 10:03:38.774819
2850  2023-11-01 10:03:38.823700
2851  2023-11-01 10:03:38.869532
2852  2023-11-01 10:03:38.900450
2853  2023-11-01 10:03:38.948354
2854  2023-11-01 10:03:38.980375
2855  2023-11-01 10:03:39.028274
2856  2023-11-01 10:03:39.075087
2857  2023-11-01 10:03:39.106003
2858  2023-11-01 10:03:39.151928
2859  2023-11-01 10:03:39.199771
2860  2023-11-01 10:03:39.229736
2861  2023-11-01 10:03:39.277612
2862  2023-11-01 10:03:39.325500
2863  2023-11-01 10:03:39.357413
2864  2023-11-01 10:03:39.405357
2865  2023-11-01 10:03:39.437300
2866  2023-11-01 10:03:39.485156
2867  2023-11-01 10:03:39.532024
2868  2023-11-01 10:03:39.563940
2869  2023-11-01 10:03:39.611818
2870  2023-11-01 10:03:39.659672
2871  2023-11-01 10:03:39.691577
2872  2023-11-01 10:03:39.739460
2873  2023-11-01 10:03:39.771376
2874  2023-11-01 10:03:39.819248
2875  2023-11-01 10:03:39.865136
2876  2023-11-01 10:03:39.897039
2877  2023-11-01 10:03:39.942928
2878  2023-11-01 10:03:39.990790
2879  2023-11-01 10:03:40.020676
2880  2023-11-01 10:03:40.067552
2881  2023-11-01 10:03:40.114457
2882  2023-11-01 10:03:40.160351
2883  2023-11-01 10:03:40.191259
2884  2023-11-01 10:03:40.239127
2885  2023-11-01 10:03:40.271042
2886  2023-11-01 10:03:40.318921
2887  2023-11-01 10:03:40.366785
2888  2023-11-01 10:03:40.398715
2889  2023-11-01 10:03:40.446573
2890  2023-11-01 10:03:40.494444
2891  2023-11-01 10:03:40.525360
2892  2023-11-01 10:03:40.573239
2893  2023-11-01 10:03:40.605114
2894  2023-11-01 10:03:40.653056
2895  2023-11-01 10:03:40.701102
2896  2023-11-01 10:03:40.733998
2897  2023-11-01 10:03:40.780919
2898  2023-11-01 10:03:40.812792
2899  2023-11-01 10:03:40.860670
2900  2023-11-01 10:03:40.908530
2901  2023-11-01 10:03:40.940448
2902  2023-11-01 10:03:40.986340
2903  2023-11-01 10:03:41.033166
2904  2023-11-01 10:03:41.064112
2905  2023-11-01 10:03:41.110003
2906  2023-11-01 10:03:41.157864
2907  2023-11-01 10:03:41.189779
2908  2023-11-01 10:03:41.237651
2909  2023-11-01 10:03:41.285523
2910  2023-11-01 10:03:41.318454
2911  2023-11-01 10:03:41.366304
2912  2023-11-01 10:03:41.398222
2913  2023-11-01 10:03:41.446096
2914  2023-11-01 10:03:41.493967
2915  2023-11-01 10:03:41.525881
2916  2023-11-01 10:03:41.573748
2917  2023-11-01 10:03:41.618599
2918  2023-11-01 10:03:41.650549
2919  2023-11-01 10:03:41.698386
2920  2023-11-01 10:03:41.730301
2921  2023-11-01 10:03:41.778205
2922  2023-11-01 10:03:41.825229
2923  2023-11-01 10:03:41.855998
2924  2023-11-01 10:03:41.903868
2925  2023-11-01 10:03:41.951741
2926  2023-11-01 10:03:41.983666
2927  2023-11-01 10:03:42.031496
2928  2023-11-01 10:03:42.062413
2929  2023-11-01 10:03:42.109345
2930  2023-11-01 10:03:42.157210
2931  2023-11-01 10:03:42.189123
2932  2023-11-01 10:03:42.237946
2933  2023-11-01 10:03:42.282857
2934  2023-11-01 10:03:42.314772
2935  2023-11-01 10:03:42.362645
2936  2023-11-01 10:03:42.410509
2937  2023-11-01 10:03:42.442431
2938  2023-11-01 10:03:42.489307
2939  2023-11-01 10:03:42.536194
2940  2023-11-01 10:03:42.568109
2941  2023-11-01 10:03:42.615983
2942  2023-11-01 10:03:42.647859
2943  2023-11-01 10:03:42.695723
2944  2023-11-01 10:03:42.743650
2945  2023-11-01 10:03:42.775539
2946  2023-11-01 10:03:42.823412
2947  2023-11-01 10:03:42.855327
2948  2023-11-01 10:03:42.903215
2949  2023-11-01 10:03:42.950073
2950  2023-11-01 10:03:42.982987
2951  2023-11-01 10:03:43.029861
2952  2023-11-01 10:03:43.077749
2953  2023-11-01 10:03:43.109617
2954  2023-11-01 10:03:43.157521
2955  2023-11-01 10:03:43.189447
2956  2023-11-01 10:03:43.237306
2957  2023-11-01 10:03:43.282189
2958  2023-11-01 10:03:43.313104
2959  2023-11-01 10:03:43.361001
2960  2023-11-01 10:03:43.407846
2961  2023-11-01 10:03:43.440793
2962  2023-11-01 10:03:43.487638
2963  2023-11-01 10:03:43.535483
2964  2023-11-01 10:03:43.566394
2965  2023-11-01 10:03:43.613302
2966  2023-11-01 10:03:43.661169
2967  2023-11-01 10:03:43.693099
2968  2023-11-01 10:03:43.741984
2969  2023-11-01 10:03:43.773873
2970  2023-11-01 10:03:43.820746
2971  2023-11-01 10:03:43.868732
2972  2023-11-01 10:03:43.900535
2973  2023-11-01 10:03:43.948406
2974  2023-11-01 10:03:43.980320
2975  2023-11-01 10:03:44.028195
2976  2023-11-01 10:03:44.076032
2977  2023-11-01 10:03:44.108041
2978  2023-11-01 10:03:44.154971
2979  2023-11-01 10:03:44.201848
2980  2023-11-01 10:03:44.233760
2981  2023-11-01 10:03:44.280634
2982  2023-11-01 10:03:44.327477
2983  2023-11-01 10:03:44.359468
2984  2023-11-01 10:03:44.406304
2985  2023-11-01 10:03:44.454168
2986  2023-11-01 10:03:44.482106
2987  2023-11-01 10:03:44.529984
2988  2023-11-01 10:03:44.577849
2989  2023-11-01 10:03:44.609722
2990  2023-11-01 10:03:44.657628
2991  2023-11-01 10:03:44.689541
2992  2023-11-01 10:03:44.737413
2993  2023-11-01 10:03:44.785287
2994  2023-11-01 10:03:44.817199
2995  2023-11-01 10:03:44.865075
2996  2023-11-01 10:03:44.896988
2997  2023-11-01 10:03:44.943892
2998  2023-11-01 10:03:44.990738
2999  2023-11-01 10:03:45.022655
3000  2023-11-01 10:03:45.070491
3001  2023-11-01 10:03:45.118394
3002  2023-11-01 10:03:45.150312
3003  2023-11-01 10:03:45.198182
3004  2023-11-01 10:03:45.230064
3005  2023-11-01 10:03:45.277970
3006  2023-11-01 10:03:45.325840
3007  2023-11-01 10:03:45.356756
3008  2023-11-01 10:03:45.403636
3009  2023-11-01 10:03:45.449508
3010  2023-11-01 10:03:45.481432
3011  2023-11-01 10:03:45.529297
3012  2023-11-01 10:03:45.576207
3013  2023-11-01 10:03:45.609183
3014  2023-11-01 10:03:45.656063
3015  2023-11-01 10:03:45.687981
3016  2023-11-01 10:03:45.735833
3017  2023-11-01 10:03:45.783705
3018  2023-11-01 10:03:45.815668
3019  2023-11-01 10:03:45.863604
3020  2023-11-01 10:03:45.910479
3021  2023-11-01 10:03:45.941512
3022  2023-11-01 10:03:45.989239
3023  2023-11-01 10:03:46.021187
3024  2023-11-01 10:03:46.069057
3025  2023-11-01 10:03:46.117928
3026  2023-11-01 10:03:46.147854
3027  2023-11-01 10:03:46.195748
3028  2023-11-01 10:03:46.241597
3029  2023-11-01 10:03:46.273512
3030  2023-11-01 10:03:46.321388
3031  2023-11-01 10:03:46.369276
3032  2023-11-01 10:03:46.401174
3033  2023-11-01 10:03:46.447014
3034  2023-11-01 10:03:46.492928
3035  2023-11-01 10:03:46.523810
3036  2023-11-01 10:03:46.569717
3037  2023-11-01 10:03:46.617558
3038  2023-11-01 10:03:46.648510
3039  2023-11-01 10:03:46.696379
3040  2023-11-01 10:03:46.744282
3041  2023-11-01 10:03:46.776184
3042  2023-11-01 10:03:46.823009
3043  2023-11-01 10:03:46.854971
3044  2023-11-01 10:03:46.902829
3045  2023-11-01 10:03:46.950700
3046  2023-11-01 10:03:46.981624
3047  2023-11-01 10:03:47.028462
3048  2023-11-01 10:03:47.075361
3049  2023-11-01 10:03:47.107287
3050  2023-11-01 10:03:47.152165
3051  2023-11-01 10:03:47.200059
3052  2023-11-01 10:03:47.231950
3053  2023-11-01 10:03:47.280011
3054  2023-11-01 10:03:47.327694
3055  2023-11-01 10:03:47.359577
3056  2023-11-01 10:03:47.407450
3057  2023-11-01 10:03:47.439362
3058  2023-11-01 10:03:47.487236
3059  2023-11-01 10:03:47.536139
3060  2023-11-01 10:03:47.568019
3061  2023-11-01 10:03:47.614893
3062  2023-11-01 10:03:47.660772
3063  2023-11-01 10:03:47.692710
3064  2023-11-01 10:03:47.738593
3065  2023-11-01 10:03:47.785438
3066  2023-11-01 10:03:47.816488
3067  2023-11-01 10:03:47.864260
3068  2023-11-01 10:03:47.896186
3069  2023-11-01 10:03:47.944061
3070  2023-11-01 10:03:47.991934
3071  2023-11-01 10:03:48.023855
3072  2023-11-01 10:03:48.070706
3073  2023-11-01 10:03:48.118579
3074  2023-11-01 10:03:48.150494
3075  2023-11-01 10:03:48.198374
3076  2023-11-01 10:03:48.230290
3077  2023-11-01 10:03:48.278173
3078  2023-11-01 10:03:48.326025
3079  2023-11-01 10:03:48.356946
3080  2023-11-01 10:03:48.402818
3081  2023-11-01 10:03:48.450693
3082  2023-11-01 10:03:48.482574
3083  2023-11-01 10:03:48.530473
3084  2023-11-01 10:03:48.578350
3085  2023-11-01 10:03:48.610234
3086  2023-11-01 10:03:48.655143
3087  2023-11-01 10:03:48.701988
3088  2023-11-01 10:03:48.733966
3089  2023-11-01 10:03:48.780845
3090  2023-11-01 10:03:48.812692
3091  2023-11-01 10:03:48.860595
3092  2023-11-01 10:03:48.907439
3093  2023-11-01 10:03:48.939353
3094  2023-11-01 10:03:48.987257
3095  2023-11-01 10:03:49.034174
3096  2023-11-01 10:03:49.065061
3097  2023-11-01 10:03:49.113929
3098  2023-11-01 10:03:49.160841
3099  2023-11-01 10:03:49.192751
3100  2023-11-01 10:03:49.237771
3101  2023-11-01 10:03:49.284635
3102  2023-11-01 10:03:49.316583
3103  2023-11-01 10:03:49.364422
3104  2023-11-01 10:03:49.396329
3105  2023-11-01 10:03:49.442211
3106  2023-11-01 10:03:49.490236
3107  2023-11-01 10:03:49.522151
3108  2023-11-01 10:03:49.570023
3109  2023-11-01 10:03:49.617896
3110  2023-11-01 10:03:49.649779
3111  2023-11-01 10:03:49.697700
3112  2023-11-01 10:03:49.743530
3113  2023-11-01 10:03:49.774479
3114  2023-11-01 10:03:49.822351
3115  2023-11-01 10:03:49.854262
3116  2023-11-01 10:03:49.902137
3117  2023-11-01 10:03:49.950028
3118  2023-11-01 10:03:49.982033
3119  2023-11-01 10:03:50.030015
3120  2023-11-01 10:03:50.078078
3121  2023-11-01 10:03:50.107948
3122  2023-11-01 10:03:50.154856
3123  2023-11-01 10:03:50.200767
3124  2023-11-01 10:03:50.231684
3125  2023-11-01 10:03:50.278645
3126  2023-11-01 10:03:50.325499
3127  2023-11-01 10:03:50.357417
3128  2023-11-01 10:03:50.405292
3129  2023-11-01 10:03:50.452194
3130  2023-11-01 10:03:50.484096
3131  2023-11-01 10:03:50.528959
3132  2023-11-01 10:03:50.577822
3133  2023-11-01 10:03:50.609744
3134  2023-11-01 10:03:50.654602
3135  2023-11-01 10:03:50.702464
3136  2023-11-01 10:03:50.733381
3137  2023-11-01 10:03:50.780255
3138  2023-11-01 10:03:50.827130
3139  2023-11-01 10:03:50.858087
3140  2023-11-01 10:03:50.904922
3141  2023-11-01 10:03:50.950846
3142  2023-11-01 10:03:50.982743
3143  2023-11-01 10:03:51.029648
3144  2023-11-01 10:03:51.076509
3145  2023-11-01 10:03:51.108423
3146  2023-11-01 10:03:51.156249
3147  2023-11-01 10:03:51.188194
3148  2023-11-01 10:03:51.236082
3149  2023-11-01 10:03:51.283956
3150  2023-11-01 10:03:51.315859
3151  2023-11-01 10:03:51.362728
3152  2023-11-01 10:03:51.410598
3153  2023-11-01 10:03:51.443513
3154  2023-11-01 10:03:51.488392
3155  2023-11-01 10:03:51.537277
3156  2023-11-01 10:03:51.566156
3157  2023-11-01 10:03:51.614027
3158  2023-11-01 10:03:51.645942
3159  2023-11-01 10:03:51.693858
3160  2023-11-01 10:03:51.740689
3161  2023-11-01 10:03:51.771770
3162  2023-11-01 10:03:51.819643
3163  2023-11-01 10:03:51.867514
3164  2023-11-01 10:03:51.899429
3165  2023-11-01 10:03:51.947304
3166  2023-11-01 10:03:51.979217
3167  2023-11-01 10:03:52.028151
3168  2023-11-01 10:03:52.075196
3169  2023-11-01 10:03:52.105147
3170  2023-11-01 10:03:52.154015
3171  2023-11-01 10:03:52.200894
3172  2023-11-01 10:03:52.232808
3173  2023-11-01 10:03:52.280682
3174  2023-11-01 10:03:52.312591
3175  2023-11-01 10:03:52.360466
3176  2023-11-01 10:03:52.408306
3177  2023-11-01 10:03:52.440252
3178  2023-11-01 10:03:52.488093
3179  2023-11-01 10:03:52.535965
3180  2023-11-01 10:03:52.567880
3181  2023-11-01 10:03:52.615791
3182  2023-11-01 10:03:52.647740
3183  2023-11-01 10:03:52.695577
3184  2023-11-01 10:03:52.743449
3185  2023-11-01 10:03:52.775364
3186  2023-11-01 10:03:52.823236
3187  2023-11-01 10:03:52.854225
3188  2023-11-01 10:03:52.901101
3189  2023-11-01 10:03:52.948981
3190  2023-11-01 10:03:52.980889
3191  2023-11-01 10:03:53.028757
3192  2023-11-01 10:03:53.076628
3193  2023-11-01 10:03:53.108585
3194  2023-11-01 10:03:53.156513
3195  2023-11-01 10:03:53.188428
3196  2023-11-01 10:03:53.236318
3197  2023-11-01 10:03:53.284172
3198  2023-11-01 10:03:53.316105
3199  2023-11-01 10:03:53.363962
3200  2023-11-01 10:03:53.395905
3201  2023-11-01 10:03:53.443748
3202  2023-11-01 10:03:53.491642
3203  2023-11-01 10:03:53.523535
3204  2023-11-01 10:03:53.570407
3205  2023-11-01 10:03:53.618278
3206  2023-11-01 10:03:53.649222
3207  2023-11-01 10:03:53.696066
3208  2023-11-01 10:03:53.741953
3209  2023-11-01 10:03:53.772834
3210  2023-11-01 10:03:53.820741
3211  2023-11-01 10:03:53.868578
3212  2023-11-01 10:03:53.899495
3213  2023-11-01 10:03:53.947367
3214  2023-11-01 10:03:53.979282
3215  2023-11-01 10:03:54.025159
3216  2023-11-01 10:03:54.071069
3217  2023-11-01 10:03:54.118943
3218  2023-11-01 10:03:54.150885
3219  2023-11-01 10:03:54.198727
3220  2023-11-01 10:03:54.230645
3221  2023-11-01 10:03:54.278587
3222  2023-11-01 10:03:54.326428
3223  2023-11-01 10:03:54.358376
3224  2023-11-01 10:03:54.406245
3225  2023-11-01 10:03:54.438176
3226  2023-11-01 10:03:54.486035
3227  2023-11-01 10:03:54.533873
3228  2023-11-01 10:03:54.565822
3229  2023-11-01 10:03:54.613717
3230  2023-11-01 10:03:54.659571
3231  2023-11-01 10:03:54.691486
3232  2023-11-01 10:03:54.739364
3233  2023-11-01 10:03:54.785236
3234  2023-11-01 10:03:54.817148
3235  2023-11-01 10:03:54.866029
3236  2023-11-01 10:03:54.897931
3237  2023-11-01 10:03:54.944777
3238  2023-11-01 10:03:54.990725
3239  2023-11-01 10:03:55.022720
3240  2023-11-01 10:03:55.071560
3241  2023-11-01 10:03:55.119431
3242  2023-11-01 10:03:55.151454
3243  2023-11-01 10:03:55.198435
3244  2023-11-01 10:03:55.244335
3245  2023-11-01 10:03:55.276249
3246  2023-11-01 10:03:55.322169
3247  2023-11-01 10:03:55.367123
3248  2023-11-01 10:03:55.398009
3249  2023-11-01 10:03:55.445955
3250  2023-11-01 10:03:55.493794
3251  2023-11-01 10:03:55.525708
3252  2023-11-01 10:03:55.573612
3253  2023-11-01 10:03:55.605525
3254  2023-11-01 10:03:55.652400
3255  2023-11-01 10:03:55.699277
3256  2023-11-01 10:03:55.731192
3257  2023-11-01 10:03:55.779075
3258  2023-11-01 10:03:55.826937
3259  2023-11-01 10:03:55.858852
3260  2023-11-01 10:03:55.905725
3261  2023-11-01 10:03:55.952604
3262  2023-11-01 10:03:55.984514
3263  2023-11-01 10:03:56.032430
3264  2023-11-01 10:03:56.065352
3265  2023-11-01 10:03:56.110224
3266  2023-11-01 10:03:56.158116
3267  2023-11-01 10:03:56.191011
3268  2023-11-01 10:03:56.238908
3269  2023-11-01 10:03:56.285754
3270  2023-11-01 10:03:56.318682
3271  2023-11-01 10:03:56.366550
3272  2023-11-01 10:03:56.396458
3273  2023-11-01 10:03:56.443302
3274  2023-11-01 10:03:56.490210
3275  2023-11-01 10:03:56.522161
3276  2023-11-01 10:03:56.570131
3277  2023-11-01 10:03:56.618052
3278  2023-11-01 10:03:56.649968
3279  2023-11-01 10:03:56.697838
3280  2023-11-01 10:03:56.729753
3281  2023-11-01 10:03:56.777625
3282  2023-11-01 10:03:56.825535
3283  2023-11-01 10:03:56.857585
3284  2023-11-01 10:03:56.905428
3285  2023-11-01 10:03:56.937460
3286  2023-11-01 10:03:56.985363
3287  2023-11-01 10:03:57.033205
3288  2023-11-01 10:03:57.065119
3289  2023-11-01 10:03:57.114015
3290  2023-11-01 10:03:57.161911
3291  2023-11-01 10:03:57.191781
3292  2023-11-01 10:03:57.238656
3293  2023-11-01 10:03:57.270600
3294  2023-11-01 10:03:57.318474
3295  2023-11-01 10:03:57.366314
3296  2023-11-01 10:03:57.398391
3297  2023-11-01 10:03:57.446165
3298  2023-11-01 10:03:57.494167
3299  2023-11-01 10:03:57.525032
3300  2023-11-01 10:03:57.572938
3301  2023-11-01 10:03:57.604853
3302  2023-11-01 10:03:57.652822
3303  2023-11-01 10:03:57.700720
3304  2023-11-01 10:03:57.732631
3305  2023-11-01 10:03:57.779477
3306  2023-11-01 10:03:57.827348
3307  2023-11-01 10:03:57.859298
3308  2023-11-01 10:03:57.907235
3309  2023-11-01 10:03:57.940115
3310  2023-11-01 10:03:57.986990
3311  2023-11-01 10:03:58.034862
3312  2023-11-01 10:03:58.065780
3313  2023-11-01 10:03:58.113705
3314  2023-11-01 10:03:58.159565
3315  2023-11-01 10:03:58.190453
3316  2023-11-01 10:03:58.237430
3317  2023-11-01 10:03:58.285302
3318  2023-11-01 10:03:58.317356
3319  2023-11-01 10:03:58.366114
3320  2023-11-01 10:03:58.398142
3321  2023-11-01 10:03:58.445956
3322  2023-11-01 10:03:58.490881
3323  2023-11-01 10:03:58.522870
3324  2023-11-01 10:03:58.570708
3325  2023-11-01 10:03:58.618620
3326  2023-11-01 10:03:58.650536
3327  2023-11-01 10:03:58.698431
3328  2023-11-01 10:03:58.730347
3329  2023-11-01 10:03:58.778268
3330  2023-11-01 10:03:58.825092
3331  2023-11-01 10:03:58.858067
3332  2023-11-01 10:03:58.905036
3333  2023-11-01 10:03:58.951808
3334  2023-11-01 10:03:58.983724
3335  2023-11-01 10:03:59.032606
3336  2023-11-01 10:03:59.063542
3337  2023-11-01 10:03:59.111381
3338  2023-11-01 10:03:59.159042
3339  2023-11-01 10:03:59.190957
3340  2023-11-01 10:03:59.238828
3341  2023-11-01 10:03:59.270858
3342  2023-11-01 10:03:59.317702
3343  2023-11-01 10:03:59.364609
3344  2023-11-01 10:03:59.396523
3345  2023-11-01 10:03:59.443482
3346  2023-11-01 10:03:59.490332
3347  2023-11-01 10:03:59.522239
3348  2023-11-01 10:03:59.569115
3349  2023-11-01 10:03:59.616012
3350  2023-11-01 10:03:59.648928
3351  2023-11-01 10:03:59.695794
3352  2023-11-01 10:03:59.744693
3353  2023-11-01 10:03:59.776574
3354  2023-11-01 10:03:59.823433
3355  2023-11-01 10:03:59.856345
3356  2023-11-01 10:03:59.903223
3357  2023-11-01 10:03:59.951092
3358  2023-11-01 10:03:59.982013
3359  2023-11-01 10:04:00.028887
3360  2023-11-01 10:04:00.076763
3361  2023-11-01 10:04:00.106742
3362  2023-11-01 10:04:00.153651
3363  2023-11-01 10:04:00.201610
3364  2023-11-01 10:04:00.233524
3365  2023-11-01 10:04:00.281398
3366  2023-11-01 10:04:00.313311
3367  2023-11-01 10:04:00.362182
3368  2023-11-01 10:04:00.409097
3369  2023-11-01 10:04:00.440970
3370  2023-11-01 10:04:00.489900
3371  2023-11-01 10:04:00.520757
3372  2023-11-01 10:04:00.567632
3373  2023-11-01 10:04:00.614538
3374  2023-11-01 10:04:00.646453
3375  2023-11-01 10:04:00.694296
3376  2023-11-01 10:04:00.742198
3377  2023-11-01 10:04:00.774080
3378  2023-11-01 10:04:00.821994
3379  2023-11-01 10:04:00.867830
3380  2023-11-01 10:04:00.899778
3381  2023-11-01 10:04:00.946671
3382  2023-11-01 10:04:00.992528
3383  2023-11-01 10:04:01.023448
3384  2023-11-01 10:04:01.071355
3385  2023-11-01 10:04:01.119160
3386  2023-11-01 10:04:01.151106
3387  2023-11-01 10:04:01.200979
3388  2023-11-01 10:04:01.230894
3389  2023-11-01 10:04:01.279866
3390  2023-11-01 10:04:01.326782
3391  2023-11-01 10:04:01.359700
3392  2023-11-01 10:04:01.407556
3393  2023-11-01 10:04:01.438475
3394  2023-11-01 10:04:01.487345
3395  2023-11-01 10:04:01.535241
3396  2023-11-01 10:04:01.566103
3397  2023-11-01 10:04:01.614048
3398  2023-11-01 10:04:01.646886
3399  2023-11-01 10:04:01.694800
3400  2023-11-01 10:04:01.740635
3401  2023-11-01 10:04:01.771596
3402  2023-11-01 10:04:01.819489
3403  2023-11-01 10:04:01.867448
3404  2023-11-01 10:04:01.899366
3405  2023-11-01 10:04:01.947237
3406  2023-11-01 10:04:01.992086
3407  2023-11-01 10:04:02.023004
3408  2023-11-01 10:04:02.070876
3409  2023-11-01 10:04:02.118748
3410  2023-11-01 10:04:02.150663
3411  2023-11-01 10:04:02.196540
3412  2023-11-01 10:04:02.244465
3413  2023-11-01 10:04:02.276493
3414  2023-11-01 10:04:02.322251
3415  2023-11-01 10:04:02.354119
3416  2023-11-01 10:04:02.402023
3417  2023-11-01 10:04:02.449898
3418  2023-11-01 10:04:02.481823
3419  2023-11-01 10:04:02.527050
3420  2023-11-01 10:04:02.574028
3421  2023-11-01 10:04:02.605958
3422  2023-11-01 10:04:02.652789
3423  2023-11-01 10:04:02.700697
3424  2023-11-01 10:04:02.732574
3425  2023-11-01 10:04:02.780476
3426  2023-11-01 10:04:02.813387
3427  2023-11-01 10:04:02.860448
3428  2023-11-01 10:04:02.907324
3429  2023-11-01 10:04:02.939231
3430  2023-11-01 10:04:02.988101
3431  2023-11-01 10:04:03.035152
3432  2023-11-01 10:04:03.066950
3433  2023-11-01 10:04:03.112831
3434  2023-11-01 10:04:03.160771
3435  2023-11-01 10:04:03.194739
3436  2023-11-01 10:04:03.240702
3437  2023-11-01 10:04:03.272617
3438  2023-11-01 10:04:03.320489
3439  2023-11-01 10:04:03.368361
3440  2023-11-01 10:04:03.400275
3441  2023-11-01 10:04:03.447181
3442  2023-11-01 10:04:03.493994
3443  2023-11-01 10:04:03.525909
3444  2023-11-01 10:04:03.573936
3445  2023-11-01 10:04:03.605850
3446  2023-11-01 10:04:03.652734
3447  2023-11-01 10:04:03.699609
3448  2023-11-01 10:04:03.731621
3449  2023-11-01 10:04:03.778581
3450  2023-11-01 10:04:03.825486
3451  2023-11-01 10:04:03.857400
3452  2023-11-01 10:04:03.905276
3453  2023-11-01 10:04:03.952177
3454  2023-11-01 10:04:03.984064
3455  2023-11-01 10:04:04.031942
3456  2023-11-01 10:04:04.063846
3457  2023-11-01 10:04:04.111721
3458  2023-11-01 10:04:04.158628
3459  2023-11-01 10:04:04.190533
3460  2023-11-01 10:04:04.238384
3461  2023-11-01 10:04:04.285270
3462  2023-11-01 10:04:04.317142
3463  2023-11-01 10:04:04.362232
3464  2023-11-01 10:04:04.410072
3465  2023-11-01 10:04:04.442023
3466  2023-11-01 10:04:04.490012
3467  2023-11-01 10:04:04.522949
3468  2023-11-01 10:04:04.569798
3469  2023-11-01 10:04:04.618670
3470  2023-11-01 10:04:04.650604
3471  2023-11-01 10:04:04.698452
3472  2023-11-01 10:04:04.746335
3473  2023-11-01 10:04:04.778240
3474  2023-11-01 10:04:04.826115
3475  2023-11-01 10:04:04.858029
3476  2023-11-01 10:04:04.903872
3477  2023-11-01 10:04:04.948798
3478  2023-11-01 10:04:04.979723
3479  2023-11-01 10:04:05.027673
3480  2023-11-01 10:04:05.075539
3481  2023-11-01 10:04:05.106470
3482  2023-11-01 10:04:05.152332
3483  2023-11-01 10:04:05.200175
3484  2023-11-01 10:04:05.232119
3485  2023-11-01 10:04:05.280000
3486  2023-11-01 10:04:05.326948
3487  2023-11-01 10:04:05.357798
3488  2023-11-01 10:04:05.405675
3489  2023-11-01 10:04:05.452531
3490  2023-11-01 10:04:05.484443
3491  2023-11-01 10:04:05.532317
3492  2023-11-01 10:04:05.564231
3493  2023-11-01 10:04:05.612117
3494  2023-11-01 10:04:05.659976
3495  2023-11-01 10:04:05.691889
3496  2023-11-01 10:04:05.739773
3497  2023-11-01 10:04:05.770688
3498  2023-11-01 10:04:05.819590
3499  2023-11-01 10:04:05.868388
3500  2023-11-01 10:04:05.898309
3501  2023-11-01 10:04:05.948214
3502  2023-11-01 10:04:05.993084
3503  2023-11-01 10:04:06.026005
3504  2023-11-01 10:04:06.072883
3505  2023-11-01 10:04:06.105772
3506  2023-11-01 10:04:06.153669
3507  2023-11-01 10:04:06.198506
3508  2023-11-01 10:04:06.229423
3509  2023-11-01 10:04:06.276373
3510  2023-11-01 10:04:06.324279
3511  2023-11-01 10:04:06.355197
3512  2023-11-01 10:04:06.402107
3513  2023-11-01 10:04:06.449976
3514  2023-11-01 10:04:06.481915
3515  2023-11-01 10:04:06.529870
3516  2023-11-01 10:04:06.577760
3517  2023-11-01 10:04:06.609658
3518  2023-11-01 10:04:06.657496
3519  2023-11-01 10:04:06.689462
3520  2023-11-01 10:04:06.736317
3521  2023-11-01 10:04:06.783193
3522  2023-11-01 10:04:06.815141
3523  2023-11-01 10:04:06.862979
3524  2023-11-01 10:04:06.910851
3525  2023-11-01 10:04:06.942768
3526  2023-11-01 10:04:06.990606
3527  2023-11-01 10:04:07.022551
3528  2023-11-01 10:04:07.069397
3529  2023-11-01 10:04:07.116317
3530  2023-11-01 10:04:07.147216
3531  2023-11-01 10:04:07.196112
3532  2023-11-01 10:04:07.240973
3533  2023-11-01 10:04:07.272858
3534  2023-11-01 10:04:07.320803
3535  2023-11-01 10:04:07.368676
3536  2023-11-01 10:04:07.397567
3537  2023-11-01 10:04:07.444474
3538  2023-11-01 10:04:07.492314
3539  2023-11-01 10:04:07.524228
3540  2023-11-01 10:04:07.572146
3541  2023-11-01 10:04:07.604061
3542  2023-11-01 10:04:07.650923
3543  2023-11-01 10:04:07.697798
3544  2023-11-01 10:04:07.743653
3545  2023-11-01 10:04:07.775557
3546  2023-11-01 10:04:07.823491
3547  2023-11-01 10:04:07.855344
3548  2023-11-01 10:04:07.903242
3549  2023-11-01 10:04:07.951126
3550  2023-11-01 10:04:07.983035
3551  2023-11-01 10:04:08.028932
3552  2023-11-01 10:04:08.074801
3553  2023-11-01 10:04:08.106705
3554  2023-11-01 10:04:08.154576
3555  2023-11-01 10:04:08.200452
3556  2023-11-01 10:04:08.232362
3557  2023-11-01 10:04:08.280209
3558  2023-11-01 10:04:08.328140
3559  2023-11-01 10:04:08.360049
3560  2023-11-01 10:04:08.407898
3561  2023-11-01 10:04:08.452778
