
1  2023-10-25 15:42:42.551653
2  2023-10-25 15:42:42.584535
3  2023-10-25 15:42:42.631686
4  2023-10-25 15:42:42.664640
5  2023-10-25 15:42:42.696510
6  2023-10-25 15:42:42.728426
7  2023-10-25 15:42:42.760341
8  2023-10-25 15:42:42.792257
9  2023-10-25 15:42:42.824178
10  2023-10-25 15:42:42.856085
11  2023-10-25 15:42:42.888000
12  2023-10-25 15:42:42.919972
13  2023-10-25 15:42:42.951901
14  2023-10-25 15:42:42.983877
15  2023-10-25 15:42:43.032689
16  2023-10-25 15:42:43.064604
17  2023-10-25 15:42:43.096549
18  2023-10-25 15:42:43.128433
19  2023-10-25 15:42:43.160349
20  2023-10-25 15:42:43.192299
21  2023-10-25 15:42:43.224177
22  2023-10-25 15:42:43.256124
23  2023-10-25 15:42:43.288058
24  2023-10-25 15:42:43.319921
25  2023-10-25 15:42:43.351835
26  2023-10-25 15:42:43.383751
27  2023-10-25 15:42:43.431676
28  2023-10-25 15:42:43.464587
29  2023-10-25 15:42:43.496503
30  2023-10-25 15:42:43.528416
31  2023-10-25 15:42:43.560331
32  2023-10-25 15:42:43.592246
33  2023-10-25 15:42:43.624161
34  2023-10-25 15:42:43.656076
35  2023-10-25 15:42:43.687990
36  2023-10-25 15:42:43.719905
37  2023-10-25 15:42:43.751855
38  2023-10-25 15:42:43.783820
39  2023-10-25 15:42:43.831648
40  2023-10-25 15:42:43.864572
41  2023-10-25 15:42:43.896510
42  2023-10-25 15:42:43.928425
43  2023-10-25 15:42:43.960339
44  2023-10-25 15:42:43.992254
45  2023-10-25 15:42:44.024169
46  2023-10-25 15:42:44.056160
47  2023-10-25 15:42:44.088075
48  2023-10-25 15:42:44.119991
49  2023-10-25 15:42:44.151905
50  2023-10-25 15:42:44.183820
51  2023-10-25 15:42:44.231691
52  2023-10-25 15:42:44.263871
53  2023-10-25 15:42:44.295852
54  2023-10-25 15:42:44.327750
55  2023-10-25 15:42:44.359659
56  2023-10-25 15:42:44.391573
57  2023-10-25 15:42:44.424442
58  2023-10-25 15:42:44.456537
59  2023-10-25 15:42:44.488357
60  2023-10-25 15:42:44.520296
61  2023-10-25 15:42:44.552289
62  2023-10-25 15:42:44.584242
63  2023-10-25 15:42:44.632021
64  2023-10-25 15:42:44.663937
65  2023-10-25 15:42:44.695848
66  2023-10-25 15:42:44.727763
67  2023-10-25 15:42:44.759677
68  2023-10-25 15:42:44.792595
69  2023-10-25 15:42:44.824504
70  2023-10-25 15:42:44.856419
71  2023-10-25 15:42:44.888334
72  2023-10-25 15:42:44.920250
73  2023-10-25 15:42:44.952165
74  2023-10-25 15:42:44.984128
75  2023-10-25 15:42:45.031950
76  2023-10-25 15:42:45.063865
77  2023-10-25 15:42:45.096776
78  2023-10-25 15:42:45.127694
79  2023-10-25 15:42:45.159609
80  2023-10-25 15:42:45.191523
81  2023-10-25 15:42:45.224435
82  2023-10-25 15:42:45.256427
83  2023-10-25 15:42:45.288340
84  2023-10-25 15:42:45.320256
85  2023-10-25 15:42:45.352170
86  2023-10-25 15:42:45.384085
87  2023-10-25 15:42:45.432039
88  2023-10-25 15:42:45.463950
89  2023-10-25 15:42:45.495854
90  2023-10-25 15:42:45.527736
91  2023-10-25 15:42:45.559684
92  2023-10-25 15:42:45.591565
93  2023-10-25 15:42:45.624176
94  2023-10-25 15:42:45.656195
95  2023-10-25 15:42:45.688137
96  2023-10-25 15:42:45.720029
97  2023-10-25 15:42:45.751969
98  2023-10-25 15:42:45.783844
99  2023-10-25 15:42:45.831685
100  2023-10-25 15:42:45.864598
101  2023-10-25 15:42:45.896513
102  2023-10-25 15:42:45.928427
103  2023-10-25 15:42:45.960358
104  2023-10-25 15:42:45.992296
105  2023-10-25 15:42:46.023991
106  2023-10-25 15:42:46.055898
107  2023-10-25 15:42:46.087921
108  2023-10-25 15:42:46.119805
109  2023-10-25 15:42:46.151717
110  2023-10-25 15:42:46.183680
111  2023-10-25 15:42:46.232529
112  2023-10-25 15:42:46.264469
113  2023-10-25 15:42:46.296332
114  2023-10-25 15:42:46.328274
115  2023-10-25 15:42:46.360160
116  2023-10-25 15:42:46.392079
117  2023-10-25 15:42:46.424024
118  2023-10-25 15:42:46.455910
119  2023-10-25 15:42:46.487896
120  2023-10-25 15:42:46.519733
121  2023-10-25 15:42:46.551694
122  2023-10-25 15:42:46.600545
123  2023-10-25 15:42:46.632191
124  2023-10-25 15:42:46.664102
125  2023-10-25 15:42:46.696105
126  2023-10-25 15:42:46.728180
127  2023-10-25 15:42:46.760094
128  2023-10-25 15:42:46.792004
129  2023-10-25 15:42:46.823944
130  2023-10-25 15:42:46.856446
131  2023-10-25 15:42:46.888405
132  2023-10-25 15:42:46.920264
133  2023-10-25 15:42:46.952262
134  2023-10-25 15:42:47.000168
135  2023-10-25 15:42:47.032091
136  2023-10-25 15:42:47.063995
137  2023-10-25 15:42:47.095937
138  2023-10-25 15:42:47.127797
139  2023-10-25 15:42:47.159758
140  2023-10-25 15:42:47.191668
141  2023-10-25 15:42:47.223581
142  2023-10-25 15:42:47.256486
143  2023-10-25 15:42:47.288363
144  2023-10-25 15:42:47.320278
145  2023-10-25 15:42:47.352239
146  2023-10-25 15:42:47.400066
147  2023-10-25 15:42:47.431980
148  2023-10-25 15:42:47.463895
149  2023-10-25 15:42:47.495849
150  2023-10-25 15:42:47.527806
151  2023-10-25 15:42:47.559777
152  2023-10-25 15:42:47.591742
153  2023-10-25 15:42:47.623628
154  2023-10-25 15:42:47.655571
155  2023-10-25 15:42:47.688526
156  2023-10-25 15:42:47.720441
157  2023-10-25 15:42:47.752390
158  2023-10-25 15:42:47.800264
159  2023-10-25 15:42:47.832195
160  2023-10-25 15:42:47.864059
161  2023-10-25 15:42:47.896012
162  2023-10-25 15:42:47.927886
163  2023-10-25 15:42:47.959801
164  2023-10-25 15:42:47.991716
165  2023-10-25 15:42:48.023661
166  2023-10-25 15:42:48.055992
167  2023-10-25 15:42:48.087923
168  2023-10-25 15:42:48.119921
169  2023-10-25 15:42:48.151802
170  2023-10-25 15:42:48.199684
171  2023-10-25 15:42:48.232587
172  2023-10-25 15:42:48.264508
173  2023-10-25 15:42:48.296457
174  2023-10-25 15:42:48.328330
175  2023-10-25 15:42:48.360245
176  2023-10-25 15:42:48.392203
177  2023-10-25 15:42:48.424143
178  2023-10-25 15:42:48.455989
179  2023-10-25 15:42:48.487903
180  2023-10-25 15:42:48.519830
181  2023-10-25 15:42:48.551765
182  2023-10-25 15:42:48.599737
183  2023-10-25 15:42:48.631746
184  2023-10-25 15:42:48.663662
185  2023-10-25 15:42:48.696574
186  2023-10-25 15:42:48.727490
187  2023-10-25 15:42:48.760410
188  2023-10-25 15:42:48.792316
189  2023-10-25 15:42:48.824231
190  2023-10-25 15:42:48.856146
191  2023-10-25 15:42:48.888060
192  2023-10-25 15:42:48.919975
193  2023-10-25 15:42:48.951934
194  2023-10-25 15:42:48.999762
195  2023-10-25 15:42:49.031676
196  2023-10-25 15:42:49.063769
197  2023-10-25 15:42:49.095649
198  2023-10-25 15:42:49.128561
199  2023-10-25 15:42:49.160476
200  2023-10-25 15:42:49.192390
201  2023-10-25 15:42:49.224305
202  2023-10-25 15:42:49.256220
203  2023-10-25 15:42:49.288134
204  2023-10-25 15:42:49.320049
205  2023-10-25 15:42:49.351963
206  2023-10-25 15:42:49.399836
207  2023-10-25 15:42:49.431750
208  2023-10-25 15:42:49.463698
209  2023-10-25 15:42:49.496577
210  2023-10-25 15:42:49.527494
211  2023-10-25 15:42:49.560406
212  2023-10-25 15:42:49.592321
213  2023-10-25 15:42:49.624235
214  2023-10-25 15:42:49.656150
215  2023-10-25 15:42:49.688065
216  2023-10-25 15:42:49.719979
217  2023-10-25 15:42:49.751950
218  2023-10-25 15:42:49.799766
219  2023-10-25 15:42:49.831681
220  2023-10-25 15:42:49.863787
221  2023-10-25 15:42:49.895671
222  2023-10-25 15:42:49.928129
223  2023-10-25 15:42:49.960044
224  2023-10-25 15:42:49.991959
225  2023-10-25 15:42:50.023873
226  2023-10-25 15:42:50.055788
227  2023-10-25 15:42:50.087703
228  2023-10-25 15:42:50.119617
229  2023-10-25 15:42:50.168519
230  2023-10-25 15:42:50.200402
231  2023-10-25 15:42:50.232319
232  2023-10-25 15:42:50.264231
233  2023-10-25 15:42:50.296171
234  2023-10-25 15:42:50.328061
235  2023-10-25 15:42:50.359975
236  2023-10-25 15:42:50.391889
237  2023-10-25 15:42:50.424802
238  2023-10-25 15:42:50.455753
239  2023-10-25 15:42:50.487730
240  2023-10-25 15:42:50.519644
241  2023-10-25 15:42:50.568577
242  2023-10-25 15:42:50.600470
243  2023-10-25 15:42:50.632400
244  2023-10-25 15:42:50.664312
245  2023-10-25 15:42:50.696173
246  2023-10-25 15:42:50.728087
247  2023-10-25 15:42:50.760029
248  2023-10-25 15:42:50.791917
249  2023-10-25 15:42:50.823831
250  2023-10-25 15:42:50.855746
251  2023-10-25 15:42:50.887660
252  2023-10-25 15:42:50.919657
253  2023-10-25 15:42:50.968579
254  2023-10-25 15:42:51.000442
255  2023-10-25 15:42:51.032356
256  2023-10-25 15:42:51.064271
257  2023-10-25 15:42:51.096185
258  2023-10-25 15:42:51.128100
259  2023-10-25 15:42:51.160014
260  2023-10-25 15:42:51.191930
261  2023-10-25 15:42:51.223844
262  2023-10-25 15:42:51.255758
263  2023-10-25 15:42:51.287673
264  2023-10-25 15:42:51.319588
265  2023-10-25 15:42:51.368457
266  2023-10-25 15:42:51.400372
267  2023-10-25 15:42:51.432287
268  2023-10-25 15:42:51.464201
269  2023-10-25 15:42:51.496116
270  2023-10-25 15:42:51.528030
271  2023-10-25 15:42:51.559945
272  2023-10-25 15:42:51.591860
273  2023-10-25 15:42:51.623804
274  2023-10-25 15:42:51.655767
275  2023-10-25 15:42:51.687681
276  2023-10-25 15:42:51.720593
277  2023-10-25 15:42:51.768559
278  2023-10-25 15:42:51.800541
279  2023-10-25 15:42:51.832389
280  2023-10-25 15:42:51.864357
281  2023-10-25 15:42:51.896218
282  2023-10-25 15:42:51.928227
283  2023-10-25 15:42:51.960187
284  2023-10-25 15:42:51.992056
285  2023-10-25 15:42:52.023971
286  2023-10-25 15:42:52.055885
287  2023-10-25 15:42:52.087854
288  2023-10-25 15:42:52.119715
289  2023-10-25 15:42:52.168637
290  2023-10-25 15:42:52.200535
291  2023-10-25 15:42:52.232414
292  2023-10-25 15:42:52.264376
293  2023-10-25 15:42:52.296346
294  2023-10-25 15:42:52.328259
295  2023-10-25 15:42:52.360369
296  2023-10-25 15:42:52.392282
297  2023-10-25 15:42:52.424201
298  2023-10-25 15:42:52.456163
299  2023-10-25 15:42:52.488078
300  2023-10-25 15:42:52.520141
301  2023-10-25 15:42:52.568398
302  2023-10-25 15:42:52.600314
303  2023-10-25 15:42:52.632267
304  2023-10-25 15:42:52.664184
305  2023-10-25 15:42:52.696056
306  2023-10-25 15:42:52.727971
307  2023-10-25 15:42:52.759885
308  2023-10-25 15:42:52.791800
309  2023-10-25 15:42:52.823717
310  2023-10-25 15:42:52.855629
311  2023-10-25 15:42:52.888541
312  2023-10-25 15:42:52.920456
313  2023-10-25 15:42:52.968383
314  2023-10-25 15:42:53.000243
315  2023-10-25 15:42:53.032158
316  2023-10-25 15:42:53.064073
317  2023-10-25 15:42:53.095987
318  2023-10-25 15:42:53.127909
319  2023-10-25 15:42:53.159816
320  2023-10-25 15:42:53.191731
321  2023-10-25 15:42:53.223645
322  2023-10-25 15:42:53.255560
323  2023-10-25 15:42:53.288473
324  2023-10-25 15:42:53.320387
325  2023-10-25 15:42:53.368259
326  2023-10-25 15:42:53.400174
327  2023-10-25 15:42:53.432089
328  2023-10-25 15:42:53.464004
329  2023-10-25 15:42:53.495971
330  2023-10-25 15:42:53.527832
331  2023-10-25 15:42:53.559747
332  2023-10-25 15:42:53.591700
333  2023-10-25 15:42:53.623608
334  2023-10-25 15:42:53.656488
335  2023-10-25 15:42:53.688403
336  2023-10-25 15:42:53.736275
337  2023-10-25 15:42:53.768254
338  2023-10-25 15:42:53.800136
339  2023-10-25 15:42:53.832047
340  2023-10-25 15:42:53.863934
341  2023-10-25 15:42:53.895903
342  2023-10-25 15:42:53.927499
343  2023-10-25 15:42:53.960493
344  2023-10-25 15:42:53.992406
345  2023-10-25 15:42:54.024397
346  2023-10-25 15:42:54.056394
347  2023-10-25 15:42:54.088345
348  2023-10-25 15:42:54.136210
349  2023-10-25 15:42:54.168171
350  2023-10-25 15:42:54.200086
351  2023-10-25 15:42:54.232001
352  2023-10-25 15:42:54.263991
353  2023-10-25 15:42:54.295856
354  2023-10-25 15:42:54.327744
355  2023-10-25 15:42:54.359659
356  2023-10-25 15:42:54.392429
357  2023-10-25 15:42:54.424344
358  2023-10-25 15:42:54.456258
359  2023-10-25 15:42:54.488173
360  2023-10-25 15:42:54.536045
361  2023-10-25 15:42:54.568015
362  2023-10-25 15:42:54.599876
363  2023-10-25 15:42:54.631842
364  2023-10-25 15:42:54.663704
365  2023-10-25 15:42:54.696617
366  2023-10-25 15:42:54.727533
367  2023-10-25 15:42:54.760445
368  2023-10-25 15:42:54.792360
369  2023-10-25 15:42:54.824274
370  2023-10-25 15:42:54.856195
371  2023-10-25 15:42:54.888104
372  2023-10-25 15:42:54.935989
373  2023-10-25 15:42:54.968048
374  2023-10-25 15:42:54.999935
375  2023-10-25 15:42:55.032859
376  2023-10-25 15:42:55.063766
377  2023-10-25 15:42:55.096678
378  2023-10-25 15:42:55.128596
379  2023-10-25 15:42:55.160508
380  2023-10-25 15:42:55.192421
381  2023-10-25 15:42:55.224335
382  2023-10-25 15:42:55.256250
383  2023-10-25 15:42:55.288165
384  2023-10-25 15:42:55.336039
385  2023-10-25 15:42:55.367951
386  2023-10-25 15:42:55.399866
387  2023-10-25 15:42:55.431780
388  2023-10-25 15:42:55.463698
389  2023-10-25 15:42:55.496635
390  2023-10-25 15:42:55.527524
391  2023-10-25 15:42:55.560437
392  2023-10-25 15:42:55.592390
393  2023-10-25 15:42:55.624307
394  2023-10-25 15:42:55.656180
395  2023-10-25 15:42:55.688095
396  2023-10-25 15:42:55.735967
397  2023-10-25 15:42:55.767918
398  2023-10-25 15:42:55.799797
399  2023-10-25 15:42:55.831739
400  2023-10-25 15:42:55.864624
401  2023-10-25 15:42:55.896594
402  2023-10-25 15:42:55.927533
403  2023-10-25 15:42:55.960479
404  2023-10-25 15:42:55.991512
405  2023-10-25 15:42:56.024447
406  2023-10-25 15:42:56.056458
407  2023-10-25 15:42:56.088352
408  2023-10-25 15:42:56.136249
409  2023-10-25 15:42:56.168212
410  2023-10-25 15:42:56.200096
411  2023-10-25 15:42:56.232011
412  2023-10-25 15:42:56.263985
413  2023-10-25 15:42:56.295840
414  2023-10-25 15:42:56.327755
415  2023-10-25 15:42:56.359669
416  2023-10-25 15:42:56.391584
417  2023-10-25 15:42:56.423724
418  2023-10-25 15:42:56.455638
419  2023-10-25 15:42:56.487553
420  2023-10-25 15:42:56.536423
421  2023-10-25 15:42:56.568337
422  2023-10-25 15:42:56.600282
423  2023-10-25 15:42:56.632217
424  2023-10-25 15:42:56.664081
425  2023-10-25 15:42:56.695996
426  2023-10-25 15:42:56.727918
427  2023-10-25 15:42:56.759827
428  2023-10-25 15:42:56.791741
429  2023-10-25 15:42:56.824653
430  2023-10-25 15:42:56.855570
431  2023-10-25 15:42:56.888487
432  2023-10-25 15:42:56.936356
433  2023-10-25 15:42:56.968269
434  2023-10-25 15:42:57.000184
435  2023-10-25 15:42:57.032099
436  2023-10-25 15:42:57.064015
437  2023-10-25 15:42:57.095929
438  2023-10-25 15:42:57.127924
439  2023-10-25 15:42:57.159922
440  2023-10-25 15:42:57.191813
441  2023-10-25 15:42:57.223724
442  2023-10-25 15:42:57.255681
443  2023-10-25 15:42:57.287560
444  2023-10-25 15:42:57.336555
445  2023-10-25 15:42:57.368442
446  2023-10-25 15:42:57.400369
447  2023-10-25 15:42:57.432272
448  2023-10-25 15:42:57.464221
449  2023-10-25 15:42:57.496248
450  2023-10-25 15:42:57.528103
451  2023-10-25 15:42:57.560017
452  2023-10-25 15:42:57.591988
453  2023-10-25 15:42:57.623878
454  2023-10-25 15:42:57.655761
455  2023-10-25 15:42:57.704632
456  2023-10-25 15:42:57.736579
457  2023-10-25 15:42:57.768460
458  2023-10-25 15:42:57.800375
459  2023-10-25 15:42:57.832290
460  2023-10-25 15:42:57.864019
461  2023-10-25 15:42:57.896052
462  2023-10-25 15:42:57.927927
463  2023-10-25 15:42:57.959831
464  2023-10-25 15:42:57.991746
465  2023-10-25 15:42:58.023661
466  2023-10-25 15:42:58.055580
467  2023-10-25 15:42:58.104445
468  2023-10-25 15:42:58.136403
469  2023-10-25 15:42:58.168302
470  2023-10-25 15:42:58.200189
471  2023-10-25 15:42:58.232104
472  2023-10-25 15:42:58.264018
473  2023-10-25 15:42:58.295933
474  2023-10-25 15:42:58.327847
475  2023-10-25 15:42:58.359762
476  2023-10-25 15:42:58.391677
477  2023-10-25 15:42:58.423591
478  2023-10-25 15:42:58.456511
479  2023-10-25 15:42:58.504377
480  2023-10-25 15:42:58.536326
481  2023-10-25 15:42:58.568205
482  2023-10-25 15:42:58.600120
483  2023-10-25 15:42:58.632069
484  2023-10-25 15:42:58.663972
485  2023-10-25 15:42:58.695879
486  2023-10-25 15:42:58.727778
487  2023-10-25 15:42:58.759693
488  2023-10-25 15:42:58.792620
489  2023-10-25 15:42:58.823570
490  2023-10-25 15:42:58.856450
491  2023-10-25 15:42:58.904321
492  2023-10-25 15:42:58.936236
493  2023-10-25 15:42:58.968150
494  2023-10-25 15:42:59.000065
495  2023-10-25 15:42:59.031980
496  2023-10-25 15:42:59.063901
497  2023-10-25 15:42:59.096806
498  2023-10-25 15:42:59.127753
499  2023-10-25 15:42:59.160516
500  2023-10-25 15:42:59.192430
501  2023-10-25 15:42:59.224345
502  2023-10-25 15:42:59.256395
503  2023-10-25 15:42:59.304332
504  2023-10-25 15:42:59.336271
505  2023-10-25 15:42:59.368135
506  2023-10-25 15:42:59.400050
507  2023-10-25 15:42:59.431965
508  2023-10-25 15:42:59.463914
509  2023-10-25 15:42:59.495795
510  2023-10-25 15:42:59.527708
511  2023-10-25 15:42:59.559623
512  2023-10-25 15:42:59.591537
513  2023-10-25 15:42:59.624450
514  2023-10-25 15:42:59.656364
515  2023-10-25 15:42:59.704279
516  2023-10-25 15:42:59.736193
517  2023-10-25 15:42:59.768268
518  2023-10-25 15:42:59.800217
519  2023-10-25 15:42:59.832098
520  2023-10-25 15:42:59.864045
521  2023-10-25 15:42:59.895927
522  2023-10-25 15:42:59.927841
523  2023-10-25 15:42:59.959756
524  2023-10-25 15:42:59.992668
525  2023-10-25 15:43:00.024583
526  2023-10-25 15:43:00.056497
527  2023-10-25 15:43:00.104380
528  2023-10-25 15:43:00.136722
529  2023-10-25 15:43:00.168637
530  2023-10-25 15:43:00.200553
531  2023-10-25 15:43:00.232466
532  2023-10-25 15:43:00.264429
533  2023-10-25 15:43:00.296440
534  2023-10-25 15:43:00.328356
535  2023-10-25 15:43:00.360240
536  2023-10-25 15:43:00.392154
537  2023-10-25 15:43:00.424102
538  2023-10-25 15:43:00.456009
539  2023-10-25 15:43:00.503909
540  2023-10-25 15:43:00.535812
541  2023-10-25 15:43:00.567685
542  2023-10-25 15:43:00.600597
543  2023-10-25 15:43:00.632550
544  2023-10-25 15:43:00.664472
545  2023-10-25 15:43:00.696393
546  2023-10-25 15:43:00.728255
547  2023-10-25 15:43:00.760236
548  2023-10-25 15:43:00.792116
549  2023-10-25 15:43:00.823999
550  2023-10-25 15:43:00.855914
551  2023-10-25 15:43:00.903819
552  2023-10-25 15:43:00.936698
553  2023-10-25 15:43:00.968613
554  2023-10-25 15:43:01.000528
555  2023-10-25 15:43:01.032479
556  2023-10-25 15:43:01.063970
557  2023-10-25 15:43:01.095965
558  2023-10-25 15:43:01.127937
559  2023-10-25 15:43:01.159852
560  2023-10-25 15:43:01.191767
561  2023-10-25 15:43:01.223681
562  2023-10-25 15:43:01.271604
563  2023-10-25 15:43:01.304465
564  2023-10-25 15:43:01.336380
565  2023-10-25 15:43:01.368296
566  2023-10-25 15:43:01.400210
567  2023-10-25 15:43:01.432124
568  2023-10-25 15:43:01.464040
569  2023-10-25 15:43:01.495955
570  2023-10-25 15:43:01.527868
571  2023-10-25 15:43:01.559783
572  2023-10-25 15:43:01.591697
573  2023-10-25 15:43:01.624610
574  2023-10-25 15:43:01.672481
575  2023-10-25 15:43:01.704478
576  2023-10-25 15:43:01.736312
577  2023-10-25 15:43:01.768266
578  2023-10-25 15:43:01.800180
579  2023-10-25 15:43:01.833091
580  2023-10-25 15:43:01.864010
581  2023-10-25 15:43:01.895927
582  2023-10-25 15:43:01.927868
583  2023-10-25 15:43:01.959845
584  2023-10-25 15:43:01.991804
585  2023-10-25 15:43:02.023719
586  2023-10-25 15:43:02.072588
587  2023-10-25 15:43:02.104552
588  2023-10-25 15:43:02.136418
589  2023-10-25 15:43:02.168385
590  2023-10-25 15:43:02.200247
591  2023-10-25 15:43:02.232162
592  2023-10-25 15:43:02.264076
593  2023-10-25 15:43:02.296030
594  2023-10-25 15:43:02.327905
595  2023-10-25 15:43:02.359820
596  2023-10-25 15:43:02.391735
597  2023-10-25 15:43:02.423693
598  2023-10-25 15:43:02.472520
599  2023-10-25 15:43:02.504473
600  2023-10-25 15:43:02.536410
601  2023-10-25 15:43:02.568265
602  2023-10-25 15:43:02.600234
603  2023-10-25 15:43:02.632147
604  2023-10-25 15:43:02.664007
605  2023-10-25 15:43:02.695922
606  2023-10-25 15:43:02.727836
607  2023-10-25 15:43:02.759786
608  2023-10-25 15:43:02.791714
609  2023-10-25 15:43:02.824577
610  2023-10-25 15:43:02.872450
611  2023-10-25 15:43:02.904365
612  2023-10-25 15:43:02.936279
613  2023-10-25 15:43:02.968225
614  2023-10-25 15:43:03.000109
615  2023-10-25 15:43:03.032023
616  2023-10-25 15:43:03.063938
617  2023-10-25 15:43:03.095911
618  2023-10-25 15:43:03.127767
619  2023-10-25 15:43:03.159842
620  2023-10-25 15:43:03.191756
621  2023-10-25 15:43:03.223671
622  2023-10-25 15:43:03.271544
623  2023-10-25 15:43:03.304455
624  2023-10-25 15:43:03.336370
625  2023-10-25 15:43:03.368293
626  2023-10-25 15:43:03.400255
627  2023-10-25 15:43:03.432114
628  2023-10-25 15:43:03.464061
629  2023-10-25 15:43:03.496007
630  2023-10-25 15:43:03.527872
631  2023-10-25 15:43:03.559772
632  2023-10-25 15:43:03.591687
633  2023-10-25 15:43:03.624600
634  2023-10-25 15:43:03.672533
635  2023-10-25 15:43:03.704445
636  2023-10-25 15:43:03.736394
637  2023-10-25 15:43:03.768274
638  2023-10-25 15:43:03.800189
639  2023-10-25 15:43:03.832104
640  2023-10-25 15:43:03.864018
641  2023-10-25 15:43:03.896033
642  2023-10-25 15:43:03.927934
643  2023-10-25 15:43:03.959881
644  2023-10-25 15:43:03.991792
645  2023-10-25 15:43:04.023706
646  2023-10-25 15:43:04.072547
647  2023-10-25 15:43:04.104464
648  2023-10-25 15:43:04.136406
649  2023-10-25 15:43:04.168325
650  2023-10-25 15:43:04.200206
651  2023-10-25 15:43:04.232121
652  2023-10-25 15:43:04.264042
653  2023-10-25 15:43:04.296946
654  2023-10-25 15:43:04.327864
655  2023-10-25 15:43:04.359807
656  2023-10-25 15:43:04.391725
657  2023-10-25 15:43:04.423608
658  2023-10-25 15:43:04.472478
659  2023-10-25 15:43:04.504393
660  2023-10-25 15:43:04.536341
661  2023-10-25 15:43:04.568348
662  2023-10-25 15:43:04.600238
663  2023-10-25 15:43:04.632250
664  2023-10-25 15:43:04.664185
665  2023-10-25 15:43:04.696029
666  2023-10-25 15:43:04.727944
667  2023-10-25 15:43:04.759891
668  2023-10-25 15:43:04.792172
669  2023-10-25 15:43:04.823907
670  2023-10-25 15:43:04.871869
671  2023-10-25 15:43:04.903774
672  2023-10-25 15:43:04.935711
673  2023-10-25 15:43:04.968734
674  2023-10-25 15:43:05.000576
675  2023-10-25 15:43:05.032490
676  2023-10-25 15:43:05.064441
677  2023-10-25 15:43:05.096318
678  2023-10-25 15:43:05.128274
679  2023-10-25 15:43:05.160148
680  2023-10-25 15:43:05.192062
681  2023-10-25 15:43:05.239992
682  2023-10-25 15:43:05.271849
683  2023-10-25 15:43:05.303817
684  2023-10-25 15:43:05.335726
685  2023-10-25 15:43:05.368601
686  2023-10-25 15:43:05.400505
687  2023-10-25 15:43:05.432489
688  2023-10-25 15:43:05.464404
689  2023-10-25 15:43:05.496388
690  2023-10-25 15:43:05.528356
691  2023-10-25 15:43:05.560271
692  2023-10-25 15:43:05.592186
693  2023-10-25 15:43:05.640066
694  2023-10-25 15:43:05.671973
695  2023-10-25 15:43:05.703887
696  2023-10-25 15:43:05.736830
697  2023-10-25 15:43:05.768752
698  2023-10-25 15:43:05.800629
699  2023-10-25 15:43:05.832593
700  2023-10-25 15:43:05.864458
701  2023-10-25 15:43:05.896372
702  2023-10-25 15:43:05.928287
703  2023-10-25 15:43:05.960202
704  2023-10-25 15:43:05.992117
705  2023-10-25 15:43:06.040987
706  2023-10-25 15:43:06.071903
707  2023-10-25 15:43:06.104819
708  2023-10-25 15:43:06.136776
709  2023-10-25 15:43:06.168676
710  2023-10-25 15:43:06.200561
711  2023-10-25 15:43:06.232474
712  2023-10-25 15:43:06.264390
713  2023-10-25 15:43:06.296333
714  2023-10-25 15:43:06.328229
715  2023-10-25 15:43:06.360133
716  2023-10-25 15:43:06.392047
717  2023-10-25 15:43:06.439919
718  2023-10-25 15:43:06.472833
719  2023-10-25 15:43:06.503753
720  2023-10-25 15:43:06.536663
721  2023-10-25 15:43:06.568576
722  2023-10-25 15:43:06.600545
723  2023-10-25 15:43:06.632407
724  2023-10-25 15:43:06.664321
725  2023-10-25 15:43:06.696235
726  2023-10-25 15:43:06.728149
727  2023-10-25 15:43:06.760083
728  2023-10-25 15:43:06.792024
729  2023-10-25 15:43:06.839853
730  2023-10-25 15:43:06.872764
731  2023-10-25 15:43:06.904722
732  2023-10-25 15:43:06.936631
733  2023-10-25 15:43:06.968506
734  2023-10-25 15:43:07.000421
735  2023-10-25 15:43:07.032485
736  2023-10-25 15:43:07.064404
737  2023-10-25 15:43:07.096260
738  2023-10-25 15:43:07.128175
739  2023-10-25 15:43:07.160091
740  2023-10-25 15:43:07.192006
741  2023-10-25 15:43:07.239911
742  2023-10-25 15:43:07.271793
743  2023-10-25 15:43:07.304704
744  2023-10-25 15:43:07.336664
745  2023-10-25 15:43:07.368533
746  2023-10-25 15:43:07.400460
747  2023-10-25 15:43:07.432363
748  2023-10-25 15:43:07.464287
749  2023-10-25 15:43:07.496191
750  2023-10-25 15:43:07.528107
751  2023-10-25 15:43:07.560020
752  2023-10-25 15:43:07.591940
753  2023-10-25 15:43:07.639837
754  2023-10-25 15:43:07.671724
755  2023-10-25 15:43:07.704659
756  2023-10-25 15:43:07.736592
757  2023-10-25 15:43:07.768463
758  2023-10-25 15:43:07.800378
759  2023-10-25 15:43:07.832314
760  2023-10-25 15:43:07.864215
761  2023-10-25 15:43:07.896176
762  2023-10-25 15:43:07.928047
763  2023-10-25 15:43:07.959962
764  2023-10-25 15:43:07.991946
765  2023-10-25 15:43:08.040746
766  2023-10-25 15:43:08.072681
767  2023-10-25 15:43:08.104633
768  2023-10-25 15:43:08.136479
769  2023-10-25 15:43:08.168397
770  2023-10-25 15:43:08.200342
771  2023-10-25 15:43:08.232225
772  2023-10-25 15:43:08.264139
773  2023-10-25 15:43:08.296131
774  2023-10-25 15:43:08.328966
775  2023-10-25 15:43:08.359959
776  2023-10-25 15:43:08.391944
777  2023-10-25 15:43:08.440936
778  2023-10-25 15:43:08.471919
779  2023-10-25 15:43:08.503767
780  2023-10-25 15:43:08.536697
781  2023-10-25 15:43:08.568619
782  2023-10-25 15:43:08.600509
783  2023-10-25 15:43:08.632433
784  2023-10-25 15:43:08.664337
785  2023-10-25 15:43:08.696253
786  2023-10-25 15:43:08.728228
787  2023-10-25 15:43:08.760083
788  2023-10-25 15:43:08.809039
789  2023-10-25 15:43:08.840003
790  2023-10-25 15:43:08.871914
791  2023-10-25 15:43:08.903838
792  2023-10-25 15:43:08.936701
793  2023-10-25 15:43:08.968639
794  2023-10-25 15:43:09.000593
795  2023-10-25 15:43:09.032472
796  2023-10-25 15:43:09.064356
797  2023-10-25 15:43:09.096273
798  2023-10-25 15:43:09.128238
799  2023-10-25 15:43:09.160133
800  2023-10-25 15:43:09.208101
801  2023-10-25 15:43:09.240189
802  2023-10-25 15:43:09.272103
803  2023-10-25 15:43:09.303995
804  2023-10-25 15:43:09.336339
805  2023-10-25 15:43:09.368287
806  2023-10-25 15:43:09.400170
807  2023-10-25 15:43:09.432141
808  2023-10-25 15:43:09.464004
809  2023-10-25 15:43:09.495969
810  2023-10-25 15:43:09.527893
811  2023-10-25 15:43:09.559743
812  2023-10-25 15:43:09.608660
813  2023-10-25 15:43:09.640570
814  2023-10-25 15:43:09.672442
815  2023-10-25 15:43:09.704389
816  2023-10-25 15:43:09.736306
817  2023-10-25 15:43:09.768186
818  2023-10-25 15:43:09.800158
819  2023-10-25 15:43:09.832016
820  2023-10-25 15:43:09.863988
821  2023-10-25 15:43:09.895896
822  2023-10-25 15:43:09.927796
823  2023-10-25 15:43:09.960710
824  2023-10-25 15:43:10.008544
825  2023-10-25 15:43:10.040458
826  2023-10-25 15:43:10.072398
827  2023-10-25 15:43:10.104315
828  2023-10-25 15:43:10.136253
829  2023-10-25 15:43:10.168149
830  2023-10-25 15:43:10.200066
831  2023-10-25 15:43:10.232064
832  2023-10-25 15:43:10.264025
833  2023-10-25 15:43:10.296856
834  2023-10-25 15:43:10.327847
835  2023-10-25 15:43:10.359763
836  2023-10-25 15:43:10.407798
837  2023-10-25 15:43:10.440637
838  2023-10-25 15:43:10.472591
839  2023-10-25 15:43:10.504527
840  2023-10-25 15:43:10.536415
841  2023-10-25 15:43:10.568296
842  2023-10-25 15:43:10.600219
843  2023-10-25 15:43:10.632127
844  2023-10-25 15:43:10.664094
845  2023-10-25 15:43:10.695985
846  2023-10-25 15:43:10.727899
847  2023-10-25 15:43:10.759843
848  2023-10-25 15:43:10.808729
849  2023-10-25 15:43:10.840611
850  2023-10-25 15:43:10.872519
851  2023-10-25 15:43:10.904440
852  2023-10-25 15:43:10.936312
853  2023-10-25 15:43:10.968282
854  2023-10-25 15:43:11.000142
855  2023-10-25 15:43:11.032099
856  2023-10-25 15:43:11.063970
857  2023-10-25 15:43:11.095916
858  2023-10-25 15:43:11.128042
859  2023-10-25 15:43:11.160087
860  2023-10-25 15:43:11.207950
861  2023-10-25 15:43:11.239821
862  2023-10-25 15:43:11.271808
863  2023-10-25 15:43:11.303655
864  2023-10-25 15:43:11.336598
865  2023-10-25 15:43:11.368550
866  2023-10-25 15:43:11.400441
867  2023-10-25 15:43:11.432308
868  2023-10-25 15:43:11.464267
869  2023-10-25 15:43:11.496322
870  2023-10-25 15:43:11.528244
871  2023-10-25 15:43:11.560386
872  2023-10-25 15:43:11.608380
873  2023-10-25 15:43:11.640266
874  2023-10-25 15:43:11.672171
875  2023-10-25 15:43:11.704128
876  2023-10-25 15:43:11.736034
877  2023-10-25 15:43:11.767911
878  2023-10-25 15:43:11.799826
879  2023-10-25 15:43:11.832738
880  2023-10-25 15:43:11.864653
881  2023-10-25 15:43:11.896601
882  2023-10-25 15:43:11.927531
883  2023-10-25 15:43:11.960436
884  2023-10-25 15:43:12.008295
885  2023-10-25 15:43:12.040208
886  2023-10-25 15:43:12.072096
887  2023-10-25 15:43:12.104208
888  2023-10-25 15:43:12.136126
889  2023-10-25 15:43:12.168323
890  2023-10-25 15:43:12.200276
891  2023-10-25 15:43:12.232191
892  2023-10-25 15:43:12.264139
893  2023-10-25 15:43:12.296069
894  2023-10-25 15:43:12.327994
895  2023-10-25 15:43:12.375834
896  2023-10-25 15:43:12.407755
897  2023-10-25 15:43:12.439673
898  2023-10-25 15:43:12.472627
899  2023-10-25 15:43:12.504515
900  2023-10-25 15:43:12.536536
901  2023-10-25 15:43:12.568436
902  2023-10-25 15:43:12.600344
903  2023-10-25 15:43:12.632254
904  2023-10-25 15:43:12.664168
905  2023-10-25 15:43:12.696055
906  2023-10-25 15:43:12.728020
907  2023-10-25 15:43:12.775886
908  2023-10-25 15:43:12.807788
909  2023-10-25 15:43:12.839715
910  2023-10-25 15:43:12.871651
911  2023-10-25 15:43:12.904546
912  2023-10-25 15:43:12.936416
913  2023-10-25 15:43:12.968380
914  2023-10-25 15:43:13.000269
915  2023-10-25 15:43:13.032207
916  2023-10-25 15:43:13.064071
917  2023-10-25 15:43:13.096036
918  2023-10-25 15:43:13.127952
919  2023-10-25 15:43:13.175804
920  2023-10-25 15:43:13.207764
921  2023-10-25 15:43:13.240644
922  2023-10-25 15:43:13.272563
923  2023-10-25 15:43:13.304468
924  2023-10-25 15:43:13.336359
925  2023-10-25 15:43:13.368304
926  2023-10-25 15:43:13.400207
927  2023-10-25 15:43:13.432113
928  2023-10-25 15:43:13.464041
929  2023-10-25 15:43:13.495918
930  2023-10-25 15:43:13.527882
931  2023-10-25 15:43:13.576737
932  2023-10-25 15:43:13.608649
933  2023-10-25 15:43:13.640586
934  2023-10-25 15:43:13.672476
935  2023-10-25 15:43:13.704361
936  2023-10-25 15:43:13.736329
937  2023-10-25 15:43:13.768219
938  2023-10-25 15:43:13.800136
939  2023-10-25 15:43:13.832072
940  2023-10-25 15:43:13.863970
941  2023-10-25 15:43:13.895848
942  2023-10-25 15:43:13.927802
943  2023-10-25 15:43:13.976632
944  2023-10-25 15:43:14.008574
945  2023-10-25 15:43:14.040488
946  2023-10-25 15:43:14.072425
947  2023-10-25 15:43:14.104349
948  2023-10-25 15:43:14.136253
949  2023-10-25 15:43:14.168171
950  2023-10-25 15:43:14.200068
951  2023-10-25 15:43:14.231986
952  2023-10-25 15:43:14.263923
953  2023-10-25 15:43:14.295819
954  2023-10-25 15:43:14.327609
955  2023-10-25 15:43:14.376449
956  2023-10-25 15:43:14.408409
957  2023-10-25 15:43:14.440305
958  2023-10-25 15:43:14.472244
959  2023-10-25 15:43:14.504159
960  2023-10-25 15:43:14.536020
961  2023-10-25 15:43:14.567973
962  2023-10-25 15:43:14.599890
963  2023-10-25 15:43:14.631808
964  2023-10-25 15:43:14.663797
965  2023-10-25 15:43:14.696680
966  2023-10-25 15:43:14.727591
967  2023-10-25 15:43:14.776505
968  2023-10-25 15:43:14.808411
969  2023-10-25 15:43:14.840340
970  2023-10-25 15:43:14.872256
971  2023-10-25 15:43:14.904172
972  2023-10-25 15:43:14.936084
973  2023-10-25 15:43:14.967983
974  2023-10-25 15:43:14.999923
975  2023-10-25 15:43:15.031807
976  2023-10-25 15:43:15.064717
977  2023-10-25 15:43:15.095646
978  2023-10-25 15:43:15.127564
979  2023-10-25 15:43:15.175700
980  2023-10-25 15:43:15.208634
981  2023-10-25 15:43:15.240524
982  2023-10-25 15:43:15.272463
983  2023-10-25 15:43:15.304356
984  2023-10-25 15:43:15.336274
985  2023-10-25 15:43:15.368420
986  2023-10-25 15:43:15.400444
987  2023-10-25 15:43:15.432410
988  2023-10-25 15:43:15.464272
989  2023-10-25 15:43:15.496241
990  2023-10-25 15:43:15.528141
991  2023-10-25 15:43:15.575972
992  2023-10-25 15:43:15.607670
993  2023-10-25 15:43:15.640621
994  2023-10-25 15:43:15.672515
995  2023-10-25 15:43:15.704415
996  2023-10-25 15:43:15.736321
997  2023-10-25 15:43:15.768262
998  2023-10-25 15:43:15.800162
999  2023-10-25 15:43:15.832066
1000  2023-10-25 15:43:15.863982
1001  2023-10-25 15:43:15.895868
1002  2023-10-25 15:43:15.927815
1003  2023-10-25 15:43:15.975685
1004  2023-10-25 15:43:16.007733
1005  2023-10-25 15:43:16.040114
1006  2023-10-25 15:43:16.072044
1007  2023-10-25 15:43:16.103961
1008  2023-10-25 15:43:16.135857
1009  2023-10-25 15:43:16.167739
1010  2023-10-25 15:43:16.200682
1011  2023-10-25 15:43:16.232612
1012  2023-10-25 15:43:16.264540
1013  2023-10-25 15:43:16.296442
1014  2023-10-25 15:43:16.344268
1015  2023-10-25 15:43:16.376230
1016  2023-10-25 15:43:16.408172
1017  2023-10-25 15:43:16.440060
1018  2023-10-25 15:43:16.471994
1019  2023-10-25 15:43:16.503891
1020  2023-10-25 15:43:16.536756
1021  2023-10-25 15:43:16.568682
1022  2023-10-25 15:43:16.600347
1023  2023-10-25 15:43:16.632261
1024  2023-10-25 15:43:16.664241
1025  2023-10-25 15:43:16.696160
1026  2023-10-25 15:43:16.745158
1027  2023-10-25 15:43:16.776071
1028  2023-10-25 15:43:16.808119
1029  2023-10-25 15:43:16.840010
1030  2023-10-25 15:43:16.871925
1031  2023-10-25 15:43:16.903918
1032  2023-10-25 15:43:16.935786
1033  2023-10-25 15:43:16.967668
1034  2023-10-25 15:43:16.999583
1035  2023-10-25 15:43:17.032552
1036  2023-10-25 15:43:17.064540
1037  2023-10-25 15:43:17.096474
1038  2023-10-25 15:43:17.144321
1039  2023-10-25 15:43:17.176355
1040  2023-10-25 15:43:17.208237
1041  2023-10-25 15:43:17.240152
1042  2023-10-25 15:43:17.272114
1043  2023-10-25 15:43:17.304036
1044  2023-10-25 15:43:17.335895
1045  2023-10-25 15:43:17.367809
1046  2023-10-25 15:43:17.399750
1047  2023-10-25 15:43:17.432681
1048  2023-10-25 15:43:17.464591
1049  2023-10-25 15:43:17.496519
1050  2023-10-25 15:43:17.544399
1051  2023-10-25 15:43:17.576300
1052  2023-10-25 15:43:17.608243
1053  2023-10-25 15:43:17.640255
1054  2023-10-25 15:43:17.672194
1055  2023-10-25 15:43:17.704108
1056  2023-10-25 15:43:17.736087
1057  2023-10-25 15:43:17.767999
1058  2023-10-25 15:43:17.799913
1059  2023-10-25 15:43:17.831832
1060  2023-10-25 15:43:17.864742
1061  2023-10-25 15:43:17.896656
1062  2023-10-25 15:43:17.944527
1063  2023-10-25 15:43:17.976496
1064  2023-10-25 15:43:18.008463
1065  2023-10-25 15:43:18.040324
1066  2023-10-25 15:43:18.072292
1067  2023-10-25 15:43:18.104156
1068  2023-10-25 15:43:18.136122
1069  2023-10-25 15:43:18.168049
1070  2023-10-25 15:43:18.199924
1071  2023-10-25 15:43:18.231861
1072  2023-10-25 15:43:18.263777
1073  2023-10-25 15:43:18.295667
1074  2023-10-25 15:43:18.344536
1075  2023-10-25 15:43:18.376459
1076  2023-10-25 15:43:18.408368
1077  2023-10-25 15:43:18.440256
1078  2023-10-25 15:43:18.472171
1079  2023-10-25 15:43:18.504086
1080  2023-10-25 15:43:18.536000
1081  2023-10-25 15:43:18.567917
1082  2023-10-25 15:43:18.599829
1083  2023-10-25 15:43:18.632755
1084  2023-10-25 15:43:18.664656
1085  2023-10-25 15:43:18.695574
1086  2023-10-25 15:43:18.744442
1087  2023-10-25 15:43:18.776383
1088  2023-10-25 15:43:18.808305
1089  2023-10-25 15:43:18.840186
1090  2023-10-25 15:43:18.872102
1091  2023-10-25 15:43:18.904016
1092  2023-10-25 15:43:18.935931
1093  2023-10-25 15:43:18.967877
1094  2023-10-25 15:43:19.000758
1095  2023-10-25 15:43:19.032700
1096  2023-10-25 15:43:19.064644
1097  2023-10-25 15:43:19.096529
1098  2023-10-25 15:43:19.144423
1099  2023-10-25 15:43:19.176313
1100  2023-10-25 15:43:19.208251
1101  2023-10-25 15:43:19.240116
1102  2023-10-25 15:43:19.272016
1103  2023-10-25 15:43:19.304061
1104  2023-10-25 15:43:19.335976
1105  2023-10-25 15:43:19.367889
1106  2023-10-25 15:43:19.399756
1107  2023-10-25 15:43:19.431670
1108  2023-10-25 15:43:19.464582
1109  2023-10-25 15:43:19.496542
1110  2023-10-25 15:43:19.544421
1111  2023-10-25 15:43:19.576312
1112  2023-10-25 15:43:19.608250
1113  2023-10-25 15:43:19.640112
1114  2023-10-25 15:43:19.672091
1115  2023-10-25 15:43:19.703975
1116  2023-10-25 15:43:19.735923
1117  2023-10-25 15:43:19.767835
1118  2023-10-25 15:43:19.799834
1119  2023-10-25 15:43:19.831723
1120  2023-10-25 15:43:19.863759
1121  2023-10-25 15:43:19.911640
1122  2023-10-25 15:43:19.944543
1123  2023-10-25 15:43:19.976463
1124  2023-10-25 15:43:20.008339
1125  2023-10-25 15:43:20.040308
1126  2023-10-25 15:43:20.072199
1127  2023-10-25 15:43:20.104134
1128  2023-10-25 15:43:20.136046
1129  2023-10-25 15:43:20.167912
1130  2023-10-25 15:43:20.199877
1131  2023-10-25 15:43:20.231747
1132  2023-10-25 15:43:20.264655
1133  2023-10-25 15:43:20.311561
1134  2023-10-25 15:43:20.344441
1135  2023-10-25 15:43:20.376357
1136  2023-10-25 15:43:20.408287
1137  2023-10-25 15:43:20.440241
1138  2023-10-25 15:43:20.472253
1139  2023-10-25 15:43:20.504190
1140  2023-10-25 15:43:20.536088
1141  2023-10-25 15:43:20.567975
1142  2023-10-25 15:43:20.599933
1143  2023-10-25 15:43:20.631845
1144  2023-10-25 15:43:20.663968
1145  2023-10-25 15:43:20.711763
1146  2023-10-25 15:43:20.743731
1147  2023-10-25 15:43:20.775632
1148  2023-10-25 15:43:20.808538
1149  2023-10-25 15:43:20.840476
1150  2023-10-25 15:43:20.872395
1151  2023-10-25 15:43:20.904298
1152  2023-10-25 15:43:20.936212
1153  2023-10-25 15:43:20.968105
1154  2023-10-25 15:43:20.999992
1155  2023-10-25 15:43:21.031995
1156  2023-10-25 15:43:21.063855
1157  2023-10-25 15:43:21.111727
1158  2023-10-25 15:43:21.144605
1159  2023-10-25 15:43:21.176560
1160  2023-10-25 15:43:21.208435
1161  2023-10-25 15:43:21.240350
1162  2023-10-25 15:43:21.272304
1163  2023-10-25 15:43:21.304210
1164  2023-10-25 15:43:21.336146
1165  2023-10-25 15:43:21.368058
1166  2023-10-25 15:43:21.399923
1167  2023-10-25 15:43:21.431870
1168  2023-10-25 15:43:21.463785
1169  2023-10-25 15:43:21.511666
1170  2023-10-25 15:43:21.544612
1171  2023-10-25 15:43:21.576502
1172  2023-10-25 15:43:21.608411
1173  2023-10-25 15:43:21.640314
1174  2023-10-25 15:43:21.672299
1175  2023-10-25 15:43:21.704269
1176  2023-10-25 15:43:21.736127
1177  2023-10-25 15:43:21.768042
1178  2023-10-25 15:43:21.800055
1179  2023-10-25 15:43:21.831890
1180  2023-10-25 15:43:21.863962
1181  2023-10-25 15:43:21.911844
1182  2023-10-25 15:43:21.943725
1183  2023-10-25 15:43:21.976629
1184  2023-10-25 15:43:22.008517
1185  2023-10-25 15:43:22.040473
1186  2023-10-25 15:43:22.072346
1187  2023-10-25 15:43:22.104294
1188  2023-10-25 15:43:22.136209
1189  2023-10-25 15:43:22.168116
1190  2023-10-25 15:43:22.200111
1191  2023-10-25 15:43:22.232000
1192  2023-10-25 15:43:22.263968
1193  2023-10-25 15:43:22.311786
1194  2023-10-25 15:43:22.343737
1195  2023-10-25 15:43:22.376726
1196  2023-10-25 15:43:22.408637
1197  2023-10-25 15:43:22.440601
1198  2023-10-25 15:43:22.472503
1199  2023-10-25 15:43:22.504417
1200  2023-10-25 15:43:22.536332
1201  2023-10-25 15:43:22.568300
1202  2023-10-25 15:43:22.600197
1203  2023-10-25 15:43:22.632076
1204  2023-10-25 15:43:22.664077
1205  2023-10-25 15:43:22.711939
1206  2023-10-25 15:43:22.743853
1207  2023-10-25 15:43:22.775808
1208  2023-10-25 15:43:22.807684
1209  2023-10-25 15:43:22.840574
1210  2023-10-25 15:43:22.872536
1211  2023-10-25 15:43:22.904426
1212  2023-10-25 15:43:22.936306
1213  2023-10-25 15:43:22.968270
1214  2023-10-25 15:43:23.000189
1215  2023-10-25 15:43:23.032089
1216  2023-10-25 15:43:23.064019
1217  2023-10-25 15:43:23.112015
1218  2023-10-25 15:43:23.144071
1219  2023-10-25 15:43:23.176024
1220  2023-10-25 15:43:23.207892
1221  2023-10-25 15:43:23.239852
1222  2023-10-25 15:43:23.271829
1223  2023-10-25 15:43:23.303741
1224  2023-10-25 15:43:23.336642
1225  2023-10-25 15:43:23.368645
1226  2023-10-25 15:43:23.400508
1227  2023-10-25 15:43:23.432476
1228  2023-10-25 15:43:23.464362
1229  2023-10-25 15:43:23.512326
1230  2023-10-25 15:43:23.544272
1231  2023-10-25 15:43:23.576155
1232  2023-10-25 15:43:23.608120
1233  2023-10-25 15:43:23.641018
1234  2023-10-25 15:43:23.671937
1235  2023-10-25 15:43:23.703845
1236  2023-10-25 15:43:23.735760
1237  2023-10-25 15:43:23.767675
1238  2023-10-25 15:43:23.800593
1239  2023-10-25 15:43:23.832470
1240  2023-10-25 15:43:23.880342
1241  2023-10-25 15:43:23.912287
1242  2023-10-25 15:43:23.944223
1243  2023-10-25 15:43:23.976085
1244  2023-10-25 15:43:24.008049
1245  2023-10-25 15:43:24.039945
1246  2023-10-25 15:43:24.071831
1247  2023-10-25 15:43:24.104777
1248  2023-10-25 15:43:24.135660
1249  2023-10-25 15:43:24.167605
1250  2023-10-25 15:43:24.200488
1251  2023-10-25 15:43:24.232426
1252  2023-10-25 15:43:24.280272
1253  2023-10-25 15:43:24.312187
1254  2023-10-25 15:43:24.344138
1255  2023-10-25 15:43:24.376018
1256  2023-10-25 15:43:24.407931
1257  2023-10-25 15:43:24.439916
1258  2023-10-25 15:43:24.471761
1259  2023-10-25 15:43:24.503677
1260  2023-10-25 15:43:24.536590
1261  2023-10-25 15:43:24.568570
1262  2023-10-25 15:43:24.600471
1263  2023-10-25 15:43:24.632470
1264  2023-10-25 15:43:24.680373
1265  2023-10-25 15:43:24.712332
1266  2023-10-25 15:43:24.744248
1267  2023-10-25 15:43:24.776160
1268  2023-10-25 15:43:24.808125
1269  2023-10-25 15:43:24.840101
1270  2023-10-25 15:43:24.872069
1271  2023-10-25 15:43:24.903929
1272  2023-10-25 15:43:24.935845
1273  2023-10-25 15:43:24.967823
1274  2023-10-25 15:43:24.999708
1275  2023-10-25 15:43:25.032611
1276  2023-10-25 15:43:25.080484
1277  2023-10-25 15:43:25.112372
1278  2023-10-25 15:43:25.144287
1279  2023-10-25 15:43:25.176201
1280  2023-10-25 15:43:25.208148
1281  2023-10-25 15:43:25.240030
1282  2023-10-25 15:43:25.272022
1283  2023-10-25 15:43:25.303917
1284  2023-10-25 15:43:25.335820
1285  2023-10-25 15:43:25.367697
1286  2023-10-25 15:43:25.400645
1287  2023-10-25 15:43:25.432550
1288  2023-10-25 15:43:25.479564
1289  2023-10-25 15:43:25.512477
1290  2023-10-25 15:43:25.544486
1291  2023-10-25 15:43:25.576356
1292  2023-10-25 15:43:25.608255
1293  2023-10-25 15:43:25.640199
1294  2023-10-25 15:43:25.672100
1295  2023-10-25 15:43:25.703965
1296  2023-10-25 15:43:25.735881
1297  2023-10-25 15:43:25.767827
1298  2023-10-25 15:43:25.800707
1299  2023-10-25 15:43:25.832624
1300  2023-10-25 15:43:25.880493
1301  2023-10-25 15:43:25.912513
1302  2023-10-25 15:43:25.944460
1303  2023-10-25 15:43:25.976369
1304  2023-10-25 15:43:26.008259
1305  2023-10-25 15:43:26.040197
1306  2023-10-25 15:43:26.072086
1307  2023-10-25 15:43:26.104001
1308  2023-10-25 15:43:26.135987
1309  2023-10-25 15:43:26.167875
1310  2023-10-25 15:43:26.199795
1311  2023-10-25 15:43:26.232659
1312  2023-10-25 15:43:26.279531
1313  2023-10-25 15:43:26.312443
1314  2023-10-25 15:43:26.344409
1315  2023-10-25 15:43:26.375994
1316  2023-10-25 15:43:26.407993
1317  2023-10-25 15:43:26.439962
1318  2023-10-25 15:43:26.471822
1319  2023-10-25 15:43:26.503783
1320  2023-10-25 15:43:26.535651
1321  2023-10-25 15:43:26.568564
1322  2023-10-25 15:43:26.600511
1323  2023-10-25 15:43:26.632427
1324  2023-10-25 15:43:26.680379
1325  2023-10-25 15:43:26.712357
1326  2023-10-25 15:43:26.744273
1327  2023-10-25 15:43:26.776372
1328  2023-10-25 15:43:26.808291
1329  2023-10-25 15:43:26.840203
1330  2023-10-25 15:43:26.872125
1331  2023-10-25 15:43:26.904013
1332  2023-10-25 15:43:26.935951
1333  2023-10-25 15:43:26.967842
1334  2023-10-25 15:43:27.000721
1335  2023-10-25 15:43:27.031696
1336  2023-10-25 15:43:27.080507
1337  2023-10-25 15:43:27.112427
1338  2023-10-25 15:43:27.144281
1339  2023-10-25 15:43:27.176214
1340  2023-10-25 15:43:27.208324
1341  2023-10-25 15:43:27.240219
1342  2023-10-25 15:43:27.272101
1343  2023-10-25 15:43:27.304015
1344  2023-10-25 15:43:27.335975
1345  2023-10-25 15:43:27.367922
1346  2023-10-25 15:43:27.399814
1347  2023-10-25 15:43:27.447630
1348  2023-10-25 15:43:27.480543
1349  2023-10-25 15:43:27.512457
1350  2023-10-25 15:43:27.544385
1351  2023-10-25 15:43:27.576324
1352  2023-10-25 15:43:27.608204
1353  2023-10-25 15:43:27.640118
1354  2023-10-25 15:43:27.672033
1355  2023-10-25 15:43:27.704005
1356  2023-10-25 15:43:27.735861
1357  2023-10-25 15:43:27.767776
1358  2023-10-25 15:43:27.799704
1359  2023-10-25 15:43:27.847561
1360  2023-10-25 15:43:27.879479
1361  2023-10-25 15:43:27.912111
1362  2023-10-25 15:43:27.944028
1363  2023-10-25 15:43:27.975959
1364  2023-10-25 15:43:28.007869
1365  2023-10-25 15:43:28.039791
1366  2023-10-25 15:43:28.071652
1367  2023-10-25 15:43:28.104563
1368  2023-10-25 15:43:28.136514
1369  2023-10-25 15:43:28.168445
1370  2023-10-25 15:43:28.200369
1371  2023-10-25 15:43:28.248210
1372  2023-10-25 15:43:28.280093
1373  2023-10-25 15:43:28.312008
1374  2023-10-25 15:43:28.343957
1375  2023-10-25 15:43:28.375896
1376  2023-10-25 15:43:28.407768
1377  2023-10-25 15:43:28.440693
1378  2023-10-25 15:43:28.472579
1379  2023-10-25 15:43:28.504544
1380  2023-10-25 15:43:28.536414
1381  2023-10-25 15:43:28.568454
1382  2023-10-25 15:43:28.600400
1383  2023-10-25 15:43:28.648395
1384  2023-10-25 15:43:28.680311
1385  2023-10-25 15:43:28.712256
1386  2023-10-25 15:43:28.744142
1387  2023-10-25 15:43:28.776103
1388  2023-10-25 15:43:28.807971
1389  2023-10-25 15:43:28.839909
1390  2023-10-25 15:43:28.871948
1391  2023-10-25 15:43:28.903880
1392  2023-10-25 15:43:28.935782
1393  2023-10-25 15:43:28.967732
1394  2023-10-25 15:43:29.000644
1395  2023-10-25 15:43:29.048508
1396  2023-10-25 15:43:29.080391
1397  2023-10-25 15:43:29.112305
1398  2023-10-25 15:43:29.144220
1399  2023-10-25 15:43:29.176186
1400  2023-10-25 15:43:29.208051
1401  2023-10-25 15:43:29.239964
1402  2023-10-25 15:43:29.271879
1403  2023-10-25 15:43:29.303833
1404  2023-10-25 15:43:29.335711
1405  2023-10-25 15:43:29.367831
1406  2023-10-25 15:43:29.400681
1407  2023-10-25 15:43:29.447556
1408  2023-10-25 15:43:29.479603
1409  2023-10-25 15:43:29.511517
1410  2023-10-25 15:43:29.544464
1411  2023-10-25 15:43:29.576383
1412  2023-10-25 15:43:29.608294
1413  2023-10-25 15:43:29.640202
1414  2023-10-25 15:43:29.672089
1415  2023-10-25 15:43:29.704010
1416  2023-10-25 15:43:29.735918
1417  2023-10-25 15:43:29.767834
1418  2023-10-25 15:43:29.800744
1419  2023-10-25 15:43:29.847619
1420  2023-10-25 15:43:29.880531
1421  2023-10-25 15:43:29.912445
1422  2023-10-25 15:43:29.944408
1423  2023-10-25 15:43:29.976310
1424  2023-10-25 15:43:30.008190
1425  2023-10-25 15:43:30.040107
1426  2023-10-25 15:43:30.072019
1427  2023-10-25 15:43:30.104932
1428  2023-10-25 15:43:30.135848
1429  2023-10-25 15:43:30.167763
1430  2023-10-25 15:43:30.200675
1431  2023-10-25 15:43:30.248547
1432  2023-10-25 15:43:30.280461
1433  2023-10-25 15:43:30.312376
1434  2023-10-25 15:43:30.344291
1435  2023-10-25 15:43:30.376207
1436  2023-10-25 15:43:30.408121
1437  2023-10-25 15:43:30.440172
1438  2023-10-25 15:43:30.472036
1439  2023-10-25 15:43:30.504007
1440  2023-10-25 15:43:30.535864
1441  2023-10-25 15:43:30.567876
1442  2023-10-25 15:43:30.599760
1443  2023-10-25 15:43:30.648035
1444  2023-10-25 15:43:30.679971
1445  2023-10-25 15:43:30.711901
1446  2023-10-25 15:43:30.743822
1447  2023-10-25 15:43:30.776766
1448  2023-10-25 15:43:30.808649
1449  2023-10-25 15:43:30.840563
1450  2023-10-25 15:43:30.872477
1451  2023-10-25 15:43:30.904435
1452  2023-10-25 15:43:30.936341
1453  2023-10-25 15:43:30.968222
1454  2023-10-25 15:43:31.016093
1455  2023-10-25 15:43:31.048038
1456  2023-10-25 15:43:31.079922
1457  2023-10-25 15:43:31.111836
1458  2023-10-25 15:43:31.143753
1459  2023-10-25 15:43:31.175698
1460  2023-10-25 15:43:31.208578
1461  2023-10-25 15:43:31.240524
1462  2023-10-25 15:43:31.272471
1463  2023-10-25 15:43:31.304374
1464  2023-10-25 15:43:31.336237
1465  2023-10-25 15:43:31.368152
1466  2023-10-25 15:43:31.416023
1467  2023-10-25 15:43:31.447942
1468  2023-10-25 15:43:31.479853
1469  2023-10-25 15:43:31.511767
1470  2023-10-25 15:43:31.544686
1471  2023-10-25 15:43:31.576595
1472  2023-10-25 15:43:31.608510
1473  2023-10-25 15:43:31.640424
1474  2023-10-25 15:43:31.672343
1475  2023-10-25 15:43:31.704253
1476  2023-10-25 15:43:31.736168
1477  2023-10-25 15:43:31.768089
1478  2023-10-25 15:43:31.815954
1479  2023-10-25 15:43:31.847869
1480  2023-10-25 15:43:31.879826
1481  2023-10-25 15:43:31.912698
1482  2023-10-25 15:43:31.944610
1483  2023-10-25 15:43:31.976526
1484  2023-10-25 15:43:32.008440
1485  2023-10-25 15:43:32.040356
1486  2023-10-25 15:43:32.072269
1487  2023-10-25 15:43:32.104184
1488  2023-10-25 15:43:32.136098
1489  2023-10-25 15:43:32.168055
1490  2023-10-25 15:43:32.215954
1491  2023-10-25 15:43:32.247844
1492  2023-10-25 15:43:32.279714
1493  2023-10-25 15:43:32.312626
1494  2023-10-25 15:43:32.344566
1495  2023-10-25 15:43:32.376495
1496  2023-10-25 15:43:32.408370
1497  2023-10-25 15:43:32.440285
1498  2023-10-25 15:43:32.472243
1499  2023-10-25 15:43:32.504141
1500  2023-10-25 15:43:32.536081
1501  2023-10-25 15:43:32.567998
1502  2023-10-25 15:43:32.615815
1503  2023-10-25 15:43:32.647730
1504  2023-10-25 15:43:32.679645
1505  2023-10-25 15:43:32.711559
1506  2023-10-25 15:43:32.744471
1507  2023-10-25 15:43:32.776387
1508  2023-10-25 15:43:32.808330
1509  2023-10-25 15:43:32.840243
1510  2023-10-25 15:43:32.872130
1511  2023-10-25 15:43:32.904045
1512  2023-10-25 15:43:32.935960
1513  2023-10-25 15:43:32.967882
1514  2023-10-25 15:43:33.015746
1515  2023-10-25 15:43:33.048664
1516  2023-10-25 15:43:33.080574
1517  2023-10-25 15:43:33.112487
1518  2023-10-25 15:43:33.144408
1519  2023-10-25 15:43:33.176345
1520  2023-10-25 15:43:33.208298
1521  2023-10-25 15:43:33.240147
1522  2023-10-25 15:43:33.272061
1523  2023-10-25 15:43:33.304003
1524  2023-10-25 15:43:33.335936
1525  2023-10-25 15:43:33.367805
1526  2023-10-25 15:43:33.415798
1527  2023-10-25 15:43:33.447712
1528  2023-10-25 15:43:33.479677
1529  2023-10-25 15:43:33.511641
1530  2023-10-25 15:43:33.544544
1531  2023-10-25 15:43:33.576448
1532  2023-10-25 15:43:33.608337
1533  2023-10-25 15:43:33.640285
1534  2023-10-25 15:43:33.672216
1535  2023-10-25 15:43:33.704078
1536  2023-10-25 15:43:33.736117
1537  2023-10-25 15:43:33.767980
1538  2023-10-25 15:43:33.815852
1539  2023-10-25 15:43:33.847797
1540  2023-10-25 15:43:33.879837
1541  2023-10-25 15:43:33.911752
1542  2023-10-25 15:43:33.943669
1543  2023-10-25 15:43:33.975688
1544  2023-10-25 15:43:34.008602
1545  2023-10-25 15:43:34.040515
1546  2023-10-25 15:43:34.072558
1547  2023-10-25 15:43:34.104473
1548  2023-10-25 15:43:34.136388
1549  2023-10-25 15:43:34.168338
1550  2023-10-25 15:43:34.216257
1551  2023-10-25 15:43:34.248172
1552  2023-10-25 15:43:34.280086
1553  2023-10-25 15:43:34.312001
1554  2023-10-25 15:43:34.343973
1555  2023-10-25 15:43:34.375831
1556  2023-10-25 15:43:34.407753
1557  2023-10-25 15:43:34.439631
1558  2023-10-25 15:43:34.472649
1559  2023-10-25 15:43:34.504564
1560  2023-10-25 15:43:34.536450
1561  2023-10-25 15:43:34.568396
1562  2023-10-25 15:43:34.616237
1563  2023-10-25 15:43:34.648151
1564  2023-10-25 15:43:34.680066
1565  2023-10-25 15:43:34.711981
1566  2023-10-25 15:43:34.743896
1567  2023-10-25 15:43:34.775835
1568  2023-10-25 15:43:34.808724
1569  2023-10-25 15:43:34.840638
1570  2023-10-25 15:43:34.872553
1571  2023-10-25 15:43:34.904567
1572  2023-10-25 15:43:34.936505
1573  2023-10-25 15:43:34.984406
1574  2023-10-25 15:43:35.016319
1575  2023-10-25 15:43:35.048349
1576  2023-10-25 15:43:35.080227
1577  2023-10-25 15:43:35.112146
1578  2023-10-25 15:43:35.144107
1579  2023-10-25 15:43:35.176019
1580  2023-10-25 15:43:35.208908
1581  2023-10-25 15:43:35.239800
1582  2023-10-25 15:43:35.271773
1583  2023-10-25 15:43:35.303628
1584  2023-10-25 15:43:35.336582
1585  2023-10-25 15:43:35.384466
1586  2023-10-25 15:43:35.416362
1587  2023-10-25 15:43:35.448241
1588  2023-10-25 15:43:35.480156
1589  2023-10-25 15:43:35.512103
1590  2023-10-25 15:43:35.544029
1591  2023-10-25 15:43:35.575974
1592  2023-10-25 15:43:35.608885
1593  2023-10-25 15:43:35.639801
1594  2023-10-25 15:43:35.671819
1595  2023-10-25 15:43:35.703703
1596  2023-10-25 15:43:35.736717
1597  2023-10-25 15:43:35.784602
1598  2023-10-25 15:43:35.815506
1599  2023-10-25 15:43:35.848419
1600  2023-10-25 15:43:35.880333
1601  2023-10-25 15:43:35.912247
1602  2023-10-25 15:43:35.944162
1603  2023-10-25 15:43:35.976131
1604  2023-10-25 15:43:36.008314
1605  2023-10-25 15:43:36.040186
1606  2023-10-25 15:43:36.072128
1607  2023-10-25 15:43:36.104015
1608  2023-10-25 15:43:36.135963
1609  2023-10-25 15:43:36.183801
1610  2023-10-25 15:43:36.215716
1611  2023-10-25 15:43:36.248631
1612  2023-10-25 15:43:36.279545
1613  2023-10-25 15:43:36.312458
1614  2023-10-25 15:43:36.344376
1615  2023-10-25 15:43:36.376290
1616  2023-10-25 15:43:36.408202
1617  2023-10-25 15:43:36.440117
1618  2023-10-25 15:43:36.472031
1619  2023-10-25 15:43:36.505005
1620  2023-10-25 15:43:36.536910
1621  2023-10-25 15:43:36.583734
1622  2023-10-25 15:43:36.617643
1623  2023-10-25 15:43:36.647562
1624  2023-10-25 15:43:36.679476
1625  2023-10-25 15:43:36.712388
1626  2023-10-25 15:43:36.745332
1627  2023-10-25 15:43:36.777248
1628  2023-10-25 15:43:36.809162
1629  2023-10-25 15:43:36.841092
1630  2023-10-25 15:43:36.873001
1631  2023-10-25 15:43:36.904900
1632  2023-10-25 15:43:36.936789
1633  2023-10-25 15:43:36.983663
1634  2023-10-25 15:43:37.016576
1635  2023-10-25 15:43:37.049534
1636  2023-10-25 15:43:37.080404
1637  2023-10-25 15:43:37.112319
1638  2023-10-25 15:43:37.145294
1639  2023-10-25 15:43:37.177215
1640  2023-10-25 15:43:37.209100
1641  2023-10-25 15:43:37.241105
1642  2023-10-25 15:43:37.273031
1643  2023-10-25 15:43:37.305014
1644  2023-10-25 15:43:37.336942
1645  2023-10-25 15:43:37.384908
1646  2023-10-25 15:43:37.416903
1647  2023-10-25 15:43:37.448813
1648  2023-10-25 15:43:37.480744
1649  2023-10-25 15:43:37.512658
1650  2023-10-25 15:43:37.544578
1651  2023-10-25 15:43:37.576442
1652  2023-10-25 15:43:37.609354
1653  2023-10-25 15:43:37.641335
1654  2023-10-25 15:43:37.672188
1655  2023-10-25 15:43:37.705150
1656  2023-10-25 15:43:37.737011
1657  2023-10-25 15:43:37.784944
1658  2023-10-25 15:43:37.816872
1659  2023-10-25 15:43:37.848738
1660  2023-10-25 15:43:37.880822
1661  2023-10-25 15:43:37.912741
1662  2023-10-25 15:43:37.944634
1663  2023-10-25 15:43:37.976783
1664  2023-10-25 15:43:38.008666
1665  2023-10-25 15:43:38.040612
1666  2023-10-25 15:43:38.072955
1667  2023-10-25 15:43:38.104927
1668  2023-10-25 15:43:38.136892
1669  2023-10-25 15:43:38.183767
1670  2023-10-25 15:43:38.216729
1671  2023-10-25 15:43:38.248641
1672  2023-10-25 15:43:38.280543
1673  2023-10-25 15:43:38.312457
1674  2023-10-25 15:43:38.344338
1675  2023-10-25 15:43:38.376381
1676  2023-10-25 15:43:38.408349
1677  2023-10-25 15:43:38.441216
1678  2023-10-25 15:43:38.473131
1679  2023-10-25 15:43:38.504104
1680  2023-10-25 15:43:38.552127
1681  2023-10-25 15:43:38.584033
1682  2023-10-25 15:43:38.615923
1683  2023-10-25 15:43:38.647837
1684  2023-10-25 15:43:38.679776
1685  2023-10-25 15:43:38.711694
1686  2023-10-25 15:43:38.744619
1687  2023-10-25 15:43:38.776493
1688  2023-10-25 15:43:38.808446
1689  2023-10-25 15:43:38.840322
1690  2023-10-25 15:43:38.872272
1691  2023-10-25 15:43:38.904184
1692  2023-10-25 15:43:38.952054
1693  2023-10-25 15:43:38.983974
1694  2023-10-25 15:43:39.015997
1695  2023-10-25 15:43:39.047956
1696  2023-10-25 15:43:39.079825
1697  2023-10-25 15:43:39.111757
1698  2023-10-25 15:43:39.144797
1699  2023-10-25 15:43:39.176673
1700  2023-10-25 15:43:39.208627
1701  2023-10-25 15:43:39.240515
1702  2023-10-25 15:43:39.272455
1703  2023-10-25 15:43:39.304330
1704  2023-10-25 15:43:39.352202
1705  2023-10-25 15:43:39.384119
1706  2023-10-25 15:43:39.417066
1707  2023-10-25 15:43:39.447758
1708  2023-10-25 15:43:39.480621
1709  2023-10-25 15:43:39.512535
1710  2023-10-25 15:43:39.544511
1711  2023-10-25 15:43:39.577394
1712  2023-10-25 15:43:39.608280
1713  2023-10-25 15:43:39.641242
1714  2023-10-25 15:43:39.672118
1715  2023-10-25 15:43:39.704065
1716  2023-10-25 15:43:39.751938
1717  2023-10-25 15:43:39.783963
1718  2023-10-25 15:43:39.816976
1719  2023-10-25 15:43:39.848873
1720  2023-10-25 15:43:39.880787
1721  2023-10-25 15:43:39.911722
1722  2023-10-25 15:43:39.944585
1723  2023-10-25 15:43:39.976585
1724  2023-10-25 15:43:40.009473
1725  2023-10-25 15:43:40.041385
1726  2023-10-25 15:43:40.072290
1727  2023-10-25 15:43:40.104307
1728  2023-10-25 15:43:40.152220
1729  2023-10-25 15:43:40.184167
1730  2023-10-25 15:43:40.216100
1731  2023-10-25 15:43:40.247964
1732  2023-10-25 15:43:40.280876
1733  2023-10-25 15:43:40.311796
1734  2023-10-25 15:43:40.344766
1735  2023-10-25 15:43:40.376791
1736  2023-10-25 15:43:40.409709
1737  2023-10-25 15:43:40.440636
1738  2023-10-25 15:43:40.472488
1739  2023-10-25 15:43:40.504399
1740  2023-10-25 15:43:40.552270
1741  2023-10-25 15:43:40.584252
1742  2023-10-25 15:43:40.616099
1743  2023-10-25 15:43:40.648015
1744  2023-10-25 15:43:40.679929
1745  2023-10-25 15:43:40.712892
1746  2023-10-25 15:43:40.744757
1747  2023-10-25 15:43:40.775733
1748  2023-10-25 15:43:40.808618
1749  2023-10-25 15:43:40.840690
1750  2023-10-25 15:43:40.872606
1751  2023-10-25 15:43:40.904566
1752  2023-10-25 15:43:40.952413
1753  2023-10-25 15:43:40.984319
1754  2023-10-25 15:43:41.016312
1755  2023-10-25 15:43:41.048271
1756  2023-10-25 15:43:41.080238
1757  2023-10-25 15:43:41.112152
1758  2023-10-25 15:43:41.144067
1759  2023-10-25 15:43:41.175981
1760  2023-10-25 15:43:41.208892
1761  2023-10-25 15:43:41.240943
1762  2023-10-25 15:43:41.272078
1763  2023-10-25 15:43:41.304047
1764  2023-10-25 15:43:41.352026
1765  2023-10-25 15:43:41.383973
1766  2023-10-25 15:43:41.415820
1767  2023-10-25 15:43:41.447737
1768  2023-10-25 15:43:41.479651
1769  2023-10-25 15:43:41.511604
1770  2023-10-25 15:43:41.544506
1771  2023-10-25 15:43:41.576392
1772  2023-10-25 15:43:41.608346
1773  2023-10-25 15:43:41.640253
1774  2023-10-25 15:43:41.672272
1775  2023-10-25 15:43:41.704187
1776  2023-10-25 15:43:41.752069
1777  2023-10-25 15:43:41.783941
1778  2023-10-25 15:43:41.815856
1779  2023-10-25 15:43:41.847771
1780  2023-10-25 15:43:41.879734
1781  2023-10-25 15:43:41.911649
1782  2023-10-25 15:43:41.944513
1783  2023-10-25 15:43:41.976453
1784  2023-10-25 15:43:42.008374
1785  2023-10-25 15:43:42.040295
1786  2023-10-25 15:43:42.072185
1787  2023-10-25 15:43:42.104088
1788  2023-10-25 15:43:42.152028
1789  2023-10-25 15:43:42.184116
1790  2023-10-25 15:43:42.216069
1791  2023-10-25 15:43:42.247932
1792  2023-10-25 15:43:42.279904
1793  2023-10-25 15:43:42.311792
1794  2023-10-25 15:43:42.344673
1795  2023-10-25 15:43:42.375630
1796  2023-10-25 15:43:42.408669
1797  2023-10-25 15:43:42.440548
1798  2023-10-25 15:43:42.472501
1799  2023-10-25 15:43:42.520363
1800  2023-10-25 15:43:42.552294
1801  2023-10-25 15:43:42.584289
1802  2023-10-25 15:43:42.616212
1803  2023-10-25 15:43:42.648203
1804  2023-10-25 15:43:42.680152
1805  2023-10-25 15:43:42.711915
1806  2023-10-25 15:43:42.743915
1807  2023-10-25 15:43:42.775782
1808  2023-10-25 15:43:42.808694
1809  2023-10-25 15:43:42.840522
1810  2023-10-25 15:43:42.872434
1811  2023-10-25 15:43:42.920422
1812  2023-10-25 15:43:42.952384
1813  2023-10-25 15:43:42.984418
1814  2023-10-25 15:43:43.016374
1815  2023-10-25 15:43:43.048300
1816  2023-10-25 15:43:43.080164
1817  2023-10-25 15:43:43.112129
1818  2023-10-25 15:43:43.143993
1819  2023-10-25 15:43:43.175978
1820  2023-10-25 15:43:43.207868
1821  2023-10-25 15:43:43.239763
1822  2023-10-25 15:43:43.272694
1823  2023-10-25 15:43:43.319568
1824  2023-10-25 15:43:43.352485
1825  2023-10-25 15:43:43.384380
1826  2023-10-25 15:43:43.416264
1827  2023-10-25 15:43:43.448252
1828  2023-10-25 15:43:43.480239
1829  2023-10-25 15:43:43.512184
1830  2023-10-25 15:43:43.544074
1831  2023-10-25 15:43:43.576055
1832  2023-10-25 15:43:43.607949
1833  2023-10-25 15:43:43.639902
1834  2023-10-25 15:43:43.671844
1835  2023-10-25 15:43:43.719678
1836  2023-10-25 15:43:43.751611
1837  2023-10-25 15:43:43.784535
1838  2023-10-25 15:43:43.816427
1839  2023-10-25 15:43:43.848372
1840  2023-10-25 15:43:43.880263
1841  2023-10-25 15:43:43.912174
1842  2023-10-25 15:43:43.944046
1843  2023-10-25 15:43:43.975961
1844  2023-10-25 15:43:44.007876
1845  2023-10-25 15:43:44.039816
1846  2023-10-25 15:43:44.072734
1847  2023-10-25 15:43:44.119897
1848  2023-10-25 15:43:44.151779
1849  2023-10-25 15:43:44.183800
1850  2023-10-25 15:43:44.215665
1851  2023-10-25 15:43:44.247619
1852  2023-10-25 15:43:44.280492
1853  2023-10-25 15:43:44.312414
1854  2023-10-25 15:43:44.344329
1855  2023-10-25 15:43:44.376236
1856  2023-10-25 15:43:44.408202
1857  2023-10-25 15:43:44.440097
1858  2023-10-25 15:43:44.473006
1859  2023-10-25 15:43:44.519892
1860  2023-10-25 15:43:44.551799
1861  2023-10-25 15:43:44.584712
1862  2023-10-25 15:43:44.615595
1863  2023-10-25 15:43:44.647557
1864  2023-10-25 15:43:44.680466
1865  2023-10-25 15:43:44.712391
1866  2023-10-25 15:43:44.744303
1867  2023-10-25 15:43:44.776222
1868  2023-10-25 15:43:44.808082
1869  2023-10-25 15:43:44.840053
1870  2023-10-25 15:43:44.871957
1871  2023-10-25 15:43:44.919832
1872  2023-10-25 15:43:44.951733
1873  2023-10-25 15:43:44.984661
1874  2023-10-25 15:43:45.016525
1875  2023-10-25 15:43:45.047475
1876  2023-10-25 15:43:45.080396
1877  2023-10-25 15:43:45.112302
1878  2023-10-25 15:43:45.144236
1879  2023-10-25 15:43:45.176147
1880  2023-10-25 15:43:45.208039
1881  2023-10-25 15:43:45.239981
1882  2023-10-25 15:43:45.271873
1883  2023-10-25 15:43:45.319715
1884  2023-10-25 15:43:45.351628
1885  2023-10-25 15:43:45.383722
1886  2023-10-25 15:43:45.416570
1887  2023-10-25 15:43:45.447575
1888  2023-10-25 15:43:45.480520
1889  2023-10-25 15:43:45.512540
1890  2023-10-25 15:43:45.544408
1891  2023-10-25 15:43:45.576328
1892  2023-10-25 15:43:45.608236
1893  2023-10-25 15:43:45.640176
1894  2023-10-25 15:43:45.672066
1895  2023-10-25 15:43:45.720008
1896  2023-10-25 15:43:45.751893
1897  2023-10-25 15:43:45.783862
1898  2023-10-25 15:43:45.815828
1899  2023-10-25 15:43:45.847707
1900  2023-10-25 15:43:45.879634
1901  2023-10-25 15:43:45.912659
1902  2023-10-25 15:43:45.944559
1903  2023-10-25 15:43:45.976475
1904  2023-10-25 15:43:46.008462
1905  2023-10-25 15:43:46.040353
1906  2023-10-25 15:43:46.088225
1907  2023-10-25 15:43:46.120170
1908  2023-10-25 15:43:46.152092
1909  2023-10-25 15:43:46.184028
1910  2023-10-25 15:43:46.215941
1911  2023-10-25 15:43:46.247860
1912  2023-10-25 15:43:46.279743
1913  2023-10-25 15:43:46.311672
1914  2023-10-25 15:43:46.344565
1915  2023-10-25 15:43:46.376327
1916  2023-10-25 15:43:46.408304
1917  2023-10-25 15:43:46.440185
1918  2023-10-25 15:43:46.488028
1919  2023-10-25 15:43:46.519976
1920  2023-10-25 15:43:46.551902
1921  2023-10-25 15:43:46.583813
1922  2023-10-25 15:43:46.615718
1923  2023-10-25 15:43:46.647601
1924  2023-10-25 15:43:46.679578
1925  2023-10-25 15:43:46.712464
1926  2023-10-25 15:43:46.744401
1927  2023-10-25 15:43:46.776292
1928  2023-10-25 15:43:46.808223
1929  2023-10-25 15:43:46.840160
1930  2023-10-25 15:43:46.888006
1931  2023-10-25 15:43:46.919929
1932  2023-10-25 15:43:46.951821
1933  2023-10-25 15:43:46.983753
1934  2023-10-25 15:43:47.015650
1935  2023-10-25 15:43:47.048565
1936  2023-10-25 15:43:47.080593
1937  2023-10-25 15:43:47.111518
1938  2023-10-25 15:43:47.144410
1939  2023-10-25 15:43:47.176292
1940  2023-10-25 15:43:47.208234
1941  2023-10-25 15:43:47.240167
1942  2023-10-25 15:43:47.288042
1943  2023-10-25 15:43:47.319945
1944  2023-10-25 15:43:47.351856
1945  2023-10-25 15:43:47.383766
1946  2023-10-25 15:43:47.415675
1947  2023-10-25 15:43:47.447565
1948  2023-10-25 15:43:47.480523
1949  2023-10-25 15:43:47.512419
1950  2023-10-25 15:43:47.544345
1951  2023-10-25 15:43:47.576247
1952  2023-10-25 15:43:47.608162
1953  2023-10-25 15:43:47.640100
1954  2023-10-25 15:43:47.687964
1955  2023-10-25 15:43:47.719862
1956  2023-10-25 15:43:47.751790
1957  2023-10-25 15:43:47.783702
1958  2023-10-25 15:43:47.816609
1959  2023-10-25 15:43:47.847529
1960  2023-10-25 15:43:47.880449
1961  2023-10-25 15:43:47.912355
1962  2023-10-25 15:43:47.944300
1963  2023-10-25 15:43:47.976180
1964  2023-10-25 15:43:48.008097
1965  2023-10-25 15:43:48.040017
1966  2023-10-25 15:43:48.087890
1967  2023-10-25 15:43:48.119799
1968  2023-10-25 15:43:48.151714
1969  2023-10-25 15:43:48.183647
1970  2023-10-25 15:43:48.215542
1971  2023-10-25 15:43:48.248461
1972  2023-10-25 15:43:48.280382
1973  2023-10-25 15:43:48.312282
1974  2023-10-25 15:43:48.344178
1975  2023-10-25 15:43:48.376127
1976  2023-10-25 15:43:48.407998
1977  2023-10-25 15:43:48.439949
1978  2023-10-25 15:43:48.487820
1979  2023-10-25 15:43:48.519748
1980  2023-10-25 15:43:48.551648
1981  2023-10-25 15:43:48.584527
1982  2023-10-25 15:43:48.616477
1983  2023-10-25 15:43:48.648398
1984  2023-10-25 15:43:48.680310
1985  2023-10-25 15:43:48.712236
1986  2023-10-25 15:43:48.744100
1987  2023-10-25 15:43:48.776060
1988  2023-10-25 15:43:48.808608
1989  2023-10-25 15:43:48.839606
1990  2023-10-25 15:43:48.887526
1991  2023-10-25 15:43:48.920388
1992  2023-10-25 15:43:48.952302
1993  2023-10-25 15:43:48.984265
1994  2023-10-25 15:43:49.016183
1995  2023-10-25 15:43:49.048047
1996  2023-10-25 15:43:49.080015
1997  2023-10-25 15:43:49.111934
1998  2023-10-25 15:43:49.144789
1999  2023-10-25 15:43:49.175737
2000  2023-10-25 15:43:49.207688
2001  2023-10-25 15:43:49.240670
2002  2023-10-25 15:43:49.287620
2003  2023-10-25 15:43:49.319620
2004  2023-10-25 15:43:49.351639
2005  2023-10-25 15:43:49.384586
2006  2023-10-25 15:43:49.416501
2007  2023-10-25 15:43:49.448396
2008  2023-10-25 15:43:49.480301
2009  2023-10-25 15:43:49.512215
2010  2023-10-25 15:43:49.544166
2011  2023-10-25 15:43:49.576039
2012  2023-10-25 15:43:49.607926
2013  2023-10-25 15:43:49.655860
2014  2023-10-25 15:43:49.687744
2015  2023-10-25 15:43:49.719654
2016  2023-10-25 15:43:49.751577
2017  2023-10-25 15:43:49.784522
2018  2023-10-25 15:43:49.816395
2019  2023-10-25 15:43:49.848316
2020  2023-10-25 15:43:49.880249
2021  2023-10-25 15:43:49.912155
2022  2023-10-25 15:43:49.944063
2023  2023-10-25 15:43:49.975997
2024  2023-10-25 15:43:50.008302
2025  2023-10-25 15:43:50.056186
2026  2023-10-25 15:43:50.088061
2027  2023-10-25 15:43:50.120083
2028  2023-10-25 15:43:50.152008
2029  2023-10-25 15:43:50.183903
2030  2023-10-25 15:43:50.215824
2031  2023-10-25 15:43:50.247735
2032  2023-10-25 15:43:50.279636
2033  2023-10-25 15:43:50.311588
2034  2023-10-25 15:43:50.344492
2035  2023-10-25 15:43:50.376405
2036  2023-10-25 15:43:50.408438
2037  2023-10-25 15:43:50.456375
2038  2023-10-25 15:43:50.488297
2039  2023-10-25 15:43:50.520213
2040  2023-10-25 15:43:50.552100
2041  2023-10-25 15:43:50.584023
2042  2023-10-25 15:43:50.615941
2043  2023-10-25 15:43:50.647847
2044  2023-10-25 15:43:50.679760
2045  2023-10-25 15:43:50.711676
2046  2023-10-25 15:43:50.744596
2047  2023-10-25 15:43:50.776528
2048  2023-10-25 15:43:50.808440
2049  2023-10-25 15:43:50.856306
2050  2023-10-25 15:43:50.888210
2051  2023-10-25 15:43:50.920128
2052  2023-10-25 15:43:50.953031
2053  2023-10-25 15:43:50.983970
2054  2023-10-25 15:43:51.015878
2055  2023-10-25 15:43:51.047776
2056  2023-10-25 15:43:51.079700
2057  2023-10-25 15:43:51.111613
2058  2023-10-25 15:43:51.144552
2059  2023-10-25 15:43:51.176461
2060  2023-10-25 15:43:51.208322
2061  2023-10-25 15:43:51.256197
2062  2023-10-25 15:43:51.288108
2063  2023-10-25 15:43:51.320055
2064  2023-10-25 15:43:51.351984
2065  2023-10-25 15:43:51.383893
2066  2023-10-25 15:43:51.415850
2067  2023-10-25 15:43:51.447712
2068  2023-10-25 15:43:51.479632
2069  2023-10-25 15:43:51.511558
2070  2023-10-25 15:43:51.544480
2071  2023-10-25 15:43:51.576378
2072  2023-10-25 15:43:51.608254
2073  2023-10-25 15:43:51.656167
2074  2023-10-25 15:43:51.688079
2075  2023-10-25 15:43:51.719988
2076  2023-10-25 15:43:51.751930
2077  2023-10-25 15:43:51.783822
2078  2023-10-25 15:43:51.815730
2079  2023-10-25 15:43:51.847645
2080  2023-10-25 15:43:51.880525
2081  2023-10-25 15:43:51.912473
2082  2023-10-25 15:43:51.944400
2083  2023-10-25 15:43:51.976318
2084  2023-10-25 15:43:52.008217
2085  2023-10-25 15:43:52.056086
2086  2023-10-25 15:43:52.087970
2087  2023-10-25 15:43:52.119884
2088  2023-10-25 15:43:52.151799
2089  2023-10-25 15:43:52.183743
2090  2023-10-25 15:43:52.215653
2091  2023-10-25 15:43:52.247581
2092  2023-10-25 15:43:52.280456
2093  2023-10-25 15:43:52.312418
2094  2023-10-25 15:43:52.344333
2095  2023-10-25 15:43:52.376231
2096  2023-10-25 15:43:52.408114
2097  2023-10-25 15:43:52.455987
2098  2023-10-25 15:43:52.487932
2099  2023-10-25 15:43:52.519823
2100  2023-10-25 15:43:52.551761
2101  2023-10-25 15:43:52.584642
2102  2023-10-25 15:43:52.615591
2103  2023-10-25 15:43:52.647503
2104  2023-10-25 15:43:52.680390
2105  2023-10-25 15:43:52.712356
2106  2023-10-25 15:43:52.744217
2107  2023-10-25 15:43:52.776167
2108  2023-10-25 15:43:52.808077
2109  2023-10-25 15:43:52.855980
2110  2023-10-25 15:43:52.887858
2111  2023-10-25 15:43:52.919781
2112  2023-10-25 15:43:52.951689
2113  2023-10-25 15:43:52.983608
2114  2023-10-25 15:43:53.015545
2115  2023-10-25 15:43:53.048402
2116  2023-10-25 15:43:53.080316
2117  2023-10-25 15:43:53.112283
2118  2023-10-25 15:43:53.144197
2119  2023-10-25 15:43:53.176112
2120  2023-10-25 15:43:53.208027
2121  2023-10-25 15:43:53.255956
2122  2023-10-25 15:43:53.287753
2123  2023-10-25 15:43:53.319722
2124  2023-10-25 15:43:53.351706
2125  2023-10-25 15:43:53.383652
2126  2023-10-25 15:43:53.415581
2127  2023-10-25 15:43:53.447486
2128  2023-10-25 15:43:53.480362
2129  2023-10-25 15:43:53.512316
2130  2023-10-25 15:43:53.544236
2131  2023-10-25 15:43:53.576140
2132  2023-10-25 15:43:53.624003
2133  2023-10-25 15:43:53.655934
2134  2023-10-25 15:43:53.687842
2135  2023-10-25 15:43:53.719722
2136  2023-10-25 15:43:53.751637
2137  2023-10-25 15:43:53.784549
2138  2023-10-25 15:43:53.816464
2139  2023-10-25 15:43:53.848432
2140  2023-10-25 15:43:53.880301
2141  2023-10-25 15:43:53.912208
2142  2023-10-25 15:43:53.944156
2143  2023-10-25 15:43:53.976078
2144  2023-10-25 15:43:54.023952
2145  2023-10-25 15:43:54.055866
2146  2023-10-25 15:43:54.088737
2147  2023-10-25 15:43:54.120652
2148  2023-10-25 15:43:54.151568
2149  2023-10-25 15:43:54.183514
2150  2023-10-25 15:43:54.216430
2151  2023-10-25 15:43:54.248352
2152  2023-10-25 15:43:54.280224
2153  2023-10-25 15:43:54.312138
2154  2023-10-25 15:43:54.344098
2155  2023-10-25 15:43:54.376024
2156  2023-10-25 15:43:54.423873
2157  2023-10-25 15:43:54.455798
2158  2023-10-25 15:43:54.487701
2159  2023-10-25 15:43:54.519584
2160  2023-10-25 15:43:54.551529
2161  2023-10-25 15:43:54.584436
2162  2023-10-25 15:43:54.616325
2163  2023-10-25 15:43:54.648273
2164  2023-10-25 15:43:54.680154
2165  2023-10-25 15:43:54.712112
2166  2023-10-25 15:43:54.744040
2167  2023-10-25 15:43:54.775901
2168  2023-10-25 15:43:54.823801
2169  2023-10-25 15:43:54.855733
2170  2023-10-25 15:43:54.887648
2171  2023-10-25 15:43:54.919566
2172  2023-10-25 15:43:54.952426
2173  2023-10-25 15:43:54.984341
2174  2023-10-25 15:43:55.016256
2175  2023-10-25 15:43:55.048227
2176  2023-10-25 15:43:55.080085
2177  2023-10-25 15:43:55.111852
2178  2023-10-25 15:43:55.143846
2179  2023-10-25 15:43:55.175793
2180  2023-10-25 15:43:55.223668
2181  2023-10-25 15:43:55.255577
2182  2023-10-25 15:43:55.288458
2183  2023-10-25 15:43:55.320373
2184  2023-10-25 15:43:55.352288
2185  2023-10-25 15:43:55.384245
2186  2023-10-25 15:43:55.416117
2187  2023-10-25 15:43:55.448032
2188  2023-10-25 15:43:55.479946
2189  2023-10-25 15:43:55.511861
2190  2023-10-25 15:43:55.543809
2191  2023-10-25 15:43:55.576688
2192  2023-10-25 15:43:55.623594
2193  2023-10-25 15:43:55.656474
2194  2023-10-25 15:43:55.688397
2195  2023-10-25 15:43:55.720304
2196  2023-10-25 15:43:55.752219
2197  2023-10-25 15:43:55.784133
2198  2023-10-25 15:43:55.816048
2199  2023-10-25 15:43:55.847963
2200  2023-10-25 15:43:55.879877
2201  2023-10-25 15:43:55.911792
2202  2023-10-25 15:43:55.943779
2203  2023-10-25 15:43:55.976651
2204  2023-10-25 15:43:56.023493
2205  2023-10-25 15:43:56.055507
2206  2023-10-25 15:43:56.088383
2207  2023-10-25 15:43:56.120346
2208  2023-10-25 15:43:56.152260
2209  2023-10-25 15:43:56.184175
2210  2023-10-25 15:43:56.216125
2211  2023-10-25 15:43:56.248033
2212  2023-10-25 15:43:56.279919
2213  2023-10-25 15:43:56.311834
2214  2023-10-25 15:43:56.343784
2215  2023-10-25 15:43:56.375707
2216  2023-10-25 15:43:56.423567
2217  2023-10-25 15:43:56.456490
2218  2023-10-25 15:43:56.488362
2219  2023-10-25 15:43:56.520276
2220  2023-10-25 15:43:56.552223
2221  2023-10-25 15:43:56.584148
2222  2023-10-25 15:43:56.616096
2223  2023-10-25 15:43:56.648011
2224  2023-10-25 15:43:56.679925
2225  2023-10-25 15:43:56.711869
2226  2023-10-25 15:43:56.743755
2227  2023-10-25 15:43:56.776668
2228  2023-10-25 15:43:56.823541
2229  2023-10-25 15:43:56.856453
2230  2023-10-25 15:43:56.888368
2231  2023-10-25 15:43:56.919936
2232  2023-10-25 15:43:56.951890
2233  2023-10-25 15:43:56.983864
2234  2023-10-25 15:43:57.015779
2235  2023-10-25 15:43:57.047729
2236  2023-10-25 15:43:57.079608
2237  2023-10-25 15:43:57.111523
2238  2023-10-25 15:43:57.144474
2239  2023-10-25 15:43:57.192307
2240  2023-10-25 15:43:57.224222
2241  2023-10-25 15:43:57.256169
2242  2023-10-25 15:43:57.288086
2243  2023-10-25 15:43:57.319966
2244  2023-10-25 15:43:57.351880
2245  2023-10-25 15:43:57.383795
2246  2023-10-25 15:43:57.415710
2247  2023-10-25 15:43:57.447626
2248  2023-10-25 15:43:57.480536
2249  2023-10-25 15:43:57.512452
2250  2023-10-25 15:43:57.544366
2251  2023-10-25 15:43:57.592238
2252  2023-10-25 15:43:57.624152
2253  2023-10-25 15:43:57.656067
2254  2023-10-25 15:43:57.687982
2255  2023-10-25 15:43:57.719896
2256  2023-10-25 15:43:57.751811
2257  2023-10-25 15:43:57.783726
2258  2023-10-25 15:43:57.815640
2259  2023-10-25 15:43:57.847555
2260  2023-10-25 15:43:57.880468
2261  2023-10-25 15:43:57.912382
2262  2023-10-25 15:43:57.944365
2263  2023-10-25 15:43:57.992168
2264  2023-10-25 15:43:58.024083
2265  2023-10-25 15:43:58.055998
2266  2023-10-25 15:43:58.087962
2267  2023-10-25 15:43:58.119827
2268  2023-10-25 15:43:58.151742
2269  2023-10-25 15:43:58.183656
2270  2023-10-25 15:43:58.215604
2271  2023-10-25 15:43:58.247512
2272  2023-10-25 15:43:58.280398
2273  2023-10-25 15:43:58.312313
2274  2023-10-25 15:43:58.344255
2275  2023-10-25 15:43:58.392099
2276  2023-10-25 15:43:58.424041
2277  2023-10-25 15:43:58.455929
2278  2023-10-25 15:43:58.487845
2279  2023-10-25 15:43:58.519758
2280  2023-10-25 15:43:58.551705
2281  2023-10-25 15:43:58.583618
2282  2023-10-25 15:43:58.616499
2283  2023-10-25 15:43:58.648414
2284  2023-10-25 15:43:58.680370
2285  2023-10-25 15:43:58.712244
2286  2023-10-25 15:43:58.744211
2287  2023-10-25 15:43:58.792030
2288  2023-10-25 15:43:58.823945
2289  2023-10-25 15:43:58.855859
2290  2023-10-25 15:43:58.887774
2291  2023-10-25 15:43:58.919689
2292  2023-10-25 15:43:58.952601
2293  2023-10-25 15:43:58.984515
2294  2023-10-25 15:43:59.016432
2295  2023-10-25 15:43:59.048345
2296  2023-10-25 15:43:59.080259
2297  2023-10-25 15:43:59.112174
2298  2023-10-25 15:43:59.144118
2299  2023-10-25 15:43:59.191961
2300  2023-10-25 15:43:59.223875
2301  2023-10-25 15:43:59.255790
2302  2023-10-25 15:43:59.287705
2303  2023-10-25 15:43:59.319634
2304  2023-10-25 15:43:59.351534
2305  2023-10-25 15:43:59.383449
2306  2023-10-25 15:43:59.416395
2307  2023-10-25 15:43:59.448275
2308  2023-10-25 15:43:59.480190
2309  2023-10-25 15:43:59.512105
2310  2023-10-25 15:43:59.544071
2311  2023-10-25 15:43:59.592042
2312  2023-10-25 15:43:59.623967
2313  2023-10-25 15:43:59.655844
2314  2023-10-25 15:43:59.687759
2315  2023-10-25 15:43:59.719709
2316  2023-10-25 15:43:59.751621
2317  2023-10-25 15:43:59.783503
2318  2023-10-25 15:43:59.816424
2319  2023-10-25 15:43:59.848329
2320  2023-10-25 15:43:59.880277
2321  2023-10-25 15:43:59.912159
2322  2023-10-25 15:43:59.944105
2323  2023-10-25 15:43:59.991945
2324  2023-10-25 15:44:00.023860
2325  2023-10-25 15:44:00.055808
2326  2023-10-25 15:44:00.087761
2327  2023-10-25 15:44:00.119604
2328  2023-10-25 15:44:00.151519
2329  2023-10-25 15:44:00.184431
2330  2023-10-25 15:44:00.216345
2331  2023-10-25 15:44:00.248260
2332  2023-10-25 15:44:00.280175
2333  2023-10-25 15:44:00.312089
2334  2023-10-25 15:44:00.344075
2335  2023-10-25 15:44:00.391876
2336  2023-10-25 15:44:00.423791
2337  2023-10-25 15:44:00.455705
2338  2023-10-25 15:44:00.488617
2339  2023-10-25 15:44:00.520532
2340  2023-10-25 15:44:00.552447
2341  2023-10-25 15:44:00.584363
2342  2023-10-25 15:44:00.616276
2343  2023-10-25 15:44:00.648191
2344  2023-10-25 15:44:00.680105
2345  2023-10-25 15:44:00.712069
2346  2023-10-25 15:44:00.759892
2347  2023-10-25 15:44:00.791847
2348  2023-10-25 15:44:00.823721
2349  2023-10-25 15:44:00.855636
2350  2023-10-25 15:44:00.887551
2351  2023-10-25 15:44:00.919497
2352  2023-10-25 15:44:00.952377
2353  2023-10-25 15:44:00.984292
2354  2023-10-25 15:44:01.015691
2355  2023-10-25 15:44:01.047773
2356  2023-10-25 15:44:01.079683
2357  2023-10-25 15:44:01.111602
2358  2023-10-25 15:44:01.160497
2359  2023-10-25 15:44:01.192411
2360  2023-10-25 15:44:01.224326
2361  2023-10-25 15:44:01.256241
2362  2023-10-25 15:44:01.288287
2363  2023-10-25 15:44:01.320202
2364  2023-10-25 15:44:01.352117
2365  2023-10-25 15:44:01.384161
2366  2023-10-25 15:44:01.416076
2367  2023-10-25 15:44:01.447990
2368  2023-10-25 15:44:01.479917
2369  2023-10-25 15:44:01.511961
2370  2023-10-25 15:44:01.559833
2371  2023-10-25 15:44:01.591784
2372  2023-10-25 15:44:01.623662
2373  2023-10-25 15:44:01.655577
2374  2023-10-25 15:44:01.687491
2375  2023-10-25 15:44:01.720582
2376  2023-10-25 15:44:01.751624
2377  2023-10-25 15:44:01.784566
2378  2023-10-25 15:44:01.815538
2379  2023-10-25 15:44:01.847506
2380  2023-10-25 15:44:01.880418
2381  2023-10-25 15:44:01.912333
2382  2023-10-25 15:44:01.960347
2383  2023-10-25 15:44:01.992261
2384  2023-10-25 15:44:02.024176
2385  2023-10-25 15:44:02.056091
2386  2023-10-25 15:44:02.088005
2387  2023-10-25 15:44:02.120920
2388  2023-10-25 15:44:02.151835
2389  2023-10-25 15:44:02.183749
2390  2023-10-25 15:44:02.215698
2391  2023-10-25 15:44:02.248585
2392  2023-10-25 15:44:02.279686
2393  2023-10-25 15:44:02.311601
2394  2023-10-25 15:44:02.360472
2395  2023-10-25 15:44:02.392386
2396  2023-10-25 15:44:02.424433
2397  2023-10-25 15:44:02.456303
2398  2023-10-25 15:44:02.488236
2399  2023-10-25 15:44:02.520150
2400  2023-10-25 15:44:02.552092
2401  2023-10-25 15:44:02.584025
2402  2023-10-25 15:44:02.615974
2403  2023-10-25 15:44:02.647889
2404  2023-10-25 15:44:02.679848
2405  2023-10-25 15:44:02.711751
2406  2023-10-25 15:44:02.759728
2407  2023-10-25 15:44:02.791686
2408  2023-10-25 15:44:02.824565
2409  2023-10-25 15:44:02.856480
2410  2023-10-25 15:44:02.888394
2411  2023-10-25 15:44:02.920309
2412  2023-10-25 15:44:02.952224
2413  2023-10-25 15:44:02.984207
2414  2023-10-25 15:44:03.016171
2415  2023-10-25 15:44:03.048086
2416  2023-10-25 15:44:03.080001
2417  2023-10-25 15:44:03.111915
2418  2023-10-25 15:44:03.159787
2419  2023-10-25 15:44:03.191702
2420  2023-10-25 15:44:03.224614
2421  2023-10-25 15:44:03.256529
2422  2023-10-25 15:44:03.288443
2423  2023-10-25 15:44:03.320358
2424  2023-10-25 15:44:03.352272
2425  2023-10-25 15:44:03.384187
2426  2023-10-25 15:44:03.416134
2427  2023-10-25 15:44:03.447850
2428  2023-10-25 15:44:03.479758
2429  2023-10-25 15:44:03.512411
2430  2023-10-25 15:44:03.560294
2431  2023-10-25 15:44:03.592293
2432  2023-10-25 15:44:03.624202
2433  2023-10-25 15:44:03.655891
2434  2023-10-25 15:44:03.687831
2435  2023-10-25 15:44:03.719717
2436  2023-10-25 15:44:03.751719
2437  2023-10-25 15:44:03.783601
2438  2023-10-25 15:44:03.816513
2439  2023-10-25 15:44:03.848437
2440  2023-10-25 15:44:03.880395
2441  2023-10-25 15:44:03.912257
2442  2023-10-25 15:44:03.960163
2443  2023-10-25 15:44:03.992044
2444  2023-10-25 15:44:04.023959
2445  2023-10-25 15:44:04.055919
2446  2023-10-25 15:44:04.087822
2447  2023-10-25 15:44:04.119703
2448  2023-10-25 15:44:04.151617
2449  2023-10-25 15:44:04.183532
2450  2023-10-25 15:44:04.216444
2451  2023-10-25 15:44:04.248359
2452  2023-10-25 15:44:04.280273
2453  2023-10-25 15:44:04.312188
2454  2023-10-25 15:44:04.360060
2455  2023-10-25 15:44:04.391975
2456  2023-10-25 15:44:04.424044
2457  2023-10-25 15:44:04.455958
2458  2023-10-25 15:44:04.487873
2459  2023-10-25 15:44:04.519787
2460  2023-10-25 15:44:04.551807
2461  2023-10-25 15:44:04.583722
2462  2023-10-25 15:44:04.615636
2463  2023-10-25 15:44:04.647551
2464  2023-10-25 15:44:04.680463
2465  2023-10-25 15:44:04.728335
2466  2023-10-25 15:44:04.760250
2467  2023-10-25 15:44:04.792164
2468  2023-10-25 15:44:04.824079
2469  2023-10-25 15:44:04.855994
2470  2023-10-25 15:44:04.887909
2471  2023-10-25 15:44:04.919823
2472  2023-10-25 15:44:04.951738
2473  2023-10-25 15:44:04.983652
2474  2023-10-25 15:44:05.015567
2475  2023-10-25 15:44:05.048479
2476  2023-10-25 15:44:05.080394
2477  2023-10-25 15:44:05.128413
2478  2023-10-25 15:44:05.160180
2479  2023-10-25 15:44:05.192095
2480  2023-10-25 15:44:05.224010
2481  2023-10-25 15:44:05.255925
2482  2023-10-25 15:44:05.287839
2483  2023-10-25 15:44:05.319838
2484  2023-10-25 15:44:05.351769
2485  2023-10-25 15:44:05.383684
2486  2023-10-25 15:44:05.416596
2487  2023-10-25 15:44:05.448512
2488  2023-10-25 15:44:05.480425
2489  2023-10-25 15:44:05.528297
2490  2023-10-25 15:44:05.560212
2491  2023-10-25 15:44:05.592203
2492  2023-10-25 15:44:05.624076
2493  2023-10-25 15:44:05.655956
2494  2023-10-25 15:44:05.687605
2495  2023-10-25 15:44:05.719648
2496  2023-10-25 15:44:05.751562
2497  2023-10-25 15:44:05.784472
2498  2023-10-25 15:44:05.816356
2499  2023-10-25 15:44:05.848270
2500  2023-10-25 15:44:05.880222
2501  2023-10-25 15:44:05.928101
2502  2023-10-25 15:44:05.960007
2503  2023-10-25 15:44:05.991894
2504  2023-10-25 15:44:06.023801
2505  2023-10-25 15:44:06.055716
2506  2023-10-25 15:44:06.087684
2507  2023-10-25 15:44:06.119660
2508  2023-10-25 15:44:06.151575
2509  2023-10-25 15:44:06.184487
2510  2023-10-25 15:44:06.216402
2511  2023-10-25 15:44:06.248316
2512  2023-10-25 15:44:06.280231
2513  2023-10-25 15:44:06.328103
2514  2023-10-25 15:44:06.360017
2515  2023-10-25 15:44:06.391932
2516  2023-10-25 15:44:06.423847
2517  2023-10-25 15:44:06.455761
2518  2023-10-25 15:44:06.487676
2519  2023-10-25 15:44:06.519591
2520  2023-10-25 15:44:06.551506
2521  2023-10-25 15:44:06.584418
2522  2023-10-25 15:44:06.616332
2523  2023-10-25 15:44:06.648247
2524  2023-10-25 15:44:06.680162
2525  2023-10-25 15:44:06.728193
2526  2023-10-25 15:44:06.760108
2527  2023-10-25 15:44:06.792023
2528  2023-10-25 15:44:06.823937
2529  2023-10-25 15:44:06.856365
2530  2023-10-25 15:44:06.888282
2531  2023-10-25 15:44:06.920194
2532  2023-10-25 15:44:06.953108
2533  2023-10-25 15:44:06.983756
2534  2023-10-25 15:44:07.015670
2535  2023-10-25 15:44:07.048583
2536  2023-10-25 15:44:07.080498
2537  2023-10-25 15:44:07.128415
2538  2023-10-25 15:44:07.160339
2539  2023-10-25 15:44:07.192340
2540  2023-10-25 15:44:07.224255
2541  2023-10-25 15:44:07.256207
2542  2023-10-25 15:44:07.288119
2543  2023-10-25 15:44:07.320437
2544  2023-10-25 15:44:07.352294
2545  2023-10-25 15:44:07.384311
2546  2023-10-25 15:44:07.416227
2547  2023-10-25 15:44:07.448140
2548  2023-10-25 15:44:07.480024
2549  2023-10-25 15:44:07.527896
2550  2023-10-25 15:44:07.559858
2551  2023-10-25 15:44:07.591805
2552  2023-10-25 15:44:07.623718
2553  2023-10-25 15:44:07.656600
2554  2023-10-25 15:44:07.688515
2555  2023-10-25 15:44:07.720483
2556  2023-10-25 15:44:07.752398
2557  2023-10-25 15:44:07.784258
2558  2023-10-25 15:44:07.816173
2559  2023-10-25 15:44:07.848088
2560  2023-10-25 15:44:07.880002
2561  2023-10-25 15:44:07.927874
2562  2023-10-25 15:44:07.959966
2563  2023-10-25 15:44:07.991881
2564  2023-10-25 15:44:08.023795
2565  2023-10-25 15:44:08.055710
2566  2023-10-25 15:44:08.087625
2567  2023-10-25 15:44:08.119539
2568  2023-10-25 15:44:08.152456
2569  2023-10-25 15:44:08.184367
2570  2023-10-25 15:44:08.216325
2571  2023-10-25 15:44:08.248215
2572  2023-10-25 15:44:08.297065
2573  2023-10-25 15:44:08.328117
2574  2023-10-25 15:44:08.360032
2575  2023-10-25 15:44:08.391947
2576  2023-10-25 15:44:08.424860
2577  2023-10-25 15:44:08.456782
2578  2023-10-25 15:44:08.488803
2579  2023-10-25 15:44:08.519820
2580  2023-10-25 15:44:08.552764
2581  2023-10-25 15:44:08.585735
2582  2023-10-25 15:44:08.617632
2583  2023-10-25 15:44:08.649547
2584  2023-10-25 15:44:08.697419
2585  2023-10-25 15:44:08.729332
2586  2023-10-25 15:44:08.761246
2587  2023-10-25 15:44:08.793161
2588  2023-10-25 15:44:08.825076
2589  2023-10-25 15:44:08.856992
2590  2023-10-25 15:44:08.888905
2591  2023-10-25 15:44:08.920820
2592  2023-10-25 15:44:08.952808
2593  2023-10-25 15:44:08.984705
2594  2023-10-25 15:44:09.017624
2595  2023-10-25 15:44:09.049541
2596  2023-10-25 15:44:09.097409
2597  2023-10-25 15:44:09.129321
2598  2023-10-25 15:44:09.161250
2599  2023-10-25 15:44:09.193150
2600  2023-10-25 15:44:09.225084
2601  2023-10-25 15:44:09.256979
2602  2023-10-25 15:44:09.288912
2603  2023-10-25 15:44:09.320821
2604  2023-10-25 15:44:09.353687
2605  2023-10-25 15:44:09.384604
2606  2023-10-25 15:44:09.416521
2607  2023-10-25 15:44:09.448469
2608  2023-10-25 15:44:09.497335
2609  2023-10-25 15:44:09.529250
2610  2023-10-25 15:44:09.561184
2611  2023-10-25 15:44:09.593080
2612  2023-10-25 15:44:09.625015
2613  2023-10-25 15:44:09.656924
2614  2023-10-25 15:44:09.688792
2615  2023-10-25 15:44:09.720751
2616  2023-10-25 15:44:09.752623
2617  2023-10-25 15:44:09.784582
2618  2023-10-25 15:44:09.816487
2619  2023-10-25 15:44:09.848539
2620  2023-10-25 15:44:09.897472
2621  2023-10-25 15:44:09.928385
2622  2023-10-25 15:44:09.960809
2623  2023-10-25 15:44:09.992829
2624  2023-10-25 15:44:10.024726
2625  2023-10-25 15:44:10.056741
2626  2023-10-25 15:44:10.088656
2627  2023-10-25 15:44:10.120658
2628  2023-10-25 15:44:10.152600
2629  2023-10-25 15:44:10.184506
2630  2023-10-25 15:44:10.216434
2631  2023-10-25 15:44:10.248299
2632  2023-10-25 15:44:10.297200
2633  2023-10-25 15:44:10.328089
2634  2023-10-25 15:44:10.360002
2635  2023-10-25 15:44:10.392879
2636  2023-10-25 15:44:10.424809
2637  2023-10-25 15:44:10.456740
2638  2023-10-25 15:44:10.488678
2639  2023-10-25 15:44:10.520569
2640  2023-10-25 15:44:10.552500
2641  2023-10-25 15:44:10.584407
2642  2023-10-25 15:44:10.616315
2643  2023-10-25 15:44:10.648231
2644  2023-10-25 15:44:10.697225
2645  2023-10-25 15:44:10.728158
2646  2023-10-25 15:44:10.760052
2647  2023-10-25 15:44:10.791980
2648  2023-10-25 15:44:10.823893
2649  2023-10-25 15:44:10.856798
2650  2023-10-25 15:44:10.887719
2651  2023-10-25 15:44:10.920645
2652  2023-10-25 15:44:10.951543
2653  2023-10-25 15:44:10.984460
2654  2023-10-25 15:44:11.016373
2655  2023-10-25 15:44:11.048289
2656  2023-10-25 15:44:11.097125
2657  2023-10-25 15:44:11.128074
2658  2023-10-25 15:44:11.159919
2659  2023-10-25 15:44:11.191859
2660  2023-10-25 15:44:11.223795
2661  2023-10-25 15:44:11.255796
2662  2023-10-25 15:44:11.287702
2663  2023-10-25 15:44:11.319715
2664  2023-10-25 15:44:11.352596
2665  2023-10-25 15:44:11.383564
2666  2023-10-25 15:44:11.415575
2667  2023-10-25 15:44:11.448443
2668  2023-10-25 15:44:11.496343
2669  2023-10-25 15:44:11.529275
2670  2023-10-25 15:44:11.560178
2671  2023-10-25 15:44:11.592090
2672  2023-10-25 15:44:11.624009
2673  2023-10-25 15:44:11.657905
2674  2023-10-25 15:44:11.688802
2675  2023-10-25 15:44:11.720730
2676  2023-10-25 15:44:11.752631
2677  2023-10-25 15:44:11.784546
2678  2023-10-25 15:44:11.816460
2679  2023-10-25 15:44:11.848408
2680  2023-10-25 15:44:11.896246
2681  2023-10-25 15:44:11.928195
2682  2023-10-25 15:44:11.960109
2683  2023-10-25 15:44:11.991991
2684  2023-10-25 15:44:12.023941
2685  2023-10-25 15:44:12.056858
2686  2023-10-25 15:44:12.089794
2687  2023-10-25 15:44:12.120689
2688  2023-10-25 15:44:12.151739
2689  2023-10-25 15:44:12.183702
2690  2023-10-25 15:44:12.216712
2691  2023-10-25 15:44:12.264552
2692  2023-10-25 15:44:12.296469
2693  2023-10-25 15:44:12.329397
2694  2023-10-25 15:44:12.361308
2695  2023-10-25 15:44:12.393219
2696  2023-10-25 15:44:12.424093
2697  2023-10-25 15:44:12.456042
2698  2023-10-25 15:44:12.488952
2699  2023-10-25 15:44:12.520864
2700  2023-10-25 15:44:12.552781
2701  2023-10-25 15:44:12.583736
2702  2023-10-25 15:44:12.615717
2703  2023-10-25 15:44:12.664576
2704  2023-10-25 15:44:12.696492
2705  2023-10-25 15:44:12.728447
2706  2023-10-25 15:44:12.761346
2707  2023-10-25 15:44:12.793285
2708  2023-10-25 15:44:12.824177
2709  2023-10-25 15:44:12.856126
2710  2023-10-25 15:44:12.889090
2711  2023-10-25 15:44:12.921110
2712  2023-10-25 15:44:12.953038
2713  2023-10-25 15:44:12.983912
2714  2023-10-25 15:44:13.015996
2715  2023-10-25 15:44:13.064875
2716  2023-10-25 15:44:13.096219
2717  2023-10-25 15:44:13.129163
2718  2023-10-25 15:44:13.161082
2719  2023-10-25 15:44:13.193012
2720  2023-10-25 15:44:13.224045
2721  2023-10-25 15:44:13.256928
2722  2023-10-25 15:44:13.288872
2723  2023-10-25 15:44:13.320782
2724  2023-10-25 15:44:13.352667
2725  2023-10-25 15:44:13.384607
2726  2023-10-25 15:44:13.416495
2727  2023-10-25 15:44:13.464379
2728  2023-10-25 15:44:13.496284
2729  2023-10-25 15:44:13.529229
2730  2023-10-25 15:44:13.561145
2731  2023-10-25 15:44:13.592051
2732  2023-10-25 15:44:13.623973
2733  2023-10-25 15:44:13.655854
2734  2023-10-25 15:44:13.688840
2735  2023-10-25 15:44:13.720727
2736  2023-10-25 15:44:13.752642
2737  2023-10-25 15:44:13.783613
2738  2023-10-25 15:44:13.816536
2739  2023-10-25 15:44:13.864500
2740  2023-10-25 15:44:13.896403
2741  2023-10-25 15:44:13.928333
2742  2023-10-25 15:44:13.961240
2743  2023-10-25 15:44:13.992261
2744  2023-10-25 15:44:14.024472
2745  2023-10-25 15:44:14.056334
2746  2023-10-25 15:44:14.088393
2747  2023-10-25 15:44:14.120285
2748  2023-10-25 15:44:14.152206
2749  2023-10-25 15:44:14.184079
2750  2023-10-25 15:44:14.216037
2751  2023-10-25 15:44:14.263909
2752  2023-10-25 15:44:14.295973
2753  2023-10-25 15:44:14.327839
2754  2023-10-25 15:44:14.359750
2755  2023-10-25 15:44:14.392672
2756  2023-10-25 15:44:14.423588
2757  2023-10-25 15:44:14.456464
2758  2023-10-25 15:44:14.488431
2759  2023-10-25 15:44:14.520328
2760  2023-10-25 15:44:14.552249
2761  2023-10-25 15:44:14.584123
2762  2023-10-25 15:44:14.616099
2763  2023-10-25 15:44:14.663959
2764  2023-10-25 15:44:14.695830
2765  2023-10-25 15:44:14.727769
2766  2023-10-25 15:44:14.760689
2767  2023-10-25 15:44:14.792740
2768  2023-10-25 15:44:14.824601
2769  2023-10-25 15:44:14.856516
2770  2023-10-25 15:44:14.888483
2771  2023-10-25 15:44:14.920409
2772  2023-10-25 15:44:14.952314
2773  2023-10-25 15:44:14.984190
2774  2023-10-25 15:44:15.016132
2775  2023-10-25 15:44:15.064065
2776  2023-10-25 15:44:15.096032
2777  2023-10-25 15:44:15.127992
2778  2023-10-25 15:44:15.160017
2779  2023-10-25 15:44:15.191952
2780  2023-10-25 15:44:15.223859
2781  2023-10-25 15:44:15.255785
2782  2023-10-25 15:44:15.288673
2783  2023-10-25 15:44:15.320563
2784  2023-10-25 15:44:15.352519
2785  2023-10-25 15:44:15.384442
2786  2023-10-25 15:44:15.416307
2787  2023-10-25 15:44:15.464179
2788  2023-10-25 15:44:15.496092
2789  2023-10-25 15:44:15.528041
2790  2023-10-25 15:44:15.559978
2791  2023-10-25 15:44:15.591985
2792  2023-10-25 15:44:15.624000
2793  2023-10-25 15:44:15.655946
2794  2023-10-25 15:44:15.687907
2795  2023-10-25 15:44:15.719853
2796  2023-10-25 15:44:15.751816
2797  2023-10-25 15:44:15.783730
2798  2023-10-25 15:44:15.832676
2799  2023-10-25 15:44:15.864560
2800  2023-10-25 15:44:15.896494
2801  2023-10-25 15:44:15.928394
2802  2023-10-25 15:44:15.960315
2803  2023-10-25 15:44:15.992206
2804  2023-10-25 15:44:16.024130
2805  2023-10-25 15:44:16.056044
2806  2023-10-25 15:44:16.087949
2807  2023-10-25 15:44:16.119833
2808  2023-10-25 15:44:16.151795
2809  2023-10-25 15:44:16.183699
2810  2023-10-25 15:44:16.232591
2811  2023-10-25 15:44:16.264455
2812  2023-10-25 15:44:16.296397
2813  2023-10-25 15:44:16.328275
2814  2023-10-25 15:44:16.360311
2815  2023-10-25 15:44:16.392220
2816  2023-10-25 15:44:16.424144
2817  2023-10-25 15:44:16.456024
2818  2023-10-25 15:44:16.487994
2819  2023-10-25 15:44:16.519901
2820  2023-10-25 15:44:16.551817
2821  2023-10-25 15:44:16.584741
2822  2023-10-25 15:44:16.632579
2823  2023-10-25 15:44:16.664473
2824  2023-10-25 15:44:16.696441
2825  2023-10-25 15:44:16.728321
2826  2023-10-25 15:44:16.760340
2827  2023-10-25 15:44:16.792308
2828  2023-10-25 15:44:16.824199
2829  2023-10-25 15:44:16.855992
2830  2023-10-25 15:44:16.887907
2831  2023-10-25 15:44:16.919920
2832  2023-10-25 15:44:16.951953
2833  2023-10-25 15:44:16.983863
2834  2023-10-25 15:44:17.032666
2835  2023-10-25 15:44:17.064580
2836  2023-10-25 15:44:17.095524
2837  2023-10-25 15:44:17.128443
2838  2023-10-25 15:44:17.160374
2839  2023-10-25 15:44:17.192270
2840  2023-10-25 15:44:17.224256
2841  2023-10-25 15:44:17.256382
2842  2023-10-25 15:44:17.288372
2843  2023-10-25 15:44:17.320295
2844  2023-10-25 15:44:17.352210
2845  2023-10-25 15:44:17.384124
2846  2023-10-25 15:44:17.432009
2847  2023-10-25 15:44:17.463961
2848  2023-10-25 15:44:17.495939
2849  2023-10-25 15:44:17.527789
2850  2023-10-25 15:44:17.559746
2851  2023-10-25 15:44:17.591666
2852  2023-10-25 15:44:17.624565
2853  2023-10-25 15:44:17.655484
2854  2023-10-25 15:44:17.688403
2855  2023-10-25 15:44:17.720274
2856  2023-10-25 15:44:17.752361
2857  2023-10-25 15:44:17.784290
2858  2023-10-25 15:44:17.833107
2859  2023-10-25 15:44:17.864064
2860  2023-10-25 15:44:17.895937
2861  2023-10-25 15:44:17.927901
2862  2023-10-25 15:44:17.959767
2863  2023-10-25 15:44:17.991714
2864  2023-10-25 15:44:18.024642
2865  2023-10-25 15:44:18.056611
2866  2023-10-25 15:44:18.088153
2867  2023-10-25 15:44:18.120190
2868  2023-10-25 15:44:18.152095
2869  2023-10-25 15:44:18.184040
2870  2023-10-25 15:44:18.232874
2871  2023-10-25 15:44:18.263813
2872  2023-10-25 15:44:18.295714
2873  2023-10-25 15:44:18.327606
2874  2023-10-25 15:44:18.359624
2875  2023-10-25 15:44:18.392506
2876  2023-10-25 15:44:18.424476
2877  2023-10-25 15:44:18.456380
2878  2023-10-25 15:44:18.488252
2879  2023-10-25 15:44:18.520166
2880  2023-10-25 15:44:18.552080
2881  2023-10-25 15:44:18.583996
2882  2023-10-25 15:44:18.632033
2883  2023-10-25 15:44:18.663885
2884  2023-10-25 15:44:18.695755
2885  2023-10-25 15:44:18.728720
2886  2023-10-25 15:44:18.759618
2887  2023-10-25 15:44:18.792512
2888  2023-10-25 15:44:18.824455
2889  2023-10-25 15:44:18.856359
2890  2023-10-25 15:44:18.888268
2891  2023-10-25 15:44:18.920197
2892  2023-10-25 15:44:18.952112
2893  2023-10-25 15:44:18.984051
2894  2023-10-25 15:44:19.031885
2895  2023-10-25 15:44:19.064817
2896  2023-10-25 15:44:19.095718
2897  2023-10-25 15:44:19.128640
2898  2023-10-25 15:44:19.160553
2899  2023-10-25 15:44:19.192470
2900  2023-10-25 15:44:19.224386
2901  2023-10-25 15:44:19.256265
2902  2023-10-25 15:44:19.288174
2903  2023-10-25 15:44:19.320127
2904  2023-10-25 15:44:19.352048
2905  2023-10-25 15:44:19.399912
2906  2023-10-25 15:44:19.431788
2907  2023-10-25 15:44:19.463702
2908  2023-10-25 15:44:19.496614
2909  2023-10-25 15:44:19.527563
2910  2023-10-25 15:44:19.560478
2911  2023-10-25 15:44:19.592409
2912  2023-10-25 15:44:19.624317
2913  2023-10-25 15:44:19.656230
2914  2023-10-25 15:44:19.688149
2915  2023-10-25 15:44:19.720058
2916  2023-10-25 15:44:19.751997
2917  2023-10-25 15:44:19.800801
2918  2023-10-25 15:44:19.832717
2919  2023-10-25 15:44:19.864674
2920  2023-10-25 15:44:19.895581
2921  2023-10-25 15:44:19.927491
2922  2023-10-25 15:44:19.960432
2923  2023-10-25 15:44:19.992340
2924  2023-10-25 15:44:20.024237
2925  2023-10-25 15:44:20.056159
2926  2023-10-25 15:44:20.088064
2927  2023-10-25 15:44:20.119973
2928  2023-10-25 15:44:20.151892
2929  2023-10-25 15:44:20.199782
2930  2023-10-25 15:44:20.232673
2931  2023-10-25 15:44:20.264561
2932  2023-10-25 15:44:20.296476
2933  2023-10-25 15:44:20.328391
2934  2023-10-25 15:44:20.360306
2935  2023-10-25 15:44:20.392270
2936  2023-10-25 15:44:20.424139
2937  2023-10-25 15:44:20.456053
2938  2023-10-25 15:44:20.487965
2939  2023-10-25 15:44:20.519880
2940  2023-10-25 15:44:20.551794
2941  2023-10-25 15:44:20.600664
2942  2023-10-25 15:44:20.632606
2943  2023-10-25 15:44:20.664495
2944  2023-10-25 15:44:20.696408
2945  2023-10-25 15:44:20.728406
2946  2023-10-25 15:44:20.760306
2947  2023-10-25 15:44:20.792196
2948  2023-10-25 15:44:20.824109
2949  2023-10-25 15:44:20.856076
2950  2023-10-25 15:44:20.887978
2951  2023-10-25 15:44:20.919894
2952  2023-10-25 15:44:20.951811
2953  2023-10-25 15:44:21.000683
2954  2023-10-25 15:44:21.032588
2955  2023-10-25 15:44:21.064495
2956  2023-10-25 15:44:21.096405
2957  2023-10-25 15:44:21.128330
2958  2023-10-25 15:44:21.160252
2959  2023-10-25 15:44:21.192158
2960  2023-10-25 15:44:21.224065
2961  2023-10-25 15:44:21.256952
2962  2023-10-25 15:44:21.287902
2963  2023-10-25 15:44:21.320289
2964  2023-10-25 15:44:21.352279
2965  2023-10-25 15:44:21.400120
2966  2023-10-25 15:44:21.432021
2967  2023-10-25 15:44:21.464989
2968  2023-10-25 15:44:21.495954
2969  2023-10-25 15:44:21.527870
2970  2023-10-25 15:44:21.559818
2971  2023-10-25 15:44:21.591786
2972  2023-10-25 15:44:21.623705
2973  2023-10-25 15:44:21.655605
2974  2023-10-25 15:44:21.687515
2975  2023-10-25 15:44:21.719401
2976  2023-10-25 15:44:21.752344
2977  2023-10-25 15:44:21.800184
2978  2023-10-25 15:44:21.832131
2979  2023-10-25 15:44:21.864048
2980  2023-10-25 15:44:21.895986
2981  2023-10-25 15:44:21.927905
2982  2023-10-25 15:44:21.959782
2983  2023-10-25 15:44:21.991702
2984  2023-10-25 15:44:22.023585
2985  2023-10-25 15:44:22.055604
2986  2023-10-25 15:44:22.087519
2987  2023-10-25 15:44:22.120515
2988  2023-10-25 15:44:22.152441
2989  2023-10-25 15:44:22.200263
2990  2023-10-25 15:44:22.232218
2991  2023-10-25 15:44:22.264094
2992  2023-10-25 15:44:22.296037
2993  2023-10-25 15:44:22.327964
2994  2023-10-25 15:44:22.359917
2995  2023-10-25 15:44:22.391796
2996  2023-10-25 15:44:22.423706
2997  2023-10-25 15:44:22.455582
2998  2023-10-25 15:44:22.487531
2999  2023-10-25 15:44:22.520462
3000  2023-10-25 15:44:22.552346
3001  2023-10-25 15:44:22.600227
3002  2023-10-25 15:44:22.632109
3003  2023-10-25 15:44:22.664050
3004  2023-10-25 15:44:22.695974
3005  2023-10-25 15:44:22.727890
3006  2023-10-25 15:44:22.759800
3007  2023-10-25 15:44:22.791713
3008  2023-10-25 15:44:22.823629
3009  2023-10-25 15:44:22.856567
3010  2023-10-25 15:44:22.888476
3011  2023-10-25 15:44:22.920374
3012  2023-10-25 15:44:22.952254
3013  2023-10-25 15:44:23.000182
3014  2023-10-25 15:44:23.032098
3015  2023-10-25 15:44:23.064012
3016  2023-10-25 15:44:23.095944
3017  2023-10-25 15:44:23.127824
3018  2023-10-25 15:44:23.159730
3019  2023-10-25 15:44:23.191639
3020  2023-10-25 15:44:23.223561
3021  2023-10-25 15:44:23.256501
3022  2023-10-25 15:44:23.288388
3023  2023-10-25 15:44:23.320303
3024  2023-10-25 15:44:23.368152
3025  2023-10-25 15:44:23.400054
3026  2023-10-25 15:44:23.432005
3027  2023-10-25 15:44:23.463938
3028  2023-10-25 15:44:23.495830
3029  2023-10-25 15:44:23.527749
3030  2023-10-25 15:44:23.559662
3031  2023-10-25 15:44:23.591575
3032  2023-10-25 15:44:23.624489
3033  2023-10-25 15:44:23.656395
3034  2023-10-25 15:44:23.688308
3035  2023-10-25 15:44:23.720237
3036  2023-10-25 15:44:23.768110
3037  2023-10-25 15:44:23.801018
3038  2023-10-25 15:44:23.831914
3039  2023-10-25 15:44:23.863854
3040  2023-10-25 15:44:23.895761
3041  2023-10-25 15:44:23.927678
3042  2023-10-25 15:44:23.960556
3043  2023-10-25 15:44:23.992471
3044  2023-10-25 15:44:24.024427
3045  2023-10-25 15:44:24.056351
3046  2023-10-25 15:44:24.088240
3047  2023-10-25 15:44:24.120129
3048  2023-10-25 15:44:24.168052
3049  2023-10-25 15:44:24.199918
3050  2023-10-25 15:44:24.232866
3051  2023-10-25 15:44:24.263838
3052  2023-10-25 15:44:24.295661
3053  2023-10-25 15:44:24.327616
3054  2023-10-25 15:44:24.360486
3055  2023-10-25 15:44:24.392401
3056  2023-10-25 15:44:24.424347
3057  2023-10-25 15:44:24.456264
3058  2023-10-25 15:44:24.488170
3059  2023-10-25 15:44:24.520060
3060  2023-10-25 15:44:24.567952
3061  2023-10-25 15:44:24.599847
3062  2023-10-25 15:44:24.632771
3063  2023-10-25 15:44:24.663704
3064  2023-10-25 15:44:24.695624
3065  2023-10-25 15:44:24.728532
3066  2023-10-25 15:44:24.760458
3067  2023-10-25 15:44:24.792332
3068  2023-10-25 15:44:24.824248
3069  2023-10-25 15:44:24.856186
3070  2023-10-25 15:44:24.888107
3071  2023-10-25 15:44:24.919991
3072  2023-10-25 15:44:24.967872
3073  2023-10-25 15:44:24.999777
3074  2023-10-25 15:44:25.032690
3075  2023-10-25 15:44:25.063608
3076  2023-10-25 15:44:25.095555
3077  2023-10-25 15:44:25.128474
3078  2023-10-25 15:44:25.160348
3079  2023-10-25 15:44:25.192263
3080  2023-10-25 15:44:25.224213
3081  2023-10-25 15:44:25.256116
3082  2023-10-25 15:44:25.288036
3083  2023-10-25 15:44:25.319921
3084  2023-10-25 15:44:25.367829
3085  2023-10-25 15:44:25.399740
3086  2023-10-25 15:44:25.432651
3087  2023-10-25 15:44:25.464586
3088  2023-10-25 15:44:25.496451
3089  2023-10-25 15:44:25.528395
3090  2023-10-25 15:44:25.560282
3091  2023-10-25 15:44:25.592245
3092  2023-10-25 15:44:25.624140
3093  2023-10-25 15:44:25.656059
3094  2023-10-25 15:44:25.687975
3095  2023-10-25 15:44:25.719852
3096  2023-10-25 15:44:25.767759
3097  2023-10-25 15:44:25.800686
3098  2023-10-25 15:44:25.832583
3099  2023-10-25 15:44:25.864525
3100  2023-10-25 15:44:25.896427
3101  2023-10-25 15:44:25.928332
3102  2023-10-25 15:44:25.960234
3103  2023-10-25 15:44:25.992124
3104  2023-10-25 15:44:26.024072
3105  2023-10-25 15:44:26.055984
3106  2023-10-25 15:44:26.087910
3107  2023-10-25 15:44:26.119783
3108  2023-10-25 15:44:26.168693
3109  2023-10-25 15:44:26.200595
3110  2023-10-25 15:44:26.232650
3111  2023-10-25 15:44:26.264560
3112  2023-10-25 15:44:26.295478
3113  2023-10-25 15:44:26.328380
3114  2023-10-25 15:44:26.360270
3115  2023-10-25 15:44:26.392185
3116  2023-10-25 15:44:26.424135
3117  2023-10-25 15:44:26.456040
3118  2023-10-25 15:44:26.487978
3119  2023-10-25 15:44:26.519844
3120  2023-10-25 15:44:26.568764
3121  2023-10-25 15:44:26.599632
3122  2023-10-25 15:44:26.632544
3123  2023-10-25 15:44:26.664496
3124  2023-10-25 15:44:26.696372
3125  2023-10-25 15:44:26.728288
3126  2023-10-25 15:44:26.760201
3127  2023-10-25 15:44:26.792116
3128  2023-10-25 15:44:26.824081
3129  2023-10-25 15:44:26.855977
3130  2023-10-25 15:44:26.887885
3131  2023-10-25 15:44:26.935769
3132  2023-10-25 15:44:26.968679
3133  2023-10-25 15:44:27.000597
3134  2023-10-25 15:44:27.032474
3135  2023-10-25 15:44:27.064390
3136  2023-10-25 15:44:27.096302
3137  2023-10-25 15:44:27.128256
3138  2023-10-25 15:44:27.160132
3139  2023-10-25 15:44:27.192054
3140  2023-10-25 15:44:27.223999
3141  2023-10-25 15:44:27.255947
3142  2023-10-25 15:44:27.287819
3143  2023-10-25 15:44:27.336693
3144  2023-10-25 15:44:27.368576
3145  2023-10-25 15:44:27.400522
3146  2023-10-25 15:44:27.432431
3147  2023-10-25 15:44:27.464319
3148  2023-10-25 15:44:27.496233
3149  2023-10-25 15:44:27.528181
3150  2023-10-25 15:44:27.560105
3151  2023-10-25 15:44:27.592025
3152  2023-10-25 15:44:27.623933
3153  2023-10-25 15:44:27.655687
3154  2023-10-25 15:44:27.687594
3155  2023-10-25 15:44:27.736499
3156  2023-10-25 15:44:27.768464
3157  2023-10-25 15:44:27.800362
3158  2023-10-25 15:44:27.832277
3159  2023-10-25 15:44:27.864190
3160  2023-10-25 15:44:27.896073
3161  2023-10-25 15:44:27.927986
3162  2023-10-25 15:44:27.959900
3163  2023-10-25 15:44:27.991815
3164  2023-10-25 15:44:28.023730
3165  2023-10-25 15:44:28.055644
3166  2023-10-25 15:44:28.087609
3167  2023-10-25 15:44:28.136469
3168  2023-10-25 15:44:28.168343
3169  2023-10-25 15:44:28.200295
3170  2023-10-25 15:44:28.232216
3171  2023-10-25 15:44:28.264088
3172  2023-10-25 15:44:28.296002
3173  2023-10-25 15:44:28.327967
3174  2023-10-25 15:44:28.359855
3175  2023-10-25 15:44:28.391746
3176  2023-10-25 15:44:28.423686
3177  2023-10-25 15:44:28.455610
3178  2023-10-25 15:44:28.488487
3179  2023-10-25 15:44:28.536359
3180  2023-10-25 15:44:28.568274
3181  2023-10-25 15:44:28.600221
3182  2023-10-25 15:44:28.632157
3183  2023-10-25 15:44:28.664057
3184  2023-10-25 15:44:28.695932
3185  2023-10-25 15:44:28.727847
3186  2023-10-25 15:44:28.759795
3187  2023-10-25 15:44:28.791723
3188  2023-10-25 15:44:28.824589
3189  2023-10-25 15:44:28.856503
3190  2023-10-25 15:44:28.888465
3191  2023-10-25 15:44:28.936292
3192  2023-10-25 15:44:28.968205
3193  2023-10-25 15:44:29.000127
3194  2023-10-25 15:44:29.032063
3195  2023-10-25 15:44:29.063980
3196  2023-10-25 15:44:29.095863
3197  2023-10-25 15:44:29.127778
3198  2023-10-25 15:44:29.159826
3199  2023-10-25 15:44:29.191740
3200  2023-10-25 15:44:29.223655
3201  2023-10-25 15:44:29.255570
3202  2023-10-25 15:44:29.287484
3203  2023-10-25 15:44:29.336424
3204  2023-10-25 15:44:29.368273
3205  2023-10-25 15:44:29.400183
3206  2023-10-25 15:44:29.432100
3207  2023-10-25 15:44:29.464048
3208  2023-10-25 15:44:29.495967
3209  2023-10-25 15:44:29.527842
3210  2023-10-25 15:44:29.559756
3211  2023-10-25 15:44:29.591697
3212  2023-10-25 15:44:29.623613
3213  2023-10-25 15:44:29.656498
3214  2023-10-25 15:44:29.688417
3215  2023-10-25 15:44:29.736284
3216  2023-10-25 15:44:29.768257
3217  2023-10-25 15:44:29.800145
3218  2023-10-25 15:44:29.832031
3219  2023-10-25 15:44:29.863993
3220  2023-10-25 15:44:29.895858
3221  2023-10-25 15:44:29.927799
3222  2023-10-25 15:44:29.959716
3223  2023-10-25 15:44:29.991602
3224  2023-10-25 15:44:30.023516
3225  2023-10-25 15:44:30.056459
3226  2023-10-25 15:44:30.088399
3227  2023-10-25 15:44:30.136215
3228  2023-10-25 15:44:30.168130
3229  2023-10-25 15:44:30.200045
3230  2023-10-25 15:44:30.231960
3231  2023-10-25 15:44:30.263960
3232  2023-10-25 15:44:30.295788
3233  2023-10-25 15:44:30.327703
3234  2023-10-25 15:44:30.359618
3235  2023-10-25 15:44:30.392530
3236  2023-10-25 15:44:30.423967
3237  2023-10-25 15:44:30.455904
3238  2023-10-25 15:44:30.487830
3239  2023-10-25 15:44:30.536750
3240  2023-10-25 15:44:30.568614
3241  2023-10-25 15:44:30.600582
3242  2023-10-25 15:44:30.632490
3243  2023-10-25 15:44:30.664487
3244  2023-10-25 15:44:30.696366
3245  2023-10-25 15:44:30.728281
3246  2023-10-25 15:44:30.760196
3247  2023-10-25 15:44:30.792111
3248  2023-10-25 15:44:30.824025
3249  2023-10-25 15:44:30.855940
3250  2023-10-25 15:44:30.904809
3251  2023-10-25 15:44:30.936767
3252  2023-10-25 15:44:30.968711
3253  2023-10-25 15:44:31.000671
3254  2023-10-25 15:44:31.032557
3255  2023-10-25 15:44:31.064471
3256  2023-10-25 15:44:31.096415
3257  2023-10-25 15:44:31.128334
3258  2023-10-25 15:44:31.160215
3259  2023-10-25 15:44:31.192130
3260  2023-10-25 15:44:31.224044
3261  2023-10-25 15:44:31.255993
3262  2023-10-25 15:44:31.303883
3263  2023-10-25 15:44:31.335807
3264  2023-10-25 15:44:31.368659
3265  2023-10-25 15:44:31.400601
3266  2023-10-25 15:44:31.432528
3267  2023-10-25 15:44:31.464435
3268  2023-10-25 15:44:31.496316
3269  2023-10-25 15:44:31.528231
3270  2023-10-25 15:44:31.560146
3271  2023-10-25 15:44:31.592093
3272  2023-10-25 15:44:31.623975
3273  2023-10-25 15:44:31.655890
3274  2023-10-25 15:44:31.703762
3275  2023-10-25 15:44:31.736419
3276  2023-10-25 15:44:31.768325
3277  2023-10-25 15:44:31.800292
3278  2023-10-25 15:44:31.832155
3279  2023-10-25 15:44:31.864069
3280  2023-10-25 15:44:31.895983
3281  2023-10-25 15:44:31.927929
3282  2023-10-25 15:44:31.959812
3283  2023-10-25 15:44:31.991727
3284  2023-10-25 15:44:32.023641
3285  2023-10-25 15:44:32.055556
3286  2023-10-25 15:44:32.104480
3287  2023-10-25 15:44:32.136341
3288  2023-10-25 15:44:32.168291
3289  2023-10-25 15:44:32.201168
3290  2023-10-25 15:44:32.232085
3291  2023-10-25 15:44:32.264998
3292  2023-10-25 15:44:32.296949
3293  2023-10-25 15:44:32.328828
3294  2023-10-25 15:44:32.359769
3295  2023-10-25 15:44:32.391700
3296  2023-10-25 15:44:32.424606
3297  2023-10-25 15:44:32.455618
3298  2023-10-25 15:44:32.504509
3299  2023-10-25 15:44:32.536366
3300  2023-10-25 15:44:32.568281
3301  2023-10-25 15:44:32.600195
3302  2023-10-25 15:44:32.632145
3303  2023-10-25 15:44:32.664050
3304  2023-10-25 15:44:32.695939
3305  2023-10-25 15:44:32.727929
3306  2023-10-25 15:44:32.759651
3307  2023-10-25 15:44:32.791635
3308  2023-10-25 15:44:32.823576
3309  2023-10-25 15:44:32.856488
3310  2023-10-25 15:44:32.904363
3311  2023-10-25 15:44:32.936275
3312  2023-10-25 15:44:32.968190
3313  2023-10-25 15:44:33.000136
3314  2023-10-25 15:44:33.032019
3315  2023-10-25 15:44:33.063989
3316  2023-10-25 15:44:33.095848
3317  2023-10-25 15:44:33.127809
3318  2023-10-25 15:44:33.159799
3319  2023-10-25 15:44:33.191713
3320  2023-10-25 15:44:33.223628
3321  2023-10-25 15:44:33.255543
3322  2023-10-25 15:44:33.304438
3323  2023-10-25 15:44:33.336336
3324  2023-10-25 15:44:33.368325
3325  2023-10-25 15:44:33.400240
3326  2023-10-25 15:44:33.432198
3327  2023-10-25 15:44:33.464102
3328  2023-10-25 15:44:33.495982
3329  2023-10-25 15:44:33.527906
3330  2023-10-25 15:44:33.559811
3331  2023-10-25 15:44:33.591777
3332  2023-10-25 15:44:33.623641
3333  2023-10-25 15:44:33.655555
3334  2023-10-25 15:44:33.704458
3335  2023-10-25 15:44:33.736412
3336  2023-10-25 15:44:33.768256
3337  2023-10-25 15:44:33.800170
3338  2023-10-25 15:44:33.832270
3339  2023-10-25 15:44:33.864198
3340  2023-10-25 15:44:33.896099
3341  2023-10-25 15:44:33.928054
3342  2023-10-25 15:44:33.959928
3343  2023-10-25 15:44:33.991843
3344  2023-10-25 15:44:34.023758
3345  2023-10-25 15:44:34.055672
3346  2023-10-25 15:44:34.104600
3347  2023-10-25 15:44:34.136457
3348  2023-10-25 15:44:34.168418
3349  2023-10-25 15:44:34.200333
3350  2023-10-25 15:44:34.232252
3351  2023-10-25 15:44:34.264115
3352  2023-10-25 15:44:34.296088
3353  2023-10-25 15:44:34.328007
3354  2023-10-25 15:44:34.359919
3355  2023-10-25 15:44:34.391869
3356  2023-10-25 15:44:34.423784
3357  2023-10-25 15:44:34.472710
3358  2023-10-25 15:44:34.504613
3359  2023-10-25 15:44:34.536514
3360  2023-10-25 15:44:34.568538
3361  2023-10-25 15:44:34.600453
3362  2023-10-25 15:44:34.632334
3363  2023-10-25 15:44:34.664240
3364  2023-10-25 15:44:34.696154
3365  2023-10-25 15:44:34.728068
3366  2023-10-25 15:44:34.760015
3367  2023-10-25 15:44:34.791940
3368  2023-10-25 15:44:34.823812
3369  2023-10-25 15:44:34.872682
3370  2023-10-25 15:44:34.903895
3371  2023-10-25 15:44:34.935764
3372  2023-10-25 15:44:34.968677
3373  2023-10-25 15:44:35.000625
3374  2023-10-25 15:44:35.032599
3375  2023-10-25 15:44:35.064421
3376  2023-10-25 15:44:35.096335
3377  2023-10-25 15:44:35.128250
3378  2023-10-25 15:44:35.160164
3379  2023-10-25 15:44:35.192079
3380  2023-10-25 15:44:35.223994
3381  2023-10-25 15:44:35.271658
3382  2023-10-25 15:44:35.304603
3383  2023-10-25 15:44:35.336484
3384  2023-10-25 15:44:35.368488
3385  2023-10-25 15:44:35.400355
3386  2023-10-25 15:44:35.432262
3387  2023-10-25 15:44:35.464179
3388  2023-10-25 15:44:35.496057
3389  2023-10-25 15:44:35.527972
3390  2023-10-25 15:44:35.559886
3391  2023-10-25 15:44:35.591801
3392  2023-10-25 15:44:35.624748
3393  2023-10-25 15:44:35.672585
3394  2023-10-25 15:44:35.704511
3395  2023-10-25 15:44:35.736415
3396  2023-10-25 15:44:35.768333
3397  2023-10-25 15:44:35.800245
3398  2023-10-25 15:44:35.832209
3399  2023-10-25 15:44:35.864074
3400  2023-10-25 15:44:35.895988
3401  2023-10-25 15:44:35.927990
3402  2023-10-25 15:44:35.959859
3403  2023-10-25 15:44:35.991732
3404  2023-10-25 15:44:36.023646
3405  2023-10-25 15:44:36.072694
3406  2023-10-25 15:44:36.104609
3407  2023-10-25 15:44:36.136583
3408  2023-10-25 15:44:36.168482
3409  2023-10-25 15:44:36.200351
3410  2023-10-25 15:44:36.232273
3411  2023-10-25 15:44:36.264184
3412  2023-10-25 15:44:36.296129
3413  2023-10-25 15:44:36.328010
3414  2023-10-25 15:44:36.359924
3415  2023-10-25 15:44:36.391839
3416  2023-10-25 15:44:36.423788
3417  2023-10-25 15:44:36.472677
3418  2023-10-25 15:44:36.504574
3419  2023-10-25 15:44:36.536453
3420  2023-10-25 15:44:36.568367
3421  2023-10-25 15:44:36.600325
3422  2023-10-25 15:44:36.632239
3423  2023-10-25 15:44:36.664154
3424  2023-10-25 15:44:36.696069
3425  2023-10-25 15:44:36.727983
3426  2023-10-25 15:44:36.759897
3427  2023-10-25 15:44:36.791869
3428  2023-10-25 15:44:36.823784
3429  2023-10-25 15:44:36.872673
3430  2023-10-25 15:44:36.904569
3431  2023-10-25 15:44:36.936534
3432  2023-10-25 15:44:36.968398
3433  2023-10-25 15:44:37.000312
3434  2023-10-25 15:44:37.032228
3435  2023-10-25 15:44:37.064143
3436  2023-10-25 15:44:37.096056
3437  2023-10-25 15:44:37.127971
3438  2023-10-25 15:44:37.160039
3439  2023-10-25 15:44:37.191953
3440  2023-10-25 15:44:37.223868
3441  2023-10-25 15:44:37.271946
3442  2023-10-25 15:44:37.303864
3443  2023-10-25 15:44:37.336762
3444  2023-10-25 15:44:37.368678
3445  2023-10-25 15:44:37.400566
3446  2023-10-25 15:44:37.432481
3447  2023-10-25 15:44:37.464408
3448  2023-10-25 15:44:37.496351
3449  2023-10-25 15:44:37.528225
3450  2023-10-25 15:44:37.560140
3451  2023-10-25 15:44:37.592092
3452  2023-10-25 15:44:37.624003
3453  2023-10-25 15:44:37.671889
3454  2023-10-25 15:44:37.704754
3455  2023-10-25 15:44:37.736684
3456  2023-10-25 15:44:37.768614
3457  2023-10-25 15:44:37.800498
3458  2023-10-25 15:44:37.832412
3459  2023-10-25 15:44:37.864380
3460  2023-10-25 15:44:37.896241
3461  2023-10-25 15:44:37.928156
3462  2023-10-25 15:44:37.960070
3463  2023-10-25 15:44:37.991985
3464  2023-10-25 15:44:38.039899
3465  2023-10-25 15:44:38.071802
3466  2023-10-25 15:44:38.104711
3467  2023-10-25 15:44:38.136635
3468  2023-10-25 15:44:38.168515
3469  2023-10-25 15:44:38.200428
3470  2023-10-25 15:44:38.232343
3471  2023-10-25 15:44:38.264436
3472  2023-10-25 15:44:38.296318
3473  2023-10-25 15:44:38.328233
3474  2023-10-25 15:44:38.360148
3475  2023-10-25 15:44:38.392062
3476  2023-10-25 15:44:38.439970
3477  2023-10-25 15:44:38.471850
3478  2023-10-25 15:44:38.504772
3479  2023-10-25 15:44:38.536676
3480  2023-10-25 15:44:38.568603
3481  2023-10-25 15:44:38.600556
3482  2023-10-25 15:44:38.632545
3483  2023-10-25 15:44:38.664460
3484  2023-10-25 15:44:38.696373
3485  2023-10-25 15:44:38.728287
3486  2023-10-25 15:44:38.760202
3487  2023-10-25 15:44:38.792118
3488  2023-10-25 15:44:38.840055
3489  2023-10-25 15:44:38.872345
3490  2023-10-25 15:44:38.904259
3491  2023-10-25 15:44:38.936174
3492  2023-10-25 15:44:38.968148
3493  2023-10-25 15:44:39.000040
3494  2023-10-25 15:44:39.031971
3495  2023-10-25 15:44:39.063854
3496  2023-10-25 15:44:39.095779
3497  2023-10-25 15:44:39.127697
3498  2023-10-25 15:44:39.160573
3499  2023-10-25 15:44:39.192488
3500  2023-10-25 15:44:39.240361
3501  2023-10-25 15:44:39.273318
3502  2023-10-25 15:44:39.304207
3503  2023-10-25 15:44:39.336173
3504  2023-10-25 15:44:39.368057
3505  2023-10-25 15:44:39.401975
3506  2023-10-25 15:44:39.433878
3507  2023-10-25 15:44:39.465805
3508  2023-10-25 15:44:39.495795
3509  2023-10-25 15:44:39.529740
3510  2023-10-25 15:44:39.561671
3511  2023-10-25 15:44:39.591541
3512  2023-10-25 15:44:39.641447
3513  2023-10-25 15:44:39.673356
3514  2023-10-25 15:44:39.705272
3515  2023-10-25 15:44:39.738188
3516  2023-10-25 15:44:39.770065
3517  2023-10-25 15:44:39.801104
3518  2023-10-25 15:44:39.833983
3519  2023-10-25 15:44:39.865958
3520  2023-10-25 15:44:39.897853
3521  2023-10-25 15:44:39.929758
3522  2023-10-25 15:44:39.961682
3523  2023-10-25 15:44:39.993604
3524  2023-10-25 15:44:40.041457
3525  2023-10-25 15:44:40.073480
3526  2023-10-25 15:44:40.105639
3527  2023-10-25 15:44:40.137658
3528  2023-10-25 15:44:40.168661
3529  2023-10-25 15:44:40.201686
3530  2023-10-25 15:44:40.233601
3531  2023-10-25 15:44:40.264525
3532  2023-10-25 15:44:40.296438
3533  2023-10-25 15:44:40.329380
3534  2023-10-25 15:44:40.361295
3535  2023-10-25 15:44:40.393208
3536  2023-10-25 15:44:40.440141
3537  2023-10-25 15:44:40.472016
3538  2023-10-25 15:44:40.505963
3539  2023-10-25 15:44:40.537935
3540  2023-10-25 15:44:40.569842
3541  2023-10-25 15:44:40.600728
3542  2023-10-25 15:44:40.632640
3543  2023-10-25 15:44:40.664557
3544  2023-10-25 15:44:40.697515
3545  2023-10-25 15:44:40.729432
3546  2023-10-25 15:44:40.761347
3547  2023-10-25 15:44:40.793261
3548  2023-10-25 15:44:40.842125
3549  2023-10-25 15:44:40.874041
3550  2023-10-25 15:44:40.906023
3551  2023-10-25 15:44:40.937944
3552  2023-10-25 15:44:40.969849
3553  2023-10-25 15:44:41.001762
3554  2023-10-25 15:44:41.034669
3555  2023-10-25 15:44:41.065584
3556  2023-10-25 15:44:41.097500
3557  2023-10-25 15:44:41.129425
3558  2023-10-25 15:44:41.161339
3559  2023-10-25 15:44:41.193253
3560  2023-10-25 15:44:41.241118
3561  2023-10-25 15:44:41.273997
