
1  2023-12-04 12:33:02.950432
2  2023-12-04 12:33:02.997360
3  2023-12-04 12:33:03.029268
4  2023-12-04 12:33:03.076251
5  2023-12-04 12:33:03.122101
6  2023-12-04 12:33:03.153046
7  2023-12-04 12:33:03.200943
8  2023-12-04 12:33:03.232857
9  2023-12-04 12:33:03.280763
10  2023-12-04 12:33:03.328601
11  2023-12-04 12:33:03.360516
12  2023-12-04 12:33:03.408436
13  2023-12-04 12:33:03.456376
14  2023-12-04 12:33:03.488301
15  2023-12-04 12:33:03.536286
16  2023-12-04 12:33:03.568220
17  2023-12-04 12:33:03.616075
18  2023-12-04 12:33:03.663913
19  2023-12-04 12:33:03.695827
20  2023-12-04 12:33:03.743734
21  2023-12-04 12:33:03.775613
22  2023-12-04 12:33:03.823193
23  2023-12-04 12:33:03.870966
24  2023-12-04 12:33:03.902866
25  2023-12-04 12:33:03.950699
26  2023-12-04 12:33:03.982644
27  2023-12-04 12:33:04.030188
28  2023-12-04 12:33:04.078056
29  2023-12-04 12:33:04.110019
30  2023-12-04 12:33:04.156894
31  2023-12-04 12:33:04.204767
32  2023-12-04 12:33:04.235684
33  2023-12-04 12:33:04.283555
34  2023-12-04 12:33:04.330430
35  2023-12-04 12:33:04.362377
36  2023-12-04 12:33:04.410249
37  2023-12-04 12:33:04.442165
38  2023-12-04 12:33:04.490003
39  2023-12-04 12:33:04.537908
40  2023-12-04 12:33:04.569829
41  2023-12-04 12:33:04.617548
42  2023-12-04 12:33:04.649462
43  2023-12-04 12:33:04.697380
44  2023-12-04 12:33:04.745235
45  2023-12-04 12:33:04.777119
46  2023-12-04 12:33:04.825064
47  2023-12-04 12:33:04.872970
48  2023-12-04 12:33:04.904851
49  2023-12-04 12:33:04.952723
50  2023-12-04 12:33:04.984675
51  2023-12-04 12:33:05.032510
52  2023-12-04 12:33:05.080601
53  2023-12-04 12:33:05.112296
54  2023-12-04 12:33:05.160200
55  2023-12-04 12:33:05.192113
56  2023-12-04 12:33:05.238994
57  2023-12-04 12:33:05.286885
58  2023-12-04 12:33:05.318779
59  2023-12-04 12:33:05.366616
60  2023-12-04 12:33:05.414523
61  2023-12-04 12:33:05.446433
62  2023-12-04 12:33:05.493277
63  2023-12-04 12:33:05.525228
64  2023-12-04 12:33:05.573064
65  2023-12-04 12:33:05.620936
66  2023-12-04 12:33:05.652887
67  2023-12-04 12:33:05.699725
68  2023-12-04 12:33:05.747638
69  2023-12-04 12:33:05.778549
70  2023-12-04 12:33:05.826494
71  2023-12-04 12:33:05.858450
72  2023-12-04 12:33:05.906336
73  2023-12-04 12:33:05.954198
74  2023-12-04 12:33:05.986112
75  2023-12-04 12:33:06.033985
76  2023-12-04 12:33:06.065899
77  2023-12-04 12:33:06.113806
78  2023-12-04 12:33:06.160647
79  2023-12-04 12:33:06.192562
80  2023-12-04 12:33:06.239452
81  2023-12-04 12:33:06.286311
82  2023-12-04 12:33:06.318326
83  2023-12-04 12:33:06.366282
84  2023-12-04 12:33:06.414165
85  2023-12-04 12:33:06.446069
86  2023-12-04 12:33:06.493904
87  2023-12-04 12:33:06.525819
88  2023-12-04 12:33:06.573691
89  2023-12-04 12:33:06.621563
90  2023-12-04 12:33:06.652480
91  2023-12-04 12:33:06.700352
92  2023-12-04 12:33:06.747245
93  2023-12-04 12:33:06.779178
94  2023-12-04 12:33:06.827014
95  2023-12-04 12:33:06.858928
96  2023-12-04 12:33:06.905803
97  2023-12-04 12:33:06.953675
98  2023-12-04 12:33:06.985590
99  2023-12-04 12:33:07.033462
100  2023-12-04 12:33:07.081333
101  2023-12-04 12:33:07.113248
102  2023-12-04 12:33:07.160160
103  2023-12-04 12:33:07.192037
104  2023-12-04 12:33:07.239943
105  2023-12-04 12:33:07.287781
106  2023-12-04 12:33:07.318734
107  2023-12-04 12:33:07.365615
108  2023-12-04 12:33:07.413483
109  2023-12-04 12:33:07.445398
110  2023-12-04 12:33:07.492271
111  2023-12-04 12:33:07.539146
112  2023-12-04 12:33:07.571062
113  2023-12-04 12:33:07.618929
114  2023-12-04 12:33:07.650811
115  2023-12-04 12:33:07.697685
116  2023-12-04 12:33:07.744595
117  2023-12-04 12:33:07.776509
118  2023-12-04 12:33:07.824347
119  2023-12-04 12:33:07.872304
120  2023-12-04 12:33:07.904275
121  2023-12-04 12:33:07.951345
122  2023-12-04 12:33:07.998077
123  2023-12-04 12:33:08.028994
124  2023-12-04 12:33:08.076866
125  2023-12-04 12:33:08.108813
126  2023-12-04 12:33:08.156653
127  2023-12-04 12:33:08.203527
128  2023-12-04 12:33:08.235483
129  2023-12-04 12:33:08.282316
130  2023-12-04 12:33:08.330188
131  2023-12-04 12:33:08.362103
132  2023-12-04 12:33:08.408978
133  2023-12-04 12:33:08.440892
134  2023-12-04 12:33:08.487944
135  2023-12-04 12:33:08.535813
136  2023-12-04 12:33:08.567728
137  2023-12-04 12:33:08.615600
138  2023-12-04 12:33:08.662508
139  2023-12-04 12:33:08.694389
140  2023-12-04 12:33:08.742295
141  2023-12-04 12:33:08.789167
142  2023-12-04 12:33:08.821084
143  2023-12-04 12:33:08.869044
144  2023-12-04 12:33:08.900921
145  2023-12-04 12:33:08.948792
146  2023-12-04 12:33:08.995755
147  2023-12-04 12:33:09.027719
148  2023-12-04 12:33:09.075590
149  2023-12-04 12:33:09.122463
150  2023-12-04 12:33:09.154465
151  2023-12-04 12:33:09.202217
152  2023-12-04 12:33:09.234162
153  2023-12-04 12:33:09.280041
154  2023-12-04 12:33:09.327881
155  2023-12-04 12:33:09.358798
156  2023-12-04 12:33:09.406709
157  2023-12-04 12:33:09.454542
158  2023-12-04 12:33:09.486581
159  2023-12-04 12:33:09.534453
160  2023-12-04 12:33:09.566367
161  2023-12-04 12:33:09.614239
162  2023-12-04 12:33:09.662111
163  2023-12-04 12:33:09.694026
164  2023-12-04 12:33:09.740933
165  2023-12-04 12:33:09.788772
166  2023-12-04 12:33:09.820687
167  2023-12-04 12:33:09.868569
168  2023-12-04 12:33:09.899476
169  2023-12-04 12:33:09.946351
170  2023-12-04 12:33:09.994223
171  2023-12-04 12:33:10.026138
172  2023-12-04 12:33:10.074010
173  2023-12-04 12:33:10.120884
174  2023-12-04 12:33:10.152799
175  2023-12-04 12:33:10.200671
176  2023-12-04 12:33:10.232586
177  2023-12-04 12:33:10.279460
178  2023-12-04 12:33:10.326335
179  2023-12-04 12:33:10.358340
180  2023-12-04 12:33:10.406251
181  2023-12-04 12:33:10.454129
182  2023-12-04 12:33:10.486122
183  2023-12-04 12:33:10.533994
184  2023-12-04 12:33:10.565909
185  2023-12-04 12:33:10.613829
186  2023-12-04 12:33:10.660691
187  2023-12-04 12:33:10.691647
188  2023-12-04 12:33:10.739562
189  2023-12-04 12:33:10.787434
190  2023-12-04 12:33:10.819349
191  2023-12-04 12:33:10.867221
192  2023-12-04 12:33:10.899311
193  2023-12-04 12:33:10.947185
194  2023-12-04 12:33:10.995052
195  2023-12-04 12:33:11.026964
196  2023-12-04 12:33:11.074855
197  2023-12-04 12:33:11.122718
198  2023-12-04 12:33:11.154696
199  2023-12-04 12:33:11.202615
200  2023-12-04 12:33:11.234601
201  2023-12-04 12:33:11.282506
202  2023-12-04 12:33:11.330384
203  2023-12-04 12:33:11.360350
204  2023-12-04 12:33:11.408368
205  2023-12-04 12:33:11.456223
206  2023-12-04 12:33:11.488104
207  2023-12-04 12:33:11.536007
208  2023-12-04 12:33:11.567891
209  2023-12-04 12:33:11.614765
210  2023-12-04 12:33:11.662637
211  2023-12-04 12:33:11.694551
212  2023-12-04 12:33:11.742423
213  2023-12-04 12:33:11.775387
214  2023-12-04 12:33:11.822308
215  2023-12-04 12:33:11.870325
216  2023-12-04 12:33:11.902208
217  2023-12-04 12:33:11.950334
218  2023-12-04 12:33:11.997205
219  2023-12-04 12:33:12.029120
220  2023-12-04 12:33:12.077172
221  2023-12-04 12:33:12.108944
222  2023-12-04 12:33:12.156778
223  2023-12-04 12:33:12.204651
224  2023-12-04 12:33:12.236565
225  2023-12-04 12:33:12.284437
226  2023-12-04 12:33:12.316387
227  2023-12-04 12:33:12.364224
228  2023-12-04 12:33:12.412128
229  2023-12-04 12:33:12.444011
230  2023-12-04 12:33:12.491882
231  2023-12-04 12:33:12.539755
232  2023-12-04 12:33:12.571714
233  2023-12-04 12:33:12.619648
234  2023-12-04 12:33:12.650565
235  2023-12-04 12:33:12.697440
236  2023-12-04 12:33:12.745312
237  2023-12-04 12:33:12.776229
238  2023-12-04 12:33:12.823104
239  2023-12-04 12:33:12.871049
240  2023-12-04 12:33:12.902971
241  2023-12-04 12:33:12.950835
242  2023-12-04 12:33:12.982750
243  2023-12-04 12:33:13.030685
244  2023-12-04 12:33:13.077569
245  2023-12-04 12:33:13.109484
246  2023-12-04 12:33:13.157385
247  2023-12-04 12:33:13.204231
248  2023-12-04 12:33:13.236332
249  2023-12-04 12:33:13.283681
250  2023-12-04 12:33:13.330556
251  2023-12-04 12:33:13.362522
252  2023-12-04 12:33:13.410386
253  2023-12-04 12:33:13.442333
254  2023-12-04 12:33:13.489213
255  2023-12-04 12:33:13.537073
256  2023-12-04 12:33:13.569000
257  2023-12-04 12:33:13.616841
258  2023-12-04 12:33:13.663790
259  2023-12-04 12:33:13.695702
260  2023-12-04 12:33:13.742583
261  2023-12-04 12:33:13.774496
262  2023-12-04 12:33:13.822582
263  2023-12-04 12:33:13.870439
264  2023-12-04 12:33:13.902352
265  2023-12-04 12:33:13.950228
266  2023-12-04 12:33:13.997196
267  2023-12-04 12:33:14.029238
268  2023-12-04 12:33:14.077287
269  2023-12-04 12:33:14.109344
270  2023-12-04 12:33:14.157155
271  2023-12-04 12:33:14.205202
272  2023-12-04 12:33:14.237124
273  2023-12-04 12:33:14.284942
274  2023-12-04 12:33:14.330818
275  2023-12-04 12:33:14.362732
276  2023-12-04 12:33:14.410605
277  2023-12-04 12:33:14.441522
278  2023-12-04 12:33:14.489394
279  2023-12-04 12:33:14.536268
280  2023-12-04 12:33:14.568183
281  2023-12-04 12:33:14.614098
282  2023-12-04 12:33:14.660935
283  2023-12-04 12:33:14.691852
284  2023-12-04 12:33:14.739760
285  2023-12-04 12:33:14.787598
286  2023-12-04 12:33:14.819555
287  2023-12-04 12:33:14.867383
288  2023-12-04 12:33:14.899331
289  2023-12-04 12:33:14.947288
290  2023-12-04 12:33:14.995124
291  2023-12-04 12:33:15.027039
292  2023-12-04 12:33:15.074946
293  2023-12-04 12:33:15.122818
294  2023-12-04 12:33:15.154731
295  2023-12-04 12:33:15.202569
296  2023-12-04 12:33:15.234517
297  2023-12-04 12:33:15.282389
298  2023-12-04 12:33:15.330263
299  2023-12-04 12:33:15.362143
300  2023-12-04 12:33:15.410057
301  2023-12-04 12:33:15.441976
302  2023-12-04 12:33:15.489837
303  2023-12-04 12:33:15.537714
304  2023-12-04 12:33:15.569621
305  2023-12-04 12:33:15.617493
306  2023-12-04 12:33:15.649410
307  2023-12-04 12:33:15.697283
308  2023-12-04 12:33:15.745156
309  2023-12-04 12:33:15.777066
310  2023-12-04 12:33:15.824905
311  2023-12-04 12:33:15.872813
312  2023-12-04 12:33:15.904722
313  2023-12-04 12:33:15.951598
314  2023-12-04 12:33:15.983530
315  2023-12-04 12:33:16.031353
316  2023-12-04 12:33:16.079261
317  2023-12-04 12:33:16.111172
318  2023-12-04 12:33:16.159047
319  2023-12-04 12:33:16.190926
320  2023-12-04 12:33:16.238832
321  2023-12-04 12:33:16.286233
322  2023-12-04 12:33:16.318142
323  2023-12-04 12:33:16.366013
324  2023-12-04 12:33:16.411857
325  2023-12-04 12:33:16.443771
326  2023-12-04 12:33:16.490645
327  2023-12-04 12:33:16.537520
328  2023-12-04 12:33:16.569434
329  2023-12-04 12:33:16.616309
330  2023-12-04 12:33:16.663184
331  2023-12-04 12:33:16.695098
332  2023-12-04 12:33:16.742970
333  2023-12-04 12:33:16.774885
334  2023-12-04 12:33:16.822757
335  2023-12-04 12:33:16.870629
336  2023-12-04 12:33:16.902545
337  2023-12-04 12:33:16.950416
338  2023-12-04 12:33:16.997290
339  2023-12-04 12:33:17.029205
340  2023-12-04 12:33:17.077119
341  2023-12-04 12:33:17.109030
342  2023-12-04 12:33:17.156750
343  2023-12-04 12:33:17.204622
344  2023-12-04 12:33:17.236536
345  2023-12-04 12:33:17.284505
346  2023-12-04 12:33:17.316374
347  2023-12-04 12:33:17.364375
348  2023-12-04 12:33:17.412278
349  2023-12-04 12:33:17.444193
350  2023-12-04 12:33:17.491036
351  2023-12-04 12:33:17.538944
352  2023-12-04 12:33:17.570823
353  2023-12-04 12:33:17.618732
354  2023-12-04 12:33:17.650648
355  2023-12-04 12:33:17.697484
356  2023-12-04 12:33:17.745389
357  2023-12-04 12:33:17.777307
358  2023-12-04 12:33:17.825143
359  2023-12-04 12:33:17.873051
360  2023-12-04 12:33:17.904966
361  2023-12-04 12:33:17.952835
362  2023-12-04 12:33:17.984749
363  2023-12-04 12:33:18.032624
364  2023-12-04 12:33:18.080505
365  2023-12-04 12:33:18.112538
366  2023-12-04 12:33:18.159396
367  2023-12-04 12:33:18.191308
368  2023-12-04 12:33:18.240207
369  2023-12-04 12:33:18.287173
370  2023-12-04 12:33:18.319088
371  2023-12-04 12:33:18.366960
372  2023-12-04 12:33:18.413831
373  2023-12-04 12:33:18.444718
374  2023-12-04 12:33:18.492587
375  2023-12-04 12:33:18.524536
376  2023-12-04 12:33:18.572405
377  2023-12-04 12:33:18.620246
378  2023-12-04 12:33:18.651197
379  2023-12-04 12:33:18.699157
380  2023-12-04 12:33:18.746939
381  2023-12-04 12:33:18.778860
382  2023-12-04 12:33:18.826735
383  2023-12-04 12:33:18.858609
384  2023-12-04 12:33:18.906531
385  2023-12-04 12:33:18.954353
386  2023-12-04 12:33:18.986331
387  2023-12-04 12:33:19.034140
388  2023-12-04 12:33:19.066187
389  2023-12-04 12:33:19.113057
390  2023-12-04 12:33:19.161160
391  2023-12-04 12:33:19.193062
392  2023-12-04 12:33:19.241933
393  2023-12-04 12:33:19.288918
394  2023-12-04 12:33:19.319910
395  2023-12-04 12:33:19.367782
396  2023-12-04 12:33:19.399696
397  2023-12-04 12:33:19.447568
398  2023-12-04 12:33:19.495440
399  2023-12-04 12:33:19.527355
400  2023-12-04 12:33:19.575227
401  2023-12-04 12:33:19.623099
402  2023-12-04 12:33:19.655021
403  2023-12-04 12:33:19.702885
404  2023-12-04 12:33:19.734800
405  2023-12-04 12:33:19.782795
406  2023-12-04 12:33:19.829670
407  2023-12-04 12:33:19.861585
408  2023-12-04 12:33:19.909489
409  2023-12-04 12:33:19.941405
410  2023-12-04 12:33:19.989289
411  2023-12-04 12:33:20.037259
412  2023-12-04 12:33:20.068112
413  2023-12-04 12:33:20.116027
414  2023-12-04 12:33:20.164019
415  2023-12-04 12:33:20.195933
416  2023-12-04 12:33:20.243846
417  2023-12-04 12:33:20.275833
418  2023-12-04 12:33:20.323820
419  2023-12-04 12:33:20.371692
420  2023-12-04 12:33:20.403606
421  2023-12-04 12:33:20.451655
422  2023-12-04 12:33:20.483567
423  2023-12-04 12:33:20.531405
424  2023-12-04 12:33:20.579308
425  2023-12-04 12:33:20.611223
426  2023-12-04 12:33:20.659063
427  2023-12-04 12:33:20.690978
428  2023-12-04 12:33:20.738885
429  2023-12-04 12:33:20.786774
430  2023-12-04 12:33:20.818767
431  2023-12-04 12:33:20.865762
432  2023-12-04 12:33:20.912807
433  2023-12-04 12:33:20.944721
434  2023-12-04 12:33:20.991747
435  2023-12-04 12:33:21.038807
436  2023-12-04 12:33:21.070722
437  2023-12-04 12:33:21.118592
438  2023-12-04 12:33:21.150508
439  2023-12-04 12:33:21.198379
440  2023-12-04 12:33:21.246329
441  2023-12-04 12:33:21.278245
442  2023-12-04 12:33:21.326115
443  2023-12-04 12:33:21.358030
444  2023-12-04 12:33:21.406003
445  2023-12-04 12:33:21.453869
446  2023-12-04 12:33:21.485771
447  2023-12-04 12:33:21.533607
448  2023-12-04 12:33:21.580536
449  2023-12-04 12:33:21.612398
450  2023-12-04 12:33:21.658308
451  2023-12-04 12:33:21.706177
452  2023-12-04 12:33:21.738113
453  2023-12-04 12:33:21.785964
454  2023-12-04 12:33:21.817881
455  2023-12-04 12:33:21.865770
456  2023-12-04 12:33:21.913652
457  2023-12-04 12:33:21.945506
458  2023-12-04 12:33:21.993420
459  2023-12-04 12:33:22.025327
460  2023-12-04 12:33:22.073196
461  2023-12-04 12:33:22.121071
462  2023-12-04 12:33:22.151987
463  2023-12-04 12:33:22.199863
464  2023-12-04 12:33:22.247735
465  2023-12-04 12:33:22.278779
466  2023-12-04 12:33:22.327678
467  2023-12-04 12:33:22.358565
468  2023-12-04 12:33:22.406437
469  2023-12-04 12:33:22.454309
470  2023-12-04 12:33:22.486224
471  2023-12-04 12:33:22.534096
472  2023-12-04 12:33:22.581013
473  2023-12-04 12:33:22.612922
474  2023-12-04 12:33:22.660757
475  2023-12-04 12:33:22.692672
476  2023-12-04 12:33:22.740544
477  2023-12-04 12:33:22.788613
478  2023-12-04 12:33:22.820472
479  2023-12-04 12:33:22.868302
480  2023-12-04 12:33:22.900217
481  2023-12-04 12:33:22.948123
482  2023-12-04 12:33:22.994963
483  2023-12-04 12:33:23.026878
484  2023-12-04 12:33:23.074792
485  2023-12-04 12:33:23.122622
486  2023-12-04 12:33:23.154599
487  2023-12-04 12:33:23.202408
488  2023-12-04 12:33:23.234323
489  2023-12-04 12:33:23.282235
490  2023-12-04 12:33:23.329070
491  2023-12-04 12:33:23.360984
492  2023-12-04 12:33:23.407896
493  2023-12-04 12:33:23.455731
494  2023-12-04 12:33:23.487646
495  2023-12-04 12:33:23.535518
496  2023-12-04 12:33:23.567432
497  2023-12-04 12:33:23.615362
498  2023-12-04 12:33:23.663176
499  2023-12-04 12:33:23.694094
500  2023-12-04 12:33:23.742009
501  2023-12-04 12:33:23.788873
502  2023-12-04 12:33:23.820799
503  2023-12-04 12:33:23.868660
504  2023-12-04 12:33:23.900573
505  2023-12-04 12:33:23.948445
506  2023-12-04 12:33:23.995322
507  2023-12-04 12:33:24.027237
508  2023-12-04 12:33:24.076105
509  2023-12-04 12:33:24.122991
510  2023-12-04 12:33:24.155097
511  2023-12-04 12:33:24.202769
512  2023-12-04 12:33:24.234648
513  2023-12-04 12:33:24.281569
514  2023-12-04 12:33:24.329429
515  2023-12-04 12:33:24.361340
516  2023-12-04 12:33:24.409214
517  2023-12-04 12:33:24.441135
518  2023-12-04 12:33:24.489000
519  2023-12-04 12:33:24.535898
520  2023-12-04 12:33:24.567800
521  2023-12-04 12:33:24.615662
522  2023-12-04 12:33:24.662536
523  2023-12-04 12:33:24.694450
524  2023-12-04 12:33:24.742326
525  2023-12-04 12:33:24.774206
526  2023-12-04 12:33:24.821117
527  2023-12-04 12:33:24.868952
528  2023-12-04 12:33:24.900867
529  2023-12-04 12:33:24.948772
530  2023-12-04 12:33:24.995613
531  2023-12-04 12:33:25.027528
532  2023-12-04 12:33:25.074436
533  2023-12-04 12:33:25.121310
534  2023-12-04 12:33:25.152230
535  2023-12-04 12:33:25.200066
536  2023-12-04 12:33:25.247975
537  2023-12-04 12:33:25.279886
538  2023-12-04 12:33:25.327725
539  2023-12-04 12:33:25.359640
540  2023-12-04 12:33:25.407562
541  2023-12-04 12:33:25.455384
542  2023-12-04 12:33:25.487298
543  2023-12-04 12:33:25.535170
544  2023-12-04 12:33:25.567085
545  2023-12-04 12:33:25.614005
546  2023-12-04 12:33:25.661832
547  2023-12-04 12:33:25.693746
548  2023-12-04 12:33:25.741667
549  2023-12-04 12:33:25.788493
550  2023-12-04 12:33:25.820408
551  2023-12-04 12:33:25.868314
552  2023-12-04 12:33:25.900194
553  2023-12-04 12:33:25.948067
554  2023-12-04 12:33:25.995938
555  2023-12-04 12:33:26.027853
556  2023-12-04 12:33:26.075778
557  2023-12-04 12:33:26.122641
558  2023-12-04 12:33:26.154554
559  2023-12-04 12:33:26.202418
560  2023-12-04 12:33:26.234332
561  2023-12-04 12:33:26.282210
562  2023-12-04 12:33:26.330086
563  2023-12-04 12:33:26.361998
564  2023-12-04 12:33:26.409871
565  2023-12-04 12:33:26.441801
566  2023-12-04 12:33:26.488621
567  2023-12-04 12:33:26.536597
568  2023-12-04 12:33:26.568407
569  2023-12-04 12:33:26.615284
570  2023-12-04 12:33:26.663156
571  2023-12-04 12:33:26.694105
572  2023-12-04 12:33:26.741944
573  2023-12-04 12:33:26.788875
574  2023-12-04 12:33:26.819768
575  2023-12-04 12:33:26.867745
576  2023-12-04 12:33:26.899523
577  2023-12-04 12:33:26.947425
578  2023-12-04 12:33:26.994270
579  2023-12-04 12:33:27.026184
580  2023-12-04 12:33:27.074090
581  2023-12-04 12:33:27.121961
582  2023-12-04 12:33:27.153874
583  2023-12-04 12:33:27.201715
584  2023-12-04 12:33:27.233629
585  2023-12-04 12:33:27.281502
586  2023-12-04 12:33:27.329374
587  2023-12-04 12:33:27.361288
588  2023-12-04 12:33:27.409194
589  2023-12-04 12:33:27.441110
590  2023-12-04 12:33:27.488947
591  2023-12-04 12:33:27.535821
592  2023-12-04 12:33:27.567888
593  2023-12-04 12:33:27.615680
594  2023-12-04 12:33:27.662556
595  2023-12-04 12:33:27.694470
596  2023-12-04 12:33:27.742384
597  2023-12-04 12:33:27.774299
598  2023-12-04 12:33:27.822129
599  2023-12-04 12:33:27.870036
600  2023-12-04 12:33:27.901916
601  2023-12-04 12:33:27.949789
602  2023-12-04 12:33:27.997660
603  2023-12-04 12:33:28.028577
604  2023-12-04 12:33:28.076490
605  2023-12-04 12:33:28.108395
606  2023-12-04 12:33:28.156236
607  2023-12-04 12:33:28.204150
608  2023-12-04 12:33:28.235217
609  2023-12-04 12:33:28.282897
610  2023-12-04 12:33:28.329808
611  2023-12-04 12:33:28.360731
612  2023-12-04 12:33:28.408594
613  2023-12-04 12:33:28.456466
614  2023-12-04 12:33:28.488386
615  2023-12-04 12:33:28.535222
616  2023-12-04 12:33:28.566171
617  2023-12-04 12:33:28.614053
618  2023-12-04 12:33:28.661883
619  2023-12-04 12:33:28.692837
620  2023-12-04 12:33:28.740673
621  2023-12-04 12:33:28.788584
622  2023-12-04 12:33:28.820493
623  2023-12-04 12:33:28.868508
624  2023-12-04 12:33:28.899394
625  2023-12-04 12:33:28.947300
626  2023-12-04 12:33:28.994140
627  2023-12-04 12:33:29.026055
628  2023-12-04 12:33:29.072929
629  2023-12-04 12:33:29.120837
630  2023-12-04 12:33:29.152717
631  2023-12-04 12:33:29.200588
632  2023-12-04 12:33:29.247509
633  2023-12-04 12:33:29.279414
634  2023-12-04 12:33:29.327249
635  2023-12-04 12:33:29.358167
636  2023-12-04 12:33:29.406082
637  2023-12-04 12:33:29.453911
638  2023-12-04 12:33:29.485862
639  2023-12-04 12:33:29.532700
640  2023-12-04 12:33:29.580611
641  2023-12-04 12:33:29.612487
642  2023-12-04 12:33:29.659378
643  2023-12-04 12:33:29.691276
644  2023-12-04 12:33:29.739148
645  2023-12-04 12:33:29.787020
646  2023-12-04 12:33:29.818934
647  2023-12-04 12:33:29.866839
648  2023-12-04 12:33:29.913681
649  2023-12-04 12:33:29.945596
650  2023-12-04 12:33:29.993468
651  2023-12-04 12:33:30.024385
652  2023-12-04 12:33:30.072293
653  2023-12-04 12:33:30.120169
654  2023-12-04 12:33:30.152080
655  2023-12-04 12:33:30.199951
656  2023-12-04 12:33:30.247823
657  2023-12-04 12:33:30.278736
658  2023-12-04 12:33:30.326619
659  2023-12-04 12:33:30.358527
660  2023-12-04 12:33:30.406397
661  2023-12-04 12:33:30.454273
662  2023-12-04 12:33:30.486182
663  2023-12-04 12:33:30.534022
664  2023-12-04 12:33:30.565976
665  2023-12-04 12:33:30.613844
666  2023-12-04 12:33:30.660810
667  2023-12-04 12:33:30.691643
668  2023-12-04 12:33:30.739507
669  2023-12-04 12:33:30.787377
670  2023-12-04 12:33:30.819303
671  2023-12-04 12:33:30.867172
672  2023-12-04 12:33:30.914037
673  2023-12-04 12:33:30.944958
674  2023-12-04 12:33:30.992806
675  2023-12-04 12:33:31.024715
676  2023-12-04 12:33:31.072582
677  2023-12-04 12:33:31.120506
678  2023-12-04 12:33:31.152414
679  2023-12-04 12:33:31.200241
680  2023-12-04 12:33:31.247149
681  2023-12-04 12:33:31.279062
682  2023-12-04 12:33:31.326902
683  2023-12-04 12:33:31.358816
684  2023-12-04 12:33:31.406721
685  2023-12-04 12:33:31.454561
686  2023-12-04 12:33:31.486476
687  2023-12-04 12:33:31.534347
688  2023-12-04 12:33:31.566262
689  2023-12-04 12:33:31.614172
690  2023-12-04 12:33:31.661008
691  2023-12-04 12:33:31.693094
692  2023-12-04 12:33:31.741009
693  2023-12-04 12:33:31.788907
694  2023-12-04 12:33:31.820868
695  2023-12-04 12:33:31.868775
696  2023-12-04 12:33:31.900739
697  2023-12-04 12:33:31.948645
698  2023-12-04 12:33:31.996483
699  2023-12-04 12:33:32.028398
700  2023-12-04 12:33:32.076271
701  2023-12-04 12:33:32.108185
702  2023-12-04 12:33:32.156057
703  2023-12-04 12:33:32.202932
704  2023-12-04 12:33:32.235875
705  2023-12-04 12:33:32.281721
706  2023-12-04 12:33:32.329593
707  2023-12-04 12:33:32.360595
708  2023-12-04 12:33:32.408463
709  2023-12-04 12:33:32.456331
710  2023-12-04 12:33:32.487248
711  2023-12-04 12:33:32.535212
712  2023-12-04 12:33:32.567132
713  2023-12-04 12:33:32.615075
714  2023-12-04 12:33:32.663004
715  2023-12-04 12:33:32.695080
716  2023-12-04 12:33:32.743036
717  2023-12-04 12:33:32.774989
718  2023-12-04 12:33:32.822918
719  2023-12-04 12:33:32.870768
720  2023-12-04 12:33:32.902684
721  2023-12-04 12:33:32.950565
722  2023-12-04 12:33:32.997432
723  2023-12-04 12:33:33.029445
724  2023-12-04 12:33:33.076521
725  2023-12-04 12:33:33.108240
726  2023-12-04 12:33:33.156113
727  2023-12-04 12:33:33.203945
728  2023-12-04 12:33:33.235895
729  2023-12-04 12:33:33.282781
730  2023-12-04 12:33:33.330640
731  2023-12-04 12:33:33.362521
732  2023-12-04 12:33:33.410425
733  2023-12-04 12:33:33.442307
734  2023-12-04 12:33:33.490215
735  2023-12-04 12:33:33.538259
736  2023-12-04 12:33:33.570167
737  2023-12-04 12:33:33.618086
738  2023-12-04 12:33:33.650090
739  2023-12-04 12:33:33.698037
740  2023-12-04 12:33:33.745957
741  2023-12-04 12:33:33.776931
742  2023-12-04 12:33:33.824780
743  2023-12-04 12:33:33.872654
744  2023-12-04 12:33:33.903590
745  2023-12-04 12:33:33.951408
746  2023-12-04 12:33:33.983362
747  2023-12-04 12:33:34.031240
748  2023-12-04 12:33:34.078105
749  2023-12-04 12:33:34.109984
750  2023-12-04 12:33:34.157854
751  2023-12-04 12:33:34.205761
752  2023-12-04 12:33:34.236787
753  2023-12-04 12:33:34.284622
754  2023-12-04 12:33:34.316537
755  2023-12-04 12:33:34.364409
756  2023-12-04 12:33:34.411285
757  2023-12-04 12:33:34.443200
758  2023-12-04 12:33:34.491070
759  2023-12-04 12:33:34.538942
760  2023-12-04 12:33:34.570857
761  2023-12-04 12:33:34.618729
762  2023-12-04 12:33:34.650643
763  2023-12-04 12:33:34.697518
764  2023-12-04 12:33:34.745428
765  2023-12-04 12:33:34.777343
766  2023-12-04 12:33:34.825244
767  2023-12-04 12:33:34.873118
768  2023-12-04 12:33:34.905035
769  2023-12-04 12:33:34.952914
770  2023-12-04 12:33:34.984869
771  2023-12-04 12:33:35.032780
772  2023-12-04 12:33:35.080693
773  2023-12-04 12:33:35.112640
774  2023-12-04 12:33:35.159515
775  2023-12-04 12:33:35.191430
776  2023-12-04 12:33:35.239382
777  2023-12-04 12:33:35.287254
778  2023-12-04 12:33:35.319169
779  2023-12-04 12:33:35.367041
780  2023-12-04 12:33:35.414023
781  2023-12-04 12:33:35.445898
782  2023-12-04 12:33:35.493807
783  2023-12-04 12:33:35.525715
784  2023-12-04 12:33:35.573557
785  2023-12-04 12:33:35.620471
786  2023-12-04 12:33:35.652382
787  2023-12-04 12:33:35.700251
788  2023-12-04 12:33:35.747127
789  2023-12-04 12:33:35.779042
790  2023-12-04 12:33:35.827027
791  2023-12-04 12:33:35.857829
792  2023-12-04 12:33:35.905704
793  2023-12-04 12:33:35.953575
794  2023-12-04 12:33:35.985499
795  2023-12-04 12:33:36.033327
796  2023-12-04 12:33:36.081243
797  2023-12-04 12:33:36.113160
798  2023-12-04 12:33:36.161019
799  2023-12-04 12:33:36.192900
800  2023-12-04 12:33:36.240809
801  2023-12-04 12:33:36.288687
802  2023-12-04 12:33:36.320560
803  2023-12-04 12:33:36.368465
804  2023-12-04 12:33:36.400380
805  2023-12-04 12:33:36.448218
806  2023-12-04 12:33:36.495125
807  2023-12-04 12:33:36.527043
808  2023-12-04 12:33:36.574915
809  2023-12-04 12:33:36.622793
810  2023-12-04 12:33:36.654734
811  2023-12-04 12:33:36.702551
812  2023-12-04 12:33:36.734488
813  2023-12-04 12:33:36.782432
814  2023-12-04 12:33:36.830272
815  2023-12-04 12:33:36.862319
816  2023-12-04 12:33:36.910100
817  2023-12-04 12:33:36.940978
818  2023-12-04 12:33:36.988849
819  2023-12-04 12:33:37.036758
820  2023-12-04 12:33:37.068689
821  2023-12-04 12:33:37.116509
822  2023-12-04 12:33:37.165378
823  2023-12-04 12:33:37.197330
824  2023-12-04 12:33:37.244191
825  2023-12-04 12:33:37.289046
826  2023-12-04 12:33:37.320961
827  2023-12-04 12:33:37.368833
828  2023-12-04 12:33:37.414710
829  2023-12-04 12:33:37.446625
830  2023-12-04 12:33:37.493531
831  2023-12-04 12:33:37.525443
832  2023-12-04 12:33:37.573484
833  2023-12-04 12:33:37.621481
834  2023-12-04 12:33:37.653415
835  2023-12-04 12:33:37.701235
836  2023-12-04 12:33:37.733149
837  2023-12-04 12:33:37.780057
838  2023-12-04 12:33:37.827932
839  2023-12-04 12:33:37.858846
840  2023-12-04 12:33:37.905721
841  2023-12-04 12:33:37.953599
842  2023-12-04 12:33:37.985519
843  2023-12-04 12:33:38.033346
844  2023-12-04 12:33:38.081371
845  2023-12-04 12:33:38.113287
846  2023-12-04 12:33:38.160162
847  2023-12-04 12:33:38.192042
848  2023-12-04 12:33:38.238954
849  2023-12-04 12:33:38.286823
850  2023-12-04 12:33:38.318743
851  2023-12-04 12:33:38.366761
852  2023-12-04 12:33:38.414721
853  2023-12-04 12:33:38.446641
854  2023-12-04 12:33:38.493512
855  2023-12-04 12:33:38.525428
856  2023-12-04 12:33:38.573266
857  2023-12-04 12:33:38.620139
858  2023-12-04 12:33:38.653097
859  2023-12-04 12:33:38.700090
860  2023-12-04 12:33:38.748923
861  2023-12-04 12:33:38.778831
862  2023-12-04 12:33:38.826703
863  2023-12-04 12:33:38.858617
864  2023-12-04 12:33:38.906490
865  2023-12-04 12:33:38.954361
866  2023-12-04 12:33:38.986276
867  2023-12-04 12:33:39.034215
868  2023-12-04 12:33:39.081090
869  2023-12-04 12:33:39.113005
870  2023-12-04 12:33:39.160876
871  2023-12-04 12:33:39.191794
872  2023-12-04 12:33:39.239666
873  2023-12-04 12:33:39.286580
874  2023-12-04 12:33:39.318489
875  2023-12-04 12:33:39.365330
876  2023-12-04 12:33:39.413202
877  2023-12-04 12:33:39.445173
878  2023-12-04 12:33:39.491083
879  2023-12-04 12:33:39.538922
880  2023-12-04 12:33:39.570837
881  2023-12-04 12:33:39.617854
882  2023-12-04 12:33:39.649767
883  2023-12-04 12:33:39.697605
884  2023-12-04 12:33:39.745479
885  2023-12-04 12:33:39.777424
886  2023-12-04 12:33:39.825454
887  2023-12-04 12:33:39.872330
888  2023-12-04 12:33:39.904238
889  2023-12-04 12:33:39.952254
890  2023-12-04 12:33:39.983992
891  2023-12-04 12:33:40.031898
892  2023-12-04 12:33:40.080741
893  2023-12-04 12:33:40.112690
894  2023-12-04 12:33:40.159554
895  2023-12-04 12:33:40.191470
896  2023-12-04 12:33:40.239341
897  2023-12-04 12:33:40.288213
898  2023-12-04 12:33:40.319126
899  2023-12-04 12:33:40.367000
900  2023-12-04 12:33:40.413893
901  2023-12-04 12:33:40.444794
902  2023-12-04 12:33:40.492663
903  2023-12-04 12:33:40.524579
904  2023-12-04 12:33:40.572417
905  2023-12-04 12:33:40.620318
906  2023-12-04 12:33:40.652203
907  2023-12-04 12:33:40.700225
908  2023-12-04 12:33:40.747114
909  2023-12-04 12:33:40.779040
910  2023-12-04 12:33:40.826942
911  2023-12-04 12:33:40.858949
912  2023-12-04 12:33:40.907822
913  2023-12-04 12:33:40.954812
914  2023-12-04 12:33:40.987804
915  2023-12-04 12:33:41.035786
916  2023-12-04 12:33:41.066841
917  2023-12-04 12:33:41.115692
918  2023-12-04 12:33:41.163562
919  2023-12-04 12:33:41.194449
920  2023-12-04 12:33:41.242465
921  2023-12-04 12:33:41.274393
922  2023-12-04 12:33:41.323260
923  2023-12-04 12:33:41.369094
924  2023-12-04 12:33:41.401009
925  2023-12-04 12:33:41.448881
926  2023-12-04 12:33:41.495756
927  2023-12-04 12:33:41.527671
928  2023-12-04 12:33:41.575637
929  2023-12-04 12:33:41.607551
930  2023-12-04 12:33:41.655423
931  2023-12-04 12:33:41.701301
932  2023-12-04 12:33:41.733215
933  2023-12-04 12:33:41.781300
934  2023-12-04 12:33:41.829087
935  2023-12-04 12:33:41.861067
936  2023-12-04 12:33:41.908906
937  2023-12-04 12:33:41.955817
938  2023-12-04 12:33:41.987727
939  2023-12-04 12:33:42.035568
940  2023-12-04 12:33:42.067482
941  2023-12-04 12:33:42.115390
942  2023-12-04 12:33:42.163226
943  2023-12-04 12:33:42.195177
944  2023-12-04 12:33:42.243013
945  2023-12-04 12:33:42.275019
946  2023-12-04 12:33:42.322930
947  2023-12-04 12:33:42.368768
948  2023-12-04 12:33:42.400683
949  2023-12-04 12:33:42.448594
950  2023-12-04 12:33:42.496426
951  2023-12-04 12:33:42.528341
952  2023-12-04 12:33:42.576213
953  2023-12-04 12:33:42.608173
954  2023-12-04 12:33:42.656001
955  2023-12-04 12:33:42.703922
956  2023-12-04 12:33:42.735786
957  2023-12-04 12:33:42.783706
958  2023-12-04 12:33:42.830568
959  2023-12-04 12:33:42.862484
960  2023-12-04 12:33:42.910361
961  2023-12-04 12:33:42.942243
962  2023-12-04 12:33:42.989155
963  2023-12-04 12:33:43.037023
964  2023-12-04 12:33:43.068936
965  2023-12-04 12:33:43.116814
966  2023-12-04 12:33:43.164690
967  2023-12-04 12:33:43.196595
968  2023-12-04 12:33:43.244469
969  2023-12-04 12:33:43.276387
970  2023-12-04 12:33:43.324255
971  2023-12-04 12:33:43.372127
972  2023-12-04 12:33:43.404041
973  2023-12-04 12:33:43.450882
974  2023-12-04 12:33:43.497805
975  2023-12-04 12:33:43.529701
976  2023-12-04 12:33:43.577574
977  2023-12-04 12:33:43.609458
978  2023-12-04 12:33:43.657362
979  2023-12-04 12:33:43.704205
980  2023-12-04 12:33:43.736119
981  2023-12-04 12:33:43.783991
982  2023-12-04 12:33:43.815906
983  2023-12-04 12:33:43.864805
984  2023-12-04 12:33:43.910652
985  2023-12-04 12:33:43.942567
986  2023-12-04 12:33:43.990439
987  2023-12-04 12:33:44.038311
988  2023-12-04 12:33:44.070225
989  2023-12-04 12:33:44.118138
990  2023-12-04 12:33:44.150012
991  2023-12-04 12:33:44.197928
992  2023-12-04 12:33:44.244759
993  2023-12-04 12:33:44.276673
994  2023-12-04 12:33:44.324589
995  2023-12-04 12:33:44.371420
996  2023-12-04 12:33:44.403335
997  2023-12-04 12:33:44.451239
998  2023-12-04 12:33:44.483156
999  2023-12-04 12:33:44.530993
1000  2023-12-04 12:33:44.577868
1001  2023-12-04 12:33:44.609783
1002  2023-12-04 12:33:44.657698
1003  2023-12-04 12:33:44.704529
1004  2023-12-04 12:33:44.736444
1005  2023-12-04 12:33:44.783354
1006  2023-12-04 12:33:44.829228
1007  2023-12-04 12:33:44.860153
1008  2023-12-04 12:33:44.908020
1009  2023-12-04 12:33:44.955888
1010  2023-12-04 12:33:44.987819
1011  2023-12-04 12:33:45.035677
1012  2023-12-04 12:33:45.067617
1013  2023-12-04 12:33:45.115642
1014  2023-12-04 12:33:45.163343
1015  2023-12-04 12:33:45.195248
1016  2023-12-04 12:33:45.243146
1017  2023-12-04 12:33:45.275063
1018  2023-12-04 12:33:45.322909
1019  2023-12-04 12:33:45.370777
1020  2023-12-04 12:33:45.402696
1021  2023-12-04 12:33:45.450569
1022  2023-12-04 12:33:45.497447
1023  2023-12-04 12:33:45.529353
1024  2023-12-04 12:33:45.577231
1025  2023-12-04 12:33:45.609142
1026  2023-12-04 12:33:45.657016
1027  2023-12-04 12:33:45.704887
1028  2023-12-04 12:33:45.736771
1029  2023-12-04 12:33:45.784646
1030  2023-12-04 12:33:45.831517
1031  2023-12-04 12:33:45.861471
1032  2023-12-04 12:33:45.908310
1033  2023-12-04 12:33:45.956221
1034  2023-12-04 12:33:45.988131
1035  2023-12-04 12:33:46.035969
1036  2023-12-04 12:33:46.067883
1037  2023-12-04 12:33:46.115790
1038  2023-12-04 12:33:46.163661
1039  2023-12-04 12:33:46.193547
1040  2023-12-04 12:33:46.241451
1041  2023-12-04 12:33:46.289325
1042  2023-12-04 12:33:46.321343
1043  2023-12-04 12:33:46.369180
1044  2023-12-04 12:33:46.401095
1045  2023-12-04 12:33:46.449002
1046  2023-12-04 12:33:46.496839
1047  2023-12-04 12:33:46.528753
1048  2023-12-04 12:33:46.576664
1049  2023-12-04 12:33:46.608577
1050  2023-12-04 12:33:46.656447
1051  2023-12-04 12:33:46.703287
1052  2023-12-04 12:33:46.735201
1053  2023-12-04 12:33:46.783118
1054  2023-12-04 12:33:46.830945
1055  2023-12-04 12:33:46.862860
1056  2023-12-04 12:33:46.910775
1057  2023-12-04 12:33:46.942685
1058  2023-12-04 12:33:46.990553
1059  2023-12-04 12:33:47.038424
1060  2023-12-04 12:33:47.070338
1061  2023-12-04 12:33:47.118218
1062  2023-12-04 12:33:47.150134
1063  2023-12-04 12:33:47.197964
1064  2023-12-04 12:33:47.245875
1065  2023-12-04 12:33:47.277797
1066  2023-12-04 12:33:47.325747
1067  2023-12-04 12:33:47.357590
1068  2023-12-04 12:33:47.404451
1069  2023-12-04 12:33:47.452320
1070  2023-12-04 12:33:47.484198
1071  2023-12-04 12:33:47.532104
1072  2023-12-04 12:33:47.579977
1073  2023-12-04 12:33:47.611936
1074  2023-12-04 12:33:47.659763
1075  2023-12-04 12:33:47.691677
1076  2023-12-04 12:33:47.738553
1077  2023-12-04 12:33:47.786422
1078  2023-12-04 12:33:47.818341
1079  2023-12-04 12:33:47.866218
1080  2023-12-04 12:33:47.914051
1081  2023-12-04 12:33:47.944999
1082  2023-12-04 12:33:47.991875
1083  2023-12-04 12:33:48.039714
1084  2023-12-04 12:33:48.071629
1085  2023-12-04 12:33:48.119533
1086  2023-12-04 12:33:48.151415
1087  2023-12-04 12:33:48.199318
1088  2023-12-04 12:33:48.247191
1089  2023-12-04 12:33:48.279105
1090  2023-12-04 12:33:48.326989
1091  2023-12-04 12:33:48.358866
1092  2023-12-04 12:33:48.406769
1093  2023-12-04 12:33:48.454643
1094  2023-12-04 12:33:48.486565
1095  2023-12-04 12:33:48.534416
1096  2023-12-04 12:33:48.566340
1097  2023-12-04 12:33:48.614209
1098  2023-12-04 12:33:48.661084
1099  2023-12-04 12:33:48.693142
1100  2023-12-04 12:33:48.739842
1101  2023-12-04 12:33:48.787752
1102  2023-12-04 12:33:48.819658
1103  2023-12-04 12:33:48.867500
1104  2023-12-04 12:33:48.899415
1105  2023-12-04 12:33:48.947287
1106  2023-12-04 12:33:48.995195
1107  2023-12-04 12:33:49.027103
1108  2023-12-04 12:33:49.074946
1109  2023-12-04 12:33:49.122842
1110  2023-12-04 12:33:49.154786
1111  2023-12-04 12:33:49.202604
1112  2023-12-04 12:33:49.234519
1113  2023-12-04 12:33:49.282432
1114  2023-12-04 12:33:49.329299
1115  2023-12-04 12:33:49.361377
1116  2023-12-04 12:33:49.409250
1117  2023-12-04 12:33:49.441167
1118  2023-12-04 12:33:49.487010
1119  2023-12-04 12:33:49.533885
1120  2023-12-04 12:33:49.580791
1121  2023-12-04 12:33:49.611708
1122  2023-12-04 12:33:49.659580
1123  2023-12-04 12:33:49.691494
1124  2023-12-04 12:33:49.738371
1125  2023-12-04 12:33:49.786210
1126  2023-12-04 12:33:49.818159
1127  2023-12-04 12:33:49.865998
1128  2023-12-04 12:33:49.913909
1129  2023-12-04 12:33:49.944786
1130  2023-12-04 12:33:49.992692
1131  2023-12-04 12:33:50.024610
1132  2023-12-04 12:33:50.072444
1133  2023-12-04 12:33:50.120353
1134  2023-12-04 12:33:50.152266
1135  2023-12-04 12:33:50.200140
1136  2023-12-04 12:33:50.248008
1137  2023-12-04 12:33:50.280091
1138  2023-12-04 12:33:50.327793
1139  2023-12-04 12:33:50.359710
1140  2023-12-04 12:33:50.407589
1141  2023-12-04 12:33:50.455460
1142  2023-12-04 12:33:50.487370
1143  2023-12-04 12:33:50.535241
1144  2023-12-04 12:33:50.567157
1145  2023-12-04 12:33:50.614037
1146  2023-12-04 12:33:50.660905
1147  2023-12-04 12:33:50.692823
1148  2023-12-04 12:33:50.739695
1149  2023-12-04 12:33:50.787533
1150  2023-12-04 12:33:50.819483
1151  2023-12-04 12:33:50.867363
1152  2023-12-04 12:33:50.899234
1153  2023-12-04 12:33:50.947158
1154  2023-12-04 12:33:50.995019
1155  2023-12-04 12:33:51.026924
1156  2023-12-04 12:33:51.073805
1157  2023-12-04 12:33:51.121670
1158  2023-12-04 12:33:51.153586
1159  2023-12-04 12:33:51.201425
1160  2023-12-04 12:33:51.233340
1161  2023-12-04 12:33:51.281247
1162  2023-12-04 12:33:51.329121
1163  2023-12-04 12:33:51.361053
1164  2023-12-04 12:33:51.409005
1165  2023-12-04 12:33:51.440817
1166  2023-12-04 12:33:51.488691
1167  2023-12-04 12:33:51.535532
1168  2023-12-04 12:33:51.567447
1169  2023-12-04 12:33:51.616348
1170  2023-12-04 12:33:51.663190
1171  2023-12-04 12:33:51.695242
1172  2023-12-04 12:33:51.743148
1173  2023-12-04 12:33:51.788992
1174  2023-12-04 12:33:51.820907
1175  2023-12-04 12:33:51.868812
1176  2023-12-04 12:33:51.900693
1177  2023-12-04 12:33:51.948598
1178  2023-12-04 12:33:51.996437
1179  2023-12-04 12:33:52.028352
1180  2023-12-04 12:33:52.076258
1181  2023-12-04 12:33:52.108172
1182  2023-12-04 12:33:52.156010
1183  2023-12-04 12:33:52.203918
1184  2023-12-04 12:33:52.234832
1185  2023-12-04 12:33:52.282672
1186  2023-12-04 12:33:52.330544
1187  2023-12-04 12:33:52.362458
1188  2023-12-04 12:33:52.410364
1189  2023-12-04 12:33:52.442279
1190  2023-12-04 12:33:52.490117
1191  2023-12-04 12:33:52.537990
1192  2023-12-04 12:33:52.569945
1193  2023-12-04 12:33:52.617775
1194  2023-12-04 12:33:52.649723
1195  2023-12-04 12:33:52.697562
1196  2023-12-04 12:33:52.743439
1197  2023-12-04 12:33:52.775354
1198  2023-12-04 12:33:52.822263
1199  2023-12-04 12:33:52.868147
1200  2023-12-04 12:33:52.914026
1201  2023-12-04 12:33:52.945029
1202  2023-12-04 12:33:52.992897
1203  2023-12-04 12:33:53.024812
1204  2023-12-04 12:33:53.072685
1205  2023-12-04 12:33:53.120547
1206  2023-12-04 12:33:53.152470
1207  2023-12-04 12:33:53.199309
1208  2023-12-04 12:33:53.247213
1209  2023-12-04 12:33:53.279128
1210  2023-12-04 12:33:53.327002
1211  2023-12-04 12:33:53.358883
1212  2023-12-04 12:33:53.406784
1213  2023-12-04 12:33:53.454675
1214  2023-12-04 12:33:53.486572
1215  2023-12-04 12:33:53.534413
1216  2023-12-04 12:33:53.566328
1217  2023-12-04 12:33:53.614201
1218  2023-12-04 12:33:53.662072
1219  2023-12-04 12:33:53.693987
1220  2023-12-04 12:33:53.741897
1221  2023-12-04 12:33:53.788736
1222  2023-12-04 12:33:53.820647
1223  2023-12-04 12:33:53.868524
1224  2023-12-04 12:33:53.899437
1225  2023-12-04 12:33:53.947309
1226  2023-12-04 12:33:53.995307
1227  2023-12-04 12:33:54.027327
1228  2023-12-04 12:33:54.075200
1229  2023-12-04 12:33:54.123071
1230  2023-12-04 12:33:54.154986
1231  2023-12-04 12:33:54.202888
1232  2023-12-04 12:33:54.234806
1233  2023-12-04 12:33:54.281648
1234  2023-12-04 12:33:54.329519
1235  2023-12-04 12:33:54.361434
1236  2023-12-04 12:33:54.409424
1237  2023-12-04 12:33:54.441221
1238  2023-12-04 12:33:54.489093
1239  2023-12-04 12:33:54.536965
1240  2023-12-04 12:33:54.568879
1241  2023-12-04 12:33:54.616751
1242  2023-12-04 12:33:54.664656
1243  2023-12-04 12:33:54.696538
1244  2023-12-04 12:33:54.743449
1245  2023-12-04 12:33:54.775327
1246  2023-12-04 12:33:54.823239
1247  2023-12-04 12:33:54.871103
1248  2023-12-04 12:33:54.903016
1249  2023-12-04 12:33:54.950891
1250  2023-12-04 12:33:54.982802
1251  2023-12-04 12:33:55.030683
1252  2023-12-04 12:33:55.078547
1253  2023-12-04 12:33:55.109467
1254  2023-12-04 12:33:55.157342
1255  2023-12-04 12:33:55.205178
1256  2023-12-04 12:33:55.237279
1257  2023-12-04 12:33:55.285148
1258  2023-12-04 12:33:55.317104
1259  2023-12-04 12:33:55.365053
1260  2023-12-04 12:33:55.411928
1261  2023-12-04 12:33:55.443839
1262  2023-12-04 12:33:55.491712
1263  2023-12-04 12:33:55.539587
1264  2023-12-04 12:33:55.571465
1265  2023-12-04 12:33:55.619372
1266  2023-12-04 12:33:55.651298
1267  2023-12-04 12:33:55.698163
1268  2023-12-04 12:33:55.745999
1269  2023-12-04 12:33:55.776949
1270  2023-12-04 12:33:55.825834
1271  2023-12-04 12:33:55.872699
1272  2023-12-04 12:33:55.904574
1273  2023-12-04 12:33:55.952446
1274  2023-12-04 12:33:55.984363
1275  2023-12-04 12:33:56.033280
1276  2023-12-04 12:33:56.080141
1277  2023-12-04 12:33:56.112052
1278  2023-12-04 12:33:56.160040
1279  2023-12-04 12:33:56.191950
1280  2023-12-04 12:33:56.239821
1281  2023-12-04 12:33:56.287693
1282  2023-12-04 12:33:56.318609
1283  2023-12-04 12:33:56.365453
1284  2023-12-04 12:33:56.413358
1285  2023-12-04 12:33:56.444243
1286  2023-12-04 12:33:56.492114
1287  2023-12-04 12:33:56.540018
1288  2023-12-04 12:33:56.569912
1289  2023-12-04 12:33:56.617909
1290  2023-12-04 12:33:56.649824
1291  2023-12-04 12:33:56.697696
1292  2023-12-04 12:33:56.745568
1293  2023-12-04 12:33:56.777483
1294  2023-12-04 12:33:56.825355
1295  2023-12-04 12:33:56.872468
1296  2023-12-04 12:33:56.904227
1297  2023-12-04 12:33:56.951106
1298  2023-12-04 12:33:56.983032
1299  2023-12-04 12:33:57.029937
1300  2023-12-04 12:33:57.076841
1301  2023-12-04 12:33:57.108839
1302  2023-12-04 12:33:57.156714
1303  2023-12-04 12:33:57.204718
1304  2023-12-04 12:33:57.236723
1305  2023-12-04 12:33:57.284717
1306  2023-12-04 12:33:57.316629
1307  2023-12-04 12:33:57.363503
1308  2023-12-04 12:33:57.411378
1309  2023-12-04 12:33:57.443315
1310  2023-12-04 12:33:57.490167
1311  2023-12-04 12:33:57.538038
1312  2023-12-04 12:33:57.569956
1313  2023-12-04 12:33:57.617827
1314  2023-12-04 12:33:57.649740
1315  2023-12-04 12:33:57.697628
1316  2023-12-04 12:33:57.745453
1317  2023-12-04 12:33:57.777399
1318  2023-12-04 12:33:57.824295
1319  2023-12-04 12:33:57.872148
1320  2023-12-04 12:33:57.904079
1321  2023-12-04 12:33:57.951942
1322  2023-12-04 12:33:57.983844
1323  2023-12-04 12:33:58.031685
1324  2023-12-04 12:33:58.078593
1325  2023-12-04 12:33:58.110508
1326  2023-12-04 12:33:58.157351
1327  2023-12-04 12:33:58.206263
1328  2023-12-04 12:33:58.237170
1329  2023-12-04 12:33:58.286050
1330  2023-12-04 12:33:58.317929
1331  2023-12-04 12:33:58.364796
1332  2023-12-04 12:33:58.412669
1333  2023-12-04 12:33:58.444613
1334  2023-12-04 12:33:58.492455
1335  2023-12-04 12:33:58.524370
1336  2023-12-04 12:33:58.572273
1337  2023-12-04 12:33:58.620113
1338  2023-12-04 12:33:58.651030
1339  2023-12-04 12:33:58.698036
1340  2023-12-04 12:33:58.745909
1341  2023-12-04 12:33:58.776827
1342  2023-12-04 12:33:58.823701
1343  2023-12-04 12:33:58.871726
1344  2023-12-04 12:33:58.903644
1345  2023-12-04 12:33:58.950638
1346  2023-12-04 12:33:58.982537
1347  2023-12-04 12:33:59.029503
1348  2023-12-04 12:33:59.077455
1349  2023-12-04 12:33:59.109370
1350  2023-12-04 12:33:59.157272
1351  2023-12-04 12:33:59.205113
1352  2023-12-04 12:33:59.237067
1353  2023-12-04 12:33:59.284033
1354  2023-12-04 12:33:59.315851
1355  2023-12-04 12:33:59.363731
1356  2023-12-04 12:33:59.410601
1357  2023-12-04 12:33:59.442512
1358  2023-12-04 12:33:59.489354
1359  2023-12-04 12:33:59.536262
1360  2023-12-04 12:33:59.568183
1361  2023-12-04 12:33:59.616055
1362  2023-12-04 12:33:59.663932
1363  2023-12-04 12:33:59.695838
1364  2023-12-04 12:33:59.743707
1365  2023-12-04 12:33:59.775622
1366  2023-12-04 12:33:59.822496
1367  2023-12-04 12:33:59.870371
1368  2023-12-04 12:33:59.902284
1369  2023-12-04 12:33:59.949157
1370  2023-12-04 12:33:59.997030
1371  2023-12-04 12:34:00.028941
1372  2023-12-04 12:34:00.077813
1373  2023-12-04 12:34:00.107709
1374  2023-12-04 12:34:00.155572
1375  2023-12-04 12:34:00.204442
1376  2023-12-04 12:34:00.235465
1377  2023-12-04 12:34:00.283337
1378  2023-12-04 12:34:00.331306
1379  2023-12-04 12:34:00.363218
1380  2023-12-04 12:34:00.412127
1381  2023-12-04 12:34:00.444106
1382  2023-12-04 12:34:00.491053
1383  2023-12-04 12:34:00.538008
1384  2023-12-04 12:34:00.568889
1385  2023-12-04 12:34:00.616762
1386  2023-12-04 12:34:00.664634
1387  2023-12-04 12:34:00.696548
1388  2023-12-04 12:34:00.744420
1389  2023-12-04 12:34:00.776335
1390  2023-12-04 12:34:00.824207
1391  2023-12-04 12:34:00.871082
1392  2023-12-04 12:34:00.902996
1393  2023-12-04 12:34:00.950008
1394  2023-12-04 12:34:00.997781
1395  2023-12-04 12:34:01.029690
1396  2023-12-04 12:34:01.077529
1397  2023-12-04 12:34:01.109444
1398  2023-12-04 12:34:01.157357
1399  2023-12-04 12:34:01.205188
1400  2023-12-04 12:34:01.236142
1401  2023-12-04 12:34:01.284015
1402  2023-12-04 12:34:01.315892
1403  2023-12-04 12:34:01.363797
1404  2023-12-04 12:34:01.411669
1405  2023-12-04 12:34:01.443581
1406  2023-12-04 12:34:01.491455
1407  2023-12-04 12:34:01.539327
1408  2023-12-04 12:34:01.570245
1409  2023-12-04 12:34:01.618117
1410  2023-12-04 12:34:01.650032
1411  2023-12-04 12:34:01.696875
1412  2023-12-04 12:34:01.744774
1413  2023-12-04 12:34:01.776692
1414  2023-12-04 12:34:01.824582
1415  2023-12-04 12:34:01.872456
1416  2023-12-04 12:34:01.904329
1417  2023-12-04 12:34:01.951331
1418  2023-12-04 12:34:01.997338
1419  2023-12-04 12:34:02.029250
1420  2023-12-04 12:34:02.077081
1421  2023-12-04 12:34:02.109036
1422  2023-12-04 12:34:02.156911
1423  2023-12-04 12:34:02.203794
1424  2023-12-04 12:34:02.236690
1425  2023-12-04 12:34:02.283573
1426  2023-12-04 12:34:02.331445
1427  2023-12-04 12:34:02.363360
1428  2023-12-04 12:34:02.411363
1429  2023-12-04 12:34:02.442231
1430  2023-12-04 12:34:02.490102
1431  2023-12-04 12:34:02.538980
1432  2023-12-04 12:34:02.569998
1433  2023-12-04 12:34:02.617869
1434  2023-12-04 12:34:02.664828
1435  2023-12-04 12:34:02.696658
1436  2023-12-04 12:34:02.744530
1437  2023-12-04 12:34:02.775447
1438  2023-12-04 12:34:02.823319
1439  2023-12-04 12:34:02.871191
1440  2023-12-04 12:34:02.903106
1441  2023-12-04 12:34:02.950978
1442  2023-12-04 12:34:02.982893
1443  2023-12-04 12:34:03.030765
1444  2023-12-04 12:34:03.078749
1445  2023-12-04 12:34:03.110664
1446  2023-12-04 12:34:03.158568
1447  2023-12-04 12:34:03.205444
1448  2023-12-04 12:34:03.237360
1449  2023-12-04 12:34:03.285197
1450  2023-12-04 12:34:03.317112
1451  2023-12-04 12:34:03.365154
1452  2023-12-04 12:34:03.411047
1453  2023-12-04 12:34:03.443096
1454  2023-12-04 12:34:03.490957
1455  2023-12-04 12:34:03.537873
1456  2023-12-04 12:34:03.568844
1457  2023-12-04 12:34:03.616795
1458  2023-12-04 12:34:03.664686
1459  2023-12-04 12:34:03.696783
1460  2023-12-04 12:34:03.744451
1461  2023-12-04 12:34:03.776364
1462  2023-12-04 12:34:03.824239
1463  2023-12-04 12:34:03.871218
1464  2023-12-04 12:34:03.903081
1465  2023-12-04 12:34:03.951187
1466  2023-12-04 12:34:03.983113
1467  2023-12-04 12:34:04.030982
1468  2023-12-04 12:34:04.078850
1469  2023-12-04 12:34:04.110764
1470  2023-12-04 12:34:04.158637
1471  2023-12-04 12:34:04.204481
1472  2023-12-04 12:34:04.236404
1473  2023-12-04 12:34:04.284384
1474  2023-12-04 12:34:04.316183
1475  2023-12-04 12:34:04.364089
1476  2023-12-04 12:34:04.411960
1477  2023-12-04 12:34:04.443891
1478  2023-12-04 12:34:04.491711
1479  2023-12-04 12:34:04.539616
1480  2023-12-04 12:34:04.571541
1481  2023-12-04 12:34:04.619383
1482  2023-12-04 12:34:04.651319
1483  2023-12-04 12:34:04.699156
1484  2023-12-04 12:34:04.748080
1485  2023-12-04 12:34:04.778980
1486  2023-12-04 12:34:04.826816
1487  2023-12-04 12:34:04.858773
1488  2023-12-04 12:34:04.907644
1489  2023-12-04 12:34:04.955516
1490  2023-12-04 12:34:04.986457
1491  2023-12-04 12:34:05.034328
1492  2023-12-04 12:34:05.067279
1493  2023-12-04 12:34:05.114115
1494  2023-12-04 12:34:05.163016
1495  2023-12-04 12:34:05.193949
1496  2023-12-04 12:34:05.241803
1497  2023-12-04 12:34:05.289676
1498  2023-12-04 12:34:05.321590
1499  2023-12-04 12:34:05.369606
1500  2023-12-04 12:34:05.401606
1501  2023-12-04 12:34:05.449487
1502  2023-12-04 12:34:05.497348
1503  2023-12-04 12:34:05.527234
1504  2023-12-04 12:34:05.575106
1505  2023-12-04 12:34:05.622978
1506  2023-12-04 12:34:05.654892
1507  2023-12-04 12:34:05.702765
1508  2023-12-04 12:34:05.734679
1509  2023-12-04 12:34:05.782551
1510  2023-12-04 12:34:05.830423
1511  2023-12-04 12:34:05.862338
1512  2023-12-04 12:34:05.910210
1513  2023-12-04 12:34:05.942124
1514  2023-12-04 12:34:05.989996
1515  2023-12-04 12:34:06.036907
1516  2023-12-04 12:34:06.068819
1517  2023-12-04 12:34:06.116658
1518  2023-12-04 12:34:06.164559
1519  2023-12-04 12:34:06.196475
1520  2023-12-04 12:34:06.244316
1521  2023-12-04 12:34:06.275234
1522  2023-12-04 12:34:06.323151
1523  2023-12-04 12:34:06.370977
1524  2023-12-04 12:34:06.402122
1525  2023-12-04 12:34:06.449798
1526  2023-12-04 12:34:06.497828
1527  2023-12-04 12:34:06.529743
1528  2023-12-04 12:34:06.577786
1529  2023-12-04 12:34:06.609704
1530  2023-12-04 12:34:06.657577
1531  2023-12-04 12:34:06.705408
1532  2023-12-04 12:34:06.737322
1533  2023-12-04 12:34:06.785231
1534  2023-12-04 12:34:06.817146
1535  2023-12-04 12:34:06.865023
1536  2023-12-04 12:34:06.912895
1537  2023-12-04 12:34:06.944812
1538  2023-12-04 12:34:06.991685
1539  2023-12-04 12:34:07.039553
1540  2023-12-04 12:34:07.071463
1541  2023-12-04 12:34:07.120331
1542  2023-12-04 12:34:07.151332
1543  2023-12-04 12:34:07.199285
1544  2023-12-04 12:34:07.247160
1545  2023-12-04 12:34:07.279066
1546  2023-12-04 12:34:07.326935
1547  2023-12-04 12:34:07.358848
1548  2023-12-04 12:34:07.406750
1549  2023-12-04 12:34:07.454559
1550  2023-12-04 12:34:07.486507
1551  2023-12-04 12:34:07.534380
1552  2023-12-04 12:34:07.581264
1553  2023-12-04 12:34:07.613167
1554  2023-12-04 12:34:07.660047
1555  2023-12-04 12:34:07.691963
1556  2023-12-04 12:34:07.739831
1557  2023-12-04 12:34:07.787702
1558  2023-12-04 12:34:07.818620
1559  2023-12-04 12:34:07.866497
1560  2023-12-04 12:34:07.914380
1561  2023-12-04 12:34:07.946284
1562  2023-12-04 12:34:07.994163
1563  2023-12-04 12:34:08.026243
1564  2023-12-04 12:34:08.075065
1565  2023-12-04 12:34:08.121936
1566  2023-12-04 12:34:08.153884
1567  2023-12-04 12:34:08.201763
1568  2023-12-04 12:34:08.233669
1569  2023-12-04 12:34:08.280512
1570  2023-12-04 12:34:08.328417
1571  2023-12-04 12:34:08.359333
1572  2023-12-04 12:34:08.407221
1573  2023-12-04 12:34:08.455046
1574  2023-12-04 12:34:08.487962
1575  2023-12-04 12:34:08.534833
1576  2023-12-04 12:34:08.566747
1577  2023-12-04 12:34:08.613621
1578  2023-12-04 12:34:08.660532
1579  2023-12-04 12:34:08.692448
1580  2023-12-04 12:34:08.740331
1581  2023-12-04 12:34:08.788372
1582  2023-12-04 12:34:08.820282
1583  2023-12-04 12:34:08.868357
1584  2023-12-04 12:34:08.900105
1585  2023-12-04 12:34:08.947941
1586  2023-12-04 12:34:08.995845
1587  2023-12-04 12:34:09.027760
1588  2023-12-04 12:34:09.075600
1589  2023-12-04 12:34:09.121511
1590  2023-12-04 12:34:09.153435
1591  2023-12-04 12:34:09.201298
1592  2023-12-04 12:34:09.247178
1593  2023-12-04 12:34:09.279086
1594  2023-12-04 12:34:09.325963
1595  2023-12-04 12:34:09.357882
1596  2023-12-04 12:34:09.405752
1597  2023-12-04 12:34:09.453620
1598  2023-12-04 12:34:09.485509
1599  2023-12-04 12:34:09.533408
1600  2023-12-04 12:34:09.581296
1601  2023-12-04 12:34:09.613193
1602  2023-12-04 12:34:09.661073
1603  2023-12-04 12:34:09.692983
1604  2023-12-04 12:34:09.740858
1605  2023-12-04 12:34:09.788725
1606  2023-12-04 12:34:09.820643
1607  2023-12-04 12:34:09.868516
1608  2023-12-04 12:34:09.900525
1609  2023-12-04 12:34:09.948267
1610  2023-12-04 12:34:09.996139
1611  2023-12-04 12:34:10.027089
1612  2023-12-04 12:34:10.075926
1613  2023-12-04 12:34:10.122801
1614  2023-12-04 12:34:10.154745
1615  2023-12-04 12:34:10.202628
1616  2023-12-04 12:34:10.234530
1617  2023-12-04 12:34:10.282374
1618  2023-12-04 12:34:10.330422
1619  2023-12-04 12:34:10.362299
1620  2023-12-04 12:34:10.410203
1621  2023-12-04 12:34:10.442126
1622  2023-12-04 12:34:10.490190
1623  2023-12-04 12:34:10.537873
1624  2023-12-04 12:34:10.569776
1625  2023-12-04 12:34:10.617647
1626  2023-12-04 12:34:10.649565
1627  2023-12-04 12:34:10.697443
1628  2023-12-04 12:34:10.745321
1629  2023-12-04 12:34:10.777238
1630  2023-12-04 12:34:10.825099
1631  2023-12-04 12:34:10.872967
1632  2023-12-04 12:34:10.904879
1633  2023-12-04 12:34:10.952720
1634  2023-12-04 12:34:10.984666
1635  2023-12-04 12:34:11.032538
1636  2023-12-04 12:34:11.080414
1637  2023-12-04 12:34:11.112293
1638  2023-12-04 12:34:11.159203
1639  2023-12-04 12:34:11.191121
1640  2023-12-04 12:34:11.238993
1641  2023-12-04 12:34:11.286862
1642  2023-12-04 12:34:11.318771
1643  2023-12-04 12:34:11.366645
1644  2023-12-04 12:34:11.414517
1645  2023-12-04 12:34:11.446430
1646  2023-12-04 12:34:11.494302
1647  2023-12-04 12:34:11.526226
1648  2023-12-04 12:34:11.575089
1649  2023-12-04 12:34:11.621975
1650  2023-12-04 12:34:11.653846
1651  2023-12-04 12:34:11.701724
1652  2023-12-04 12:34:11.734631
1653  2023-12-04 12:34:11.780507
1654  2023-12-04 12:34:11.829411
1655  2023-12-04 12:34:11.859332
1656  2023-12-04 12:34:11.907167
1657  2023-12-04 12:34:11.955039
1658  2023-12-04 12:34:11.986954
1659  2023-12-04 12:34:12.034861
1660  2023-12-04 12:34:12.066776
1661  2023-12-04 12:34:12.114613
1662  2023-12-04 12:34:12.162516
1663  2023-12-04 12:34:12.194435
1664  2023-12-04 12:34:12.242271
1665  2023-12-04 12:34:12.274186
1666  2023-12-04 12:34:12.322058
1667  2023-12-04 12:34:12.368971
1668  2023-12-04 12:34:12.399877
1669  2023-12-04 12:34:12.445757
1670  2023-12-04 12:34:12.492603
1671  2023-12-04 12:34:12.524517
1672  2023-12-04 12:34:12.572424
1673  2023-12-04 12:34:12.620261
1674  2023-12-04 12:34:12.651215
1675  2023-12-04 12:34:12.699080
1676  2023-12-04 12:34:12.746966
1677  2023-12-04 12:34:12.779868
1678  2023-12-04 12:34:12.826709
1679  2023-12-04 12:34:12.858653
1680  2023-12-04 12:34:12.905567
1681  2023-12-04 12:34:12.953402
1682  2023-12-04 12:34:12.985322
1683  2023-12-04 12:34:13.033216
1684  2023-12-04 12:34:13.080063
1685  2023-12-04 12:34:13.111988
1686  2023-12-04 12:34:13.159867
1687  2023-12-04 12:34:13.191763
1688  2023-12-04 12:34:13.239636
1689  2023-12-04 12:34:13.287516
1690  2023-12-04 12:34:13.319421
1691  2023-12-04 12:34:13.367294
1692  2023-12-04 12:34:13.399209
1693  2023-12-04 12:34:13.447082
1694  2023-12-04 12:34:13.493958
1695  2023-12-04 12:34:13.525840
1696  2023-12-04 12:34:13.573761
1697  2023-12-04 12:34:13.620638
1698  2023-12-04 12:34:13.652501
1699  2023-12-04 12:34:13.700402
1700  2023-12-04 12:34:13.747288
1701  2023-12-04 12:34:13.779274
1702  2023-12-04 12:34:13.828182
1703  2023-12-04 12:34:13.859092
1704  2023-12-04 12:34:13.907929
1705  2023-12-04 12:34:13.955833
1706  2023-12-04 12:34:13.987748
1707  2023-12-04 12:34:14.035620
1708  2023-12-04 12:34:14.067535
1709  2023-12-04 12:34:14.113416
1710  2023-12-04 12:34:14.160423
1711  2023-12-04 12:34:14.192463
1712  2023-12-04 12:34:14.240341
1713  2023-12-04 12:34:14.288178
1714  2023-12-04 12:34:14.320127
1715  2023-12-04 12:34:14.367996
1716  2023-12-04 12:34:14.399913
1717  2023-12-04 12:34:14.447931
1718  2023-12-04 12:34:14.495809
1719  2023-12-04 12:34:14.527722
1720  2023-12-04 12:34:14.575591
1721  2023-12-04 12:34:14.607509
1722  2023-12-04 12:34:14.655344
1723  2023-12-04 12:34:14.703252
1724  2023-12-04 12:34:14.735130
1725  2023-12-04 12:34:14.783037
1726  2023-12-04 12:34:14.829907
1727  2023-12-04 12:34:14.861792
1728  2023-12-04 12:34:14.909704
1729  2023-12-04 12:34:14.941699
1730  2023-12-04 12:34:14.989534
1731  2023-12-04 12:34:15.037450
1732  2023-12-04 12:34:15.069548
1733  2023-12-04 12:34:15.117225
1734  2023-12-04 12:34:15.149136
1735  2023-12-04 12:34:15.196978
1736  2023-12-04 12:34:15.244884
1737  2023-12-04 12:34:15.276805
1738  2023-12-04 12:34:15.323639
1739  2023-12-04 12:34:15.371518
1740  2023-12-04 12:34:15.403439
1741  2023-12-04 12:34:15.451298
1742  2023-12-04 12:34:15.483213
1743  2023-12-04 12:34:15.531085
1744  2023-12-04 12:34:15.578987
1745  2023-12-04 12:34:15.610903
1746  2023-12-04 12:34:15.658743
1747  2023-12-04 12:34:15.704654
1748  2023-12-04 12:34:15.736572
1749  2023-12-04 12:34:15.784446
1750  2023-12-04 12:34:15.816358
1751  2023-12-04 12:34:15.864235
1752  2023-12-04 12:34:15.911104
1753  2023-12-04 12:34:15.943016
1754  2023-12-04 12:34:15.990887
1755  2023-12-04 12:34:16.038761
1756  2023-12-04 12:34:16.070676
1757  2023-12-04 12:34:16.118544
1758  2023-12-04 12:34:16.150430
1759  2023-12-04 12:34:16.198334
1760  2023-12-04 12:34:16.246211
1761  2023-12-04 12:34:16.278118
1762  2023-12-04 12:34:16.325990
1763  2023-12-04 12:34:16.357903
1764  2023-12-04 12:34:16.405777
1765  2023-12-04 12:34:16.453652
1766  2023-12-04 12:34:16.485563
1767  2023-12-04 12:34:16.533438
1768  2023-12-04 12:34:16.581308
1769  2023-12-04 12:34:16.613225
1770  2023-12-04 12:34:16.660101
1771  2023-12-04 12:34:16.692016
1772  2023-12-04 12:34:16.739889
1773  2023-12-04 12:34:16.787761
1774  2023-12-04 12:34:16.819672
1775  2023-12-04 12:34:16.867547
1776  2023-12-04 12:34:16.899462
1777  2023-12-04 12:34:16.947345
1778  2023-12-04 12:34:16.995202
1779  2023-12-04 12:34:17.027117
1780  2023-12-04 12:34:17.074990
1781  2023-12-04 12:34:17.122904
1782  2023-12-04 12:34:17.154778
1783  2023-12-04 12:34:17.202650
1784  2023-12-04 12:34:17.234564
1785  2023-12-04 12:34:17.282434
1786  2023-12-04 12:34:17.330308
1787  2023-12-04 12:34:17.362226
1788  2023-12-04 12:34:17.410093
1789  2023-12-04 12:34:17.442015
1790  2023-12-04 12:34:17.489847
1791  2023-12-04 12:34:17.537920
1792  2023-12-04 12:34:17.569801
1793  2023-12-04 12:34:17.618704
1794  2023-12-04 12:34:17.649633
1795  2023-12-04 12:34:17.698488
1796  2023-12-04 12:34:17.745362
1797  2023-12-04 12:34:17.777282
1798  2023-12-04 12:34:17.825153
1799  2023-12-04 12:34:17.873043
1800  2023-12-04 12:34:17.904938
1801  2023-12-04 12:34:17.950897
1802  2023-12-04 12:34:17.982807
1803  2023-12-04 12:34:18.030678
1804  2023-12-04 12:34:18.078568
1805  2023-12-04 12:34:18.110497
1806  2023-12-04 12:34:18.157426
1807  2023-12-04 12:34:18.205329
1808  2023-12-04 12:34:18.237249
1809  2023-12-04 12:34:18.285083
1810  2023-12-04 12:34:18.317033
1811  2023-12-04 12:34:18.365965
1812  2023-12-04 12:34:18.411844
1813  2023-12-04 12:34:18.443759
1814  2023-12-04 12:34:18.490630
1815  2023-12-04 12:34:18.538535
1816  2023-12-04 12:34:18.570418
1817  2023-12-04 12:34:18.618289
1818  2023-12-04 12:34:18.650204
1819  2023-12-04 12:34:18.697221
1820  2023-12-04 12:34:18.745034
1821  2023-12-04 12:34:18.775976
1822  2023-12-04 12:34:18.823948
1823  2023-12-04 12:34:18.871813
1824  2023-12-04 12:34:18.903734
1825  2023-12-04 12:34:18.950695
1826  2023-12-04 12:34:18.982609
1827  2023-12-04 12:34:19.029485
1828  2023-12-04 12:34:19.077364
1829  2023-12-04 12:34:19.109271
1830  2023-12-04 12:34:19.157142
1831  2023-12-04 12:34:19.205197
1832  2023-12-04 12:34:19.236898
1833  2023-12-04 12:34:19.283804
1834  2023-12-04 12:34:19.330679
1835  2023-12-04 12:34:19.361593
1836  2023-12-04 12:34:19.408479
1837  2023-12-04 12:34:19.456343
1838  2023-12-04 12:34:19.488237
1839  2023-12-04 12:34:19.536140
1840  2023-12-04 12:34:19.568050
1841  2023-12-04 12:34:19.613923
1842  2023-12-04 12:34:19.661761
1843  2023-12-04 12:34:19.693675
1844  2023-12-04 12:34:19.740562
1845  2023-12-04 12:34:19.788421
1846  2023-12-04 12:34:19.820336
1847  2023-12-04 12:34:19.868210
1848  2023-12-04 12:34:19.900123
1849  2023-12-04 12:34:19.947038
1850  2023-12-04 12:34:19.994869
1851  2023-12-04 12:34:20.026784
1852  2023-12-04 12:34:20.074688
1853  2023-12-04 12:34:20.122528
1854  2023-12-04 12:34:20.153550
1855  2023-12-04 12:34:20.201521
1856  2023-12-04 12:34:20.233577
1857  2023-12-04 12:34:20.281304
1858  2023-12-04 12:34:20.329176
1859  2023-12-04 12:34:20.361091
1860  2023-12-04 12:34:20.410009
1861  2023-12-04 12:34:20.440878
1862  2023-12-04 12:34:20.488750
1863  2023-12-04 12:34:20.535655
1864  2023-12-04 12:34:20.567540
1865  2023-12-04 12:34:20.615412
1866  2023-12-04 12:34:20.663284
1867  2023-12-04 12:34:20.695231
1868  2023-12-04 12:34:20.743105
1869  2023-12-04 12:34:20.788948
1870  2023-12-04 12:34:20.820898
1871  2023-12-04 12:34:20.868767
1872  2023-12-04 12:34:20.900690
1873  2023-12-04 12:34:20.947556
1874  2023-12-04 12:34:20.994431
1875  2023-12-04 12:34:21.025351
1876  2023-12-04 12:34:21.072192
1877  2023-12-04 12:34:21.120097
1878  2023-12-04 12:34:21.152009
1879  2023-12-04 12:34:21.199851
1880  2023-12-04 12:34:21.246756
1881  2023-12-04 12:34:21.278687
1882  2023-12-04 12:34:21.326544
1883  2023-12-04 12:34:21.359455
1884  2023-12-04 12:34:21.406459
1885  2023-12-04 12:34:21.455198
1886  2023-12-04 12:34:21.486117
1887  2023-12-04 12:34:21.534987
1888  2023-12-04 12:34:21.566901
1889  2023-12-04 12:34:21.614773
1890  2023-12-04 12:34:21.660675
1891  2023-12-04 12:34:21.692632
1892  2023-12-04 12:34:21.740534
1893  2023-12-04 12:34:21.788373
1894  2023-12-04 12:34:21.820290
1895  2023-12-04 12:34:21.867162
1896  2023-12-04 12:34:21.899226
1897  2023-12-04 12:34:21.946140
1898  2023-12-04 12:34:21.993973
1899  2023-12-04 12:34:22.025138
1900  2023-12-04 12:34:22.074085
1901  2023-12-04 12:34:22.121042
1902  2023-12-04 12:34:22.152956
1903  2023-12-04 12:34:22.200920
1904  2023-12-04 12:34:22.232835
1905  2023-12-04 12:34:22.279791
1906  2023-12-04 12:34:22.327736
1907  2023-12-04 12:34:22.359628
1908  2023-12-04 12:34:22.407549
1909  2023-12-04 12:34:22.455421
1910  2023-12-04 12:34:22.487336
1911  2023-12-04 12:34:22.535241
1912  2023-12-04 12:34:22.567123
1913  2023-12-04 12:34:22.613997
1914  2023-12-04 12:34:22.661869
1915  2023-12-04 12:34:22.693933
1916  2023-12-04 12:34:22.741842
1917  2023-12-04 12:34:22.789676
1918  2023-12-04 12:34:22.821591
1919  2023-12-04 12:34:22.869495
1920  2023-12-04 12:34:22.901461
1921  2023-12-04 12:34:22.949461
1922  2023-12-04 12:34:22.997373
1923  2023-12-04 12:34:23.029248
1924  2023-12-04 12:34:23.077157
1925  2023-12-04 12:34:23.109110
1926  2023-12-04 12:34:23.157023
1927  2023-12-04 12:34:23.204930
1928  2023-12-04 12:34:23.236851
1929  2023-12-04 12:34:23.283714
1930  2023-12-04 12:34:23.330785
1931  2023-12-04 12:34:23.362508
1932  2023-12-04 12:34:23.410383
1933  2023-12-04 12:34:23.442261
1934  2023-12-04 12:34:23.489172
1935  2023-12-04 12:34:23.537110
1936  2023-12-04 12:34:23.569088
1937  2023-12-04 12:34:23.616959
1938  2023-12-04 12:34:23.663832
1939  2023-12-04 12:34:23.695791
1940  2023-12-04 12:34:23.743664
1941  2023-12-04 12:34:23.775652
1942  2023-12-04 12:34:23.823552
1943  2023-12-04 12:34:23.871619
1944  2023-12-04 12:34:23.903503
1945  2023-12-04 12:34:23.951412
1946  2023-12-04 12:34:23.998287
1947  2023-12-04 12:34:24.029167
1948  2023-12-04 12:34:24.076075
1949  2023-12-04 12:34:24.121918
1950  2023-12-04 12:34:24.153833
1951  2023-12-04 12:34:24.200839
1952  2023-12-04 12:34:24.232754
1953  2023-12-04 12:34:24.280625
1954  2023-12-04 12:34:24.328497
1955  2023-12-04 12:34:24.360412
1956  2023-12-04 12:34:24.408284
1957  2023-12-04 12:34:24.456156
1958  2023-12-04 12:34:24.487073
1959  2023-12-04 12:34:24.534989
1960  2023-12-04 12:34:24.566896
1961  2023-12-04 12:34:24.613735
1962  2023-12-04 12:34:24.660609
1963  2023-12-04 12:34:24.691561
1964  2023-12-04 12:34:24.739434
1965  2023-12-04 12:34:24.786307
1966  2023-12-04 12:34:24.818223
1967  2023-12-04 12:34:24.866100
1968  2023-12-04 12:34:24.913962
1969  2023-12-04 12:34:24.943887
1970  2023-12-04 12:34:24.991724
1971  2023-12-04 12:34:25.039597
1972  2023-12-04 12:34:25.071544
1973  2023-12-04 12:34:25.119417
1974  2023-12-04 12:34:25.151328
1975  2023-12-04 12:34:25.198270
1976  2023-12-04 12:34:25.246175
1977  2023-12-04 12:34:25.278090
1978  2023-12-04 12:34:25.326942
1979  2023-12-04 12:34:25.358847
1980  2023-12-04 12:34:25.406775
1981  2023-12-04 12:34:25.453636
1982  2023-12-04 12:34:25.483509
1983  2023-12-04 12:34:25.531380
1984  2023-12-04 12:34:25.579253
1985  2023-12-04 12:34:25.612198
1986  2023-12-04 12:34:25.660068
1987  2023-12-04 12:34:25.692001
1988  2023-12-04 12:34:25.737963
1989  2023-12-04 12:34:25.785804
1990  2023-12-04 12:34:25.817719
1991  2023-12-04 12:34:25.865591
1992  2023-12-04 12:34:25.913463
1993  2023-12-04 12:34:25.945378
1994  2023-12-04 12:34:25.992252
1995  2023-12-04 12:34:26.024234
1996  2023-12-04 12:34:26.072155
1997  2023-12-04 12:34:26.118032
1998  2023-12-04 12:34:26.149947
1999  2023-12-04 12:34:26.197819
2000  2023-12-04 12:34:26.244739
2001  2023-12-04 12:34:26.276645
2002  2023-12-04 12:34:26.324561
2003  2023-12-04 12:34:26.371474
2004  2023-12-04 12:34:26.403389
2005  2023-12-04 12:34:26.451255
2006  2023-12-04 12:34:26.483168
2007  2023-12-04 12:34:26.531046
2008  2023-12-04 12:34:26.577927
2009  2023-12-04 12:34:26.609832
2010  2023-12-04 12:34:26.657670
2011  2023-12-04 12:34:26.705577
2012  2023-12-04 12:34:26.736494
2013  2023-12-04 12:34:26.784363
2014  2023-12-04 12:34:26.816290
2015  2023-12-04 12:34:26.864157
2016  2023-12-04 12:34:26.912029
2017  2023-12-04 12:34:26.943939
2018  2023-12-04 12:34:26.990810
2019  2023-12-04 12:34:27.038686
2020  2023-12-04 12:34:27.070604
2021  2023-12-04 12:34:27.118469
2022  2023-12-04 12:34:27.149401
2023  2023-12-04 12:34:27.197265
2024  2023-12-04 12:34:27.245135
2025  2023-12-04 12:34:27.277046
2026  2023-12-04 12:34:27.323930
2027  2023-12-04 12:34:27.371788
2028  2023-12-04 12:34:27.403679
2029  2023-12-04 12:34:27.451591
2030  2023-12-04 12:34:27.484492
2031  2023-12-04 12:34:27.531334
2032  2023-12-04 12:34:27.579250
2033  2023-12-04 12:34:27.611158
2034  2023-12-04 12:34:27.658229
2035  2023-12-04 12:34:27.706864
2036  2023-12-04 12:34:27.738816
2037  2023-12-04 12:34:27.786703
2038  2023-12-04 12:34:27.818596
2039  2023-12-04 12:34:27.866497
2040  2023-12-04 12:34:27.912315
2041  2023-12-04 12:34:27.944229
2042  2023-12-04 12:34:27.991104
2043  2023-12-04 12:34:28.039090
2044  2023-12-04 12:34:28.071005
2045  2023-12-04 12:34:28.118877
2046  2023-12-04 12:34:28.150792
2047  2023-12-04 12:34:28.198664
2048  2023-12-04 12:34:28.246577
2049  2023-12-04 12:34:28.278509
2050  2023-12-04 12:34:28.325325
2051  2023-12-04 12:34:28.372237
2052  2023-12-04 12:34:28.404253
2053  2023-12-04 12:34:28.452289
2054  2023-12-04 12:34:28.484170
2055  2023-12-04 12:34:28.532072
2056  2023-12-04 12:34:28.579914
2057  2023-12-04 12:34:28.611860
2058  2023-12-04 12:34:28.659700
2059  2023-12-04 12:34:28.691615
2060  2023-12-04 12:34:28.739518
2061  2023-12-04 12:34:28.787359
2062  2023-12-04 12:34:28.819274
2063  2023-12-04 12:34:28.867180
2064  2023-12-04 12:34:28.899095
2065  2023-12-04 12:34:28.945975
2066  2023-12-04 12:34:28.993807
2067  2023-12-04 12:34:29.024760
2068  2023-12-04 12:34:29.072631
2069  2023-12-04 12:34:29.120509
2070  2023-12-04 12:34:29.151419
2071  2023-12-04 12:34:29.200257
2072  2023-12-04 12:34:29.247163
2073  2023-12-04 12:34:29.279081
2074  2023-12-04 12:34:29.326953
2075  2023-12-04 12:34:29.358867
2076  2023-12-04 12:34:29.405706
2077  2023-12-04 12:34:29.453621
2078  2023-12-04 12:34:29.485524
2079  2023-12-04 12:34:29.533396
2080  2023-12-04 12:34:29.580393
2081  2023-12-04 12:34:29.612195
2082  2023-12-04 12:34:29.660058
2083  2023-12-04 12:34:29.690942
2084  2023-12-04 12:34:29.738853
2085  2023-12-04 12:34:29.786717
2086  2023-12-04 12:34:29.818640
2087  2023-12-04 12:34:29.866512
2088  2023-12-04 12:34:29.914384
2089  2023-12-04 12:34:29.946260
2090  2023-12-04 12:34:29.994165
2091  2023-12-04 12:34:30.025086
2092  2023-12-04 12:34:30.072957
2093  2023-12-04 12:34:30.120824
2094  2023-12-04 12:34:30.152739
2095  2023-12-04 12:34:30.200630
2096  2023-12-04 12:34:30.246488
2097  2023-12-04 12:34:30.278405
2098  2023-12-04 12:34:30.326243
2099  2023-12-04 12:34:30.358158
2100  2023-12-04 12:34:30.404069
2101  2023-12-04 12:34:30.451907
2102  2023-12-04 12:34:30.483822
2103  2023-12-04 12:34:30.531729
2104  2023-12-04 12:34:30.579764
2105  2023-12-04 12:34:30.611520
2106  2023-12-04 12:34:30.659353
2107  2023-12-04 12:34:30.706261
2108  2023-12-04 12:34:30.738173
2109  2023-12-04 12:34:30.786050
2110  2023-12-04 12:34:30.817929
2111  2023-12-04 12:34:30.865844
2112  2023-12-04 12:34:30.912710
2113  2023-12-04 12:34:30.944625
2114  2023-12-04 12:34:30.992462
2115  2023-12-04 12:34:31.039367
2116  2023-12-04 12:34:31.071290
2117  2023-12-04 12:34:31.119329
2118  2023-12-04 12:34:31.151076
2119  2023-12-04 12:34:31.197949
2120  2023-12-04 12:34:31.245820
2121  2023-12-04 12:34:31.277589
2122  2023-12-04 12:34:31.325497
2123  2023-12-04 12:34:31.357630
2124  2023-12-04 12:34:31.405511
2125  2023-12-04 12:34:31.453385
2126  2023-12-04 12:34:31.485292
2127  2023-12-04 12:34:31.533163
2128  2023-12-04 12:34:31.581004
2129  2023-12-04 12:34:31.611954
2130  2023-12-04 12:34:31.659824
2131  2023-12-04 12:34:31.691740
2132  2023-12-04 12:34:31.739620
2133  2023-12-04 12:34:31.786486
2134  2023-12-04 12:34:31.818402
2135  2023-12-04 12:34:31.865287
2136  2023-12-04 12:34:31.912150
2137  2023-12-04 12:34:31.943069
2138  2023-12-04 12:34:31.989909
2139  2023-12-04 12:34:32.037814
2140  2023-12-04 12:34:32.069732
2141  2023-12-04 12:34:32.116572
2142  2023-12-04 12:34:32.164445
2143  2023-12-04 12:34:32.195361
2144  2023-12-04 12:34:32.243264
2145  2023-12-04 12:34:32.275181
2146  2023-12-04 12:34:32.323020
2147  2023-12-04 12:34:32.370922
2148  2023-12-04 12:34:32.402842
2149  2023-12-04 12:34:32.450679
2150  2023-12-04 12:34:32.482593
2151  2023-12-04 12:34:32.529498
2152  2023-12-04 12:34:32.577381
2153  2023-12-04 12:34:32.609294
2154  2023-12-04 12:34:32.657126
2155  2023-12-04 12:34:32.705027
2156  2023-12-04 12:34:32.735969
2157  2023-12-04 12:34:32.783821
2158  2023-12-04 12:34:32.815764
2159  2023-12-04 12:34:32.864641
2160  2023-12-04 12:34:32.910553
2161  2023-12-04 12:34:32.942469
2162  2023-12-04 12:34:32.989340
2163  2023-12-04 12:34:33.037212
2164  2023-12-04 12:34:33.070093
2165  2023-12-04 12:34:33.113974
2166  2023-12-04 12:34:33.161880
2167  2023-12-04 12:34:33.192808
2168  2023-12-04 12:34:33.240667
2169  2023-12-04 12:34:33.288555
2170  2023-12-04 12:34:33.320422
2171  2023-12-04 12:34:33.368325
2172  2023-12-04 12:34:33.400209
2173  2023-12-04 12:34:33.448122
2174  2023-12-04 12:34:33.495999
2175  2023-12-04 12:34:33.527903
2176  2023-12-04 12:34:33.575771
2177  2023-12-04 12:34:33.623646
2178  2023-12-04 12:34:33.654688
2179  2023-12-04 12:34:33.702555
2180  2023-12-04 12:34:33.734629
2181  2023-12-04 12:34:33.782523
2182  2023-12-04 12:34:33.828368
2183  2023-12-04 12:34:33.859285
2184  2023-12-04 12:34:33.906196
2185  2023-12-04 12:34:33.953073
2186  2023-12-04 12:34:33.983991
2187  2023-12-04 12:34:34.031825
2188  2023-12-04 12:34:34.079735
2189  2023-12-04 12:34:34.110657
2190  2023-12-04 12:34:34.158485
2191  2023-12-04 12:34:34.205394
2192  2023-12-04 12:34:34.237310
2193  2023-12-04 12:34:34.285147
2194  2023-12-04 12:34:34.317145
2195  2023-12-04 12:34:34.364021
2196  2023-12-04 12:34:34.411893
2197  2023-12-04 12:34:34.443808
2198  2023-12-04 12:34:34.491752
2199  2023-12-04 12:34:34.539630
2200  2023-12-04 12:34:34.571543
2201  2023-12-04 12:34:34.619409
2202  2023-12-04 12:34:34.651328
2203  2023-12-04 12:34:34.699197
2204  2023-12-04 12:34:34.747081
2205  2023-12-04 12:34:34.779003
2206  2023-12-04 12:34:34.826857
2207  2023-12-04 12:34:34.858770
2208  2023-12-04 12:34:34.906651
2209  2023-12-04 12:34:34.954518
2210  2023-12-04 12:34:34.986432
2211  2023-12-04 12:34:35.033465
2212  2023-12-04 12:34:35.081174
2213  2023-12-04 12:34:35.112101
2214  2023-12-04 12:34:35.159965
2215  2023-12-04 12:34:35.191890
2216  2023-12-04 12:34:35.239756
2217  2023-12-04 12:34:35.287643
2218  2023-12-04 12:34:35.319543
2219  2023-12-04 12:34:35.367422
2220  2023-12-04 12:34:35.399294
2221  2023-12-04 12:34:35.447196
2222  2023-12-04 12:34:35.495086
2223  2023-12-04 12:34:35.526990
2224  2023-12-04 12:34:35.574856
2225  2023-12-04 12:34:35.621734
2226  2023-12-04 12:34:35.652648
2227  2023-12-04 12:34:35.701487
2228  2023-12-04 12:34:35.747465
2229  2023-12-04 12:34:35.778467
2230  2023-12-04 12:34:35.826309
2231  2023-12-04 12:34:35.858224
2232  2023-12-04 12:34:35.906131
2233  2023-12-04 12:34:35.953016
2234  2023-12-04 12:34:35.984921
2235  2023-12-04 12:34:36.032806
2236  2023-12-04 12:34:36.079662
2237  2023-12-04 12:34:36.111576
2238  2023-12-04 12:34:36.159418
2239  2023-12-04 12:34:36.191333
2240  2023-12-04 12:34:36.239236
2241  2023-12-04 12:34:36.287077
2242  2023-12-04 12:34:36.319035
2243  2023-12-04 12:34:36.366914
2244  2023-12-04 12:34:36.413771
2245  2023-12-04 12:34:36.444658
2246  2023-12-04 12:34:36.492563
2247  2023-12-04 12:34:36.524496
2248  2023-12-04 12:34:36.572348
2249  2023-12-04 12:34:36.619225
2250  2023-12-04 12:34:36.651139
2251  2023-12-04 12:34:36.699008
2252  2023-12-04 12:34:36.746879
2253  2023-12-04 12:34:36.778964
2254  2023-12-04 12:34:36.826634
2255  2023-12-04 12:34:36.858606
2256  2023-12-04 12:34:36.905423
2257  2023-12-04 12:34:36.953335
2258  2023-12-04 12:34:36.985244
2259  2023-12-04 12:34:37.034120
2260  2023-12-04 12:34:37.080996
2261  2023-12-04 12:34:37.112900
2262  2023-12-04 12:34:37.160779
2263  2023-12-04 12:34:37.192694
2264  2023-12-04 12:34:37.240560
2265  2023-12-04 12:34:37.287443
2266  2023-12-04 12:34:37.319353
2267  2023-12-04 12:34:37.366228
2268  2023-12-04 12:34:37.414069
2269  2023-12-04 12:34:37.446013
2270  2023-12-04 12:34:37.493850
2271  2023-12-04 12:34:37.525798
2272  2023-12-04 12:34:37.572678
2273  2023-12-04 12:34:37.620542
2274  2023-12-04 12:34:37.652462
2275  2023-12-04 12:34:37.700298
2276  2023-12-04 12:34:37.747213
2277  2023-12-04 12:34:37.780085
2278  2023-12-04 12:34:37.825962
2279  2023-12-04 12:34:37.857903
2280  2023-12-04 12:34:37.905782
2281  2023-12-04 12:34:37.951746
2282  2023-12-04 12:34:37.983871
2283  2023-12-04 12:34:38.030687
2284  2023-12-04 12:34:38.078554
2285  2023-12-04 12:34:38.110470
2286  2023-12-04 12:34:38.157402
2287  2023-12-04 12:34:38.206273
2288  2023-12-04 12:34:38.238188
2289  2023-12-04 12:34:38.285060
2290  2023-12-04 12:34:38.316977
2291  2023-12-04 12:34:38.365899
2292  2023-12-04 12:34:38.411724
2293  2023-12-04 12:34:38.443639
2294  2023-12-04 12:34:38.491509
2295  2023-12-04 12:34:38.539417
2296  2023-12-04 12:34:38.571326
2297  2023-12-04 12:34:38.618170
2298  2023-12-04 12:34:38.650121
2299  2023-12-04 12:34:38.697956
2300  2023-12-04 12:34:38.745829
2301  2023-12-04 12:34:38.777744
2302  2023-12-04 12:34:38.825615
2303  2023-12-04 12:34:38.857530
2304  2023-12-04 12:34:38.903407
2305  2023-12-04 12:34:38.951313
2306  2023-12-04 12:34:38.983224
2307  2023-12-04 12:34:39.030102
2308  2023-12-04 12:34:39.077975
2309  2023-12-04 12:34:39.108896
2310  2023-12-04 12:34:39.156764
2311  2023-12-04 12:34:39.203634
2312  2023-12-04 12:34:39.236554
2313  2023-12-04 12:34:39.284421
2314  2023-12-04 12:34:39.330298
2315  2023-12-04 12:34:39.362215
2316  2023-12-04 12:34:39.410093
2317  2023-12-04 12:34:39.442007
2318  2023-12-04 12:34:39.489871
2319  2023-12-04 12:34:39.536877
2320  2023-12-04 12:34:39.567788
2321  2023-12-04 12:34:39.615659
2322  2023-12-04 12:34:39.662538
2323  2023-12-04 12:34:39.694417
2324  2023-12-04 12:34:39.742323
2325  2023-12-04 12:34:39.774238
2326  2023-12-04 12:34:39.821163
2327  2023-12-04 12:34:39.869006
2328  2023-12-04 12:34:39.900865
2329  2023-12-04 12:34:39.948767
2330  2023-12-04 12:34:39.996609
2331  2023-12-04 12:34:40.028523
2332  2023-12-04 12:34:40.075433
2333  2023-12-04 12:34:40.122304
2334  2023-12-04 12:34:40.154222
2335  2023-12-04 12:34:40.202117
2336  2023-12-04 12:34:40.234004
2337  2023-12-04 12:34:40.281891
2338  2023-12-04 12:34:40.329719
2339  2023-12-04 12:34:40.361634
2340  2023-12-04 12:34:40.408507
2341  2023-12-04 12:34:40.455413
2342  2023-12-04 12:34:40.487362
2343  2023-12-04 12:34:40.535347
2344  2023-12-04 12:34:40.567499
2345  2023-12-04 12:34:40.615289
2346  2023-12-04 12:34:40.663162
2347  2023-12-04 12:34:40.695115
2348  2023-12-04 12:34:40.743058
2349  2023-12-04 12:34:40.775066
2350  2023-12-04 12:34:40.822951
2351  2023-12-04 12:34:40.870811
2352  2023-12-04 12:34:40.902724
2353  2023-12-04 12:34:40.950601
2354  2023-12-04 12:34:40.982540
2355  2023-12-04 12:34:41.030483
2356  2023-12-04 12:34:41.078358
2357  2023-12-04 12:34:41.110267
2358  2023-12-04 12:34:41.158137
2359  2023-12-04 12:34:41.206011
2360  2023-12-04 12:34:41.237894
2361  2023-12-04 12:34:41.285766
2362  2023-12-04 12:34:41.317711
2363  2023-12-04 12:34:41.364555
2364  2023-12-04 12:34:41.412460
2365  2023-12-04 12:34:41.444381
2366  2023-12-04 12:34:41.492244
2367  2023-12-04 12:34:41.524163
2368  2023-12-04 12:34:41.572035
2369  2023-12-04 12:34:41.619905
2370  2023-12-04 12:34:41.651822
2371  2023-12-04 12:34:41.698697
2372  2023-12-04 12:34:41.746571
2373  2023-12-04 12:34:41.778488
2374  2023-12-04 12:34:41.826517
2375  2023-12-04 12:34:41.872387
2376  2023-12-04 12:34:41.904301
2377  2023-12-04 12:34:41.952157
2378  2023-12-04 12:34:41.985076
2379  2023-12-04 12:34:42.032912
2380  2023-12-04 12:34:42.080824
2381  2023-12-04 12:34:42.110747
2382  2023-12-04 12:34:42.158662
2383  2023-12-04 12:34:42.205568
2384  2023-12-04 12:34:42.236487
2385  2023-12-04 12:34:42.284326
2386  2023-12-04 12:34:42.330203
2387  2023-12-04 12:34:42.361121
2388  2023-12-04 12:34:42.408994
2389  2023-12-04 12:34:42.441984
2390  2023-12-04 12:34:42.488889
2391  2023-12-04 12:34:42.536866
2392  2023-12-04 12:34:42.568780
2393  2023-12-04 12:34:42.616892
2394  2023-12-04 12:34:42.664608
2395  2023-12-04 12:34:42.695525
2396  2023-12-04 12:34:42.743458
2397  2023-12-04 12:34:42.775345
2398  2023-12-04 12:34:42.823216
2399  2023-12-04 12:34:42.871087
2400  2023-12-04 12:34:42.903007
2401  2023-12-04 12:34:42.949876
2402  2023-12-04 12:34:42.996752
2403  2023-12-04 12:34:43.026641
2404  2023-12-04 12:34:43.074577
2405  2023-12-04 12:34:43.119425
2406  2023-12-04 12:34:43.151475
2407  2023-12-04 12:34:43.199410
2408  2023-12-04 12:34:43.248288
2409  2023-12-04 12:34:43.278207
2410  2023-12-04 12:34:43.326037
2411  2023-12-04 12:34:43.357952
2412  2023-12-04 12:34:43.407872
2413  2023-12-04 12:34:43.452699
2414  2023-12-04 12:34:43.484613
2415  2023-12-04 12:34:43.532485
2416  2023-12-04 12:34:43.579362
2417  2023-12-04 12:34:43.611403
2418  2023-12-04 12:34:43.659148
2419  2023-12-04 12:34:43.691063
2420  2023-12-04 12:34:43.737936
2421  2023-12-04 12:34:43.785808
2422  2023-12-04 12:34:43.817755
2423  2023-12-04 12:34:43.865596
2424  2023-12-04 12:34:43.913479
2425  2023-12-04 12:34:43.945415
2426  2023-12-04 12:34:43.992435
2427  2023-12-04 12:34:44.024350
2428  2023-12-04 12:34:44.072222
2429  2023-12-04 12:34:44.120094
2430  2023-12-04 12:34:44.152008
2431  2023-12-04 12:34:44.199880
2432  2023-12-04 12:34:44.247752
2433  2023-12-04 12:34:44.279667
2434  2023-12-04 12:34:44.327616
2435  2023-12-04 12:34:44.359532
2436  2023-12-04 12:34:44.407441
2437  2023-12-04 12:34:44.455350
2438  2023-12-04 12:34:44.487321
2439  2023-12-04 12:34:44.535210
2440  2023-12-04 12:34:44.567171
2441  2023-12-04 12:34:44.615090
2442  2023-12-04 12:34:44.662949
2443  2023-12-04 12:34:44.694861
2444  2023-12-04 12:34:44.742742
2445  2023-12-04 12:34:44.774661
2446  2023-12-04 12:34:44.822521
2447  2023-12-04 12:34:44.870391
2448  2023-12-04 12:34:44.902308
2449  2023-12-04 12:34:44.950221
2450  2023-12-04 12:34:44.997148
2451  2023-12-04 12:34:45.029098
2452  2023-12-04 12:34:45.076972
2453  2023-12-04 12:34:45.108881
2454  2023-12-04 12:34:45.155768
2455  2023-12-04 12:34:45.203743
2456  2023-12-04 12:34:45.235714
2457  2023-12-04 12:34:45.283777
2458  2023-12-04 12:34:45.315726
2459  2023-12-04 12:34:45.363565
2460  2023-12-04 12:34:45.411450
2461  2023-12-04 12:34:45.443439
2462  2023-12-04 12:34:45.491433
2463  2023-12-04 12:34:45.539378
2464  2023-12-04 12:34:45.571291
2465  2023-12-04 12:34:45.619286
2466  2023-12-04 12:34:45.651208
2467  2023-12-04 12:34:45.699078
2468  2023-12-04 12:34:45.745954
2469  2023-12-04 12:34:45.777832
2470  2023-12-04 12:34:45.825740
2471  2023-12-04 12:34:45.857654
2472  2023-12-04 12:34:45.904525
2473  2023-12-04 12:34:45.952485
2474  2023-12-04 12:34:45.984365
2475  2023-12-04 12:34:46.032268
2476  2023-12-04 12:34:46.080110
2477  2023-12-04 12:34:46.112132
2478  2023-12-04 12:34:46.159032
2479  2023-12-04 12:34:46.190889
2480  2023-12-04 12:34:46.239805
2481  2023-12-04 12:34:46.287748
2482  2023-12-04 12:34:46.319652
2483  2023-12-04 12:34:46.366499
2484  2023-12-04 12:34:46.413408
2485  2023-12-04 12:34:46.446331
2486  2023-12-04 12:34:46.494188
2487  2023-12-04 12:34:46.538064
2488  2023-12-04 12:34:46.568948
2489  2023-12-04 12:34:46.616819
2490  2023-12-04 12:34:46.663851
2491  2023-12-04 12:34:46.695856
2492  2023-12-04 12:34:46.743729
2493  2023-12-04 12:34:46.775671
2494  2023-12-04 12:34:46.823545
2495  2023-12-04 12:34:46.871418
2496  2023-12-04 12:34:46.903333
2497  2023-12-04 12:34:46.951239
2498  2023-12-04 12:34:46.983154
2499  2023-12-04 12:34:47.029994
2500  2023-12-04 12:34:47.076910
2501  2023-12-04 12:34:47.108869
2502  2023-12-04 12:34:47.156740
2503  2023-12-04 12:34:47.204645
2504  2023-12-04 12:34:47.236602
2505  2023-12-04 12:34:47.283639
2506  2023-12-04 12:34:47.330518
2507  2023-12-04 12:34:47.362431
2508  2023-12-04 12:34:47.410308
2509  2023-12-04 12:34:47.442220
2510  2023-12-04 12:34:47.490089
2511  2023-12-04 12:34:47.536966
2512  2023-12-04 12:34:47.567885
2513  2023-12-04 12:34:47.615722
2514  2023-12-04 12:34:47.662629
2515  2023-12-04 12:34:47.694546
2516  2023-12-04 12:34:47.742384
2517  2023-12-04 12:34:47.789294
2518  2023-12-04 12:34:47.821112
2519  2023-12-04 12:34:47.869054
2520  2023-12-04 12:34:47.899973
2521  2023-12-04 12:34:47.948855
2522  2023-12-04 12:34:47.994830
2523  2023-12-04 12:34:48.026744
2524  2023-12-04 12:34:48.074760
2525  2023-12-04 12:34:48.122562
2526  2023-12-04 12:34:48.154483
2527  2023-12-04 12:34:48.202356
2528  2023-12-04 12:34:48.234271
2529  2023-12-04 12:34:48.282142
2530  2023-12-04 12:34:48.330014
2531  2023-12-04 12:34:48.361929
2532  2023-12-04 12:34:48.409910
2533  2023-12-04 12:34:48.441835
2534  2023-12-04 12:34:48.489664
2535  2023-12-04 12:34:48.537535
2536  2023-12-04 12:34:48.569450
2537  2023-12-04 12:34:48.617322
2538  2023-12-04 12:34:48.649237
2539  2023-12-04 12:34:48.695121
2540  2023-12-04 12:34:48.743019
2541  2023-12-04 12:34:48.788863
2542  2023-12-04 12:34:48.819812
2543  2023-12-04 12:34:48.865691
2544  2023-12-04 12:34:48.914565
2545  2023-12-04 12:34:48.945495
2546  2023-12-04 12:34:48.993350
2547  2023-12-04 12:34:49.025393
2548  2023-12-04 12:34:49.073265
2549  2023-12-04 12:34:49.121140
2550  2023-12-04 12:34:49.153061
2551  2023-12-04 12:34:49.199925
2552  2023-12-04 12:34:49.247798
2553  2023-12-04 12:34:49.279710
2554  2023-12-04 12:34:49.327586
2555  2023-12-04 12:34:49.359497
2556  2023-12-04 12:34:49.407372
2557  2023-12-04 12:34:49.455311
2558  2023-12-04 12:34:49.487398
2559  2023-12-04 12:34:49.535271
2560  2023-12-04 12:34:49.566196
2561  2023-12-04 12:34:49.614065
2562  2023-12-04 12:34:49.661901
2563  2023-12-04 12:34:49.693856
2564  2023-12-04 12:34:49.740725
2565  2023-12-04 12:34:49.788561
2566  2023-12-04 12:34:49.820588
2567  2023-12-04 12:34:49.867472
2568  2023-12-04 12:34:49.915353
2569  2023-12-04 12:34:49.947361
2570  2023-12-04 12:34:49.993207
2571  2023-12-04 12:34:50.025122
2572  2023-12-04 12:34:50.072994
2573  2023-12-04 12:34:50.118924
2574  2023-12-04 12:34:50.150786
2575  2023-12-04 12:34:50.198658
2576  2023-12-04 12:34:50.246569
2577  2023-12-04 12:34:50.278545
2578  2023-12-04 12:34:50.326434
2579  2023-12-04 12:34:50.372345
2580  2023-12-04 12:34:50.404226
2581  2023-12-04 12:34:50.452148
2582  2023-12-04 12:34:50.484053
2583  2023-12-04 12:34:50.532042
2584  2023-12-04 12:34:50.579802
2585  2023-12-04 12:34:50.611712
2586  2023-12-04 12:34:50.659544
2587  2023-12-04 12:34:50.691458
2588  2023-12-04 12:34:50.739397
2589  2023-12-04 12:34:50.787233
2590  2023-12-04 12:34:50.819151
2591  2023-12-04 12:34:50.865992
2592  2023-12-04 12:34:50.913900
2593  2023-12-04 12:34:50.944824
2594  2023-12-04 12:34:50.992685
2595  2023-12-04 12:34:51.024598
2596  2023-12-04 12:34:51.072476
2597  2023-12-04 12:34:51.120346
2598  2023-12-04 12:34:51.152265
2599  2023-12-04 12:34:51.200303
2600  2023-12-04 12:34:51.247280
2601  2023-12-04 12:34:51.279159
2602  2023-12-04 12:34:51.326067
2603  2023-12-04 12:34:51.357983
2604  2023-12-04 12:34:51.406859
2605  2023-12-04 12:34:51.453727
2606  2023-12-04 12:34:51.485642
2607  2023-12-04 12:34:51.533510
2608  2023-12-04 12:34:51.581351
2609  2023-12-04 12:34:51.612302
2610  2023-12-04 12:34:51.660181
2611  2023-12-04 12:34:51.692087
2612  2023-12-04 12:34:51.740924
2613  2023-12-04 12:34:51.788819
2614  2023-12-04 12:34:51.819742
2615  2023-12-04 12:34:51.867637
2616  2023-12-04 12:34:51.913495
2617  2023-12-04 12:34:51.945410
2618  2023-12-04 12:34:51.992251
2619  2023-12-04 12:34:52.024181
2620  2023-12-04 12:34:52.073083
2621  2023-12-04 12:34:52.118912
2622  2023-12-04 12:34:52.149865
2623  2023-12-04 12:34:52.197841
2624  2023-12-04 12:34:52.245787
2625  2023-12-04 12:34:52.277717
2626  2023-12-04 12:34:52.325537
2627  2023-12-04 12:34:52.357451
2628  2023-12-04 12:34:52.405323
2629  2023-12-04 12:34:52.453234
2630  2023-12-04 12:34:52.485144
2631  2023-12-04 12:34:52.532982
2632  2023-12-04 12:34:52.579893
2633  2023-12-04 12:34:52.611819
2634  2023-12-04 12:34:52.659643
2635  2023-12-04 12:34:52.705561
2636  2023-12-04 12:34:52.736622
2637  2023-12-04 12:34:52.783617
2638  2023-12-04 12:34:52.830599
2639  2023-12-04 12:34:52.862653
2640  2023-12-04 12:34:52.910493
2641  2023-12-04 12:34:52.942406
2642  2023-12-04 12:34:52.990308
2643  2023-12-04 12:34:53.038194
2644  2023-12-04 12:34:53.070100
2645  2023-12-04 12:34:53.117990
2646  2023-12-04 12:34:53.163930
2647  2023-12-04 12:34:53.195925
2648  2023-12-04 12:34:53.243801
2649  2023-12-04 12:34:53.275710
2650  2023-12-04 12:34:53.323590
2651  2023-12-04 12:34:53.371458
2652  2023-12-04 12:34:53.403373
2653  2023-12-04 12:34:53.451242
2654  2023-12-04 12:34:53.483161
2655  2023-12-04 12:34:53.530030
2656  2023-12-04 12:34:53.578908
2657  2023-12-04 12:34:53.609783
2658  2023-12-04 12:34:53.658653
2659  2023-12-04 12:34:53.706565
2660  2023-12-04 12:34:53.736483
2661  2023-12-04 12:34:53.784346
2662  2023-12-04 12:34:53.816261
2663  2023-12-04 12:34:53.865107
2664  2023-12-04 12:34:53.912016
2665  2023-12-04 12:34:53.944923
2666  2023-12-04 12:34:53.989801
2667  2023-12-04 12:34:54.037639
2668  2023-12-04 12:34:54.069553
2669  2023-12-04 12:34:54.117460
2670  2023-12-04 12:34:54.149375
2671  2023-12-04 12:34:54.197212
2672  2023-12-04 12:34:54.245118
2673  2023-12-04 12:34:54.277035
2674  2023-12-04 12:34:54.324871
2675  2023-12-04 12:34:54.372743
2676  2023-12-04 12:34:54.403660
2677  2023-12-04 12:34:54.451532
2678  2023-12-04 12:34:54.482449
2679  2023-12-04 12:34:54.529324
2680  2023-12-04 12:34:54.577229
2681  2023-12-04 12:34:54.608147
2682  2023-12-04 12:34:54.656019
2683  2023-12-04 12:34:54.702891
2684  2023-12-04 12:34:54.734807
2685  2023-12-04 12:34:54.782648
2686  2023-12-04 12:34:54.830549
2687  2023-12-04 12:34:54.862469
2688  2023-12-04 12:34:54.910353
2689  2023-12-04 12:34:54.942272
2690  2023-12-04 12:34:54.989144
2691  2023-12-04 12:34:55.037002
2692  2023-12-04 12:34:55.068909
2693  2023-12-04 12:34:55.116873
2694  2023-12-04 12:34:55.163752
2695  2023-12-04 12:34:55.195666
2696  2023-12-04 12:34:55.243541
2697  2023-12-04 12:34:55.275468
2698  2023-12-04 12:34:55.323330
2699  2023-12-04 12:34:55.371203
2700  2023-12-04 12:34:55.403108
2701  2023-12-04 12:34:55.450983
2702  2023-12-04 12:34:55.482894
2703  2023-12-04 12:34:55.529771
2704  2023-12-04 12:34:55.576648
2705  2023-12-04 12:34:55.609552
2706  2023-12-04 12:34:55.657428
2707  2023-12-04 12:34:55.705306
2708  2023-12-04 12:34:55.735241
2709  2023-12-04 12:34:55.783106
2710  2023-12-04 12:34:55.830985
2711  2023-12-04 12:34:55.862880
2712  2023-12-04 12:34:55.910751
2713  2023-12-04 12:34:55.942681
2714  2023-12-04 12:34:55.990551
2715  2023-12-04 12:34:56.035387
2716  2023-12-04 12:34:56.067302
2717  2023-12-04 12:34:56.115207
2718  2023-12-04 12:34:56.161051
2719  2023-12-04 12:34:56.192966
2720  2023-12-04 12:34:56.240873
2721  2023-12-04 12:34:56.288710
2722  2023-12-04 12:34:56.320797
2723  2023-12-04 12:34:56.368496
2724  2023-12-04 12:34:56.400411
2725  2023-12-04 12:34:56.447316
2726  2023-12-04 12:34:56.495158
2727  2023-12-04 12:34:56.526077
2728  2023-12-04 12:34:56.573985
2729  2023-12-04 12:34:56.620854
2730  2023-12-04 12:34:56.652769
2731  2023-12-04 12:34:56.700672
2732  2023-12-04 12:34:56.732553
2733  2023-12-04 12:34:56.779431
2734  2023-12-04 12:34:56.827304
2735  2023-12-04 12:34:56.859217
2736  2023-12-04 12:34:56.907090
2737  2023-12-04 12:34:56.954968
2738  2023-12-04 12:34:56.986881
2739  2023-12-04 12:34:57.033749
2740  2023-12-04 12:34:57.080626
2741  2023-12-04 12:34:57.112539
2742  2023-12-04 12:34:57.160407
2743  2023-12-04 12:34:57.191330
2744  2023-12-04 12:34:57.239168
2745  2023-12-04 12:34:57.288071
2746  2023-12-04 12:34:57.318995
2747  2023-12-04 12:34:57.367873
2748  2023-12-04 12:34:57.413747
2749  2023-12-04 12:34:57.445656
2750  2023-12-04 12:34:57.493530
2751  2023-12-04 12:34:57.525436
2752  2023-12-04 12:34:57.574273
2753  2023-12-04 12:34:57.622182
2754  2023-12-04 12:34:57.652103
2755  2023-12-04 12:34:57.699936
2756  2023-12-04 12:34:57.747837
2757  2023-12-04 12:34:57.779758
2758  2023-12-04 12:34:57.827594
2759  2023-12-04 12:34:57.859498
2760  2023-12-04 12:34:57.907407
2761  2023-12-04 12:34:57.955279
2762  2023-12-04 12:34:57.987200
2763  2023-12-04 12:34:58.035028
2764  2023-12-04 12:34:58.065945
2765  2023-12-04 12:34:58.113853
2766  2023-12-04 12:34:58.160692
2767  2023-12-04 12:34:58.192607
2768  2023-12-04 12:34:58.240538
2769  2023-12-04 12:34:58.288352
2770  2023-12-04 12:34:58.320309
2771  2023-12-04 12:34:58.368234
2772  2023-12-04 12:34:58.400149
2773  2023-12-04 12:34:58.448073
2774  2023-12-04 12:34:58.495893
2775  2023-12-04 12:34:58.527808
2776  2023-12-04 12:34:58.575723
2777  2023-12-04 12:34:58.607625
2778  2023-12-04 12:34:58.655466
2779  2023-12-04 12:34:58.703378
2780  2023-12-04 12:34:58.735253
2781  2023-12-04 12:34:58.783158
2782  2023-12-04 12:34:58.829999
2783  2023-12-04 12:34:58.860954
2784  2023-12-04 12:34:58.908823
2785  2023-12-04 12:34:58.940741
2786  2023-12-04 12:34:58.988575
2787  2023-12-04 12:34:59.036487
2788  2023-12-04 12:34:59.068363
2789  2023-12-04 12:34:59.116291
2790  2023-12-04 12:34:59.163143
2791  2023-12-04 12:34:59.195060
2792  2023-12-04 12:34:59.240936
2793  2023-12-04 12:34:59.288805
2794  2023-12-04 12:34:59.319730
2795  2023-12-04 12:34:59.366587
2796  2023-12-04 12:34:59.414472
2797  2023-12-04 12:34:59.446395
2798  2023-12-04 12:34:59.494263
2799  2023-12-04 12:34:59.526183
2800  2023-12-04 12:34:59.574163
2801  2023-12-04 12:34:59.620051
2802  2023-12-04 12:34:59.651964
2803  2023-12-04 12:34:59.699826
2804  2023-12-04 12:34:59.746701
2805  2023-12-04 12:34:59.779721
2806  2023-12-04 12:34:59.827591
2807  2023-12-04 12:34:59.858477
2808  2023-12-04 12:34:59.906349
2809  2023-12-04 12:34:59.954256
2810  2023-12-04 12:34:59.986301
2811  2023-12-04 12:35:00.034143
2812  2023-12-04 12:35:00.066058
2813  2023-12-04 12:35:00.113961
2814  2023-12-04 12:35:00.160804
2815  2023-12-04 12:35:00.191727
2816  2023-12-04 12:35:00.240628
2817  2023-12-04 12:35:00.287510
2818  2023-12-04 12:35:00.318421
2819  2023-12-04 12:35:00.366255
2820  2023-12-04 12:35:00.414129
2821  2023-12-04 12:35:00.446060
2822  2023-12-04 12:35:00.493913
2823  2023-12-04 12:35:00.525828
2824  2023-12-04 12:35:00.573734
2825  2023-12-04 12:35:00.621572
2826  2023-12-04 12:35:00.652490
2827  2023-12-04 12:35:00.700361
2828  2023-12-04 12:35:00.748235
2829  2023-12-04 12:35:00.779151
2830  2023-12-04 12:35:00.827023
2831  2023-12-04 12:35:00.858937
2832  2023-12-04 12:35:00.905813
2833  2023-12-04 12:35:00.953724
2834  2023-12-04 12:35:00.985633
2835  2023-12-04 12:35:01.033502
2836  2023-12-04 12:35:01.080379
2837  2023-12-04 12:35:01.112294
2838  2023-12-04 12:35:01.160180
2839  2023-12-04 12:35:01.192089
2840  2023-12-04 12:35:01.239973
2841  2023-12-04 12:35:01.287830
2842  2023-12-04 12:35:01.319745
2843  2023-12-04 12:35:01.366620
2844  2023-12-04 12:35:01.414484
2845  2023-12-04 12:35:01.446398
2846  2023-12-04 12:35:01.493241
2847  2023-12-04 12:35:01.525200
2848  2023-12-04 12:35:01.573028
2849  2023-12-04 12:35:01.619939
2850  2023-12-04 12:35:01.650852
2851  2023-12-04 12:35:01.698723
2852  2023-12-04 12:35:01.746595
2853  2023-12-04 12:35:01.778510
2854  2023-12-04 12:35:01.826383
2855  2023-12-04 12:35:01.872230
2856  2023-12-04 12:35:01.904142
2857  2023-12-04 12:35:01.952174
2858  2023-12-04 12:35:01.984408
2859  2023-12-04 12:35:02.031247
2860  2023-12-04 12:35:02.078240
2861  2023-12-04 12:35:02.109124
2862  2023-12-04 12:35:02.157092
2863  2023-12-04 12:35:02.206080
2864  2023-12-04 12:35:02.237992
2865  2023-12-04 12:35:02.284868
2866  2023-12-04 12:35:02.316749
2867  2023-12-04 12:35:02.364651
2868  2023-12-04 12:35:02.411540
2869  2023-12-04 12:35:02.442459
2870  2023-12-04 12:35:02.490362
2871  2023-12-04 12:35:02.538235
2872  2023-12-04 12:35:02.570174
2873  2023-12-04 12:35:02.617987
2874  2023-12-04 12:35:02.649937
2875  2023-12-04 12:35:02.696860
2876  2023-12-04 12:35:02.744731
2877  2023-12-04 12:35:02.776654
2878  2023-12-04 12:35:02.824591
2879  2023-12-04 12:35:02.872470
2880  2023-12-04 12:35:02.904378
2881  2023-12-04 12:35:02.952341
2882  2023-12-04 12:35:02.984257
2883  2023-12-04 12:35:03.032127
2884  2023-12-04 12:35:03.079005
2885  2023-12-04 12:35:03.110934
2886  2023-12-04 12:35:03.158799
2887  2023-12-04 12:35:03.190701
2888  2023-12-04 12:35:03.238576
2889  2023-12-04 12:35:03.286458
2890  2023-12-04 12:35:03.318367
2891  2023-12-04 12:35:03.365239
2892  2023-12-04 12:35:03.413110
2893  2023-12-04 12:35:03.444030
2894  2023-12-04 12:35:03.490908
2895  2023-12-04 12:35:03.539776
2896  2023-12-04 12:35:03.569521
2897  2023-12-04 12:35:03.617521
2898  2023-12-04 12:35:03.665408
2899  2023-12-04 12:35:03.695279
2900  2023-12-04 12:35:03.743185
2901  2023-12-04 12:35:03.775100
2902  2023-12-04 12:35:03.821940
2903  2023-12-04 12:35:03.869843
2904  2023-12-04 12:35:03.901727
2905  2023-12-04 12:35:03.949638
2906  2023-12-04 12:35:03.997471
2907  2023-12-04 12:35:04.029467
2908  2023-12-04 12:35:04.077291
2909  2023-12-04 12:35:04.110273
2910  2023-12-04 12:35:04.157227
2911  2023-12-04 12:35:04.204250
2912  2023-12-04 12:35:04.236134
2913  2023-12-04 12:35:04.284006
2914  2023-12-04 12:35:04.330878
2915  2023-12-04 12:35:04.362793
2916  2023-12-04 12:35:04.410666
2917  2023-12-04 12:35:04.442617
2918  2023-12-04 12:35:04.489344
2919  2023-12-04 12:35:04.538202
2920  2023-12-04 12:35:04.570187
2921  2023-12-04 12:35:04.617014
2922  2023-12-04 12:35:04.663931
2923  2023-12-04 12:35:04.695846
2924  2023-12-04 12:35:04.743670
2925  2023-12-04 12:35:04.775673
2926  2023-12-04 12:35:04.823633
2927  2023-12-04 12:35:04.871505
2928  2023-12-04 12:35:04.903419
2929  2023-12-04 12:35:04.951395
2930  2023-12-04 12:35:04.997245
2931  2023-12-04 12:35:05.029160
2932  2023-12-04 12:35:05.077030
2933  2023-12-04 12:35:05.108945
2934  2023-12-04 12:35:05.156822
2935  2023-12-04 12:35:05.204690
2936  2023-12-04 12:35:05.236606
2937  2023-12-04 12:35:05.283550
2938  2023-12-04 12:35:05.330463
2939  2023-12-04 12:35:05.362340
2940  2023-12-04 12:35:05.410213
2941  2023-12-04 12:35:05.442197
2942  2023-12-04 12:35:05.490036
2943  2023-12-04 12:35:05.538938
2944  2023-12-04 12:35:05.569821
2945  2023-12-04 12:35:05.618811
2946  2023-12-04 12:35:05.649720
2947  2023-12-04 12:35:05.698588
2948  2023-12-04 12:35:05.744465
2949  2023-12-04 12:35:05.776350
2950  2023-12-04 12:35:05.824263
2951  2023-12-04 12:35:05.870137
2952  2023-12-04 12:35:05.902154
2953  2023-12-04 12:35:05.949064
2954  2023-12-04 12:35:05.996901
2955  2023-12-04 12:35:06.028815
2956  2023-12-04 12:35:06.076731
2957  2023-12-04 12:35:06.108633
2958  2023-12-04 12:35:06.156474
2959  2023-12-04 12:35:06.204347
2960  2023-12-04 12:35:06.236310
2961  2023-12-04 12:35:06.284133
2962  2023-12-04 12:35:06.316140
2963  2023-12-04 12:35:06.363012
2964  2023-12-04 12:35:06.410917
2965  2023-12-04 12:35:06.442799
2966  2023-12-04 12:35:06.488676
2967  2023-12-04 12:35:06.536548
2968  2023-12-04 12:35:06.568463
2969  2023-12-04 12:35:06.616387
2970  2023-12-04 12:35:06.664237
2971  2023-12-04 12:35:06.696151
2972  2023-12-04 12:35:06.744028
2973  2023-12-04 12:35:06.775944
2974  2023-12-04 12:35:06.823833
2975  2023-12-04 12:35:06.871692
2976  2023-12-04 12:35:06.903606
2977  2023-12-04 12:35:06.951472
2978  2023-12-04 12:35:06.983387
2979  2023-12-04 12:35:07.031257
2980  2023-12-04 12:35:07.079097
2981  2023-12-04 12:35:07.111046
2982  2023-12-04 12:35:07.158921
2983  2023-12-04 12:35:07.190838
2984  2023-12-04 12:35:07.238670
2985  2023-12-04 12:35:07.286647
2986  2023-12-04 12:35:07.318566
2987  2023-12-04 12:35:07.365401
2988  2023-12-04 12:35:07.413320
2989  2023-12-04 12:35:07.445226
2990  2023-12-04 12:35:07.492097
2991  2023-12-04 12:35:07.524025
2992  2023-12-04 12:35:07.571895
2993  2023-12-04 12:35:07.619771
2994  2023-12-04 12:35:07.651667
2995  2023-12-04 12:35:07.699661
2996  2023-12-04 12:35:07.747703
2997  2023-12-04 12:35:07.779608
2998  2023-12-04 12:35:07.827475
2999  2023-12-04 12:35:07.859369
3000  2023-12-04 12:35:07.907262
3001  2023-12-04 12:35:07.955098
3002  2023-12-04 12:35:07.987013
3003  2023-12-04 12:35:08.034884
3004  2023-12-04 12:35:08.066835
3005  2023-12-04 12:35:08.113707
3006  2023-12-04 12:35:08.160751
3007  2023-12-04 12:35:08.192633
3008  2023-12-04 12:35:08.239544
3009  2023-12-04 12:35:08.287419
3010  2023-12-04 12:35:08.320324
3011  2023-12-04 12:35:08.368217
3012  2023-12-04 12:35:08.399082
3013  2023-12-04 12:35:08.447980
3014  2023-12-04 12:35:08.496862
3015  2023-12-04 12:35:08.527929
3016  2023-12-04 12:35:08.574924
3017  2023-12-04 12:35:08.624797
3018  2023-12-04 12:35:08.655725
3019  2023-12-04 12:35:08.704585
3020  2023-12-04 12:35:08.734495
3021  2023-12-04 12:35:08.782375
3022  2023-12-04 12:35:08.830258
3023  2023-12-04 12:35:08.862176
3024  2023-12-04 12:35:08.910058
3025  2023-12-04 12:35:08.941966
3026  2023-12-04 12:35:08.990813
3027  2023-12-04 12:35:09.035663
3028  2023-12-04 12:35:09.068574
3029  2023-12-04 12:35:09.115447
3030  2023-12-04 12:35:09.163452
3031  2023-12-04 12:35:09.195341
3032  2023-12-04 12:35:09.244261
3033  2023-12-04 12:35:09.276205
3034  2023-12-04 12:35:09.323048
3035  2023-12-04 12:35:09.370920
3036  2023-12-04 12:35:09.402835
3037  2023-12-04 12:35:09.450707
3038  2023-12-04 12:35:09.482621
3039  2023-12-04 12:35:09.530494
3040  2023-12-04 12:35:09.578486
3041  2023-12-04 12:35:09.610400
3042  2023-12-04 12:35:09.658340
3043  2023-12-04 12:35:09.706270
3044  2023-12-04 12:35:09.738184
3045  2023-12-04 12:35:09.786055
3046  2023-12-04 12:35:09.818014
3047  2023-12-04 12:35:09.865872
3048  2023-12-04 12:35:09.913747
3049  2023-12-04 12:35:09.944631
3050  2023-12-04 12:35:09.992503
3051  2023-12-04 12:35:10.024451
3052  2023-12-04 12:35:10.072290
3053  2023-12-04 12:35:10.119195
3054  2023-12-04 12:35:10.151134
3055  2023-12-04 12:35:10.197954
3056  2023-12-04 12:35:10.245867
3057  2023-12-04 12:35:10.276743
3058  2023-12-04 12:35:10.324670
3059  2023-12-04 12:35:10.372520
3060  2023-12-04 12:35:10.404433
3061  2023-12-04 12:35:10.452392
3062  2023-12-04 12:35:10.484306
3063  2023-12-04 12:35:10.532351
3064  2023-12-04 12:35:10.580293
3065  2023-12-04 12:35:10.612204
3066  2023-12-04 12:35:10.660073
3067  2023-12-04 12:35:10.691991
3068  2023-12-04 12:35:10.739858
3069  2023-12-04 12:35:10.787932
3070  2023-12-04 12:35:10.819647
3071  2023-12-04 12:35:10.866489
3072  2023-12-04 12:35:10.914397
3073  2023-12-04 12:35:10.946319
3074  2023-12-04 12:35:10.993150
3075  2023-12-04 12:35:11.025098
3076  2023-12-04 12:35:11.072976
3077  2023-12-04 12:35:11.120810
3078  2023-12-04 12:35:11.152758
3079  2023-12-04 12:35:11.199632
3080  2023-12-04 12:35:11.247507
3081  2023-12-04 12:35:11.280413
3082  2023-12-04 12:35:11.327296
3083  2023-12-04 12:35:11.358223
3084  2023-12-04 12:35:11.407082
3085  2023-12-04 12:35:11.454953
3086  2023-12-04 12:35:11.486874
3087  2023-12-04 12:35:11.534763
3088  2023-12-04 12:35:11.580697
3089  2023-12-04 12:35:11.611660
3090  2023-12-04 12:35:11.660530
3091  2023-12-04 12:35:11.692429
3092  2023-12-04 12:35:11.740303
3093  2023-12-04 12:35:11.786327
3094  2023-12-04 12:35:11.818242
3095  2023-12-04 12:35:11.866152
3096  2023-12-04 12:35:11.914031
3097  2023-12-04 12:35:11.944903
3098  2023-12-04 12:35:11.991782
3099  2023-12-04 12:35:12.038652
3100  2023-12-04 12:35:12.070567
3101  2023-12-04 12:35:12.117475
3102  2023-12-04 12:35:12.149389
3103  2023-12-04 12:35:12.195267
3104  2023-12-04 12:35:12.243139
3105  2023-12-04 12:35:12.275058
3106  2023-12-04 12:35:12.322926
3107  2023-12-04 12:35:12.370924
3108  2023-12-04 12:35:12.402836
3109  2023-12-04 12:35:12.450719
3110  2023-12-04 12:35:12.482641
3111  2023-12-04 12:35:12.529506
3112  2023-12-04 12:35:12.577047
3113  2023-12-04 12:35:12.608929
3114  2023-12-04 12:35:12.656824
3115  2023-12-04 12:35:12.704815
3116  2023-12-04 12:35:12.736729
3117  2023-12-04 12:35:12.783620
3118  2023-12-04 12:35:12.830499
3119  2023-12-04 12:35:12.862482
3120  2023-12-04 12:35:12.911367
3121  2023-12-04 12:35:12.942421
3122  2023-12-04 12:35:12.990277
3123  2023-12-04 12:35:13.038288
3124  2023-12-04 12:35:13.071171
3125  2023-12-04 12:35:13.119083
3126  2023-12-04 12:35:13.165948
3127  2023-12-04 12:35:13.197864
3128  2023-12-04 12:35:13.244708
3129  2023-12-04 12:35:13.275671
3130  2023-12-04 12:35:13.325595
3131  2023-12-04 12:35:13.371616
3132  2023-12-04 12:35:13.402582
3133  2023-12-04 12:35:13.450458
3134  2023-12-04 12:35:13.482351
3135  2023-12-04 12:35:13.531236
3136  2023-12-04 12:35:13.579095
3137  2023-12-04 12:35:13.611026
3138  2023-12-04 12:35:13.658891
3139  2023-12-04 12:35:13.706749
3140  2023-12-04 12:35:13.738669
3141  2023-12-04 12:35:13.786537
3142  2023-12-04 12:35:13.818477
3143  2023-12-04 12:35:13.866343
3144  2023-12-04 12:35:13.914203
3145  2023-12-04 12:35:13.946111
3146  2023-12-04 12:35:13.991956
3147  2023-12-04 12:35:14.038830
3148  2023-12-04 12:35:14.070745
3149  2023-12-04 12:35:14.118648
3150  2023-12-04 12:35:14.150563
3151  2023-12-04 12:35:14.198404
3152  2023-12-04 12:35:14.244314
3153  2023-12-04 12:35:14.276284
3154  2023-12-04 12:35:14.324222
3155  2023-12-04 12:35:14.372141
3156  2023-12-04 12:35:14.403059
3157  2023-12-04 12:35:14.451107
3158  2023-12-04 12:35:14.483021
3159  2023-12-04 12:35:14.530894
3160  2023-12-04 12:35:14.578912
3161  2023-12-04 12:35:14.610752
3162  2023-12-04 12:35:14.658630
3163  2023-12-04 12:35:14.705468
3164  2023-12-04 12:35:14.736417
3165  2023-12-04 12:35:14.784273
3166  2023-12-04 12:35:14.816207
3167  2023-12-04 12:35:14.863080
3168  2023-12-04 12:35:14.910956
3169  2023-12-04 12:35:14.942890
3170  2023-12-04 12:35:14.990755
3171  2023-12-04 12:35:15.039607
3172  2023-12-04 12:35:15.069526
3173  2023-12-04 12:35:15.117368
3174  2023-12-04 12:35:15.149335
3175  2023-12-04 12:35:15.196204
3176  2023-12-04 12:35:15.243067
3177  2023-12-04 12:35:15.289936
3178  2023-12-04 12:35:15.321850
3179  2023-12-04 12:35:15.369741
3180  2023-12-04 12:35:15.401697
3181  2023-12-04 12:35:15.449567
3182  2023-12-04 12:35:15.497440
3183  2023-12-04 12:35:15.529366
3184  2023-12-04 12:35:15.575238
3185  2023-12-04 12:35:15.622204
3186  2023-12-04 12:35:15.654136
3187  2023-12-04 12:35:15.701951
3188  2023-12-04 12:35:15.733866
3189  2023-12-04 12:35:15.780740
3190  2023-12-04 12:35:15.828643
3191  2023-12-04 12:35:15.860557
3192  2023-12-04 12:35:15.907402
3193  2023-12-04 12:35:15.955317
3194  2023-12-04 12:35:15.987227
3195  2023-12-04 12:35:16.035060
3196  2023-12-04 12:35:16.066975
3197  2023-12-04 12:35:16.114880
3198  2023-12-04 12:35:16.162719
3199  2023-12-04 12:35:16.194674
3200  2023-12-04 12:35:16.242545
3201  2023-12-04 12:35:16.274457
3202  2023-12-04 12:35:16.322443
3203  2023-12-04 12:35:16.370281
3204  2023-12-04 12:35:16.402196
3205  2023-12-04 12:35:16.450111
3206  2023-12-04 12:35:16.497940
3207  2023-12-04 12:35:16.528857
3208  2023-12-04 12:35:16.576764
3209  2023-12-04 12:35:16.608675
3210  2023-12-04 12:35:16.656548
3211  2023-12-04 12:35:16.704418
3212  2023-12-04 12:35:16.736468
3213  2023-12-04 12:35:16.784244
3214  2023-12-04 12:35:16.831084
3215  2023-12-04 12:35:16.862999
3216  2023-12-04 12:35:16.910871
3217  2023-12-04 12:35:16.942753
3218  2023-12-04 12:35:16.990673
3219  2023-12-04 12:35:17.038534
3220  2023-12-04 12:35:17.070442
3221  2023-12-04 12:35:17.116321
3222  2023-12-04 12:35:17.164190
3223  2023-12-04 12:35:17.196105
3224  2023-12-04 12:35:17.242950
3225  2023-12-04 12:35:17.275896
3226  2023-12-04 12:35:17.320780
3227  2023-12-04 12:35:17.368612
3228  2023-12-04 12:35:17.400573
3229  2023-12-04 12:35:17.448435
3230  2023-12-04 12:35:17.496302
3231  2023-12-04 12:35:17.526244
3232  2023-12-04 12:35:17.573065
3233  2023-12-04 12:35:17.620970
3234  2023-12-04 12:35:17.652921
3235  2023-12-04 12:35:17.700832
3236  2023-12-04 12:35:17.732747
3237  2023-12-04 12:35:17.779622
3238  2023-12-04 12:35:17.827528
3239  2023-12-04 12:35:17.859439
3240  2023-12-04 12:35:17.907280
3241  2023-12-04 12:35:17.955203
3242  2023-12-04 12:35:17.986102
3243  2023-12-04 12:35:18.033942
3244  2023-12-04 12:35:18.080863
3245  2023-12-04 12:35:18.112732
3246  2023-12-04 12:35:18.160603
3247  2023-12-04 12:35:18.192549
3248  2023-12-04 12:35:18.239425
3249  2023-12-04 12:35:18.287298
3250  2023-12-04 12:35:18.319215
3251  2023-12-04 12:35:18.367051
3252  2023-12-04 12:35:18.413962
3253  2023-12-04 12:35:18.445901
3254  2023-12-04 12:35:18.493812
3255  2023-12-04 12:35:18.525725
3256  2023-12-04 12:35:18.573560
3257  2023-12-04 12:35:18.621465
3258  2023-12-04 12:35:18.653527
3259  2023-12-04 12:35:18.701249
3260  2023-12-04 12:35:18.733170
3261  2023-12-04 12:35:18.781005
3262  2023-12-04 12:35:18.828989
3263  2023-12-04 12:35:18.859901
3264  2023-12-04 12:35:18.907862
3265  2023-12-04 12:35:18.955732
3266  2023-12-04 12:35:18.987647
3267  2023-12-04 12:35:19.035604
3268  2023-12-04 12:35:19.067432
3269  2023-12-04 12:35:19.114313
3270  2023-12-04 12:35:19.162187
3271  2023-12-04 12:35:19.194095
3272  2023-12-04 12:35:19.241964
3273  2023-12-04 12:35:19.288874
3274  2023-12-04 12:35:19.320752
3275  2023-12-04 12:35:19.369638
3276  2023-12-04 12:35:19.400554
3277  2023-12-04 12:35:19.449401
3278  2023-12-04 12:35:19.496283
3279  2023-12-04 12:35:19.529198
3280  2023-12-04 12:35:19.576076
3281  2023-12-04 12:35:19.608982
3282  2023-12-04 12:35:19.656861
3283  2023-12-04 12:35:19.702701
3284  2023-12-04 12:35:19.734647
3285  2023-12-04 12:35:19.782519
3286  2023-12-04 12:35:19.830401
3287  2023-12-04 12:35:19.862307
3288  2023-12-04 12:35:19.910179
3289  2023-12-04 12:35:19.942094
3290  2023-12-04 12:35:19.989965
3291  2023-12-04 12:35:20.037836
3292  2023-12-04 12:35:20.069841
3293  2023-12-04 12:35:20.118632
3294  2023-12-04 12:35:20.166508
3295  2023-12-04 12:35:20.198407
3296  2023-12-04 12:35:20.246285
3297  2023-12-04 12:35:20.276167
3298  2023-12-04 12:35:20.324080
3299  2023-12-04 12:35:20.372050
3300  2023-12-04 12:35:20.405960
3301  2023-12-04 12:35:20.450877
3302  2023-12-04 12:35:20.482791
3303  2023-12-04 12:35:20.530626
3304  2023-12-04 12:35:20.578498
3305  2023-12-04 12:35:20.610413
3306  2023-12-04 12:35:20.658314
3307  2023-12-04 12:35:20.706242
3308  2023-12-04 12:35:20.737204
3309  2023-12-04 12:35:20.785111
3310  2023-12-04 12:35:20.817045
3311  2023-12-04 12:35:20.864862
3312  2023-12-04 12:35:20.912760
3313  2023-12-04 12:35:20.944769
3314  2023-12-04 12:35:20.991603
3315  2023-12-04 12:35:21.039509
3316  2023-12-04 12:35:21.071425
3317  2023-12-04 12:35:21.119297
3318  2023-12-04 12:35:21.151211
3319  2023-12-04 12:35:21.199048
3320  2023-12-04 12:35:21.245956
3321  2023-12-04 12:35:21.277869
3322  2023-12-04 12:35:21.325742
3323  2023-12-04 12:35:21.357656
3324  2023-12-04 12:35:21.404544
3325  2023-12-04 12:35:21.450407
3326  2023-12-04 12:35:21.497283
3327  2023-12-04 12:35:21.529201
3328  2023-12-04 12:35:21.578074
3329  2023-12-04 12:35:21.608984
3330  2023-12-04 12:35:21.656863
3331  2023-12-04 12:35:21.704890
3332  2023-12-04 12:35:21.736805
3333  2023-12-04 12:35:21.784768
3334  2023-12-04 12:35:21.815684
3335  2023-12-04 12:35:21.863556
3336  2023-12-04 12:35:21.911397
3337  2023-12-04 12:35:21.943312
3338  2023-12-04 12:35:21.991218
3339  2023-12-04 12:35:22.039092
3340  2023-12-04 12:35:22.070970
3341  2023-12-04 12:35:22.118883
3342  2023-12-04 12:35:22.150824
3343  2023-12-04 12:35:22.199662
3344  2023-12-04 12:35:22.247506
3345  2023-12-04 12:35:22.279418
3346  2023-12-04 12:35:22.327324
3347  2023-12-04 12:35:22.372325
3348  2023-12-04 12:35:22.404245
3349  2023-12-04 12:35:22.453226
3350  2023-12-04 12:35:22.485128
3351  2023-12-04 12:35:22.532969
3352  2023-12-04 12:35:22.580874
3353  2023-12-04 12:35:22.612792
3354  2023-12-04 12:35:22.660659
3355  2023-12-04 12:35:22.692573
3356  2023-12-04 12:35:22.740448
3357  2023-12-04 12:35:22.788318
3358  2023-12-04 12:35:22.820238
3359  2023-12-04 12:35:22.868119
3360  2023-12-04 12:35:22.900076
3361  2023-12-04 12:35:22.947955
3362  2023-12-04 12:35:22.996002
3363  2023-12-04 12:35:23.028890
3364  2023-12-04 12:35:23.075772
3365  2023-12-04 12:35:23.124644
3366  2023-12-04 12:35:23.156568
3367  2023-12-04 12:35:23.204426
3368  2023-12-04 12:35:23.236338
3369  2023-12-04 12:35:23.284181
3370  2023-12-04 12:35:23.332052
3371  2023-12-04 12:35:23.361972
3372  2023-12-04 12:35:23.407887
3373  2023-12-04 12:35:23.456721
3374  2023-12-04 12:35:23.487638
3375  2023-12-04 12:35:23.534587
3376  2023-12-04 12:35:23.566497
3377  2023-12-04 12:35:23.614404
3378  2023-12-04 12:35:23.662241
3379  2023-12-04 12:35:23.694156
3380  2023-12-04 12:35:23.742064
3381  2023-12-04 12:35:23.788903
3382  2023-12-04 12:35:23.820817
3383  2023-12-04 12:35:23.868726
3384  2023-12-04 12:35:23.900604
3385  2023-12-04 12:35:23.948478
3386  2023-12-04 12:35:23.995385
3387  2023-12-04 12:35:24.027265
3388  2023-12-04 12:35:24.076140
3389  2023-12-04 12:35:24.122055
3390  2023-12-04 12:35:24.154047
3391  2023-12-04 12:35:24.202047
3392  2023-12-04 12:35:24.233833
3393  2023-12-04 12:35:24.281673
3394  2023-12-04 12:35:24.329544
3395  2023-12-04 12:35:24.361491
3396  2023-12-04 12:35:24.409467
3397  2023-12-04 12:35:24.442367
3398  2023-12-04 12:35:24.488242
3399  2023-12-04 12:35:24.535114
3400  2023-12-04 12:35:24.567029
3401  2023-12-04 12:35:24.613903
3402  2023-12-04 12:35:24.661784
3403  2023-12-04 12:35:24.693689
3404  2023-12-04 12:35:24.741530
3405  2023-12-04 12:35:24.789439
3406  2023-12-04 12:35:24.821348
3407  2023-12-04 12:35:24.869220
3408  2023-12-04 12:35:24.900141
3409  2023-12-04 12:35:24.949007
3410  2023-12-04 12:35:24.997877
3411  2023-12-04 12:35:25.028829
3412  2023-12-04 12:35:25.076735
3413  2023-12-04 12:35:25.108652
3414  2023-12-04 12:35:25.157519
3415  2023-12-04 12:35:25.204389
3416  2023-12-04 12:35:25.234445
3417  2023-12-04 12:35:25.280191
3418  2023-12-04 12:35:25.327065
3419  2023-12-04 12:35:25.358978
3420  2023-12-04 12:35:25.405852
3421  2023-12-04 12:35:25.453724
3422  2023-12-04 12:35:25.484609
3423  2023-12-04 12:35:25.532481
3424  2023-12-04 12:35:25.580371
3425  2023-12-04 12:35:25.612270
3426  2023-12-04 12:35:25.659142
3427  2023-12-04 12:35:25.691104
3428  2023-12-04 12:35:25.739036
3429  2023-12-04 12:35:25.785916
3430  2023-12-04 12:35:25.817831
3431  2023-12-04 12:35:25.865704
3432  2023-12-04 12:35:25.913607
3433  2023-12-04 12:35:25.945524
3434  2023-12-04 12:35:25.993401
3435  2023-12-04 12:35:26.024338
3436  2023-12-04 12:35:26.072185
3437  2023-12-04 12:35:26.120053
3438  2023-12-04 12:35:26.151968
3439  2023-12-04 12:35:26.199855
3440  2023-12-04 12:35:26.247720
3441  2023-12-04 12:35:26.278642
3442  2023-12-04 12:35:26.326501
3443  2023-12-04 12:35:26.357390
3444  2023-12-04 12:35:26.405260
3445  2023-12-04 12:35:26.452165
3446  2023-12-04 12:35:26.484088
3447  2023-12-04 12:35:26.532157
3448  2023-12-04 12:35:26.579839
3449  2023-12-04 12:35:26.610762
3450  2023-12-04 12:35:26.660608
3451  2023-12-04 12:35:26.705488
3452  2023-12-04 12:35:26.737404
3453  2023-12-04 12:35:26.786393
3454  2023-12-04 12:35:26.817325
3455  2023-12-04 12:35:26.863155
3456  2023-12-04 12:35:26.910065
3457  2023-12-04 12:35:26.941978
3458  2023-12-04 12:35:26.989857
3459  2023-12-04 12:35:27.037727
3460  2023-12-04 12:35:27.069635
3461  2023-12-04 12:35:27.118544
3462  2023-12-04 12:35:27.150448
3463  2023-12-04 12:35:27.197262
3464  2023-12-04 12:35:27.246174
3465  2023-12-04 12:35:27.277081
3466  2023-12-04 12:35:27.324109
3467  2023-12-04 12:35:27.371020
3468  2023-12-04 12:35:27.403897
3469  2023-12-04 12:35:27.448776
3470  2023-12-04 12:35:27.496587
3471  2023-12-04 12:35:27.528505
3472  2023-12-04 12:35:27.576436
3473  2023-12-04 12:35:27.608351
3474  2023-12-04 12:35:27.656271
3475  2023-12-04 12:35:27.704145
3476  2023-12-04 12:35:27.735177
3477  2023-12-04 12:35:27.782053
3478  2023-12-04 12:35:27.829924
3479  2023-12-04 12:35:27.861835
3480  2023-12-04 12:35:27.909711
3481  2023-12-04 12:35:27.941627
3482  2023-12-04 12:35:27.989497
3483  2023-12-04 12:35:28.036374
3484  2023-12-04 12:35:28.068289
3485  2023-12-04 12:35:28.116157
3486  2023-12-04 12:35:28.164032
3487  2023-12-04 12:35:28.195976
3488  2023-12-04 12:35:28.242817
3489  2023-12-04 12:35:28.274732
3490  2023-12-04 12:35:28.322695
3491  2023-12-04 12:35:28.370481
3492  2023-12-04 12:35:28.402360
3493  2023-12-04 12:35:28.449272
3494  2023-12-04 12:35:28.497155
3495  2023-12-04 12:35:28.529023
3496  2023-12-04 12:35:28.576894
3497  2023-12-04 12:35:28.608857
3498  2023-12-04 12:35:28.655715
3499  2023-12-04 12:35:28.704585
3500  2023-12-04 12:35:28.736518
3501  2023-12-04 12:35:28.784398
3502  2023-12-04 12:35:28.833211
3503  2023-12-04 12:35:28.862130
3504  2023-12-04 12:35:28.910040
3505  2023-12-04 12:35:28.943945
3506  2023-12-04 12:35:28.989789
3507  2023-12-04 12:35:29.037692
3508  2023-12-04 12:35:29.069606
3509  2023-12-04 12:35:29.117481
3510  2023-12-04 12:35:29.164445
3511  2023-12-04 12:35:29.196355
3512  2023-12-04 12:35:29.244262
3513  2023-12-04 12:35:29.276175
3514  2023-12-04 12:35:29.324014
3515  2023-12-04 12:35:29.371926
3516  2023-12-04 12:35:29.403834
3517  2023-12-04 12:35:29.451770
3518  2023-12-04 12:35:29.483685
3519  2023-12-04 12:35:29.530560
3520  2023-12-04 12:35:29.578445
3521  2023-12-04 12:35:29.610361
3522  2023-12-04 12:35:29.658218
3523  2023-12-04 12:35:29.706278
3524  2023-12-04 12:35:29.736193
3525  2023-12-04 12:35:29.784061
3526  2023-12-04 12:35:29.815977
3527  2023-12-04 12:35:29.863918
3528  2023-12-04 12:35:29.911903
3529  2023-12-04 12:35:29.943816
3530  2023-12-04 12:35:29.991694
3531  2023-12-04 12:35:30.039527
3532  2023-12-04 12:35:30.070488
3533  2023-12-04 12:35:30.118325
3534  2023-12-04 12:35:30.150265
3535  2023-12-04 12:35:30.198134
3536  2023-12-04 12:35:30.245011
3537  2023-12-04 12:35:30.276926
3538  2023-12-04 12:35:30.323808
3539  2023-12-04 12:35:30.370680
3540  2023-12-04 12:35:30.402590
3541  2023-12-04 12:35:30.450463
3542  2023-12-04 12:35:30.482374
3543  2023-12-04 12:35:30.530256
3544  2023-12-04 12:35:30.578124
3545  2023-12-04 12:35:30.610035
3546  2023-12-04 12:35:30.657908
3547  2023-12-04 12:35:30.705788
3548  2023-12-04 12:35:30.737691
3549  2023-12-04 12:35:30.786556
3550  2023-12-04 12:35:30.818483
3551  2023-12-04 12:35:30.866344
3552  2023-12-04 12:35:30.912227
3553  2023-12-04 12:35:30.943146
3554  2023-12-04 12:35:30.991011
3555  2023-12-04 12:35:31.038889
3556  2023-12-04 12:35:31.070804
3557  2023-12-04 12:35:31.118673
3558  2023-12-04 12:35:31.150588
3559  2023-12-04 12:35:31.198428
3560  2023-12-04 12:35:31.247299
3561  2023-12-04 12:35:31.278249
